samplenr	I	II	III	aVR	aVL	aVF	V1	V2	V3	V4	V5	V6	measurement
0	-17.08707	-98.45407	-82.18067	56.14323	30.91946	-90.31737	72.41663	32.5468	92.75838	-103.33609	-88.69003	-119.60949	0
1	-13.83239	-98.45407	-84.62168	56.14323	33.36047	-90.31737	72.41663	32.5468	90.31737	-103.33609	-88.69003	-119.60949	0
2	-11.39138	-98.45407	-87.06269	53.70222	35.80148	-92.75838	72.41663	32.5468	85.43535	-100.89508	-88.69003	-119.60949	0
3	-1.62734	-98.45407	-96.82673	48.8202	45.56552	-97.6404	69.97562	30.10579	82.99434	-98.45407	-86.24902	-117.16848	0
4	13.01872	-98.45407	-111.47279	41.49717	60.21158	-104.96343	65.0936	25.22377	82.99434	-96.01306	-83.80801	-112.28646	0
5	27.66478	-100.89508	-128.55986	36.61515	77.29865	-114.72747	57.77057	17.90074	78.11232	-96.01306	-83.80801	-112.28646	0
6	34.98781	-100.89508	-135.88289	31.73313	84.62168	-117.16848	55.32956	13.01872	78.11232	-93.57205	-81.367	-109.84545	0
7	27.66478	-108.21811	-135.88289	39.05616	79.73966	-122.0505	55.32956	5.69569	75.67131	-93.57205	-81.367	-109.84545	0
8	17.90074	-113.10013	-131.00087	46.37919	72.41663	-122.0505	55.32956	-1.62734	70.78929	-91.13104	-78.92599	-109.84545	0
9	13.01872	-115.54114	-128.55986	51.26121	69.97562	-122.0505	60.21158	-4.06835	63.46626	-91.13104	-78.92599	-109.84545	0
10	10.57771	-120.42316	-131.00087	53.70222	69.97562	-124.49151	67.53461	-6.50936	58.58424	-96.01306	-81.367	-112.28646	0
11	0.81367	-122.86417	-123.67784	61.02525	60.21158	-122.0505	74.85764	-6.50936	58.58424	-96.01306	-81.367	-112.28646	0
12	-13.83239	-127.74619	-113.9138	70.78929	48.00653	-119.60949	82.18067	-6.50936	53.70222	-96.01306	-81.367	-109.84545	0
13	-17.08707	-135.06922	-118.79582	75.67131	50.44754	-126.93252	87.06269	-6.50936	48.8202	-98.45407	-83.80801	-112.28646	0
14	-17.08707	-137.51023	-121.23683	75.67131	50.44754	-129.37353	91.94471	-6.50936	48.8202	-103.33609	-88.69003	-114.72747	0
15	-21.96909	-147.27427	-126.11885	82.99434	50.44754	-136.69656	91.94471	-11.39138	46.37919	-110.65912	-96.01306	-122.0505	0
16	-36.61515	-159.47932	-123.67784	97.6404	43.12451	-141.57858	94.38572	-13.83239	46.37919	-120.42316	-103.33609	-126.93252	0
17	-46.37919	-169.24336	-123.67784	107.40444	38.24249	-146.4606	99.26774	-16.2734	41.49717	-127.74619	-113.10013	-134.25555	0
18	-51.26121	-176.56639	-126.11885	112.28646	35.80148	-151.34262	101.70875	-18.71441	34.17414	-137.51023	-120.42316	-141.57858	0
19	-61.02525	-186.33043	-126.11885	122.0505	30.91946	-156.22464	104.14976	-21.15542	26.85111	-147.27427	-132.62821	-151.34262	0
20	-63.46626	-193.65346	-131.00087	126.93252	33.36047	-163.54767	106.59077	-23.59643	18.71441	-157.03831	-142.39225	-158.66565	0
21	-56.14323	-198.53548	-143.20592	126.93252	43.12451	-170.8707	111.47279	-26.03744	13.83239	-161.92033	-147.27427	-165.98868	0
22	-51.26121	-198.53548	-148.08794	124.49151	48.00653	-173.31171	116.35481	-28.47845	8.95037	-161.92033	-149.71528	-165.98868	0
23	-51.26121	-203.4175	-152.96996	126.93252	50.44754	-178.19373	116.35481	-28.47845	4.06835	-161.92033	-149.71528	-165.98868	0
24	-58.58424	-208.29952	-150.52895	131.81454	45.56552	-180.63474	116.35481	-30.91946	4.06835	-161.92033	-149.71528	-165.98868	0
25	-61.02525	-213.18154	-152.96996	136.69656	45.56552	-183.07575	113.9138	-33.36047	4.06835	-164.36134	-149.71528	-165.98868	0
26	-58.58424	-213.18154	-155.41097	134.25555	48.00653	-185.51676	113.9138	-33.36047	6.50936	-164.36134	-149.71528	-163.54767	0
27	-58.58424	-213.18154	-155.41097	134.25555	48.00653	-185.51676	113.9138	-35.80148	6.50936	-164.36134	-152.15629	-161.10666	0
28	-58.58424	-213.18154	-155.41097	134.25555	48.00653	-185.51676	111.47279	-35.80148	4.06835	-164.36134	-152.15629	-161.10666	0
29	-61.02525	-210.74053	-150.52895	134.25555	43.12451	-180.63474	113.9138	-35.80148	-0.81367	-164.36134	-152.15629	-161.10666	0
30	-56.14323	-213.18154	-157.85198	134.25555	50.44754	-185.51676	113.9138	-35.80148	-5.69569	-164.36134	-154.5973	-163.54767	0
31	-51.26121	-213.18154	-162.734	131.81454	55.32956	-187.95777	116.35481	-35.80148	-8.1367	-164.36134	-154.5973	-163.54767	0
32	-46.37919	-208.29952	-162.734	126.93252	57.77057	-185.51676	118.79582	-33.36047	-13.01872	-161.92033	-152.15629	-161.10666	0
33	-48.8202	-203.4175	-155.41097	124.49151	52.88855	-180.63474	121.23683	-30.91946	-13.01872	-154.5973	-147.27427	-158.66565	0
34	-58.58424	-208.29952	-150.52895	131.81454	45.56552	-180.63474	121.23683	-33.36047	-13.01872	-157.03831	-149.71528	-158.66565	0
35	-56.14323	-215.62255	-160.29299	134.25555	50.44754	-187.95777	113.9138	-38.24249	-15.45973	-161.92033	-157.03831	-163.54767	0
36	-51.26121	-213.18154	-162.734	131.81454	55.32956	-187.95777	109.03178	-38.24249	-13.01872	-161.92033	-159.47932	-163.54767	0
37	-51.26121	-208.29952	-157.85198	129.37353	52.88855	-183.07575	109.03178	-33.36047	-10.57771	-161.92033	-161.92033	-163.54767	0
38	-58.58424	-210.74053	-152.96996	134.25555	45.56552	-183.07575	106.59077	-33.36047	-15.45973	-161.92033	-161.92033	-165.98868	0
39	-63.46626	-210.74053	-148.08794	136.69656	40.6835	-180.63474	106.59077	-33.36047	-17.90074	-164.36134	-166.80235	-165.98868	0
40	-58.58424	-213.18154	-155.41097	134.25555	48.00653	-185.51676	104.14976	-30.91946	-22.78276	-166.80235	-166.80235	-168.42969	0
41	-56.14323	-208.29952	-152.96996	131.81454	48.00653	-180.63474	106.59077	-28.47845	-22.78276	-164.36134	-164.36134	-165.98868	0
42	-61.02525	-208.29952	-148.08794	134.25555	43.12451	-178.19373	106.59077	-26.03744	-25.22377	-157.03831	-159.47932	-158.66565	0
43	-58.58424	-205.85851	-148.08794	131.81454	43.12451	-178.19373	104.14976	-30.91946	-27.66478	-154.5973	-154.5973	-156.22464	0
44	-53.70222	-203.4175	-150.52895	126.93252	48.00653	-178.19373	104.14976	-35.80148	-27.66478	-152.15629	-152.15629	-151.34262	0
45	-51.26121	-205.85851	-155.41097	126.93252	50.44754	-180.63474	99.26774	-43.12451	-30.10579	-154.5973	-152.15629	-151.34262	0
46	-56.14323	-210.74053	-155.41097	131.81454	48.00653	-183.07575	96.82673	-45.56552	-27.66478	-154.5973	-152.15629	-148.90161	0
47	-63.46626	-210.74053	-148.08794	136.69656	40.6835	-180.63474	96.82673	-50.44754	-25.22377	-152.15629	-152.15629	-148.90161	0
48	-63.46626	-208.29952	-145.64693	134.25555	40.6835	-178.19373	96.82673	-50.44754	-25.22377	-152.15629	-149.71528	-148.90161	0
49	-63.46626	-203.4175	-140.76491	131.81454	38.24249	-173.31171	104.14976	-50.44754	-25.22377	-147.27427	-147.27427	-146.4606	0
50	-68.34828	-203.4175	-135.88289	134.25555	33.36047	-170.8707	109.03178	-45.56552	-25.22377	-144.83326	-144.83326	-141.57858	0
51	-68.34828	-200.97649	-133.44188	134.25555	30.91946	-168.42969	116.35481	-40.6835	-20.34175	-137.51023	-139.95124	-139.13757	0
52	-63.46626	-196.09447	-133.44188	129.37353	33.36047	-165.98868	116.35481	-40.6835	-22.78276	-132.62821	-135.06922	-134.25555	0
53	-53.70222	-188.77144	-135.88289	119.60949	40.6835	-163.54767	116.35481	-40.6835	-25.22377	-127.74619	-132.62821	-131.81454	0
54	-51.26121	-188.77144	-138.3239	119.60949	43.12451	-163.54767	113.9138	-40.6835	-25.22377	-127.74619	-130.1872	-129.37353	0
55	-51.26121	-191.21245	-140.76491	119.60949	43.12451	-165.98868	111.47279	-43.12451	-25.22377	-127.74619	-130.1872	-126.93252	0
56	-53.70222	-193.65346	-140.76491	122.0505	43.12451	-168.42969	106.59077	-45.56552	-22.78276	-127.74619	-130.1872	-126.93252	0
57	-53.70222	-193.65346	-140.76491	122.0505	43.12451	-168.42969	104.14976	-48.00653	-25.22377	-127.74619	-130.1872	-126.93252	0
58	-58.58424	-196.09447	-138.3239	126.93252	38.24249	-168.42969	101.70875	-48.00653	-25.22377	-127.74619	-130.1872	-129.37353	0
59	-65.90727	-198.53548	-133.44188	131.81454	33.36047	-165.98868	101.70875	-45.56552	-27.66478	-130.1872	-132.62821	-129.37353	0
60	-63.46626	-198.53548	-135.88289	129.37353	35.80148	-168.42969	104.14976	-43.12451	-30.10579	-130.1872	-132.62821	-129.37353	0
61	-53.70222	-193.65346	-140.76491	122.0505	43.12451	-168.42969	104.14976	-40.6835	-32.5468	-130.1872	-132.62821	-129.37353	0
62	-46.37919	-193.65346	-148.08794	119.60949	50.44754	-170.8707	99.26774	-45.56552	-39.86983	-130.1872	-137.51023	-131.81454	0
63	-46.37919	-196.09447	-150.52895	119.60949	50.44754	-173.31171	96.82673	-48.00653	-44.75185	-130.1872	-137.51023	-131.81454	0
64	-39.05616	-188.77144	-150.52895	112.28646	55.32956	-170.8707	94.38572	-50.44754	-44.75185	-127.74619	-135.06922	-126.93252	0
65	-41.49717	-188.77144	-148.08794	114.72747	52.88855	-168.42969	94.38572	-50.44754	-42.31084	-125.30518	-132.62821	-124.49151	0
66	-43.93818	-186.33043	-143.20592	114.72747	48.00653	-165.98868	91.94471	-52.88855	-39.86983	-125.30518	-130.1872	-124.49151	0
67	-56.14323	-191.21245	-135.88289	122.0505	38.24249	-163.54767	91.94471	-55.32956	-39.86983	-125.30518	-130.1872	-124.49151	0
68	-65.90727	-186.33043	-121.23683	124.49151	26.03744	-153.78363	94.38572	-50.44754	-39.86983	-117.98215	-122.86417	-117.16848	0
69	-68.34828	-179.0074	-111.47279	122.0505	21.15542	-146.4606	96.82673	-48.00653	-39.86983	-115.54114	-120.42316	-114.72747	0
70	-65.90727	-181.44841	-116.35481	122.0505	23.59643	-148.90161	99.26774	-45.56552	-39.86983	-113.10013	-117.98215	-112.28646	0
71	-63.46626	-181.44841	-118.79582	122.0505	26.03744	-151.34262	99.26774	-45.56552	-42.31084	-113.10013	-117.98215	-109.84545	0
72	-56.14323	-181.44841	-126.11885	117.16848	33.36047	-153.78363	96.82673	-45.56552	-47.19286	-110.65912	-117.98215	-107.40444	0
73	-51.26121	-181.44841	-131.00087	114.72747	38.24249	-156.22464	91.94471	-48.00653	-49.63387	-105.7771	-115.54114	-104.96343	0
74	-46.37919	-183.88942	-138.3239	114.72747	45.56552	-161.10666	87.06269	-55.32956	-52.07488	-105.7771	-115.54114	-104.96343	0
75	-39.05616	-183.88942	-145.64693	109.84545	52.88855	-165.98868	79.73966	-60.21158	-54.51589	-108.21811	-120.42316	-107.40444	0
76	-39.05616	-183.88942	-145.64693	109.84545	52.88855	-165.98868	74.85764	-62.65259	-49.63387	-105.7771	-120.42316	-107.40444	0
77	-36.61515	-181.44841	-145.64693	107.40444	52.88855	-163.54767	74.85764	-65.0936	-49.63387	-105.7771	-122.86417	-107.40444	0
78	-36.61515	-179.0074	-143.20592	107.40444	52.88855	-161.10666	74.85764	-67.53461	-49.63387	-105.7771	-122.86417	-107.40444	0
79	-31.73313	-176.56639	-145.64693	102.52242	55.32956	-161.10666	74.85764	-67.53461	-49.63387	-103.33609	-122.86417	-107.40444	0
80	-29.29212	-171.68437	-143.20592	100.08141	55.32956	-158.66565	79.73966	-62.65259	-49.63387	-98.45407	-120.42316	-104.96343	0
81	-29.29212	-169.24336	-140.76491	97.6404	55.32956	-156.22464	82.18067	-60.21158	-47.19286	-96.01306	-117.98215	-100.08141	0
82	-29.29212	-171.68437	-143.20592	100.08141	55.32956	-158.66565	79.73966	-62.65259	-52.07488	-96.01306	-117.98215	-100.08141	0
83	-29.29212	-176.56639	-148.08794	102.52242	57.77057	-163.54767	77.29865	-69.97562	-56.9569	-93.57205	-120.42316	-102.52242	0
84	-29.29212	-179.0074	-150.52895	102.52242	60.21158	-165.98868	74.85764	-69.97562	-56.9569	-91.13104	-120.42316	-100.08141	0
85	-31.73313	-174.12538	-143.20592	102.52242	55.32956	-158.66565	77.29865	-69.97562	-49.63387	-88.69003	-117.98215	-97.6404	0
86	-29.29212	-171.68437	-143.20592	100.08141	55.32956	-158.66565	74.85764	-69.97562	-47.19286	-86.24902	-115.54114	-92.75838	0
87	-26.85111	-171.68437	-145.64693	97.6404	57.77057	-158.66565	74.85764	-69.97562	-44.75185	-83.80801	-117.98215	-92.75838	0
88	-24.4101	-169.24336	-145.64693	95.19939	60.21158	-158.66565	74.85764	-67.53461	-44.75185	-78.92599	-115.54114	-92.75838	0
89	-19.52808	-161.92033	-143.20592	90.31737	60.21158	-153.78363	77.29865	-65.0936	-42.31084	-74.04397	-113.10013	-87.87636	0
90	-19.52808	-159.47932	-140.76491	87.87636	60.21158	-151.34262	79.73966	-60.21158	-42.31084	-69.16195	-110.65912	-85.43535	0
91	-17.08707	-159.47932	-143.20592	87.87636	62.65259	-151.34262	79.73966	-57.77057	-39.86983	-69.16195	-108.21811	-82.99434	0
92	-13.83239	-161.92033	-148.08794	87.87636	65.0936	-153.78363	77.29865	-60.21158	-44.75185	-66.72094	-108.21811	-80.55333	0
93	-8.95037	-164.36134	-155.41097	85.43535	72.41663	-158.66565	72.41663	-62.65259	-44.75185	-61.83892	-108.21811	-78.11232	0
94	0.81367	-159.47932	-160.29299	78.11232	79.73966	-158.66565	69.97562	-65.0936	-42.31084	-59.39791	-105.7771	-75.67131	0
95	-1.62734	-159.47932	-157.85198	80.55333	77.29865	-158.66565	69.97562	-65.0936	-37.42882	-59.39791	-103.33609	-73.2303	0
96	-8.95037	-161.92033	-152.96996	85.43535	69.97562	-156.22464	67.53461	-60.21158	-30.10579	-59.39791	-105.7771	-70.78929	0
97	-11.39138	-159.47932	-148.08794	85.43535	67.53461	-153.78363	72.41663	-50.44754	-22.78276	-64.27993	-113.10013	-75.67131	0
98	-17.08707	-157.03831	-140.76491	85.43535	60.21158	-148.90161	87.06269	-30.91946	-8.1367	-76.48498	-122.86417	-87.87636	0
99	-34.17414	-166.80235	-133.44188	100.08141	48.00653	-151.34262	106.59077	-1.62734	11.39138	-93.57205	-142.39225	-102.52242	0
100	-53.70222	-181.44841	-128.55986	117.16848	35.80148	-156.22464	131.00087	32.5468	39.05616	-115.54114	-164.36134	-122.0505	1000	P+0
101	-68.34828	-198.53548	-131.00087	131.81454	30.91946	-165.98868	152.96996	69.97562	73.2303	-135.06922	-186.33043	-141.57858	0
102	-70.78929	-210.74053	-140.76491	139.13757	33.36047	-175.75272	172.49804	111.47279	114.72747	-147.27427	-200.97649	-156.22464	0
103	-65.90727	-220.50457	-155.41097	141.57858	43.12451	-187.95777	184.70309	155.41097	168.42969	-142.39225	-203.4175	-161.10666	0
104	-56.14323	-232.70962	-177.38006	144.01959	60.21158	-205.04484	182.26208	206.67218	246.54201	-117.98215	-186.33043	-151.34262	0
105	-24.4101	-227.8276	-204.23117	124.49151	89.5037	-217.24989	167.61602	260.3744	346.62342	-56.9569	-139.95124	-119.60949	0
106	27.66478	-198.53548	-226.20026	85.43535	126.11885	-212.36787	131.00087	296.98955	446.70483	46.37919	-54.51589	-56.14323	0
107	108.21811	-154.5973	-262.81541	21.96909	184.70309	-207.48585	74.85764	304.31258	532.14018	192.83979	63.46626	34.98781	0
108	203.4175	-93.57205	-296.98955	-54.51589	248.16935	-195.2808	-4.06835	282.34349	595.60644	373.47453	219.6909	152.15629	0
109	315.70396	-17.90074	-333.6047	-149.71528	323.84066	-175.75272	-101.70875	216.43622	624.89856	585.8424	400.32564	291.29386	0
110	437.75446	75.67131	-362.89682	-257.11972	399.51197	-144.01959	-213.99521	99.26774	605.37048	822.62037	610.2525	454.84153	0
111	559.80496	185.51676	-375.10187	-371.84719	467.86025	-95.19939	-333.6047	-62.65259	529.69917	1069.16238	829.9434	630.59425	0
112	676.97344	300.24423	-377.54288	-489.01567	526.44449	-39.05616	-453.21419	-257.93339	397.88463	1301.05833	1042.31127	803.90596	0
113	769.73182	410.08968	-360.45581	-589.09708	565.50065	25.22377	-563.05964	-460.53722	236.77797	1496.33913	1227.82803	957.68959	0
114	835.63909	510.17109	-326.28167	-672.09142	580.14671	93.57205	-655.81802	-646.05398	68.34828	1639.54505	1376.72964	1087.06312	0
115	867.37222	583.40139	-284.7845	-725.79364	575.26469	149.71528	-724.1663	-807.16064	-108.21811	1715.21636	1467.04701	1177.38049	0
116	860.04919	624.89856	-235.9643	-742.88071	548.41358	196.09447	-760.78145	-926.77013	-271.76578	1712.77535	1493.89812	1216.43665	0
117	818.55202	632.22159	-187.1441	-725.79364	502.03439	222.94558	-763.22246	-1017.0875	-440.19547	1634.66303	1449.95994	1201.79059	0
118	747.76273	612.69351	-135.88289	-679.41445	441.00914	240.03265	-738.81236	-1078.11275	-601.30213	1491.45711	1352.31954	1143.20635	0
119	657.44536	568.75533	-89.5037	-613.50718	372.66086	240.03265	-692.43317	-1119.60992	-750.20374	1301.05833	1205.85894	1050.44797	0
120	542.71789	502.84806	-40.6835	-523.18981	292.10753	232.70962	-626.5259	-1146.46103	-882.01828	1081.36743	1030.10622	928.39747	0
121	423.1084	422.29473	-1.62734	-423.1084	211.5542	210.74053	-543.53156	-1148.90204	-984.5407	856.79451	834.82542	786.81889	0
122	308.38093	351.50544	43.12451	-330.35002	133.44188	198.53548	-458.09621	-1139.138	-1052.88898	646.86765	649.30866	647.68132	0
123	218.06356	285.59817	67.53461	-252.2377	74.85764	176.56639	-382.4249	-1114.7279	-1082.1811	466.23291	478.43796	513.42577	0
124	132.62821	222.13191	89.5037	-176.56639	21.15542	157.03831	-314.07662	-1070.78972	-1067.53504	314.89029	331.97736	391.37527	0
125	59.39791	163.54767	104.14976	-110.65912	-23.59643	135.06922	-253.05137	-1004.88245	-1016.27383	192.83979	205.04484	286.41184	0
126	3.25468	117.16848	113.9138	-59.39791	-55.32956	115.54114	-196.90814	-912.12407	-916.19242	107.40444	107.40444	198.53548	0
127	-19.52808	90.31737	109.03178	-34.98781	-65.0936	98.45407	-155.41097	-812.04266	-803.90596	56.14323	43.93818	137.51023	0
128	-29.29212	80.55333	109.03178	-25.22377	-69.97562	93.57205	-126.11885	-714.40226	-694.06051	26.85111	2.44101	96.01306	0
129	-36.61515	75.67131	111.47279	-20.34175	-74.85764	93.57205	-99.26774	-619.20287	-591.53809	14.64606	-19.52808	69.16195	0
130	-41.49717	70.78929	111.47279	-15.45973	-77.29865	91.13104	-82.18067	-531.32651	-496.3387	12.20505	-31.73313	54.51589	0
131	-36.61515	70.78929	106.59077	-17.90074	-72.41663	88.69003	-72.41663	-455.6552	-413.34436	17.08707	-34.17414	47.19286	0
132	-31.73313	70.78929	101.70875	-20.34175	-67.53461	86.24902	-67.53461	-394.62995	-349.8781	21.96909	-34.17414	44.75185	0
133	-34.17414	68.34828	101.70875	-17.90074	-67.53461	83.80801	-62.65259	-353.13278	-305.93992	26.85111	-34.17414	42.31084	0
134	-39.05616	61.02525	99.26774	-10.57771	-69.97562	78.92599	-57.77057	-323.84066	-274.20679	24.4101	-37.42882	37.42882	0
135	-39.05616	51.26121	89.5037	-5.69569	-65.0936	69.16195	-57.77057	-304.31258	-254.67871	17.08707	-39.86983	32.5468	0
136	-41.49717	51.26121	91.94471	-5.69569	-67.53461	71.60296	-52.88855	-289.66652	-235.15063	17.08707	-42.31084	32.5468	0
137	-48.8202	48.8202	96.82673	-0.81367	-72.41663	71.60296	-48.00653	-284.7845	-227.8276	14.64606	-47.19286	32.5468	0
138	-48.8202	51.26121	99.26774	-0.81367	-74.85764	74.04397	-40.6835	-277.46147	-222.94558	14.64606	-47.19286	30.10579	0
139	-46.37919	48.8202	94.38572	-0.81367	-69.97562	71.60296	-40.6835	-275.02046	-225.38659	9.76404	-54.51589	27.66478	0
140	-39.05616	43.93818	82.18067	-3.25468	-60.21158	61.83892	-38.24249	-275.02046	-225.38659	4.88202	-59.39791	25.22377	0
141	-46.37919	43.93818	89.5037	1.62734	-67.53461	66.72094	-33.36047	-272.57945	-225.38659	4.88202	-61.83892	25.22377	0
142	-51.26121	36.61515	87.06269	6.50936	-69.97562	61.83892	-35.80148	-272.57945	-227.8276	2.44101	-66.72094	20.34175	0
143	-48.8202	39.05616	87.06269	4.06835	-67.53461	61.83892	-35.80148	-272.57945	-227.8276	2.44101	-66.72094	20.34175	0
144	-48.8202	41.49717	89.5037	4.06835	-69.97562	64.27993	-35.80148	-270.13844	-222.94558	2.44101	-66.72094	22.78276	0
145	-48.8202	41.49717	89.5037	4.06835	-69.97562	64.27993	-38.24249	-270.13844	-218.06356	0	-66.72094	22.78276	0
146	-48.8202	46.37919	94.38572	1.62734	-72.41663	69.16195	-38.24249	-267.69743	-210.74053	2.44101	-64.27993	25.22377	0
147	-48.8202	48.8202	96.82673	-0.81367	-72.41663	71.60296	-38.24249	-265.25642	-208.29952	2.44101	-66.72094	25.22377	0
148	-51.26121	51.26121	101.70875	-0.81367	-77.29865	76.48498	-38.24249	-260.3744	-205.85851	2.44101	-66.72094	25.22377	0
149	-53.70222	51.26121	104.14976	1.62734	-79.73966	76.48498	-35.80148	-255.49238	-203.4175	2.44101	-66.72094	25.22377	0
150	-43.93818	53.70222	96.82673	-5.69569	-69.97562	74.04397	-35.80148	-255.49238	-205.85851	0	-71.60296	20.34175	0
151	-43.93818	53.70222	96.82673	-5.69569	-69.97562	74.04397	-35.80148	-253.05137	-205.85851	-2.44101	-74.04397	17.90074	0
152	-51.26121	53.70222	104.14976	-0.81367	-77.29865	78.92599	-35.80148	-250.61036	-208.29952	-2.44101	-74.04397	17.90074	0
153	-56.14323	53.70222	109.03178	1.62734	-82.18067	81.367	-38.24249	-253.05137	-208.29952	0	-71.60296	17.90074	0
154	-46.37919	58.58424	104.14976	-5.69569	-74.85764	81.367	-43.12451	-255.49238	-208.29952	0	-71.60296	17.90074	0
155	-34.17414	65.90727	99.26774	-15.45973	-67.53461	81.367	-45.56552	-255.49238	-205.85851	-2.44101	-71.60296	17.90074	0
156	-36.61515	70.78929	106.59077	-17.90074	-72.41663	88.69003	-48.00653	-255.49238	-200.97649	-2.44101	-71.60296	20.34175	0
157	-43.93818	70.78929	113.9138	-13.01872	-79.73966	91.13104	-50.44754	-255.49238	-198.53548	0	-69.16195	20.34175	0
158	-43.93818	75.67131	118.79582	-15.45973	-82.18067	96.01306	-50.44754	-253.05137	-198.53548	2.44101	-69.16195	20.34175	0
159	-36.61515	82.99434	118.79582	-22.78276	-77.29865	100.89508	-48.00653	-248.16935	-198.53548	2.44101	-66.72094	22.78276	0
160	-34.17414	90.31737	123.67784	-27.66478	-79.73966	105.7771	-45.56552	-245.72834	-196.09447	2.44101	-66.72094	25.22377	0
161	-46.37919	90.31737	135.88289	-22.78276	-91.94471	113.10013	-40.6835	-240.84632	-193.65346	4.88202	-64.27993	27.66478	0
162	-56.14323	87.87636	143.20592	-15.45973	-99.26774	115.54114	-40.6835	-240.84632	-198.53548	7.32303	-59.39791	27.66478	0
163	-56.14323	87.87636	143.20592	-15.45973	-99.26774	115.54114	-45.56552	-248.16935	-200.97649	7.32303	-56.9569	30.10579	0
164	-56.14323	95.19939	150.52895	-20.34175	-104.14976	122.86417	-48.00653	-248.16935	-200.97649	9.76404	-52.07488	34.98781	0
165	-53.70222	104.96343	157.85198	-25.22377	-106.59077	130.1872	-48.00653	-248.16935	-196.09447	12.20505	-44.75185	39.86983	0
166	-61.02525	109.84545	170.05703	-25.22377	-116.35481	139.95124	-48.00653	-248.16935	-188.77144	17.08707	-39.86983	44.75185	0
167	-63.46626	109.84545	172.49804	-22.78276	-118.79582	139.95124	-50.44754	-250.61036	-188.77144	17.08707	-37.42882	47.19286	0
168	-63.46626	112.28646	174.93905	-25.22377	-118.79582	142.39225	-50.44754	-250.61036	-191.21245	17.08707	-34.17414	47.19286	0
169	-56.14323	122.0505	177.38006	-32.5468	-116.35481	149.71528	-50.44754	-250.61036	-193.65346	19.52808	-31.73313	49.63387	0
170	-56.14323	124.49151	179.82107	-34.98781	-118.79582	152.15629	-48.00653	-248.16935	-193.65346	19.52808	-31.73313	49.63387	0
171	-56.14323	119.60949	174.93905	-32.5468	-116.35481	147.27427	-48.00653	-248.16935	-198.53548	14.64606	-34.17414	44.75185	0
172	-63.46626	114.72747	177.38006	-25.22377	-121.23683	144.83326	-52.88855	-253.05137	-205.85851	9.76404	-34.17414	42.31084	0
173	-56.14323	119.60949	174.93905	-32.5468	-116.35481	147.27427	-57.77057	-253.05137	-208.29952	7.32303	-34.17414	39.86983	0
174	-51.26121	129.37353	179.82107	-39.86983	-116.35481	154.5973	-62.65259	-257.93339	-208.29952	2.44101	-34.17414	37.42882	0
175	-46.37919	136.69656	182.26208	-44.75185	-113.9138	159.47932	-65.0936	-257.93339	-205.85851	2.44101	-31.73313	37.42882	0
176	-46.37919	141.57858	187.1441	-47.19286	-116.35481	164.36134	-67.53461	-257.93339	-200.97649	2.44101	-29.29212	39.86983	0
177	-48.8202	148.90161	196.90814	-49.63387	-123.67784	171.68437	-67.53461	-255.49238	-198.53548	2.44101	-26.85111	42.31084	0
178	-53.70222	158.66565	211.5542	-52.07488	-133.44188	183.88942	-62.65259	-250.61036	-193.65346	4.88202	-17.08707	44.75185	0
179	-53.70222	168.42969	221.31824	-56.9569	-138.3239	193.65346	-60.21158	-245.72834	-191.21245	9.76404	-12.20505	49.63387	0
180	-56.14323	170.8707	226.20026	-56.9569	-140.76491	198.53548	-57.77057	-240.84632	-191.21245	12.20505	-7.32303	54.51589	0
181	-63.46626	170.8707	233.52329	-54.51589	-148.08794	200.97649	-55.32956	-238.40531	-188.77144	14.64606	-2.44101	59.39791	0
182	-65.90727	175.75272	240.84632	-54.51589	-152.96996	208.29952	-55.32956	-238.40531	-191.21245	17.08707	2.44101	61.83892	0
183	-58.58424	183.07575	240.84632	-61.83892	-150.52895	210.74053	-60.21158	-240.84632	-193.65346	19.52808	7.32303	64.27993	0
184	-46.37919	190.39878	235.9643	-71.60296	-140.76491	213.18154	-67.53461	-245.72834	-196.09447	19.52808	7.32303	66.72094	0
185	-41.49717	195.2808	235.9643	-76.48498	-138.3239	215.62255	-72.41663	-250.61036	-196.09447	19.52808	9.76404	66.72094	0
186	-43.93818	197.72181	240.84632	-76.48498	-143.20592	218.06356	-74.85764	-250.61036	-191.21245	19.52808	14.64606	71.60296	0
187	-41.49717	207.48585	248.16935	-83.80801	-145.64693	227.8276	-74.85764	-253.05137	-188.77144	19.52808	14.64606	71.60296	0
188	-31.73313	214.80888	245.72834	-91.13104	-138.3239	230.26861	-77.29865	-253.05137	-188.77144	19.52808	17.08707	71.60296	0
189	-34.17414	219.6909	253.05137	-93.57205	-143.20592	235.15063	-77.29865	-250.61036	-188.77144	21.96909	21.96909	74.04397	0
190	-41.49717	219.6909	260.3744	-88.69003	-150.52895	240.03265	-74.85764	-245.72834	-186.33043	24.4101	26.85111	78.92599	0
191	-51.26121	222.13191	272.57945	-86.24902	-162.734	247.35568	-69.97562	-238.40531	-179.0074	29.29212	31.73313	86.24902	0
192	-46.37919	229.45494	275.02046	-91.13104	-160.29299	252.2377	-72.41663	-235.9643	-181.44841	31.73313	36.61515	88.69003	0
193	-39.05616	239.21898	277.46147	-100.89508	-157.85198	257.11972	-74.85764	-235.9643	-181.44841	36.61515	41.49717	91.13104	0
194	-41.49717	244.101	284.7845	-100.89508	-162.734	264.44275	-79.73966	-235.9643	-179.0074	36.61515	46.37919	96.01306	0
195	-46.37919	246.54201	292.10753	-100.89508	-170.05703	269.32477	-82.18067	-235.9643	-176.56639	36.61515	46.37919	98.45407	0
196	-43.93818	253.86504	296.98955	-105.7771	-170.05703	274.20679	-87.06269	-235.9643	-171.68437	39.05616	51.26121	100.89508	0
197	-39.05616	258.74706	296.98955	-110.65912	-167.61602	276.6478	-94.38572	-235.9643	-169.24336	39.05616	51.26121	100.89508	0
198	-41.49717	261.18807	301.87157	-110.65912	-172.49804	281.52982	-94.38572	-233.52329	-166.80235	41.49717	53.70222	103.33609	0
199	-51.26121	266.07009	316.51763	-108.21811	-184.70309	291.29386	-91.94471	-226.20026	-161.92033	46.37919	58.58424	108.21811	0
200	-58.58424	266.07009	323.84066	-103.33609	-192.02612	293.73487	-91.94471	-221.31824	-157.03831	48.8202	63.46626	113.10013	0
201	-56.14323	270.95211	326.28167	-108.21811	-192.02612	298.61689	-91.94471	-213.99521	-154.5973	53.70222	68.34828	117.98215	0
202	-56.14323	278.27514	333.6047	-110.65912	-194.46713	305.93992	-89.5037	-209.11319	-149.71528	61.02525	75.67131	122.86417	0
203	-51.26121	280.71615	331.16369	-115.54114	-192.02612	305.93992	-94.38572	-206.67218	-147.27427	63.46626	80.55333	125.30518	0
204	-43.93818	288.03918	331.16369	-122.86417	-187.1441	308.38093	-99.26774	-204.23117	-139.95124	68.34828	85.43535	130.1872	0
205	-36.61515	290.48019	326.28167	-127.74619	-182.26208	308.38093	-104.14976	-201.79016	-135.06922	68.34828	87.87636	132.62821	0
206	-36.61515	292.9212	328.72268	-127.74619	-182.26208	310.82194	-111.47279	-201.79016	-127.74619	68.34828	90.31737	132.62821	0
207	-36.61515	300.24423	336.04571	-132.62821	-187.1441	318.14497	-111.47279	-199.34915	-120.42316	73.2303	92.75838	135.06922	0
208	-43.93818	302.68524	345.80975	-130.1872	-194.46713	323.02699	-111.47279	-194.46713	-115.54114	78.11232	97.6404	137.51023	0
209	-43.93818	307.56726	350.69177	-132.62821	-196.90814	327.90901	-111.47279	-189.58511	-113.10013	80.55333	100.08141	139.95124	0
210	-43.93818	310.00827	353.13278	-132.62821	-199.34915	330.35002	-109.03178	-179.82107	-105.7771	85.43535	104.96343	142.39225	0
211	-41.49717	317.3313	358.0148	-137.51023	-199.34915	337.67305	-101.70875	-170.05703	-96.01306	90.31737	109.84545	147.27427	0
212	-36.61515	327.09534	362.89682	-144.83326	-199.34915	344.99608	-99.26774	-160.29299	-86.24902	100.08141	119.60949	154.5973	0
213	-29.29212	331.97736	360.45581	-152.15629	-194.46713	344.99608	-99.26774	-152.96996	-78.92599	109.84545	126.93252	161.92033	0
214	-17.08707	339.30039	355.57379	-161.92033	-187.1441	347.43709	-104.14976	-145.64693	-69.16195	112.28646	131.81454	164.36134	0
215	-4.06835	351.50544	355.57379	-174.12538	-179.82107	354.76012	-104.14976	-135.88289	-54.51589	117.16848	136.69656	171.68437	0
216	-6.50936	353.94645	360.45581	-174.12538	-184.70309	357.20113	-104.14976	-123.67784	-39.86983	124.49151	141.57858	176.56639	0
217	-11.39138	356.38746	367.77884	-171.68437	-189.58511	362.08315	-104.14976	-116.35481	-25.22377	129.37353	146.4606	181.44841	0
218	-13.83239	358.82847	372.66086	-171.68437	-194.46713	366.96517	-104.14976	-106.59077	-17.90074	131.81454	151.34262	181.44841	0
219	-13.83239	363.71049	377.54288	-174.12538	-196.90814	371.84719	-99.26774	-91.94471	-5.69569	136.69656	156.22464	186.33043	0
220	-19.52808	363.71049	382.4249	-171.68437	-201.79016	371.84719	-91.94471	-79.73966	6.50936	144.01959	163.54767	191.21245	0
221	-24.4101	363.71049	387.30692	-169.24336	-206.67218	374.2882	-89.5037	-67.53461	18.71441	148.90161	170.8707	196.09447	0
222	-26.85111	368.59251	394.62995	-171.68437	-211.5542	381.61123	-89.5037	-57.77057	26.85111	156.22464	175.75272	200.97649	0
223	-11.39138	375.91554	387.30692	-181.44841	-199.34915	381.61123	-91.94471	-52.88855	36.61515	165.98868	183.07575	208.29952	0
224	0.81367	385.67958	384.86591	-193.65346	-192.02612	386.49325	-99.26774	-48.00653	46.37919	170.8707	187.95777	213.18154	0
225	0.81367	385.67958	384.86591	-193.65346	-192.02612	386.49325	-101.70875	-40.6835	58.58424	175.75272	192.83979	218.06356	0
226	3.25468	395.44362	392.18894	-198.53548	-194.46713	393.81628	-104.14976	-33.36047	75.67131	183.07575	200.16282	225.38659	0
227	3.25468	402.76665	399.51197	-203.4175	-199.34915	401.13931	-101.70875	-23.59643	87.87636	187.95777	205.04484	227.8276	0
228	5.69569	410.08968	404.39399	-208.29952	-199.34915	408.46234	-99.26774	-13.83239	100.08141	195.2808	209.92686	232.70962	0
229	8.1367	414.9717	406.835	-210.74053	-199.34915	410.90335	-94.38572	-1.62734	109.84545	200.16282	212.36787	232.70962	0
230	3.25468	410.08968	406.835	-205.85851	-201.79016	408.46234	-89.5037	13.01872	122.0505	200.16282	214.80888	235.15063	0
231	0.81367	407.64867	406.835	-203.4175	-204.23117	408.46234	-84.62168	30.10579	134.25555	202.60383	219.6909	235.15063	0
232	5.69569	407.64867	401.95298	-205.85851	-199.34915	406.02133	-82.18067	40.6835	141.57858	207.48585	219.6909	235.15063	0
233	13.01872	410.08968	397.07096	-210.74053	-192.02612	403.58032	-79.73966	55.32956	153.78363	214.80888	229.45494	240.03265	0
234	25.22377	410.08968	384.86591	-218.06356	-179.82107	398.6983	-79.73966	67.53461	168.42969	222.13191	236.77797	247.35568	0
235	32.5468	407.64867	375.10187	-220.50457	-172.49804	391.37527	-79.73966	82.18067	183.07575	224.57292	241.65999	252.2377	0
236	32.5468	405.20766	372.66086	-218.06356	-170.05703	388.93426	-79.73966	94.38572	202.60383	231.89595	248.98302	259.56073	0
237	37.42882	405.20766	367.77884	-220.50457	-165.17501	386.49325	-79.73966	109.03178	219.6909	239.21898	253.86504	264.44275	0
238	52.07488	407.64867	355.57379	-230.26861	-152.96996	381.61123	-77.29865	123.67784	234.33696	246.54201	261.18807	269.32477	0
239	52.07488	402.76665	350.69177	-227.8276	-150.52895	376.72921	-72.41663	138.3239	248.98302	248.98302	263.62908	271.76578	0
240	52.07488	395.44362	343.36874	-222.94558	-145.64693	369.40618	-69.97562	152.96996	263.62908	248.98302	263.62908	271.76578	0
241	49.63387	388.12059	338.48672	-218.06356	-145.64693	364.52416	-62.65259	167.61602	275.83413	251.42403	263.62908	271.76578	0
242	49.63387	385.67958	336.04571	-218.06356	-143.20592	362.08315	-52.88855	182.26208	283.15716	256.30605	266.07009	271.76578	0
243	59.39791	385.67958	326.28167	-222.94558	-133.44188	357.20113	-48.00653	194.46713	292.9212	258.74706	268.5111	269.32477	0
244	59.39791	378.35655	318.95864	-218.06356	-131.00087	349.8781	-43.12451	206.67218	305.12625	258.74706	268.5111	269.32477	0
245	64.27993	373.47453	309.1946	-218.06356	-123.67784	342.55507	-40.6835	216.43622	314.89029	258.74706	268.5111	269.32477	0
246	69.16195	366.1515	296.98955	-218.06356	-113.9138	332.79103	-40.6835	226.20026	329.53635	261.18807	270.95211	269.32477	0
247	66.72094	356.38746	289.66652	-210.74053	-111.47279	323.02699	-40.6835	233.52329	341.7414	263.62908	270.95211	269.32477	0
248	71.60296	346.62342	275.02046	-208.29952	-101.70875	310.82194	-40.6835	243.28733	353.94645	263.62908	270.95211	266.88376	0
249	76.48498	334.41837	257.93339	-205.85851	-91.94471	296.17588	-38.24249	253.05137	363.71049	263.62908	273.39312	266.88376	0
250	81.367	319.77231	238.40531	-200.97649	-79.73966	279.08881	-33.36047	262.81541	373.47453	261.18807	270.95211	264.44275	0
251	81.367	305.12625	223.75925	-193.65346	-72.41663	264.44275	-26.03744	267.69743	378.35655	256.30605	268.5111	259.56073	0
252	81.367	290.48019	209.11319	-186.33043	-65.0936	249.79669	-18.71441	275.02046	380.79756	256.30605	263.62908	254.67871	0
253	88.69003	278.27514	189.58511	-183.88942	-50.44754	235.15063	-11.39138	279.90248	380.79756	251.42403	258.74706	247.35568	0
254	93.57205	266.07009	172.49804	-179.0074	-40.6835	220.50457	-8.95037	282.34349	385.67958	246.54201	253.86504	242.47366	0
255	96.01306	251.42403	155.41097	-174.12538	-30.91946	203.4175	-6.50936	287.22551	390.5616	241.65999	246.54201	235.15063	0
256	98.45407	236.77797	138.3239	-166.80235	-21.15542	188.77144	-6.50936	289.66652	395.44362	236.77797	241.65999	227.8276	0
257	93.57205	219.6909	126.11885	-157.03831	-16.2734	174.12538	-1.62734	289.66652	400.32564	231.89595	234.33696	220.50457	0
258	91.13104	200.16282	109.03178	-144.83326	-8.1367	154.5973	-1.62734	289.66652	400.32564	224.57292	229.45494	210.74053	0
259	91.13104	180.63474	89.5037	-135.06922	1.62734	135.06922	0.81367	289.66652	400.32564	214.80888	219.6909	200.97649	0
260	88.69003	156.22464	67.53461	-122.86417	11.39138	113.10013	3.25468	289.66652	395.44362	205.04484	209.92686	188.77144	0
261	78.92599	139.13757	60.21158	-108.21811	8.95037	100.89508	11.39138	287.22551	393.00261	195.2808	200.16282	179.0074	0
262	69.16195	119.60949	50.44754	-93.57205	8.95037	86.24902	18.71441	282.34349	383.23857	183.07575	185.51676	164.36134	0
263	61.83892	100.08141	38.24249	-81.367	11.39138	69.16195	23.59643	275.02046	371.03352	170.8707	170.8707	149.71528	0
264	64.27993	87.87636	23.59643	-76.48498	21.15542	56.9569	28.47845	267.69743	361.26948	156.22464	156.22464	135.06922	0
265	69.16195	73.2303	3.25468	-71.60296	33.36047	39.86983	30.91946	260.3744	351.50544	139.13757	139.13757	120.42316	0
266	64.27993	58.58424	-6.50936	-61.83892	35.80148	27.66478	33.36047	250.61036	341.7414	124.49151	124.49151	105.7771	0
267	64.27993	41.49717	-23.59643	-52.07488	43.12451	10.57771	35.80148	235.9643	329.53635	107.40444	107.40444	88.69003	0
268	64.27993	24.4101	-40.6835	-44.75185	52.88855	-7.32303	35.80148	226.20026	314.89029	90.31737	92.75838	71.60296	0
269	61.83892	7.32303	-55.32956	-34.98781	57.77057	-24.4101	38.24249	216.43622	302.68524	75.67131	80.55333	61.83892	0
270	59.39791	-5.69569	-65.0936	-27.66478	60.21158	-34.17414	43.12451	209.11319	288.03918	61.02525	68.34828	49.63387	0
271	49.63387	-20.34175	-69.97562	-15.45973	57.77057	-43.93818	48.00653	201.79016	275.83413	48.8202	56.14323	37.42882	0
272	37.42882	-37.42882	-74.85764	-0.81367	55.32956	-56.14323	52.88855	194.46713	258.74706	36.61515	41.49717	27.66478	0
273	32.5468	-49.63387	-82.18067	8.95037	55.32956	-65.90727	55.32956	184.70309	239.21898	21.96909	26.85111	13.01872	0
274	25.22377	-59.39791	-84.62168	17.08707	52.88855	-70.78929	55.32956	177.38006	227.01393	9.76404	17.08707	3.25468	0
275	17.90074	-71.60296	-89.5037	26.85111	52.88855	-80.55333	57.77057	167.61602	214.80888	-4.88202	2.44101	-6.50936	0
276	15.45973	-78.92599	-94.38572	31.73313	52.88855	-85.43535	60.21158	162.734	209.92686	-12.20505	-4.88202	-16.2734	0
277	3.25468	-93.57205	-96.82673	43.93818	48.00653	-95.19939	60.21158	152.96996	200.16282	-24.4101	-14.64606	-24.4101	0
278	0.81367	-103.33609	-104.14976	51.26121	50.44754	-102.52242	57.77057	145.64693	187.95777	-34.17414	-24.4101	-31.73313	0
279	-1.62734	-110.65912	-109.03178	56.14323	52.88855	-109.84545	60.21158	143.20592	180.63474	-42.31084	-29.29212	-39.05616	0
280	-6.50936	-120.42316	-113.9138	63.46626	52.88855	-117.16848	65.0936	138.3239	173.31171	-52.07488	-37.42882	-46.37919	0
281	-1.62734	-120.42316	-118.79582	61.02525	57.77057	-119.60949	69.97562	135.88289	163.54767	-59.39791	-42.31084	-51.26121	0
282	-6.50936	-127.74619	-121.23683	65.90727	55.32956	-124.49151	74.85764	128.55986	148.90161	-66.72094	-52.07488	-58.58424	0
283	-4.06835	-130.1872	-126.11885	65.90727	60.21158	-126.93252	77.29865	123.67784	139.13757	-74.04397	-61.83892	-68.34828	0
284	-4.06835	-130.1872	-126.11885	65.90727	60.21158	-126.93252	79.73966	116.35481	131.81454	-81.367	-66.72094	-70.78929	0
285	-8.95037	-135.06922	-126.11885	70.78929	57.77057	-129.37353	79.73966	111.47279	129.37353	-86.24902	-69.16195	-75.67131	0
286	-6.50936	-137.51023	-131.00087	70.78929	60.21158	-134.25555	79.73966	106.59077	126.93252	-88.69003	-69.16195	-75.67131	0
287	-6.50936	-142.39225	-135.88289	73.2303	62.65259	-139.13757	77.29865	96.82673	122.0505	-91.13104	-76.48498	-78.11232	0
288	-13.83239	-149.71528	-135.88289	80.55333	60.21158	-141.57858	77.29865	91.94471	114.72747	-96.01306	-78.92599	-82.99434	0
289	-17.08707	-154.5973	-138.3239	85.43535	60.21158	-146.4606	77.29865	89.5037	112.28646	-98.45407	-81.367	-85.43535	0
290	-19.52808	-161.92033	-143.20592	90.31737	60.21158	-153.78363	77.29865	87.06269	107.40444	-103.33609	-83.80801	-90.31737	0
291	-24.4101	-166.80235	-143.20592	95.19939	57.77057	-156.22464	82.18067	89.5037	104.96343	-108.21811	-88.69003	-95.19939	0
292	-26.85111	-166.80235	-140.76491	95.19939	55.32956	-153.78363	87.06269	91.94471	97.6404	-108.21811	-93.57205	-100.08141	0
293	-26.85111	-164.36134	-138.3239	95.19939	55.32956	-151.34262	89.5037	94.38572	95.19939	-110.65912	-96.01306	-102.52242	0
294	-26.85111	-159.47932	-133.44188	92.75838	52.88855	-146.4606	91.94471	96.82673	95.19939	-110.65912	-96.01306	-102.52242	0
295	-19.52808	-159.47932	-140.76491	87.87636	60.21158	-151.34262	94.38572	99.26774	95.19939	-113.10013	-98.45407	-100.08141	0
296	-19.52808	-159.47932	-140.76491	87.87636	60.21158	-151.34262	91.94471	96.82673	95.19939	-113.10013	-100.89508	-100.08141	0
297	-17.08707	-159.47932	-143.20592	87.87636	62.65259	-151.34262	89.5037	94.38572	97.6404	-113.10013	-103.33609	-100.08141	0
298	-17.08707	-161.92033	-145.64693	87.87636	62.65259	-153.78363	87.06269	94.38572	95.19939	-115.54114	-103.33609	-104.96343	0
299	-24.4101	-174.12538	-150.52895	97.6404	62.65259	-163.54767	87.06269	91.94471	92.75838	-120.42316	-105.7771	-107.40444	0
300	-31.73313	-181.44841	-150.52895	104.96343	57.77057	-165.98868	84.62168	91.94471	90.31737	-125.30518	-110.65912	-112.28646	0
301	-41.49717	-188.77144	-148.08794	114.72747	52.88855	-168.42969	87.06269	94.38572	87.87636	-127.74619	-113.10013	-114.72747	0
302	-48.8202	-191.21245	-143.20592	119.60949	45.56552	-168.42969	89.5037	91.94471	82.99434	-127.74619	-115.54114	-117.16848	0
303	-48.8202	-191.21245	-143.20592	119.60949	45.56552	-168.42969	89.5037	91.94471	80.55333	-127.74619	-115.54114	-119.60949	0
304	-46.37919	-186.33043	-140.76491	114.72747	45.56552	-163.54767	91.94471	94.38572	80.55333	-125.30518	-115.54114	-117.16848	0
305	-41.49717	-186.33043	-145.64693	112.28646	50.44754	-165.98868	91.94471	94.38572	82.99434	-125.30518	-117.98215	-117.16848	0
306	-41.49717	-183.88942	-143.20592	112.28646	50.44754	-163.54767	89.5037	94.38572	87.87636	-125.30518	-117.98215	-114.72747	0
307	-34.17414	-179.0074	-145.64693	104.96343	55.32956	-163.54767	87.06269	94.38572	90.31737	-122.86417	-115.54114	-114.72747	0
308	-24.4101	-179.0074	-155.41097	100.08141	65.0936	-168.42969	87.06269	94.38572	90.31737	-122.86417	-117.98215	-119.60949	0
309	-21.96909	-181.44841	-160.29299	100.08141	67.53461	-170.8707	87.06269	94.38572	90.31737	-127.74619	-117.98215	-119.60949	0
310	-26.85111	-186.33043	-160.29299	104.96343	65.0936	-173.31171	87.06269	96.82673	90.31737	-127.74619	-120.42316	-122.0505	0
311	-31.73313	-188.77144	-157.85198	109.84545	62.65259	-173.31171	91.94471	96.82673	87.87636	-130.1872	-120.42316	-122.0505	0
312	-29.29212	-191.21245	-162.734	109.84545	65.0936	-178.19373	91.94471	96.82673	82.99434	-130.1872	-125.30518	-126.93252	1500	QRS+0
313	-29.29212	-191.21245	-162.734	109.84545	65.0936	-178.19373	94.38572	96.82673	80.55333	-132.62821	-127.74619	-129.37353	0
314	-29.29212	-186.33043	-157.85198	107.40444	62.65259	-173.31171	96.82673	96.82673	85.43535	-132.62821	-127.74619	-126.93252	0
315	-29.29212	-186.33043	-157.85198	107.40444	62.65259	-173.31171	96.82673	99.26774	87.87636	-135.06922	-130.1872	-126.93252	0
316	-26.85111	-191.21245	-165.17501	107.40444	67.53461	-178.19373	91.94471	99.26774	90.31737	-137.51023	-132.62821	-131.81454	0
317	-26.85111	-191.21245	-165.17501	107.40444	67.53461	-178.19373	91.94471	96.82673	95.19939	-137.51023	-135.06922	-134.25555	0
318	-34.17414	-191.21245	-157.85198	112.28646	60.21158	-175.75272	91.94471	101.70875	100.08141	-135.06922	-130.1872	-134.25555	0
319	-31.73313	-191.21245	-160.29299	109.84545	62.65259	-175.75272	94.38572	106.59077	104.96343	-132.62821	-127.74619	-131.81454	0
320	-34.17414	-196.09447	-162.734	114.72747	62.65259	-180.63474	94.38572	106.59077	104.96343	-137.51023	-127.74619	-134.25555	0
321	-34.17414	-200.97649	-167.61602	117.16848	65.0936	-185.51676	96.82673	109.03178	104.96343	-137.51023	-130.1872	-134.25555	0
322	-34.17414	-200.97649	-167.61602	117.16848	65.0936	-185.51676	99.26774	109.03178	100.08141	-135.06922	-132.62821	-136.69656	0
323	-36.61515	-198.53548	-162.734	117.16848	62.65259	-180.63474	104.14976	111.47279	100.08141	-132.62821	-132.62821	-134.25555	0
324	-34.17414	-196.09447	-162.734	114.72747	62.65259	-180.63474	104.14976	113.9138	102.52242	-132.62821	-132.62821	-131.81454	0
325	-29.29212	-196.09447	-167.61602	112.28646	67.53461	-183.07575	104.14976	111.47279	104.96343	-132.62821	-132.62821	-131.81454	0
326	-34.17414	-198.53548	-165.17501	114.72747	65.0936	-183.07575	101.70875	111.47279	109.84545	-130.1872	-132.62821	-129.37353	0
327	-39.05616	-198.53548	-160.29299	117.16848	60.21158	-180.63474	101.70875	113.9138	114.72747	-127.74619	-130.1872	-129.37353	0
328	-48.8202	-198.53548	-150.52895	122.0505	50.44754	-175.75272	106.59077	118.79582	119.60949	-122.86417	-125.30518	-126.93252	0
329	-48.8202	-198.53548	-150.52895	122.0505	50.44754	-175.75272	106.59077	123.67784	124.49151	-120.42316	-120.42316	-124.49151	0
330	-36.61515	-198.53548	-162.734	117.16848	62.65259	-180.63474	106.59077	123.67784	122.0505	-125.30518	-122.86417	-126.93252	0
331	-34.17414	-200.97649	-167.61602	117.16848	65.0936	-185.51676	106.59077	126.11885	122.0505	-127.74619	-127.74619	-129.37353	0
332	-34.17414	-203.4175	-170.05703	117.16848	67.53461	-187.95777	109.03178	131.00087	117.16848	-127.74619	-130.1872	-131.81454	0
333	-31.73313	-205.85851	-174.93905	117.16848	69.97562	-190.39878	109.03178	133.44188	114.72747	-127.74619	-130.1872	-131.81454	0
334	-26.85111	-200.97649	-174.93905	112.28646	72.41663	-187.95777	109.03178	133.44188	114.72747	-127.74619	-132.62821	-131.81454	0
335	-17.08707	-200.97649	-184.70309	107.40444	82.18067	-192.83979	106.59077	135.88289	114.72747	-132.62821	-135.06922	-131.81454	0
336	-13.83239	-200.97649	-187.1441	107.40444	84.62168	-192.83979	106.59077	133.44188	117.16848	-132.62821	-135.06922	-131.81454	0
337	-17.08707	-205.85851	-189.58511	109.84545	84.62168	-197.72181	104.14976	133.44188	117.16848	-132.62821	-137.51023	-131.81454	0
338	-24.4101	-210.74053	-187.1441	117.16848	79.73966	-200.16282	106.59077	135.88289	117.16848	-130.1872	-135.06922	-131.81454	0
339	-21.96909	-208.29952	-187.1441	114.72747	82.18067	-197.72181	109.03178	143.20592	122.0505	-130.1872	-132.62821	-129.37353	0
340	-21.96909	-210.74053	-189.58511	114.72747	82.18067	-200.16282	109.03178	148.08794	122.0505	-130.1872	-135.06922	-129.37353	0
341	-19.52808	-213.18154	-194.46713	114.72747	87.06269	-205.04484	111.47279	150.52895	119.60949	-132.62821	-137.51023	-131.81454	0
342	-17.08707	-208.29952	-192.02612	112.28646	87.06269	-200.16282	116.35481	157.85198	117.16848	-130.1872	-137.51023	-129.37353	0
343	-17.08707	-200.97649	-184.70309	107.40444	82.18067	-192.83979	123.67784	165.17501	119.60949	-122.86417	-135.06922	-124.49151	0
344	-17.08707	-193.65346	-177.38006	104.96343	79.73966	-185.51676	126.11885	172.49804	122.0505	-120.42316	-130.1872	-119.60949	0
345	-17.08707	-193.65346	-177.38006	104.96343	79.73966	-185.51676	123.67784	172.49804	122.0505	-120.42316	-135.06922	-119.60949	0
346	-17.08707	-196.09447	-179.82107	104.96343	79.73966	-187.95777	121.23683	170.05703	122.0505	-120.42316	-135.06922	-119.60949	0
347	-13.83239	-186.33043	-172.49804	100.08141	77.29865	-178.19373	123.67784	172.49804	129.37353	-115.54114	-130.1872	-114.72747	0
348	-13.83239	-181.44841	-167.61602	97.6404	74.85764	-173.31171	126.11885	179.82107	134.25555	-110.65912	-125.30518	-112.28646	0
349	-11.39138	-179.0074	-167.61602	95.19939	77.29865	-173.31171	128.55986	187.1441	139.13757	-110.65912	-122.86417	-109.84545	0
350	-8.95037	-179.0074	-170.05703	92.75838	79.73966	-173.31171	128.55986	194.46713	144.01959	-110.65912	-125.30518	-109.84545	0
351	-4.06835	-174.12538	-170.05703	87.87636	82.18067	-170.8707	133.44188	204.23117	151.34262	-110.65912	-125.30518	-109.84545	0
352	0.81367	-166.80235	-167.61602	82.99434	82.18067	-165.98868	138.3239	216.43622	156.22464	-108.21811	-125.30518	-109.84545	0
353	0.81367	-161.92033	-162.734	80.55333	79.73966	-161.10666	140.76491	226.20026	161.10666	-105.7771	-125.30518	-109.84545	0
354	0.81367	-164.36134	-165.17501	80.55333	82.18067	-163.54767	138.3239	231.08228	163.54767	-108.21811	-130.1872	-112.28646	0
355	0.81367	-166.80235	-167.61602	82.99434	82.18067	-165.98868	135.88289	233.52329	168.42969	-108.21811	-132.62821	-114.72747	0
356	5.69569	-169.24336	-174.93905	80.55333	89.5037	-170.8707	128.55986	228.64127	165.98868	-110.65912	-137.51023	-114.72747	0
357	5.69569	-169.24336	-174.93905	80.55333	89.5037	-170.8707	126.11885	221.31824	165.98868	-110.65912	-137.51023	-117.16848	0
358	-1.62734	-171.68437	-170.05703	85.43535	82.18067	-170.8707	126.11885	213.99521	161.10666	-110.65912	-137.51023	-117.16848	0
359	-4.06835	-166.80235	-162.734	85.43535	77.29865	-163.54767	126.11885	209.11319	161.10666	-108.21811	-135.06922	-112.28646	0
360	-6.50936	-164.36134	-157.85198	85.43535	74.85764	-161.10666	126.11885	201.79016	153.78363	-108.21811	-135.06922	-109.84545	0
361	-13.83239	-159.47932	-145.64693	85.43535	65.0936	-151.34262	126.11885	192.02612	146.4606	-108.21811	-135.06922	-107.40444	0
362	-21.96909	-154.5973	-133.44188	87.87636	55.32956	-144.01959	126.11885	182.26208	136.69656	-103.33609	-132.62821	-102.52242	0
363	-19.52808	-144.83326	-126.11885	80.55333	52.88855	-136.69656	121.23683	172.49804	129.37353	-100.89508	-132.62821	-102.52242	0
364	-8.95037	-135.06922	-126.11885	70.78929	57.77057	-129.37353	111.47279	160.29299	119.60949	-98.45407	-132.62821	-100.08141	0
365	3.25468	-132.62821	-135.88289	63.46626	67.53461	-134.25555	99.26774	145.64693	104.96343	-98.45407	-132.62821	-100.08141	0
366	5.69569	-137.51023	-143.20592	65.90727	72.41663	-139.13757	84.62168	128.55986	87.87636	-98.45407	-132.62821	-100.08141	0
367	10.57771	-139.95124	-150.52895	63.46626	79.73966	-144.01959	72.41663	116.35481	78.11232	-98.45407	-132.62821	-100.08141	0
368	20.34175	-144.83326	-165.17501	61.02525	91.94471	-153.78363	62.65259	104.14976	65.90727	-98.45407	-135.06922	-97.6404	0
369	22.78276	-149.71528	-172.49804	63.46626	96.82673	-161.10666	55.32956	96.82673	58.58424	-100.89508	-135.06922	-95.19939	0
370	25.22377	-152.15629	-177.38006	63.46626	99.26774	-163.54767	48.00653	89.5037	51.26121	-100.89508	-135.06922	-95.19939	0
371	30.10579	-154.5973	-184.70309	61.02525	106.59077	-168.42969	45.56552	84.62168	46.37919	-100.89508	-135.06922	-95.19939	0
372	30.10579	-152.15629	-182.26208	61.02525	104.14976	-165.98868	50.44754	87.06269	46.37919	-96.01306	-135.06922	-90.31737	0
373	34.98781	-149.71528	-184.70309	56.14323	109.03178	-165.98868	52.88855	87.06269	43.93818	-93.57205	-135.06922	-87.87636	0
374	39.86983	-149.71528	-189.58511	53.70222	113.9138	-168.42969	52.88855	84.62168	36.61515	-93.57205	-135.06922	-87.87636	0
375	37.42882	-149.71528	-187.1441	56.14323	111.47279	-168.42969	52.88855	87.06269	36.61515	-88.69003	-130.1872	-85.43535	0
376	42.31084	-147.27427	-189.58511	51.26121	113.9138	-168.42969	55.32956	87.06269	31.73313	-81.367	-127.74619	-82.99434	0
377	42.31084	-144.83326	-187.1441	51.26121	113.9138	-165.98868	57.77057	89.5037	31.73313	-76.48498	-122.86417	-75.67131	0
378	37.42882	-154.5973	-192.02612	58.58424	113.9138	-173.31171	55.32956	84.62168	26.85111	-76.48498	-122.86417	-75.67131	0
379	37.42882	-161.92033	-199.34915	61.02525	116.35481	-180.63474	50.44754	79.73966	18.71441	-83.80801	-127.74619	-78.11232	0
380	32.5468	-169.24336	-201.79016	68.34828	116.35481	-185.51676	50.44754	74.85764	16.2734	-86.24902	-132.62821	-80.55333	0
381	30.10579	-176.56639	-206.67218	73.2303	116.35481	-190.39878	50.44754	69.97562	8.95037	-91.13104	-139.95124	-82.99434	0
382	22.78276	-183.88942	-206.67218	80.55333	113.9138	-195.2808	55.32956	65.0936	4.06835	-96.01306	-149.71528	-90.31737	0
383	-1.62734	-198.53548	-196.90814	100.08141	96.82673	-197.72181	60.21158	65.0936	-3.25468	-103.33609	-159.47932	-97.6404	0
384	-13.83239	-208.29952	-194.46713	109.84545	89.5037	-200.16282	69.97562	67.53461	-3.25468	-108.21811	-164.36134	-102.52242	0
385	-19.52808	-215.62255	-196.90814	117.16848	87.06269	-207.48585	79.73966	72.41663	-8.1367	-113.10013	-169.24336	-107.40444	0
386	-24.4101	-220.50457	-196.90814	122.0505	84.62168	-209.92686	87.06269	72.41663	-13.01872	-117.98215	-176.56639	-112.28646	0
387	-29.29212	-230.26861	-201.79016	129.37353	84.62168	-217.24989	89.5037	69.97562	-17.90074	-122.86417	-183.88942	-119.60949	0
388	-34.17414	-240.03265	-206.67218	136.69656	84.62168	-224.57292	91.94471	67.53461	-25.22377	-132.62821	-191.21245	-124.49151	0
389	-29.29212	-247.35568	-218.87723	136.69656	94.38572	-234.33696	87.06269	65.0936	-32.5468	-142.39225	-200.97649	-131.81454	0
390	-26.85111	-254.67871	-228.64127	139.13757	99.26774	-241.65999	82.18067	55.32956	-39.86983	-152.15629	-210.74053	-141.57858	-1500	QRS-0
391	-26.85111	-257.11972	-231.08228	141.57858	101.70875	-244.101	82.18067	48.00653	-47.19286	-161.92033	-220.50457	-148.90161	0
392	-29.29212	-259.56073	-231.08228	144.01959	99.26774	-246.54201	82.18067	45.56552	-54.51589	-166.80235	-230.26861	-153.78363	0
393	-31.73313	-259.56073	-228.64127	144.01959	96.82673	-244.101	87.06269	45.56552	-54.51589	-169.24336	-232.70962	-158.66565	0
394	-41.49717	-262.00174	-221.31824	151.34262	89.5037	-241.65999	94.38572	48.00653	-54.51589	-169.24336	-235.15063	-161.10666	0
395	-43.93818	-262.00174	-218.87723	151.34262	87.06269	-241.65999	99.26774	50.44754	-52.07488	-171.68437	-237.59164	-163.54767	0
396	-43.93818	-259.56073	-216.43622	151.34262	84.62168	-239.21898	101.70875	50.44754	-49.63387	-169.24336	-237.59164	-163.54767	0
397	-41.49717	-259.56073	-218.87723	148.90161	87.06269	-239.21898	104.14976	48.00653	-44.75185	-166.80235	-235.15063	-163.54767	0
398	-41.49717	-259.56073	-218.87723	148.90161	87.06269	-239.21898	101.70875	45.56552	-39.86983	-164.36134	-232.70962	-161.10666	0
399	-39.05616	-262.00174	-223.75925	148.90161	91.94471	-244.101	99.26774	45.56552	-37.42882	-161.92033	-232.70962	-158.66565	0
400	-39.05616	-262.00174	-223.75925	148.90161	91.94471	-244.101	96.82673	40.6835	-34.98781	-161.92033	-232.70962	-156.22464	0
401	-39.05616	-262.00174	-223.75925	148.90161	91.94471	-244.101	94.38572	38.24249	-34.98781	-161.92033	-232.70962	-156.22464	0
402	-46.37919	-264.44275	-218.87723	153.78363	84.62168	-241.65999	96.82673	38.24249	-37.42882	-161.92033	-237.59164	-156.22464	0
403	-48.8202	-264.44275	-216.43622	156.22464	82.18067	-241.65999	96.82673	38.24249	-37.42882	-161.92033	-240.03265	-158.66565	0
404	-41.49717	-264.44275	-223.75925	151.34262	89.5037	-244.101	99.26774	38.24249	-39.86983	-164.36134	-244.91467	-161.10666	0
405	-43.93818	-264.44275	-221.31824	153.78363	87.06269	-244.101	104.14976	43.12451	-39.86983	-164.36134	-247.35568	-163.54767	0
406	-43.93818	-264.44275	-221.31824	153.78363	87.06269	-244.101	104.14976	40.6835	-44.75185	-166.80235	-249.79669	-163.54767	0
407	-39.05616	-262.00174	-223.75925	148.90161	91.94471	-244.101	104.14976	38.24249	-44.75185	-166.80235	-249.79669	-165.98868	0
408	-31.73313	-259.56073	-228.64127	144.01959	96.82673	-244.101	101.70875	35.80148	-44.75185	-164.36134	-249.79669	-165.98868	0
409	-26.85111	-259.56073	-233.52329	141.57858	101.70875	-246.54201	99.26774	35.80148	-42.31084	-164.36134	-247.35568	-163.54767	0
410	-34.17414	-262.00174	-228.64127	146.4606	96.82673	-246.54201	94.38572	30.10579	-42.31084	-164.36134	-249.79669	-163.54767	0
411	-39.05616	-264.44275	-226.20026	151.34262	91.94471	-246.54201	94.38572	25.22377	-44.75185	-169.24336	-252.2377	-163.54767	0
412	-39.05616	-264.44275	-226.20026	151.34262	91.94471	-246.54201	94.38572	22.78276	-49.63387	-169.24336	-257.11972	-163.54767	0
413	-43.93818	-262.00174	-218.87723	151.34262	87.06269	-241.65999	96.82673	20.34175	-49.63387	-169.24336	-259.56073	-168.42969	0
414	-46.37919	-259.56073	-213.99521	151.34262	82.18067	-236.77797	101.70875	20.34175	-49.63387	-169.24336	-259.56073	-165.98868	0
415	-43.93818	-254.67871	-211.5542	148.90161	82.18067	-234.33696	104.14976	22.78276	-49.63387	-169.24336	-259.56073	-165.98868	0
416	-48.8202	-254.67871	-206.67218	151.34262	77.29865	-231.89595	101.70875	20.34175	-52.07488	-166.80235	-259.56073	-165.98868	0
417	-53.70222	-257.11972	-204.23117	153.78363	74.85764	-231.89595	101.70875	17.90074	-52.07488	-164.36134	-257.11972	-161.10666	0
418	-51.26121	-259.56073	-209.11319	153.78363	77.29865	-234.33696	94.38572	15.45973	-52.07488	-161.92033	-257.11972	-161.10666	0
419	-51.26121	-264.44275	-213.99521	156.22464	79.73966	-239.21898	89.5037	10.57771	-52.07488	-164.36134	-257.11972	-161.10666	0
420	-41.49717	-259.56073	-218.87723	148.90161	87.06269	-239.21898	84.62168	8.1367	-52.07488	-166.80235	-259.56073	-161.10666	0
421	-51.26121	-262.00174	-211.5542	156.22464	79.73966	-236.77797	82.18067	5.69569	-54.51589	-169.24336	-262.00174	-163.54767	0
422	-56.14323	-259.56073	-204.23117	156.22464	72.41663	-231.89595	87.06269	8.1367	-54.51589	-166.80235	-264.44275	-161.10666	0
423	-51.26121	-252.2377	-201.79016	151.34262	74.85764	-227.01393	89.5037	10.57771	-54.51589	-166.80235	-264.44275	-161.10666	0
424	-56.14323	-249.79669	-194.46713	151.34262	67.53461	-222.13191	94.38572	15.45973	-54.51589	-166.80235	-264.44275	-161.10666	0
425	-58.58424	-244.91467	-187.1441	151.34262	62.65259	-217.24989	99.26774	22.78276	-52.07488	-161.92033	-262.00174	-156.22464	0
426	-61.02525	-242.47366	-182.26208	151.34262	60.21158	-212.36787	101.70875	25.22377	-52.07488	-157.03831	-259.56073	-151.34262	0
427	-56.14323	-242.47366	-187.1441	148.90161	65.0936	-214.80888	96.82673	25.22377	-52.07488	-154.5973	-257.11972	-148.90161	0
428	-46.37919	-240.03265	-194.46713	141.57858	72.41663	-217.24989	91.94471	22.78276	-54.51589	-154.5973	-257.11972	-146.4606	0
429	-46.37919	-240.03265	-194.46713	141.57858	72.41663	-217.24989	87.06269	20.34175	-54.51589	-154.5973	-254.67871	-144.01959	0
430	-43.93818	-240.03265	-196.90814	141.57858	74.85764	-219.6909	82.18067	17.90074	-54.51589	-154.5973	-254.67871	-141.57858	0
431	-43.93818	-235.15063	-192.02612	139.13757	72.41663	-214.80888	82.18067	17.90074	-54.51589	-152.15629	-252.2377	-139.13757	0
432	-41.49717	-230.26861	-189.58511	134.25555	72.41663	-209.92686	84.62168	15.45973	-52.07488	-149.71528	-252.2377	-136.69656	0
433	-41.49717	-227.8276	-187.1441	134.25555	72.41663	-207.48585	87.06269	20.34175	-52.07488	-149.71528	-252.2377	-136.69656	0
434	-39.05616	-227.8276	-189.58511	131.81454	74.85764	-209.92686	89.5037	20.34175	-54.51589	-152.15629	-252.2377	-136.69656	0
435	-41.49717	-227.8276	-187.1441	134.25555	72.41663	-207.48585	91.94471	22.78276	-56.9569	-152.15629	-252.2377	-136.69656	0
436	-36.61515	-225.38659	-189.58511	129.37353	74.85764	-207.48585	94.38572	22.78276	-56.9569	-149.71528	-247.35568	-131.81454	0
437	-26.85111	-220.50457	-194.46713	122.0505	82.18067	-207.48585	94.38572	22.78276	-56.9569	-144.83326	-244.91467	-131.81454	0
438	-24.4101	-220.50457	-196.90814	122.0505	84.62168	-209.92686	89.5037	22.78276	-56.9569	-147.27427	-244.91467	-131.81454	0
439	-21.96909	-218.06356	-196.90814	119.60949	87.06269	-207.48585	89.5037	22.78276	-56.9569	-147.27427	-244.91467	-126.93252	0
440	-26.85111	-218.06356	-192.02612	122.0505	82.18067	-205.04484	84.62168	20.34175	-56.9569	-147.27427	-244.91467	-126.93252	0
441	-26.85111	-218.06356	-192.02612	122.0505	82.18067	-205.04484	84.62168	20.34175	-56.9569	-147.27427	-244.91467	-124.49151	0
442	-34.17414	-218.06356	-184.70309	124.49151	74.85764	-202.60383	84.62168	17.90074	-56.9569	-147.27427	-249.79669	-124.49151	0
443	-43.93818	-225.38659	-182.26208	134.25555	67.53461	-205.04484	84.62168	13.01872	-61.83892	-154.5973	-257.11972	-131.81454	0
444	-41.49717	-225.38659	-184.70309	131.81454	69.97562	-205.04484	87.06269	13.01872	-61.83892	-157.03831	-262.00174	-134.25555	0
445	-41.49717	-225.38659	-184.70309	131.81454	69.97562	-205.04484	87.06269	15.45973	-61.83892	-157.03831	-262.00174	-131.81454	0
446	-39.05616	-220.50457	-182.26208	129.37353	69.97562	-202.60383	89.5037	15.45973	-61.83892	-154.5973	-259.56073	-129.37353	0
447	-34.17414	-213.18154	-179.82107	122.0505	72.41663	-197.72181	89.5037	17.90074	-59.39791	-149.71528	-259.56073	-126.93252	0
448	-29.29212	-210.74053	-182.26208	119.60949	74.85764	-197.72181	84.62168	17.90074	-59.39791	-149.71528	-257.11972	-122.0505	0
449	-19.52808	-203.4175	-184.70309	109.84545	82.18067	-195.2808	82.18067	17.90074	-56.9569	-147.27427	-254.67871	-119.60949	0
450	-17.08707	-198.53548	-182.26208	107.40444	82.18067	-190.39878	79.73966	17.90074	-54.51589	-147.27427	-254.67871	-117.16848	0
451	-17.08707	-196.09447	-179.82107	104.96343	79.73966	-187.95777	79.73966	17.90074	-54.51589	-147.27427	-254.67871	-114.72747	0
452	-17.08707	-196.09447	-179.82107	104.96343	79.73966	-187.95777	79.73966	15.45973	-56.9569	-147.27427	-262.00174	-119.60949	0
453	-17.08707	-200.97649	-184.70309	107.40444	82.18067	-192.83979	79.73966	13.01872	-64.27993	-152.15629	-266.88376	-124.49151	0
454	-19.52808	-200.97649	-182.26208	109.84545	79.73966	-192.83979	79.73966	10.57771	-66.72094	-152.15629	-269.32477	-126.93252	0
455	-24.4101	-200.97649	-177.38006	112.28646	74.85764	-190.39878	82.18067	15.45973	-66.72094	-147.27427	-266.88376	-124.49151	0
456	-31.73313	-200.97649	-170.05703	114.72747	67.53461	-185.51676	84.62168	15.45973	-64.27993	-142.39225	-264.44275	-119.60949	0
457	-41.49717	-208.29952	-167.61602	124.49151	62.65259	-187.95777	79.73966	13.01872	-61.83892	-137.51023	-262.00174	-117.16848	0
458	-41.49717	-213.18154	-172.49804	126.93252	65.0936	-192.83979	77.29865	13.01872	-61.83892	-135.06922	-259.56073	-117.16848	0
459	-39.05616	-213.18154	-174.93905	124.49151	67.53461	-195.2808	72.41663	15.45973	-56.9569	-132.62821	-257.11972	-114.72747	0
460	-41.49717	-210.74053	-170.05703	124.49151	62.65259	-190.39878	74.85764	20.34175	-49.63387	-127.74619	-252.2377	-109.84545	0
461	-41.49717	-205.85851	-165.17501	122.0505	60.21158	-185.51676	74.85764	22.78276	-47.19286	-125.30518	-249.79669	-107.40444	0
462	-36.61515	-203.4175	-167.61602	119.60949	65.0936	-185.51676	77.29865	20.34175	-47.19286	-125.30518	-252.2377	-109.84545	0
463	-36.61515	-198.53548	-162.734	117.16848	62.65259	-180.63474	82.18067	25.22377	-42.31084	-122.86417	-252.2377	-109.84545	0
464	-36.61515	-198.53548	-162.734	117.16848	62.65259	-180.63474	84.62168	25.22377	-39.86983	-120.42316	-249.79669	-107.40444	0
465	-36.61515	-198.53548	-162.734	117.16848	62.65259	-180.63474	87.06269	30.10579	-37.42882	-117.98215	-247.35568	-104.96343	0
466	-36.61515	-198.53548	-162.734	117.16848	62.65259	-180.63474	87.06269	30.10579	-37.42882	-115.54114	-244.91467	-104.96343	0
467	-31.73313	-198.53548	-167.61602	114.72747	67.53461	-183.07575	84.62168	27.66478	-37.42882	-115.54114	-244.91467	-104.96343	0
468	-26.85111	-198.53548	-172.49804	112.28646	72.41663	-185.51676	79.73966	27.66478	-32.5468	-113.10013	-240.03265	-104.96343	0
469	-21.96909	-193.65346	-172.49804	107.40444	74.85764	-183.07575	77.29865	27.66478	-30.10579	-113.10013	-237.59164	-104.96343	0
470	-17.08707	-188.77144	-172.49804	102.52242	77.29865	-180.63474	74.85764	30.10579	-25.22377	-117.98215	-240.03265	-109.84545	0
471	-19.52808	-183.88942	-165.17501	100.08141	72.41663	-175.75272	79.73966	32.5468	-20.34175	-127.74619	-244.91467	-117.16848	0
472	-26.85111	-183.88942	-157.85198	104.96343	65.0936	-170.8707	94.38572	50.44754	-10.57771	-142.39225	-259.56073	-129.37353	0
473	-36.61515	-191.21245	-155.41097	112.28646	57.77057	-173.31171	111.47279	74.85764	6.50936	-161.92033	-279.08881	-151.34262	0
474	-58.58424	-203.4175	-145.64693	129.37353	43.12451	-175.75272	131.00087	109.03178	29.29212	-183.88942	-303.49891	-170.8707	0
475	-75.67131	-218.06356	-143.20592	146.4606	33.36047	-180.63474	152.96996	145.64693	61.02525	-203.4175	-323.02699	-190.39878	0
476	-87.87636	-235.15063	-148.08794	161.10666	28.47845	-192.83979	167.61602	184.70309	97.6404	-215.62255	-340.11406	-205.04484	0
477	-82.99434	-240.03265	-157.85198	161.10666	35.80148	-200.16282	177.38006	228.64127	153.78363	-208.29952	-340.11406	-209.92686	0
478	-65.90727	-242.47366	-177.38006	153.78363	55.32956	-209.92686	172.49804	284.7845	231.89595	-179.0074	-320.58598	-197.72181	0
479	-34.17414	-235.15063	-201.79016	134.25555	82.18067	-219.6909	157.85198	338.48672	329.53635	-113.10013	-269.32477	-161.10666	0
480	22.78276	-210.74053	-233.52329	92.75838	126.11885	-222.13191	116.35481	370.21985	424.73574	-14.64606	-186.33043	-102.52242	0
481	98.45407	-176.56639	-275.02046	39.05616	184.70309	-224.57292	57.77057	375.10187	500.40705	117.16848	-78.92599	-24.4101	0
482	196.09447	-122.86417	-318.95864	-37.42882	255.49238	-219.6909	-16.2734	348.25076	558.99129	288.03918	61.02525	83.80801	0
483	313.26295	-59.39791	-372.66086	-127.74619	340.92773	-214.80888	-113.9138	277.46147	578.51937	485.76099	229.45494	210.74053	0
484	437.75446	26.85111	-411.71702	-232.70962	423.92207	-192.83979	-221.31824	157.85198	551.66826	710.33391	427.17675	362.08315	0
485	572.01001	124.49151	-448.33217	-347.43709	509.35742	-161.10666	-340.92773	-8.95037	468.67392	942.22986	634.6626	528.07183	0
486	696.50152	229.45494	-467.86025	-462.16456	582.58772	-119.60949	-462.97823	-206.67218	331.97736	1164.36177	837.26643	691.6195	0
487	799.02394	331.97736	-467.86025	-564.68698	633.84893	-68.34828	-575.26469	-404.39399	178.19373	1362.08358	1025.2242	847.84414	0
488	874.69525	429.61776	-445.89116	-652.56334	660.70004	-7.32303	-670.46408	-589.91075	13.83239	1518.30822	1181.44884	984.5407	0
489	918.63343	507.73008	-411.71702	-713.58859	665.58206	49.63387	-741.25337	-743.69438	-157.03831	1606.18458	1286.41227	1084.62211	0
490	923.51545	546.78624	-377.54288	-735.55768	650.936	86.24902	-782.75054	-860.86286	-320.58598	1611.0666	1318.1454	1128.56029	0
491	879.57727	549.22725	-331.16369	-713.58859	604.55681	110.65912	-790.07357	-953.62124	-491.45668	1537.8363	1283.97126	1123.67827	0
492	806.34697	527.25816	-279.90248	-667.2094	543.53156	125.30518	-765.66347	-1019.52851	-655.00435	1401.13974	1188.77187	1072.41706	0
493	711.14758	483.31998	-228.64127	-596.42011	470.30126	127.74619	-721.72529	-1073.23073	-813.67	1215.62298	1047.19329	982.09969	0
494	596.42011	422.29473	-174.93905	-508.54375	384.86591	125.30518	-653.37701	-1112.28689	-962.57161	1000.8141	876.32259	864.93121	0
495	469.48759	349.06443	-121.23683	-408.46234	294.54854	115.54114	-567.94166	-1124.49194	-1074.85807	776.24118	685.92381	728.23465	0
496	347.43709	285.59817	-62.65259	-315.70396	204.23117	113.10013	-477.62429	-1119.60992	-1143.20635	576.07836	507.73008	593.9791	0
497	240.03265	234.33696	-6.50936	-237.59164	123.67784	115.54114	-394.62995	-1092.75881	-1165.17544	402.76665	346.62342	467.04658	0
498	144.83326	187.95777	43.12451	-166.80235	50.44754	115.54114	-316.51763	-1031.73356	-1135.88332	263.62908	209.92686	354.76012	0
499	66.72094	153.78363	87.06269	-110.65912	-10.57771	120.42316	-245.72834	-938.97518	-1052.88898	153.78363	100.08141	259.56073	0
500	17.90074	131.81454	113.9138	-74.04397	-48.00653	122.86417	-187.1441	-821.8067	-928.39747	78.11232	12.20505	181.44841	0
501	0.81367	124.49151	123.67784	-61.83892	-62.65259	125.30518	-165.17501	-758.34044	-860.04919	48.8202	-21.96909	147.27427	0
502	-21.96909	117.16848	138.3239	-47.19286	-79.73966	127.74619	-126.11885	-641.17196	-730.67566	9.76404	-69.16195	98.45407	0
503	-39.05616	112.28646	150.52895	-37.42882	-94.38572	130.1872	-96.82673	-533.76752	-613.50718	-9.76404	-100.89508	66.72094	0
504	-39.05616	112.28646	150.52895	-37.42882	-94.38572	130.1872	-79.73966	-436.12712	-508.54375	-14.64606	-115.54114	47.19286	0
505	-34.17414	109.84545	143.20592	-37.42882	-89.5037	125.30518	-69.97562	-353.13278	-423.1084	-14.64606	-122.86417	34.98781	0
506	-29.29212	104.96343	133.44188	-37.42882	-82.18067	117.98215	-62.65259	-289.66652	-359.64214	-12.20505	-125.30518	27.66478	0
507	-29.29212	92.75838	121.23683	-32.5468	-74.85764	105.7771	-60.21158	-245.72834	-315.70396	-9.76404	-125.30518	22.78276	0
508	-29.29212	82.99434	111.47279	-27.66478	-69.97562	96.01306	-55.32956	-216.43622	-286.41184	-9.76404	-125.30518	17.90074	0
509	-29.29212	73.2303	101.70875	-22.78276	-65.0936	86.24902	-55.32956	-196.90814	-266.88376	-12.20505	-127.74619	15.45973	0
510	-26.85111	65.90727	91.94471	-20.34175	-60.21158	78.92599	-55.32956	-187.1441	-252.2377	-17.08707	-132.62821	10.57771	0
511	-29.29212	61.02525	89.5037	-15.45973	-60.21158	74.04397	-52.88855	-182.26208	-247.35568	-21.96909	-139.95124	5.69569	0
512	-31.73313	63.46626	94.38572	-15.45973	-62.65259	78.92599	-45.56552	-182.26208	-244.91467	-29.29212	-147.27427	0.81367	0
513	-34.17414	63.46626	96.82673	-15.45973	-65.0936	78.92599	-40.6835	-182.26208	-244.91467	-36.61515	-154.5973	-4.06835	0
514	-39.05616	63.46626	101.70875	-13.01872	-69.97562	81.367	-33.36047	-177.38006	-247.35568	-42.31084	-161.92033	-11.39138	0
515	-46.37919	61.02525	106.59077	-8.1367	-77.29865	83.80801	-30.91946	-174.93905	-247.35568	-47.19286	-169.24336	-16.2734	0
516	-51.26121	58.58424	109.03178	-3.25468	-79.73966	83.80801	-30.91946	-174.93905	-247.35568	-52.07488	-174.12538	-21.15542	0
517	-48.8202	61.02525	109.03178	-5.69569	-79.73966	83.80801	-28.47845	-174.93905	-247.35568	-52.07488	-176.56639	-24.4101	0
518	-43.93818	61.02525	104.14976	-8.1367	-74.85764	81.367	-33.36047	-174.93905	-247.35568	-52.07488	-179.0074	-24.4101	0
519	-53.70222	58.58424	111.47279	-3.25468	-82.18067	83.80801	-33.36047	-177.38006	-242.47366	-54.51589	-176.56639	-24.4101	0
520	-56.14323	61.02525	116.35481	-3.25468	-87.06269	88.69003	-35.80148	-177.38006	-237.59164	-52.07488	-176.56639	-24.4101	0
521	-56.14323	61.02525	116.35481	-3.25468	-87.06269	88.69003	-38.24249	-179.82107	-237.59164	-54.51589	-181.44841	-24.4101	0
522	-51.26121	70.78929	121.23683	-10.57771	-87.06269	96.01306	-40.6835	-182.26208	-237.59164	-56.9569	-183.88942	-24.4101	0
523	-61.02525	70.78929	131.00087	-5.69569	-96.82673	100.89508	-38.24249	-179.82107	-235.15063	-56.9569	-186.33043	-26.85111	0
524	-70.78929	68.34828	138.3239	1.62734	-104.14976	103.33609	-33.36047	-177.38006	-235.15063	-59.39791	-188.77144	-29.29212	0
525	-70.78929	68.34828	138.3239	1.62734	-104.14976	103.33609	-30.91946	-172.49804	-235.15063	-59.39791	-191.21245	-31.73313	0
526	-65.90727	68.34828	133.44188	-0.81367	-99.26774	100.89508	-30.91946	-172.49804	-235.15063	-59.39791	-191.21245	-31.73313	0
527	-68.34828	68.34828	135.88289	-0.81367	-101.70875	100.89508	-28.47845	-167.61602	-232.70962	-54.51589	-186.33043	-29.29212	0
528	-68.34828	68.34828	135.88289	-0.81367	-101.70875	100.89508	-28.47845	-167.61602	-230.26861	-49.63387	-183.88942	-24.4101	0
529	-70.78929	65.90727	135.88289	1.62734	-104.14976	100.89508	-35.80148	-170.05703	-230.26861	-52.07488	-181.44841	-24.4101	0
530	-65.90727	70.78929	135.88289	-3.25468	-101.70875	103.33609	-35.80148	-170.05703	-227.8276	-49.63387	-176.56639	-18.71441	0
531	-68.34828	73.2303	140.76491	-3.25468	-104.14976	105.7771	-35.80148	-172.49804	-227.8276	-49.63387	-176.56639	-16.2734	0
532	-73.2303	82.99434	155.41097	-5.69569	-113.9138	117.98215	-35.80148	-174.93905	-227.8276	-49.63387	-176.56639	-16.2734	0
533	-70.78929	90.31737	160.29299	-10.57771	-116.35481	125.30518	-35.80148	-177.38006	-232.70962	-52.07488	-181.44841	-21.15542	0
534	-65.90727	97.6404	162.734	-15.45973	-113.9138	130.1872	-35.80148	-177.38006	-235.15063	-54.51589	-183.88942	-24.4101	0
535	-61.02525	109.84545	170.05703	-25.22377	-116.35481	139.95124	-33.36047	-172.49804	-235.15063	-52.07488	-181.44841	-21.15542	0
536	-58.58424	117.16848	174.93905	-30.10579	-116.35481	144.83326	-30.91946	-167.61602	-232.70962	-49.63387	-179.0074	-21.15542	0
537	-61.02525	119.60949	179.82107	-30.10579	-121.23683	149.71528	-30.91946	-167.61602	-232.70962	-49.63387	-176.56639	-21.15542	0
538	-56.14323	119.60949	174.93905	-32.5468	-116.35481	147.27427	-35.80148	-167.61602	-230.26861	-47.19286	-174.12538	-18.71441	0
539	-53.70222	122.0505	174.93905	-34.98781	-113.9138	147.27427	-38.24249	-167.61602	-227.8276	-47.19286	-171.68437	-16.2734	0
540	-51.26121	124.49151	174.93905	-37.42882	-113.9138	149.71528	-38.24249	-165.17501	-222.94558	-44.75185	-166.80235	-11.39138	0
541	-51.26121	126.93252	177.38006	-37.42882	-113.9138	152.15629	-38.24249	-165.17501	-220.50457	-42.31084	-161.92033	-6.50936	0
542	-53.70222	124.49151	177.38006	-34.98781	-116.35481	149.71528	-38.24249	-172.49804	-222.94558	-44.75185	-164.36134	-8.95037	0
543	-58.58424	129.37353	187.1441	-34.98781	-123.67784	157.03831	-35.80148	-170.05703	-222.94558	-42.31084	-166.80235	-8.95037	0
544	-56.14323	139.13757	194.46713	-42.31084	-126.11885	166.80235	-30.91946	-167.61602	-222.94558	-42.31084	-161.92033	-6.50936	0
545	-61.02525	144.01959	204.23117	-42.31084	-133.44188	174.12538	-26.03744	-162.734	-222.94558	-39.05616	-159.47932	-4.06835	0
546	-65.90727	148.90161	213.99521	-42.31084	-140.76491	181.44841	-26.03744	-160.29299	-220.50457	-34.17414	-157.03831	0.81367	0
547	-73.2303	151.34262	223.75925	-39.86983	-148.08794	186.33043	-28.47845	-162.734	-222.94558	-34.17414	-157.03831	0.81367	0
548	-73.2303	156.22464	228.64127	-42.31084	-150.52895	191.21245	-30.91946	-160.29299	-220.50457	-29.29212	-152.15629	5.69569	0
549	-70.78929	161.10666	231.08228	-44.75185	-150.52895	196.09447	-33.36047	-157.85198	-215.62255	-29.29212	-144.83326	8.1367	0
550	-68.34828	168.42969	235.9643	-49.63387	-152.96996	200.97649	-33.36047	-155.41097	-210.74053	-26.85111	-139.95124	13.01872	0
551	-68.34828	173.31171	240.84632	-52.07488	-155.41097	205.85851	-35.80148	-152.96996	-208.29952	-26.85111	-139.95124	15.45973	0
552	-73.2303	175.75272	248.16935	-52.07488	-160.29299	210.74053	-35.80148	-155.41097	-210.74053	-29.29212	-139.95124	13.01872	0
553	-70.78929	183.07575	253.05137	-56.9569	-162.734	218.06356	-35.80148	-155.41097	-213.18154	-29.29212	-139.95124	10.57771	0
554	-56.14323	195.2808	250.61036	-69.16195	-152.96996	222.94558	-33.36047	-152.96996	-215.62255	-31.73313	-139.95124	8.1367	0
555	-51.26121	197.72181	248.16935	-74.04397	-150.52895	222.94558	-38.24249	-152.96996	-218.06356	-36.61515	-142.39225	3.25468	0
556	-46.37919	202.60383	248.16935	-78.92599	-148.08794	225.38659	-43.12451	-152.96996	-220.50457	-39.05616	-142.39225	0.81367	0
557	-46.37919	205.04484	250.61036	-78.92599	-148.08794	227.8276	-45.56552	-155.41097	-222.94558	-39.05616	-139.95124	0.81367	0
558	-36.61515	209.92686	245.72834	-86.24902	-140.76491	227.8276	-52.88855	-157.85198	-222.94558	-39.05616	-135.06922	3.25468	0
559	-31.73313	217.24989	248.16935	-93.57205	-140.76491	232.70962	-57.77057	-157.85198	-218.06356	-36.61515	-127.74619	8.1367	0
560	-46.37919	214.80888	260.3744	-83.80801	-152.96996	237.59164	-62.65259	-155.41097	-210.74053	-34.17414	-120.42316	13.01872	0
561	-68.34828	217.24989	284.7845	-74.04397	-177.38006	249.79669	-62.65259	-148.08794	-205.85851	-26.85111	-110.65912	22.78276	0
562	-82.99434	224.57292	306.75359	-71.60296	-194.46713	264.44275	-60.21158	-145.64693	-200.97649	-19.52808	-100.89508	27.66478	0
563	-85.43535	229.45494	314.07662	-71.60296	-199.34915	271.76578	-57.77057	-143.20592	-200.97649	-19.52808	-93.57205	30.10579	0
564	-87.87636	236.77797	323.84066	-74.04397	-206.67218	279.08881	-55.32956	-135.88289	-196.09447	-14.64606	-86.24902	34.98781	0
565	-90.31737	244.101	333.6047	-76.48498	-211.5542	288.85285	-55.32956	-131.00087	-193.65346	-12.20505	-76.48498	37.42882	0
566	-82.99434	251.42403	333.6047	-83.80801	-209.11319	291.29386	-57.77057	-128.55986	-191.21245	-12.20505	-66.72094	37.42882	0
567	-73.2303	256.30605	328.72268	-91.13104	-201.79016	291.29386	-62.65259	-128.55986	-191.21245	-12.20505	-59.39791	37.42882	0
568	-61.02525	261.18807	321.39965	-100.89508	-192.02612	291.29386	-67.53461	-126.11885	-188.77144	-7.32303	-52.07488	37.42882	0
569	-56.14323	263.62908	318.95864	-103.33609	-187.1441	291.29386	-74.85764	-126.11885	-186.33043	-7.32303	-42.31084	39.86983	0
570	-53.70222	266.07009	318.95864	-105.7771	-187.1441	291.29386	-79.73966	-126.11885	-179.0074	-7.32303	-37.42882	44.75185	0
571	-48.8202	273.39312	321.39965	-113.10013	-184.70309	296.17588	-82.18067	-121.23683	-174.12538	-2.44101	-29.29212	47.19286	0
572	-53.70222	273.39312	326.28167	-110.65912	-189.58511	298.61689	-77.29865	-118.79582	-169.24336	0	-21.96909	52.07488	0
573	-58.58424	278.27514	336.04571	-110.65912	-196.90814	305.93992	-74.85764	-113.9138	-166.80235	0	-17.08707	52.07488	0
574	-58.58424	280.71615	338.48672	-110.65912	-199.34915	308.38093	-72.41663	-109.03178	-164.36134	2.44101	-12.20505	54.51589	0
575	-58.58424	288.03918	345.80975	-115.54114	-201.79016	315.70396	-67.53461	-101.70875	-159.47932	7.32303	-2.44101	59.39791	0
576	-63.46626	292.9212	355.57379	-115.54114	-209.11319	323.02699	-65.0936	-96.82673	-152.15629	12.20505	7.32303	66.72094	0
577	-65.90727	295.36221	360.45581	-115.54114	-213.99521	327.90901	-67.53461	-91.94471	-149.71528	17.08707	14.64606	69.16195	0
578	-63.46626	300.24423	362.89682	-117.98215	-213.99521	330.35002	-72.41663	-89.5037	-142.39225	19.52808	19.52808	71.60296	0
579	-61.02525	302.68524	362.89682	-120.42316	-211.5542	332.79103	-79.73966	-89.5037	-137.51023	19.52808	26.85111	71.60296	0
580	-61.02525	305.12625	365.33783	-122.86417	-213.99521	335.23204	-84.62168	-87.06269	-130.1872	24.4101	31.73313	76.48498	0
581	-61.02525	312.44928	372.66086	-125.30518	-216.43622	342.55507	-87.06269	-82.18067	-120.42316	26.85111	34.17414	76.48498	0
582	-63.46626	314.89029	377.54288	-125.30518	-221.31824	344.99608	-89.5037	-82.18067	-115.54114	29.29212	34.17414	76.48498	0
583	-70.78929	317.3313	387.30692	-122.86417	-228.64127	352.31911	-87.06269	-74.85764	-105.7771	34.17414	36.61515	76.48498	0
584	-73.2303	319.77231	392.18894	-122.86417	-233.52329	354.76012	-84.62168	-67.53461	-98.45407	39.05616	39.05616	78.92599	0
585	-73.2303	324.65433	397.07096	-125.30518	-235.9643	359.64214	-82.18067	-60.21158	-88.69003	46.37919	46.37919	83.80801	0
586	-63.46626	336.85938	399.51197	-137.51023	-231.08228	366.96517	-82.18067	-50.44754	-78.92599	56.14323	56.14323	91.13104	0
587	-58.58424	344.18241	401.95298	-142.39225	-231.08228	371.84719	-82.18067	-43.12451	-69.16195	63.46626	65.90727	96.01306	0
588	-53.70222	344.18241	397.07096	-144.83326	-226.20026	369.40618	-87.06269	-38.24249	-59.39791	70.78929	73.2303	100.89508	0
589	-39.05616	353.94645	392.18894	-157.03831	-216.43622	371.84719	-91.94471	-33.36047	-49.63387	75.67131	85.43535	105.7771	0
590	-26.85111	361.26948	387.30692	-166.80235	-206.67218	374.2882	-94.38572	-26.03744	-37.42882	80.55333	95.19939	113.10013	0
591	-21.96909	368.59251	389.74793	-174.12538	-206.67218	379.17022	-96.82673	-21.15542	-27.66478	82.99434	102.52242	115.54114	0
592	-26.85111	373.47453	399.51197	-174.12538	-213.99521	386.49325	-94.38572	-11.39138	-15.45973	87.87636	114.72747	120.42316	0
593	-39.05616	375.91554	414.15803	-169.24336	-226.20026	393.81628	-89.5037	-1.62734	-3.25468	92.75838	122.0505	125.30518	0
594	-34.17414	385.67958	419.04005	-176.56639	-226.20026	401.13931	-82.18067	15.45973	13.83239	100.08141	131.81454	132.62821	0
595	-34.17414	395.44362	428.80409	-181.44841	-231.08228	410.90335	-74.85764	30.10579	26.85111	107.40444	141.57858	137.51023	0
596	-29.29212	402.76665	431.2451	-186.33043	-231.08228	415.78537	-74.85764	40.6835	41.49717	112.28646	148.90161	139.95124	0
597	-19.52808	412.53069	431.2451	-196.09447	-226.20026	420.66739	-74.85764	55.32956	56.14323	119.60949	158.66565	144.83326	0
598	-13.83239	419.85372	433.68611	-203.4175	-223.75925	427.99042	-77.29865	69.97562	73.2303	131.81454	168.42969	154.5973	0
599	-4.06835	424.73574	428.80409	-210.74053	-216.43622	427.99042	-79.73966	84.62168	90.31737	136.69656	180.63474	159.47932	0
600	3.25468	429.61776	426.36308	-215.62255	-211.5542	427.99042	-79.73966	99.26774	109.84545	146.4606	190.39878	166.80235	0
601	8.1367	436.94079	428.80409	-222.94558	-211.5542	432.87244	-79.73966	111.47279	124.49151	151.34262	197.72181	174.12538	0
602	0.81367	436.94079	436.12712	-218.06356	-218.87723	437.75446	-77.29865	123.67784	141.57858	161.10666	205.04484	179.0074	0
603	-17.08707	432.05877	448.33217	-208.29952	-233.52329	440.19547	-72.41663	140.76491	156.22464	168.42969	212.36787	183.88942	0
604	-13.83239	434.49978	448.33217	-210.74053	-231.08228	442.63648	-67.53461	157.85198	170.8707	173.31171	219.6909	186.33043	0
605	-4.06835	436.94079	441.00914	-215.62255	-223.75925	440.19547	-65.0936	172.49804	183.07575	175.75272	224.57292	186.33043	0
606	0.81367	436.94079	436.12712	-218.06356	-218.87723	437.75446	-65.0936	184.70309	197.72181	183.07575	229.45494	186.33043	0
607	10.57771	439.3818	428.80409	-225.38659	-209.11319	435.31345	-65.0936	199.34915	212.36787	190.39878	239.21898	191.21245	0
608	13.01872	436.94079	423.92207	-225.38659	-206.67218	430.43143	-67.53461	211.5542	227.01393	197.72181	248.98302	193.65346	0
609	27.66478	439.3818	411.71702	-232.70962	-192.02612	425.54941	-72.41663	223.75925	244.101	200.16282	256.30605	198.53548	0
610	37.42882	441.82281	404.39399	-240.03265	-184.70309	423.1084	-77.29865	235.9643	261.18807	207.48585	263.62908	203.4175	0
611	37.42882	436.94079	399.51197	-237.59164	-182.26208	418.22638	-77.29865	250.61036	275.83413	214.80888	270.95211	208.29952	0
612	42.31084	436.94079	394.62995	-240.03265	-177.38006	415.78537	-77.29865	260.3744	290.48019	219.6909	275.83413	213.18154	0
613	44.75185	429.61776	384.86591	-237.59164	-170.05703	408.46234	-77.29865	270.13844	300.24423	219.6909	275.83413	210.74053	0
614	49.63387	427.17675	377.54288	-237.59164	-165.17501	403.58032	-72.41663	284.7845	312.44928	219.6909	275.83413	210.74053	0
615	56.9569	424.73574	367.77884	-240.03265	-155.41097	396.25729	-65.0936	301.87157	329.53635	222.13191	275.83413	210.74053	0
616	59.39791	424.73574	365.33783	-242.47366	-152.96996	396.25729	-60.21158	318.95864	344.18241	224.57292	283.15716	213.18154	0
617	69.16195	422.29473	353.13278	-244.91467	-143.20592	388.93426	-55.32956	336.04571	361.26948	229.45494	285.59817	213.18154	0
618	76.48498	417.41271	340.92773	-247.35568	-133.44188	379.17022	-55.32956	353.13278	375.91554	231.89595	290.48019	215.62255	0
619	78.92599	412.53069	333.6047	-244.91467	-128.55986	374.2882	-52.88855	367.77884	393.00261	234.33696	295.36221	218.06356	0
620	83.80801	407.64867	323.84066	-244.91467	-121.23683	366.96517	-50.44754	382.4249	410.08968	236.77797	300.24423	222.94558	0
621	83.80801	400.32564	316.51763	-242.47366	-116.35481	359.64214	-50.44754	392.18894	417.41271	234.33696	300.24423	220.50457	0
622	83.80801	390.5616	306.75359	-237.59164	-111.47279	349.8781	-48.00653	399.51197	424.73574	231.89595	295.36221	218.06356	0
623	86.24902	380.79756	294.54854	-232.70962	-104.14976	337.67305	-45.56552	409.27601	432.05877	227.01393	290.48019	213.18154	0
624	78.92599	371.03352	292.10753	-225.38659	-106.59077	332.79103	-35.80148	421.48106	439.3818	224.57292	288.03918	208.29952	0
625	81.367	358.82847	277.46147	-220.50457	-99.26774	318.14497	-28.47845	428.80409	441.82281	222.13191	283.15716	200.97649	0
626	81.367	344.18241	262.81541	-213.18154	-91.94471	303.49891	-23.59643	433.68611	444.26382	217.24989	278.27514	191.21245	0
627	91.13104	329.53635	238.40531	-210.74053	-74.85764	283.97083	-21.15542	436.12712	449.14584	214.80888	275.83413	183.88942	0
628	98.45407	317.3313	218.87723	-208.29952	-60.21158	269.32477	-18.71441	441.00914	456.46887	214.80888	273.39312	179.0074	0
629	103.33609	305.12625	201.79016	-203.4175	-50.44754	254.67871	-13.83239	443.45015	463.7919	214.80888	275.83413	176.56639	0
630	103.33609	285.59817	182.26208	-193.65346	-40.6835	235.15063	-13.83239	441.00914	468.67392	212.36787	275.83413	171.68437	0
631	103.33609	268.5111	165.17501	-186.33043	-30.91946	218.06356	-16.2734	436.12712	468.67392	207.48585	270.95211	164.36134	0
632	100.89508	248.98302	148.08794	-174.12538	-23.59643	198.53548	-13.83239	431.2451	468.67392	202.60383	263.62908	161.92033	0
633	96.01306	231.89595	135.88289	-164.36134	-21.15542	183.88942	-8.95037	423.92207	466.23291	195.2808	256.30605	154.5973	0
634	88.69003	212.36787	123.67784	-149.71528	-18.71441	169.24336	0.81367	419.04005	458.90988	185.51676	248.98302	147.27427	0
635	83.80801	192.83979	109.03178	-137.51023	-13.01872	152.15629	6.50936	411.71702	446.70483	175.75272	239.21898	137.51023	0
636	81.367	173.31171	91.94471	-127.74619	-5.69569	132.62821	11.39138	399.51197	432.05877	161.10666	224.57292	122.86417	0
637	88.69003	156.22464	67.53461	-122.86417	11.39138	113.10013	16.2734	387.30692	417.41271	148.90161	209.92686	108.21811	0
638	88.69003	136.69656	48.00653	-113.10013	21.15542	93.57205	18.71441	375.10187	402.76665	134.25555	197.72181	93.57205	0
639	88.69003	119.60949	30.91946	-103.33609	28.47845	76.48498	21.15542	362.89682	390.5616	119.60949	185.51676	81.367	0
640	83.80801	104.96343	21.15542	-93.57205	30.91946	64.27993	21.15542	353.13278	380.79756	107.40444	173.31171	66.72094	0
641	78.92599	90.31737	10.57771	-83.80801	33.36047	52.07488	23.59643	340.92773	371.03352	95.19939	161.10666	54.51589	0
642	69.16195	73.2303	3.25468	-71.60296	33.36047	39.86983	26.03744	328.72268	358.82847	78.11232	146.4606	39.86983	0
643	56.9569	56.14323	-1.62734	-56.9569	28.47845	27.66478	28.47845	318.95864	349.06443	63.46626	131.81454	25.22377	0
644	44.75185	39.05616	-6.50936	-42.31084	26.03744	17.90074	30.91946	311.63561	334.41837	48.8202	117.16848	13.01872	0
645	37.42882	24.4101	-13.83239	-30.10579	26.03744	4.88202	38.24249	304.31258	317.3313	36.61515	102.52242	-1.62734	0
646	37.42882	12.20505	-26.03744	-25.22377	30.91946	-7.32303	40.6835	292.10753	300.24423	19.52808	90.31737	-16.2734	0
647	32.5468	-3.25468	-35.80148	-15.45973	33.36047	-19.52808	45.56552	279.90248	280.71615	4.88202	75.67131	-26.85111	0
648	32.5468	-15.45973	-48.00653	-8.1367	38.24249	-31.73313	48.00653	270.13844	266.07009	-7.32303	63.46626	-36.61515	0
649	30.10579	-25.22377	-55.32956	-3.25468	40.6835	-39.05616	50.44754	260.3744	251.42403	-17.08707	56.14323	-46.37919	0
650	34.98781	-30.10579	-65.0936	-3.25468	48.00653	-46.37919	50.44754	248.16935	241.65999	-24.4101	51.26121	-48.8202	0
651	30.10579	-42.31084	-72.41663	6.50936	50.44754	-56.14323	48.00653	233.52329	227.01393	-39.05616	39.05616	-58.58424	0
652	17.90074	-59.39791	-77.29865	19.52808	45.56552	-68.34828	45.56552	221.31824	212.36787	-52.07488	24.4101	-68.34828	0
653	8.1367	-69.16195	-77.29865	29.29212	40.6835	-73.2303	48.00653	213.99521	205.04484	-59.39791	14.64606	-78.11232	0
654	-4.06835	-78.92599	-74.85764	41.49717	33.36047	-75.67131	50.44754	209.11319	192.83979	-71.60296	4.88202	-85.43535	0
655	-8.95037	-88.69003	-79.73966	48.8202	33.36047	-82.99434	55.32956	204.23117	183.07575	-78.92599	-4.88202	-95.19939	0
656	-17.08707	-96.01306	-79.73966	56.14323	30.91946	-87.87636	57.77057	199.34915	170.8707	-86.24902	-9.76404	-102.52242	0
657	-24.4101	-100.89508	-77.29865	61.02525	26.03744	-90.31737	65.0936	199.34915	163.54767	-93.57205	-17.08707	-107.40444	0
658	-19.52808	-100.89508	-82.18067	58.58424	30.91946	-92.75838	69.97562	199.34915	161.10666	-93.57205	-17.08707	-109.84545	0
659	-17.08707	-98.45407	-82.18067	56.14323	30.91946	-90.31737	72.41663	196.90814	156.22464	-98.45407	-14.64606	-109.84545	0
660	-26.85111	-103.33609	-77.29865	63.46626	23.59643	-90.31737	72.41663	192.02612	151.34262	-100.89508	-17.08707	-112.28646	0
661	-26.85111	-108.21811	-82.18067	65.90727	26.03744	-95.19939	69.97562	184.70309	144.01959	-105.7771	-21.96909	-114.72747	0
662	-19.52808	-103.33609	-84.62168	61.02525	30.91946	-95.19939	67.53461	179.82107	141.57858	-110.65912	-24.4101	-114.72747	0
663	-17.08707	-98.45407	-82.18067	56.14323	30.91946	-90.31737	72.41663	179.82107	141.57858	-113.10013	-29.29212	-117.16848	0
664	-21.96909	-98.45407	-77.29865	58.58424	26.03744	-87.87636	72.41663	177.38006	139.13757	-117.98215	-31.73313	-119.60949	0
665	-24.4101	-98.45407	-74.85764	61.02525	23.59643	-87.87636	79.73966	174.93905	136.69656	-120.42316	-37.42882	-122.0505	0
666	-24.4101	-98.45407	-74.85764	61.02525	23.59643	-87.87636	82.18067	170.05703	131.81454	-122.86417	-37.42882	-124.49151	0
667	-17.08707	-93.57205	-77.29865	53.70222	28.47845	-85.43535	87.06269	170.05703	129.37353	-122.86417	-37.42882	-126.93252	0
668	-17.08707	-96.01306	-79.73966	56.14323	30.91946	-87.87636	89.5037	165.17501	129.37353	-120.42316	-37.42882	-126.93252	0
669	-21.96909	-103.33609	-82.18067	61.02525	28.47845	-92.75838	87.06269	155.41097	124.49151	-122.86417	-37.42882	-126.93252	0
670	-21.96909	-108.21811	-87.06269	63.46626	30.91946	-97.6404	82.18067	148.08794	122.0505	-122.86417	-37.42882	-126.93252	0
671	-21.96909	-108.21811	-87.06269	63.46626	30.91946	-97.6404	82.18067	140.76491	119.60949	-120.42316	-34.17414	-124.49151	0
672	-21.96909	-108.21811	-87.06269	63.46626	30.91946	-97.6404	77.29865	131.00087	114.72747	-125.30518	-37.42882	-124.49151	0
673	-24.4101	-110.65912	-87.06269	65.90727	30.91946	-100.08141	77.29865	126.11885	112.28646	-130.1872	-44.75185	-129.37353	0
674	-34.17414	-115.54114	-82.18067	73.2303	23.59643	-100.08141	74.85764	123.67784	109.84545	-132.62821	-49.63387	-134.25555	0
675	-41.49717	-115.54114	-74.85764	78.11232	16.2734	-95.19939	79.73966	123.67784	109.84545	-135.06922	-54.51589	-136.69656	0
676	-43.93818	-110.65912	-67.53461	75.67131	11.39138	-90.31737	82.18067	123.67784	107.40444	-137.51023	-56.9569	-141.57858	0
677	-43.93818	-110.65912	-67.53461	75.67131	11.39138	-90.31737	82.18067	123.67784	104.96343	-139.95124	-59.39791	-144.01959	0
678	-43.93818	-110.65912	-67.53461	75.67131	11.39138	-90.31737	84.62168	128.55986	104.96343	-139.95124	-59.39791	-144.01959	0
679	-41.49717	-108.21811	-67.53461	73.2303	11.39138	-87.87636	84.62168	128.55986	107.40444	-137.51023	-54.51589	-141.57858	0
680	-34.17414	-108.21811	-74.85764	70.78929	18.71441	-92.75838	84.62168	128.55986	109.84545	-132.62821	-52.07488	-136.69656	0
681	-26.85111	-105.7771	-79.73966	65.90727	26.03744	-92.75838	79.73966	123.67784	109.84545	-132.62821	-52.07488	-136.69656	0
682	-24.4101	-113.10013	-89.5037	68.34828	30.91946	-102.52242	77.29865	116.35481	107.40444	-137.51023	-56.9569	-139.13757	0
683	-21.96909	-117.98215	-96.82673	68.34828	35.80148	-107.40444	74.85764	111.47279	107.40444	-139.95124	-61.83892	-144.01959	0
684	-26.85111	-120.42316	-94.38572	73.2303	33.36047	-107.40444	74.85764	111.47279	104.96343	-142.39225	-66.72094	-146.4606	0
685	-31.73313	-122.86417	-91.94471	75.67131	28.47845	-107.40444	79.73966	111.47279	104.96343	-139.95124	-66.72094	-146.4606	0
686	-34.17414	-125.30518	-91.94471	78.11232	28.47845	-109.84545	84.62168	111.47279	104.96343	-139.95124	-66.72094	-146.4606	0
687	-34.17414	-125.30518	-91.94471	78.11232	28.47845	-109.84545	84.62168	111.47279	102.52242	-139.95124	-66.72094	-146.4606	0
688	-34.17414	-125.30518	-91.94471	78.11232	28.47845	-109.84545	87.06269	113.9138	107.40444	-135.06922	-61.83892	-144.01959	0
689	-31.73313	-117.98215	-87.06269	73.2303	26.03744	-102.52242	91.94471	118.79582	114.72747	-130.1872	-54.51589	-136.69656	0
690	-29.29212	-117.98215	-89.5037	73.2303	28.47845	-104.96343	91.94471	118.79582	119.60949	-125.30518	-49.63387	-131.81454	0
691	-26.85111	-117.98215	-91.94471	70.78929	30.91946	-104.96343	89.5037	113.9138	122.0505	-125.30518	-47.19286	-129.37353	0
692	-26.85111	-117.98215	-91.94471	70.78929	30.91946	-104.96343	89.5037	109.03178	122.0505	-125.30518	-49.63387	-129.37353	0
693	-39.05616	-127.74619	-89.5037	82.99434	23.59643	-109.84545	89.5037	109.03178	124.49151	-127.74619	-52.07488	-131.81454	0
694	-46.37919	-130.1872	-84.62168	87.87636	18.71441	-107.40444	94.38572	111.47279	126.93252	-127.74619	-52.07488	-131.81454	0
695	-51.26121	-137.51023	-87.06269	92.75838	16.2734	-112.28646	94.38572	111.47279	122.0505	-130.1872	-56.9569	-139.13757	0
696	-53.70222	-139.95124	-87.06269	95.19939	16.2734	-114.72747	94.38572	109.03178	117.16848	-135.06922	-59.39791	-141.57858	0
697	-48.8202	-139.95124	-91.94471	92.75838	21.15542	-117.16848	96.82673	111.47279	117.16848	-135.06922	-61.83892	-144.01959	0
698	-41.49717	-139.95124	-99.26774	90.31737	28.47845	-119.60949	96.82673	113.9138	117.16848	-135.06922	-64.27993	-146.4606	0
699	-34.17414	-139.95124	-106.59077	85.43535	35.80148	-124.49151	91.94471	109.03178	114.72747	-135.06922	-64.27993	-148.90161	0
700	-36.61515	-144.83326	-109.03178	90.31737	35.80148	-126.93252	89.5037	106.59077	117.16848	-135.06922	-61.83892	-148.90161	0
701	-36.61515	-144.83326	-109.03178	90.31737	35.80148	-126.93252	84.62168	101.70875	117.16848	-135.06922	-61.83892	-148.90161	0
702	-43.93818	-144.83326	-101.70875	92.75838	28.47845	-124.49151	87.06269	99.26774	122.0505	-135.06922	-61.83892	-146.4606	0
703	-56.14323	-149.71528	-94.38572	102.52242	18.71441	-122.0505	89.5037	99.26774	124.49151	-132.62821	-64.27993	-146.4606	0
704	-61.02525	-154.5973	-94.38572	107.40444	16.2734	-124.49151	91.94471	99.26774	124.49151	-135.06922	-64.27993	-146.4606	-1250	T-0
705	-65.90727	-159.47932	-94.38572	112.28646	13.83239	-126.93252	96.82673	99.26774	122.0505	-135.06922	-64.27993	-146.4606	0
706	-61.02525	-154.5973	-94.38572	107.40444	16.2734	-124.49151	101.70875	104.14976	122.0505	-132.62821	-59.39791	-144.01959	0
707	-48.8202	-152.15629	-104.14976	100.08141	26.03744	-129.37353	106.59077	106.59077	122.0505	-130.1872	-59.39791	-144.01959	0
708	-43.93818	-152.15629	-109.03178	97.6404	30.91946	-131.81454	106.59077	109.03178	122.0505	-130.1872	-56.9569	-144.01959	0
709	-34.17414	-149.71528	-116.35481	90.31737	40.6835	-134.25555	104.14976	106.59077	122.0505	-130.1872	-54.51589	-144.01959	0
710	-29.29212	-149.71528	-121.23683	87.87636	45.56552	-136.69656	104.14976	106.59077	124.49151	-130.1872	-52.07488	-141.57858	0
711	-36.61515	-149.71528	-113.9138	92.75838	38.24249	-131.81454	101.70875	104.14976	124.49151	-130.1872	-52.07488	-141.57858	0
712	-41.49717	-152.15629	-111.47279	95.19939	33.36047	-131.81454	101.70875	101.70875	126.93252	-130.1872	-52.07488	-139.13757	0
713	-46.37919	-154.5973	-109.03178	100.08141	30.91946	-131.81454	99.26774	104.14976	126.93252	-130.1872	-54.51589	-141.57858	0
714	-48.8202	-159.47932	-111.47279	102.52242	30.91946	-136.69656	96.82673	106.59077	126.93252	-135.06922	-59.39791	-146.4606	0
715	-51.26121	-164.36134	-113.9138	107.40444	30.91946	-139.13757	99.26774	111.47279	124.49151	-135.06922	-61.83892	-148.90161	0
716	-51.26121	-166.80235	-116.35481	107.40444	30.91946	-141.57858	104.14976	116.35481	124.49151	-132.62821	-59.39791	-148.90161	0
717	-46.37919	-166.80235	-121.23683	104.96343	35.80148	-144.01959	104.14976	123.67784	124.49151	-132.62821	-59.39791	-148.90161	0
718	-39.05616	-169.24336	-131.00087	102.52242	45.56552	-151.34262	104.14976	128.55986	124.49151	-132.62821	-59.39791	-148.90161	0
719	-34.17414	-169.24336	-135.88289	100.08141	50.44754	-153.78363	99.26774	128.55986	124.49151	-132.62821	-61.83892	-151.34262	0
720	-31.73313	-171.68437	-140.76491	100.08141	52.88855	-156.22464	96.82673	128.55986	126.93252	-132.62821	-61.83892	-148.90161	0
721	-36.61515	-171.68437	-135.88289	102.52242	48.00653	-153.78363	96.82673	131.00087	129.37353	-132.62821	-59.39791	-146.4606	0
722	-41.49717	-169.24336	-128.55986	104.96343	43.12451	-148.90161	96.82673	131.00087	129.37353	-132.62821	-61.83892	-144.01959	0
723	-48.8202	-176.56639	-128.55986	112.28646	38.24249	-153.78363	96.82673	131.00087	129.37353	-135.06922	-66.72094	-146.4606	0
724	-58.58424	-181.44841	-123.67784	119.60949	30.91946	-153.78363	96.82673	128.55986	126.93252	-139.95124	-71.60296	-151.34262	0
725	-63.46626	-183.88942	-121.23683	122.0505	28.47845	-153.78363	104.14976	135.88289	126.93252	-139.95124	-74.04397	-151.34262	0
726	-68.34828	-183.88942	-116.35481	124.49151	23.59643	-151.34262	111.47279	140.76491	126.93252	-139.95124	-71.60296	-148.90161	0
727	-61.02525	-186.33043	-126.11885	122.0505	30.91946	-156.22464	116.35481	143.20592	126.93252	-137.51023	-71.60296	-148.90161	0
728	-51.26121	-188.77144	-138.3239	119.60949	43.12451	-163.54767	113.9138	143.20592	126.93252	-137.51023	-74.04397	-151.34262	0
729	-34.17414	-186.33043	-152.96996	109.84545	57.77057	-170.8707	109.03178	143.20592	126.93252	-137.51023	-74.04397	-153.78363	0
730	-24.4101	-183.88942	-160.29299	102.52242	67.53461	-173.31171	106.59077	140.76491	126.93252	-135.06922	-74.04397	-151.34262	0
731	-17.08707	-181.44841	-165.17501	97.6404	72.41663	-173.31171	99.26774	135.88289	126.93252	-135.06922	-74.04397	-153.78363	0
732	-17.08707	-181.44841	-165.17501	97.6404	72.41663	-173.31171	96.82673	131.00087	129.37353	-135.06922	-74.04397	-151.34262	0
733	-21.96909	-181.44841	-160.29299	100.08141	67.53461	-170.8707	96.82673	128.55986	129.37353	-135.06922	-78.92599	-153.78363	0
734	-26.85111	-181.44841	-155.41097	102.52242	62.65259	-168.42969	96.82673	126.11885	124.49151	-139.95124	-81.367	-158.66565	0
735	-34.17414	-181.44841	-148.08794	107.40444	55.32956	-165.98868	101.70875	123.67784	122.0505	-139.95124	-81.367	-158.66565	0
736	-43.93818	-183.88942	-140.76491	112.28646	48.00653	-163.54767	106.59077	121.23683	114.72747	-139.95124	-78.92599	-158.66565	0
737	-51.26121	-186.33043	-135.88289	117.16848	40.6835	-161.10666	113.9138	123.67784	114.72747	-137.51023	-76.48498	-153.78363	0
738	-51.26121	-191.21245	-140.76491	119.60949	43.12451	-165.98868	116.35481	123.67784	109.84545	-135.06922	-76.48498	-153.78363	0
739	-41.49717	-191.21245	-150.52895	114.72747	52.88855	-170.8707	111.47279	121.23683	104.96343	-135.06922	-76.48498	-153.78363	0
740	-41.49717	-191.21245	-150.52895	114.72747	52.88855	-170.8707	109.03178	118.79582	102.52242	-132.62821	-71.60296	-151.34262	0
741	-46.37919	-191.21245	-145.64693	117.16848	48.00653	-168.42969	104.14976	118.79582	104.96343	-127.74619	-66.72094	-148.90161	0
742	-39.05616	-188.77144	-150.52895	112.28646	55.32956	-170.8707	101.70875	116.35481	104.96343	-127.74619	-69.16195	-148.90161	0
743	-36.61515	-183.88942	-148.08794	109.84545	55.32956	-165.98868	99.26774	116.35481	104.96343	-127.74619	-71.60296	-148.90161	0
744	-41.49717	-183.88942	-143.20592	112.28646	50.44754	-163.54767	96.82673	113.9138	104.96343	-132.62821	-71.60296	-148.90161	0
745	-46.37919	-176.56639	-131.00087	109.84545	40.6835	-153.78363	104.14976	116.35481	107.40444	-130.1872	-71.60296	-148.90161	0
746	-43.93818	-164.36134	-121.23683	102.52242	38.24249	-144.01959	111.47279	118.79582	109.84545	-127.74619	-66.72094	-146.4606	0
747	-36.61515	-157.03831	-121.23683	95.19939	40.6835	-139.13757	118.79582	126.11885	112.28646	-127.74619	-66.72094	-144.01959	0
748	-34.17414	-152.15629	-118.79582	92.75838	40.6835	-136.69656	121.23683	131.00087	112.28646	-125.30518	-66.72094	-144.01959	0
749	-34.17414	-144.83326	-111.47279	87.87636	38.24249	-129.37353	123.67784	133.44188	114.72747	-122.86417	-64.27993	-139.13757	0
750	-24.4101	-137.51023	-113.9138	80.55333	43.12451	-126.93252	128.55986	135.88289	117.16848	-120.42316	-61.83892	-139.13757	0
751	-19.52808	-132.62821	-113.9138	75.67131	45.56552	-124.49151	126.11885	138.3239	122.0505	-117.98215	-59.39791	-136.69656	0
752	-19.52808	-130.1872	-111.47279	73.2303	45.56552	-122.0505	123.67784	140.76491	124.49151	-117.98215	-56.9569	-134.25555	0
753	-24.4101	-135.06922	-111.47279	78.11232	43.12451	-124.49151	118.79582	140.76491	126.93252	-117.98215	-56.9569	-134.25555	0
754	-24.4101	-137.51023	-113.9138	80.55333	43.12451	-126.93252	111.47279	140.76491	126.93252	-117.98215	-56.9569	-134.25555	0
755	-29.29212	-139.95124	-111.47279	82.99434	40.6835	-126.93252	111.47279	138.3239	124.49151	-115.54114	-56.9569	-134.25555	0
756	-39.05616	-139.95124	-101.70875	87.87636	30.91946	-122.0505	111.47279	138.3239	124.49151	-113.10013	-52.07488	-129.37353	0
757	-43.93818	-137.51023	-94.38572	90.31737	23.59643	-117.16848	113.9138	140.76491	124.49151	-110.65912	-49.63387	-126.93252	0
758	-41.49717	-135.06922	-94.38572	87.87636	26.03744	-114.72747	113.9138	138.3239	122.0505	-110.65912	-49.63387	-126.93252	0
759	-41.49717	-137.51023	-96.82673	87.87636	26.03744	-117.16848	113.9138	128.55986	114.72747	-110.65912	-54.51589	-126.93252	0
760	-41.49717	-132.62821	-91.94471	85.43535	23.59643	-112.28646	111.47279	118.79582	109.84545	-108.21811	-54.51589	-126.93252	0
761	-43.93818	-127.74619	-84.62168	85.43535	18.71441	-107.40444	106.59077	106.59077	107.40444	-105.7771	-52.07488	-126.93252	0
762	-39.05616	-122.86417	-84.62168	80.55333	21.15542	-104.96343	99.26774	91.94471	100.08141	-108.21811	-54.51589	-126.93252	0
763	-21.96909	-113.10013	-91.94471	65.90727	33.36047	-102.52242	87.06269	79.73966	95.19939	-108.21811	-56.9569	-126.93252	0
764	-19.52808	-110.65912	-91.94471	63.46626	35.80148	-102.52242	77.29865	65.0936	85.43535	-108.21811	-56.9569	-124.49151	0
765	-11.39138	-100.89508	-89.5037	56.14323	38.24249	-95.19939	69.97562	55.32956	75.67131	-105.7771	-54.51589	-119.60949	0
766	-1.62734	-88.69003	-87.06269	43.93818	40.6835	-87.87636	67.53461	48.00653	65.90727	-103.33609	-49.63387	-114.72747	0
767	-4.06835	-96.01306	-91.94471	48.8202	43.12451	-92.75838	65.0936	43.12451	56.14323	-103.33609	-49.63387	-112.28646	0
768	-8.95037	-100.89508	-91.94471	53.70222	40.6835	-95.19939	62.65259	40.6835	48.8202	-100.89508	-47.19286	-109.84545	0
769	-17.08707	-105.7771	-89.5037	61.02525	35.80148	-97.6404	60.21158	38.24249	41.49717	-100.89508	-47.19286	-107.40444	0
770	-17.08707	-105.7771	-89.5037	61.02525	35.80148	-97.6404	57.77057	32.5468	34.17414	-98.45407	-47.19286	-107.40444	0
771	-11.39138	-110.65912	-99.26774	61.02525	43.12451	-104.96343	52.88855	30.10579	29.29212	-98.45407	-47.19286	-107.40444	0
772	-11.39138	-120.42316	-109.03178	65.90727	48.00653	-114.72747	48.00653	25.22377	24.4101	-100.89508	-49.63387	-107.40444	0
773	-4.06835	-122.86417	-118.79582	63.46626	55.32956	-119.60949	40.6835	22.78276	24.4101	-100.89508	-49.63387	-107.40444	0
774	3.25468	-120.42316	-123.67784	58.58424	62.65259	-122.0505	35.80148	17.90074	18.71441	-98.45407	-49.63387	-107.40444	0
775	3.25468	-120.42316	-123.67784	58.58424	62.65259	-122.0505	35.80148	17.90074	18.71441	-96.01306	-47.19286	-104.96343	0
776	0.81367	-125.30518	-126.11885	61.02525	62.65259	-124.49151	35.80148	17.90074	13.83239	-96.01306	-44.75185	-100.08141	0
777	-1.62734	-130.1872	-128.55986	65.90727	62.65259	-129.37353	38.24249	20.34175	11.39138	-96.01306	-44.75185	-100.08141	0
778	-6.50936	-137.51023	-131.00087	70.78929	60.21158	-134.25555	40.6835	20.34175	6.50936	-96.01306	-44.75185	-100.08141	0
779	-17.08707	-139.95124	-123.67784	78.11232	52.88855	-131.81454	45.56552	20.34175	1.62734	-96.01306	-47.19286	-100.08141	0
780	-11.39138	-142.39225	-131.00087	75.67131	57.77057	-136.69656	48.00653	13.01872	-5.69569	-100.89508	-49.63387	-102.52242	0
781	-4.06835	-139.95124	-135.88289	70.78929	65.0936	-136.69656	52.88855	8.1367	-8.1367	-103.33609	-52.07488	-102.52242	0
782	-11.39138	-142.39225	-131.00087	75.67131	57.77057	-136.69656	57.77057	5.69569	-8.1367	-105.7771	-54.51589	-104.96343	0
783	-11.39138	-147.27427	-135.88289	78.11232	60.21158	-141.57858	57.77057	3.25468	-8.1367	-108.21811	-59.39791	-109.84545	0
784	-17.08707	-154.5973	-138.3239	85.43535	60.21158	-146.4606	60.21158	0.81367	-15.45973	-115.54114	-64.27993	-114.72747	0
785	-26.85111	-166.80235	-140.76491	95.19939	55.32956	-153.78363	65.0936	-1.62734	-20.34175	-122.86417	-71.60296	-122.0505	0
786	-39.05616	-174.12538	-135.88289	104.96343	48.00653	-156.22464	69.97562	-1.62734	-25.22377	-127.74619	-74.04397	-126.93252	0
787	-46.37919	-179.0074	-133.44188	112.28646	43.12451	-156.22464	77.29865	0.81367	-30.10579	-132.62821	-81.367	-131.81454	0
788	-46.37919	-188.77144	-143.20592	117.16848	48.00653	-165.98868	79.73966	-1.62734	-37.42882	-144.83326	-91.13104	-141.57858	0
789	-43.93818	-198.53548	-155.41097	119.60949	55.32956	-178.19373	79.73966	-8.95037	-47.19286	-154.5973	-100.89508	-151.34262	0
790	-48.8202	-203.4175	-155.41097	124.49151	52.88855	-180.63474	79.73966	-16.2734	-54.51589	-157.03831	-108.21811	-156.22464	0
791	-56.14323	-208.29952	-152.96996	131.81454	48.00653	-180.63474	79.73966	-21.15542	-56.9569	-159.47932	-108.21811	-156.22464	0
792	-56.14323	-213.18154	-157.85198	134.25555	50.44754	-185.51676	77.29865	-26.03744	-59.39791	-164.36134	-115.54114	-158.66565	0
793	-58.58424	-218.06356	-160.29299	136.69656	50.44754	-190.39878	74.85764	-28.47845	-59.39791	-166.80235	-117.98215	-163.54767	0
794	-65.90727	-225.38659	-160.29299	144.01959	45.56552	-192.83979	74.85764	-30.91946	-61.83892	-169.24336	-120.42316	-163.54767	0
795	-70.78929	-227.8276	-157.85198	148.90161	43.12451	-192.83979	77.29865	-28.47845	-61.83892	-169.24336	-120.42316	-163.54767	0
796	-75.67131	-227.8276	-152.96996	151.34262	38.24249	-190.39878	82.18067	-26.03744	-61.83892	-166.80235	-117.98215	-161.10666	0
797	-75.67131	-227.8276	-152.96996	151.34262	38.24249	-190.39878	87.06269	-21.15542	-61.83892	-166.80235	-115.54114	-158.66565	0
798	-75.67131	-227.8276	-152.96996	151.34262	38.24249	-190.39878	89.5037	-18.71441	-61.83892	-164.36134	-113.10013	-156.22464	0
799	-78.11232	-230.26861	-152.96996	153.78363	35.80148	-192.83979	89.5037	-21.15542	-61.83892	-161.92033	-113.10013	-153.78363	0
800	-78.11232	-230.26861	-152.96996	153.78363	35.80148	-192.83979	89.5037	-21.15542	-61.83892	-159.47932	-110.65912	-153.78363	0
801	-78.11232	-230.26861	-152.96996	153.78363	35.80148	-192.83979	87.06269	-28.47845	-64.27993	-159.47932	-110.65912	-153.78363	0
802	-70.78929	-230.26861	-160.29299	148.90161	43.12451	-195.2808	84.62168	-35.80148	-66.72094	-164.36134	-115.54114	-153.78363	0
803	-65.90727	-232.70962	-167.61602	148.90161	50.44754	-200.16282	77.29865	-43.12451	-69.16195	-166.80235	-120.42316	-156.22464	0
804	-65.90727	-235.15063	-170.05703	148.90161	50.44754	-202.60383	74.85764	-48.00653	-74.04397	-174.12538	-125.30518	-161.10666	0
805	-65.90727	-232.70962	-167.61602	148.90161	50.44754	-200.16282	77.29865	-50.44754	-74.04397	-174.12538	-127.74619	-163.54767	0
806	-70.78929	-232.70962	-162.734	151.34262	45.56552	-197.72181	79.73966	-48.00653	-74.04397	-174.12538	-127.74619	-163.54767	0
807	-73.2303	-232.70962	-160.29299	151.34262	43.12451	-197.72181	84.62168	-43.12451	-74.04397	-174.12538	-125.30518	-161.10666	0
808	-78.11232	-232.70962	-155.41097	153.78363	38.24249	-195.2808	89.5037	-38.24249	-71.60296	-166.80235	-122.86417	-158.66565	0
809	-85.43535	-230.26861	-145.64693	156.22464	28.47845	-187.95777	91.94471	-35.80148	-71.60296	-164.36134	-120.42316	-153.78363	0
810	-87.87636	-230.26861	-143.20592	158.66565	26.03744	-187.95777	91.94471	-38.24249	-71.60296	-159.47932	-115.54114	-151.34262	0
811	-85.43535	-230.26861	-145.64693	156.22464	28.47845	-187.95777	89.5037	-40.6835	-71.60296	-157.03831	-113.10013	-146.4606	0
812	-82.99434	-230.26861	-148.08794	156.22464	30.91946	-190.39878	87.06269	-45.56552	-71.60296	-154.5973	-110.65912	-141.57858	0
813	-80.55333	-230.26861	-150.52895	153.78363	33.36047	-190.39878	84.62168	-50.44754	-71.60296	-152.15629	-110.65912	-141.57858	0
814	-75.67131	-232.70962	-157.85198	153.78363	40.6835	-195.2808	77.29865	-57.77057	-76.48498	-157.03831	-117.98215	-144.01959	0
815	-75.67131	-232.70962	-157.85198	153.78363	40.6835	-195.2808	77.29865	-60.21158	-78.92599	-159.47932	-120.42316	-148.90161	0
816	-80.55333	-232.70962	-152.96996	156.22464	35.80148	-192.83979	79.73966	-57.77057	-78.92599	-157.03831	-117.98215	-146.4606	0
817	-80.55333	-227.8276	-148.08794	153.78363	33.36047	-187.95777	82.18067	-55.32956	-78.92599	-157.03831	-115.54114	-144.01959	0
818	-73.2303	-225.38659	-152.96996	148.90161	38.24249	-190.39878	82.18067	-50.44754	-81.367	-157.03831	-115.54114	-144.01959	0
819	-63.46626	-222.94558	-160.29299	141.57858	48.00653	-192.83979	82.18067	-50.44754	-83.80801	-154.5973	-115.54114	-144.01959	0
820	-65.90727	-220.50457	-155.41097	141.57858	43.12451	-187.95777	84.62168	-50.44754	-81.367	-149.71528	-113.10013	-139.13757	0
821	-73.2303	-215.62255	-143.20592	144.01959	33.36047	-180.63474	84.62168	-48.00653	-76.48498	-142.39225	-105.7771	-129.37353	0
822	-65.90727	-210.74053	-145.64693	136.69656	38.24249	-178.19373	84.62168	-50.44754	-76.48498	-139.95124	-105.7771	-126.93252	0
823	-53.70222	-205.85851	-152.96996	129.37353	48.00653	-180.63474	82.18067	-52.88855	-74.04397	-137.51023	-105.7771	-124.49151	0
824	-58.58424	-203.4175	-145.64693	129.37353	43.12451	-175.75272	84.62168	-52.88855	-71.60296	-132.62821	-103.33609	-119.60949	0
825	-68.34828	-203.4175	-135.88289	134.25555	33.36047	-170.8707	87.06269	-52.88855	-71.60296	-127.74619	-100.89508	-114.72747	0
826	-75.67131	-203.4175	-128.55986	139.13757	26.03744	-165.98868	87.06269	-50.44754	-71.60296	-127.74619	-98.45407	-112.28646	0
827	-68.34828	-203.4175	-135.88289	134.25555	33.36047	-170.8707	87.06269	-50.44754	-74.04397	-127.74619	-98.45407	-112.28646	0
828	-63.46626	-200.97649	-138.3239	131.81454	35.80148	-170.8707	89.5037	-45.56552	-74.04397	-125.30518	-98.45407	-112.28646	0
829	-70.78929	-198.53548	-128.55986	134.25555	28.47845	-163.54767	89.5037	-43.12451	-74.04397	-125.30518	-98.45407	-109.84545	0
830	-73.2303	-200.97649	-128.55986	136.69656	26.03744	-165.98868	87.06269	-48.00653	-76.48498	-125.30518	-98.45407	-109.84545	0
831	-65.90727	-203.4175	-138.3239	134.25555	35.80148	-170.8707	79.73966	-55.32956	-81.367	-127.74619	-100.89508	-114.72747	0
832	-58.58424	-200.97649	-143.20592	129.37353	40.6835	-173.31171	72.41663	-62.65259	-83.80801	-132.62821	-105.7771	-117.16848	0
833	-51.26121	-196.09447	-145.64693	122.0505	45.56552	-170.8707	69.97562	-65.0936	-81.367	-130.1872	-108.21811	-117.16848	0
834	-53.70222	-193.65346	-140.76491	122.0505	43.12451	-168.42969	65.0936	-65.0936	-81.367	-130.1872	-108.21811	-114.72747	0
835	-51.26121	-191.21245	-140.76491	119.60949	43.12451	-165.98868	65.0936	-65.0936	-81.367	-127.74619	-105.7771	-114.72747	0
836	-48.8202	-191.21245	-143.20592	119.60949	45.56552	-168.42969	65.0936	-60.21158	-83.80801	-127.74619	-105.7771	-114.72747	0
837	-51.26121	-191.21245	-140.76491	119.60949	43.12451	-165.98868	69.97562	-55.32956	-83.80801	-125.30518	-103.33609	-112.28646	0
838	-53.70222	-191.21245	-138.3239	122.0505	40.6835	-165.98868	74.85764	-48.00653	-83.80801	-120.42316	-100.89508	-107.40444	0
839	-53.70222	-186.33043	-133.44188	119.60949	38.24249	-161.10666	74.85764	-45.56552	-83.80801	-115.54114	-96.01306	-104.96343	0
840	-56.14323	-191.21245	-135.88289	122.0505	38.24249	-163.54767	72.41663	-48.00653	-86.24902	-115.54114	-96.01306	-102.52242	0
841	-56.14323	-191.21245	-135.88289	122.0505	38.24249	-163.54767	67.53461	-50.44754	-86.24902	-113.10013	-96.01306	-102.52242	0
842	-61.02525	-193.65346	-133.44188	126.93252	35.80148	-163.54767	60.21158	-57.77057	-86.24902	-113.10013	-96.01306	-100.08141	0
843	-61.02525	-191.21245	-131.00087	124.49151	33.36047	-161.10666	60.21158	-57.77057	-81.367	-110.65912	-96.01306	-97.6404	0
844	-65.90727	-191.21245	-126.11885	126.93252	28.47845	-158.66565	60.21158	-57.77057	-81.367	-108.21811	-93.57205	-92.75838	0
845	-70.78929	-191.21245	-121.23683	129.37353	23.59643	-156.22464	62.65259	-57.77057	-81.367	-105.7771	-93.57205	-92.75838	0
846	-73.2303	-191.21245	-118.79582	131.81454	21.15542	-156.22464	67.53461	-55.32956	-81.367	-103.33609	-91.13104	-90.31737	0
847	-73.2303	-193.65346	-121.23683	131.81454	23.59643	-158.66565	67.53461	-50.44754	-81.367	-103.33609	-91.13104	-90.31737	0
848	-73.2303	-196.09447	-123.67784	134.25555	23.59643	-161.10666	67.53461	-43.12451	-81.367	-100.89508	-91.13104	-90.31737	0
849	-68.34828	-196.09447	-128.55986	131.81454	28.47845	-163.54767	62.65259	-43.12451	-83.80801	-100.89508	-91.13104	-90.31737	0
850	-63.46626	-198.53548	-135.88289	129.37353	35.80148	-168.42969	57.77057	-48.00653	-83.80801	-98.45407	-91.13104	-90.31737	0
851	-61.02525	-196.09447	-135.88289	126.93252	35.80148	-165.98868	52.88855	-50.44754	-83.80801	-98.45407	-91.13104	-90.31737	0
852	-61.02525	-198.53548	-138.3239	129.37353	38.24249	-168.42969	48.00653	-55.32956	-83.80801	-98.45407	-93.57205	-90.31737	0
853	-65.90727	-198.53548	-133.44188	131.81454	33.36047	-165.98868	43.12451	-60.21158	-81.367	-96.01306	-96.01306	-90.31737	0
854	-68.34828	-193.65346	-126.11885	129.37353	28.47845	-161.10666	43.12451	-60.21158	-76.48498	-91.13104	-93.57205	-85.43535	0
855	-68.34828	-191.21245	-123.67784	129.37353	26.03744	-158.66565	45.56552	-60.21158	-76.48498	-88.69003	-93.57205	-82.99434	0
856	-68.34828	-191.21245	-123.67784	129.37353	26.03744	-158.66565	45.56552	-55.32956	-76.48498	-86.24902	-93.57205	-82.99434	0
857	-68.34828	-193.65346	-126.11885	129.37353	28.47845	-161.10666	48.00653	-52.88855	-76.48498	-86.24902	-96.01306	-85.43535	0
858	-65.90727	-188.77144	-123.67784	126.93252	28.47845	-156.22464	50.44754	-43.12451	-71.60296	-81.367	-93.57205	-80.55333	0
859	-70.78929	-183.88942	-113.9138	126.93252	21.15542	-148.90161	55.32956	-40.6835	-69.16195	-76.48498	-88.69003	-75.67131	0
860	-70.78929	-181.44841	-111.47279	124.49151	18.71441	-146.4606	52.88855	-40.6835	-66.72094	-71.60296	-86.24902	-73.2303	0
861	-65.90727	-179.0074	-113.9138	122.0505	23.59643	-146.4606	50.44754	-45.56552	-64.27993	-69.16195	-83.80801	-70.78929	0
862	-65.90727	-176.56639	-111.47279	119.60949	21.15542	-144.01959	48.00653	-45.56552	-59.39791	-64.27993	-81.367	-68.34828	0
863	-68.34828	-174.12538	-106.59077	119.60949	18.71441	-141.57858	50.44754	-40.6835	-47.19286	-61.83892	-78.92599	-63.46626	0
864	-70.78929	-176.56639	-106.59077	122.0505	16.2734	-141.57858	52.88855	-35.80148	-42.31084	-66.72094	-86.24902	-68.34828	0
865	-65.90727	-179.0074	-113.9138	122.0505	23.59643	-146.4606	60.21158	-26.03744	-37.42882	-81.367	-100.89508	-80.55333	0
866	-65.90727	-186.33043	-121.23683	124.49151	26.03744	-153.78363	74.85764	0.81367	-20.34175	-100.89508	-117.98215	-97.6404	0
867	-78.11232	-196.09447	-118.79582	136.69656	18.71441	-158.66565	96.82673	38.24249	6.50936	-122.86417	-139.95124	-114.72747	0
868	-95.19939	-210.74053	-116.35481	151.34262	8.95037	-163.54767	121.23683	82.18067	39.05616	-139.95124	-157.03831	-131.81454	0
869	-107.40444	-222.94558	-116.35481	163.54767	4.06835	-170.8707	140.76491	123.67784	78.11232	-154.5973	-174.12538	-146.4606	0
870	-107.40444	-230.26861	-123.67784	168.42969	6.50936	-178.19373	157.85198	170.05703	131.81454	-154.5973	-176.56639	-153.78363	0
871	-95.19939	-230.26861	-135.88289	161.10666	18.71441	-183.07575	162.734	221.31824	207.48585	-132.62821	-164.36134	-148.90161	0
872	-70.78929	-225.38659	-155.41097	146.4606	40.6835	-190.39878	155.41097	275.02046	302.68524	-83.80801	-127.74619	-122.0505	0
873	-29.29212	-208.29952	-179.82107	117.16848	74.85764	-195.2808	123.67784	311.63561	400.32564	2.44101	-56.9569	-70.78929	0
874	44.75185	-171.68437	-216.43622	63.46626	128.55986	-192.83979	72.41663	318.95864	483.31998	129.37353	46.37919	3.25468	0
875	137.51023	-117.98215	-255.49238	-10.57771	194.46713	-185.51676	0.81367	301.87157	549.22725	292.9212	183.07575	105.7771	0
876	249.79669	-44.75185	-294.54854	-103.33609	270.13844	-168.42969	-91.94471	248.16935	588.28341	493.08402	356.38746	240.03265	0
877	366.96517	36.61515	-331.16369	-200.97649	348.25076	-146.4606	-204.23117	143.20592	578.51937	720.09795	558.99129	396.25729	0
878	484.13365	134.25555	-350.69177	-308.38093	416.59904	-107.40444	-323.84066	-8.95037	515.05311	964.19895	778.68219	569.569	0
879	608.62516	244.101	-365.33783	-425.54941	487.38833	-61.02525	-445.89116	-201.79016	400.32564	1200.97692	998.37309	745.32172	0
880	718.47061	363.71049	-355.57379	-540.27688	536.20853	4.88202	-558.17762	-404.39399	246.54201	1413.34479	1198.53591	911.3104	0
881	801.46495	475.99695	-326.28167	-637.91728	563.05964	76.48498	-658.25903	-594.79277	85.43535	1584.21549	1369.40661	1055.32999	0
882	850.28515	561.4323	-289.66652	-706.26556	570.38267	137.51023	-736.37135	-768.10448	-86.24902	1685.92424	1484.13408	1165.17544	0
883	869.81323	617.57553	-253.05137	-742.88071	560.61863	183.88942	-785.19155	-902.36003	-254.67871	1715.21636	1537.8363	1221.31867	0
884	855.16717	641.98563	-213.99521	-747.76273	533.76752	215.62255	-799.83761	-997.55942	-418.22638	1663.95515	1518.30822	1228.6417	0
885	803.90596	637.10361	-167.61602	-720.91162	484.94732	235.15063	-780.30953	-1065.9077	-579.33304	1542.71832	1437.75489	1184.70352	0
886	708.70657	600.48846	-109.03178	-655.00435	409.27601	247.35568	-738.81236	-1109.84588	-730.67566	1369.40661	1310.82237	1101.70918	0
887	598.86112	537.0222	-62.65259	-567.12799	331.16369	237.59164	-682.66913	-1139.138	-872.25424	1157.03874	1142.39268	989.42272	0
888	484.13365	463.7919	-21.15542	-474.36961	253.05137	222.94558	-604.55681	-1151.34305	-989.42272	930.02481	949.55289	850.28515	0
889	364.52416	388.12059	23.59643	-376.72921	170.05703	205.85851	-519.12146	-1146.46103	-1069.97605	712.77492	759.15411	706.26556	0
890	264.44275	317.3313	52.88855	-291.29386	106.59077	186.33043	-441.00914	-1131.81497	-1113.91423	519.93513	580.96038	567.12799	0
891	169.24336	258.74706	89.5037	-213.18154	40.6835	174.12538	-365.33783	-1092.75881	-1109.03221	358.82847	427.17675	445.07749	0
892	91.13104	209.92686	118.79582	-149.71528	-13.01872	164.36134	-294.54854	-1029.29255	-1060.21201	231.89595	297.80322	337.67305	0
893	49.63387	168.42969	118.79582	-108.21811	-35.80148	144.83326	-233.52329	-941.41619	-969.89464	134.25555	190.39878	244.91467	0
894	10.57771	139.13757	128.55986	-74.04397	-60.21158	135.06922	-182.26208	-836.45276	-852.72616	70.78929	114.72747	174.12538	0
895	-13.83239	124.49151	138.3239	-54.51589	-77.29865	132.62821	-143.20592	-729.04832	-733.11667	36.61515	70.78929	130.1872	0
896	-36.61515	114.72747	150.52895	-39.86983	-94.38572	132.62821	-109.03178	-621.64388	-618.3892	24.4101	46.37919	103.33609	0
897	-43.93818	109.84545	152.96996	-32.5468	-99.26774	130.1872	-87.06269	-524.00348	-518.30779	19.52808	34.17414	86.24902	0
898	-36.61515	107.40444	143.20592	-34.98781	-89.5037	125.30518	-77.29865	-438.56813	-430.43143	19.52808	29.29212	76.48498	0
899	-34.17414	102.52242	135.88289	-34.98781	-84.62168	117.98215	-74.85764	-372.66086	-359.64214	24.4101	29.29212	74.04397	0
900	-29.29212	102.52242	131.00087	-37.42882	-79.73966	115.54114	-67.53461	-321.39965	-305.93992	31.73313	34.17414	74.04397	0
901	-17.08707	104.96343	121.23683	-44.75185	-69.97562	113.10013	-62.65259	-289.66652	-266.88376	34.17414	34.17414	74.04397	0
902	-11.39138	100.08141	111.47279	-44.75185	-62.65259	105.7771	-62.65259	-270.13844	-244.91467	29.29212	29.29212	69.16195	0
903	-1.62734	102.52242	104.14976	-49.63387	-52.88855	103.33609	-60.21158	-255.49238	-225.38659	26.85111	24.4101	64.27993	0
904	-4.06835	100.08141	104.14976	-47.19286	-55.32956	103.33609	-55.32956	-248.16935	-213.18154	19.52808	19.52808	61.83892	0
905	-6.50936	100.08141	106.59077	-47.19286	-57.77057	103.33609	-45.56552	-243.28733	-210.74053	17.08707	17.08707	56.9569	0
906	-8.95037	102.52242	111.47279	-47.19286	-60.21158	108.21811	-40.6835	-238.40531	-210.74053	9.76404	12.20505	49.63387	0
907	-13.83239	97.6404	111.47279	-42.31084	-62.65259	105.7771	-35.80148	-233.52329	-210.74053	2.44101	7.32303	44.75185	0
908	-17.08707	92.75838	109.03178	-37.42882	-62.65259	100.89508	-35.80148	-228.64127	-210.74053	-2.44101	2.44101	37.42882	0
909	-19.52808	87.87636	106.59077	-34.98781	-62.65259	96.01306	-35.80148	-228.64127	-213.18154	-7.32303	-2.44101	32.5468	0
910	-21.96909	85.43535	106.59077	-32.5468	-65.0936	96.01306	-35.80148	-228.64127	-213.18154	-9.76404	-4.88202	30.10579	0
911	-17.08707	90.31737	106.59077	-37.42882	-62.65259	98.45407	-40.6835	-228.64127	-210.74053	-12.20505	-7.32303	27.66478	0
912	-17.08707	90.31737	106.59077	-37.42882	-62.65259	98.45407	-43.12451	-231.08228	-208.29952	-14.64606	-9.76404	27.66478	0
913	-21.96909	87.87636	109.03178	-32.5468	-65.0936	98.45407	-48.00653	-233.52329	-203.4175	-17.08707	-12.20505	27.66478	0
914	-29.29212	85.43535	113.9138	-27.66478	-72.41663	98.45407	-48.00653	-233.52329	-200.97649	-19.52808	-14.64606	27.66478	0
915	-34.17414	87.87636	121.23683	-27.66478	-77.29865	103.33609	-45.56552	-231.08228	-198.53548	-17.08707	-12.20505	27.66478	0
916	-39.05616	87.87636	126.11885	-25.22377	-82.18067	105.7771	-43.12451	-226.20026	-196.09447	-17.08707	-9.76404	27.66478	0
917	-43.93818	87.87636	131.00087	-22.78276	-87.06269	108.21811	-40.6835	-221.31824	-196.09447	-17.08707	-12.20505	27.66478	0
918	-43.93818	82.99434	126.11885	-20.34175	-84.62168	103.33609	-40.6835	-213.99521	-196.09447	-19.52808	-12.20505	22.78276	0
919	-41.49717	87.87636	128.55986	-22.78276	-84.62168	108.21811	-40.6835	-211.5542	-196.09447	-17.08707	-12.20505	22.78276	0
920	-34.17414	95.19939	128.55986	-30.10579	-82.18067	110.65912	-40.6835	-209.11319	-196.09447	-17.08707	-9.76404	22.78276	0
921	-24.4101	100.08141	123.67784	-37.42882	-74.85764	110.65912	-45.56552	-209.11319	-196.09447	-17.08707	-9.76404	22.78276	0
922	-24.4101	100.08141	123.67784	-37.42882	-74.85764	110.65912	-50.44754	-213.99521	-196.09447	-19.52808	-14.64606	22.78276	0
923	-26.85111	100.08141	126.11885	-37.42882	-77.29865	113.10013	-52.88855	-213.99521	-193.65346	-19.52808	-14.64606	22.78276	0
924	-31.73313	100.08141	131.00087	-34.98781	-82.18067	115.54114	-55.32956	-211.5542	-193.65346	-21.96909	-14.64606	22.78276	0
925	-41.49717	100.08141	140.76491	-30.10579	-91.94471	120.42316	-55.32956	-213.99521	-193.65346	-21.96909	-17.08707	22.78276	0
926	-48.8202	97.6404	145.64693	-25.22377	-96.82673	120.42316	-55.32956	-213.99521	-193.65346	-21.96909	-17.08707	22.78276	0
927	-58.58424	92.75838	150.52895	-17.90074	-104.14976	120.42316	-55.32956	-213.99521	-196.09447	-24.4101	-19.52808	20.34175	0
928	-70.78929	87.87636	157.85198	-8.1367	-113.9138	122.86417	-52.88855	-211.5542	-193.65346	-21.96909	-19.52808	20.34175	0
929	-68.34828	92.75838	160.29299	-13.01872	-113.9138	125.30518	-50.44754	-211.5542	-193.65346	-21.96909	-17.08707	20.34175	0
930	-61.02525	100.08141	160.29299	-20.34175	-111.47279	130.1872	-52.88855	-213.99521	-193.65346	-19.52808	-14.64606	22.78276	0
931	-56.14323	109.84545	165.17501	-27.66478	-111.47279	137.51023	-55.32956	-213.99521	-188.77144	-17.08707	-9.76404	27.66478	0
932	-53.70222	117.16848	170.05703	-32.5468	-111.47279	142.39225	-55.32956	-213.99521	-183.88942	-17.08707	-9.76404	27.66478	0
933	-48.8202	122.0505	170.05703	-37.42882	-109.03178	144.83326	-57.77057	-213.99521	-181.44841	-17.08707	-9.76404	27.66478	0
934	-41.49717	126.93252	167.61602	-42.31084	-104.14976	147.27427	-60.21158	-216.43622	-181.44841	-19.52808	-9.76404	27.66478	0
935	-46.37919	129.37353	174.93905	-42.31084	-111.47279	152.15629	-60.21158	-218.87723	-183.88942	-19.52808	-9.76404	25.22377	0
936	-58.58424	129.37353	187.1441	-34.98781	-123.67784	157.03831	-57.77057	-221.31824	-183.88942	-21.96909	-9.76404	25.22377	0
937	-68.34828	124.49151	192.02612	-27.66478	-131.00087	157.03831	-55.32956	-221.31824	-186.33043	-21.96909	-7.32303	22.78276	0
938	-68.34828	126.93252	194.46713	-30.10579	-131.00087	159.47932	-50.44754	-216.43622	-183.88942	-17.08707	-2.44101	27.66478	0
939	-68.34828	131.81454	199.34915	-32.5468	-133.44188	164.36134	-50.44754	-216.43622	-181.44841	-14.64606	4.88202	32.5468	0
940	-68.34828	139.13757	206.67218	-34.98781	-138.3239	171.68437	-48.00653	-216.43622	-179.0074	-9.76404	12.20505	39.86983	0
941	-61.02525	151.34262	211.5542	-44.75185	-135.88289	181.44841	-50.44754	-213.99521	-176.56639	-7.32303	17.08707	44.75185	0
942	-51.26121	161.10666	211.5542	-54.51589	-131.00087	186.33043	-52.88855	-213.99521	-174.12538	-7.32303	21.96909	49.63387	0
943	-51.26121	165.98868	216.43622	-56.9569	-133.44188	191.21245	-55.32956	-209.11319	-169.24336	-4.88202	26.85111	52.07488	0
944	-58.58424	165.98868	223.75925	-54.51589	-140.76491	193.65346	-57.77057	-209.11319	-169.24336	-7.32303	26.85111	52.07488	0
945	-65.90727	161.10666	226.20026	-47.19286	-145.64693	193.65346	-60.21158	-211.5542	-171.68437	-9.76404	21.96909	49.63387	0
946	-75.67131	158.66565	233.52329	-42.31084	-155.41097	196.09447	-60.21158	-213.99521	-171.68437	-14.64606	21.96909	47.19286	0
947	-87.87636	158.66565	245.72834	-34.98781	-167.61602	200.97649	-57.77057	-213.99521	-171.68437	-14.64606	21.96909	47.19286	0
948	-90.31737	161.10666	250.61036	-34.98781	-170.05703	205.85851	-55.32956	-206.67218	-166.80235	-12.20505	24.4101	49.63387	0
949	-82.99434	165.98868	248.16935	-42.31084	-165.17501	205.85851	-57.77057	-206.67218	-169.24336	-12.20505	24.4101	49.63387	0
950	-75.67131	170.8707	245.72834	-47.19286	-160.29299	208.29952	-65.0936	-211.5542	-171.68437	-12.20505	24.4101	49.63387	0
