samplenr	I	II	III	aVR	aVL	aVF	V1	V2	V3	V4	V5	V6	measurement
0	35.80148	-88.69003	-125.30518	26.03744	78.92599	-105.7771	21.96909	105.7771	26.85111	39.86983	-53.70222	-59.39791	0
1	38.24249	-88.69003	-127.74619	23.59643	81.367	-108.21811	21.96909	105.7771	24.4101	37.42882	-56.14323	-59.39791	0
2	38.24249	-86.24902	-125.30518	23.59643	81.367	-105.7771	24.4101	103.33609	24.4101	37.42882	-56.14323	-56.9569	0
3	35.80148	-88.69003	-125.30518	26.03744	78.92599	-105.7771	21.96909	100.89508	21.96909	39.86983	-56.14323	-54.51589	0
4	35.80148	-88.69003	-125.30518	26.03744	78.92599	-105.7771	21.96909	96.01306	24.4101	47.19286	-51.26121	-52.07488	0
5	35.80148	-88.69003	-125.30518	26.03744	78.92599	-105.7771	17.08707	93.57205	26.85111	52.07488	-46.37919	-47.19286	0
6	30.91946	-93.57205	-125.30518	30.91946	76.48498	-108.21811	17.08707	93.57205	30.10579	56.9569	-41.49717	-44.75185	0
7	28.47845	-93.57205	-122.86417	30.91946	74.04397	-108.21811	19.52808	93.57205	32.5468	56.9569	-36.61515	-39.86983	0
8	28.47845	-96.01306	-125.30518	33.36047	76.48498	-110.65912	19.52808	98.45407	34.98781	56.9569	-31.73313	-34.98781	0
9	28.47845	-93.57205	-122.86417	30.91946	74.04397	-108.21811	19.52808	98.45407	39.86983	56.9569	-26.85111	-32.5468	0
10	28.47845	-96.01306	-125.30518	33.36047	76.48498	-110.65912	21.96909	98.45407	42.31084	61.83892	-24.4101	-27.66478	0
11	26.03744	-98.45407	-125.30518	35.80148	74.04397	-110.65912	21.96909	98.45407	42.31084	61.83892	-24.4101	-27.66478	0
12	23.59643	-98.45407	-122.86417	35.80148	71.60296	-110.65912	24.4101	96.01306	42.31084	61.83892	-24.4101	-27.66478	0
13	26.03744	-96.01306	-122.86417	33.36047	74.04397	-108.21811	24.4101	93.57205	39.86983	66.72094	-21.96909	-27.66478	0
14	30.91946	-96.01306	-127.74619	30.91946	78.92599	-110.65912	24.4101	91.13104	39.86983	69.16195	-19.52808	-30.10579	0
15	30.91946	-93.57205	-125.30518	30.91946	76.48498	-108.21811	24.4101	88.69003	39.86983	71.60296	-17.08707	-30.10579	0
16	30.91946	-91.13104	-122.86417	28.47845	76.48498	-105.7771	21.96909	88.69003	39.86983	71.60296	-14.64606	-34.98781	0
17	30.91946	-91.13104	-122.86417	28.47845	76.48498	-105.7771	21.96909	91.13104	37.42882	66.72094	-14.64606	-34.98781	0
18	35.80148	-88.69003	-125.30518	26.03744	78.92599	-105.7771	24.4101	96.01306	37.42882	64.27993	-14.64606	-34.98781	0
19	38.24249	-86.24902	-125.30518	23.59643	81.367	-105.7771	26.85111	96.01306	37.42882	61.83892	-17.08707	-32.5468	0
20	33.36047	-88.69003	-122.86417	26.03744	76.48498	-105.7771	26.85111	93.57205	37.42882	59.39791	-19.52808	-30.10579	0
21	30.91946	-91.13104	-122.86417	28.47845	76.48498	-105.7771	29.29212	96.01306	37.42882	61.83892	-21.96909	-27.66478	0
22	30.91946	-93.57205	-125.30518	30.91946	76.48498	-108.21811	34.17414	96.01306	37.42882	64.27993	-21.96909	-25.22377	0
23	30.91946	-96.01306	-127.74619	30.91946	78.92599	-110.65912	36.61515	96.01306	39.86983	66.72094	-24.4101	-25.22377	0
24	28.47845	-96.01306	-125.30518	33.36047	76.48498	-110.65912	36.61515	93.57205	39.86983	71.60296	-21.96909	-25.22377	0
25	30.91946	-96.01306	-127.74619	30.91946	78.92599	-110.65912	34.17414	93.57205	47.19286	74.04397	-17.08707	-22.78276	0
26	30.91946	-93.57205	-125.30518	30.91946	76.48498	-108.21811	34.17414	98.45407	49.63387	76.48498	-14.64606	-20.34175	0
27	30.91946	-91.13104	-122.86417	28.47845	76.48498	-105.7771	34.17414	100.89508	49.63387	74.04397	-12.20505	-20.34175	0
28	30.91946	-86.24902	-117.98215	26.03744	74.04397	-100.89508	34.17414	103.33609	49.63387	74.04397	-9.76404	-17.90074	0
29	30.91946	-81.367	-113.10013	23.59643	71.60296	-96.01306	34.17414	103.33609	52.07488	74.04397	-7.32303	-13.01872	0
30	33.36047	-76.48498	-110.65912	21.15542	71.60296	-93.57205	36.61515	103.33609	56.9569	74.04397	-7.32303	-5.69569	0
31	35.80148	-69.16195	-105.7771	16.2734	69.16195	-86.24902	39.05616	105.7771	59.39791	78.92599	-4.06835	-3.25468	0
32	38.24249	-61.83892	-100.89508	11.39138	69.16195	-81.367	41.49717	105.7771	59.39791	78.92599	-1.62734	0	0
33	38.24249	-54.51589	-93.57205	6.50936	64.27993	-74.04397	41.49717	108.21811	64.27993	81.367	0.81367	2.44101	0
34	38.24249	-47.19286	-86.24902	4.06835	61.83892	-66.72094	41.49717	108.21811	64.27993	86.24902	3.25468	4.88202	0
35	38.24249	-42.31084	-81.367	0.81367	59.39791	-61.83892	43.93818	105.7771	69.16195	88.69003	8.1367	4.88202	0
36	38.24249	-34.98781	-74.04397	-1.62734	54.51589	-54.51589	43.93818	108.21811	71.60296	93.57205	13.01872	7.32303	0
37	40.6835	-30.10579	-71.60296	-6.50936	54.51589	-49.63387	43.93818	113.10013	71.60296	93.57205	15.45973	9.76404	0
38	40.6835	-22.78276	-64.27993	-8.95037	52.07488	-42.31084	46.37919	117.98215	71.60296	91.13104	17.90074	12.20505	0
39	40.6835	-20.34175	-61.83892	-11.39138	49.63387	-39.86983	46.37919	117.98215	74.04397	88.69003	17.90074	12.20505	0
40	40.6835	-20.34175	-61.83892	-11.39138	49.63387	-39.86983	48.8202	117.98215	78.92599	91.13104	17.90074	17.08707	0
41	43.12451	-17.90074	-61.83892	-13.83239	52.07488	-39.86983	51.26121	120.42316	83.80801	96.01306	20.34175	24.4101	0
42	48.00653	-15.45973	-64.27993	-16.2734	54.51589	-39.86983	56.14323	125.30518	88.69003	98.45407	22.78276	29.29212	0
43	55.32956	-15.45973	-71.60296	-21.15542	61.83892	-42.31084	53.70222	127.74619	91.13104	100.89508	25.22377	31.73313	0
44	60.21158	-15.45973	-76.48498	-23.59643	66.72094	-44.75185	51.26121	130.1872	96.01306	105.7771	34.98781	36.61515	0
45	67.53461	-17.90074	-86.24902	-26.03744	76.48498	-52.07488	51.26121	130.1872	100.89508	113.10013	42.31084	41.49717	0
46	74.85764	-20.34175	-96.01306	-28.47845	83.80801	-56.9569	48.8202	135.06922	105.7771	115.54114	49.63387	48.8202	0
47	79.73966	-22.78276	-103.33609	-28.47845	91.13104	-61.83892	46.37919	142.39225	105.7771	113.10013	52.07488	51.26121	0
48	79.73966	-27.66478	-108.21811	-26.03744	93.57205	-66.72094	39.05616	144.83326	108.21811	113.10013	54.51589	53.70222	0
49	79.73966	-30.10579	-110.65912	-26.03744	93.57205	-69.16195	34.17414	144.83326	110.65912	113.10013	56.9569	56.14323	0
50	84.62168	-25.22377	-110.65912	-30.91946	96.01306	-66.72094	31.73313	147.27427	117.98215	117.98215	59.39791	58.58424	0
51	87.06269	-20.34175	-108.21811	-33.36047	96.01306	-64.27993	29.29212	149.71528	125.30518	125.30518	59.39791	63.46626	0
52	89.5037	-17.90074	-108.21811	-35.80148	98.45407	-61.83892	24.4101	149.71528	130.1872	132.62821	64.27993	65.90727	0
53	89.5037	-13.01872	-103.33609	-38.24249	96.01306	-56.9569	14.64606	149.71528	132.62821	139.95124	69.16195	68.34828	0
54	94.38572	-5.69569	-100.89508	-45.56552	96.01306	-52.07488	9.76404	147.27427	137.51023	149.71528	76.48498	73.2303	0
55	94.38572	0	-96.01306	-48.00653	96.01306	-47.19286	4.06835	142.39225	137.51023	152.15629	81.367	73.2303	0
56	89.5037	0	-91.13104	-45.56552	91.13104	-44.75185	-0.81367	135.06922	132.62821	149.71528	81.367	70.78929	0
57	87.06269	-3.25468	-91.13104	-43.12451	88.69003	-47.19286	-8.1367	127.74619	120.42316	142.39225	81.367	68.34828	0
58	84.62168	-8.1367	-93.57205	-38.24249	88.69003	-49.63387	-10.57771	120.42316	113.10013	135.06922	78.92599	65.90727	0
59	82.18067	-13.01872	-96.01306	-35.80148	88.69003	-54.51589	-10.57771	113.10013	105.7771	125.30518	76.48498	65.90727	0
60	82.18067	-20.34175	-103.33609	-30.91946	91.13104	-61.83892	-8.1367	103.33609	98.45407	117.98215	71.60296	63.46626	0
61	82.18067	-27.66478	-110.65912	-28.47845	96.01306	-69.16195	-5.69569	96.01306	91.13104	113.10013	64.27993	61.02525	0
62	84.62168	-34.98781	-120.42316	-26.03744	100.89508	-76.48498	-3.25468	91.13104	86.24902	108.21811	59.39791	61.02525	0
63	87.06269	-39.86983	-127.74619	-23.59643	105.7771	-83.80801	-3.25468	88.69003	83.80801	103.33609	54.51589	58.58424	0
64	84.62168	-42.31084	-127.74619	-21.15542	105.7771	-83.80801	-3.25468	83.80801	81.367	103.33609	52.07488	58.58424	0
65	84.62168	-42.31084	-127.74619	-21.15542	105.7771	-83.80801	-0.81367	81.367	81.367	100.89508	52.07488	58.58424	0
66	82.18067	-42.31084	-125.30518	-21.15542	103.33609	-83.80801	1.62734	83.80801	81.367	98.45407	49.63387	56.14323	0
67	77.29865	-44.75185	-122.86417	-16.2734	98.45407	-83.80801	6.50936	88.69003	81.367	91.13104	49.63387	56.14323	0
68	74.85764	-44.75185	-120.42316	-16.2734	96.01306	-81.367	9.76404	93.57205	81.367	91.13104	49.63387	58.58424	0
69	69.97562	-42.31084	-113.10013	-13.83239	91.13104	-76.48498	12.20505	93.57205	81.367	91.13104	52.07488	63.46626	0
70	65.0936	-42.31084	-108.21811	-11.39138	86.24902	-74.04397	17.08707	91.13104	81.367	91.13104	52.07488	65.90727	0
71	57.77057	-44.75185	-103.33609	-6.50936	78.92599	-74.04397	19.52808	88.69003	78.92599	91.13104	47.19286	65.90727	0
72	48.00653	-49.63387	-98.45407	0.81367	71.60296	-74.04397	21.96909	83.80801	71.60296	88.69003	42.31084	63.46626	0
73	38.24249	-52.07488	-91.13104	6.50936	64.27993	-71.60296	21.96909	76.48498	66.72094	88.69003	39.86983	58.58424	0
74	30.91946	-56.9569	-88.69003	11.39138	59.39791	-71.60296	21.96909	69.16195	61.83892	88.69003	37.42882	51.26121	0
75	21.15542	-64.27993	-86.24902	21.15542	52.07488	-74.04397	19.52808	64.27993	59.39791	83.80801	32.5468	43.93818	0
76	11.39138	-69.16195	-81.367	28.47845	44.75185	-74.04397	19.52808	61.83892	54.51589	78.92599	27.66478	34.17414	0
77	4.06835	-71.60296	-76.48498	33.36047	39.86983	-74.04397	19.52808	59.39791	49.63387	69.16195	20.34175	26.85111	0
78	1.62734	-71.60296	-74.04397	33.36047	37.42882	-71.60296	21.96909	61.83892	44.75185	61.83892	15.45973	24.4101	0
79	-1.62734	-71.60296	-71.60296	35.80148	34.98781	-71.60296	24.4101	59.39791	42.31084	52.07488	10.57771	24.4101	0
80	-1.62734	-71.60296	-71.60296	35.80148	34.98781	-71.60296	24.4101	54.51589	42.31084	47.19286	5.69569	24.4101	0
81	-1.62734	-71.60296	-71.60296	35.80148	34.98781	-71.60296	26.85111	54.51589	37.42882	44.75185	0.81367	26.85111	0
82	-1.62734	-71.60296	-71.60296	35.80148	34.98781	-71.60296	29.29212	51.26121	34.98781	42.31084	-1.62734	29.29212	0
83	1.62734	-71.60296	-74.04397	33.36047	37.42882	-71.60296	26.85111	51.26121	34.98781	47.19286	0.81367	31.73313	0
84	1.62734	-74.04397	-76.48498	35.80148	37.42882	-74.04397	24.4101	51.26121	37.42882	52.07488	5.69569	34.17414	0
85	1.62734	-74.04397	-76.48498	35.80148	37.42882	-74.04397	19.52808	48.8202	39.86983	56.9569	13.01872	34.17414	0
86	1.62734	-74.04397	-76.48498	35.80148	37.42882	-74.04397	19.52808	51.26121	42.31084	59.39791	17.90074	34.17414	0
87	-1.62734	-74.04397	-74.04397	35.80148	34.98781	-74.04397	19.52808	51.26121	42.31084	59.39791	22.78276	36.61515	0
88	-1.62734	-71.60296	-71.60296	35.80148	34.98781	-71.60296	19.52808	54.51589	42.31084	59.39791	25.22377	39.05616	0
89	-1.62734	-66.72094	-66.72094	33.36047	32.5468	-66.72094	19.52808	51.26121	44.75185	59.39791	25.22377	39.05616	0
90	-1.62734	-64.27993	-64.27993	30.91946	30.10579	-64.27993	24.4101	51.26121	49.63387	59.39791	25.22377	39.05616	0
91	-1.62734	-64.27993	-64.27993	30.91946	30.10579	-64.27993	29.29212	54.51589	49.63387	59.39791	22.78276	41.49717	0
92	-1.62734	-66.72094	-66.72094	33.36047	32.5468	-66.72094	36.61515	54.51589	49.63387	59.39791	22.78276	41.49717	0
93	-6.50936	-69.16195	-64.27993	35.80148	27.66478	-66.72094	36.61515	54.51589	49.63387	59.39791	22.78276	41.49717	0
94	-4.06835	-69.16195	-66.72094	35.80148	30.10579	-69.16195	34.17414	54.51589	49.63387	61.83892	27.66478	41.49717	0
95	-8.95037	-71.60296	-64.27993	38.24249	27.66478	-69.16195	31.73313	51.26121	49.63387	64.27993	30.10579	43.93818	0
96	-13.83239	-76.48498	-64.27993	43.12451	25.22377	-71.60296	31.73313	51.26121	52.07488	66.72094	34.98781	43.93818	0
97	-16.2734	-76.48498	-61.83892	45.56552	22.78276	-69.16195	31.73313	51.26121	49.63387	64.27993	39.86983	46.37919	0
98	-11.39138	-69.16195	-59.39791	38.24249	22.78276	-64.27993	31.73313	59.39791	52.07488	64.27993	39.86983	51.26121	0
99	-6.50936	-64.27993	-59.39791	33.36047	25.22377	-61.83892	31.73313	59.39791	54.51589	61.83892	42.31084	56.14323	0
100	-4.06835	-56.9569	-54.51589	28.47845	25.22377	-56.9569	36.61515	59.39791	54.51589	59.39791	42.31084	58.58424	1000	P+0
101	-4.06835	-54.51589	-52.07488	28.47845	22.78276	-54.51589	39.05616	59.39791	56.9569	61.83892	42.31084	63.46626	0
102	-1.62734	-49.63387	-49.63387	23.59643	22.78276	-49.63387	41.49717	59.39791	59.39791	66.72094	42.31084	65.90727	0
103	-1.62734	-47.19286	-47.19286	23.59643	22.78276	-47.19286	41.49717	59.39791	61.83892	69.16195	44.75185	65.90727	0
104	-1.62734	-49.63387	-49.63387	23.59643	22.78276	-49.63387	39.05616	56.9569	64.27993	74.04397	47.19286	65.90727	0
105	-6.50936	-52.07488	-47.19286	28.47845	20.34175	-49.63387	36.61515	54.51589	66.72094	78.92599	49.63387	58.58424	0
106	-6.50936	-52.07488	-47.19286	28.47845	20.34175	-49.63387	36.61515	54.51589	66.72094	81.367	52.07488	56.14323	0
107	-6.50936	-52.07488	-47.19286	28.47845	20.34175	-49.63387	36.61515	59.39791	66.72094	78.92599	54.51589	56.14323	0
108	-6.50936	-52.07488	-47.19286	28.47845	20.34175	-49.63387	39.05616	61.83892	66.72094	78.92599	54.51589	56.14323	0
109	-6.50936	-52.07488	-47.19286	28.47845	20.34175	-49.63387	39.05616	61.83892	66.72094	71.60296	54.51589	56.14323	0
110	-6.50936	-52.07488	-47.19286	28.47845	20.34175	-49.63387	43.93818	61.83892	64.27993	69.16195	54.51589	56.14323	0
111	-8.95037	-52.07488	-44.75185	28.47845	17.90074	-49.63387	46.37919	61.83892	66.72094	69.16195	54.51589	58.58424	0
112	-11.39138	-49.63387	-39.86983	28.47845	13.01872	-44.75185	51.26121	64.27993	69.16195	71.60296	54.51589	58.58424	0
113	-13.83239	-49.63387	-37.42882	30.91946	10.57771	-44.75185	53.70222	71.60296	78.92599	81.367	54.51589	58.58424	0
114	-16.2734	-47.19286	-32.5468	30.91946	8.1367	-39.86983	58.58424	81.367	93.57205	96.01306	61.83892	61.02525	0
115	-16.2734	-44.75185	-30.10579	28.47845	5.69569	-37.42882	58.58424	91.13104	113.10013	110.65912	69.16195	61.02525	0
116	-13.83239	-39.86983	-27.66478	26.03744	5.69569	-34.98781	63.46626	110.65912	137.51023	135.06922	81.367	65.90727	0
117	-8.95037	-39.86983	-32.5468	23.59643	10.57771	-37.42882	65.90727	139.95124	176.56639	164.36134	100.89508	70.78929	0
118	-4.06835	-39.86983	-37.42882	21.15542	15.45973	-39.86983	70.78929	183.88942	232.70962	210.74053	127.74619	78.11232	0
119	6.50936	-32.5468	-39.86983	11.39138	22.78276	-34.98781	73.2303	235.15063	310.82194	274.20679	166.80235	92.75838	0
120	26.03744	-25.22377	-52.07488	-1.62734	37.42882	-37.42882	73.2303	301.0579	410.90335	369.40618	225.38659	117.16848	0
121	48.00653	-15.45973	-64.27993	-16.2734	54.51589	-39.86983	73.2303	379.17022	542.71789	501.22072	305.93992	156.22464	0
122	77.29865	2.44101	-76.48498	-40.6835	76.48498	-37.42882	68.34828	464.60557	701.38354	667.2094	413.34436	205.04484	0
123	113.9138	26.85111	-88.69003	-69.97562	100.89508	-30.10579	61.02525	550.04092	874.69525	857.60818	535.39486	268.5111	0
124	150.52895	58.58424	-93.57205	-104.14976	122.86417	-17.90074	43.93818	613.50718	1035.80191	1050.44797	669.65041	339.30039	0
125	187.1441	92.75838	-96.01306	-140.76491	142.39225	0	19.52808	628.15324	1143.20635	1189.58554	779.49586	407.64867	0
126	216.43622	126.93252	-91.13104	-172.49804	154.5973	19.52808	-8.1367	586.65607	1165.17544	1250.61079	847.84414	463.7919	0
127	240.84632	158.66565	-83.80801	-199.34915	161.92033	39.05616	-44.75185	481.69264	1096.82716	1221.31867	869.81323	502.84806	0
128	257.93339	187.95777	-71.60296	-223.75925	164.36134	58.58424	-100.89508	298.61689	918.63343	1094.38615	838.0801	522.37614	0
129	262.81541	207.48585	-56.9569	-235.9643	159.47932	75.67131	-169.24336	39.05616	630.59425	874.69525	752.64475	522.37614	0
130	245.72834	227.01393	-20.34175	-235.9643	132.62821	104.96343	-240.03265	-295.36221	240.03265	572.01001	620.83021	502.84806	0
131	216.43622	246.54201	29.29212	-231.08228	93.57205	139.13757	-315.70396	-676.15977	-209.92686	230.26861	459.72355	471.11493	0
132	179.82107	273.39312	92.75838	-226.20026	44.75185	183.07575	-393.81628	-1061.83935	-654.19068	-87.87636	310.82194	444.26382	0
133	138.3239	305.12625	165.98868	-221.31824	-14.64606	236.77797	-484.13365	-1430.43186	-1061.83935	-366.1515	176.56639	424.73574	0
134	96.82673	336.85938	239.21898	-216.43622	-70.78929	288.03918	-569.569	-1755.08619	-1415.7858	-600.48846	64.27993	407.64867	0
135	55.32956	361.26948	305.12625	-209.11319	-124.49151	334.41837	-630.59425	-2006.51022	-1686.73791	-790.88724	-31.73313	385.67958	0
136	18.71441	363.71049	344.18241	-192.02612	-163.54767	353.94645	-672.09142	-2157.85284	-1862.49063	-925.14279	-119.60949	344.18241	0
137	-11.39138	334.41837	344.18241	-162.734	-178.19373	339.30039	-681.85546	-2196.909	-1928.3979	-1010.57814	-200.16282	283.15716	0
138	-48.00653	285.59817	331.97736	-118.79582	-190.39878	307.56726	-662.32738	-2143.20678	-1903.9878	-1047.19329	-273.39312	209.92686	0
139	-91.94471	214.80888	305.12625	-62.65259	-197.72181	258.74706	-613.50718	-2026.0383	-1825.87548	-1061.83935	-344.18241	122.0505	0
140	-138.3239	136.69656	273.39312	0.81367	-205.04484	205.04484	-542.71789	-1867.37265	-1708.707	-1049.6343	-410.08968	26.85111	0
141	-177.38006	58.58424	234.33696	57.77057	-205.04484	146.4606	-457.28254	-1679.41488	-1564.68741	-1010.57814	-458.90988	-56.9569	0
142	-209.11319	-3.25468	205.04484	104.14976	-207.48585	100.08141	-371.84719	-1493.89812	-1413.34479	-954.43491	-483.31998	-120.42316	0
143	-233.52329	-37.42882	195.2808	133.44188	-214.80888	78.11232	-305.93992	-1327.90944	-1264.44318	-878.7636	-478.43796	-149.71528	0
144	-248.16935	-59.39791	187.95777	152.96996	-219.6909	63.46626	-252.2377	-1179.00783	-1125.30561	-790.88724	-449.14584	-154.5973	0
145	-240.84632	-64.27993	175.75272	150.52895	-209.92686	56.14323	-208.29952	-1042.31127	-991.05006	-700.56987	-400.32564	-142.39225	0
146	-218.87723	-56.9569	161.10666	135.88289	-190.39878	51.26121	-171.68437	-905.61471	-861.67653	-602.92947	-341.7414	-113.10013	0
147	-196.90814	-42.31084	153.78363	118.79582	-175.75272	56.14323	-139.95124	-778.68219	-737.18502	-512.6121	-280.71615	-78.92599	0
148	-179.82107	-25.22377	153.78363	101.70875	-168.42969	63.46626	-115.54114	-656.63169	-622.45755	-427.17675	-224.57292	-44.75185	0
149	-162.734	-5.69569	156.22464	82.18067	-161.10666	75.67131	-96.01306	-546.78624	-515.05311	-351.50544	-173.31171	-15.45973	0
150	-140.76491	14.64606	153.78363	62.65259	-146.4606	82.99434	-74.04397	-444.26382	-414.9717	-278.27514	-124.49151	12.20505	0
151	-121.23683	36.61515	156.22464	40.6835	-139.13757	95.19939	-56.9569	-353.94645	-329.53635	-214.80888	-85.43535	36.61515	0
152	-106.59077	56.14323	161.10666	23.59643	-134.25555	107.40444	-39.86983	-278.27514	-253.86504	-161.10666	-51.26121	53.70222	0
153	-94.38572	65.90727	158.66565	13.83239	-126.93252	112.28646	-25.22377	-214.80888	-190.39878	-114.72747	-21.96909	68.34828	0
154	-84.62168	65.90727	148.90161	8.95037	-117.16848	107.40444	-10.57771	-158.66565	-136.69656	-75.67131	-1.62734	75.67131	0
155	-77.29865	63.46626	139.13757	6.50936	-107.40444	100.08141	6.50936	-107.40444	-87.87636	-41.49717	17.90074	80.55333	0
156	-72.41663	56.14323	126.93252	6.50936	-100.08141	90.31737	24.4101	-63.46626	-48.8202	-12.20505	32.5468	85.43535	0
157	-67.53461	51.26121	117.16848	6.50936	-92.75838	82.99434	36.61515	-26.85111	-17.08707	2.44101	44.75185	90.31737	0
158	-65.0936	48.8202	112.28646	6.50936	-87.87636	80.55333	43.93818	2.44101	4.88202	15.45973	54.51589	92.75838	0
159	-62.65259	48.8202	109.84545	6.50936	-85.43535	78.11232	48.8202	19.52808	21.96909	25.22377	64.27993	97.6404	0
160	-62.65259	48.8202	109.84545	6.50936	-85.43535	78.11232	53.70222	29.29212	32.5468	32.5468	71.60296	102.52242	0
161	-60.21158	51.26121	109.84545	4.06835	-85.43535	80.55333	56.14323	36.61515	37.42882	37.42882	76.48498	107.40444	0
162	-60.21158	56.14323	114.72747	0.81367	-87.87636	85.43535	58.58424	41.49717	42.31084	39.86983	81.367	107.40444	0
163	-57.77057	61.02525	117.16848	-1.62734	-87.87636	87.87636	58.58424	46.37919	47.19286	42.31084	86.24902	109.84545	0
164	-57.77057	61.02525	117.16848	-1.62734	-87.87636	87.87636	56.14323	48.8202	52.07488	47.19286	88.69003	112.28646	0
165	-57.77057	61.02525	117.16848	-1.62734	-87.87636	87.87636	56.14323	51.26121	59.39791	49.63387	91.13104	112.28646	0
166	-57.77057	61.02525	117.16848	-1.62734	-87.87636	87.87636	56.14323	56.9569	64.27993	52.07488	91.13104	112.28646	0
167	-57.77057	58.58424	114.72747	-1.62734	-85.43535	85.43535	58.58424	66.72094	66.72094	52.07488	91.13104	114.72747	0
168	-57.77057	58.58424	114.72747	-1.62734	-85.43535	85.43535	61.02525	74.04397	71.60296	52.07488	91.13104	117.16848	0
169	-57.77057	61.02525	117.16848	-1.62734	-87.87636	87.87636	61.02525	76.48498	74.04397	52.07488	91.13104	119.60949	0
170	-57.77057	61.02525	117.16848	-1.62734	-87.87636	87.87636	63.46626	76.48498	76.48498	52.07488	93.57205	122.0505	0
171	-57.77057	63.46626	119.60949	-4.06835	-87.87636	90.31737	63.46626	76.48498	76.48498	52.07488	96.01306	124.49151	0
172	-57.77057	65.90727	122.0505	-4.06835	-90.31737	92.75838	65.90727	76.48498	76.48498	52.07488	100.89508	124.49151	0
173	-60.21158	68.34828	126.93252	-4.06835	-92.75838	97.6404	63.46626	74.04397	76.48498	52.07488	103.33609	124.49151	0
174	-60.21158	68.34828	126.93252	-4.06835	-92.75838	97.6404	61.02525	71.60296	76.48498	54.51589	103.33609	122.0505	0
175	-62.65259	65.90727	126.93252	-1.62734	-95.19939	95.19939	58.58424	69.16195	78.92599	54.51589	105.7771	122.0505	0
176	-62.65259	65.90727	126.93252	-1.62734	-95.19939	95.19939	56.14323	71.60296	78.92599	59.39791	105.7771	122.0505	0
177	-62.65259	65.90727	126.93252	-1.62734	-95.19939	95.19939	56.14323	76.48498	78.92599	59.39791	108.21811	124.49151	0
178	-62.65259	70.78929	131.81454	-4.06835	-97.6404	100.08141	56.14323	78.92599	78.92599	59.39791	108.21811	129.37353	0
179	-62.65259	73.2303	134.25555	-6.50936	-97.6404	102.52242	53.70222	78.92599	78.92599	56.9569	108.21811	131.81454	0
180	-62.65259	73.2303	134.25555	-6.50936	-97.6404	102.52242	53.70222	76.48498	78.92599	54.51589	110.65912	134.25555	0
181	-65.0936	73.2303	136.69656	-4.06835	-100.08141	104.96343	53.70222	74.04397	78.92599	54.51589	113.10013	136.69656	0
182	-67.53461	75.67131	141.57858	-4.06835	-104.96343	107.40444	53.70222	71.60296	78.92599	56.9569	117.98215	139.13757	0
183	-72.41663	73.2303	144.01959	-1.62734	-107.40444	107.40444	51.26121	66.72094	76.48498	56.9569	120.42316	139.13757	0
184	-74.85764	73.2303	146.4606	0.81367	-109.84545	109.84545	48.8202	64.27993	76.48498	56.9569	120.42316	139.13757	0
185	-72.41663	78.11232	148.90161	-4.06835	-109.84545	112.28646	46.37919	61.83892	76.48498	61.83892	120.42316	139.13757	0
186	-69.97562	82.99434	151.34262	-6.50936	-109.84545	117.16848	43.93818	64.27993	78.92599	61.83892	120.42316	139.13757	0
187	-67.53461	87.87636	153.78363	-11.39138	-109.84545	119.60949	43.93818	66.72094	76.48498	59.39791	120.42316	139.13757	0
188	-67.53461	92.75838	158.66565	-13.83239	-112.28646	124.49151	46.37919	69.16195	74.04397	54.51589	117.98215	141.57858	0
189	-67.53461	100.08141	165.98868	-16.2734	-117.16848	131.81454	46.37919	69.16195	74.04397	52.07488	117.98215	144.01959	0
190	-65.0936	107.40444	170.8707	-21.15542	-117.16848	139.13757	48.8202	66.72094	74.04397	49.63387	117.98215	146.4606	0
191	-65.0936	112.28646	175.75272	-23.59643	-119.60949	144.01959	48.8202	64.27993	71.60296	47.19286	117.98215	148.90161	0
192	-69.97562	109.84545	178.19373	-21.15542	-124.49151	144.01959	48.8202	59.39791	66.72094	42.31084	117.98215	148.90161	0
193	-74.85764	109.84545	183.07575	-18.71441	-129.37353	146.4606	46.37919	54.51589	64.27993	39.86983	120.42316	148.90161	0
194	-74.85764	112.28646	185.51676	-18.71441	-129.37353	148.90161	41.49717	51.26121	64.27993	39.86983	122.86417	151.34262	0
195	-72.41663	114.72747	185.51676	-21.15542	-129.37353	148.90161	39.05616	51.26121	64.27993	42.31084	125.30518	153.78363	0
196	-69.97562	117.16848	185.51676	-23.59643	-126.93252	151.34262	39.05616	51.26121	64.27993	44.75185	127.74619	156.22464	0
197	-67.53461	117.16848	183.07575	-26.03744	-124.49151	148.90161	39.05616	54.51589	61.83892	42.31084	130.1872	161.10666	0
198	-69.97562	119.60949	187.95777	-26.03744	-129.37353	153.78363	39.05616	59.39791	61.83892	44.75185	132.62821	165.98868	0
199	-69.97562	124.49151	192.83979	-28.47845	-131.81454	158.66565	41.49717	59.39791	61.83892	44.75185	137.51023	173.31171	0
200	-69.97562	129.37353	197.72181	-30.91946	-134.25555	163.54767	41.49717	56.9569	61.83892	47.19286	142.39225	178.19373	0
201	-69.97562	134.25555	202.60383	-33.36047	-136.69656	168.42969	43.93818	56.9569	61.83892	47.19286	147.27427	183.07575	0
202	-72.41663	136.69656	207.48585	-33.36047	-139.13757	170.8707	46.37919	54.51589	61.83892	49.63387	152.15629	185.51676	0
203	-72.41663	141.57858	212.36787	-35.80148	-141.57858	175.75272	46.37919	51.26121	61.83892	52.07488	154.5973	190.39878	0
204	-72.41663	146.4606	217.24989	-38.24249	-144.01959	180.63474	43.93818	51.26121	61.83892	54.51589	159.47932	190.39878	0
205	-74.85764	148.90161	222.13191	-38.24249	-148.90161	185.51676	41.49717	51.26121	61.83892	56.9569	159.47932	192.83979	0
206	-74.85764	151.34262	224.57292	-38.24249	-148.90161	187.95777	41.49717	51.26121	61.83892	59.39791	159.47932	192.83979	0
207	-74.85764	156.22464	229.45494	-40.6835	-151.34262	192.83979	41.49717	51.26121	61.83892	56.9569	157.03831	195.2808	0
208	-77.29865	163.54767	239.21898	-43.12451	-158.66565	200.16282	41.49717	56.9569	61.83892	56.9569	157.03831	197.72181	0
209	-79.73966	168.42969	246.54201	-45.56552	-163.54767	207.48585	41.49717	56.9569	61.83892	54.51589	157.03831	200.16282	0
210	-82.18067	178.19373	258.74706	-48.00653	-170.8707	217.24989	43.93818	54.51589	61.83892	54.51589	159.47932	205.04484	0
211	-82.18067	190.39878	270.95211	-55.32956	-175.75272	229.45494	43.93818	54.51589	61.83892	52.07488	161.92033	207.48585	0
212	-79.73966	200.16282	278.27514	-60.21158	-178.19373	239.21898	48.8202	54.51589	61.83892	54.51589	169.24336	212.36787	0
213	-79.73966	207.48585	285.59817	-65.0936	-183.07575	246.54201	48.8202	54.51589	61.83892	56.9569	174.12538	217.24989	0
214	-82.18067	214.80888	295.36221	-67.53461	-187.95777	253.86504	46.37919	54.51589	61.83892	61.83892	179.0074	219.6909	0
215	-79.73966	219.6909	297.80322	-69.97562	-187.95777	258.74706	43.93818	51.26121	61.83892	66.72094	179.0074	222.13191	0
216	-79.73966	224.57292	302.68524	-72.41663	-190.39878	263.62908	43.93818	56.9569	61.83892	69.16195	181.44841	224.57292	0
217	-82.18067	231.89595	312.44928	-74.85764	-197.72181	270.95211	43.93818	61.83892	64.27993	71.60296	183.88942	229.45494	0
218	-84.62168	239.21898	322.21332	-77.29865	-202.60383	280.71615	43.93818	69.16195	64.27993	74.04397	186.33043	231.89595	0
219	-87.06269	248.98302	334.41837	-82.18067	-209.92686	290.48019	43.93818	69.16195	66.72094	74.04397	186.33043	234.33696	0
220	-87.06269	258.74706	344.18241	-87.06269	-214.80888	300.24423	48.8202	74.04397	71.60296	74.04397	191.21245	239.21898	0
221	-84.62168	273.39312	356.38746	-94.38572	-219.6909	314.89029	53.70222	76.48498	74.04397	78.92599	196.09447	241.65999	0
222	-87.06269	283.15716	368.59251	-99.26774	-227.01393	324.65433	58.58424	78.92599	76.48498	81.367	203.4175	244.101	0
223	-89.5037	292.9212	380.79756	-101.70875	-234.33696	336.85938	61.02525	81.367	81.367	86.24902	205.85851	244.101	0
224	-91.94471	297.80322	388.12059	-104.14976	-239.21898	341.7414	61.02525	81.367	83.80801	91.13104	208.29952	246.54201	0
225	-96.82673	300.24423	395.44362	-101.70875	-246.54201	346.62342	63.46626	83.80801	86.24902	96.01306	210.74053	246.54201	0
226	-99.26774	307.56726	405.20766	-104.14976	-251.42403	356.38746	65.90727	91.13104	91.13104	103.33609	213.18154	251.42403	0
227	-99.26774	314.89029	412.53069	-109.03178	-256.30605	363.71049	70.78929	100.89508	96.01306	105.7771	215.62255	256.30605	0
228	-99.26774	324.65433	422.29473	-113.9138	-261.18807	373.47453	75.67131	113.10013	103.33609	110.65912	215.62255	263.62908	0
229	-99.26774	334.41837	432.05877	-118.79582	-266.07009	383.23857	78.11232	117.98215	108.21811	113.10013	220.50457	268.5111	0
230	-96.82673	346.62342	441.82281	-126.11885	-268.5111	393.00261	85.43535	127.74619	115.54114	117.98215	227.8276	275.83413	0
231	-89.5037	363.71049	451.58685	-138.3239	-270.95211	407.64867	92.75838	135.06922	122.86417	127.74619	237.59164	283.15716	0
232	-87.06269	375.91554	461.35089	-145.64693	-273.39312	417.41271	97.6404	139.95124	130.1872	135.06922	247.35568	288.03918	0
233	-87.06269	383.23857	468.67392	-148.08794	-278.27514	424.73574	100.08141	144.83326	137.51023	142.39225	254.67871	290.48019	0
234	-87.06269	385.67958	471.11493	-150.52895	-278.27514	427.17675	100.08141	147.27427	142.39225	152.15629	259.56073	290.48019	0
235	-89.5037	390.5616	478.43796	-150.52895	-283.15716	434.49978	100.08141	152.15629	149.71528	159.47932	264.44275	292.9212	0
236	-89.5037	393.00261	480.87897	-152.96996	-285.59817	436.94079	102.52242	159.47932	154.5973	166.80235	266.88376	292.9212	0
237	-89.5037	397.88463	485.76099	-155.41097	-288.03918	441.82281	104.96343	169.24336	159.47932	169.24336	266.88376	295.36221	0
238	-89.5037	400.32564	488.202	-155.41097	-288.03918	444.26382	107.40444	179.0074	164.36134	171.68437	269.32477	300.24423	0
239	-87.06269	407.64867	493.08402	-160.29299	-290.48019	449.14584	107.40444	183.88942	169.24336	171.68437	269.32477	300.24423	0
240	-82.18067	414.9717	495.52503	-167.61602	-288.03918	454.02786	109.84545	188.77144	176.56639	174.12538	274.20679	302.68524	0
241	-77.29865	422.29473	497.96604	-172.49804	-288.03918	458.90988	112.28646	193.65346	181.44841	179.0074	279.08881	305.12625	0
242	-74.85764	427.17675	500.40705	-177.38006	-288.03918	463.7919	114.72747	196.09447	183.88942	186.33043	286.41184	307.56726	0
243	-72.41663	432.05877	502.84806	-179.82107	-288.03918	466.23291	114.72747	196.09447	188.77144	191.21245	293.73487	307.56726	0
244	-69.97562	432.05877	500.40705	-182.26208	-285.59817	466.23291	112.28646	196.09447	193.65346	200.97649	296.17588	307.56726	0
245	-67.53461	429.61776	495.52503	-182.26208	-280.71615	461.35089	112.28646	196.09447	198.53548	208.29952	298.61689	305.12625	0
246	-67.53461	424.73574	490.64301	-179.82107	-278.27514	456.46887	112.28646	200.97649	203.4175	213.18154	298.61689	302.68524	0
247	-67.53461	422.29473	488.202	-177.38006	-278.27514	454.02786	112.28646	205.85851	205.85851	215.62255	296.17588	300.24423	0
248	-65.0936	414.9717	478.43796	-174.93905	-270.95211	446.70483	112.28646	210.74053	208.29952	215.62255	293.73487	300.24423	0
249	-60.21158	410.08968	468.67392	-174.93905	-263.62908	439.3818	112.28646	210.74053	210.74053	215.62255	291.29386	297.80322	0
250	-52.88855	407.64867	458.90988	-177.38006	-256.30605	432.05877	112.28646	213.18154	213.18154	215.62255	291.29386	295.36221	0
251	-48.00653	405.20766	451.58685	-179.82107	-248.98302	427.17675	112.28646	213.18154	215.62255	218.06356	293.73487	292.9212	0
252	-40.6835	400.32564	439.3818	-179.82107	-239.21898	419.85372	112.28646	213.18154	215.62255	218.06356	296.17588	290.48019	0
253	-35.80148	393.00261	427.17675	-179.82107	-231.89595	410.08968	107.40444	213.18154	215.62255	222.94558	296.17588	283.15716	0
254	-30.91946	383.23857	412.53069	-177.38006	-222.13191	397.88463	102.52242	208.29952	218.06356	225.38659	293.73487	278.27514	0
255	-23.59643	371.03352	393.00261	-174.93905	-207.48585	380.79756	97.6404	208.29952	222.94558	230.26861	293.73487	270.95211	0
256	-18.71441	356.38746	373.47453	-170.05703	-195.2808	363.71049	97.6404	210.74053	222.94558	232.70962	291.29386	261.18807	0
257	-16.2734	339.30039	353.94645	-162.734	-185.51676	346.62342	95.19939	213.18154	222.94558	230.26861	286.41184	253.86504	0
258	-11.39138	324.65433	334.41837	-157.85198	-173.31171	329.53635	90.31737	218.06356	222.94558	227.8276	279.08881	244.101	0
259	-6.50936	307.56726	312.44928	-150.52895	-158.66565	310.00827	87.87636	218.06356	225.38659	222.94558	271.76578	234.33696	0
260	-1.62734	292.9212	292.9212	-145.64693	-146.4606	292.9212	85.43535	215.62255	225.38659	220.50457	264.44275	224.57292	0
261	6.50936	278.27514	270.95211	-143.20592	-131.81454	275.83413	82.99434	213.18154	225.38659	218.06356	257.11972	214.80888	0
262	11.39138	263.62908	251.42403	-138.3239	-119.60949	258.74706	82.99434	210.74053	222.94558	215.62255	247.35568	202.60383	0
263	16.2734	244.101	227.01393	-131.00087	-104.96343	236.77797	78.11232	205.85851	220.50457	213.18154	240.03265	190.39878	0
264	21.15542	227.01393	205.04484	-123.67784	-92.75838	217.24989	70.78929	198.53548	213.18154	213.18154	232.70962	175.75272	0
265	23.59643	207.48585	183.07575	-116.35481	-80.55333	195.2808	65.90727	193.65346	208.29952	210.74053	225.38659	163.54767	0
266	23.59643	183.07575	158.66565	-104.14976	-68.34828	170.8707	61.02525	191.21245	200.97649	205.85851	218.06356	148.90161	0
267	21.15542	163.54767	141.57858	-91.94471	-61.02525	153.78363	56.14323	186.33043	188.77144	196.09447	208.29952	136.69656	0
268	21.15542	146.4606	124.49151	-84.62168	-51.26121	136.69656	53.70222	186.33043	179.0074	191.21245	198.53548	124.49151	0
269	28.47845	134.25555	104.96343	-82.18067	-39.05616	119.60949	51.26121	181.44841	171.68437	181.44841	188.77144	114.72747	0
270	33.36047	122.0505	87.87636	-77.29865	-26.85111	104.96343	48.8202	174.12538	164.36134	174.12538	176.56639	104.96343	0
271	35.80148	109.84545	73.2303	-72.41663	-19.52808	92.75838	48.8202	169.24336	159.47932	166.80235	161.92033	95.19939	0
272	43.12451	100.08141	56.14323	-72.41663	-7.32303	78.11232	46.37919	161.92033	152.15629	159.47932	152.15629	85.43535	0
273	48.00653	90.31737	41.49717	-69.97562	3.25468	65.90727	43.93818	154.5973	147.27427	154.5973	142.39225	73.2303	0
274	50.44754	75.67131	24.4101	-62.65259	13.01872	51.26121	39.05616	144.83326	139.95124	152.15629	135.06922	61.02525	0
275	48.00653	61.02525	12.20505	-55.32956	17.90074	36.61515	31.73313	137.51023	135.06922	144.83326	127.74619	48.8202	0
276	43.12451	46.37919	2.44101	-45.56552	20.34175	24.4101	29.29212	132.62821	127.74619	137.51023	120.42316	36.61515	0
277	38.24249	31.73313	-8.1367	-35.80148	22.78276	12.20505	26.85111	125.30518	117.98215	125.30518	113.10013	24.4101	0
278	38.24249	19.52808	-20.34175	-28.47845	30.10579	0	24.4101	122.86417	108.21811	115.54114	100.89508	14.64606	0
279	35.80148	12.20505	-25.22377	-23.59643	30.10579	-5.69569	24.4101	115.54114	103.33609	105.7771	88.69003	7.32303	0
280	35.80148	4.88202	-32.5468	-21.15542	34.98781	-13.01872	21.96909	108.21811	96.01306	93.57205	78.92599	-3.25468	0
281	33.36047	-3.25468	-37.42882	-16.2734	34.98781	-20.34175	21.96909	100.89508	86.24902	86.24902	64.27993	-8.1367	0
282	33.36047	-8.1367	-42.31084	-13.83239	37.42882	-25.22377	21.96909	93.57205	78.92599	78.92599	54.51589	-15.45973	1500	QRS+0
283	35.80148	-13.01872	-49.63387	-11.39138	42.31084	-30.10579	19.52808	83.80801	71.60296	74.04397	44.75185	-22.78276	0
284	38.24249	-17.90074	-56.9569	-11.39138	47.19286	-37.42882	14.64606	74.04397	64.27993	71.60296	39.86983	-32.5468	0
285	35.80148	-25.22377	-61.83892	-6.50936	47.19286	-42.31084	12.20505	66.72094	59.39791	69.16195	37.42882	-37.42882	0
286	33.36047	-30.10579	-64.27993	-1.62734	47.19286	-47.19286	9.76404	61.83892	54.51589	61.83892	32.5468	-44.75185	0
287	30.91946	-34.98781	-66.72094	0.81367	47.19286	-49.63387	6.50936	61.83892	47.19286	54.51589	27.66478	-49.63387	0
288	28.47845	-39.86983	-69.16195	4.06835	47.19286	-54.51589	6.50936	61.83892	42.31084	44.75185	17.90074	-56.9569	0
289	23.59643	-47.19286	-71.60296	11.39138	47.19286	-59.39791	6.50936	56.9569	37.42882	32.5468	8.1367	-61.83892	0
290	21.15542	-49.63387	-71.60296	13.83239	44.75185	-59.39791	6.50936	51.26121	32.5468	25.22377	-4.06835	-66.72094	0
291	18.71441	-54.51589	-74.04397	16.2734	44.75185	-64.27993	9.76404	48.8202	26.85111	17.90074	-12.20505	-69.16195	0
292	16.2734	-59.39791	-76.48498	21.15542	44.75185	-66.72094	12.20505	43.93818	24.4101	15.45973	-17.08707	-71.60296	0
293	16.2734	-64.27993	-81.367	23.59643	47.19286	-71.60296	12.20505	39.05616	19.52808	13.01872	-21.96909	-76.48498	0
294	16.2734	-69.16195	-86.24902	26.03744	49.63387	-76.48498	6.50936	31.73313	17.08707	13.01872	-21.96909	-81.367	0
295	16.2734	-71.60296	-88.69003	26.03744	52.07488	-78.92599	6.50936	26.85111	14.64606	13.01872	-21.96909	-86.24902	0
296	13.83239	-76.48498	-91.13104	30.91946	52.07488	-83.80801	4.06835	24.4101	12.20505	13.01872	-19.52808	-88.69003	0
297	13.83239	-76.48498	-91.13104	30.91946	52.07488	-83.80801	4.06835	24.4101	7.32303	8.1367	-19.52808	-91.13104	0
298	16.2734	-78.92599	-96.01306	30.91946	54.51589	-86.24902	1.62734	21.96909	4.88202	2.44101	-21.96909	-93.57205	0
299	13.83239	-81.367	-96.01306	33.36047	54.51589	-88.69003	-0.81367	17.08707	0	-4.88202	-29.29212	-98.45407	0
300	11.39138	-81.367	-93.57205	33.36047	52.07488	-86.24902	-0.81367	12.20505	0	-12.20505	-34.17414	-100.89508	0
301	8.95037	-83.80801	-93.57205	35.80148	49.63387	-88.69003	1.62734	9.76404	-4.88202	-14.64606	-41.49717	-103.33609	0
302	6.50936	-86.24902	-93.57205	38.24249	49.63387	-88.69003	1.62734	4.88202	-9.76404	-19.52808	-48.8202	-105.7771	0
303	6.50936	-86.24902	-93.57205	38.24249	49.63387	-88.69003	1.62734	0	-12.20505	-19.52808	-53.70222	-110.65912	0
304	8.95037	-83.80801	-93.57205	35.80148	49.63387	-88.69003	1.62734	-2.44101	-12.20505	-19.52808	-53.70222	-113.10013	0
305	11.39138	-81.367	-93.57205	33.36047	52.07488	-86.24902	1.62734	-4.88202	-9.76404	-14.64606	-53.70222	-113.10013	0
306	13.83239	-81.367	-96.01306	33.36047	54.51589	-88.69003	1.62734	-2.44101	-9.76404	-14.64606	-51.26121	-115.54114	0
307	16.2734	-76.48498	-93.57205	28.47845	54.51589	-83.80801	1.62734	0	-9.76404	-17.08707	-48.8202	-115.54114	0
308	16.2734	-76.48498	-93.57205	28.47845	54.51589	-83.80801	1.62734	2.44101	-12.20505	-21.96909	-48.8202	-115.54114	0
309	16.2734	-74.04397	-91.13104	28.47845	52.07488	-81.367	1.62734	0	-12.20505	-26.85111	-53.70222	-115.54114	0
310	13.83239	-76.48498	-91.13104	30.91946	52.07488	-83.80801	1.62734	-4.88202	-17.08707	-29.29212	-58.58424	-117.98215	0
311	13.83239	-78.92599	-93.57205	30.91946	52.07488	-86.24902	4.06835	-7.32303	-17.08707	-34.17414	-65.90727	-117.98215	0
312	11.39138	-78.92599	-91.13104	33.36047	49.63387	-83.80801	4.06835	-9.76404	-21.96909	-36.61515	-70.78929	-120.42316	0
313	8.95037	-81.367	-91.13104	35.80148	49.63387	-86.24902	4.06835	-12.20505	-21.96909	-36.61515	-75.67131	-122.86417	0
314	8.95037	-81.367	-91.13104	35.80148	49.63387	-86.24902	4.06835	-14.64606	-21.96909	-34.17414	-75.67131	-125.30518	0
315	8.95037	-81.367	-91.13104	35.80148	49.63387	-86.24902	4.06835	-14.64606	-17.08707	-34.17414	-73.2303	-125.30518	0
316	8.95037	-83.80801	-93.57205	35.80148	49.63387	-88.69003	4.06835	-12.20505	-17.08707	-31.73313	-70.78929	-127.74619	0
317	6.50936	-86.24902	-93.57205	38.24249	49.63387	-88.69003	6.50936	-7.32303	-17.08707	-36.61515	-70.78929	-130.1872	0
318	6.50936	-88.69003	-96.01306	40.6835	49.63387	-91.13104	6.50936	-4.88202	-17.08707	-36.61515	-73.2303	-130.1872	0
319	6.50936	-88.69003	-96.01306	40.6835	49.63387	-91.13104	6.50936	-4.88202	-14.64606	-41.49717	-73.2303	-130.1872	0
320	6.50936	-86.24902	-93.57205	38.24249	49.63387	-88.69003	9.76404	-4.88202	-12.20505	-43.93818	-78.11232	-127.74619	0
321	6.50936	-86.24902	-93.57205	38.24249	49.63387	-88.69003	12.20505	-2.44101	-12.20505	-43.93818	-82.99434	-125.30518	0
322	6.50936	-83.80801	-91.13104	38.24249	47.19286	-86.24902	14.64606	-2.44101	-14.64606	-43.93818	-85.43535	-125.30518	0
323	11.39138	-81.367	-93.57205	33.36047	52.07488	-86.24902	14.64606	-2.44101	-14.64606	-43.93818	-87.87636	-125.30518	0
324	11.39138	-83.80801	-96.01306	35.80148	52.07488	-88.69003	12.20505	-4.88202	-12.20505	-41.49717	-85.43535	-125.30518	0
325	11.39138	-86.24902	-98.45407	35.80148	54.51589	-91.13104	12.20505	-4.88202	-12.20505	-39.05616	-80.55333	-127.74619	0
326	11.39138	-88.69003	-100.89508	38.24249	54.51589	-93.57205	9.76404	-2.44101	-12.20505	-39.05616	-78.11232	-127.74619	0
327	11.39138	-91.13104	-103.33609	38.24249	56.9569	-96.01306	9.76404	0	-12.20505	-43.93818	-75.67131	-127.74619	0
328	11.39138	-91.13104	-103.33609	38.24249	56.9569	-96.01306	9.76404	2.44101	-12.20505	-46.37919	-75.67131	-127.74619	0
329	8.95037	-91.13104	-100.89508	40.6835	54.51589	-96.01306	9.76404	2.44101	-12.20505	-48.8202	-78.11232	-127.74619	0
330	6.50936	-93.57205	-100.89508	43.12451	52.07488	-96.01306	9.76404	4.88202	-12.20505	-51.26121	-80.55333	-125.30518	0
331	8.95037	-91.13104	-100.89508	40.6835	54.51589	-96.01306	12.20505	7.32303	-9.76404	-48.8202	-82.99434	-122.86417	0
332	11.39138	-88.69003	-100.89508	38.24249	54.51589	-93.57205	14.64606	7.32303	-9.76404	-48.8202	-85.43535	-122.86417	0
333	13.83239	-88.69003	-103.33609	35.80148	56.9569	-96.01306	14.64606	7.32303	-7.32303	-46.37919	-85.43535	-125.30518	0
334	13.83239	-88.69003	-103.33609	35.80148	56.9569	-96.01306	12.20505	7.32303	-7.32303	-41.49717	-85.43535	-125.30518	0
335	13.83239	-91.13104	-105.7771	38.24249	59.39791	-98.45407	12.20505	7.32303	-2.44101	-41.49717	-80.55333	-125.30518	0
336	13.83239	-91.13104	-105.7771	38.24249	59.39791	-98.45407	9.76404	12.20505	-2.44101	-41.49717	-78.11232	-127.74619	0
337	13.83239	-93.57205	-108.21811	38.24249	59.39791	-100.89508	12.20505	14.64606	-2.44101	-46.37919	-78.11232	-127.74619	0
338	11.39138	-96.01306	-108.21811	40.6835	59.39791	-100.89508	12.20505	17.08707	0	-46.37919	-80.55333	-127.74619	0
339	11.39138	-98.45407	-110.65912	43.12451	59.39791	-103.33609	12.20505	17.08707	0	-51.26121	-82.99434	-127.74619	0
340	6.50936	-100.89508	-108.21811	45.56552	56.9569	-103.33609	12.20505	12.20505	0	-53.70222	-85.43535	-130.1872	0
341	1.62734	-105.7771	-108.21811	50.44754	54.51589	-105.7771	12.20505	12.20505	2.44101	-51.26121	-87.87636	-130.1872	0
342	1.62734	-105.7771	-108.21811	50.44754	54.51589	-105.7771	17.08707	12.20505	2.44101	-48.8202	-90.31737	-130.1872	0
343	6.50936	-105.7771	-113.10013	48.00653	59.39791	-108.21811	17.08707	12.20505	4.88202	-43.93818	-90.31737	-132.62821	0
344	11.39138	-103.33609	-115.54114	45.56552	61.83892	-108.21811	17.08707	12.20505	4.88202	-43.93818	-87.87636	-132.62821	0
345	11.39138	-100.89508	-113.10013	43.12451	61.83892	-105.7771	17.08707	17.08707	9.76404	-39.05616	-82.99434	-132.62821	0
346	11.39138	-98.45407	-110.65912	43.12451	59.39791	-103.33609	17.08707	19.52808	9.76404	-36.61515	-80.55333	-135.06922	0
347	13.83239	-96.01306	-110.65912	40.6835	61.83892	-103.33609	17.08707	24.4101	9.76404	-36.61515	-78.11232	-135.06922	0
348	16.2734	-96.01306	-113.10013	38.24249	64.27993	-103.33609	17.08707	29.29212	9.76404	-36.61515	-78.11232	-135.06922	0
349	13.83239	-98.45407	-113.10013	40.6835	61.83892	-105.7771	17.08707	29.29212	9.76404	-41.49717	-78.11232	-135.06922	0
350	8.95037	-100.89508	-110.65912	45.56552	59.39791	-105.7771	17.08707	24.4101	12.20505	-41.49717	-78.11232	-135.06922	0
351	8.95037	-103.33609	-113.10013	45.56552	59.39791	-108.21811	17.08707	24.4101	12.20505	-39.05616	-80.55333	-137.51023	0
352	8.95037	-103.33609	-113.10013	45.56552	59.39791	-108.21811	17.08707	24.4101	12.20505	-39.05616	-80.55333	-137.51023	0
353	13.83239	-103.33609	-117.98215	43.12451	64.27993	-110.65912	17.08707	24.4101	12.20505	-39.05616	-82.99434	-137.51023	0
354	16.2734	-100.89508	-117.98215	40.6835	66.72094	-108.21811	17.08707	24.4101	12.20505	-39.05616	-78.11232	-139.95124	0
355	16.2734	-100.89508	-117.98215	40.6835	66.72094	-108.21811	17.08707	26.85111	14.64606	-36.61515	-73.2303	-139.95124	0
356	16.2734	-98.45407	-115.54114	40.6835	64.27993	-105.7771	17.08707	29.29212	14.64606	-34.17414	-70.78929	-142.39225	0
357	16.2734	-98.45407	-115.54114	40.6835	64.27993	-105.7771	17.08707	31.73313	14.64606	-36.61515	-70.78929	-142.39225	0
358	16.2734	-98.45407	-115.54114	40.6835	64.27993	-105.7771	17.08707	34.17414	12.20505	-36.61515	-70.78929	-139.95124	0
359	16.2734	-96.01306	-113.10013	38.24249	64.27993	-103.33609	17.08707	31.73313	14.64606	-39.05616	-70.78929	-137.51023	0
360	16.2734	-96.01306	-113.10013	38.24249	64.27993	-103.33609	17.08707	29.29212	17.08707	-39.05616	-73.2303	-137.51023	0
361	16.2734	-96.01306	-113.10013	38.24249	64.27993	-103.33609	14.64606	29.29212	19.52808	-36.61515	-78.11232	-137.51023	0
362	18.71441	-98.45407	-117.98215	38.24249	66.72094	-108.21811	14.64606	29.29212	19.52808	-36.61515	-80.55333	-137.51023	0
363	18.71441	-98.45407	-117.98215	38.24249	66.72094	-108.21811	14.64606	29.29212	19.52808	-34.17414	-82.99434	-139.95124	0
364	18.71441	-100.89508	-120.42316	40.6835	69.16195	-110.65912	14.64606	29.29212	19.52808	-34.17414	-80.55333	-139.95124	0
365	16.2734	-103.33609	-120.42316	43.12451	66.72094	-110.65912	14.64606	29.29212	21.96909	-34.17414	-73.2303	-139.95124	0
366	18.71441	-103.33609	-122.86417	40.6835	69.16195	-113.10013	14.64606	31.73313	21.96909	-34.17414	-70.78929	-139.95124	0
367	21.15542	-103.33609	-125.30518	40.6835	71.60296	-113.10013	17.08707	31.73313	19.52808	-36.61515	-68.34828	-137.51023	0
368	23.59643	-103.33609	-127.74619	38.24249	74.04397	-115.54114	17.08707	34.17414	19.52808	-36.61515	-65.90727	-135.06922	0
369	26.03744	-103.33609	-130.1872	38.24249	76.48498	-115.54114	17.08707	31.73313	21.96909	-36.61515	-65.90727	-132.62821	0
370	28.47845	-100.89508	-130.1872	35.80148	78.92599	-115.54114	17.08707	26.85111	21.96909	-34.17414	-65.90727	-130.1872	0
371	28.47845	-100.89508	-130.1872	35.80148	78.92599	-115.54114	17.08707	26.85111	24.4101	-34.17414	-65.90727	-130.1872	0
372	28.47845	-98.45407	-127.74619	33.36047	76.48498	-113.10013	17.08707	26.85111	21.96909	-34.17414	-70.78929	-130.1872	0
373	26.03744	-98.45407	-125.30518	35.80148	74.04397	-110.65912	14.64606	26.85111	21.96909	-34.17414	-70.78929	-130.1872	0
374	26.03744	-96.01306	-122.86417	33.36047	74.04397	-108.21811	14.64606	26.85111	21.96909	-34.17414	-70.78929	-130.1872	-1500	QRS-0
375	26.03744	-96.01306	-122.86417	33.36047	74.04397	-108.21811	14.64606	26.85111	21.96909	-34.17414	-65.90727	-130.1872	0
376	26.03744	-93.57205	-120.42316	33.36047	71.60296	-105.7771	14.64606	26.85111	19.52808	-36.61515	-65.90727	-127.74619	0
377	23.59643	-93.57205	-117.98215	33.36047	69.16195	-105.7771	12.20505	24.4101	17.08707	-41.49717	-65.90727	-127.74619	0
378	23.59643	-93.57205	-117.98215	33.36047	69.16195	-105.7771	9.76404	21.96909	14.64606	-41.49717	-65.90727	-127.74619	0
379	23.59643	-93.57205	-117.98215	33.36047	69.16195	-105.7771	6.50936	19.52808	14.64606	-43.93818	-65.90727	-125.30518	0
380	26.03744	-93.57205	-120.42316	33.36047	71.60296	-105.7771	6.50936	14.64606	14.64606	-43.93818	-65.90727	-125.30518	0
381	26.03744	-93.57205	-120.42316	33.36047	71.60296	-105.7771	4.06835	12.20505	14.64606	-43.93818	-68.34828	-125.30518	0
382	26.03744	-96.01306	-122.86417	33.36047	74.04397	-108.21811	-0.81367	12.20505	12.20505	-43.93818	-73.2303	-125.30518	0
383	26.03744	-96.01306	-122.86417	33.36047	74.04397	-108.21811	-3.25468	9.76404	9.76404	-43.93818	-75.67131	-127.74619	0
384	23.59643	-93.57205	-117.98215	33.36047	69.16195	-105.7771	-3.25468	9.76404	7.32303	-46.37919	-78.11232	-127.74619	0
385	21.15542	-96.01306	-117.98215	35.80148	69.16195	-105.7771	-3.25468	9.76404	9.76404	-46.37919	-78.11232	-127.74619	0
386	18.71441	-96.01306	-115.54114	38.24249	66.72094	-105.7771	-3.25468	9.76404	9.76404	-48.8202	-78.11232	-127.74619	0
387	16.2734	-96.01306	-113.10013	38.24249	64.27993	-103.33609	-3.25468	12.20505	7.32303	-48.8202	-78.11232	-127.74619	0
388	16.2734	-93.57205	-110.65912	38.24249	61.83892	-100.89508	-3.25468	9.76404	7.32303	-48.8202	-78.11232	-125.30518	0
389	16.2734	-91.13104	-108.21811	35.80148	61.83892	-98.45407	-3.25468	9.76404	7.32303	-48.8202	-78.11232	-125.30518	0
390	18.71441	-91.13104	-110.65912	35.80148	64.27993	-100.89508	-5.69569	7.32303	9.76404	-48.8202	-78.11232	-125.30518	0
391	18.71441	-88.69003	-108.21811	33.36047	61.83892	-98.45407	-8.1367	7.32303	9.76404	-46.37919	-80.55333	-125.30518	0
392	21.15542	-88.69003	-110.65912	33.36047	64.27993	-98.45407	-8.1367	7.32303	9.76404	-46.37919	-80.55333	-127.74619	0
393	21.15542	-86.24902	-108.21811	30.91946	64.27993	-96.01306	-8.1367	7.32303	9.76404	-46.37919	-82.99434	-127.74619	0
394	21.15542	-86.24902	-108.21811	30.91946	64.27993	-96.01306	-8.1367	9.76404	9.76404	-48.8202	-82.99434	-127.74619	0
395	18.71441	-88.69003	-108.21811	33.36047	61.83892	-98.45407	-5.69569	12.20505	9.76404	-51.26121	-82.99434	-127.74619	0
396	18.71441	-88.69003	-108.21811	33.36047	61.83892	-98.45407	-3.25468	12.20505	7.32303	-53.70222	-80.55333	-127.74619	0
397	18.71441	-91.13104	-110.65912	35.80148	64.27993	-100.89508	-3.25468	12.20505	4.88202	-56.14323	-80.55333	-125.30518	0
398	18.71441	-91.13104	-110.65912	35.80148	64.27993	-100.89508	-3.25468	9.76404	2.44101	-56.14323	-80.55333	-125.30518	0
399	18.71441	-93.57205	-113.10013	35.80148	64.27993	-103.33609	-5.69569	4.88202	0	-58.58424	-82.99434	-125.30518	0
400	18.71441	-93.57205	-113.10013	35.80148	64.27993	-103.33609	-10.57771	0	0	-58.58424	-85.43535	-125.30518	0
401	18.71441	-93.57205	-113.10013	35.80148	64.27993	-103.33609	-15.45973	-2.44101	0	-56.14323	-87.87636	-127.74619	0
402	18.71441	-93.57205	-113.10013	35.80148	64.27993	-103.33609	-17.90074	-2.44101	0	-53.70222	-90.31737	-130.1872	0
403	18.71441	-91.13104	-110.65912	35.80148	64.27993	-100.89508	-17.90074	-2.44101	0	-53.70222	-92.75838	-130.1872	0
404	18.71441	-86.24902	-105.7771	33.36047	61.83892	-96.01306	-15.45973	2.44101	0	-53.70222	-92.75838	-130.1872	0
405	18.71441	-86.24902	-105.7771	33.36047	61.83892	-96.01306	-10.57771	2.44101	2.44101	-53.70222	-87.87636	-130.1872	0
406	18.71441	-83.80801	-103.33609	30.91946	59.39791	-93.57205	-8.1367	4.88202	2.44101	-56.14323	-85.43535	-127.74619	0
407	18.71441	-83.80801	-103.33609	30.91946	59.39791	-93.57205	-8.1367	7.32303	2.44101	-56.14323	-85.43535	-127.74619	0
408	18.71441	-83.80801	-103.33609	30.91946	59.39791	-93.57205	-8.1367	2.44101	-2.44101	-58.58424	-85.43535	-127.74619	0
409	18.71441	-86.24902	-105.7771	33.36047	61.83892	-96.01306	-8.1367	0	-2.44101	-58.58424	-85.43535	-127.74619	0
410	18.71441	-86.24902	-105.7771	33.36047	61.83892	-96.01306	-10.57771	-2.44101	-2.44101	-56.14323	-85.43535	-127.74619	0
411	18.71441	-88.69003	-108.21811	33.36047	61.83892	-98.45407	-13.01872	-2.44101	-2.44101	-56.14323	-87.87636	-130.1872	0
412	18.71441	-91.13104	-110.65912	35.80148	64.27993	-100.89508	-15.45973	-2.44101	-2.44101	-53.70222	-87.87636	-132.62821	0
413	16.2734	-91.13104	-108.21811	35.80148	61.83892	-98.45407	-15.45973	-2.44101	-2.44101	-53.70222	-92.75838	-132.62821	0
414	16.2734	-91.13104	-108.21811	35.80148	61.83892	-98.45407	-13.01872	0	-2.44101	-56.14323	-92.75838	-132.62821	0
415	16.2734	-88.69003	-105.7771	35.80148	59.39791	-96.01306	-8.1367	4.88202	-2.44101	-56.14323	-92.75838	-130.1872	0
416	16.2734	-86.24902	-103.33609	33.36047	59.39791	-93.57205	-5.69569	4.88202	0	-61.02525	-92.75838	-127.74619	0
417	16.2734	-86.24902	-103.33609	33.36047	59.39791	-93.57205	-5.69569	4.88202	-2.44101	-61.02525	-92.75838	-127.74619	0
418	16.2734	-86.24902	-103.33609	33.36047	59.39791	-93.57205	-5.69569	2.44101	-4.88202	-61.02525	-92.75838	-125.30518	0
419	16.2734	-86.24902	-103.33609	33.36047	59.39791	-93.57205	-5.69569	0	-4.88202	-61.02525	-90.31737	-125.30518	0
420	18.71441	-86.24902	-105.7771	33.36047	61.83892	-96.01306	-10.57771	-4.88202	-4.88202	-61.02525	-85.43535	-125.30518	0
421	18.71441	-88.69003	-108.21811	33.36047	61.83892	-98.45407	-13.01872	-7.32303	-4.88202	-56.14323	-82.99434	-125.30518	0
422	16.2734	-88.69003	-105.7771	35.80148	59.39791	-96.01306	-13.01872	-7.32303	-4.88202	-56.14323	-82.99434	-127.74619	0
423	13.83239	-88.69003	-103.33609	35.80148	56.9569	-96.01306	-15.45973	-4.88202	-2.44101	-56.14323	-85.43535	-127.74619	0
424	11.39138	-91.13104	-103.33609	38.24249	56.9569	-96.01306	-10.57771	0	-2.44101	-58.58424	-87.87636	-127.74619	0
425	11.39138	-91.13104	-103.33609	38.24249	56.9569	-96.01306	-8.1367	2.44101	-2.44101	-58.58424	-90.31737	-125.30518	0
426	6.50936	-93.57205	-100.89508	43.12451	52.07488	-96.01306	-5.69569	2.44101	-2.44101	-63.46626	-95.19939	-125.30518	0
427	6.50936	-93.57205	-100.89508	43.12451	52.07488	-96.01306	-5.69569	4.88202	-4.88202	-63.46626	-95.19939	-125.30518	0
428	11.39138	-91.13104	-103.33609	38.24249	56.9569	-96.01306	-3.25468	4.88202	-4.88202	-63.46626	-95.19939	-122.86417	0
429	16.2734	-88.69003	-105.7771	35.80148	59.39791	-96.01306	-3.25468	2.44101	-7.32303	-63.46626	-95.19939	-122.86417	0
430	16.2734	-86.24902	-103.33609	33.36047	59.39791	-93.57205	-8.1367	0	-7.32303	-61.02525	-95.19939	-122.86417	0
431	16.2734	-88.69003	-105.7771	35.80148	59.39791	-96.01306	-10.57771	-2.44101	-4.88202	-58.58424	-95.19939	-125.30518	0
432	21.15542	-86.24902	-108.21811	30.91946	64.27993	-96.01306	-13.01872	0	-4.88202	-53.70222	-95.19939	-125.30518	0
433	21.15542	-86.24902	-108.21811	30.91946	64.27993	-96.01306	-13.01872	0	-4.88202	-53.70222	-95.19939	-125.30518	0
434	21.15542	-86.24902	-108.21811	30.91946	64.27993	-96.01306	-13.01872	2.44101	-4.88202	-58.58424	-95.19939	-127.74619	0
435	18.71441	-88.69003	-108.21811	33.36047	61.83892	-98.45407	-10.57771	2.44101	-4.88202	-58.58424	-95.19939	-127.74619	0
436	16.2734	-88.69003	-105.7771	35.80148	59.39791	-96.01306	-8.1367	2.44101	-4.88202	-61.02525	-92.75838	-127.74619	0
437	13.83239	-91.13104	-105.7771	38.24249	59.39791	-98.45407	-8.1367	2.44101	-7.32303	-61.02525	-92.75838	-127.74619	0
438	13.83239	-91.13104	-105.7771	38.24249	59.39791	-98.45407	-10.57771	0	-7.32303	-61.02525	-92.75838	-127.74619	0
439	13.83239	-91.13104	-105.7771	38.24249	59.39791	-98.45407	-10.57771	0	-9.76404	-61.02525	-90.31737	-127.74619	0
440	16.2734	-91.13104	-108.21811	35.80148	61.83892	-98.45407	-15.45973	-4.88202	-9.76404	-58.58424	-92.75838	-130.1872	0
441	16.2734	-93.57205	-110.65912	38.24249	61.83892	-100.89508	-17.90074	-7.32303	-9.76404	-56.14323	-95.19939	-132.62821	0
442	16.2734	-93.57205	-110.65912	38.24249	61.83892	-100.89508	-22.78276	-7.32303	-9.76404	-56.14323	-100.08141	-132.62821	0
443	16.2734	-93.57205	-110.65912	38.24249	61.83892	-100.89508	-22.78276	-7.32303	-9.76404	-56.14323	-104.96343	-135.06922	0
444	16.2734	-93.57205	-110.65912	38.24249	61.83892	-100.89508	-20.34175	-4.88202	-9.76404	-58.58424	-104.96343	-135.06922	0
445	13.83239	-93.57205	-108.21811	38.24249	59.39791	-100.89508	-17.90074	-4.88202	-9.76404	-58.58424	-104.96343	-135.06922	0
446	13.83239	-93.57205	-108.21811	38.24249	59.39791	-100.89508	-15.45973	-2.44101	-9.76404	-61.02525	-102.52242	-132.62821	0
447	11.39138	-93.57205	-105.7771	40.6835	56.9569	-98.45407	-15.45973	-2.44101	-12.20505	-63.46626	-102.52242	-132.62821	0
448	11.39138	-91.13104	-103.33609	38.24249	56.9569	-96.01306	-15.45973	-4.88202	-12.20505	-63.46626	-102.52242	-130.1872	0
449	11.39138	-93.57205	-105.7771	40.6835	56.9569	-98.45407	-15.45973	-7.32303	-14.64606	-63.46626	-100.08141	-130.1872	0
450	11.39138	-93.57205	-105.7771	40.6835	56.9569	-98.45407	-17.90074	-12.20505	-14.64606	-58.58424	-100.08141	-130.1872	0
451	11.39138	-93.57205	-105.7771	40.6835	56.9569	-98.45407	-20.34175	-14.64606	-14.64606	-58.58424	-104.96343	-135.06922	0
452	13.83239	-93.57205	-108.21811	38.24249	59.39791	-100.89508	-25.22377	-14.64606	-14.64606	-58.58424	-107.40444	-135.06922	0
453	18.71441	-93.57205	-113.10013	35.80148	64.27993	-103.33609	-25.22377	-14.64606	-12.20505	-58.58424	-109.84545	-137.51023	0
454	16.2734	-96.01306	-113.10013	38.24249	64.27993	-103.33609	-22.78276	-12.20505	-14.64606	-61.02525	-112.28646	-137.51023	0
455	16.2734	-96.01306	-113.10013	38.24249	64.27993	-103.33609	-22.78276	-9.76404	-14.64606	-63.46626	-109.84545	-137.51023	0
456	18.71441	-96.01306	-115.54114	38.24249	66.72094	-105.7771	-20.34175	-7.32303	-14.64606	-65.90727	-109.84545	-137.51023	0
457	18.71441	-96.01306	-115.54114	38.24249	66.72094	-105.7771	-20.34175	-7.32303	-17.08707	-65.90727	-107.40444	-135.06922	0
458	18.71441	-93.57205	-113.10013	35.80148	64.27993	-103.33609	-17.90074	-7.32303	-17.08707	-65.90727	-107.40444	-132.62821	0
459	16.2734	-93.57205	-110.65912	38.24249	61.83892	-100.89508	-17.90074	-9.76404	-17.08707	-65.90727	-104.96343	-132.62821	0
460	16.2734	-93.57205	-110.65912	38.24249	61.83892	-100.89508	-22.78276	-14.64606	-17.08707	-63.46626	-107.40444	-135.06922	0
461	16.2734	-98.45407	-115.54114	40.6835	64.27993	-105.7771	-25.22377	-14.64606	-17.08707	-63.46626	-109.84545	-137.51023	0
462	8.95037	-103.33609	-113.10013	45.56552	59.39791	-108.21811	-30.10579	-14.64606	-17.08707	-63.46626	-114.72747	-137.51023	0
463	6.50936	-105.7771	-113.10013	48.00653	59.39791	-108.21811	-32.5468	-14.64606	-17.08707	-63.46626	-117.16848	-142.39225	0
464	6.50936	-103.33609	-110.65912	48.00653	56.9569	-105.7771	-27.66478	-12.20505	-17.08707	-65.90727	-114.72747	-142.39225	0
465	11.39138	-103.33609	-115.54114	45.56552	61.83892	-108.21811	-25.22377	-9.76404	-14.64606	-65.90727	-112.28646	-142.39225	0
466	13.83239	-100.89508	-115.54114	43.12451	64.27993	-108.21811	-20.34175	-7.32303	-14.64606	-65.90727	-109.84545	-139.95124	0
467	16.2734	-98.45407	-115.54114	40.6835	64.27993	-105.7771	-20.34175	-4.88202	-17.08707	-65.90727	-107.40444	-137.51023	0
468	21.15542	-93.57205	-115.54114	35.80148	66.72094	-103.33609	-17.90074	-2.44101	-17.08707	-65.90727	-102.52242	-135.06922	0
469	26.03744	-91.13104	-117.98215	30.91946	71.60296	-103.33609	-15.45973	-2.44101	-14.64606	-63.46626	-97.6404	-135.06922	0
470	26.03744	-93.57205	-120.42316	33.36047	71.60296	-105.7771	-17.90074	-7.32303	-14.64606	-61.02525	-95.19939	-135.06922	0
471	21.15542	-98.45407	-120.42316	38.24249	69.16195	-108.21811	-20.34175	-9.76404	-14.64606	-61.02525	-95.19939	-135.06922	0
472	18.71441	-100.89508	-120.42316	40.6835	69.16195	-110.65912	-25.22377	-9.76404	-14.64606	-58.58424	-100.08141	-135.06922	0
473	16.2734	-103.33609	-120.42316	43.12451	66.72094	-110.65912	-27.66478	-9.76404	-14.64606	-58.58424	-104.96343	-137.51023	0
474	16.2734	-103.33609	-120.42316	43.12451	66.72094	-110.65912	-22.78276	-4.88202	-14.64606	-61.02525	-107.40444	-137.51023	0
475	13.83239	-103.33609	-117.98215	43.12451	64.27993	-110.65912	-20.34175	-4.88202	-14.64606	-61.02525	-107.40444	-137.51023	0
476	13.83239	-100.89508	-115.54114	43.12451	64.27993	-108.21811	-17.90074	-2.44101	-14.64606	-63.46626	-109.84545	-135.06922	0
477	16.2734	-98.45407	-115.54114	40.6835	64.27993	-105.7771	-17.90074	0	-14.64606	-63.46626	-109.84545	-135.06922	0
478	16.2734	-98.45407	-115.54114	40.6835	64.27993	-105.7771	-17.90074	0	-17.08707	-63.46626	-107.40444	-132.62821	0
479	16.2734	-98.45407	-115.54114	40.6835	64.27993	-105.7771	-15.45973	-2.44101	-14.64606	-63.46626	-102.52242	-132.62821	0
480	16.2734	-98.45407	-115.54114	40.6835	64.27993	-105.7771	-17.90074	-4.88202	-14.64606	-58.58424	-97.6404	-130.1872	0
481	13.83239	-98.45407	-113.10013	40.6835	61.83892	-105.7771	-20.34175	-4.88202	-12.20505	-56.14323	-92.75838	-132.62821	0
482	11.39138	-98.45407	-110.65912	43.12451	59.39791	-103.33609	-20.34175	-4.88202	-12.20505	-56.14323	-92.75838	-132.62821	0
483	11.39138	-98.45407	-110.65912	43.12451	59.39791	-103.33609	-20.34175	-4.88202	-12.20505	-56.14323	-95.19939	-132.62821	0
484	11.39138	-98.45407	-110.65912	43.12451	59.39791	-103.33609	-20.34175	-2.44101	-12.20505	-56.14323	-95.19939	-132.62821	0
485	13.83239	-98.45407	-113.10013	40.6835	61.83892	-105.7771	-15.45973	-2.44101	-12.20505	-56.14323	-92.75838	-132.62821	0
486	16.2734	-93.57205	-110.65912	38.24249	61.83892	-100.89508	-13.01872	-2.44101	-14.64606	-61.02525	-92.75838	-132.62821	0
487	16.2734	-93.57205	-110.65912	38.24249	61.83892	-100.89508	-13.01872	-2.44101	-17.08707	-61.02525	-92.75838	-132.62821	0
488	16.2734	-93.57205	-110.65912	38.24249	61.83892	-100.89508	-15.45973	-2.44101	-19.52808	-61.02525	-95.19939	-132.62821	0
489	18.71441	-91.13104	-110.65912	35.80148	64.27993	-100.89508	-15.45973	-4.88202	-19.52808	-61.02525	-92.75838	-130.1872	0
490	18.71441	-88.69003	-108.21811	33.36047	61.83892	-98.45407	-15.45973	-4.88202	-17.08707	-56.14323	-90.31737	-127.74619	0
491	16.2734	-88.69003	-105.7771	35.80148	59.39791	-96.01306	-15.45973	-4.88202	-14.64606	-51.26121	-90.31737	-127.74619	0
492	16.2734	-86.24902	-103.33609	33.36047	59.39791	-93.57205	-17.90074	-2.44101	-12.20505	-48.8202	-90.31737	-127.74619	0
493	16.2734	-81.367	-98.45407	30.91946	56.9569	-88.69003	-15.45973	2.44101	-9.76404	-46.37919	-90.31737	-125.30518	0
494	18.71441	-76.48498	-96.01306	28.47845	56.9569	-86.24902	-10.57771	9.76404	-4.88202	-46.37919	-87.87636	-120.42316	0
495	21.15542	-69.16195	-91.13104	23.59643	54.51589	-78.92599	-3.25468	14.64606	-2.44101	-41.49717	-80.55333	-115.54114	0
496	21.15542	-61.83892	-83.80801	18.71441	52.07488	-71.60296	-0.81367	17.08707	0	-41.49717	-75.67131	-113.10013	0
497	23.59643	-54.51589	-78.92599	13.83239	49.63387	-66.72094	1.62734	19.52808	2.44101	-36.61515	-70.78929	-105.7771	0
498	23.59643	-44.75185	-69.16195	8.95037	44.75185	-56.9569	1.62734	19.52808	4.88202	-34.17414	-65.90727	-100.89508	0
499	23.59643	-39.86983	-64.27993	6.50936	42.31084	-52.07488	1.62734	19.52808	7.32303	-29.29212	-58.58424	-98.45407	0
500	28.47845	-32.5468	-61.83892	0.81367	44.75185	-47.19286	1.62734	17.08707	9.76404	-24.4101	-56.14323	-96.01306	0
501	28.47845	-30.10579	-59.39791	0.81367	42.31084	-44.75185	-0.81367	17.08707	12.20505	-21.96909	-53.70222	-96.01306	0
502	30.91946	-25.22377	-56.9569	-4.06835	42.31084	-39.86983	-3.25468	17.08707	17.08707	-17.08707	-53.70222	-96.01306	0
503	33.36047	-22.78276	-56.9569	-6.50936	44.75185	-39.86983	-5.69569	19.52808	17.08707	-17.08707	-53.70222	-96.01306	0
504	33.36047	-22.78276	-56.9569	-6.50936	44.75185	-39.86983	-3.25468	21.96909	19.52808	-17.08707	-56.14323	-96.01306	0
505	38.24249	-22.78276	-61.83892	-8.95037	49.63387	-42.31084	-0.81367	24.4101	19.52808	-17.08707	-56.14323	-93.57205	0
506	40.6835	-17.90074	-59.39791	-11.39138	49.63387	-37.42882	-0.81367	26.85111	21.96909	-17.08707	-56.14323	-91.13104	0
507	43.12451	-17.90074	-61.83892	-13.83239	52.07488	-39.86983	1.62734	31.73313	21.96909	-17.08707	-53.70222	-88.69003	0
508	48.00653	-17.90074	-66.72094	-16.2734	56.9569	-42.31084	1.62734	34.17414	24.4101	-12.20505	-51.26121	-83.80801	0
509	50.44754	-17.90074	-69.16195	-16.2734	59.39791	-42.31084	-0.81367	34.17414	26.85111	-7.32303	-46.37919	-78.92599	0
510	52.88855	-22.78276	-76.48498	-16.2734	64.27993	-49.63387	-0.81367	36.61515	32.5468	-2.44101	-39.05616	-78.92599	0
511	55.32956	-27.66478	-83.80801	-13.83239	69.16195	-54.51589	-5.69569	39.05616	37.42882	2.44101	-34.17414	-78.92599	0
512	57.77057	-32.5468	-91.13104	-13.83239	74.04397	-61.83892	-8.1367	46.37919	42.31084	8.1367	-26.85111	-78.92599	0
513	62.65259	-34.98781	-98.45407	-13.83239	78.92599	-66.72094	-10.57771	51.26121	47.19286	13.01872	-21.96909	-76.48498	0
514	67.53461	-37.42882	-105.7771	-16.2734	86.24902	-71.60296	-13.01872	54.51589	49.63387	13.01872	-21.96909	-76.48498	0
515	69.97562	-37.42882	-108.21811	-16.2734	88.69003	-71.60296	-15.45973	59.39791	49.63387	13.01872	-19.52808	-74.04397	0
516	77.29865	-32.5468	-110.65912	-23.59643	93.57205	-71.60296	-20.34175	59.39791	52.07488	13.01872	-19.52808	-71.60296	0
517	84.62168	-27.66478	-113.10013	-28.47845	98.45407	-69.16195	-25.22377	64.27993	54.51589	13.01872	-17.08707	-66.72094	0
518	89.5037	-22.78276	-113.10013	-33.36047	100.89508	-66.72094	-34.98781	61.83892	54.51589	17.90074	-14.64606	-61.83892	0
519	89.5037	-20.34175	-110.65912	-35.80148	98.45407	-64.27993	-42.31084	59.39791	52.07488	17.90074	-12.20505	-59.39791	0
520	89.5037	-20.34175	-110.65912	-35.80148	98.45407	-64.27993	-52.07488	54.51589	52.07488	22.78276	-7.32303	-56.9569	0
521	89.5037	-17.90074	-108.21811	-35.80148	98.45407	-61.83892	-59.39791	51.26121	52.07488	25.22377	-4.06835	-56.9569	0
522	84.62168	-17.90074	-103.33609	-33.36047	93.57205	-59.39791	-64.27993	46.37919	49.63387	25.22377	-4.06835	-59.39791	0
523	79.73966	-22.78276	-103.33609	-28.47845	91.13104	-61.83892	-69.16195	43.93818	44.75185	22.78276	-7.32303	-61.83892	0
524	74.85764	-25.22377	-100.89508	-26.03744	86.24902	-61.83892	-64.27993	41.49717	39.86983	15.45973	-9.76404	-64.27993	0
525	74.85764	-27.66478	-103.33609	-23.59643	88.69003	-64.27993	-61.83892	36.61515	32.5468	8.1367	-14.64606	-69.16195	0
526	72.41663	-32.5468	-105.7771	-21.15542	88.69003	-69.16195	-56.9569	31.73313	26.85111	0	-21.96909	-74.04397	0
527	72.41663	-39.86983	-113.10013	-16.2734	91.13104	-76.48498	-54.51589	26.85111	19.52808	-7.32303	-29.29212	-76.48498	0
528	72.41663	-44.75185	-117.98215	-13.83239	93.57205	-81.367	-52.07488	21.96909	14.64606	-12.20505	-36.61515	-78.92599	0
529	72.41663	-52.07488	-125.30518	-11.39138	98.45407	-88.69003	-52.07488	17.08707	9.76404	-17.08707	-39.05616	-81.367	0
530	74.85764	-56.9569	-132.62821	-8.95037	103.33609	-93.57205	-52.07488	14.64606	9.76404	-17.08707	-39.05616	-83.80801	0
531	74.85764	-56.9569	-132.62821	-8.95037	103.33609	-93.57205	-49.63387	12.20505	12.20505	-17.08707	-34.17414	-86.24902	0
532	74.85764	-59.39791	-135.06922	-8.95037	103.33609	-96.01306	-49.63387	12.20505	12.20505	-14.64606	-34.17414	-86.24902	0
533	74.85764	-59.39791	-135.06922	-8.95037	103.33609	-96.01306	-49.63387	17.08707	12.20505	-12.20505	-34.17414	-88.69003	0
534	72.41663	-59.39791	-132.62821	-6.50936	100.89508	-96.01306	-47.19286	19.52808	14.64606	-14.64606	-31.73313	-88.69003	0
535	67.53461	-59.39791	-127.74619	-4.06835	96.01306	-93.57205	-42.31084	24.4101	14.64606	-14.64606	-31.73313	-88.69003	0
536	62.65259	-56.9569	-120.42316	-4.06835	91.13104	-88.69003	-37.42882	24.4101	14.64606	-14.64606	-34.17414	-86.24902	0
537	55.32956	-56.9569	-113.10013	0.81367	83.80801	-83.80801	-34.98781	26.85111	12.20505	-19.52808	-39.05616	-86.24902	0
538	48.00653	-59.39791	-108.21811	4.06835	76.48498	-83.80801	-32.5468	21.96909	4.88202	-19.52808	-43.93818	-88.69003	0
539	40.6835	-59.39791	-100.89508	8.95037	69.16195	-78.92599	-27.66478	17.08707	2.44101	-26.85111	-48.8202	-91.13104	0
540	30.91946	-64.27993	-96.01306	16.2734	61.83892	-78.92599	-27.66478	9.76404	-2.44101	-29.29212	-51.26121	-96.01306	0
541	23.59643	-69.16195	-93.57205	21.15542	56.9569	-81.367	-27.66478	2.44101	-7.32303	-34.17414	-56.14323	-103.33609	0
542	16.2734	-76.48498	-93.57205	28.47845	54.51589	-83.80801	-27.66478	-2.44101	-12.20505	-39.05616	-58.58424	-110.65912	0
543	8.95037	-81.367	-91.13104	35.80148	49.63387	-86.24902	-27.66478	-4.88202	-19.52808	-43.93818	-63.46626	-115.54114	0
544	4.06835	-86.24902	-91.13104	40.6835	47.19286	-88.69003	-22.78276	-4.88202	-21.96909	-51.26121	-68.34828	-120.42316	0
545	1.62734	-88.69003	-91.13104	43.12451	44.75185	-88.69003	-22.78276	-4.88202	-26.85111	-58.58424	-70.78929	-125.30518	0
546	1.62734	-91.13104	-93.57205	43.12451	47.19286	-91.13104	-20.34175	-4.88202	-29.29212	-63.46626	-75.67131	-125.30518	0
547	1.62734	-91.13104	-93.57205	43.12451	47.19286	-91.13104	-17.90074	-4.88202	-31.73313	-65.90727	-78.11232	-122.86417	0
548	-1.62734	-93.57205	-93.57205	45.56552	44.75185	-93.57205	-17.90074	-7.32303	-34.17414	-65.90727	-80.55333	-122.86417	0
549	-1.62734	-96.01306	-96.01306	48.00653	47.19286	-96.01306	-17.90074	-9.76404	-36.61515	-68.34828	-82.99434	-122.86417	0
550	-4.06835	-96.01306	-93.57205	48.00653	44.75185	-96.01306	-22.78276	-14.64606	-36.61515	-68.34828	-82.99434	-122.86417	0
551	-4.06835	-96.01306	-93.57205	48.00653	44.75185	-96.01306	-25.22377	-14.64606	-34.17414	-65.90727	-80.55333	-122.86417	0
552	-1.62734	-91.13104	-91.13104	45.56552	44.75185	-91.13104	-25.22377	-14.64606	-31.73313	-61.02525	-75.67131	-122.86417	0
553	-1.62734	-88.69003	-88.69003	43.12451	42.31084	-88.69003	-27.66478	-12.20505	-31.73313	-61.02525	-75.67131	-122.86417	0
554	-1.62734	-86.24902	-86.24902	43.12451	42.31084	-86.24902	-22.78276	-9.76404	-29.29212	-61.02525	-75.67131	-122.86417	0
555	1.62734	-83.80801	-86.24902	40.6835	42.31084	-83.80801	-17.90074	-2.44101	-29.29212	-63.46626	-73.2303	-120.42316	0
556	6.50936	-76.48498	-83.80801	33.36047	44.75185	-78.92599	-10.57771	0	-24.4101	-61.02525	-70.78929	-115.54114	0
557	6.50936	-74.04397	-81.367	33.36047	42.31084	-76.48498	-8.1367	4.88202	-24.4101	-61.02525	-70.78929	-113.10013	0
558	4.06835	-76.48498	-81.367	35.80148	42.31084	-78.92599	-8.1367	4.88202	-26.85111	-61.02525	-73.2303	-110.65912	0
559	1.62734	-76.48498	-78.92599	35.80148	39.86983	-76.48498	-5.69569	2.44101	-26.85111	-61.02525	-75.67131	-110.65912	0
560	1.62734	-78.92599	-81.367	38.24249	39.86983	-78.92599	-5.69569	0	-24.4101	-56.14323	-73.2303	-110.65912	0
561	1.62734	-78.92599	-81.367	38.24249	39.86983	-78.92599	-8.1367	0	-21.96909	-53.70222	-68.34828	-110.65912	0
562	1.62734	-78.92599	-81.367	38.24249	39.86983	-78.92599	-10.57771	0	-21.96909	-48.8202	-65.90727	-110.65912	0
563	-1.62734	-78.92599	-78.92599	38.24249	37.42882	-78.92599	-13.01872	2.44101	-19.52808	-48.8202	-65.90727	-110.65912	0
564	-1.62734	-78.92599	-78.92599	38.24249	37.42882	-78.92599	-10.57771	4.88202	-19.52808	-48.8202	-65.90727	-108.21811	0
565	-1.62734	-78.92599	-78.92599	38.24249	37.42882	-78.92599	-5.69569	9.76404	-19.52808	-51.26121	-63.46626	-105.7771	0
566	-1.62734	-76.48498	-76.48498	38.24249	37.42882	-76.48498	-3.25468	12.20505	-17.08707	-51.26121	-61.02525	-103.33609	0
567	-1.62734	-76.48498	-76.48498	38.24249	37.42882	-76.48498	-0.81367	14.64606	-17.08707	-51.26121	-61.02525	-98.45407	0
568	-1.62734	-76.48498	-76.48498	38.24249	37.42882	-76.48498	-0.81367	12.20505	-17.08707	-51.26121	-63.46626	-98.45407	0
569	-1.62734	-74.04397	-74.04397	35.80148	34.98781	-74.04397	-0.81367	7.32303	-19.52808	-51.26121	-63.46626	-98.45407	0
570	-1.62734	-74.04397	-74.04397	35.80148	34.98781	-74.04397	-0.81367	4.88202	-19.52808	-48.8202	-61.02525	-98.45407	0
571	-1.62734	-74.04397	-74.04397	35.80148	34.98781	-74.04397	-3.25468	4.88202	-17.08707	-46.37919	-56.14323	-98.45407	0
572	-1.62734	-76.48498	-76.48498	38.24249	37.42882	-76.48498	-8.1367	2.44101	-14.64606	-43.93818	-53.70222	-98.45407	0
573	-1.62734	-76.48498	-76.48498	38.24249	37.42882	-76.48498	-10.57771	4.88202	-14.64606	-41.49717	-53.70222	-98.45407	0
574	-1.62734	-74.04397	-74.04397	35.80148	34.98781	-74.04397	-8.1367	7.32303	-14.64606	-43.93818	-53.70222	-98.45407	0
575	-1.62734	-71.60296	-71.60296	35.80148	34.98781	-71.60296	-5.69569	12.20505	-14.64606	-46.37919	-53.70222	-98.45407	0
576	-1.62734	-71.60296	-71.60296	35.80148	34.98781	-71.60296	-3.25468	12.20505	-14.64606	-48.8202	-53.70222	-98.45407	0
577	-1.62734	-69.16195	-69.16195	33.36047	32.5468	-69.16195	-3.25468	12.20505	-17.08707	-51.26121	-58.58424	-96.01306	0
578	-1.62734	-69.16195	-69.16195	33.36047	32.5468	-69.16195	-0.81367	12.20505	-17.08707	-48.8202	-58.58424	-96.01306	0
579	-1.62734	-69.16195	-69.16195	33.36047	32.5468	-69.16195	4.06835	14.64606	-14.64606	-48.8202	-58.58424	-98.45407	0
580	-4.06835	-69.16195	-66.72094	35.80148	30.10579	-69.16195	6.50936	17.08707	-7.32303	-46.37919	-58.58424	-100.89508	0
581	-8.95037	-69.16195	-61.83892	38.24249	25.22377	-66.72094	9.76404	24.4101	4.88202	-36.61515	-53.70222	-100.89508	0
582	-8.95037	-66.72094	-59.39791	35.80148	25.22377	-64.27993	14.64606	36.61515	21.96909	-26.85111	-48.8202	-103.33609	0
583	-11.39138	-64.27993	-54.51589	35.80148	20.34175	-59.39791	19.52808	51.26121	42.31084	-9.76404	-41.49717	-103.33609	0
584	-13.83239	-64.27993	-52.07488	38.24249	17.90074	-59.39791	29.29212	78.92599	76.48498	10.57771	-34.17414	-103.33609	0
585	-13.83239	-64.27993	-52.07488	38.24249	17.90074	-59.39791	41.49717	117.98215	125.30518	44.75185	-17.08707	-98.45407	0
586	-8.95037	-64.27993	-56.9569	35.80148	22.78276	-61.83892	53.70222	169.24336	193.65346	98.45407	8.1367	-88.69003	0
587	1.62734	-59.39791	-61.83892	28.47845	30.10579	-59.39791	61.02525	230.26861	283.97083	181.44841	54.51589	-66.72094	0
588	26.03744	-47.19286	-74.04397	8.95037	49.63387	-59.39791	63.46626	303.49891	408.46234	303.49891	125.30518	-32.5468	0
589	57.77057	-30.10579	-88.69003	-13.83239	71.60296	-59.39791	63.46626	386.49325	559.80496	454.84153	220.50457	12.20505	0
590	94.38572	-3.25468	-98.45407	-45.56552	96.01306	-49.63387	58.58424	464.60557	728.23465	633.03526	337.67305	70.78929	0
591	135.88289	26.85111	-110.65912	-82.18067	122.86417	-42.31084	36.61515	520.7488	882.01828	808.78798	464.60557	139.13757	0
592	174.93905	61.02525	-115.54114	-118.79582	144.83326	-27.66478	6.50936	528.07183	979.65868	938.16151	572.01001	205.04484	0
593	216.43622	97.6404	-120.42316	-157.85198	169.24336	-10.57771	-44.75185	479.25163	1001.62777	999.18676	645.24031	263.62908	0
594	253.05137	129.37353	-125.30518	-192.02612	188.77144	2.44101	-110.65912	374.2882	940.60252	984.5407	679.41445	312.44928	0
595	279.90248	158.66565	-122.86417	-218.87723	200.97649	19.52808	-196.09447	203.4175	779.49586	884.45929	669.65041	344.18241	0
596	296.98955	180.63474	-117.98215	-238.40531	208.29952	31.73313	-293.73487	-34.17414	520.7488	703.82455	611.06617	358.82847	0
597	301.87157	205.04484	-98.45407	-253.05137	200.97649	53.70222	-401.13931	-336.85938	164.36134	445.07749	510.98476	358.82847	0
598	292.10753	234.33696	-59.39791	-262.81541	176.56639	87.87636	-506.10274	-685.92381	-241.65999	161.92033	388.93426	351.50544	0
599	275.02046	273.39312	-3.25468	-275.02046	139.95124	136.69656	-613.50718	-1030.10622	-632.22159	-102.52242	274.20679	344.18241	0
600	248.16935	310.00827	61.02525	-279.90248	93.57205	185.51676	-711.14758	-1359.64257	-995.93208	-344.18241	169.24336	336.85938	0
601	216.43622	341.7414	124.49151	-279.90248	47.19286	234.33696	-789.2599	-1640.35872	-1308.38136	-554.10927	74.04397	324.65433	0
602	182.26208	358.82847	175.75272	-270.13844	3.25468	268.5111	-845.40313	-1857.60861	-1547.60034	-722.53896	-12.20505	302.68524	0
603	148.08794	346.62342	197.72181	-248.16935	-24.4101	273.39312	-869.81323	-1982.10012	-1694.06094	-847.03047	-97.6404	258.74706	0
604	116.35481	297.80322	180.63474	-206.67218	-31.73313	239.21898	-855.16717	-1999.18719	-1742.88114	-930.02481	-185.51676	187.95777	0
605	82.18067	224.57292	141.57858	-152.96996	-29.29212	183.07575	-811.22899	-1933.27992	-1718.47104	-976.404	-270.95211	100.08141	0
606	38.24249	134.25555	95.19939	-87.06269	-29.29212	114.72747	-742.88071	-1816.11144	-1647.68175	-1000.8141	-356.38746	2.44101	0
607	-8.95037	39.05616	46.37919	-16.2734	-26.85111	41.49717	-657.44536	-1664.76882	-1545.15933	-1000.8141	-432.05877	-98.45407	0
608	-60.21158	-47.19286	12.20505	52.88855	-36.61515	-17.90074	-564.68698	-1501.22115	-1425.54984	-978.84501	-495.52503	-191.21245	0
609	-106.59077	-113.10013	-8.1367	109.03178	-51.26121	-61.83892	-476.81062	-1340.11449	-1301.05833	-942.22986	-534.58119	-262.00174	0
610	-143.20592	-139.95124	2.44101	140.76491	-73.2303	-69.16195	-401.13931	-1196.0949	-1174.12581	-876.32259	-532.14018	-291.29386	0
611	-167.61602	-147.27427	19.52808	155.41097	-95.19939	-64.27993	-337.67305	-1064.28036	-1049.6343	-803.09229	-507.73008	-298.61689	0
612	-174.93905	-139.95124	34.17414	155.41097	-104.96343	-54.51589	-283.97083	-934.90683	-930.02481	-722.53896	-466.23291	-288.85285	0
613	-167.61602	-122.86417	43.93818	143.20592	-107.40444	-39.86983	-237.59164	-803.09229	-807.97431	-634.6626	-414.9717	-266.88376	0
614	-152.96996	-98.45407	53.70222	123.67784	-104.96343	-22.78276	-193.65346	-681.04179	-690.80583	-551.66826	-358.82847	-237.59164	0
615	-135.88289	-76.48498	58.58424	104.14976	-97.6404	-10.57771	-154.5973	-563.87331	-583.40139	-475.99695	-307.56726	-210.74053	0
616	-118.79582	-56.9569	61.02525	87.06269	-90.31737	2.44101	-120.42316	-461.35089	-483.31998	-405.20766	-258.74706	-181.44841	0
617	-104.14976	-39.86983	63.46626	69.97562	-85.43535	12.20505	-96.01306	-368.59251	-395.44362	-344.18241	-219.6909	-157.03831	0
618	-87.06269	-22.78276	63.46626	52.88855	-75.67131	19.52808	-74.04397	-292.9212	-322.21332	-288.03918	-185.51676	-135.06922	0
619	-72.41663	-8.1367	63.46626	38.24249	-68.34828	26.85111	-54.51589	-231.89595	-261.18807	-241.65999	-158.66565	-117.98215	0
620	-60.21158	0	58.58424	28.47845	-58.58424	29.29212	-39.86983	-183.07575	-212.36787	-205.04484	-134.25555	-103.33609	0
621	-52.88855	2.44101	53.70222	23.59643	-53.70222	26.85111	-27.66478	-146.4606	-175.75272	-175.75272	-114.72747	-96.01306	0
622	-48.00653	4.88202	51.26121	21.15542	-48.8202	26.85111	-17.90074	-112.28646	-144.01959	-153.78363	-100.08141	-91.13104	0
623	-43.12451	4.88202	46.37919	18.71441	-43.93818	24.4101	-8.1367	-82.99434	-119.60949	-134.25555	-92.75838	-86.24902	0
624	-43.12451	2.44101	43.93818	18.71441	-43.93818	21.96909	1.62734	-61.02525	-102.52242	-124.49151	-85.43535	-86.24902	0
625	-45.56552	0	43.93818	21.15542	-43.93818	21.96909	6.50936	-43.93818	-90.31737	-122.0505	-82.99434	-83.80801	0
626	-50.44754	-3.25468	46.37919	26.03744	-48.8202	21.96909	12.20505	-34.17414	-80.55333	-119.60949	-80.55333	-83.80801	0
627	-48.00653	-3.25468	43.93818	23.59643	-46.37919	19.52808	17.08707	-26.85111	-75.67131	-114.72747	-80.55333	-81.367	0
628	-45.56552	0	43.93818	21.15542	-43.93818	21.96909	19.52808	-21.96909	-70.78929	-109.84545	-82.99434	-78.92599	0
629	-45.56552	0	43.93818	21.15542	-43.93818	21.96909	21.96909	-19.52808	-65.90727	-107.40444	-80.55333	-76.48498	0
630	-43.12451	2.44101	43.93818	18.71441	-43.93818	21.96909	21.96909	-17.08707	-61.02525	-102.52242	-78.11232	-76.48498	0
631	-40.6835	7.32303	46.37919	16.2734	-43.93818	26.85111	17.08707	-14.64606	-56.14323	-97.6404	-73.2303	-76.48498	0
632	-38.24249	12.20505	48.8202	11.39138	-43.93818	29.29212	17.08707	-12.20505	-51.26121	-92.75838	-68.34828	-74.04397	-1250	T-0
633	-38.24249	17.08707	53.70222	8.95037	-46.37919	34.17414	14.64606	-7.32303	-46.37919	-87.87636	-65.90727	-74.04397	0
634	-40.6835	17.08707	56.14323	11.39138	-48.8202	36.61515	17.08707	-2.44101	-46.37919	-90.31737	-65.90727	-74.04397	0
635	-43.12451	14.64606	56.14323	13.83239	-48.8202	34.17414	19.52808	2.44101	-43.93818	-92.75838	-65.90727	-71.60296	0
636	-43.12451	17.08707	58.58424	11.39138	-51.26121	36.61515	21.96909	4.88202	-41.49717	-92.75838	-65.90727	-69.16195	0
637	-45.56552	17.08707	61.02525	13.83239	-53.70222	39.05616	24.4101	9.76404	-41.49717	-90.31737	-65.90727	-64.27993	0
638	-45.56552	17.08707	61.02525	13.83239	-53.70222	39.05616	26.85111	9.76404	-41.49717	-87.87636	-68.34828	-61.83892	0
639	-45.56552	19.52808	63.46626	11.39138	-53.70222	41.49717	26.85111	9.76404	-41.49717	-87.87636	-68.34828	-61.83892	0
640	-45.56552	19.52808	63.46626	11.39138	-53.70222	41.49717	26.85111	7.32303	-39.05616	-82.99434	-65.90727	-61.83892	0
641	-45.56552	19.52808	63.46626	11.39138	-53.70222	41.49717	24.4101	4.88202	-34.17414	-80.55333	-61.02525	-61.83892	0
642	-45.56552	19.52808	63.46626	11.39138	-53.70222	41.49717	19.52808	2.44101	-34.17414	-78.11232	-58.58424	-61.83892	0
643	-45.56552	19.52808	63.46626	11.39138	-53.70222	41.49717	17.08707	2.44101	-34.17414	-78.11232	-58.58424	-61.83892	0
644	-48.00653	19.52808	65.90727	13.83239	-56.14323	41.49717	19.52808	2.44101	-34.17414	-78.11232	-58.58424	-61.83892	0
645	-50.44754	19.52808	68.34828	13.83239	-58.58424	43.93818	21.96909	4.88202	-34.17414	-80.55333	-58.58424	-61.83892	0
646	-50.44754	19.52808	68.34828	13.83239	-58.58424	43.93818	21.96909	4.88202	-34.17414	-82.99434	-58.58424	-59.39791	0
647	-52.88855	19.52808	70.78929	16.2734	-61.02525	43.93818	24.4101	7.32303	-34.17414	-85.43535	-61.02525	-54.51589	0
648	-55.32956	21.96909	75.67131	16.2734	-65.90727	48.8202	24.4101	4.88202	-36.61515	-85.43535	-63.46626	-52.07488	0
649	-55.32956	26.85111	80.55333	13.83239	-68.34828	53.70222	24.4101	2.44101	-39.05616	-85.43535	-65.90727	-52.07488	0
650	-57.77057	26.85111	82.99434	13.83239	-70.78929	53.70222	21.96909	0	-39.05616	-82.99434	-63.46626	-52.07488	0
651	-57.77057	29.29212	85.43535	13.83239	-70.78929	56.14323	19.52808	-2.44101	-36.61515	-80.55333	-58.58424	-49.63387	0
652	-60.21158	34.17414	92.75838	11.39138	-75.67131	63.46626	14.64606	-2.44101	-34.17414	-78.11232	-56.14323	-49.63387	0
653	-60.21158	36.61515	95.19939	11.39138	-78.11232	65.90727	12.20505	-2.44101	-34.17414	-78.11232	-56.14323	-49.63387	0
654	-65.0936	36.61515	100.08141	13.83239	-82.99434	68.34828	12.20505	0	-34.17414	-80.55333	-53.70222	-49.63387	0
655	-65.0936	39.05616	102.52242	11.39138	-82.99434	70.78929	14.64606	2.44101	-36.61515	-82.99434	-53.70222	-47.19286	0
656	-65.0936	41.49717	104.96343	11.39138	-85.43535	73.2303	19.52808	4.88202	-36.61515	-82.99434	-51.26121	-42.31084	0
657	-67.53461	46.37919	112.28646	8.95037	-90.31737	78.11232	19.52808	4.88202	-36.61515	-82.99434	-53.70222	-37.42882	0
658	-67.53461	48.8202	114.72747	8.95037	-90.31737	80.55333	19.52808	4.88202	-36.61515	-82.99434	-56.14323	-34.98781	0
659	-69.97562	53.70222	122.0505	6.50936	-95.19939	87.87636	19.52808	0	-39.05616	-82.99434	-56.14323	-32.5468	0
660	-69.97562	56.14323	124.49151	6.50936	-97.6404	90.31737	17.08707	-4.88202	-39.05616	-82.99434	-53.70222	-30.10579	0
661	-67.53461	65.90727	131.81454	0.81367	-100.08141	97.6404	12.20505	-7.32303	-39.05616	-78.11232	-48.8202	-27.66478	0
662	-65.0936	73.2303	136.69656	-4.06835	-100.08141	104.96343	9.76404	-7.32303	-39.05616	-78.11232	-46.37919	-27.66478	0
663	-65.0936	80.55333	144.01959	-8.95037	-104.96343	112.28646	6.50936	-7.32303	-41.49717	-78.11232	-43.93818	-27.66478	0
664	-65.0936	85.43535	148.90161	-11.39138	-107.40444	117.16848	9.76404	-7.32303	-43.93818	-80.55333	-41.49717	-22.78276	0
665	-62.65259	92.75838	153.78363	-16.2734	-107.40444	122.0505	12.20505	-7.32303	-43.93818	-80.55333	-39.05616	-20.34175	0
666	-60.21158	102.52242	161.10666	-21.15542	-109.84545	131.81454	14.64606	-7.32303	-43.93818	-80.55333	-36.61515	-13.01872	0
667	-62.65259	107.40444	168.42969	-23.59643	-114.72747	136.69656	17.08707	-4.88202	-43.93818	-80.55333	-36.61515	-8.1367	0
668	-67.53461	109.84545	175.75272	-21.15542	-122.0505	141.57858	17.08707	-7.32303	-43.93818	-78.11232	-36.61515	-3.25468	0
669	-69.97562	117.16848	185.51676	-23.59643	-126.93252	151.34262	17.08707	-9.76404	-43.93818	-78.11232	-36.61515	0	0
670	-69.97562	122.0505	190.39878	-26.03744	-129.37353	156.22464	17.08707	-12.20505	-41.49717	-73.2303	-31.73313	2.44101	0
671	-72.41663	126.93252	197.72181	-28.47845	-134.25555	161.10666	12.20505	-14.64606	-41.49717	-70.78929	-26.85111	4.88202	0
672	-74.85764	131.81454	205.04484	-28.47845	-139.13757	168.42969	9.76404	-14.64606	-39.05616	-68.34828	-21.96909	7.32303	0
673	-74.85764	134.25555	207.48585	-30.91946	-141.57858	170.8707	9.76404	-9.76404	-39.05616	-63.46626	-19.52808	9.76404	0
674	-77.29865	139.13757	214.80888	-30.91946	-146.4606	175.75272	12.20505	-7.32303	-39.05616	-65.90727	-14.64606	12.20505	0
675	-79.73966	146.4606	224.57292	-33.36047	-151.34262	185.51676	14.64606	-2.44101	-36.61515	-65.90727	-12.20505	17.08707	0
676	-82.18067	151.34262	231.89595	-35.80148	-156.22464	190.39878	19.52808	2.44101	-31.73313	-63.46626	-9.76404	21.96909	0
677	-82.18067	158.66565	239.21898	-38.24249	-161.10666	197.72181	24.4101	4.88202	-31.73313	-63.46626	-9.76404	29.29212	0
678	-82.18067	163.54767	244.101	-40.6835	-163.54767	202.60383	24.4101	4.88202	-31.73313	-58.58424	-7.32303	34.17414	0
679	-82.18067	170.8707	251.42403	-45.56552	-165.98868	209.92686	24.4101	4.88202	-29.29212	-56.14323	-7.32303	41.49717	0
680	-82.18067	180.63474	261.18807	-50.44754	-170.8707	219.6909	26.85111	2.44101	-26.85111	-51.26121	0.81367	46.37919	0
681	-82.18067	185.51676	266.07009	-52.88855	-173.31171	224.57292	24.4101	2.44101	-24.4101	-46.37919	5.69569	48.8202	0
682	-84.62168	192.83979	275.83413	-55.32956	-180.63474	234.33696	21.96909	2.44101	-21.96909	-41.49717	13.01872	53.70222	0
683	-87.06269	200.16282	285.59817	-57.77057	-185.51676	241.65999	21.96909	7.32303	-17.08707	-36.61515	17.90074	56.14323	0
684	-89.5037	207.48585	295.36221	-60.21158	-192.83979	251.42403	29.29212	14.64606	-14.64606	-36.61515	22.78276	61.02525	0
685	-91.94471	214.80888	305.12625	-62.65259	-197.72181	258.74706	34.17414	21.96909	-9.76404	-31.73313	27.66478	65.90727	0
686	-94.38572	222.13191	314.89029	-65.0936	-205.04484	268.5111	41.49717	26.85111	-4.88202	-31.73313	30.10579	73.2303	0
687	-96.82673	229.45494	324.65433	-67.53461	-209.92686	275.83413	46.37919	31.73313	-2.44101	-29.29212	34.98781	80.55333	0
688	-96.82673	239.21898	334.41837	-72.41663	-214.80888	285.59817	51.26121	36.61515	2.44101	-21.96909	37.42882	87.87636	0
689	-96.82673	248.98302	344.18241	-77.29865	-219.6909	295.36221	56.14323	39.05616	4.88202	-17.08707	39.86983	92.75838	0
690	-96.82673	256.30605	351.50544	-79.73966	-224.57292	302.68524	58.58424	41.49717	9.76404	-9.76404	47.19286	100.08141	0
691	-99.26774	263.62908	361.26948	-82.18067	-229.45494	312.44928	58.58424	46.37919	17.08707	-4.88202	54.51589	102.52242	0
692	-99.26774	275.83413	373.47453	-89.5037	-236.77797	324.65433	58.58424	51.26121	21.96909	2.44101	61.83892	104.96343	0
693	-99.26774	283.15716	380.79756	-91.94471	-239.21898	331.97736	61.02525	59.39791	26.85111	8.1367	66.72094	109.84545	0
694	-101.70875	292.9212	393.00261	-96.82673	-246.54201	341.7414	65.90727	66.72094	34.98781	13.01872	74.04397	117.16848	0
695	-104.14976	302.68524	405.20766	-99.26774	-253.86504	353.94645	73.2303	76.48498	39.86983	17.90074	81.367	122.0505	0
696	-104.14976	312.44928	414.9717	-104.14976	-258.74706	363.71049	80.55333	86.24902	49.63387	22.78276	86.24902	129.37353	0
697	-106.59077	322.21332	427.17675	-109.03178	-266.07009	373.47453	87.87636	93.57205	54.51589	25.22377	88.69003	139.13757	0
698	-106.59077	329.53635	434.49978	-111.47279	-270.95211	380.79756	92.75838	98.45407	59.39791	32.5468	93.57205	146.4606	0
699	-106.59077	339.30039	444.26382	-116.35481	-275.83413	390.5616	95.19939	100.89508	61.83892	37.42882	98.45407	151.34262	0
700	-106.59077	346.62342	451.58685	-121.23683	-278.27514	397.88463	97.6404	103.33609	69.16195	47.19286	105.7771	158.66565	0
701	-106.59077	353.94645	458.90988	-123.67784	-283.15716	405.20766	100.08141	105.7771	74.04397	54.51589	113.10013	161.10666	0
702	-109.03178	358.82847	466.23291	-126.11885	-288.03918	412.53069	100.08141	108.21811	81.367	59.39791	120.42316	163.54767	0
703	-111.47279	361.26948	471.11493	-126.11885	-290.48019	414.9717	100.08141	113.10013	86.24902	64.27993	127.74619	168.42969	0
704	-111.47279	368.59251	478.43796	-128.55986	-295.36221	422.29473	107.40444	120.42316	91.13104	69.16195	132.62821	173.31171	0
705	-106.59077	380.79756	485.76099	-138.3239	-295.36221	432.05877	114.72747	127.74619	98.45407	74.04397	139.95124	180.63474	0
706	-101.70875	388.12059	488.202	-143.20592	-295.36221	436.94079	122.0505	135.06922	108.21811	81.367	147.27427	187.95777	0
707	-101.70875	395.44362	495.52503	-148.08794	-297.80322	444.26382	126.93252	139.95124	110.65912	83.80801	149.71528	192.83979	0
708	-96.82673	400.32564	495.52503	-152.96996	-295.36221	446.70483	129.37353	142.39225	115.54114	91.13104	152.15629	197.72181	0
709	-89.5037	407.64867	495.52503	-160.29299	-292.9212	451.58685	131.81454	144.83326	120.42316	98.45407	157.03831	205.04484	0
710	-84.62168	412.53069	495.52503	-165.17501	-290.48019	454.02786	131.81454	144.83326	125.30518	105.7771	164.36134	207.48585	0
711	-84.62168	414.9717	497.96604	-165.17501	-290.48019	456.46887	129.37353	144.83326	127.74619	113.10013	171.68437	207.48585	0
712	-87.06269	412.53069	497.96604	-162.734	-292.9212	454.02786	122.0505	144.83326	130.1872	115.54114	176.56639	207.48585	0
713	-87.06269	410.08968	495.52503	-162.734	-290.48019	451.58685	119.60949	147.27427	132.62821	120.42316	179.0074	207.48585	0
714	-87.06269	407.64867	493.08402	-160.29299	-290.48019	449.14584	119.60949	149.71528	135.06922	120.42316	181.44841	207.48585	0
715	-87.06269	405.20766	490.64301	-160.29299	-288.03918	446.70483	119.60949	152.15629	137.51023	122.86417	181.44841	207.48585	0
716	-84.62168	402.76665	485.76099	-160.29299	-285.59817	444.26382	119.60949	152.15629	137.51023	122.86417	183.88942	207.48585	0
717	-79.73966	400.32564	478.43796	-160.29299	-278.27514	439.3818	119.60949	154.5973	137.51023	122.86417	181.44841	207.48585	0
718	-72.41663	397.88463	468.67392	-162.734	-270.95211	432.05877	119.60949	152.15629	137.51023	125.30518	179.0074	207.48585	0
719	-69.97562	390.5616	458.90988	-160.29299	-263.62908	424.73574	114.72747	149.71528	137.51023	125.30518	179.0074	207.48585	0
720	-62.65259	383.23857	444.26382	-160.29299	-253.86504	412.53069	112.28646	147.27427	139.95124	127.74619	181.44841	202.60383	0
721	-57.77057	373.47453	429.61776	-157.85198	-244.101	400.32564	104.96343	144.83326	142.39225	130.1872	183.88942	197.72181	0
722	-52.88855	363.71049	414.9717	-155.41097	-234.33696	388.12059	97.6404	147.27427	142.39225	132.62821	183.88942	190.39878	0
723	-48.00653	351.50544	397.88463	-152.96996	-222.13191	373.47453	92.75838	149.71528	144.83326	132.62821	181.44841	183.07575	0
724	-43.12451	336.85938	378.35655	-148.08794	-209.92686	356.38746	90.31737	152.15629	144.83326	130.1872	179.0074	175.75272	0
725	-38.24249	324.65433	361.26948	-143.20592	-200.16282	341.7414	87.87636	154.5973	144.83326	127.74619	174.12538	168.42969	0
726	-30.91946	310.00827	339.30039	-140.76491	-185.51676	324.65433	85.43535	157.03831	144.83326	125.30518	169.24336	163.54767	0
727	-23.59643	292.9212	314.89029	-135.88289	-168.42969	302.68524	82.99434	157.03831	144.83326	120.42316	161.92033	156.22464	0
728	-16.2734	278.27514	292.9212	-131.00087	-153.78363	285.59817	78.11232	154.5973	142.39225	117.98215	154.5973	148.90161	0
729	-8.95037	261.18807	268.5111	-126.11885	-139.13757	263.62908	73.2303	149.71528	139.95124	115.54114	147.27427	139.13757	0
730	-4.06835	244.101	246.54201	-121.23683	-124.49151	244.101	68.34828	144.83326	139.95124	115.54114	144.83326	129.37353	0
731	1.62734	224.57292	222.13191	-113.9138	-109.84545	224.57292	61.02525	142.39225	139.95124	115.54114	142.39225	119.60949	0
732	6.50936	207.48585	200.16282	-106.59077	-97.6404	205.04484	56.14323	139.95124	137.51023	113.10013	139.95124	109.84545	0
733	13.83239	192.83979	178.19373	-104.14976	-82.99434	185.51676	48.8202	139.95124	135.06922	110.65912	135.06922	97.6404	0
734	18.71441	178.19373	158.66565	-99.26774	-70.78929	168.42969	48.8202	139.95124	132.62821	103.33609	127.74619	87.87636	0
735	18.71441	161.10666	141.57858	-89.5037	-61.02525	151.34262	46.37919	137.51023	127.74619	96.01306	120.42316	78.11232	0
736	21.15542	144.01959	122.0505	-82.18067	-51.26121	134.25555	46.37919	135.06922	125.30518	91.13104	113.10013	70.78929	0
737	23.59643	129.37353	104.96343	-77.29865	-41.49717	117.16848	43.93818	132.62821	117.98215	83.80801	103.33609	63.46626	0
738	26.03744	112.28646	85.43535	-69.97562	-29.29212	100.08141	39.05616	125.30518	110.65912	78.92599	93.57205	56.14323	0
739	26.03744	95.19939	68.34828	-60.21158	-21.96909	82.99434	36.61515	115.54114	105.7771	71.60296	83.80801	48.8202	0
740	26.03744	78.11232	51.26121	-52.88855	-12.20505	65.90727	29.29212	108.21811	100.89508	66.72094	78.92599	39.05616	0
741	26.03744	63.46626	36.61515	-45.56552	-4.88202	51.26121	24.4101	98.45407	96.01306	64.27993	76.48498	29.29212	0
742	26.03744	51.26121	24.4101	-38.24249	0	39.05616	19.52808	93.57205	91.13104	61.83892	71.60296	19.52808	0
743	28.47845	39.05616	9.76404	-33.36047	10.57771	24.4101	14.64606	91.13104	86.24902	56.9569	64.27993	9.76404	0
744	26.03744	26.85111	0	-26.03744	13.01872	14.64606	12.20505	86.24902	81.367	47.19286	59.39791	2.44101	0
745	23.59643	14.64606	-10.57771	-18.71441	17.90074	2.44101	12.20505	81.367	74.04397	37.42882	49.63387	-3.25468	0
746	23.59643	7.32303	-17.90074	-16.2734	20.34175	-5.69569	12.20505	78.92599	66.72094	27.66478	42.31084	-10.57771	0
747	26.03744	2.44101	-25.22377	-13.83239	25.22377	-10.57771	12.20505	76.48498	59.39791	20.34175	34.98781	-15.45973	0
748	28.47845	-3.25468	-32.5468	-13.83239	30.10579	-17.90074	12.20505	69.16195	52.07488	17.90074	27.66478	-17.90074	0
749	28.47845	-8.1367	-37.42882	-11.39138	32.5468	-22.78276	9.76404	61.83892	44.75185	10.57771	20.34175	-22.78276	0
750	28.47845	-15.45973	-44.75185	-6.50936	34.98781	-30.10579	6.50936	54.51589	39.86983	8.1367	17.90074	-27.66478	0
751	33.36047	-17.90074	-52.07488	-8.95037	42.31084	-34.98781	4.06835	48.8202	37.42882	5.69569	17.90074	-32.5468	0
752	35.80148	-20.34175	-56.9569	-8.95037	44.75185	-37.42882	1.62734	46.37919	34.98781	2.44101	17.90074	-37.42882	0
753	33.36047	-27.66478	-61.83892	-4.06835	47.19286	-44.75185	-3.25468	41.49717	30.10579	2.44101	13.01872	-42.31084	0
754	30.91946	-34.98781	-66.72094	0.81367	47.19286	-49.63387	-0.81367	41.49717	26.85111	-4.88202	10.57771	-47.19286	0
755	28.47845	-37.42882	-66.72094	4.06835	47.19286	-52.07488	-0.81367	39.05616	21.96909	-12.20505	5.69569	-49.63387	0
756	26.03744	-39.86983	-66.72094	6.50936	44.75185	-52.07488	1.62734	36.61515	17.08707	-17.08707	0.81367	-52.07488	0
757	23.59643	-42.31084	-66.72094	8.95037	44.75185	-54.51589	1.62734	34.17414	12.20505	-21.96909	-4.06835	-52.07488	0
758	23.59643	-44.75185	-69.16195	8.95037	44.75185	-56.9569	1.62734	29.29212	7.32303	-21.96909	-7.32303	-52.07488	0
759	23.59643	-44.75185	-69.16195	8.95037	44.75185	-56.9569	4.06835	26.85111	4.88202	-26.85111	-9.76404	-54.51589	0
760	21.15542	-49.63387	-71.60296	13.83239	44.75185	-59.39791	4.06835	21.96909	2.44101	-26.85111	-9.76404	-56.9569	0
761	21.15542	-52.07488	-74.04397	13.83239	47.19286	-61.83892	-0.81367	17.08707	0	-26.85111	-9.76404	-59.39791	0
762	21.15542	-54.51589	-76.48498	16.2734	47.19286	-64.27993	-5.69569	12.20505	-2.44101	-26.85111	-9.76404	-64.27993	0
763	21.15542	-54.51589	-76.48498	16.2734	47.19286	-64.27993	-8.1367	12.20505	-4.88202	-29.29212	-9.76404	-64.27993	0
764	21.15542	-54.51589	-76.48498	16.2734	47.19286	-64.27993	-5.69569	12.20505	-7.32303	-31.73313	-12.20505	-66.72094	0
765	21.15542	-54.51589	-76.48498	16.2734	47.19286	-64.27993	-5.69569	12.20505	-12.20505	-36.61515	-14.64606	-66.72094	0
766	21.15542	-54.51589	-76.48498	16.2734	47.19286	-64.27993	-3.25468	12.20505	-12.20505	-39.05616	-17.08707	-66.72094	0
767	21.15542	-56.9569	-78.92599	16.2734	49.63387	-66.72094	-0.81367	9.76404	-14.64606	-41.49717	-21.96909	-66.72094	0
768	18.71441	-56.9569	-76.48498	18.71441	47.19286	-66.72094	-0.81367	9.76404	-17.08707	-41.49717	-24.4101	-66.72094	0
769	18.71441	-56.9569	-76.48498	18.71441	47.19286	-66.72094	-0.81367	7.32303	-19.52808	-41.49717	-26.85111	-66.72094	0
770	18.71441	-59.39791	-78.92599	18.71441	47.19286	-69.16195	-0.81367	2.44101	-19.52808	-39.05616	-26.85111	-66.72094	0
771	16.2734	-64.27993	-81.367	23.59643	47.19286	-71.60296	-0.81367	-2.44101	-19.52808	-39.05616	-24.4101	-66.72094	0
772	16.2734	-66.72094	-83.80801	23.59643	49.63387	-74.04397	-3.25468	-2.44101	-19.52808	-36.61515	-21.96909	-69.16195	0
773	16.2734	-66.72094	-83.80801	23.59643	49.63387	-74.04397	-5.69569	-2.44101	-19.52808	-36.61515	-19.52808	-69.16195	0
774	18.71441	-64.27993	-83.80801	21.15542	49.63387	-74.04397	-0.81367	0	-19.52808	-36.61515	-19.52808	-69.16195	0
775	18.71441	-64.27993	-83.80801	21.15542	49.63387	-74.04397	1.62734	2.44101	-19.52808	-39.05616	-19.52808	-69.16195	0
776	16.2734	-61.83892	-78.92599	21.15542	47.19286	-69.16195	4.06835	4.88202	-19.52808	-41.49717	-21.96909	-66.72094	0
777	16.2734	-59.39791	-76.48498	21.15542	44.75185	-66.72094	4.06835	7.32303	-21.96909	-43.93818	-26.85111	-66.72094	0
778	16.2734	-56.9569	-74.04397	18.71441	44.75185	-64.27993	4.06835	7.32303	-24.4101	-43.93818	-29.29212	-66.72094	0
779	16.2734	-56.9569	-74.04397	18.71441	44.75185	-64.27993	6.50936	7.32303	-24.4101	-43.93818	-29.29212	-64.27993	0
780	16.2734	-59.39791	-76.48498	21.15542	44.75185	-66.72094	4.06835	4.88202	-24.4101	-41.49717	-29.29212	-64.27993	0
781	16.2734	-64.27993	-81.367	23.59643	47.19286	-71.60296	1.62734	2.44101	-24.4101	-39.05616	-26.85111	-66.72094	0
782	16.2734	-64.27993	-81.367	23.59643	47.19286	-71.60296	1.62734	2.44101	-24.4101	-39.05616	-24.4101	-66.72094	0
783	16.2734	-64.27993	-81.367	23.59643	47.19286	-71.60296	1.62734	4.88202	-24.4101	-36.61515	-24.4101	-66.72094	0
784	13.83239	-64.27993	-78.92599	23.59643	44.75185	-71.60296	4.06835	7.32303	-21.96909	-36.61515	-24.4101	-66.72094	0
785	13.83239	-61.83892	-76.48498	23.59643	44.75185	-69.16195	4.06835	9.76404	-21.96909	-39.05616	-24.4101	-66.72094	0
786	13.83239	-61.83892	-76.48498	23.59643	44.75185	-69.16195	6.50936	12.20505	-21.96909	-43.93818	-26.85111	-66.72094	0
787	13.83239	-61.83892	-76.48498	23.59643	44.75185	-69.16195	6.50936	14.64606	-21.96909	-43.93818	-26.85111	-64.27993	0
788	13.83239	-59.39791	-74.04397	21.15542	42.31084	-66.72094	6.50936	14.64606	-24.4101	-43.93818	-31.73313	-61.83892	0
789	16.2734	-59.39791	-76.48498	21.15542	44.75185	-66.72094	6.50936	14.64606	-24.4101	-43.93818	-31.73313	-61.83892	0
790	16.2734	-61.83892	-78.92599	21.15542	47.19286	-69.16195	6.50936	12.20505	-24.4101	-43.93818	-31.73313	-61.83892	0
791	16.2734	-61.83892	-78.92599	21.15542	47.19286	-69.16195	4.06835	12.20505	-21.96909	-39.05616	-29.29212	-61.83892	0
792	18.71441	-59.39791	-78.92599	18.71441	47.19286	-69.16195	4.06835	14.64606	-19.52808	-36.61515	-26.85111	-61.83892	0
793	18.71441	-61.83892	-81.367	21.15542	49.63387	-71.60296	4.06835	14.64606	-17.08707	-36.61515	-26.85111	-61.83892	0
794	18.71441	-61.83892	-81.367	21.15542	49.63387	-71.60296	6.50936	19.52808	-17.08707	-36.61515	-29.29212	-61.83892	0
795	18.71441	-61.83892	-81.367	21.15542	49.63387	-71.60296	9.76404	21.96909	-17.08707	-39.05616	-31.73313	-64.27993	0
796	18.71441	-61.83892	-81.367	21.15542	49.63387	-71.60296	9.76404	24.4101	-17.08707	-41.49717	-31.73313	-64.27993	0
797	13.83239	-66.72094	-81.367	26.03744	47.19286	-74.04397	12.20505	24.4101	-19.52808	-46.37919	-36.61515	-64.27993	0
798	8.95037	-69.16195	-78.92599	28.47845	42.31084	-74.04397	12.20505	24.4101	-21.96909	-46.37919	-36.61515	-64.27993	0
799	11.39138	-69.16195	-81.367	28.47845	44.75185	-74.04397	12.20505	24.4101	-21.96909	-46.37919	-39.05616	-64.27993	0
800	13.83239	-69.16195	-83.80801	26.03744	47.19286	-76.48498	12.20505	21.96909	-19.52808	-43.93818	-31.73313	-61.83892	0
801	13.83239	-69.16195	-83.80801	26.03744	47.19286	-76.48498	12.20505	19.52808	-17.08707	-41.49717	-31.73313	-64.27993	0
802	13.83239	-69.16195	-83.80801	26.03744	47.19286	-76.48498	9.76404	19.52808	-14.64606	-39.05616	-31.73313	-66.72094	0
803	16.2734	-66.72094	-83.80801	23.59643	49.63387	-74.04397	6.50936	24.4101	-9.76404	-34.17414	-31.73313	-66.72094	0
804	21.15542	-61.83892	-83.80801	18.71441	52.07488	-71.60296	14.64606	29.29212	-7.32303	-31.73313	-31.73313	-66.72094	0
805	23.59643	-56.9569	-81.367	16.2734	52.07488	-69.16195	17.08707	34.17414	-4.88202	-31.73313	-29.29212	-66.72094	0
806	21.15542	-59.39791	-81.367	18.71441	49.63387	-69.16195	19.52808	36.61515	-2.44101	-31.73313	-31.73313	-66.72094	0
807	21.15542	-59.39791	-81.367	18.71441	49.63387	-69.16195	19.52808	39.05616	-2.44101	-31.73313	-31.73313	-66.72094	0
808	21.15542	-56.9569	-78.92599	16.2734	49.63387	-66.72094	21.96909	41.49717	-4.88202	-31.73313	-31.73313	-66.72094	0
809	21.15542	-56.9569	-78.92599	16.2734	49.63387	-66.72094	24.4101	41.49717	-4.88202	-34.17414	-29.29212	-66.72094	0
810	23.59643	-56.9569	-81.367	16.2734	52.07488	-69.16195	24.4101	39.05616	-2.44101	-31.73313	-24.4101	-66.72094	0
811	23.59643	-61.83892	-86.24902	18.71441	54.51589	-74.04397	24.4101	39.05616	0	-29.29212	-24.4101	-66.72094	0
812	21.15542	-64.27993	-86.24902	21.15542	52.07488	-74.04397	24.4101	39.05616	2.44101	-24.4101	-24.4101	-69.16195	0
813	18.71441	-66.72094	-86.24902	23.59643	52.07488	-76.48498	19.52808	41.49717	4.88202	-21.96909	-26.85111	-71.60296	0
814	18.71441	-66.72094	-86.24902	23.59643	52.07488	-76.48498	21.96909	43.93818	7.32303	-19.52808	-26.85111	-71.60296	0
815	16.2734	-66.72094	-83.80801	23.59643	49.63387	-74.04397	24.4101	46.37919	7.32303	-19.52808	-26.85111	-71.60296	0
816	16.2734	-69.16195	-86.24902	26.03744	49.63387	-76.48498	24.4101	48.8202	9.76404	-17.08707	-29.29212	-71.60296	0
817	18.71441	-66.72094	-86.24902	23.59643	52.07488	-76.48498	24.4101	51.26121	7.32303	-19.52808	-29.29212	-69.16195	0
818	21.15542	-64.27993	-86.24902	21.15542	52.07488	-74.04397	29.29212	51.26121	7.32303	-19.52808	-26.85111	-64.27993	0
819	21.15542	-64.27993	-86.24902	21.15542	52.07488	-74.04397	29.29212	51.26121	4.88202	-21.96909	-24.4101	-64.27993	0
820	23.59643	-66.72094	-91.13104	21.15542	56.9569	-78.92599	31.73313	48.8202	4.88202	-21.96909	-19.52808	-61.83892	0
821	26.03744	-66.72094	-93.57205	18.71441	59.39791	-78.92599	31.73313	46.37919	4.88202	-19.52808	-17.08707	-61.83892	0
822	26.03744	-66.72094	-93.57205	18.71441	59.39791	-78.92599	29.29212	43.93818	7.32303	-12.20505	-17.08707	-61.83892	0
823	26.03744	-66.72094	-93.57205	18.71441	59.39791	-78.92599	29.29212	46.37919	9.76404	-7.32303	-17.08707	-61.83892	0
824	23.59643	-69.16195	-93.57205	21.15542	56.9569	-81.367	29.29212	48.8202	12.20505	-4.88202	-17.08707	-61.83892	0
825	26.03744	-69.16195	-96.01306	21.15542	59.39791	-81.367	29.29212	51.26121	12.20505	-4.88202	-17.08707	-61.83892	0
826	26.03744	-69.16195	-96.01306	21.15542	59.39791	-81.367	26.85111	51.26121	14.64606	-4.88202	-17.08707	-64.27993	0
827	26.03744	-69.16195	-96.01306	21.15542	59.39791	-81.367	26.85111	54.51589	14.64606	-4.88202	-17.08707	-64.27993	0
828	26.03744	-69.16195	-96.01306	21.15542	59.39791	-81.367	29.29212	56.9569	12.20505	-7.32303	-17.08707	-61.83892	0
829	23.59643	-69.16195	-93.57205	21.15542	56.9569	-81.367	29.29212	56.9569	12.20505	-12.20505	-14.64606	-59.39791	0
830	26.03744	-71.60296	-98.45407	21.15542	61.83892	-83.80801	31.73313	54.51589	12.20505	-12.20505	-9.76404	-56.9569	0
831	26.03744	-71.60296	-98.45407	21.15542	61.83892	-83.80801	31.73313	51.26121	14.64606	-9.76404	-9.76404	-56.9569	0
832	26.03744	-74.04397	-100.89508	23.59643	61.83892	-86.24902	29.29212	48.8202	14.64606	-4.88202	-9.76404	-56.9569	0
833	21.15542	-78.92599	-100.89508	28.47845	59.39791	-88.69003	26.85111	48.8202	14.64606	0	-12.20505	-56.9569	0
834	21.15542	-78.92599	-100.89508	28.47845	59.39791	-88.69003	26.85111	51.26121	17.08707	2.44101	-14.64606	-56.9569	0
835	23.59643	-74.04397	-98.45407	23.59643	59.39791	-86.24902	26.85111	51.26121	21.96909	2.44101	-9.76404	-56.9569	0
836	26.03744	-69.16195	-96.01306	21.15542	59.39791	-81.367	29.29212	54.51589	24.4101	5.69569	-9.76404	-56.9569	0
837	26.03744	-69.16195	-96.01306	21.15542	59.39791	-81.367	29.29212	59.39791	24.4101	5.69569	-9.76404	-56.9569	0
838	26.03744	-66.72094	-93.57205	18.71441	59.39791	-78.92599	29.29212	59.39791	21.96909	5.69569	-7.32303	-54.51589	0
839	30.91946	-61.83892	-93.57205	13.83239	61.83892	-76.48498	31.73313	61.83892	21.96909	2.44101	-4.06835	-49.63387	0
840	35.80148	-56.9569	-93.57205	8.95037	64.27993	-74.04397	31.73313	59.39791	21.96909	0	0.81367	-49.63387	0
841	35.80148	-59.39791	-96.01306	11.39138	64.27993	-76.48498	31.73313	56.9569	21.96909	0	-1.62734	-47.19286	0
842	35.80148	-61.83892	-98.45407	11.39138	66.72094	-78.92599	26.85111	54.51589	19.52808	2.44101	-4.06835	-47.19286	0
843	35.80148	-64.27993	-100.89508	13.83239	66.72094	-81.367	21.96909	51.26121	17.08707	5.69569	-7.32303	-47.19286	0
844	35.80148	-64.27993	-100.89508	13.83239	66.72094	-81.367	19.52808	51.26121	17.08707	8.1367	-7.32303	-47.19286	0
845	35.80148	-64.27993	-100.89508	13.83239	66.72094	-81.367	19.52808	51.26121	19.52808	10.57771	-7.32303	-49.63387	0
846	35.80148	-64.27993	-100.89508	13.83239	66.72094	-81.367	17.08707	51.26121	19.52808	10.57771	-7.32303	-49.63387	0
847	35.80148	-61.83892	-98.45407	11.39138	66.72094	-78.92599	17.08707	54.51589	19.52808	8.1367	-7.32303	-47.19286	0
848	35.80148	-61.83892	-98.45407	11.39138	66.72094	-78.92599	17.08707	54.51589	17.08707	2.44101	-4.06835	-47.19286	0
849	38.24249	-61.83892	-100.89508	11.39138	69.16195	-81.367	19.52808	56.9569	17.08707	0	-4.06835	-44.75185	0
850	38.24249	-61.83892	-100.89508	11.39138	69.16195	-81.367	21.96909	54.51589	14.64606	-2.44101	-1.62734	-42.31084	0
851	40.6835	-61.83892	-103.33609	8.95037	71.60296	-81.367	21.96909	54.51589	14.64606	-2.44101	-4.06835	-39.86983	0
852	40.6835	-61.83892	-103.33609	8.95037	71.60296	-81.367	21.96909	51.26121	14.64606	0	-7.32303	-39.86983	0
853	40.6835	-64.27993	-105.7771	11.39138	71.60296	-83.80801	19.52808	51.26121	14.64606	2.44101	-9.76404	-42.31084	0
854	40.6835	-66.72094	-108.21811	11.39138	74.04397	-86.24902	17.08707	51.26121	17.08707	8.1367	-12.20505	-42.31084	0
855	40.6835	-69.16195	-110.65912	13.83239	74.04397	-88.69003	12.20505	51.26121	19.52808	10.57771	-14.64606	-44.75185	0
856	38.24249	-69.16195	-108.21811	13.83239	71.60296	-88.69003	9.76404	48.8202	21.96909	13.01872	-14.64606	-47.19286	0
857	38.24249	-69.16195	-108.21811	13.83239	71.60296	-88.69003	6.50936	51.26121	21.96909	10.57771	-14.64606	-47.19286	0
858	35.80148	-69.16195	-105.7771	16.2734	69.16195	-86.24902	6.50936	51.26121	21.96909	5.69569	-14.64606	-47.19286	0
859	35.80148	-69.16195	-105.7771	16.2734	69.16195	-86.24902	9.76404	51.26121	19.52808	2.44101	-12.20505	-44.75185	0
860	35.80148	-69.16195	-105.7771	16.2734	69.16195	-86.24902	12.20505	51.26121	19.52808	-2.44101	-9.76404	-44.75185	0
861	35.80148	-69.16195	-105.7771	16.2734	69.16195	-86.24902	14.64606	51.26121	17.08707	-2.44101	-9.76404	-42.31084	0
862	33.36047	-69.16195	-103.33609	16.2734	66.72094	-86.24902	17.08707	46.37919	17.08707	0	-12.20505	-42.31084	0
863	33.36047	-69.16195	-103.33609	16.2734	66.72094	-86.24902	17.08707	43.93818	17.08707	2.44101	-14.64606	-42.31084	0
864	33.36047	-71.60296	-105.7771	18.71441	69.16195	-88.69003	14.64606	41.49717	17.08707	8.1367	-14.64606	-42.31084	0
865	33.36047	-71.60296	-105.7771	18.71441	69.16195	-88.69003	12.20505	41.49717	19.52808	10.57771	-14.64606	-44.75185	0
866	33.36047	-71.60296	-105.7771	18.71441	69.16195	-88.69003	9.76404	41.49717	19.52808	13.01872	-17.08707	-44.75185	0
867	30.91946	-71.60296	-103.33609	18.71441	66.72094	-86.24902	6.50936	41.49717	19.52808	13.01872	-17.08707	-47.19286	0
868	30.91946	-74.04397	-105.7771	21.15542	66.72094	-88.69003	6.50936	43.93818	17.08707	8.1367	-17.08707	-47.19286	0
869	26.03744	-74.04397	-100.89508	23.59643	61.83892	-86.24902	9.76404	46.37919	17.08707	5.69569	-14.64606	-47.19286	0
870	26.03744	-76.48498	-103.33609	23.59643	64.27993	-88.69003	14.64606	46.37919	17.08707	2.44101	-12.20505	-44.75185	0
871	26.03744	-76.48498	-103.33609	23.59643	64.27993	-88.69003	17.08707	46.37919	14.64606	0	-12.20505	-42.31084	0
872	26.03744	-74.04397	-100.89508	23.59643	61.83892	-86.24902	19.52808	46.37919	14.64606	2.44101	-14.64606	-39.86983	0
873	26.03744	-74.04397	-100.89508	23.59643	61.83892	-86.24902	19.52808	43.93818	14.64606	5.69569	-17.08707	-39.86983	0
874	26.03744	-76.48498	-103.33609	23.59643	64.27993	-88.69003	17.08707	43.93818	14.64606	10.57771	-19.52808	-39.86983	0
875	28.47845	-76.48498	-105.7771	23.59643	66.72094	-91.13104	14.64606	43.93818	17.08707	13.01872	-19.52808	-42.31084	0
876	28.47845	-74.04397	-103.33609	21.15542	64.27993	-88.69003	12.20505	43.93818	19.52808	13.01872	-19.52808	-44.75185	0
877	28.47845	-74.04397	-103.33609	21.15542	64.27993	-88.69003	9.76404	46.37919	19.52808	15.45973	-19.52808	-44.75185	0
878	26.03744	-76.48498	-103.33609	23.59643	64.27993	-88.69003	9.76404	48.8202	14.64606	10.57771	-21.96909	-44.75185	0
879	21.15542	-81.367	-103.33609	28.47845	61.83892	-91.13104	9.76404	48.8202	12.20505	2.44101	-21.96909	-44.75185	0
880	18.71441	-83.80801	-103.33609	30.91946	59.39791	-93.57205	12.20505	48.8202	12.20505	0	-21.96909	-44.75185	0
881	18.71441	-81.367	-100.89508	30.91946	59.39791	-91.13104	17.08707	46.37919	12.20505	0	-21.96909	-42.31084	0
882	21.15542	-81.367	-103.33609	28.47845	61.83892	-91.13104	17.08707	46.37919	12.20505	2.44101	-24.4101	-42.31084	0
883	21.15542	-81.367	-103.33609	28.47845	61.83892	-91.13104	17.08707	43.93818	12.20505	2.44101	-26.85111	-42.31084	0
884	21.15542	-81.367	-103.33609	28.47845	61.83892	-91.13104	14.64606	43.93818	12.20505	5.69569	-29.29212	-44.75185	0
885	26.03744	-78.92599	-105.7771	26.03744	64.27993	-91.13104	12.20505	41.49717	17.08707	10.57771	-29.29212	-44.75185	0
886	28.47845	-76.48498	-105.7771	23.59643	66.72094	-91.13104	9.76404	43.93818	17.08707	13.01872	-29.29212	-44.75185	0
887	30.91946	-76.48498	-108.21811	21.15542	69.16195	-91.13104	9.76404	43.93818	19.52808	15.45973	-26.85111	-44.75185	0
888	28.47845	-78.92599	-108.21811	23.59643	66.72094	-93.57205	9.76404	46.37919	17.08707	10.57771	-26.85111	-44.75185	0
889	28.47845	-78.92599	-108.21811	23.59643	66.72094	-93.57205	12.20505	48.8202	17.08707	5.69569	-26.85111	-47.19286	0
890	28.47845	-81.367	-110.65912	26.03744	69.16195	-96.01306	14.64606	48.8202	17.08707	2.44101	-24.4101	-44.75185	0
891	28.47845	-81.367	-110.65912	26.03744	69.16195	-96.01306	17.08707	48.8202	17.08707	2.44101	-26.85111	-44.75185	0
892	28.47845	-81.367	-110.65912	26.03744	69.16195	-96.01306	17.08707	46.37919	14.64606	2.44101	-26.85111	-44.75185	0
893	28.47845	-81.367	-110.65912	26.03744	69.16195	-96.01306	17.08707	43.93818	14.64606	5.69569	-31.73313	-47.19286	0
894	28.47845	-81.367	-110.65912	26.03744	69.16195	-96.01306	17.08707	43.93818	14.64606	10.57771	-31.73313	-47.19286	0
895	28.47845	-83.80801	-113.10013	26.03744	69.16195	-98.45407	14.64606	41.49717	19.52808	13.01872	-31.73313	-47.19286	0
896	30.91946	-83.80801	-115.54114	26.03744	71.60296	-98.45407	9.76404	41.49717	19.52808	15.45973	-31.73313	-49.63387	0
897	30.91946	-86.24902	-117.98215	26.03744	74.04397	-100.89508	9.76404	43.93818	19.52808	15.45973	-31.73313	-49.63387	0
898	28.47845	-86.24902	-115.54114	28.47845	71.60296	-100.89508	9.76404	46.37919	19.52808	13.01872	-31.73313	-49.63387	0
899	26.03744	-88.69003	-115.54114	30.91946	69.16195	-100.89508	12.20505	46.37919	19.52808	8.1367	-31.73313	-49.63387	0
900	26.03744	-88.69003	-115.54114	30.91946	69.16195	-100.89508	12.20505	46.37919	17.08707	2.44101	-29.29212	-49.63387	0
901	23.59643	-88.69003	-113.10013	30.91946	66.72094	-100.89508	17.08707	46.37919	14.64606	2.44101	-31.73313	-49.63387	0
902	21.15542	-88.69003	-110.65912	33.36047	64.27993	-98.45407	17.08707	43.93818	14.64606	2.44101	-34.17414	-47.19286	0
903	21.15542	-88.69003	-110.65912	33.36047	64.27993	-98.45407	17.08707	41.49717	14.64606	8.1367	-36.61515	-47.19286	0
904	21.15542	-91.13104	-113.10013	33.36047	66.72094	-100.89508	14.64606	39.05616	14.64606	10.57771	-36.61515	-49.63387	0
905	21.15542	-91.13104	-113.10013	33.36047	66.72094	-100.89508	12.20505	39.05616	14.64606	13.01872	-36.61515	-52.07488	0
906	21.15542	-93.57205	-115.54114	35.80148	66.72094	-103.33609	9.76404	39.05616	17.08707	15.45973	-36.61515	-52.07488	0
907	21.15542	-93.57205	-115.54114	35.80148	66.72094	-103.33609	6.50936	39.05616	19.52808	15.45973	-36.61515	-52.07488	0
908	21.15542	-93.57205	-115.54114	35.80148	66.72094	-103.33609	6.50936	41.49717	19.52808	13.01872	-36.61515	-54.51589	0
909	21.15542	-93.57205	-115.54114	35.80148	66.72094	-103.33609	6.50936	43.93818	17.08707	5.69569	-36.61515	-54.51589	0
910	23.59643	-96.01306	-120.42316	35.80148	71.60296	-108.21811	12.20505	43.93818	17.08707	2.44101	-34.17414	-54.51589	0
911	26.03744	-93.57205	-120.42316	33.36047	71.60296	-105.7771	14.64606	43.93818	17.08707	2.44101	-36.61515	-54.51589	0
912	28.47845	-91.13104	-120.42316	30.91946	74.04397	-105.7771	14.64606	41.49717	14.64606	2.44101	-36.61515	-52.07488	0
913	28.47845	-91.13104	-120.42316	30.91946	74.04397	-105.7771	14.64606	41.49717	14.64606	5.69569	-41.49717	-52.07488	0
914	28.47845	-93.57205	-122.86417	30.91946	74.04397	-108.21811	12.20505	39.05616	14.64606	8.1367	-41.49717	-54.51589	0
915	28.47845	-93.57205	-122.86417	30.91946	74.04397	-108.21811	12.20505	39.05616	17.08707	10.57771	-41.49717	-54.51589	0
916	28.47845	-96.01306	-125.30518	33.36047	76.48498	-110.65912	6.50936	39.05616	17.08707	13.01872	-41.49717	-56.9569	0
917	23.59643	-98.45407	-122.86417	35.80148	71.60296	-110.65912	6.50936	39.05616	17.08707	13.01872	-43.93818	-56.9569	0
918	21.15542	-100.89508	-122.86417	38.24249	71.60296	-110.65912	6.50936	41.49717	14.64606	10.57771	-43.93818	-56.9569	0
919	18.71441	-103.33609	-122.86417	40.6835	69.16195	-113.10013	6.50936	43.93818	12.20505	2.44101	-43.93818	-56.9569	0
920	18.71441	-103.33609	-122.86417	40.6835	69.16195	-113.10013	6.50936	43.93818	12.20505	2.44101	-41.49717	-56.9569	0
921	18.71441	-103.33609	-122.86417	40.6835	69.16195	-113.10013	9.76404	41.49717	9.76404	0	-43.93818	-54.51589	0
922	21.15542	-105.7771	-127.74619	40.6835	74.04397	-115.54114	9.76404	39.05616	7.32303	2.44101	-46.37919	-54.51589	0
923	21.15542	-105.7771	-127.74619	40.6835	74.04397	-115.54114	12.20505	36.61515	7.32303	5.69569	-48.8202	-54.51589	0
924	18.71441	-113.10013	-132.62821	45.56552	74.04397	-122.86417	6.50936	34.17414	7.32303	8.1367	-51.26121	-56.9569	0
925	13.83239	-115.54114	-130.1872	50.44754	71.60296	-122.86417	6.50936	29.29212	7.32303	8.1367	-51.26121	-61.83892	0
926	16.2734	-117.98215	-135.06922	50.44754	74.04397	-125.30518	4.06835	31.73313	7.32303	10.57771	-51.26121	-61.83892	0
927	18.71441	-115.54114	-135.06922	48.00653	76.48498	-125.30518	4.06835	34.17414	9.76404	10.57771	-51.26121	-61.83892	0
928	18.71441	-113.10013	-132.62821	45.56552	74.04397	-122.86417	6.50936	36.61515	9.76404	8.1367	-48.8202	-61.83892	0
929	18.71441	-113.10013	-132.62821	45.56552	74.04397	-122.86417	6.50936	39.05616	7.32303	2.44101	-48.8202	-61.83892	0
930	21.15542	-113.10013	-135.06922	45.56552	76.48498	-122.86417	9.76404	39.05616	7.32303	0	-46.37919	-59.39791	0
931	23.59643	-108.21811	-132.62821	40.6835	76.48498	-120.42316	14.64606	39.05616	7.32303	0	-46.37919	-56.9569	0
932	26.03744	-105.7771	-132.62821	38.24249	78.92599	-117.98215	14.64606	39.05616	7.32303	2.44101	-46.37919	-56.9569	0
933	26.03744	-108.21811	-135.06922	40.6835	78.92599	-120.42316	14.64606	36.61515	4.88202	2.44101	-51.26121	-56.9569	0
934	23.59643	-113.10013	-137.51023	43.12451	78.92599	-125.30518	12.20505	34.17414	4.88202	5.69569	-53.70222	-59.39791	0
935	18.71441	-115.54114	-135.06922	48.00653	76.48498	-125.30518	6.50936	29.29212	4.88202	5.69569	-53.70222	-61.83892	0
936	18.71441	-117.98215	-137.51023	48.00653	76.48498	-127.74619	4.06835	29.29212	4.88202	8.1367	-53.70222	-64.27993	0
937	18.71441	-117.98215	-137.51023	48.00653	76.48498	-127.74619	1.62734	29.29212	4.88202	8.1367	-53.70222	-64.27993	0
938	18.71441	-115.54114	-135.06922	48.00653	76.48498	-125.30518	4.06835	34.17414	4.88202	8.1367	-51.26121	-64.27993	0
939	16.2734	-115.54114	-132.62821	48.00653	74.04397	-122.86417	6.50936	34.17414	4.88202	2.44101	-48.8202	-61.83892	0
940	16.2734	-115.54114	-132.62821	48.00653	74.04397	-122.86417	6.50936	34.17414	4.88202	-2.44101	-48.8202	-59.39791	0
941	16.2734	-113.10013	-130.1872	48.00653	71.60296	-120.42316	9.76404	34.17414	4.88202	-2.44101	-48.8202	-56.9569	0
942	16.2734	-108.21811	-125.30518	45.56552	69.16195	-115.54114	12.20505	31.73313	4.88202	0	-48.8202	-56.9569	0
943	16.2734	-108.21811	-125.30518	45.56552	69.16195	-115.54114	12.20505	31.73313	4.88202	2.44101	-48.8202	-56.9569	0
944	16.2734	-108.21811	-125.30518	45.56552	69.16195	-115.54114	9.76404	26.85111	4.88202	2.44101	-48.8202	-59.39791	0
945	16.2734	-110.65912	-127.74619	45.56552	71.60296	-117.98215	6.50936	24.4101	4.88202	5.69569	-48.8202	-61.83892	0
946	16.2734	-113.10013	-130.1872	48.00653	71.60296	-120.42316	4.06835	24.4101	4.88202	8.1367	-51.26121	-61.83892	0
947	16.2734	-113.10013	-130.1872	48.00653	71.60296	-120.42316	1.62734	26.85111	2.44101	8.1367	-51.26121	-61.83892	0
948	16.2734	-113.10013	-130.1872	48.00653	71.60296	-120.42316	4.06835	29.29212	2.44101	5.69569	-51.26121	-61.83892	0
949	16.2734	-113.10013	-130.1872	48.00653	71.60296	-120.42316	6.50936	31.73313	2.44101	2.44101	-48.8202	-61.83892	0
950	13.83239	-113.10013	-127.74619	48.00653	69.16195	-120.42316	6.50936	31.73313	2.44101	-2.44101	-48.8202	-59.39791	0
951	11.39138	-113.10013	-125.30518	50.44754	66.72094	-117.98215	9.76404	29.29212	0	-4.88202	-51.26121	-56.9569	0
952	11.39138	-113.10013	-125.30518	50.44754	66.72094	-117.98215	9.76404	29.29212	0	0	-51.26121	-56.9569	0
953	11.39138	-110.65912	-122.86417	48.00653	66.72094	-115.54114	12.20505	26.85111	0	2.44101	-51.26121	-56.9569	0
954	11.39138	-108.21811	-120.42316	48.00653	64.27993	-113.10013	9.76404	24.4101	0	8.1367	-53.70222	-56.9569	0
955	13.83239	-105.7771	-120.42316	45.56552	66.72094	-113.10013	9.76404	24.4101	2.44101	13.01872	-53.70222	-56.9569	0
956	13.83239	-103.33609	-117.98215	43.12451	64.27993	-110.65912	6.50936	24.4101	4.88202	15.45973	-51.26121	-54.51589	0
957	16.2734	-103.33609	-120.42316	43.12451	66.72094	-110.65912	6.50936	29.29212	7.32303	17.90074	-48.8202	-52.07488	0
958	18.71441	-96.01306	-115.54114	38.24249	66.72094	-105.7771	12.20505	34.17414	9.76404	17.90074	-46.37919	-49.63387	0
959	18.71441	-88.69003	-108.21811	33.36047	61.83892	-98.45407	14.64606	39.05616	12.20505	17.90074	-41.49717	-44.75185	0
960	18.71441	-83.80801	-103.33609	30.91946	59.39791	-93.57205	19.52808	41.49717	17.08707	15.45973	-36.61515	-39.86983	0
961	18.71441	-78.92599	-98.45407	28.47845	56.9569	-88.69003	21.96909	43.93818	17.08707	15.45973	-36.61515	-34.98781	0
962	16.2734	-74.04397	-91.13104	28.47845	52.07488	-81.367	21.96909	43.93818	17.08707	20.34175	-36.61515	-32.5468	0
963	16.2734	-69.16195	-86.24902	26.03744	49.63387	-76.48498	21.96909	41.49717	21.96909	25.22377	-34.17414	-30.10579	0
964	21.15542	-61.83892	-83.80801	18.71441	52.07488	-71.60296	19.52808	43.93818	26.85111	34.98781	-31.73313	-27.66478	0
965	26.03744	-56.9569	-83.80801	13.83239	54.51589	-69.16195	19.52808	43.93818	30.10579	39.86983	-26.85111	-25.22377	0
966	26.03744	-54.51589	-81.367	13.83239	52.07488	-66.72094	19.52808	48.8202	32.5468	44.75185	-26.85111	-22.78276	0
967	28.47845	-52.07488	-81.367	11.39138	54.51589	-66.72094	19.52808	51.26121	34.98781	47.19286	-21.96909	-20.34175	0
968	30.91946	-49.63387	-81.367	8.95037	54.51589	-64.27993	21.96909	54.51589	37.42882	47.19286	-19.52808	-17.90074	0
969	35.80148	-42.31084	-78.92599	0.81367	56.9569	-59.39791	26.85111	59.39791	37.42882	44.75185	-17.08707	-15.45973	0
970	38.24249	-42.31084	-81.367	0.81367	59.39791	-61.83892	29.29212	61.83892	39.86983	42.31084	-12.20505	-10.57771	0
971	38.24249	-42.31084	-81.367	0.81367	59.39791	-61.83892	31.73313	64.27993	39.86983	42.31084	-12.20505	-8.1367	0
972	45.56552	-39.86983	-86.24902	-4.06835	64.27993	-61.83892	31.73313	64.27993	44.75185	49.63387	-9.76404	-5.69569	0
973	55.32956	-39.86983	-96.01306	-8.95037	74.04397	-66.72094	29.29212	69.16195	49.63387	56.9569	-7.32303	-3.25468	0
974	62.65259	-42.31084	-105.7771	-11.39138	83.80801	-74.04397	26.85111	71.60296	54.51589	64.27993	-7.32303	-3.25468	0
975	67.53461	-44.75185	-113.10013	-11.39138	88.69003	-78.92599	26.85111	74.04397	59.39791	71.60296	-1.62734	-3.25468	0
976	72.41663	-47.19286	-120.42316	-13.83239	96.01306	-83.80801	21.96909	78.92599	64.27993	76.48498	0.81367	-3.25468	0
977	74.85764	-52.07488	-127.74619	-11.39138	100.89508	-88.69003	19.52808	81.367	69.16195	78.92599	3.25468	0	0
978	77.29865	-54.51589	-132.62821	-11.39138	103.33609	-93.57205	17.08707	83.80801	69.16195	78.92599	8.1367	0	0
979	77.29865	-54.51589	-132.62821	-11.39138	103.33609	-93.57205	12.20505	86.24902	69.16195	74.04397	10.57771	2.44101	0
980	77.29865	-52.07488	-130.1872	-13.83239	103.33609	-91.13104	6.50936	86.24902	71.60296	74.04397	15.45973	7.32303	0
981	77.29865	-47.19286	-125.30518	-16.2734	100.89508	-86.24902	4.06835	83.80801	71.60296	74.04397	15.45973	12.20505	0
982	79.73966	-42.31084	-122.86417	-18.71441	100.89508	-81.367	-5.69569	81.367	71.60296	78.92599	17.90074	17.08707	0
983	82.18067	-37.42882	-120.42316	-23.59643	100.89508	-78.92599	-15.45973	78.92599	74.04397	83.80801	22.78276	19.52808	0
984	87.06269	-34.98781	-122.86417	-26.03744	103.33609	-78.92599	-25.22377	76.48498	74.04397	91.13104	25.22377	19.52808	0
985	87.06269	-32.5468	-120.42316	-28.47845	103.33609	-76.48498	-32.5468	69.16195	74.04397	91.13104	25.22377	19.52808	0
986	84.62168	-34.98781	-120.42316	-26.03744	100.89508	-76.48498	-39.86983	64.27993	69.16195	91.13104	22.78276	17.08707	0
987	82.18067	-34.98781	-117.98215	-23.59643	98.45407	-76.48498	-39.86983	59.39791	64.27993	88.69003	17.90074	12.20505	0
988	79.73966	-39.86983	-120.42316	-21.15542	98.45407	-78.92599	-39.86983	56.9569	56.9569	78.92599	13.01872	9.76404	0
989	77.29865	-47.19286	-125.30518	-16.2734	100.89508	-86.24902	-34.98781	51.26121	47.19286	69.16195	8.1367	4.88202	0
990	74.85764	-54.51589	-130.1872	-11.39138	100.89508	-91.13104	-30.10579	46.37919	42.31084	56.9569	0.81367	0	0
991	72.41663	-59.39791	-132.62821	-6.50936	100.89508	-96.01306	-25.22377	41.49717	34.98781	49.63387	-4.06835	-3.25468	0
992	72.41663	-64.27993	-137.51023	-4.06835	103.33609	-100.89508	-25.22377	36.61515	26.85111	49.63387	-7.32303	-8.1367	0
993	77.29865	-66.72094	-144.83326	-6.50936	110.65912	-105.7771	-25.22377	34.17414	26.85111	49.63387	-12.20505	-10.57771	0
994	77.29865	-71.60296	-149.71528	-4.06835	113.10013	-110.65912	-25.22377	31.73313	26.85111	49.63387	-12.20505	-15.45973	0
995	79.73966	-76.48498	-157.03831	-1.62734	117.98215	-115.54114	-27.66478	31.73313	26.85111	52.07488	-12.20505	-17.90074	0
996	79.73966	-78.92599	-159.47932	-1.62734	117.98215	-117.98215	-30.10579	31.73313	26.85111	52.07488	-12.20505	-17.90074	0
997	77.29865	-81.367	-159.47932	0.81367	117.98215	-120.42316	-30.10579	31.73313	26.85111	52.07488	-12.20505	-20.34175	0
998	74.85764	-83.80801	-159.47932	4.06835	115.54114	-120.42316	-27.66478	36.61515	26.85111	52.07488	-12.20505	-20.34175	0
999	69.97562	-83.80801	-154.5973	6.50936	110.65912	-117.98215	-22.78276	39.05616	26.85111	47.19286	-12.20505	-17.90074	0
