samplenr	I	II	III	aVR	aVL	aVF	V1	V2	V3	V4	V5	V6	measurement
0	-17.08707	-72.41663	-56.14323	43.93818	17.90074	-65.0936	-52.07488	-185.51676	-289.66652	-367.77884	-195.2808	-362.08315	0
1	-9.76404	-55.32956	-46.37919	31.73313	17.90074	-50.44754	-52.07488	-185.51676	-294.54854	-370.21985	-195.2808	-359.64214	0
2	-2.44101	-50.44754	-48.8202	24.4101	22.78276	-50.44754	-52.07488	-180.63474	-294.54854	-370.21985	-192.83979	-354.76012	0
3	0	-52.88855	-53.70222	24.4101	25.22377	-52.88855	-47.19286	-173.31171	-289.66652	-367.77884	-190.39878	-347.43709	0
4	3.25468	-52.88855	-56.14323	24.4101	27.66478	-52.88855	-44.75185	-165.98868	-289.66652	-367.77884	-190.39878	-344.99608	0
5	0	-57.77057	-58.58424	26.85111	27.66478	-57.77057	-44.75185	-168.42969	-292.10753	-367.77884	-195.2808	-344.99608	0
6	-7.32303	-74.85764	-68.34828	39.05616	30.10579	-72.41663	-42.31084	-170.8707	-289.66652	-362.89682	-192.83979	-340.11406	0
7	-12.20505	-89.5037	-78.11232	48.8202	32.5468	-84.62168	-37.42882	-170.8707	-287.22551	-358.0148	-190.39878	-337.67305	0
8	-14.64606	-94.38572	-80.55333	53.70222	32.5468	-87.06269	-37.42882	-175.75272	-289.66652	-358.0148	-190.39878	-337.67305	0
9	-17.08707	-96.82673	-80.55333	56.14323	30.10579	-89.5037	-39.86983	-175.75272	-292.10753	-360.45581	-195.2808	-340.11406	0
10	-19.52808	-91.94471	-73.2303	53.70222	25.22377	-82.18067	-44.75185	-178.19373	-296.98955	-365.33783	-197.72181	-342.55507	0
11	-17.08707	-82.18067	-65.90727	48.8202	22.78276	-74.85764	-47.19286	-178.19373	-299.43056	-367.77884	-200.16282	-344.99608	0
12	-14.64606	-74.85764	-61.02525	43.93818	22.78276	-67.53461	-47.19286	-175.75272	-299.43056	-370.21985	-200.16282	-342.55507	0
13	-9.76404	-69.97562	-61.02525	39.05616	25.22377	-65.0936	-44.75185	-170.8707	-299.43056	-370.21985	-200.16282	-340.11406	0
14	-7.32303	-77.29865	-70.78929	41.49717	30.10579	-74.85764	-39.86983	-161.10666	-294.54854	-367.77884	-197.72181	-332.79103	0
15	-4.88202	-74.85764	-70.78929	39.05616	32.5468	-72.41663	-37.42882	-161.10666	-294.54854	-365.33783	-197.72181	-327.90901	0
16	-4.88202	-72.41663	-68.34828	36.61515	30.10579	-69.97562	-32.5468	-163.54767	-294.54854	-360.45581	-200.16282	-323.02699	0
17	-4.88202	-84.62168	-80.55333	43.93818	37.42882	-82.18067	-27.66478	-165.98868	-289.66652	-355.57379	-197.72181	-315.70396	0
18	-4.88202	-87.06269	-82.99434	43.93818	37.42882	-84.62168	-25.22377	-165.98868	-289.66652	-350.69177	-197.72181	-313.26295	0
19	-2.44101	-91.94471	-90.31737	46.37919	42.31084	-91.94471	-22.78276	-161.10666	-287.22551	-348.25076	-192.83979	-310.82194	0
20	-2.44101	-89.5037	-87.87636	43.93818	42.31084	-89.5037	-22.78276	-161.10666	-289.66652	-350.69177	-192.83979	-310.82194	0
21	-4.88202	-87.06269	-82.99434	43.93818	37.42882	-84.62168	-25.22377	-161.10666	-289.66652	-350.69177	-195.2808	-313.26295	0
22	0	-94.38572	-95.19939	46.37919	47.19286	-94.38572	-17.90074	-156.22464	-284.7845	-348.25076	-190.39878	-310.82194	0
23	3.25468	-94.38572	-97.6404	43.93818	49.63387	-94.38572	-13.01872	-151.34262	-284.7845	-348.25076	-190.39878	-308.38093	0
24	0	-91.94471	-92.75838	43.93818	44.75185	-91.94471	-13.01872	-151.34262	-287.22551	-350.69177	-192.83979	-308.38093	0
25	-4.88202	-91.94471	-87.87636	46.37919	39.86983	-89.5037	-15.45973	-158.66565	-287.22551	-353.13278	-197.72181	-303.49891	0
26	-7.32303	-91.94471	-85.43535	48.8202	37.42882	-89.5037	-15.45973	-165.98868	-289.66652	-350.69177	-202.60383	-303.49891	0
27	-12.20505	-94.38572	-82.99434	51.26121	34.98781	-89.5037	-15.45973	-175.75272	-289.66652	-350.69177	-205.04484	-303.49891	0
28	-19.52808	-91.94471	-73.2303	53.70222	25.22377	-82.18067	-20.34175	-183.07575	-294.54854	-353.13278	-207.48585	-305.93992	0
29	-29.29212	-91.94471	-63.46626	58.58424	15.45973	-77.29865	-25.22377	-185.51676	-296.98955	-358.0148	-212.36787	-310.82194	0
30	-29.29212	-94.38572	-65.90727	61.02525	17.90074	-79.73966	-27.66478	-183.07575	-296.98955	-358.0148	-212.36787	-308.38093	0
31	-24.4101	-96.82673	-73.2303	58.58424	22.78276	-84.62168	-20.34175	-178.19373	-292.10753	-353.13278	-207.48585	-305.93992	0
32	-21.96909	-96.82673	-75.67131	58.58424	25.22377	-87.06269	-20.34175	-175.75272	-289.66652	-353.13278	-207.48585	-305.93992	0
33	-21.96909	-91.94471	-70.78929	56.14323	22.78276	-82.18067	-17.90074	-173.31171	-289.66652	-355.57379	-209.92686	-305.93992	0
34	-19.52808	-91.94471	-73.2303	53.70222	25.22377	-82.18067	-15.45973	-170.8707	-287.22551	-355.57379	-209.92686	-305.93992	0
35	-17.08707	-94.38572	-78.11232	53.70222	30.10579	-87.06269	-10.57771	-170.8707	-282.34349	-350.69177	-209.92686	-298.61689	0
36	-17.08707	-91.94471	-75.67131	53.70222	27.66478	-84.62168	-8.1367	-175.75272	-282.34349	-348.25076	-209.92686	-296.17588	0
37	-9.76404	-74.85764	-65.90727	41.49717	27.66478	-69.97562	-8.1367	-183.07575	-282.34349	-345.80975	-212.36787	-296.17588	0
38	-2.44101	-62.65259	-61.02525	31.73313	27.66478	-62.65259	-8.1367	-183.07575	-282.34349	-345.80975	-212.36787	-296.17588	0
39	3.25468	-60.21158	-63.46626	26.85111	32.5468	-60.21158	-5.69569	-178.19373	-275.02046	-338.48672	-207.48585	-291.29386	0
40	5.69569	-67.53461	-73.2303	29.29212	37.42882	-69.97562	-3.25468	-173.31171	-270.13844	-333.6047	-202.60383	-286.41184	0
41	3.25468	-67.53461	-70.78929	31.73313	34.98781	-67.53461	-3.25468	-170.8707	-272.57945	-333.6047	-202.60383	-288.85285	0
42	0	-67.53461	-68.34828	31.73313	32.5468	-67.53461	-5.69569	-170.8707	-272.57945	-336.04571	-202.60383	-291.29386	0
43	-7.32303	-79.73966	-73.2303	41.49717	32.5468	-77.29865	-3.25468	-168.42969	-270.13844	-336.04571	-202.60383	-291.29386	0
44	-19.52808	-99.26774	-80.55333	58.58424	30.10579	-89.5037	-3.25468	-165.98868	-270.13844	-336.04571	-205.04484	-288.85285	0
45	-31.73313	-116.35481	-85.43535	73.2303	25.22377	-101.70875	-3.25468	-168.42969	-265.25642	-333.6047	-207.48585	-283.97083	0
46	-36.61515	-116.35481	-80.55333	75.67131	20.34175	-99.26774	-3.25468	-175.75272	-265.25642	-331.16369	-212.36787	-281.52982	0
47	-34.17414	-118.79582	-85.43535	75.67131	25.22377	-101.70875	-0.81367	-180.63474	-262.81541	-326.28167	-209.92686	-279.08881	0
48	-29.29212	-121.23683	-92.75838	73.2303	30.10579	-106.59077	4.06835	-175.75272	-255.49238	-318.95864	-205.04484	-271.76578	0
49	-24.4101	-116.35481	-92.75838	68.34828	32.5468	-104.14976	7.32303	-170.8707	-250.61036	-314.07662	-202.60383	-269.32477	0
50	-21.96909	-113.9138	-92.75838	65.90727	34.98781	-104.14976	9.76404	-165.98868	-245.72834	-311.63561	-200.16282	-264.44275	0
51	-14.64606	-101.70875	-87.87636	56.14323	34.98781	-94.38572	9.76404	-165.98868	-245.72834	-309.1946	-200.16282	-262.00174	0
52	-7.32303	-84.62168	-78.11232	43.93818	34.98781	-82.18067	9.76404	-165.98868	-245.72834	-311.63561	-200.16282	-264.44275	0
53	-7.32303	-84.62168	-78.11232	43.93818	34.98781	-82.18067	9.76404	-165.98868	-245.72834	-314.07662	-200.16282	-264.44275	0
54	-9.76404	-84.62168	-75.67131	46.37919	32.5468	-79.73966	9.76404	-165.98868	-245.72834	-314.07662	-202.60383	-264.44275	0
55	-9.76404	-87.06269	-78.11232	46.37919	32.5468	-82.18067	12.20505	-170.8707	-243.28733	-311.63561	-205.04484	-259.56073	0
56	-9.76404	-91.94471	-82.99434	48.8202	34.98781	-87.06269	14.64606	-175.75272	-243.28733	-306.75359	-205.04484	-254.67871	0
57	-9.76404	-89.5037	-80.55333	48.8202	34.98781	-84.62168	14.64606	-185.51676	-240.84632	-304.31258	-205.04484	-254.67871	0
58	-14.64606	-99.26774	-85.43535	56.14323	34.98781	-91.94471	17.08707	-185.51676	-238.40531	-299.43056	-200.16282	-252.2377	0
59	-14.64606	-113.9138	-100.08141	63.46626	42.31084	-106.59077	19.52808	-180.63474	-233.52329	-292.10753	-195.2808	-247.35568	0
60	-9.76404	-109.03178	-100.08141	58.58424	44.75185	-104.14976	19.52808	-178.19373	-231.08228	-292.10753	-192.83979	-244.91467	0
61	-7.32303	-101.70875	-95.19939	53.70222	42.31084	-99.26774	19.52808	-178.19373	-231.08228	-292.10753	-192.83979	-244.91467	0
62	-7.32303	-96.82673	-90.31737	51.26121	39.86983	-94.38572	17.08707	-180.63474	-231.08228	-294.54854	-192.83979	-247.35568	0
63	-7.32303	-89.5037	-82.99434	46.37919	37.42882	-87.06269	14.64606	-180.63474	-228.64127	-294.54854	-192.83979	-247.35568	0
64	-4.88202	-89.5037	-85.43535	46.37919	39.86983	-87.06269	14.64606	-175.75272	-223.75925	-292.10753	-192.83979	-242.47366	0
65	-4.88202	-77.29865	-73.2303	39.05616	32.5468	-74.85764	14.64606	-180.63474	-221.31824	-289.66652	-192.83979	-237.59164	0
66	-4.88202	-69.97562	-65.90727	36.61515	30.10579	-67.53461	14.64606	-185.51676	-216.43622	-282.34349	-192.83979	-232.70962	0
67	-2.44101	-74.85764	-73.2303	36.61515	34.98781	-74.85764	19.52808	-185.51676	-206.67218	-272.57945	-185.51676	-225.38659	0
68	0	-84.62168	-85.43535	41.49717	42.31084	-84.62168	29.29212	-175.75272	-194.46713	-257.93339	-178.19373	-215.62255	0
69	5.69569	-84.62168	-90.31737	39.05616	47.19286	-87.06269	31.73313	-168.42969	-184.70309	-250.61036	-170.8707	-208.29952	0
70	10.57771	-74.85764	-85.43535	31.73313	47.19286	-79.73966	34.17414	-161.10666	-179.82107	-245.72834	-165.98868	-200.97649	0
71	20.34175	-65.0936	-85.43535	21.96909	52.07488	-74.85764	39.05616	-151.34262	-172.49804	-235.9643	-158.66565	-196.09447	0
72	27.66478	-57.77057	-85.43535	14.64606	54.51589	-69.97562	41.49717	-141.57858	-162.734	-233.52329	-153.78363	-191.21245	0
73	25.22377	-45.56552	-70.78929	8.95037	47.19286	-57.77057	41.49717	-136.69656	-160.29299	-233.52329	-153.78363	-188.77144	0
74	22.78276	-30.91946	-53.70222	4.06835	37.42882	-40.6835	41.49717	-131.81454	-157.85198	-231.08228	-153.78363	-186.33043	0
75	25.22377	-13.01872	-39.05616	-5.69569	32.5468	-26.03744	41.49717	-129.37353	-152.96996	-226.20026	-153.78363	-176.56639	0
76	30.10579	-0.81367	-31.73313	-15.45973	30.10579	-15.45973	43.93818	-124.49151	-145.64693	-218.87723	-148.90161	-169.24336	0
77	25.22377	6.50936	-18.71441	-15.45973	22.78276	-5.69569	43.93818	-124.49151	-140.76491	-211.5542	-146.4606	-161.92033	0
78	22.78276	1.62734	-21.96909	-13.01872	22.78276	-8.1367	48.8202	-114.72747	-131.00087	-199.34915	-136.69656	-149.71528	0
79	27.66478	4.06835	-24.4101	-15.45973	25.22377	-8.1367	53.70222	-100.08141	-118.79582	-187.1441	-124.49151	-137.51023	0
80	32.5468	11.39138	-21.96909	-22.78276	27.66478	-3.25468	53.70222	-87.87636	-109.03178	-177.38006	-114.72747	-127.74619	0
81	34.98781	8.95037	-26.85111	-22.78276	30.10579	-8.1367	53.70222	-78.11232	-101.70875	-170.05703	-107.40444	-122.86417	0
82	32.5468	6.50936	-26.85111	-20.34175	30.10579	-8.1367	48.8202	-70.78929	-94.38572	-167.61602	-104.96343	-120.42316	0
83	30.10579	6.50936	-24.4101	-17.90074	27.66478	-8.1367	48.8202	-63.46626	-89.5037	-167.61602	-102.52242	-117.98215	0
84	32.5468	13.83239	-18.71441	-22.78276	25.22377	-0.81367	41.49717	-58.58424	-87.06269	-165.17501	-102.52242	-115.54114	0
85	27.66478	21.15542	-6.50936	-25.22377	17.90074	8.95037	34.17414	-63.46626	-87.06269	-167.61602	-109.84545	-115.54114	0
86	22.78276	21.15542	-1.62734	-22.78276	13.01872	11.39138	34.17414	-68.34828	-84.62168	-162.734	-109.84545	-113.10013	0
87	22.78276	21.15542	-1.62734	-22.78276	13.01872	11.39138	34.17414	-75.67131	-82.18067	-157.85198	-109.84545	-110.65912	0
88	22.78276	18.71441	-4.06835	-20.34175	13.01872	8.95037	34.17414	-80.55333	-82.18067	-155.41097	-107.40444	-105.7771	0
89	22.78276	13.83239	-8.95037	-17.90074	15.45973	4.06835	34.17414	-80.55333	-84.62168	-155.41097	-107.40444	-105.7771	0
90	22.78276	-3.25468	-26.85111	-10.57771	25.22377	-13.01872	34.17414	-82.99434	-87.06269	-157.85198	-107.40444	-105.7771	0
91	27.66478	-13.01872	-41.49717	-8.1367	34.98781	-26.03744	34.17414	-90.31737	-96.82673	-162.734	-112.28646	-110.65912	0
92	30.10579	-23.59643	-53.70222	-3.25468	39.86983	-38.24249	31.73313	-100.08141	-106.59077	-177.38006	-122.0505	-117.98215	0
93	30.10579	-40.6835	-70.78929	4.06835	49.63387	-55.32956	26.85111	-109.84545	-121.23683	-194.46713	-139.13757	-130.1872	0
94	27.66478	-60.21158	-87.87636	14.64606	56.9569	-72.41663	21.96909	-117.16848	-135.88289	-206.67218	-153.78363	-139.95124	0
95	20.34175	-77.29865	-97.6404	26.85111	56.9569	-87.06269	19.52808	-129.37353	-148.08794	-221.31824	-170.8707	-149.71528	0
96	10.57771	-89.5037	-100.08141	39.05616	54.51589	-94.38572	19.52808	-141.57858	-160.29299	-231.08228	-185.51676	-159.47932	0
97	3.25468	-106.59077	-109.84545	51.26121	54.51589	-106.59077	17.08707	-151.34262	-167.61602	-235.9643	-192.83979	-166.80235	0
98	0	-121.23683	-122.0505	58.58424	59.39791	-121.23683	17.08707	-151.34262	-170.05703	-238.40531	-197.72181	-169.24336	0
99	-2.44101	-126.11885	-124.49151	63.46626	59.39791	-126.11885	17.08707	-148.90161	-172.49804	-238.40531	-197.72181	-169.24336	0
100	-4.88202	-118.79582	-114.72747	61.02525	54.51589	-116.35481	17.08707	-144.01959	-172.49804	-238.40531	-197.72181	-171.68437	1000	P+0
101	-4.88202	-113.9138	-109.84545	58.58424	52.07488	-111.47279	17.08707	-139.13757	-172.49804	-235.9643	-197.72181	-171.68437	0
102	-2.44101	-113.9138	-112.28646	56.14323	54.51589	-113.9138	21.96909	-131.81454	-170.05703	-231.08228	-192.83979	-169.24336	0
103	-2.44101	-106.59077	-104.96343	53.70222	49.63387	-106.59077	26.85111	-124.49151	-167.61602	-231.08228	-192.83979	-169.24336	0
104	-2.44101	-99.26774	-97.6404	48.8202	47.19286	-99.26774	29.29212	-119.60949	-167.61602	-231.08228	-192.83979	-164.36134	0
105	-4.88202	-96.82673	-92.75838	48.8202	42.31084	-94.38572	31.73313	-117.16848	-165.17501	-226.20026	-195.2808	-159.47932	0
106	-9.76404	-106.59077	-97.6404	56.14323	42.31084	-101.70875	36.61515	-119.60949	-162.734	-223.75925	-195.2808	-157.03831	0
107	-14.64606	-121.23683	-107.40444	65.90727	44.75185	-113.9138	39.05616	-122.0505	-162.734	-221.31824	-195.2808	-154.5973	0
108	-14.64606	-123.67784	-109.84545	68.34828	47.19286	-116.35481	39.05616	-122.0505	-160.29299	-218.87723	-195.2808	-154.5973	0
109	-14.64606	-128.55986	-114.72747	70.78929	49.63387	-121.23683	39.05616	-117.16848	-162.734	-218.87723	-197.72181	-152.15629	0
110	-12.20505	-138.3239	-126.93252	73.2303	56.9569	-133.44188	39.05616	-112.28646	-165.17501	-221.31824	-197.72181	-149.71528	0
111	-12.20505	-148.08794	-136.69656	78.11232	61.83892	-143.20592	39.05616	-112.28646	-170.05703	-221.31824	-200.16282	-152.15629	0
112	-9.76404	-143.20592	-134.25555	75.67131	61.83892	-138.3239	36.61515	-112.28646	-174.93905	-228.64127	-205.04484	-154.5973	0
113	-4.88202	-133.44188	-129.37353	68.34828	61.83892	-131.00087	34.17414	-112.28646	-179.82107	-235.9643	-209.92686	-159.47932	0
114	0	-123.67784	-124.49151	61.02525	61.83892	-123.67784	34.17414	-112.28646	-184.70309	-240.84632	-214.80888	-159.47932	0
115	3.25468	-118.79582	-122.0505	56.14323	61.83892	-118.79582	34.17414	-117.16848	-184.70309	-240.84632	-217.24989	-154.5973	0
116	5.69569	-113.9138	-119.60949	53.70222	61.83892	-116.35481	31.73313	-124.49151	-187.1441	-240.84632	-219.6909	-154.5973	0
117	0	-128.55986	-129.37353	63.46626	64.27993	-128.55986	34.17414	-129.37353	-184.70309	-235.9643	-219.6909	-149.71528	0
118	-9.76404	-140.76491	-131.81454	73.2303	59.39791	-135.88289	31.73313	-129.37353	-182.26208	-233.52329	-219.6909	-149.71528	0
119	-14.64606	-150.52895	-136.69656	80.55333	59.39791	-143.20592	29.29212	-124.49151	-184.70309	-231.08228	-219.6909	-147.27427	0
120	-21.96909	-162.734	-141.57858	90.31737	59.39791	-152.96996	29.29212	-119.60949	-182.26208	-228.64127	-217.24989	-147.27427	0
121	-29.29212	-172.49804	-144.01959	100.08141	56.9569	-157.85198	26.85111	-117.16848	-184.70309	-228.64127	-217.24989	-147.27427	0
122	-34.17414	-179.82107	-146.4606	104.96343	54.51589	-162.734	26.85111	-112.28646	-187.1441	-231.08228	-217.24989	-149.71528	0
123	-34.17414	-172.49804	-139.13757	102.52242	52.07488	-155.41097	24.4101	-109.84545	-187.1441	-235.9643	-219.6909	-149.71528	0
124	-29.29212	-160.29299	-131.81454	92.75838	49.63387	-145.64693	24.4101	-104.96343	-189.58511	-235.9643	-222.13191	-147.27427	0
125	-26.85111	-162.734	-136.69656	92.75838	54.51589	-150.52895	26.85111	-102.52242	-187.1441	-231.08228	-219.6909	-137.51023	0
126	-26.85111	-167.61602	-141.57858	95.19939	56.9569	-155.41097	31.73313	-102.52242	-184.70309	-223.75925	-217.24989	-132.62821	0
127	-24.4101	-167.61602	-144.01959	95.19939	59.39791	-155.41097	31.73313	-104.96343	-179.82107	-218.87723	-217.24989	-130.1872	0
128	-21.96909	-157.85198	-136.69656	87.87636	56.9569	-148.08794	29.29212	-107.40444	-179.82107	-218.87723	-217.24989	-127.74619	0
129	-21.96909	-155.41097	-134.25555	87.87636	54.51589	-145.64693	29.29212	-102.52242	-179.82107	-216.43622	-214.80888	-125.30518	0
130	-21.96909	-160.29299	-139.13757	90.31737	56.9569	-150.52895	26.85111	-97.6404	-174.93905	-211.5542	-209.92686	-122.86417	0
131	-21.96909	-165.17501	-144.01959	92.75838	59.39791	-155.41097	26.85111	-92.75838	-172.49804	-206.67218	-202.60383	-120.42316	0
132	-21.96909	-165.17501	-144.01959	92.75838	59.39791	-155.41097	26.85111	-92.75838	-167.61602	-206.67218	-200.16282	-117.98215	0
133	-21.96909	-167.61602	-146.4606	92.75838	61.83892	-157.85198	26.85111	-90.31737	-165.17501	-206.67218	-200.16282	-117.98215	0
134	-24.4101	-174.93905	-151.34262	97.6404	61.83892	-162.734	26.85111	-87.87636	-162.734	-204.23117	-197.72181	-110.65912	0
135	-26.85111	-179.82107	-153.78363	102.52242	61.83892	-167.61602	29.29212	-90.31737	-157.85198	-199.34915	-197.72181	-105.7771	0
136	-29.29212	-187.1441	-158.66565	107.40444	64.27993	-172.49804	34.17414	-95.19939	-152.96996	-192.02612	-195.2808	-98.45407	0
137	-29.29212	-184.70309	-156.22464	104.96343	61.83892	-170.05703	34.17414	-102.52242	-150.52895	-189.58511	-192.83979	-96.01306	0
138	-29.29212	-174.93905	-146.4606	100.08141	56.9569	-160.29299	29.29212	-104.96343	-150.52895	-187.1441	-195.2808	-98.45407	0
139	-24.4101	-157.85198	-134.25555	90.31737	54.51589	-145.64693	24.4101	-102.52242	-150.52895	-187.1441	-197.72181	-100.89508	0
140	-14.64606	-145.64693	-131.81454	78.11232	56.9569	-138.3239	24.4101	-97.6404	-150.52895	-187.1441	-197.72181	-100.89508	0
141	-7.32303	-148.08794	-141.57858	75.67131	66.72094	-145.64693	26.85111	-90.31737	-148.08794	-187.1441	-197.72181	-105.7771	0
142	0	-157.85198	-158.66565	78.11232	78.92599	-157.85198	31.73313	-70.78929	-140.76491	-187.1441	-200.16282	-110.65912	0
143	17.90074	-160.29299	-178.19373	70.78929	96.01306	-167.61602	39.05616	-41.49717	-128.55986	-189.58511	-209.92686	-125.30518	0
144	27.66478	-182.26208	-209.92686	75.67131	117.98215	-194.46713	53.70222	4.88202	-111.47279	-184.70309	-222.13191	-137.51023	0
145	34.98781	-201.79016	-236.77797	82.99434	135.06922	-218.87723	73.2303	54.51589	-87.06269	-182.26208	-239.21898	-154.5973	0
146	42.31084	-231.08228	-273.39312	92.75838	157.03831	-250.61036	97.6404	117.98215	-55.32956	-170.05703	-253.86504	-174.12538	0
147	52.07488	-262.81541	-314.89029	104.96343	181.44841	-287.22551	126.93252	203.4175	-6.50936	-148.08794	-261.18807	-191.21245	0
148	64.27993	-287.22551	-351.50544	109.84545	205.85851	-318.95864	163.54767	305.93992	52.88855	-116.35481	-256.30605	-200.97649	0
149	78.92599	-299.43056	-378.35655	109.84545	227.8276	-338.48672	202.60383	425.54941	121.23683	-74.85764	-244.101	-200.97649	0
150	98.45407	-296.98955	-395.44362	97.6404	244.91467	-345.80975	241.65999	552.48193	199.34915	-26.03744	-217.24989	-191.21245	0
151	127.74619	-279.90248	-407.64867	75.67131	266.88376	-343.36874	285.59817	684.29647	292.10753	43.12451	-165.98868	-159.47932	0
152	159.47932	-245.72834	-405.20766	41.49717	281.52982	-323.84066	327.09534	818.55202	409.27601	140.76491	-80.55333	-96.01306	0
153	191.21245	-189.58511	-380.79756	-0.81367	283.97083	-284.7845	363.71049	925.95646	536.20853	262.81541	37.42882	-4.88202	0
154	222.94558	-111.47279	-334.41837	-56.9569	276.6478	-221.31824	383.23857	994.30474	663.14105	409.27601	186.33043	122.0505	0
155	254.67871	-17.90074	-273.39312	-117.98215	264.44275	-145.64693	380.79756	999.18676	790.07357	577.7057	364.52416	278.27514	0
156	279.08881	96.82673	-183.07575	-188.77144	230.26861	-43.12451	366.1515	933.27949	914.56508	772.9865	584.21506	468.67392	0
157	283.97083	233.52329	-51.26121	-259.56073	166.80235	91.94471	336.85938	799.02394	1031.73356	985.35437	833.19808	688.36482	0
158	266.88376	401.95298	135.06922	-335.23204	66.72094	270.13844	307.56726	608.62516	1124.49194	1197.72224	1091.94514	922.70178	0
159	225.38659	572.82368	347.43709	-398.6983	-61.02525	460.53722	292.9212	384.05224	1185.51719	1393.00304	1338.48715	1149.71571	0
160	166.80235	736.37135	569.569	-452.40052	-202.60383	653.37701	278.27514	142.39225	1222.13234	1561.43273	1560.61906	1352.31954	0
161	98.45407	875.50892	777.05485	-486.57466	-339.30039	826.68872	270.95211	-102.52242	1219.69133	1687.55158	1733.1171	1508.54418	0
162	15.45973	987.79538	972.33565	-501.22072	-478.43796	980.47235	258.74706	-349.06443	1168.43012	1743.69481	1833.19851	1606.18458	0
163	-68.34828	1061.02568	1128.56029	-496.3387	-598.04745	1095.19982	239.21898	-580.96038	1056.14366	1714.40269	1838.08053	1630.59468	0
164	-141.57858	1073.23073	1213.99564	-467.04658	-678.60078	1144.02002	195.2808	-805.5333	875.50892	1585.84283	1740.44013	1576.89246	0
165	-209.92686	1034.17457	1243.28776	-413.34436	-727.42098	1139.138	126.93252	-1034.98824	626.5259	1353.94688	1528.88593	1442.63691	0
166	-275.83413	968.2673	1243.28776	-347.43709	-759.15411	1104.96386	36.61515	-1279.08924	296.98955	1019.52851	1228.6417	1242.47409	0
167	-339.30039	890.15498	1228.6417	-276.6478	-783.56421	1058.58467	-71.60296	-1525.63125	-87.06269	611.87984	867.37222	1005.69612	0
168	-390.5616	799.83761	1189.58554	-205.85851	-790.88724	995.11841	-193.65346	-1735.55811	-465.41924	192.02612	496.3387	761.59512	0
169	-424.73574	699.7562	1123.67827	-137.51023	-773.80017	912.12407	-318.14497	-1891.78275	-799.83761	-187.1441	152.15629	527.25816	0
170	-446.70483	597.23378	1043.12494	-76.48498	-744.50805	819.36569	-427.99042	-2001.6282	-1073.23073	-506.91641	-131.81454	324.65433	0
171	-456.46887	492.27035	947.92555	-17.90074	-703.01088	719.28428	-510.98476	-2052.88941	-1268.51153	-741.25337	-341.7414	165.98868	0
172	-444.26382	401.95298	845.40313	19.52808	-644.42664	624.08489	-576.89203	-2035.80234	-1363.71092	-882.83195	-471.11493	51.26121	0
173	-414.9717	328.72268	742.88071	41.49717	-578.51937	536.20853	-623.27122	-1962.57204	-1371.03395	-931.65215	-529.69917	-19.52808	0
174	-380.79756	275.02046	655.00435	51.26121	-517.49412	465.41924	-647.68132	-1852.72659	-1317.33173	-917.00609	-539.46321	-56.9569	0
175	-344.18241	240.84632	584.21506	51.26121	-463.7919	411.71702	-637.91728	-1723.35306	-1231.89638	-870.6269	-524.81715	-69.16195	0
176	-307.56726	216.43622	523.18981	43.93818	-414.9717	370.21985	-603.74314	-1581.77448	-1136.69699	-809.60165	-500.40705	-74.04397	0
177	-273.39312	211.5542	484.13365	29.29212	-378.35655	348.25076	-559.80496	-1430.43186	-1029.29255	-741.25337	-466.23291	-66.72094	0
178	-239.21898	228.64127	467.04658	4.06835	-353.94645	348.25076	-510.98476	-1271.76621	-914.56508	-665.58206	-427.17675	-54.51589	0
179	-209.92686	238.40531	447.5185	-15.45973	-329.53635	343.36874	-452.40052	-1108.21854	-797.3966	-580.14671	-378.35655	-34.98781	0
180	-180.63474	240.84632	420.66739	-30.10579	-300.24423	331.16369	-388.93426	-949.55289	-682.66913	-499.59338	-327.09534	-9.76404	0
181	-156.22464	248.16935	403.58032	-47.19286	-280.71615	326.28167	-327.90901	-810.41532	-580.14671	-421.48106	-278.27514	9.76404	0
182	-136.69656	250.61036	386.49325	-56.9569	-261.18807	318.95864	-274.20679	-688.36482	-487.38833	-355.57379	-236.77797	31.73313	0
183	-126.93252	243.28733	369.40618	-59.39791	-248.98302	306.75359	-230.26861	-585.8424	-414.15803	-304.31258	-202.60383	43.93818	0
184	-119.60949	226.20026	344.99608	-54.51589	-231.89595	284.7845	-200.97649	-505.28907	-360.45581	-265.25642	-180.63474	53.70222	0
185	-114.72747	206.67218	320.58598	-47.19286	-217.24989	262.81541	-176.56639	-444.26382	-316.51763	-233.52329	-168.42969	63.46626	0
186	-112.28646	184.70309	296.17588	-37.42882	-205.04484	240.84632	-159.47932	-397.88463	-284.7845	-206.67218	-156.22464	63.46626	0
187	-109.84545	165.17501	274.20679	-27.66478	-192.83979	218.87723	-147.27427	-356.38746	-255.49238	-187.1441	-148.90161	63.46626	0
188	-107.40444	138.3239	244.91467	-15.45973	-175.75272	192.02612	-132.62821	-310.00827	-226.20026	-165.17501	-139.13757	65.90727	0
189	-100.08141	118.79582	218.06356	-10.57771	-158.66565	167.61602	-117.98215	-261.18807	-196.90814	-143.20592	-126.93252	68.34828	0
190	-82.99434	111.47279	193.65346	-15.45973	-139.13757	152.96996	-103.33609	-212.36787	-165.17501	-118.79582	-112.28646	73.2303	0
191	-65.90727	101.70875	166.80235	-17.90074	-117.16848	133.44188	-86.24902	-168.42969	-135.88289	-94.38572	-97.6404	80.55333	0
192	-51.26121	94.38572	144.83326	-22.78276	-97.6404	118.79582	-71.60296	-131.81454	-111.47279	-77.29865	-82.99434	85.43535	0
193	-41.49717	79.73966	120.42316	-20.34175	-80.55333	99.26774	-59.39791	-97.6404	-87.06269	-62.65259	-73.2303	90.31737	0
194	-36.61515	65.0936	100.89508	-15.45973	-68.34828	82.18067	-49.63387	-70.78929	-69.97562	-48.00653	-63.46626	97.6404	0
195	-34.17414	57.77057	91.13104	-13.01872	-63.46626	74.85764	-44.75185	-53.70222	-55.32956	-35.80148	-61.02525	102.52242	0
196	-29.29212	57.77057	86.24902	-15.45973	-58.58424	72.41663	-37.42882	-43.93818	-45.56552	-26.03744	-56.14323	102.52242	0
197	-26.85111	55.32956	81.367	-15.45973	-53.70222	67.53461	-34.98781	-36.61515	-35.80148	-17.90074	-51.26121	104.96343	0
198	-21.96909	55.32956	76.48498	-17.90074	-48.8202	65.0936	-30.10579	-21.96909	-23.59643	-8.1367	-43.93818	104.96343	0
199	-14.64606	57.77057	71.60296	-22.78276	-43.93818	65.0936	-25.22377	-4.88202	-13.83239	1.62734	-38.24249	107.40444	0
200	-12.20505	57.77057	69.16195	-22.78276	-41.49717	62.65259	-22.78276	9.76404	-6.50936	6.50936	-33.36047	107.40444	0
201	-9.76404	55.32956	64.27993	-22.78276	-36.61515	60.21158	-20.34175	21.96909	-1.62734	11.39138	-28.47845	107.40444	0
202	-9.76404	50.44754	59.39791	-20.34175	-34.17414	55.32956	-15.45973	34.98781	6.50936	16.2734	-23.59643	107.40444	0
203	-9.76404	38.24249	47.19286	-15.45973	-29.29212	43.12451	-10.57771	49.63387	16.2734	21.15542	-18.71441	112.28646	0
204	-12.20505	30.91946	42.31084	-10.57771	-26.85111	35.80148	-8.1367	64.27993	21.15542	26.03744	-16.2734	114.72747	0
205	-17.08707	26.03744	42.31084	-5.69569	-29.29212	33.36047	-8.1367	69.16195	23.59643	26.03744	-16.2734	117.16848	0
206	-17.08707	30.91946	47.19286	-8.1367	-31.73313	38.24249	-8.1367	74.04397	28.47845	33.36047	-16.2734	119.60949	0
207	-9.76404	38.24249	47.19286	-15.45973	-29.29212	43.12451	-5.69569	78.92599	35.80148	43.12451	-11.39138	122.0505	0
208	-4.88202	43.12451	47.19286	-20.34175	-26.85111	45.56552	-3.25468	91.13104	43.12451	48.00653	-4.06835	124.49151	0
209	0	50.44754	49.63387	-25.22377	-24.4101	50.44754	-0.81367	103.33609	48.00653	55.32956	0.81367	126.93252	0
210	0	52.88855	52.07488	-27.66478	-26.85111	52.88855	1.62734	115.54114	52.88855	60.21158	5.69569	129.37353	0
211	5.69569	55.32956	49.63387	-30.10579	-21.96909	52.88855	4.06835	127.74619	57.77057	67.53461	13.01872	131.81454	0
212	8.1367	60.21158	52.07488	-34.98781	-21.96909	57.77057	7.32303	137.51023	65.0936	67.53461	17.90074	134.25555	0
213	10.57771	69.97562	59.39791	-39.86983	-24.4101	65.0936	7.32303	147.27427	69.97562	69.97562	20.34175	136.69656	0
214	13.01872	79.73966	66.72094	-47.19286	-26.85111	74.85764	12.20505	157.03831	74.85764	74.85764	25.22377	141.57858	0
215	15.45973	79.73966	64.27993	-47.19286	-24.4101	72.41663	17.08707	169.24336	84.62168	82.18067	30.10579	153.78363	0
216	20.34175	79.73966	59.39791	-49.63387	-19.52808	69.97562	21.96909	176.56639	94.38572	94.38572	37.42882	161.10666	0
217	25.22377	87.06269	61.83892	-56.9569	-19.52808	74.85764	24.4101	181.44841	104.14976	104.14976	44.75185	168.42969	0
218	25.22377	89.5037	64.27993	-56.9569	-19.52808	77.29865	29.29212	193.65346	113.9138	113.9138	52.07488	175.75272	0
219	30.10579	87.06269	56.9569	-59.39791	-14.64606	72.41663	36.61515	215.62255	126.11885	128.55986	64.27993	185.51676	0
220	34.98781	79.73966	44.75185	-56.9569	-4.88202	62.65259	41.49717	235.15063	138.3239	140.76491	76.48498	195.2808	0
221	32.5468	77.29865	44.75185	-54.51589	-7.32303	62.65259	41.49717	244.91467	143.20592	145.64693	81.367	197.72181	0
222	25.22377	79.73966	54.51589	-52.07488	-14.64606	67.53461	41.49717	254.67871	148.08794	148.08794	86.24902	197.72181	0
223	22.78276	87.06269	64.27993	-54.51589	-21.96909	77.29865	41.49717	262.00174	152.96996	148.08794	86.24902	197.72181	0
224	20.34175	91.94471	71.60296	-56.9569	-26.85111	82.18067	41.49717	271.76578	157.85198	152.96996	91.13104	202.60383	0
225	20.34175	104.14976	83.80801	-61.83892	-31.73313	94.38572	43.93818	276.6478	162.734	160.29299	91.13104	207.48585	0
226	17.90074	118.79582	100.89508	-69.16195	-41.49717	111.47279	43.93818	274.20679	167.61602	165.17501	93.57205	212.36787	0
227	17.90074	128.55986	110.65912	-74.04397	-46.37919	121.23683	41.49717	276.6478	172.49804	172.49804	98.45407	217.24989	0
228	20.34175	128.55986	108.21811	-74.04397	-43.93818	118.79582	48.8202	291.29386	187.1441	187.1441	110.65912	227.01393	0
229	20.34175	126.11885	105.7771	-74.04397	-43.93818	116.35481	51.26121	308.38093	199.34915	199.34915	120.42316	239.21898	0
230	20.34175	128.55986	108.21811	-74.04397	-43.93818	118.79582	53.70222	323.02699	209.11319	209.11319	132.62821	248.98302	0
231	22.78276	131.00087	108.21811	-76.48498	-43.93818	121.23683	56.14323	337.67305	218.87723	218.87723	142.39225	256.30605	0
232	22.78276	128.55986	105.7771	-76.48498	-41.49717	118.79582	56.14323	354.76012	231.08228	226.20026	154.5973	263.62908	0
233	22.78276	133.44188	110.65912	-78.92599	-43.93818	123.67784	58.58424	369.40618	243.28733	235.9643	164.36134	273.39312	0
234	27.66478	157.85198	130.1872	-93.57205	-51.26121	145.64693	56.14323	379.17022	250.61036	243.28733	169.24336	283.15716	0
235	32.5468	189.58511	157.03831	-110.65912	-63.46626	174.93905	51.26121	384.05224	255.49238	248.16935	171.68437	290.48019	0
236	39.86983	192.02612	152.15629	-115.54114	-56.14323	172.49804	58.58424	396.25729	272.57945	267.69743	186.33043	307.56726	0
237	39.86983	182.26208	142.39225	-110.65912	-51.26121	162.734	65.90727	406.02133	289.66652	284.7845	200.97649	322.21332	0
238	39.86983	184.70309	144.83326	-113.10013	-53.70222	165.17501	68.34828	420.66739	304.31258	299.43056	215.62255	334.41837	0
239	44.75185	184.70309	139.95124	-115.54114	-48.8202	162.734	75.67131	445.07749	318.95864	316.51763	232.70962	351.50544	0
240	49.63387	184.70309	135.06922	-117.98215	-43.93818	160.29299	80.55333	467.04658	336.04571	333.6047	252.2377	366.1515	0
241	54.51589	182.26208	127.74619	-117.98215	-36.61515	155.41097	87.87636	491.45668	350.69177	350.69177	271.76578	380.79756	0
242	59.39791	189.58511	130.1872	-125.30518	-36.61515	160.29299	92.75838	513.42577	367.77884	362.89682	286.41184	395.44362	0
243	61.83892	213.99521	152.15629	-137.51023	-46.37919	184.70309	90.31737	525.63082	375.10187	367.77884	296.17588	400.32564	0
244	64.27993	231.08228	166.80235	-147.27427	-51.26121	199.34915	90.31737	542.71789	382.4249	377.54288	305.93992	414.9717	0
245	64.27993	245.72834	181.44841	-154.5973	-58.58424	213.99521	90.31737	552.48193	392.18894	384.86591	313.26295	427.17675	0
246	66.72094	260.3744	193.65346	-164.36134	-63.46626	228.64127	90.31737	559.80496	401.95298	397.07096	325.468	439.3818	0
247	66.72094	265.25642	198.53548	-166.80235	-65.90727	233.52329	90.31737	569.569	414.15803	414.15803	337.67305	454.02786	0
248	69.16195	277.46147	208.29952	-174.12538	-70.78929	243.28733	90.31737	581.77405	426.36308	423.92207	349.8781	468.67392	0
249	74.04397	294.54854	220.50457	-183.88942	-73.2303	257.93339	87.87636	598.86112	436.12712	438.56813	364.52416	480.87897	0
250	83.80801	311.63561	227.8276	-198.53548	-73.2303	270.13844	87.87636	615.94819	450.77318	450.77318	381.61123	497.96604	0
251	93.57205	323.84066	230.26861	-208.29952	-68.34828	277.46147	87.87636	633.03526	462.97823	467.86025	401.13931	515.05311	0
252	100.89508	333.6047	232.70962	-218.06356	-65.90727	284.7845	90.31737	652.56334	480.0653	482.50631	418.22638	529.69917	0
253	110.65912	348.25076	237.59164	-230.26861	-63.46626	294.54854	92.75838	669.65041	494.71136	492.27035	435.31345	546.78624	0
254	117.98215	355.57379	237.59164	-237.59164	-61.02525	296.98955	95.19939	689.17849	506.91641	509.35742	452.40052	566.31432	1500	QRS+0
255	125.30518	370.21985	244.91467	-247.35568	-61.02525	309.1946	95.19939	703.82455	521.56247	524.00348	467.04658	585.8424	0
256	132.62821	387.30692	254.67871	-259.56073	-61.02525	321.39965	97.6404	711.14758	533.76752	541.09055	481.69264	600.48846	0
257	142.39225	401.95298	259.56073	-271.76578	-58.58424	331.16369	97.6404	720.91162	548.41358	555.73661	493.89769	615.13452	0
258	154.5973	414.15803	259.56073	-283.97083	-53.70222	338.48672	97.6404	735.55768	563.05964	572.82368	513.42577	632.22159	0
259	164.36134	426.36308	262.00174	-296.17588	-48.8202	345.80975	97.6404	752.64475	572.82368	587.46974	528.07183	646.86765	0
260	171.68437	433.68611	262.00174	-303.49891	-46.37919	348.25076	95.19939	764.8498	582.58772	599.67479	542.71789	656.63169	0
261	174.12538	436.12712	262.00174	-305.93992	-43.93818	350.69177	90.31737	774.61384	587.46974	606.99782	552.48193	663.95472	0
262	166.80235	428.80409	262.00174	-298.61689	-48.8202	345.80975	85.43535	779.49586	592.35176	609.43883	559.80496	668.83674	0
263	161.92033	421.48106	259.56073	-291.29386	-48.8202	340.92773	80.55333	784.37788	597.23378	611.87984	567.12799	673.71876	0
264	159.47932	416.59904	257.11972	-288.85285	-48.8202	338.48672	75.67131	789.2599	599.67479	616.76186	572.01001	681.04179	0
265	157.03831	406.835	249.79669	-281.52982	-46.37919	328.72268	73.2303	789.2599	602.1158	621.64388	574.45102	690.80583	0
266	157.03831	404.39399	247.35568	-281.52982	-46.37919	326.28167	70.78929	781.93687	604.55681	628.96691	579.33304	695.68785	0
267	157.03831	404.39399	247.35568	-281.52982	-46.37919	326.28167	68.34828	774.61384	606.99782	633.84893	581.77405	695.68785	0
268	166.80235	409.27601	242.47366	-288.85285	-39.05616	326.28167	68.34828	772.17283	611.87984	641.17196	586.65607	698.12886	0
269	176.56639	414.15803	237.59164	-296.17588	-31.73313	326.28167	65.90727	772.17283	611.87984	646.05398	591.53809	700.56987	0
270	181.44841	411.71702	230.26861	-296.17588	-24.4101	321.39965	63.46626	769.73182	611.87984	646.05398	591.53809	695.68785	0
271	186.33043	414.15803	227.8276	-301.0579	-21.96909	321.39965	56.14323	759.96778	604.55681	641.17196	589.09708	685.92381	0
272	186.33043	416.59904	230.26861	-301.0579	-21.96909	323.84066	51.26121	747.76273	597.23378	633.84893	584.21506	676.15977	0
273	186.33043	409.27601	222.94558	-298.61689	-19.52808	316.51763	46.37919	733.11667	589.91075	624.08489	574.45102	663.95472	0
274	186.33043	399.51197	213.18154	-293.73487	-14.64606	306.75359	46.37919	718.47061	582.58772	616.76186	569.569	654.19068	0
275	186.33043	389.74793	203.4175	-288.85285	-9.76404	296.98955	46.37919	701.38354	575.26469	614.32085	559.80496	649.30866	0
276	188.77144	382.4249	193.65346	-286.41184	-2.44101	289.66652	46.37919	679.41445	565.50065	609.43883	550.04092	637.10361	0
277	188.77144	377.54288	188.77144	-283.97083	0	284.7845	43.93818	655.00435	553.2956	602.1158	537.83587	624.89856	0
278	188.77144	367.77884	179.0074	-279.08881	4.88202	275.02046	43.93818	635.47627	543.53156	594.79277	528.07183	610.2525	0
279	183.88942	355.57379	171.68437	-269.32477	4.88202	265.25642	41.49717	618.3892	528.8855	585.02873	513.42577	593.16543	0
280	181.44841	343.36874	161.92033	-262.00174	9.76404	253.05137	36.61515	598.86112	514.23944	572.82368	501.22072	573.63735	0
281	176.56639	331.16369	154.5973	-254.67871	9.76404	243.28733	31.73313	576.89203	497.15237	558.17762	484.13365	551.66826	0
282	171.68437	321.39965	149.71528	-247.35568	9.76404	235.9643	29.29212	554.92294	480.0653	538.64954	467.04658	529.69917	0
283	169.24336	311.63561	142.39225	-240.03265	13.01872	228.64127	26.85111	532.95385	462.97823	521.56247	447.5185	507.73008	0
284	166.80235	299.43056	132.62821	-232.70962	17.90074	216.43622	26.85111	513.42577	445.89116	506.91641	427.99042	490.64301	0
285	164.36134	287.22551	122.86417	-225.38659	20.34175	206.67218	24.4101	486.57466	426.36308	489.82934	406.02133	471.11493	0
286	161.92033	277.46147	115.54114	-220.50457	22.78276	196.90814	24.4101	457.28254	406.835	475.18328	384.05224	449.14584	0
287	159.47932	255.49238	96.01306	-208.29952	32.5468	177.38006	29.29212	432.87244	392.18894	462.97823	369.40618	429.61776	0
288	157.03831	228.64127	71.60296	-193.65346	42.31084	150.52895	34.17414	413.34436	375.10187	450.77318	352.31911	410.08968	0
289	144.83326	199.34915	54.51589	-171.68437	44.75185	128.55986	34.17414	391.37527	355.57379	433.68611	330.35002	385.67958	0
290	130.1872	172.49804	42.31084	-152.15629	44.75185	109.03178	29.29212	369.40618	328.72268	411.71702	305.93992	358.82847	0
291	115.54114	148.08794	32.5468	-132.62821	42.31084	91.94471	24.4101	342.55507	304.31258	387.30692	281.52982	327.09534	0
292	105.7771	123.67784	17.90074	-115.54114	44.75185	72.41663	24.4101	323.02699	282.34349	365.33783	259.56073	302.68524	0
293	96.01306	106.59077	10.57771	-100.89508	42.31084	60.21158	24.4101	301.0579	260.3744	340.92773	235.15063	275.83413	0
294	83.80801	91.94471	8.1367	-88.69003	37.42882	50.44754	19.52808	276.6478	233.52329	318.95864	205.85851	248.98302	0
295	74.04397	74.85764	0.81367	-74.04397	37.42882	38.24249	19.52808	254.67871	213.99521	299.43056	181.44841	229.45494	0
296	69.16195	55.32956	-13.83239	-61.83892	42.31084	21.15542	21.96909	232.70962	196.90814	287.22551	164.36134	212.36787	0
297	64.27993	30.91946	-34.17414	-47.19286	49.63387	-0.81367	26.85111	213.18154	184.70309	275.02046	147.27427	195.2808	0
298	56.9569	13.83239	-43.93818	-34.98781	49.63387	-13.01872	26.85111	196.09447	165.17501	257.93339	125.30518	175.75272	0
299	49.63387	8.95037	-41.49717	-30.10579	44.75185	-15.45973	24.4101	181.44841	143.20592	240.84632	105.7771	153.78363	0
300	47.19286	6.50936	-41.49717	-27.66478	44.75185	-15.45973	19.52808	166.80235	126.11885	221.31824	86.24902	131.81454	0
301	44.75185	-3.25468	-48.8202	-20.34175	47.19286	-26.03744	19.52808	154.5973	106.59077	204.23117	69.16195	112.28646	0
302	37.42882	-13.01872	-51.26121	-13.01872	44.75185	-30.91946	19.52808	142.39225	91.94471	187.1441	52.07488	92.75838	0
303	34.98781	-15.45973	-51.26121	-10.57771	42.31084	-33.36047	17.08707	130.1872	74.85764	165.17501	34.98781	73.2303	0
304	34.98781	-13.01872	-48.8202	-10.57771	42.31084	-30.91946	19.52808	120.42316	62.65259	152.96996	20.34175	63.46626	0
305	34.98781	-23.59643	-58.58424	-5.69569	44.75185	-40.6835	24.4101	113.10013	52.88855	143.20592	8.1367	56.14323	0
306	27.66478	-40.6835	-68.34828	6.50936	47.19286	-52.88855	26.85111	100.89508	43.12451	135.88289	-4.06835	46.37919	0
307	22.78276	-50.44754	-73.2303	12.20505	47.19286	-60.21158	29.29212	88.69003	33.36047	128.55986	-16.2734	36.61515	0
308	22.78276	-57.77057	-80.55333	17.08707	49.63387	-67.53461	29.29212	83.80801	23.59643	121.23683	-23.59643	29.29212	0
309	22.78276	-60.21158	-82.99434	17.08707	52.07488	-69.97562	31.73313	83.80801	13.83239	113.9138	-33.36047	19.52808	0
310	20.34175	-77.29865	-97.6404	26.85111	56.9569	-87.06269	31.73313	86.24902	6.50936	106.59077	-35.80148	14.64606	0
311	15.45973	-89.5037	-104.96343	36.61515	59.39791	-96.82673	31.73313	83.80801	-1.62734	99.26774	-43.93818	7.32303	0
312	13.01872	-96.82673	-109.84545	41.49717	59.39791	-101.70875	31.73313	81.367	-8.95037	89.5037	-48.8202	0	0
313	10.57771	-106.59077	-117.16848	46.37919	61.83892	-111.47279	34.17414	81.367	-13.83239	79.73966	-56.14323	-4.88202	0
314	3.25468	-113.9138	-117.16848	53.70222	59.39791	-113.9138	34.17414	76.48498	-23.59643	72.41663	-65.90727	-9.76404	0
315	0	-118.79582	-119.60949	58.58424	59.39791	-118.79582	31.73313	66.72094	-30.91946	62.65259	-75.67131	-12.20505	0
316	-4.88202	-121.23683	-117.16848	61.02525	54.51589	-118.79582	29.29212	54.51589	-38.24249	57.77057	-85.43535	-17.08707	0
317	-7.32303	-118.79582	-112.28646	61.02525	52.07488	-116.35481	29.29212	42.31084	-45.56552	52.88855	-90.31737	-21.96909	0
318	-9.76404	-116.35481	-107.40444	61.02525	47.19286	-111.47279	29.29212	37.42882	-50.44754	48.00653	-95.19939	-26.85111	0
319	-7.32303	-111.47279	-104.96343	58.58424	47.19286	-109.03178	29.29212	39.86983	-55.32956	45.56552	-97.6404	-29.29212	0
320	0	-116.35481	-117.16848	56.14323	56.9569	-116.35481	31.73313	44.75185	-55.32956	45.56552	-95.19939	-29.29212	0
321	0	-116.35481	-117.16848	56.14323	56.9569	-116.35481	34.17414	44.75185	-57.77057	45.56552	-95.19939	-32.5468	0
322	0	-113.9138	-114.72747	56.14323	56.9569	-113.9138	34.17414	44.75185	-60.21158	38.24249	-100.08141	-34.98781	0
323	0	-116.35481	-117.16848	56.14323	56.9569	-116.35481	34.17414	42.31084	-65.0936	30.91946	-104.96343	-39.86983	0
324	0	-116.35481	-117.16848	56.14323	56.9569	-116.35481	31.73313	42.31084	-67.53461	28.47845	-104.96343	-39.86983	0
325	0	-126.11885	-126.93252	61.02525	61.83892	-126.11885	34.17414	42.31084	-67.53461	28.47845	-107.40444	-37.42882	0
326	-2.44101	-128.55986	-126.93252	63.46626	61.83892	-128.55986	34.17414	32.5468	-72.41663	28.47845	-112.28646	-39.86983	0
327	-9.76404	-126.11885	-117.16848	65.90727	52.07488	-121.23683	29.29212	21.96909	-77.29865	23.59643	-117.16848	-47.19286	0
328	-9.76404	-123.67784	-114.72747	65.90727	52.07488	-118.79582	26.85111	17.08707	-82.18067	23.59643	-117.16848	-49.63387	0
329	-9.76404	-121.23683	-112.28646	63.46626	49.63387	-116.35481	24.4101	19.52808	-84.62168	21.15542	-119.60949	-52.07488	0
330	-9.76404	-118.79582	-109.84545	63.46626	49.63387	-113.9138	24.4101	21.96909	-84.62168	21.15542	-117.16848	-52.07488	0
331	-14.64606	-123.67784	-109.84545	68.34828	47.19286	-116.35481	21.96909	19.52808	-89.5037	18.71441	-119.60949	-54.51589	0
332	-21.96909	-121.23683	-100.08141	70.78929	37.42882	-111.47279	19.52808	19.52808	-91.94471	13.83239	-124.49151	-59.39791	0
333	-21.96909	-133.44188	-112.28646	75.67131	44.75185	-123.67784	21.96909	21.96909	-91.94471	11.39138	-124.49151	-59.39791	0
334	-26.85111	-143.20592	-117.16848	82.99434	44.75185	-131.00087	24.4101	21.96909	-91.94471	13.83239	-122.0505	-54.51589	0
335	-26.85111	-140.76491	-114.72747	82.99434	42.31084	-128.55986	24.4101	21.96909	-91.94471	13.83239	-124.49151	-52.07488	0
336	-29.29212	-138.3239	-109.84545	82.99434	39.86983	-123.67784	21.96909	14.64606	-94.38572	16.2734	-124.49151	-52.07488	0
337	-26.85111	-143.20592	-117.16848	82.99434	44.75185	-131.00087	24.4101	9.76404	-94.38572	21.15542	-124.49151	-49.63387	0
338	-24.4101	-145.64693	-122.0505	82.99434	47.19286	-133.44188	26.85111	12.20505	-91.94471	26.03744	-119.60949	-47.19286	0
339	-19.52808	-140.76491	-122.0505	78.11232	49.63387	-131.00087	26.85111	14.64606	-91.94471	28.47845	-119.60949	-44.75185	0
340	-17.08707	-128.55986	-112.28646	70.78929	47.19286	-121.23683	24.4101	17.08707	-94.38572	28.47845	-117.16848	-47.19286	0
341	-12.20505	-126.11885	-114.72747	68.34828	49.63387	-121.23683	26.85111	21.96909	-94.38572	30.91946	-114.72747	-47.19286	0
342	-9.76404	-135.88289	-126.93252	70.78929	56.9569	-131.00087	31.73313	27.66478	-89.5037	30.91946	-109.84545	-44.75185	0
343	-9.76404	-131.00087	-122.0505	68.34828	54.51589	-126.11885	34.17414	30.10579	-89.5037	28.47845	-109.84545	-47.19286	0
344	-4.88202	-113.9138	-109.84545	58.58424	52.07488	-111.47279	34.17414	30.10579	-94.38572	26.03744	-112.28646	-47.19286	0
345	-2.44101	-99.26774	-97.6404	48.8202	47.19286	-99.26774	34.17414	30.10579	-96.82673	23.59643	-114.72747	-44.75185	0
346	0	-84.62168	-85.43535	41.49717	42.31084	-84.62168	31.73313	21.96909	-99.26774	23.59643	-119.60949	-47.19286	0
347	-2.44101	-89.5037	-87.87636	43.93818	42.31084	-89.5037	31.73313	21.96909	-99.26774	26.03744	-119.60949	-47.19286	0
348	-4.88202	-91.94471	-87.87636	46.37919	39.86983	-89.5037	31.73313	21.96909	-99.26774	28.47845	-117.16848	-44.75185	0
349	-9.76404	-94.38572	-85.43535	51.26121	37.42882	-89.5037	31.73313	27.66478	-99.26774	30.91946	-114.72747	-44.75185	0
350	-9.76404	-99.26774	-90.31737	53.70222	39.86983	-94.38572	31.73313	32.5468	-99.26774	30.91946	-109.84545	-42.31084	0
351	-12.20505	-106.59077	-95.19939	58.58424	39.86983	-101.70875	31.73313	34.98781	-99.26774	33.36047	-107.40444	-42.31084	0
352	-17.08707	-111.47279	-95.19939	63.46626	37.42882	-104.14976	31.73313	39.86983	-99.26774	28.47845	-104.96343	-44.75185	0
353	-19.52808	-109.03178	-90.31737	63.46626	34.98781	-99.26774	31.73313	42.31084	-101.70875	26.03744	-104.96343	-47.19286	0
354	-21.96909	-109.03178	-87.87636	63.46626	32.5468	-99.26774	34.17414	47.19286	-101.70875	26.03744	-104.96343	-44.75185	0
355	-26.85111	-113.9138	-87.87636	68.34828	30.10579	-101.70875	36.61515	49.63387	-99.26774	26.03744	-107.40444	-42.31084	0
356	-26.85111	-118.79582	-92.75838	70.78929	32.5468	-106.59077	41.49717	47.19286	-99.26774	30.91946	-107.40444	-39.86983	0
357	-31.73313	-131.00087	-100.08141	80.55333	32.5468	-116.35481	43.93818	44.75185	-96.82673	33.36047	-104.96343	-39.86983	0
358	-34.17414	-140.76491	-107.40444	85.43535	34.98781	-123.67784	48.8202	49.63387	-94.38572	35.80148	-102.52242	-37.42882	0
359	-34.17414	-148.08794	-114.72747	90.31737	39.86983	-131.00087	51.26121	59.39791	-91.94471	40.6835	-100.08141	-32.5468	0
360	-31.73313	-140.76491	-109.84545	85.43535	37.42882	-126.11885	48.8202	61.83892	-91.94471	38.24249	-100.08141	-32.5468	0
361	-26.85111	-121.23683	-95.19939	73.2303	32.5468	-109.03178	46.37919	61.83892	-99.26774	33.36047	-102.52242	-39.86983	0
362	-21.96909	-111.47279	-90.31737	65.90727	32.5468	-101.70875	46.37919	66.72094	-99.26774	30.91946	-102.52242	-39.86983	-1500	QRS-0
363	-14.64606	-94.38572	-80.55333	53.70222	32.5468	-87.06269	43.93818	69.16195	-99.26774	26.03744	-104.96343	-42.31084	0
364	-19.52808	-91.94471	-73.2303	53.70222	25.22377	-82.18067	43.93818	69.16195	-101.70875	23.59643	-109.84545	-42.31084	0
365	-26.85111	-94.38572	-68.34828	58.58424	20.34175	-82.18067	41.49717	69.16195	-104.14976	21.15542	-114.72747	-39.86983	0
366	-34.17414	-96.82673	-63.46626	63.46626	13.01872	-79.73966	39.05616	61.83892	-106.59077	21.15542	-119.60949	-39.86983	0
367	-41.49717	-106.59077	-65.90727	73.2303	9.76404	-87.06269	36.61515	56.9569	-106.59077	21.15542	-119.60949	-39.86983	0
368	-48.8202	-113.9138	-65.90727	80.55333	7.32303	-89.5037	36.61515	59.39791	-104.14976	23.59643	-119.60949	-39.86983	0
369	-51.26121	-116.35481	-65.90727	82.99434	4.88202	-91.94471	36.61515	64.27993	-104.14976	26.03744	-119.60949	-39.86983	0
370	-53.70222	-118.79582	-65.90727	85.43535	4.88202	-91.94471	36.61515	71.60296	-101.70875	26.03744	-114.72747	-37.42882	0
371	-48.8202	-116.35481	-68.34828	80.55333	7.32303	-91.94471	39.05616	76.48498	-96.82673	28.47845	-109.84545	-34.98781	0
372	-41.49717	-111.47279	-70.78929	75.67131	13.01872	-91.94471	43.93818	83.80801	-89.5037	30.91946	-104.96343	-32.5468	0
373	-34.17414	-118.79582	-85.43535	75.67131	25.22377	-101.70875	53.70222	93.57205	-79.73966	35.80148	-97.6404	-29.29212	0
374	-31.73313	-121.23683	-90.31737	75.67131	27.66478	-106.59077	56.14323	100.89508	-77.29865	35.80148	-97.6404	-24.4101	0
375	-34.17414	-116.35481	-82.99434	73.2303	22.78276	-99.26774	56.14323	96.01306	-77.29865	35.80148	-102.52242	-24.4101	0
376	-39.05616	-118.79582	-80.55333	78.11232	20.34175	-99.26774	56.14323	91.13104	-77.29865	38.24249	-102.52242	-21.96909	0
377	-39.05616	-118.79582	-80.55333	78.11232	20.34175	-99.26774	56.14323	83.80801	-77.29865	40.6835	-102.52242	-21.96909	0
378	-41.49717	-121.23683	-80.55333	80.55333	17.90074	-101.70875	53.70222	83.80801	-74.85764	43.12451	-102.52242	-21.96909	0
379	-46.37919	-121.23683	-75.67131	82.99434	13.01872	-99.26774	51.26121	86.24902	-74.85764	43.12451	-100.08141	-21.96909	0
380	-46.37919	-111.47279	-65.90727	78.11232	7.32303	-89.5037	46.37919	86.24902	-79.73966	40.6835	-102.52242	-24.4101	0
381	-41.49717	-106.59077	-65.90727	73.2303	9.76404	-87.06269	46.37919	88.69003	-79.73966	40.6835	-97.6404	-24.4101	0
382	-39.05616	-104.14976	-65.90727	70.78929	13.01872	-84.62168	48.8202	91.13104	-79.73966	40.6835	-95.19939	-24.4101	0
383	-36.61515	-99.26774	-63.46626	65.90727	13.01872	-82.18067	48.8202	93.57205	-79.73966	35.80148	-95.19939	-24.4101	0
384	-31.73313	-96.82673	-65.90727	63.46626	15.45973	-82.18067	53.70222	98.45407	-79.73966	38.24249	-95.19939	-21.96909	0
385	-24.4101	-87.06269	-63.46626	53.70222	17.90074	-74.85764	56.14323	96.01306	-79.73966	38.24249	-95.19939	-17.08707	0
386	-14.64606	-91.94471	-78.11232	51.26121	30.10579	-84.62168	65.90727	98.45407	-69.97562	50.44754	-90.31737	-7.32303	0
387	-7.32303	-87.06269	-80.55333	46.37919	34.98781	-84.62168	70.78929	96.01306	-67.53461	57.77057	-87.87636	-2.44101	0
388	-2.44101	-82.18067	-80.55333	41.49717	37.42882	-82.18067	70.78929	96.01306	-67.53461	57.77057	-85.43535	-2.44101	0
389	-2.44101	-87.06269	-85.43535	43.93818	39.86983	-87.06269	73.2303	100.89508	-65.0936	62.65259	-82.99434	0	0
390	-7.32303	-94.38572	-87.87636	48.8202	39.86983	-91.94471	68.34828	100.89508	-69.97562	60.21158	-82.99434	-4.88202	0
391	-19.52808	-109.03178	-90.31737	63.46626	34.98781	-99.26774	63.46626	96.01306	-74.85764	57.77057	-87.87636	-12.20505	0
392	-31.73313	-123.67784	-92.75838	75.67131	30.10579	-109.03178	58.58424	93.57205	-77.29865	50.44754	-90.31737	-17.08707	0
393	-43.93818	-123.67784	-80.55333	82.99434	17.90074	-101.70875	51.26121	86.24902	-84.62168	40.6835	-97.6404	-26.85111	0
394	-51.26121	-133.44188	-82.99434	90.31737	15.45973	-109.03178	46.37919	83.80801	-87.06269	35.80148	-102.52242	-29.29212	0
395	-56.14323	-133.44188	-78.11232	92.75838	9.76404	-106.59077	46.37919	78.92599	-87.06269	35.80148	-104.96343	-29.29212	0
396	-58.58424	-131.00087	-73.2303	92.75838	4.88202	-101.70875	43.93818	71.60296	-84.62168	38.24249	-104.96343	-26.85111	0
397	-56.14323	-131.00087	-75.67131	92.75838	7.32303	-104.14976	46.37919	66.72094	-79.73966	43.12451	-102.52242	-21.96909	0
398	-48.8202	-118.79582	-70.78929	82.99434	9.76404	-94.38572	46.37919	66.72094	-77.29865	43.12451	-102.52242	-21.96909	0
399	-43.93818	-109.03178	-65.90727	75.67131	9.76404	-87.06269	46.37919	66.72094	-74.85764	45.56552	-100.08141	-19.52808	0
400	-43.93818	-121.23683	-78.11232	80.55333	15.45973	-99.26774	48.8202	74.04397	-69.97562	50.44754	-95.19939	-14.64606	0
401	-41.49717	-131.00087	-90.31737	85.43535	22.78276	-111.47279	48.8202	76.48498	-65.0936	52.88855	-90.31737	-12.20505	0
402	-39.05616	-126.11885	-87.87636	80.55333	22.78276	-106.59077	51.26121	76.48498	-65.0936	50.44754	-90.31737	-12.20505	0
403	-36.61515	-121.23683	-85.43535	78.11232	22.78276	-104.14976	51.26121	76.48498	-65.0936	48.00653	-87.87636	-12.20505	0
404	-31.73313	-113.9138	-82.99434	70.78929	25.22377	-99.26774	51.26121	78.92599	-62.65259	48.00653	-87.87636	-7.32303	0
405	-31.73313	-106.59077	-75.67131	68.34828	20.34175	-91.94471	51.26121	76.48498	-62.65259	48.00653	-87.87636	-4.88202	0
406	-29.29212	-89.5037	-61.02525	58.58424	15.45973	-74.85764	48.8202	71.60296	-67.53461	48.00653	-92.75838	-7.32303	0
407	-24.4101	-77.29865	-53.70222	48.8202	13.01872	-65.0936	48.8202	66.72094	-67.53461	48.00653	-95.19939	-7.32303	0
408	-21.96909	-69.97562	-48.8202	43.93818	13.01872	-60.21158	48.8202	66.72094	-67.53461	45.56552	-95.19939	-7.32303	0
409	-17.08707	-65.0936	-48.8202	39.05616	15.45973	-57.77057	48.8202	71.60296	-67.53461	45.56552	-95.19939	-7.32303	0
410	-14.64606	-65.0936	-51.26121	39.05616	17.90074	-57.77057	48.8202	74.04397	-65.0936	45.56552	-95.19939	-7.32303	0
411	-14.64606	-79.73966	-65.90727	46.37919	25.22377	-72.41663	53.70222	76.48498	-62.65259	50.44754	-92.75838	-4.88202	0
412	-12.20505	-91.94471	-80.55333	51.26121	32.5468	-87.06269	56.14323	78.92599	-60.21158	50.44754	-85.43535	0	0
413	-12.20505	-94.38572	-82.99434	51.26121	34.98781	-89.5037	56.14323	78.92599	-60.21158	50.44754	-85.43535	2.44101	0
414	-17.08707	-99.26774	-82.99434	56.14323	32.5468	-91.94471	56.14323	78.92599	-60.21158	48.00653	-85.43535	4.88202	0
415	-21.96909	-121.23683	-100.08141	70.78929	37.42882	-111.47279	58.58424	81.367	-57.77057	52.88855	-80.55333	14.64606	0
416	-26.85111	-135.88289	-109.84545	80.55333	39.86983	-123.67784	61.02525	83.80801	-57.77057	55.32956	-80.55333	19.52808	0
417	-26.85111	-133.44188	-107.40444	78.11232	39.86983	-121.23683	56.14323	81.367	-57.77057	55.32956	-80.55333	21.96909	0
418	-29.29212	-123.67784	-95.19939	75.67131	32.5468	-109.03178	48.8202	78.92599	-62.65259	50.44754	-85.43535	17.08707	0
419	-31.73313	-128.55986	-97.6404	78.11232	32.5468	-113.9138	46.37919	78.92599	-62.65259	50.44754	-87.87636	17.08707	0
420	-31.73313	-133.44188	-102.52242	80.55333	34.98781	-118.79582	41.49717	78.92599	-62.65259	50.44754	-90.31737	17.08707	0
421	-29.29212	-113.9138	-85.43535	70.78929	27.66478	-99.26774	34.17414	71.60296	-69.97562	45.56552	-97.6404	9.76404	0
422	-24.4101	-77.29865	-53.70222	48.8202	13.01872	-65.0936	21.96909	56.9569	-77.29865	35.80148	-107.40444	-2.44101	0
423	-24.4101	-65.0936	-41.49717	43.93818	7.32303	-52.88855	17.08707	49.63387	-82.18067	30.91946	-109.84545	-9.76404	0
424	-21.96909	-72.41663	-51.26121	46.37919	13.01872	-62.65259	19.52808	49.63387	-82.18067	38.24249	-109.84545	-4.88202	0
425	-21.96909	-74.85764	-53.70222	46.37919	15.45973	-65.0936	19.52808	49.63387	-82.18067	40.6835	-109.84545	-2.44101	0
426	-21.96909	-74.85764	-53.70222	46.37919	15.45973	-65.0936	19.52808	47.19286	-84.62168	48.00653	-109.84545	2.44101	0
427	-19.52808	-77.29865	-58.58424	46.37919	17.90074	-67.53461	21.96909	47.19286	-82.18067	55.32956	-104.96343	4.88202	0
428	-19.52808	-94.38572	-75.67131	56.14323	27.66478	-84.62168	26.85111	52.07488	-79.73966	65.0936	-102.52242	9.76404	0
429	-21.96909	-109.03178	-87.87636	63.46626	32.5468	-99.26774	29.29212	54.51589	-79.73966	72.41663	-100.08141	12.20505	0
430	-24.4101	-101.70875	-78.11232	61.02525	25.22377	-89.5037	26.85111	49.63387	-84.62168	72.41663	-104.96343	7.32303	0
431	-21.96909	-91.94471	-70.78929	56.14323	22.78276	-82.18067	24.4101	42.31084	-87.06269	72.41663	-109.84545	0	0
432	-17.08707	-82.18067	-65.90727	48.8202	22.78276	-74.85764	21.96909	37.42882	-89.5037	74.85764	-109.84545	-2.44101	0
433	-17.08707	-74.85764	-58.58424	43.93818	20.34175	-67.53461	21.96909	32.5468	-94.38572	77.29865	-114.72747	-7.32303	0
434	-14.64606	-65.0936	-51.26121	39.05616	17.90074	-57.77057	17.08707	27.66478	-96.82673	77.29865	-117.16848	-7.32303	0
435	-14.64606	-60.21158	-46.37919	36.61515	15.45973	-52.88855	17.08707	25.22377	-99.26774	79.73966	-117.16848	-7.32303	0
436	-12.20505	-52.88855	-41.49717	31.73313	13.01872	-48.00653	14.64606	21.96909	-101.70875	82.18067	-117.16848	-4.88202	0
437	-12.20505	-45.56552	-34.17414	26.85111	9.76404	-40.6835	12.20505	19.52808	-104.14976	82.18067	-119.60949	-4.88202	0
438	-17.08707	-52.88855	-36.61515	34.17414	7.32303	-45.56552	12.20505	19.52808	-104.14976	84.62168	-119.60949	-4.88202	0
439	-21.96909	-67.53461	-46.37919	43.93818	9.76404	-57.77057	12.20505	19.52808	-104.14976	87.06269	-119.60949	0	0
440	-24.4101	-72.41663	-48.8202	46.37919	9.76404	-60.21158	12.20505	19.52808	-106.59077	87.06269	-119.60949	0	0
441	-24.4101	-74.85764	-51.26121	48.8202	13.01872	-62.65259	12.20505	19.52808	-106.59077	91.94471	-117.16848	-2.44101	0
442	-21.96909	-74.85764	-53.70222	46.37919	15.45973	-65.0936	14.64606	17.08707	-106.59077	91.94471	-117.16848	-2.44101	0
443	-21.96909	-84.62168	-63.46626	51.26121	20.34175	-74.85764	17.08707	21.96909	-101.70875	94.38572	-114.72747	-2.44101	0
444	-21.96909	-94.38572	-73.2303	56.14323	25.22377	-84.62168	19.52808	25.22377	-96.82673	99.26774	-112.28646	2.44101	0
445	-21.96909	-91.94471	-70.78929	56.14323	22.78276	-82.18067	19.52808	25.22377	-94.38572	99.26774	-112.28646	4.88202	0
446	-24.4101	-91.94471	-68.34828	56.14323	20.34175	-79.73966	17.08707	25.22377	-94.38572	99.26774	-112.28646	4.88202	0
447	-34.17414	-99.26774	-65.90727	65.90727	15.45973	-82.18067	12.20505	21.96909	-94.38572	96.82673	-114.72747	2.44101	0
448	-39.05616	-104.14976	-65.90727	70.78929	13.01872	-84.62168	7.32303	14.64606	-96.82673	94.38572	-117.16848	2.44101	0
449	-43.93818	-106.59077	-63.46626	73.2303	7.32303	-84.62168	1.62734	9.76404	-99.26774	91.94471	-117.16848	0	0
450	-41.49717	-101.70875	-61.02525	70.78929	7.32303	-82.18067	-3.25468	4.88202	-99.26774	91.94471	-119.60949	0	0
451	-31.73313	-94.38572	-63.46626	61.02525	15.45973	-79.73966	-5.69569	0	-99.26774	94.38572	-117.16848	0	0
452	-24.4101	-84.62168	-61.02525	53.70222	17.90074	-72.41663	-10.57771	-4.88202	-104.14976	91.94471	-119.60949	-2.44101	0
453	-14.64606	-77.29865	-63.46626	43.93818	22.78276	-69.97562	-10.57771	-4.88202	-99.26774	91.94471	-119.60949	-2.44101	0
454	-2.44101	-67.53461	-65.90727	34.17414	30.10579	-67.53461	-8.1367	0	-94.38572	94.38572	-117.16848	4.88202	0
455	5.69569	-62.65259	-68.34828	26.85111	34.98781	-65.0936	-3.25468	2.44101	-89.5037	94.38572	-117.16848	7.32303	0
456	5.69569	-67.53461	-73.2303	29.29212	37.42882	-69.97562	-3.25468	2.44101	-89.5037	94.38572	-117.16848	9.76404	0
457	0	-69.97562	-70.78929	34.17414	34.98781	-69.97562	-3.25468	-2.44101	-89.5037	91.94471	-119.60949	7.32303	0
458	-7.32303	-82.18067	-75.67131	43.93818	32.5468	-79.73966	-0.81367	-4.88202	-87.06269	91.94471	-122.0505	4.88202	0
459	-9.76404	-94.38572	-85.43535	51.26121	37.42882	-89.5037	4.06835	-4.88202	-84.62168	96.82673	-117.16848	7.32303	0
460	-12.20505	-104.14976	-92.75838	56.14323	39.86983	-99.26774	7.32303	-7.32303	-84.62168	99.26774	-112.28646	7.32303	0
461	-14.64606	-116.35481	-102.52242	63.46626	42.31084	-109.03178	9.76404	-9.76404	-84.62168	99.26774	-109.84545	7.32303	0
462	-12.20505	-116.35481	-104.96343	63.46626	44.75185	-111.47279	12.20505	-9.76404	-84.62168	99.26774	-104.96343	7.32303	0
463	-4.88202	-113.9138	-109.84545	58.58424	52.07488	-111.47279	14.64606	-7.32303	-84.62168	101.70875	-102.52242	7.32303	0
464	-4.88202	-111.47279	-107.40444	56.14323	49.63387	-109.03178	14.64606	-7.32303	-87.06269	96.82673	-102.52242	9.76404	0
465	-2.44101	-99.26774	-97.6404	48.8202	47.19286	-99.26774	9.76404	-9.76404	-89.5037	89.5037	-104.96343	9.76404	0
466	-2.44101	-94.38572	-92.75838	46.37919	44.75185	-94.38572	9.76404	-12.20505	-91.94471	87.06269	-107.40444	7.32303	0
467	-2.44101	-89.5037	-87.87636	43.93818	42.31084	-89.5037	7.32303	-14.64606	-91.94471	84.62168	-107.40444	7.32303	0
468	-4.88202	-91.94471	-87.87636	46.37919	39.86983	-89.5037	7.32303	-17.08707	-91.94471	84.62168	-107.40444	7.32303	0
469	-7.32303	-96.82673	-90.31737	51.26121	39.86983	-94.38572	4.06835	-21.96909	-89.5037	89.5037	-107.40444	4.88202	0
470	-9.76404	-94.38572	-85.43535	51.26121	37.42882	-89.5037	4.06835	-26.85111	-89.5037	89.5037	-104.96343	4.88202	0
471	-4.88202	-87.06269	-82.99434	43.93818	37.42882	-84.62168	4.06835	-26.85111	-89.5037	94.38572	-102.52242	4.88202	0
472	0	-87.06269	-87.87636	41.49717	42.31084	-87.06269	7.32303	-21.96909	-87.06269	96.82673	-100.08141	4.88202	0
473	3.25468	-87.06269	-90.31737	41.49717	44.75185	-87.06269	9.76404	-19.52808	-84.62168	99.26774	-100.08141	4.88202	0
474	5.69569	-74.85764	-80.55333	34.17414	42.31084	-77.29865	7.32303	-19.52808	-84.62168	94.38572	-104.96343	4.88202	0
475	10.57771	-67.53461	-78.11232	26.85111	42.31084	-72.41663	9.76404	-17.08707	-84.62168	89.5037	-104.96343	9.76404	0
476	8.1367	-74.85764	-82.99434	31.73313	44.75185	-77.29865	14.64606	-9.76404	-79.73966	91.94471	-102.52242	14.64606	0
477	8.1367	-84.62168	-92.75838	36.61515	49.63387	-87.06269	19.52808	-7.32303	-74.85764	94.38572	-102.52242	17.08707	0
478	3.25468	-91.94471	-95.19939	43.93818	47.19286	-91.94471	19.52808	-12.20505	-72.41663	91.94471	-102.52242	14.64606	0
479	0	-96.82673	-97.6404	46.37919	47.19286	-96.82673	19.52808	-14.64606	-72.41663	91.94471	-102.52242	14.64606	0
480	-7.32303	-111.47279	-104.96343	58.58424	47.19286	-109.03178	21.96909	-17.08707	-67.53461	96.82673	-97.6404	17.08707	0
481	-12.20505	-133.44188	-122.0505	70.78929	54.51589	-128.55986	24.4101	-12.20505	-65.0936	104.14976	-92.75838	17.08707	0
482	-17.08707	-128.55986	-112.28646	70.78929	47.19286	-121.23683	21.96909	-14.64606	-67.53461	99.26774	-95.19939	14.64606	0
483	-19.52808	-113.9138	-95.19939	65.90727	37.42882	-104.14976	17.08707	-17.08707	-67.53461	96.82673	-100.08141	7.32303	0
484	-19.52808	-113.9138	-95.19939	65.90727	37.42882	-104.14976	14.64606	-14.64606	-67.53461	94.38572	-100.08141	9.76404	0
485	-14.64606	-106.59077	-92.75838	58.58424	37.42882	-99.26774	17.08707	-9.76404	-65.0936	89.5037	-102.52242	12.20505	0
486	-14.64606	-106.59077	-92.75838	58.58424	37.42882	-99.26774	19.52808	-2.44101	-62.65259	89.5037	-100.08141	14.64606	0
487	-12.20505	-104.14976	-92.75838	56.14323	39.86983	-99.26774	21.96909	-2.44101	-57.77057	89.5037	-100.08141	17.08707	0
488	-9.76404	-101.70875	-92.75838	53.70222	39.86983	-96.82673	24.4101	-4.88202	-55.32956	91.94471	-100.08141	14.64606	0
489	-4.88202	-106.59077	-102.52242	53.70222	47.19286	-104.14976	29.29212	-2.44101	-45.56552	101.70875	-92.75838	21.96909	0
490	0	-111.47279	-112.28646	53.70222	54.51589	-111.47279	34.17414	-2.44101	-40.6835	106.59077	-85.43535	24.4101	0
491	0	-113.9138	-114.72747	56.14323	56.9569	-113.9138	39.05616	0	-35.80148	113.9138	-78.11232	29.29212	0
492	5.69569	-111.47279	-117.16848	51.26121	59.39791	-113.9138	41.49717	2.44101	-30.91946	116.35481	-75.67131	29.29212	0
493	8.1367	-99.26774	-107.40444	43.93818	56.9569	-101.70875	41.49717	2.44101	-28.47845	116.35481	-75.67131	26.85111	0
494	8.1367	-99.26774	-107.40444	43.93818	56.9569	-101.70875	41.49717	7.32303	-26.03744	116.35481	-73.2303	31.73313	0
495	8.1367	-101.70875	-109.84545	46.37919	56.9569	-104.14976	43.93818	9.76404	-23.59643	111.47279	-73.2303	34.17414	0
496	5.69569	-96.82673	-102.52242	43.93818	52.07488	-99.26774	43.93818	12.20505	-23.59643	109.03178	-73.2303	36.61515	0
497	5.69569	-94.38572	-100.08141	43.93818	52.07488	-96.82673	43.93818	9.76404	-21.15542	106.59077	-73.2303	39.05616	0
498	0	-104.14976	-104.96343	51.26121	52.07488	-104.14976	41.49717	7.32303	-18.71441	106.59077	-75.67131	39.05616	0
499	-7.32303	-116.35481	-109.84545	61.02525	49.63387	-113.9138	41.49717	4.88202	-16.2734	109.03178	-75.67131	41.49717	0
500	-9.76404	-126.11885	-117.16848	65.90727	52.07488	-121.23683	41.49717	0	-11.39138	111.47279	-70.78929	41.49717	0
501	-9.76404	-126.11885	-117.16848	65.90727	52.07488	-121.23683	41.49717	0	-11.39138	113.9138	-68.34828	41.49717	0
502	-9.76404	-118.79582	-109.84545	63.46626	49.63387	-113.9138	39.05616	-2.44101	-11.39138	111.47279	-70.78929	39.05616	0
503	-14.64606	-118.79582	-104.96343	65.90727	44.75185	-111.47279	36.61515	-4.88202	-11.39138	109.03178	-73.2303	34.17414	0
504	-9.76404	-104.14976	-95.19939	56.14323	42.31084	-99.26774	31.73313	-7.32303	-11.39138	106.59077	-73.2303	34.17414	0
505	-2.44101	-87.06269	-85.43535	43.93818	39.86983	-87.06269	31.73313	-9.76404	-11.39138	101.70875	-73.2303	36.61515	0
506	0	-77.29865	-78.11232	36.61515	37.42882	-77.29865	31.73313	-7.32303	-8.95037	101.70875	-70.78929	39.05616	0
507	3.25468	-65.0936	-68.34828	29.29212	34.98781	-65.0936	31.73313	-12.20505	-8.95037	99.26774	-70.78929	39.05616	0
508	3.25468	-60.21158	-63.46626	26.85111	32.5468	-60.21158	31.73313	-17.08707	-8.95037	99.26774	-73.2303	36.61515	0
509	3.25468	-60.21158	-63.46626	26.85111	32.5468	-60.21158	31.73313	-21.96909	-6.50936	101.70875	-70.78929	36.61515	0
510	3.25468	-69.97562	-73.2303	31.73313	37.42882	-69.97562	34.17414	-21.96909	-1.62734	109.03178	-65.90727	41.49717	0
511	0	-91.94471	-92.75838	43.93818	44.75185	-91.94471	41.49717	-12.20505	6.50936	118.79582	-53.70222	51.26121	0
512	0	-101.70875	-102.52242	48.8202	49.63387	-101.70875	43.93818	-7.32303	11.39138	121.23683	-48.8202	53.70222	0
513	0	-106.59077	-107.40444	51.26121	52.07488	-106.59077	46.37919	-2.44101	18.71441	128.55986	-43.93818	56.14323	0
514	0	-113.9138	-114.72747	56.14323	56.9569	-113.9138	48.8202	0	21.15542	131.00087	-38.24249	61.02525	0
515	3.25468	-126.11885	-129.37353	61.02525	64.27993	-126.11885	53.70222	7.32303	28.47845	133.44188	-33.36047	68.34828	0
516	3.25468	-128.55986	-131.81454	61.02525	66.72094	-128.55986	58.58424	12.20505	30.91946	133.44188	-28.47845	68.34828	0
517	5.69569	-121.23683	-126.93252	56.14323	64.27993	-123.67784	58.58424	9.76404	33.36047	131.00087	-30.91946	68.34828	0
518	10.57771	-109.03178	-119.60949	48.8202	64.27993	-113.9138	53.70222	0	30.91946	128.55986	-33.36047	65.90727	0
519	10.57771	-96.82673	-107.40444	41.49717	56.9569	-101.70875	51.26121	-7.32303	30.91946	128.55986	-33.36047	61.02525	0
520	15.45973	-84.62168	-100.08141	34.17414	56.9569	-91.94471	48.8202	-12.20505	30.91946	128.55986	-33.36047	61.02525	0
521	17.90074	-77.29865	-95.19939	29.29212	54.51589	-84.62168	46.37919	-12.20505	30.91946	128.55986	-33.36047	61.02525	0
522	15.45973	-74.85764	-90.31737	29.29212	52.07488	-82.18067	41.49717	-12.20505	30.91946	126.11885	-33.36047	58.58424	0
523	10.57771	-77.29865	-87.87636	31.73313	47.19286	-82.18067	36.61515	-12.20505	30.91946	123.67784	-35.80148	56.14323	0
524	3.25468	-77.29865	-80.55333	36.61515	39.86983	-77.29865	34.17414	-14.64606	30.91946	121.23683	-35.80148	56.14323	0
525	0	-82.18067	-82.99434	39.05616	39.86983	-82.18067	31.73313	-14.64606	30.91946	116.35481	-38.24249	56.14323	0
526	-7.32303	-94.38572	-87.87636	48.8202	39.86983	-91.94471	31.73313	-14.64606	30.91946	113.9138	-38.24249	56.14323	0
527	-12.20505	-104.14976	-92.75838	56.14323	39.86983	-99.26774	36.61515	-14.64606	33.36047	111.47279	-38.24249	56.14323	0
528	-12.20505	-104.14976	-92.75838	56.14323	39.86983	-99.26774	36.61515	-21.96909	35.80148	111.47279	-38.24249	53.70222	0
529	-9.76404	-101.70875	-92.75838	53.70222	39.86983	-96.82673	41.49717	-26.85111	43.12451	116.35481	-38.24249	53.70222	0
530	-2.44101	-106.59077	-104.96343	53.70222	49.63387	-106.59077	46.37919	-29.29212	48.00653	121.23683	-33.36047	53.70222	0
531	0	-106.59077	-107.40444	51.26121	52.07488	-106.59077	46.37919	-26.85111	50.44754	123.67784	-28.47845	53.70222	0
532	5.69569	-106.59077	-112.28646	48.8202	56.9569	-109.03178	48.8202	-24.4101	52.88855	123.67784	-26.03744	56.14323	0
533	10.57771	-106.59077	-117.16848	46.37919	61.83892	-111.47279	48.8202	-19.52808	57.77057	126.11885	-21.15542	61.02525	0
534	15.45973	-101.70875	-117.16848	41.49717	64.27993	-109.03178	48.8202	-19.52808	60.21158	126.11885	-18.71441	68.34828	0
535	17.90074	-101.70875	-119.60949	41.49717	66.72094	-109.03178	48.8202	-14.64606	62.65259	123.67784	-13.83239	73.2303	0
536	15.45973	-99.26774	-114.72747	41.49717	64.27993	-106.59077	46.37919	-17.08707	60.21158	118.79582	-13.83239	73.2303	0
537	13.01872	-89.5037	-102.52242	36.61515	56.9569	-94.38572	41.49717	-24.4101	60.21158	113.9138	-16.2734	73.2303	0
538	13.01872	-84.62168	-97.6404	34.17414	54.51589	-89.5037	41.49717	-31.73313	60.21158	111.47279	-16.2734	73.2303	0
539	8.1367	-89.5037	-97.6404	39.05616	52.07488	-91.94471	41.49717	-41.49717	62.65259	113.9138	-18.71441	73.2303	0
540	0	-96.82673	-97.6404	46.37919	47.19286	-96.82673	39.05616	-48.8202	62.65259	111.47279	-18.71441	70.78929	0
541	-2.44101	-99.26774	-97.6404	48.8202	47.19286	-99.26774	39.05616	-51.26121	62.65259	111.47279	-21.15542	68.34828	0
542	0	-96.82673	-97.6404	46.37919	47.19286	-96.82673	36.61515	-51.26121	65.0936	109.03178	-21.15542	65.90727	0
543	0	-101.70875	-102.52242	48.8202	49.63387	-101.70875	39.05616	-43.93818	72.41663	113.9138	-18.71441	65.90727	0
544	0	-113.9138	-114.72747	56.14323	56.9569	-113.9138	41.49717	-41.49717	77.29865	113.9138	-16.2734	68.34828	0
545	0	-111.47279	-112.28646	53.70222	54.51589	-111.47279	41.49717	-39.05616	79.73966	111.47279	-16.2734	65.90727	0
546	0	-101.70875	-102.52242	48.8202	49.63387	-101.70875	43.93818	-36.61515	79.73966	111.47279	-13.83239	65.90727	0
547	5.69569	-99.26774	-104.96343	46.37919	54.51589	-101.70875	46.37919	-36.61515	87.06269	113.9138	-8.95037	68.34828	0
548	5.69569	-109.03178	-114.72747	51.26121	59.39791	-111.47279	51.26121	-36.61515	91.94471	116.35481	-6.50936	68.34828	0
549	3.25468	-116.35481	-119.60949	56.14323	59.39791	-116.35481	51.26121	-43.93818	94.38572	118.79582	-6.50936	68.34828	0
550	0	-118.79582	-119.60949	58.58424	59.39791	-118.79582	53.70222	-51.26121	94.38572	118.79582	-6.50936	65.90727	0
551	0	-126.11885	-126.93252	61.02525	61.83892	-126.11885	53.70222	-51.26121	91.94471	118.79582	-6.50936	63.46626	0
552	0	-128.55986	-129.37353	63.46626	64.27993	-128.55986	51.26121	-51.26121	91.94471	116.35481	-6.50936	63.46626	0
553	-4.88202	-131.00087	-126.93252	65.90727	59.39791	-128.55986	48.8202	-51.26121	91.94471	111.47279	-11.39138	58.58424	0
554	-9.76404	-123.67784	-114.72747	65.90727	52.07488	-118.79582	43.93818	-56.14323	87.06269	101.70875	-18.71441	51.26121	0
555	-12.20505	-126.11885	-114.72747	68.34828	49.63387	-121.23683	43.93818	-56.14323	84.62168	96.82673	-21.15542	46.37919	0
556	-14.64606	-123.67784	-109.84545	68.34828	47.19286	-116.35481	43.93818	-56.14323	79.73966	91.94471	-23.59643	43.93818	0
557	-12.20505	-116.35481	-104.96343	63.46626	44.75185	-111.47279	43.93818	-58.58424	79.73966	89.5037	-26.03744	41.49717	0
558	-9.76404	-116.35481	-107.40444	61.02525	47.19286	-111.47279	43.93818	-65.90727	84.62168	89.5037	-26.03744	39.05616	0
559	-7.32303	-123.67784	-117.16848	63.46626	54.51589	-121.23683	48.8202	-68.34828	89.5037	96.82673	-23.59643	41.49717	0
560	-7.32303	-128.55986	-122.0505	65.90727	56.9569	-126.11885	51.26121	-73.2303	89.5037	96.82673	-21.15542	41.49717	0
561	-4.88202	-121.23683	-117.16848	61.02525	54.51589	-118.79582	48.8202	-75.67131	84.62168	96.82673	-21.15542	39.05616	0
562	-2.44101	-106.59077	-104.96343	53.70222	49.63387	-106.59077	46.37919	-78.11232	84.62168	91.94471	-26.03744	36.61515	0
563	-4.88202	-101.70875	-97.6404	51.26121	44.75185	-99.26774	43.93818	-80.55333	82.18067	87.06269	-28.47845	31.73313	0
564	-9.76404	-99.26774	-90.31737	53.70222	39.86983	-94.38572	39.05616	-82.99434	77.29865	79.73966	-35.80148	24.4101	0
565	-14.64606	-94.38572	-80.55333	53.70222	32.5468	-87.06269	36.61515	-87.87636	69.97562	69.97562	-43.93818	17.08707	0
566	-17.08707	-91.94471	-75.67131	53.70222	27.66478	-84.62168	34.17414	-90.31737	67.53461	62.65259	-48.8202	9.76404	0
567	-17.08707	-104.14976	-87.87636	58.58424	34.98781	-96.82673	39.05616	-90.31737	72.41663	62.65259	-46.37919	9.76404	0
568	-17.08707	-121.23683	-104.96343	68.34828	42.31084	-113.9138	43.93818	-90.31737	82.18067	67.53461	-43.93818	12.20505	0
569	-17.08707	-133.44188	-117.16848	73.2303	49.63387	-126.11885	48.8202	-92.75838	87.06269	72.41663	-40.6835	14.64606	0
570	-12.20505	-145.64693	-134.25555	78.11232	59.39791	-140.76491	53.70222	-92.75838	91.94471	82.18067	-33.36047	21.96909	0
571	-7.32303	-160.29299	-153.78363	82.99434	71.60296	-157.85198	61.02525	-82.99434	99.26774	89.5037	-21.15542	29.29212	0
572	-7.32303	-167.61602	-161.10666	85.43535	76.48498	-165.17501	61.02525	-80.55333	101.70875	91.94471	-16.2734	36.61515	0
573	-9.76404	-165.17501	-156.22464	85.43535	71.60296	-160.29299	56.14323	-80.55333	99.26774	87.06269	-21.15542	34.17414	0
574	-9.76404	-155.41097	-146.4606	80.55333	66.72094	-150.52895	51.26121	-85.43535	94.38572	79.73966	-23.59643	31.73313	0
575	-9.76404	-138.3239	-129.37353	73.2303	59.39791	-133.44188	43.93818	-90.31737	87.06269	69.97562	-28.47845	26.85111	0
576	-9.76404	-131.00087	-122.0505	68.34828	54.51589	-126.11885	41.49717	-90.31737	82.18067	62.65259	-33.36047	21.96909	0
577	-7.32303	-121.23683	-114.72747	63.46626	52.07488	-118.79582	36.61515	-97.6404	79.73966	57.77057	-38.24249	14.64606	0
578	-7.32303	-111.47279	-104.96343	58.58424	47.19286	-109.03178	31.73313	-107.40444	77.29865	55.32956	-40.6835	9.76404	0
579	-7.32303	-109.03178	-102.52242	56.14323	47.19286	-106.59077	31.73313	-114.72747	77.29865	55.32956	-43.93818	4.88202	0
580	-7.32303	-118.79582	-112.28646	61.02525	52.07488	-116.35481	31.73313	-119.60949	77.29865	60.21158	-38.24249	4.88202	0
581	-9.76404	-123.67784	-114.72747	65.90727	52.07488	-118.79582	31.73313	-119.60949	77.29865	60.21158	-35.80148	4.88202	0
582	-12.20505	-131.00087	-119.60949	70.78929	52.07488	-126.11885	29.29212	-119.60949	77.29865	60.21158	-35.80148	7.32303	0
583	-17.08707	-131.00087	-114.72747	73.2303	47.19286	-123.67784	24.4101	-119.60949	74.85764	57.77057	-40.6835	4.88202	0
584	-24.4101	-138.3239	-114.72747	80.55333	44.75185	-126.11885	24.4101	-117.16848	74.85764	55.32956	-40.6835	4.88202	0
585	-24.4101	-148.08794	-124.49151	85.43535	49.63387	-135.88289	29.29212	-109.84545	74.85764	50.44754	-35.80148	9.76404	0
586	-19.52808	-145.64693	-126.93252	80.55333	52.07488	-135.88289	34.17414	-107.40444	77.29865	45.56552	-33.36047	9.76404	0
587	-17.08707	-145.64693	-129.37353	80.55333	54.51589	-138.3239	39.05616	-104.96343	82.18067	38.24249	-33.36047	12.20505	0
588	-17.08707	-152.96996	-136.69656	82.99434	59.39791	-145.64693	41.49717	-107.40444	87.06269	33.36047	-28.47845	9.76404	0
589	-14.64606	-157.85198	-144.01959	85.43535	64.27993	-150.52895	43.93818	-109.84545	91.94471	28.47845	-23.59643	9.76404	0
590	-9.76404	-160.29299	-151.34262	82.99434	69.16195	-155.41097	46.37919	-114.72747	94.38572	23.59643	-21.15542	12.20505	0
591	-9.76404	-155.41097	-146.4606	80.55333	66.72094	-150.52895	43.93818	-114.72747	91.94471	13.83239	-21.15542	9.76404	0
592	-14.64606	-152.96996	-139.13757	82.99434	61.83892	-145.64693	39.05616	-117.16848	87.06269	4.06835	-26.03744	4.88202	0
593	-21.96909	-155.41097	-134.25555	87.87636	54.51589	-145.64693	34.17414	-117.16848	87.06269	-3.25468	-28.47845	2.44101	0
594	-24.4101	-152.96996	-129.37353	87.87636	52.07488	-140.76491	31.73313	-119.60949	87.06269	-10.57771	-33.36047	0	0
595	-26.85111	-152.96996	-126.93252	87.87636	49.63387	-140.76491	29.29212	-119.60949	84.62168	-17.90074	-35.80148	-2.44101	0
596	-26.85111	-145.64693	-119.60949	85.43535	44.75185	-133.44188	24.4101	-122.0505	79.73966	-26.03744	-40.6835	-9.76404	0
597	-26.85111	-131.00087	-104.96343	78.11232	37.42882	-118.79582	19.52808	-124.49151	79.73966	-33.36047	-43.93818	-14.64606	0
598	-21.96909	-131.00087	-109.84545	75.67131	42.31084	-121.23683	21.96909	-129.37353	82.18067	-33.36047	-43.93818	-17.08707	0
599	-17.08707	-128.55986	-112.28646	70.78929	47.19286	-121.23683	24.4101	-131.81454	87.06269	-28.47845	-43.93818	-17.08707	0
600	-14.64606	-126.11885	-112.28646	68.34828	47.19286	-118.79582	24.4101	-136.69656	87.06269	-28.47845	-43.93818	-17.08707	0
601	-9.76404	-113.9138	-104.96343	61.02525	47.19286	-109.03178	21.96909	-136.69656	84.62168	-30.91946	-43.93818	-19.52808	0
602	-9.76404	-111.47279	-102.52242	58.58424	44.75185	-106.59077	21.96909	-136.69656	82.18067	-33.36047	-43.93818	-19.52808	0
603	-14.64606	-133.44188	-119.60949	73.2303	52.07488	-126.11885	21.96909	-129.37353	87.06269	-28.47845	-38.24249	-14.64606	0
604	-14.64606	-148.08794	-134.25555	80.55333	59.39791	-140.76491	24.4101	-122.0505	91.94471	-26.03744	-33.36047	-9.76404	-1250	T-0
605	-12.20505	-145.64693	-134.25555	78.11232	59.39791	-140.76491	21.96909	-119.60949	91.94471	-30.91946	-33.36047	-9.76404	0
606	-12.20505	-143.20592	-131.81454	75.67131	59.39791	-138.3239	21.96909	-117.16848	91.94471	-30.91946	-33.36047	-12.20505	0
607	-7.32303	-145.64693	-139.13757	75.67131	64.27993	-143.20592	24.4101	-109.84545	99.26774	-28.47845	-28.47845	-9.76404	0
608	0	-148.08794	-148.90161	73.2303	74.04397	-148.08794	29.29212	-109.84545	109.03178	-23.59643	-23.59643	-7.32303	0
609	3.25468	-138.3239	-141.57858	65.90727	71.60296	-138.3239	31.73313	-109.84545	113.9138	-17.90074	-23.59643	-7.32303	0
610	10.57771	-116.35481	-126.93252	51.26121	66.72094	-121.23683	34.17414	-114.72747	113.9138	-17.90074	-23.59643	-7.32303	0
611	10.57771	-109.03178	-119.60949	48.8202	64.27993	-113.9138	36.61515	-109.84545	118.79582	-15.45973	-18.71441	-7.32303	0
612	13.01872	-106.59077	-119.60949	46.37919	64.27993	-111.47279	41.49717	-102.52242	126.11885	-10.57771	-13.83239	0	0
613	17.90074	-101.70875	-119.60949	41.49717	66.72094	-109.03178	46.37919	-95.19939	131.00087	-8.1367	-8.95037	7.32303	0
614	17.90074	-87.06269	-104.96343	34.17414	59.39791	-94.38572	46.37919	-90.31737	133.44188	-8.1367	-6.50936	12.20505	0
615	17.90074	-82.18067	-100.08141	31.73313	56.9569	-89.5037	48.8202	-85.43535	135.88289	-8.1367	-1.62734	17.08707	0
616	20.34175	-82.18067	-102.52242	29.29212	59.39791	-91.94471	53.70222	-75.67131	140.76491	-3.25468	5.69569	24.4101	0
617	15.45973	-74.85764	-90.31737	29.29212	52.07488	-82.18067	48.8202	-78.11232	140.76491	-5.69569	3.25468	24.4101	0
618	15.45973	-60.21158	-75.67131	21.96909	44.75185	-67.53461	46.37919	-85.43535	140.76491	-5.69569	3.25468	24.4101	0
619	13.01872	-55.32956	-68.34828	19.52808	39.86983	-60.21158	46.37919	-90.31737	145.64693	1.62734	8.1367	24.4101	0
620	10.57771	-45.56552	-56.14323	17.08707	32.5468	-50.44754	46.37919	-95.19939	148.08794	4.06835	10.57771	26.85111	0
621	5.69569	-38.24249	-43.93818	14.64606	22.78276	-40.6835	41.49717	-95.19939	150.52895	6.50936	13.01872	26.85111	0
622	0	-35.80148	-36.61515	17.08707	17.90074	-35.80148	36.61515	-92.75838	152.96996	8.95037	17.90074	29.29212	0
623	0	-30.91946	-31.73313	14.64606	15.45973	-30.91946	31.73313	-85.43535	157.85198	13.83239	25.22377	34.17414	0
624	8.1367	-28.47845	-36.61515	8.95037	20.34175	-30.91946	31.73313	-78.11232	167.61602	21.15542	34.98781	41.49717	0
625	8.1367	-21.15542	-29.29212	6.50936	17.90074	-23.59643	24.4101	-70.78929	170.05703	21.15542	39.86983	43.93818	0
626	10.57771	-10.57771	-21.96909	-0.81367	15.45973	-15.45973	19.52808	-68.34828	172.49804	21.15542	44.75185	43.93818	0
627	10.57771	-21.15542	-31.73313	4.06835	20.34175	-26.03744	21.96909	-61.02525	179.82107	26.03744	49.63387	48.8202	0
628	13.01872	-35.80148	-48.8202	8.95037	30.10579	-40.6835	34.17414	-56.14323	194.46713	35.80148	61.83892	58.58424	0
629	17.90074	-35.80148	-53.70222	8.95037	34.98781	-43.12451	36.61515	-56.14323	199.34915	43.12451	66.72094	63.46626	0
630	20.34175	-35.80148	-56.14323	6.50936	37.42882	-45.56552	41.49717	-61.02525	201.79016	45.56552	71.60296	68.34828	0
631	22.78276	-38.24249	-61.02525	6.50936	39.86983	-48.00653	41.49717	-65.90727	196.90814	43.12451	71.60296	68.34828	0
632	22.78276	-43.12451	-65.90727	8.95037	42.31084	-52.88855	39.05616	-73.2303	187.1441	33.36047	66.72094	65.90727	0
633	22.78276	-52.88855	-75.67131	14.64606	47.19286	-62.65259	36.61515	-82.99434	177.38006	23.59643	59.39791	61.02525	0
634	22.78276	-57.77057	-80.55333	17.08707	49.63387	-67.53461	26.85111	-95.19939	160.29299	6.50936	44.75185	51.26121	0
635	22.78276	-62.65259	-85.43535	19.52808	52.07488	-72.41663	17.08707	-109.84545	140.76491	-17.90074	25.22377	31.73313	0
636	20.34175	-77.29865	-97.6404	26.85111	56.9569	-87.06269	9.76404	-122.0505	121.23683	-38.24249	8.1367	14.64606	0
637	15.45973	-99.26774	-114.72747	41.49717	64.27993	-106.59077	7.32303	-134.25555	106.59077	-55.32956	-8.95037	0	0
638	8.1367	-118.79582	-126.93252	53.70222	66.72094	-121.23683	7.32303	-146.4606	96.82673	-67.53461	-21.15542	-9.76404	0
639	3.25468	-128.55986	-131.81454	61.02525	66.72094	-128.55986	4.06835	-158.66565	89.5037	-74.85764	-28.47845	-19.52808	0
640	3.25468	-121.23683	-124.49151	58.58424	61.83892	-121.23683	1.62734	-170.8707	79.73966	-84.62168	-35.80148	-29.29212	0
641	3.25468	-118.79582	-122.0505	56.14323	61.83892	-118.79582	-0.81367	-173.31171	72.41663	-87.06269	-38.24249	-32.5468	0
642	5.69569	-123.67784	-129.37353	58.58424	66.72094	-126.11885	1.62734	-168.42969	74.85764	-84.62168	-33.36047	-29.29212	0
643	3.25468	-118.79582	-122.0505	56.14323	61.83892	-118.79582	1.62734	-163.54767	74.85764	-84.62168	-30.91946	-26.85111	0
644	0	-109.03178	-109.84545	53.70222	54.51589	-109.03178	1.62734	-163.54767	74.85764	-89.5037	-30.91946	-29.29212	0
645	-2.44101	-113.9138	-112.28646	56.14323	54.51589	-113.9138	4.06835	-156.22464	74.85764	-89.5037	-28.47845	-29.29212	0
646	-4.88202	-123.67784	-119.60949	63.46626	56.9569	-121.23683	12.20505	-148.90161	77.29865	-89.5037	-26.03744	-29.29212	0
647	-9.76404	-140.76491	-131.81454	73.2303	59.39791	-135.88289	19.52808	-144.01959	82.18067	-87.06269	-21.15542	-24.4101	0
648	-17.08707	-143.20592	-126.93252	78.11232	54.51589	-135.88289	21.96909	-148.90161	79.73966	-89.5037	-26.03744	-29.29212	0
649	-21.96909	-140.76491	-119.60949	80.55333	47.19286	-131.00087	19.52808	-158.66565	74.85764	-94.38572	-33.36047	-34.98781	0
650	-21.96909	-143.20592	-122.0505	80.55333	49.63387	-133.44188	14.64606	-165.98868	69.97562	-99.26774	-35.80148	-39.86983	0
651	-19.52808	-150.52895	-131.81454	82.99434	54.51589	-140.76491	14.64606	-163.54767	67.53461	-99.26774	-35.80148	-39.86983	0
652	-19.52808	-160.29299	-141.57858	87.87636	59.39791	-150.52895	14.64606	-163.54767	65.0936	-104.14976	-40.6835	-42.31084	0
653	-21.96909	-167.61602	-146.4606	92.75838	61.83892	-157.85198	12.20505	-163.54767	57.77057	-111.47279	-46.37919	-49.63387	0
654	-24.4101	-170.05703	-146.4606	95.19939	59.39791	-157.85198	9.76404	-165.98868	50.44754	-121.23683	-53.70222	-54.51589	0
655	-26.85111	-170.05703	-144.01959	97.6404	56.9569	-157.85198	9.76404	-165.98868	45.56552	-128.55986	-61.02525	-59.39791	0
656	-29.29212	-177.38006	-148.90161	102.52242	59.39791	-162.734	9.76404	-163.54767	40.6835	-133.44188	-65.90727	-64.27993	0
657	-31.73313	-179.82107	-148.90161	104.96343	56.9569	-165.17501	9.76404	-165.98868	38.24249	-135.88289	-68.34828	-69.16195	0
658	-34.17414	-172.49804	-139.13757	102.52242	52.07488	-155.41097	4.06835	-175.75272	33.36047	-143.20592	-75.67131	-76.48498	0
659	-31.73313	-170.05703	-139.13757	100.08141	52.07488	-155.41097	4.06835	-178.19373	33.36047	-143.20592	-78.11232	-78.92599	0
660	-26.85111	-172.49804	-146.4606	97.6404	59.39791	-160.29299	4.06835	-178.19373	30.91946	-143.20592	-78.11232	-81.367	0
661	-26.85111	-174.93905	-148.90161	100.08141	59.39791	-162.734	4.06835	-173.31171	30.91946	-143.20592	-78.11232	-83.80801	0
662	-21.96909	-174.93905	-153.78363	97.6404	64.27993	-165.17501	7.32303	-165.98868	30.91946	-140.76491	-78.11232	-81.367	0
663	-17.08707	-167.61602	-151.34262	90.31737	66.72094	-160.29299	9.76404	-153.78363	30.91946	-140.76491	-78.11232	-81.367	0
664	-9.76404	-167.61602	-158.66565	87.87636	74.04397	-162.734	12.20505	-146.4606	33.36047	-143.20592	-75.67131	-76.48498	0
665	-7.32303	-157.85198	-151.34262	80.55333	71.60296	-155.41097	12.20505	-136.69656	33.36047	-145.64693	-73.2303	-74.04397	0
666	-9.76404	-150.52895	-141.57858	78.11232	64.27993	-145.64693	12.20505	-131.81454	30.91946	-148.08794	-73.2303	-74.04397	0
667	-14.64606	-162.734	-148.90161	87.87636	66.72094	-155.41097	12.20505	-129.37353	33.36047	-148.08794	-68.34828	-69.16195	0
668	-17.08707	-170.05703	-153.78363	92.75838	66.72094	-162.734	9.76404	-131.81454	35.80148	-150.52895	-68.34828	-71.60296	0
669	-21.96909	-167.61602	-146.4606	92.75838	61.83892	-157.85198	4.06835	-139.13757	30.91946	-152.96996	-73.2303	-76.48498	0
670	-29.29212	-165.17501	-136.69656	95.19939	52.07488	-150.52895	-0.81367	-146.4606	26.03744	-155.41097	-75.67131	-81.367	0
671	-36.61515	-165.17501	-129.37353	100.08141	44.75185	-148.08794	-3.25468	-146.4606	18.71441	-160.29299	-78.11232	-83.80801	0
672	-43.93818	-182.26208	-139.13757	112.28646	47.19286	-160.29299	-3.25468	-144.01959	18.71441	-160.29299	-78.11232	-83.80801	0
673	-39.05616	-179.82107	-141.57858	107.40444	49.63387	-160.29299	-3.25468	-134.25555	23.59643	-157.85198	-75.67131	-83.80801	0
674	-31.73313	-170.05703	-139.13757	100.08141	52.07488	-155.41097	-3.25468	-126.93252	26.03744	-157.85198	-73.2303	-81.367	0
675	-31.73313	-172.49804	-141.57858	100.08141	54.51589	-157.85198	-0.81367	-119.60949	28.47845	-157.85198	-73.2303	-81.367	0
676	-36.61515	-187.1441	-151.34262	109.84545	56.9569	-170.05703	1.62734	-112.28646	28.47845	-157.85198	-70.78929	-81.367	0
677	-39.05616	-194.46713	-156.22464	114.72747	56.9569	-174.93905	1.62734	-109.84545	30.91946	-157.85198	-68.34828	-78.92599	0
678	-39.05616	-194.46713	-156.22464	114.72747	56.9569	-174.93905	4.06835	-112.28646	33.36047	-157.85198	-68.34828	-78.92599	0
679	-39.05616	-187.1441	-148.90161	112.28646	54.51589	-167.61602	4.06835	-117.16848	30.91946	-157.85198	-70.78929	-81.367	0
680	-39.05616	-179.82107	-141.57858	107.40444	49.63387	-160.29299	-0.81367	-124.49151	28.47845	-162.734	-73.2303	-83.80801	0
681	-36.61515	-170.05703	-134.25555	102.52242	47.19286	-152.96996	-3.25468	-122.0505	26.03744	-162.734	-75.67131	-83.80801	0
682	-31.73313	-162.734	-131.81454	95.19939	49.63387	-148.08794	-3.25468	-117.16848	26.03744	-162.734	-73.2303	-83.80801	0
683	-24.4101	-165.17501	-141.57858	92.75838	56.9569	-152.96996	-3.25468	-107.40444	30.91946	-165.17501	-73.2303	-83.80801	0
684	-14.64606	-179.82107	-165.98868	95.19939	74.04397	-172.49804	1.62734	-87.87636	33.36047	-165.17501	-78.11232	-88.69003	0
685	-4.88202	-189.58511	-185.51676	95.19939	88.69003	-187.1441	7.32303	-58.58424	40.6835	-172.49804	-92.75838	-103.33609	0
686	3.25468	-204.23117	-207.48585	100.08141	103.33609	-204.23117	17.08707	-14.64606	55.32956	-174.93905	-109.84545	-127.74619	0
687	13.01872	-221.31824	-234.33696	102.52242	122.86417	-226.20026	36.61515	37.42882	77.29865	-177.38006	-129.37353	-154.5973	0
688	27.66478	-245.72834	-273.39312	107.40444	149.71528	-257.93339	58.58424	105.7771	109.03178	-167.61602	-146.4606	-181.44841	0
689	49.63387	-272.57945	-322.21332	109.84545	183.88942	-296.98955	92.75838	193.65346	160.29299	-145.64693	-153.78363	-200.97649	0
690	76.48498	-284.7845	-361.26948	102.52242	218.06356	-321.39965	126.93252	296.17588	221.31824	-113.9138	-151.34262	-213.18154	0
691	100.89508	-287.22551	-388.12059	92.75838	242.47366	-336.04571	163.54767	418.22638	287.22551	-77.29865	-141.57858	-215.62255	0
692	125.30518	-294.54854	-419.85372	82.99434	271.76578	-355.57379	202.60383	550.04092	367.77884	-26.03744	-112.28646	-203.4175	0
693	152.15629	-292.10753	-444.26382	68.34828	296.17588	-367.77884	244.101	691.6195	465.41924	45.56552	-58.58424	-164.36134	0
694	179.0074	-267.69743	-446.70483	43.93818	310.82194	-355.57379	278.27514	830.75707	580.14671	140.76491	25.22377	-100.89508	0
695	205.85851	-204.23117	-410.08968	-0.81367	305.93992	-306.75359	302.68524	947.92555	699.7562	257.93339	137.51023	-12.20505	0
696	227.8276	-128.55986	-356.38746	-49.63387	291.29386	-240.84632	314.89029	1026.03787	824.24771	394.62995	281.52982	107.40444	0
697	254.67871	-33.36047	-288.03918	-110.65912	269.32477	-160.29299	312.44928	1048.00696	948.73922	555.73661	454.84153	256.30605	0
698	279.08881	89.5037	-190.39878	-183.88942	235.15063	-50.44754	295.36221	996.74575	1068.34871	741.25337	667.2094	441.82281	0
699	286.41184	235.9643	-51.26121	-262.00174	169.24336	94.38572	268.5111	879.57727	1183.07618	948.73922	913.75141	659.0727	0
700	271.76578	406.835	135.06922	-340.11406	69.16195	272.57945	246.54201	706.26556	1275.83456	1158.66608	1172.49847	893.40966	0
701	230.26861	585.02873	354.76012	-408.46234	-63.46626	470.30126	236.77797	491.45668	1331.97779	1346.62385	1419.04048	1120.42359	0
702	174.12538	743.69438	569.569	-459.72355	-197.72181	658.25903	241.65999	266.88376	1366.15193	1510.17152	1637.91771	1323.02742	0
703	100.89508	870.6269	769.73182	-486.57466	-334.41837	821.8067	244.101	32.5468	1361.26991	1632.22202	1806.3474	1476.81105	0
704	10.57771	958.50326	947.92555	-484.13365	-468.67392	953.62124	251.42403	-197.72181	1310.0087	1689.99259	1908.86982	1576.89246	0
705	-80.55333	1002.44144	1082.1811	-462.16456	-580.96038	1041.4976	253.86504	-414.9717	1200.16325	1660.70047	1916.19285	1598.86155	0
706	-163.54767	1007.32346	1170.05746	-423.1084	-666.39573	1087.87679	229.45494	-641.98563	1012.20548	1524.81758	1808.78841	1532.95428	0
707	-236.77797	958.50326	1194.46756	-362.08315	-715.21593	1075.67174	183.07575	-871.44057	751.01741	1280.71658	1589.91118	1381.61166	0
708	-302.68524	890.15498	1192.02655	-293.73487	-746.94906	1041.4976	114.72747	-1117.98258	421.48106	948.73922	1284.78493	1176.56682	0
709	-361.26948	814.48367	1174.93948	-227.8276	-768.91815	995.11841	29.29212	-1366.9656	40.6835	543.53156	923.51545	934.90683	0
710	-407.64867	736.37135	1143.20635	-164.36134	-776.24118	938.97518	-66.72094	-1584.21549	-336.04571	126.11885	547.59991	685.92381	0
711	-439.3818	658.25903	1096.82716	-110.65912	-768.91815	877.94993	-181.44841	-1755.08619	-677.78711	-260.3744	193.65346	439.3818	0
712	-454.02786	572.82368	1026.03787	-59.39791	-739.62603	799.83761	-286.41184	-1869.81366	-951.18023	-580.14671	-95.19939	229.45494	0
713	-454.02786	492.27035	945.48454	-20.34175	-700.56987	719.28428	-376.72921	-1925.95689	-1141.57901	-816.92468	-310.00827	65.90727	0
714	-436.94079	414.15803	850.28515	8.95037	-644.42664	631.40792	-454.84153	-1923.51588	-1248.98345	-963.38528	-446.70483	-52.07488	0
715	-412.53069	340.92773	752.64475	34.17414	-583.40139	545.97257	-518.30779	-1867.37265	-1270.95254	-1026.85154	-517.49412	-132.62821	0
716	-385.67958	275.02046	659.88637	53.70222	-522.37614	467.86025	-562.24597	-1769.73225	-1229.45537	-1024.41053	-534.58119	-179.0074	0
717	-358.82847	228.64127	586.65607	63.46626	-473.55594	406.835	-574.45102	-1657.44579	-1156.22507	-992.6774	-524.81715	-198.53548	0
718	-334.41837	184.70309	518.30779	73.2303	-427.17675	350.69177	-557.36395	-1530.51327	-1070.78972	-943.8572	-502.84806	-203.4175	0
719	-314.89029	162.734	476.81062	75.67131	-395.44362	318.95864	-528.07183	-1393.81671	-973.14932	-882.83195	-471.11493	-198.53548	0
720	-292.9212	155.41097	447.5185	68.34828	-371.03352	301.87157	-489.01567	-1244.9151	-863.30387	-809.60165	-429.61776	-181.44841	0
721	-266.07009	165.17501	430.43143	48.8202	-349.06443	296.98955	-442.63648	-1088.69046	-748.5764	-729.04832	-378.35655	-157.03831	0
722	-239.21898	182.26208	420.66739	26.85111	-329.53635	301.87157	-388.93426	-934.90683	-636.28994	-648.49499	-327.09534	-130.1872	0
723	-217.24989	196.90814	413.34436	8.95037	-314.89029	304.31258	-332.79103	-788.44623	-528.8855	-567.94166	-275.83413	-103.33609	0
724	-192.83979	211.5542	403.58032	-10.57771	-297.80322	306.75359	-281.52982	-656.63169	-431.2451	-497.15237	-227.01393	-74.04397	0
725	-165.98868	223.75925	388.93426	-30.10579	-278.27514	306.75359	-237.59164	-544.34523	-348.25076	-438.56813	-185.51676	-54.51589	0
726	-144.01959	228.64127	371.84719	-42.31084	-258.74706	299.43056	-198.53548	-454.02786	-284.7845	-392.18894	-153.78363	-42.31084	0
727	-126.93252	211.5542	337.67305	-42.31084	-231.89595	275.02046	-169.24336	-383.23857	-231.08228	-353.13278	-131.81454	-32.5468	0
728	-117.16848	187.1441	303.49891	-34.98781	-209.92686	245.72834	-144.83326	-329.53635	-187.1441	-323.84066	-114.72747	-26.85111	0
729	-102.52242	162.734	264.44275	-30.10579	-183.07575	213.99521	-127.74619	-283.15716	-152.96996	-296.98955	-104.96343	-26.85111	0
730	-95.19939	135.88289	230.26861	-20.34175	-163.54767	182.26208	-113.10013	-239.21898	-121.23683	-277.46147	-95.19939	-26.85111	0
731	-90.31737	116.35481	205.85851	-13.01872	-148.90161	160.29299	-103.33609	-197.72181	-96.82673	-257.93339	-90.31737	-29.29212	0
732	-87.87636	99.26774	186.33043	-5.69569	-136.69656	143.20592	-96.01306	-158.66565	-72.41663	-245.72834	-85.43535	-32.5468	0
733	-82.99434	84.62168	166.80235	-0.81367	-124.49151	126.11885	-91.13104	-119.60949	-48.00653	-228.64127	-80.55333	-32.5468	0
734	-78.11232	77.29865	154.5973	-0.81367	-117.16848	116.35481	-86.24902	-85.43535	-28.47845	-216.43622	-75.67131	-32.5468	0
735	-75.67131	72.41663	147.27427	1.62734	-112.28646	109.03178	-78.92599	-51.26121	-8.95037	-206.67218	-70.78929	-29.29212	0
736	-70.78929	69.97562	139.95124	-0.81367	-104.96343	104.14976	-71.60296	-24.4101	4.06835	-196.90814	-63.46626	-26.85111	0
737	-61.02525	74.85764	135.06922	-8.1367	-97.6404	104.14976	-64.27993	-4.88202	16.2734	-187.1441	-56.14323	-24.4101	0
738	-53.70222	77.29865	130.1872	-13.01872	-92.75838	104.14976	-56.9569	7.32303	30.91946	-174.93905	-46.37919	-19.52808	0
739	-43.93818	74.85764	117.98215	-15.45973	-80.55333	96.82673	-49.63387	19.52808	45.56552	-162.734	-38.24249	-12.20505	0
740	-39.05616	67.53461	105.7771	-15.45973	-73.2303	87.06269	-44.75185	30.10579	55.32956	-150.52895	-28.47845	-7.32303	0
741	-31.73313	62.65259	93.57205	-15.45973	-63.46626	77.29865	-37.42882	47.19286	65.0936	-138.3239	-21.15542	0	0
742	-21.96909	60.21158	81.367	-20.34175	-51.26121	69.97562	-34.98781	61.83892	74.85764	-131.00087	-16.2734	2.44101	0
743	-17.08707	55.32956	71.60296	-20.34175	-43.93818	62.65259	-30.10579	74.04397	82.18067	-123.67784	-13.83239	4.88202	0
744	-12.20505	48.00653	59.39791	-17.90074	-36.61515	52.88855	-25.22377	88.69003	89.5037	-116.35481	-11.39138	4.88202	0
745	-9.76404	52.88855	61.83892	-22.78276	-36.61515	57.77057	-22.78276	98.45407	94.38572	-116.35481	-13.83239	2.44101	0
746	-4.88202	69.97562	74.04397	-32.5468	-39.05616	72.41663	-22.78276	103.33609	94.38572	-118.79582	-18.71441	-7.32303	0
747	0	82.18067	81.367	-42.31084	-41.49717	82.18067	-22.78276	105.7771	99.26774	-118.79582	-18.71441	-9.76404	0
748	0	82.18067	81.367	-42.31084	-41.49717	82.18067	-20.34175	105.7771	104.14976	-111.47279	-16.2734	-9.76404	0
749	-2.44101	79.73966	81.367	-39.86983	-41.49717	79.73966	-20.34175	100.89508	106.59077	-106.59077	-16.2734	-12.20505	0
750	-2.44101	89.5037	91.13104	-44.75185	-46.37919	89.5037	-20.34175	98.45407	106.59077	-101.70875	-13.83239	-12.20505	0
751	0	87.06269	86.24902	-44.75185	-43.93818	87.06269	-20.34175	103.33609	106.59077	-94.38572	-6.50936	-4.88202	0
752	0	72.41663	71.60296	-37.42882	-36.61515	72.41663	-13.01872	115.54114	116.35481	-82.18067	5.69569	7.32303	0
753	-2.44101	62.65259	64.27993	-30.10579	-34.17414	62.65259	-8.1367	127.74619	121.23683	-74.85764	10.57771	14.64606	0
754	-2.44101	60.21158	61.83892	-30.10579	-31.73313	60.21158	-5.69569	137.51023	121.23683	-69.97562	15.45973	21.96909	0
755	-4.88202	62.65259	66.72094	-30.10579	-36.61515	65.0936	-5.69569	144.83326	121.23683	-69.97562	15.45973	24.4101	0
756	-4.88202	62.65259	66.72094	-30.10579	-36.61515	65.0936	-5.69569	154.5973	121.23683	-69.97562	17.90074	24.4101	0
757	-7.32303	60.21158	66.72094	-27.66478	-36.61515	62.65259	-5.69569	159.47932	123.67784	-67.53461	17.90074	26.85111	0
758	-7.32303	69.97562	76.48498	-32.5468	-41.49717	72.41663	-8.1367	159.47932	126.11885	-65.0936	15.45973	21.96909	0
759	-7.32303	69.97562	76.48498	-32.5468	-41.49717	72.41663	-8.1367	159.47932	131.00087	-57.77057	17.90074	21.96909	0
760	-2.44101	72.41663	74.04397	-34.98781	-39.05616	72.41663	-8.1367	161.92033	135.88289	-50.44754	22.78276	26.85111	0
761	3.25468	84.62168	81.367	-44.75185	-39.05616	84.62168	-5.69569	171.68437	140.76491	-40.6835	30.10579	31.73313	0
762	15.45973	101.70875	86.24902	-59.39791	-36.61515	94.38572	-5.69569	186.33043	148.08794	-33.36047	37.42882	39.05616	0
763	22.78276	104.14976	81.367	-64.27993	-29.29212	94.38572	1.62734	203.4175	160.29299	-23.59643	49.63387	51.26121	0
764	27.66478	104.14976	76.48498	-66.72094	-24.4101	91.94471	7.32303	220.50457	172.49804	-10.57771	61.83892	63.46626	0
765	32.5468	116.35481	83.80801	-74.04397	-26.85111	101.70875	12.20505	235.15063	179.82107	-3.25468	66.72094	70.78929	0
766	34.98781	121.23683	86.24902	-78.92599	-26.85111	104.14976	14.64606	247.35568	187.1441	1.62734	74.04397	78.11232	0
767	32.5468	116.35481	83.80801	-74.04397	-26.85111	101.70875	17.08707	257.11972	194.46713	6.50936	76.48498	80.55333	0
768	22.78276	109.03178	86.24902	-66.72094	-31.73313	99.26774	14.64606	257.11972	199.34915	11.39138	78.92599	80.55333	0
769	15.45973	106.59077	91.13104	-61.83892	-39.05616	99.26774	14.64606	257.11972	204.23117	18.71441	81.367	82.99434	0
770	10.57771	113.9138	103.33609	-61.83892	-46.37919	109.03178	7.32303	257.11972	204.23117	21.15542	83.80801	82.99434	0
771	5.69569	126.11885	120.42316	-66.72094	-58.58424	123.67784	1.62734	259.56073	204.23117	21.15542	83.80801	82.99434	0
772	0	123.67784	122.86417	-61.83892	-61.02525	123.67784	-0.81367	266.88376	209.11319	28.47845	91.13104	90.31737	0
773	0	126.11885	125.30518	-64.27993	-63.46626	126.11885	-0.81367	281.52982	218.87723	35.80148	100.89508	100.08141	0
774	8.1367	143.20592	135.06922	-76.48498	-63.46626	140.76491	-0.81367	293.73487	226.20026	43.12451	108.21811	109.84545	0
775	15.45973	160.29299	144.83326	-88.69003	-65.90727	152.96996	-0.81367	310.82194	235.9643	48.00653	117.98215	119.60949	0
776	20.34175	170.05703	149.71528	-96.01306	-65.90727	160.29299	1.62734	327.90901	245.72834	57.77057	130.1872	131.81454	0
777	27.66478	174.93905	147.27427	-100.89508	-61.02525	162.734	4.06835	344.99608	260.3744	69.97562	142.39225	144.01959	0
778	34.98781	184.70309	149.71528	-110.65912	-58.58424	167.61602	7.32303	354.76012	270.13844	82.18067	154.5973	153.78363	0
779	39.86983	211.5542	171.68437	-125.30518	-65.90727	192.02612	4.06835	357.20113	275.02046	89.5037	157.03831	153.78363	0
780	42.31084	218.87723	176.56639	-130.1872	-68.34828	199.34915	4.06835	366.96517	284.7845	99.26774	166.80235	163.54767	0
781	44.75185	206.67218	161.92033	-125.30518	-58.58424	184.70309	12.20505	386.49325	299.43056	113.9138	183.88942	178.19373	0
782	49.63387	209.11319	159.47932	-130.1872	-56.14323	184.70309	14.64606	406.02133	309.1946	123.67784	196.09447	190.39878	0
783	52.07488	218.87723	166.80235	-135.06922	-58.58424	194.46713	14.64606	420.66739	318.95864	133.44188	205.85851	197.72181	0
784	54.51589	226.20026	171.68437	-139.95124	-58.58424	199.34915	17.08707	437.75446	328.72268	140.76491	215.62255	209.92686	0
785	59.39791	238.40531	179.0074	-149.71528	-61.02525	209.11319	17.08707	457.28254	338.48672	145.64693	227.8276	224.57292	0
786	64.27993	248.16935	183.88942	-157.03831	-61.02525	216.43622	19.52808	474.36961	348.25076	155.41097	242.47366	239.21898	0
787	66.72094	262.81541	196.09447	-164.36134	-65.90727	231.08228	19.52808	489.01567	360.45581	162.734	254.67871	253.86504	0
788	74.04397	277.46147	203.4175	-176.56639	-65.90727	240.84632	19.52808	498.77971	370.21985	172.49804	266.88376	266.07009	0
789	76.48498	289.66652	213.18154	-183.88942	-68.34828	253.05137	17.08707	506.10274	382.4249	184.70309	281.52982	280.71615	0
790	76.48498	301.87157	225.38659	-188.77144	-75.67131	265.25642	12.20505	513.42577	389.74793	192.02612	291.29386	295.36221	0
791	78.92599	311.63561	232.70962	-196.09447	-78.11232	272.57945	12.20505	528.07183	399.51197	204.23117	308.38093	310.00827	0
792	81.367	323.84066	242.47366	-203.4175	-80.55333	284.7845	12.20505	540.27688	409.27601	213.99521	323.02699	324.65433	0
793	86.24902	336.04571	249.79669	-210.74053	-82.99434	294.54854	7.32303	554.92294	419.04005	223.75925	335.23204	339.30039	0
794	91.13104	353.13278	262.00174	-222.94558	-85.43535	309.1946	4.06835	567.12799	423.92207	231.08228	347.43709	351.50544	0
795	93.57205	377.54288	283.97083	-235.15063	-95.19939	331.16369	1.62734	576.89203	428.80409	238.40531	357.20113	363.71049	0
796	105.7771	387.30692	281.52982	-247.35568	-87.87636	336.04571	4.06835	593.9791	441.00914	250.61036	376.72921	380.79756	0
797	120.42316	399.51197	279.08881	-259.56073	-80.55333	340.92773	4.06835	608.62516	455.6552	267.69743	396.25729	397.88463	0
798	132.62821	411.71702	279.08881	-271.76578	-73.2303	345.80975	4.06835	618.3892	467.86025	282.34349	413.34436	412.53069	0
799	144.83326	421.48106	276.6478	-283.97083	-65.90727	350.69177	4.06835	623.27122	477.62429	299.43056	430.43143	429.61776	0
800	154.5973	436.12712	281.52982	-296.17588	-63.46626	360.45581	4.06835	630.59425	487.38833	311.63561	447.5185	441.82281	0
801	159.47932	438.56813	279.08881	-298.61689	-61.02525	360.45581	4.06835	637.91728	492.27035	323.84066	462.16456	456.46887	0
802	161.92033	441.00914	279.08881	-301.0579	-58.58424	360.45581	1.62734	647.68132	497.15237	333.6047	474.36961	468.67392	0
803	161.92033	453.21419	291.29386	-308.38093	-65.90727	372.66086	-8.1367	650.12233	497.15237	336.04571	479.25163	473.55594	0
804	159.47932	453.21419	293.73487	-305.93992	-68.34828	375.10187	-13.01872	655.00435	499.59338	340.92773	489.01567	485.76099	0
805	159.47932	453.21419	293.73487	-305.93992	-68.34828	375.10187	-15.45973	657.44536	502.03439	340.92773	493.89769	495.52503	0
806	149.71528	445.89116	296.17588	-298.61689	-73.2303	372.66086	-15.45973	659.88637	499.59338	343.36874	501.22072	500.40705	0
807	147.27427	443.45015	296.17588	-296.17588	-75.67131	370.21985	-17.90074	659.88637	499.59338	345.80975	503.66173	505.28907	0
808	149.71528	445.89116	296.17588	-298.61689	-73.2303	372.66086	-20.34175	652.56334	499.59338	348.25076	506.10274	510.17109	0
809	152.15629	445.89116	293.73487	-298.61689	-70.78929	370.21985	-22.78276	645.24031	499.59338	353.13278	508.54375	510.17109	0
810	154.5973	450.77318	296.17588	-303.49891	-70.78929	375.10187	-25.22377	635.47627	497.15237	355.57379	513.42577	515.05311	0
811	161.92033	458.09621	296.17588	-310.82194	-68.34828	377.54288	-30.10579	630.59425	492.27035	358.0148	515.86678	515.05311	0
812	169.24336	467.86025	298.61689	-318.14497	-65.90727	384.86591	-37.42882	625.71223	487.38833	358.0148	515.86678	512.6121	0
813	176.56639	472.74227	296.17588	-325.468	-61.02525	384.86591	-39.86983	623.27122	487.38833	358.0148	518.30779	512.6121	0
814	183.88942	470.30126	286.41184	-327.90901	-51.26121	379.98389	-39.86983	620.83021	484.94732	360.45581	523.18981	512.6121	0
815	188.77144	460.53722	271.76578	-325.468	-41.49717	367.77884	-32.5468	618.3892	482.50631	360.45581	523.18981	512.6121	0
816	193.65346	453.21419	259.56073	-323.02699	-34.17414	358.0148	-30.10579	613.50718	477.62429	355.57379	518.30779	507.73008	0
817	196.09447	443.45015	247.35568	-320.58598	-26.85111	345.80975	-25.22377	603.74314	472.74227	350.69177	510.98476	497.96604	0
818	191.21245	431.2451	240.03265	-310.82194	-24.4101	336.04571	-22.78276	584.21506	460.53722	343.36874	498.77971	483.31998	0
819	186.33043	421.48106	235.15063	-303.49891	-24.4101	328.72268	-22.78276	559.80496	448.33217	333.6047	484.13365	466.23291	0
820	181.44841	406.835	225.38659	-293.73487	-21.96909	316.51763	-22.78276	535.39486	433.68611	326.28167	469.48759	449.14584	0
821	174.12538	394.62995	220.50457	-283.97083	-24.4101	309.1946	-27.66478	515.86678	416.59904	314.07662	454.84153	432.05877	0
822	174.12538	387.30692	213.18154	-281.52982	-19.52808	301.87157	-32.5468	496.3387	401.95298	301.87157	440.19547	414.9717	0
823	169.24336	379.98389	210.74053	-274.20679	-21.96909	296.98955	-37.42882	479.25163	387.30692	289.66652	425.54941	397.88463	0
824	164.36134	362.89682	198.53548	-264.44275	-17.08707	282.34349	-39.86983	459.72355	372.66086	275.02046	408.46234	380.79756	0
825	161.92033	348.25076	186.33043	-254.67871	-12.20505	267.69743	-39.86983	442.63648	360.45581	260.3744	393.81628	366.1515	0
826	157.03831	328.72268	171.68437	-242.47366	-7.32303	250.61036	-37.42882	425.54941	348.25076	248.16935	381.61123	351.50544	0
827	152.15629	314.07662	161.92033	-232.70962	-4.88202	238.40531	-34.98781	401.13931	331.16369	231.08228	362.08315	331.97736	0
828	144.83326	296.98955	152.15629	-220.50457	-4.88202	226.20026	-37.42882	371.84719	314.07662	216.43622	340.11406	307.56726	0
829	135.06922	270.13844	135.06922	-203.4175	0	204.23117	-37.42882	342.55507	296.98955	201.79016	323.02699	288.03918	0
830	127.74619	253.05137	125.30518	-191.21245	0	189.58511	-34.98781	313.26295	277.46147	187.1441	301.0579	263.62908	0
831	122.86417	233.52329	110.65912	-179.0074	4.88202	172.49804	-34.98781	291.29386	255.49238	170.05703	279.08881	241.65999	0
832	120.42316	228.64127	108.21811	-174.12538	4.88202	170.05703	-34.98781	266.88376	233.52329	145.64693	252.2377	214.80888	0
833	115.54114	228.64127	113.10013	-171.68437	0	172.49804	-37.42882	242.47366	211.5542	123.67784	222.94558	185.51676	0
834	110.65912	211.5542	100.89508	-161.92033	4.88202	157.85198	-37.42882	225.38659	192.02612	104.14976	200.97649	161.10666	0
835	98.45407	192.02612	93.57205	-144.83326	2.44101	143.20592	-37.42882	208.29952	170.05703	79.73966	174.12538	131.81454	0
836	86.24902	172.49804	86.24902	-130.1872	0	131.00087	-37.42882	191.21245	148.08794	60.21158	152.15629	104.96343	0
837	81.367	157.85198	76.48498	-120.42316	2.44101	118.79582	-32.5468	174.12538	133.44188	45.56552	132.62821	82.99434	0
838	74.04397	138.3239	64.27993	-105.7771	4.88202	101.70875	-30.10579	154.5973	118.79582	30.91946	115.54114	58.58424	0
839	61.83892	99.26774	37.42882	-81.367	13.01872	69.97562	-25.22377	137.51023	104.14976	21.15542	98.45407	39.05616	0
840	49.63387	67.53461	17.90074	-59.39791	15.45973	43.12451	-22.78276	117.98215	89.5037	6.50936	81.367	19.52808	0
841	47.19286	55.32956	8.1367	-52.07488	20.34175	33.36047	-22.78276	103.33609	72.41663	-8.1367	64.27993	0	0
842	47.19286	45.56552	-1.62734	-47.19286	25.22377	23.59643	-20.34175	93.57205	57.77057	-23.59643	47.19286	-17.08707	0
843	42.31084	43.12451	0.81367	-42.31084	20.34175	23.59643	-22.78276	78.92599	40.6835	-40.6835	25.22377	-39.86983	0
844	37.42882	38.24249	0.81367	-37.42882	17.90074	21.15542	-25.22377	64.27993	21.15542	-62.65259	3.25468	-59.39791	0
845	34.98781	35.80148	0.81367	-34.98781	17.90074	18.71441	-25.22377	52.07488	6.50936	-82.18067	-13.83239	-76.48498	0
846	37.42882	28.47845	-8.95037	-32.5468	22.78276	11.39138	-20.34175	44.75185	-4.06835	-96.82673	-28.47845	-93.57205	0
847	37.42882	21.15542	-16.2734	-30.10579	27.66478	4.06835	-17.90074	34.98781	-13.83239	-111.47279	-43.93818	-108.21811	0
848	32.5468	13.83239	-18.71441	-22.78276	25.22377	-0.81367	-15.45973	21.96909	-23.59643	-123.67784	-58.58424	-122.86417	0
849	27.66478	-5.69569	-34.17414	-10.57771	30.10579	-17.90074	-10.57771	9.76404	-30.91946	-131.00087	-68.34828	-135.06922	0
850	25.22377	-30.91946	-56.14323	1.62734	39.86983	-43.12451	-5.69569	0	-35.80148	-135.88289	-73.2303	-139.95124	0
851	22.78276	-45.56552	-68.34828	8.95037	44.75185	-55.32956	-3.25468	-4.88202	-43.12451	-143.20592	-80.55333	-147.27427	0
852	17.90074	-45.56552	-63.46626	12.20505	39.86983	-52.88855	-5.69569	-12.20505	-55.32956	-155.41097	-90.31737	-157.03831	0
853	13.01872	-48.00653	-61.02525	17.08707	34.98781	-52.88855	-13.01872	-21.96909	-67.53461	-167.61602	-102.52242	-169.24336	0
854	5.69569	-60.21158	-65.90727	26.85111	34.98781	-62.65259	-17.90074	-29.29212	-77.29865	-179.82107	-112.28646	-181.44841	0
855	0	-69.97562	-70.78929	34.17414	34.98781	-69.97562	-20.34175	-31.73313	-84.62168	-189.58511	-122.0505	-191.21245	0
856	-4.88202	-69.97562	-65.90727	36.61515	30.10579	-67.53461	-27.66478	-41.49717	-96.82673	-201.79016	-131.81454	-205.85851	0
857	-12.20505	-65.0936	-53.70222	36.61515	20.34175	-60.21158	-32.5468	-51.26121	-106.59077	-213.99521	-144.01959	-218.06356	0
858	-17.08707	-69.97562	-53.70222	41.49717	17.90074	-62.65259	-34.98781	-65.90727	-113.9138	-223.75925	-151.34262	-230.26861	0
859	-19.52808	-77.29865	-58.58424	46.37919	17.90074	-67.53461	-34.98781	-75.67131	-116.35481	-223.75925	-153.78363	-237.59164	0
860	-21.96909	-84.62168	-63.46626	51.26121	20.34175	-74.85764	-32.5468	-82.99434	-121.23683	-223.75925	-151.34262	-237.59164	0
861	-14.64606	-87.06269	-73.2303	48.8202	27.66478	-79.73966	-30.10579	-82.99434	-123.67784	-223.75925	-151.34262	-237.59164	0
862	-12.20505	-87.06269	-75.67131	48.8202	30.10579	-82.18067	-25.22377	-82.99434	-123.67784	-223.75925	-148.90161	-237.59164	0
863	-7.32303	-91.94471	-85.43535	48.8202	37.42882	-89.5037	-22.78276	-80.55333	-121.23683	-221.31824	-146.4606	-235.15063	0
864	-7.32303	-101.70875	-95.19939	53.70222	42.31084	-99.26774	-20.34175	-78.11232	-121.23683	-221.31824	-144.01959	-235.15063	0
865	-4.88202	-99.26774	-95.19939	51.26121	44.75185	-96.82673	-20.34175	-75.67131	-118.79582	-223.75925	-146.4606	-235.15063	0
866	0	-94.38572	-95.19939	46.37919	47.19286	-94.38572	-17.90074	-75.67131	-121.23683	-223.75925	-146.4606	-240.03265	0
867	-4.88202	-99.26774	-95.19939	51.26121	44.75185	-96.82673	-17.90074	-75.67131	-121.23683	-223.75925	-146.4606	-242.47366	0
868	-12.20505	-113.9138	-102.52242	61.02525	44.75185	-109.03178	-17.90074	-82.99434	-118.79582	-223.75925	-148.90161	-247.35568	0
869	-14.64606	-118.79582	-104.96343	65.90727	44.75185	-111.47279	-20.34175	-92.75838	-121.23683	-221.31824	-151.34262	-249.79669	0
870	-17.08707	-113.9138	-97.6404	63.46626	39.86983	-106.59077	-22.78276	-102.52242	-126.11885	-223.75925	-153.78363	-257.11972	0
871	-24.4101	-109.03178	-85.43535	65.90727	30.10579	-96.82673	-30.10579	-109.84545	-135.88289	-228.64127	-158.66565	-264.44275	0
872	-29.29212	-113.9138	-85.43535	70.78929	27.66478	-99.26774	-34.98781	-112.28646	-140.76491	-231.08228	-161.10666	-266.88376	0
873	-31.73313	-118.79582	-87.87636	73.2303	27.66478	-104.14976	-37.42882	-112.28646	-143.20592	-233.52329	-165.98868	-269.32477	0
874	-29.29212	-104.14976	-75.67131	65.90727	22.78276	-89.5037	-42.31084	-114.72747	-145.64693	-235.9643	-168.42969	-274.20679	0
875	-29.29212	-96.82673	-68.34828	61.02525	17.90074	-82.18067	-44.75185	-114.72747	-145.64693	-238.40531	-168.42969	-274.20679	0
876	-26.85111	-96.82673	-70.78929	61.02525	20.34175	-84.62168	-42.31084	-112.28646	-145.64693	-238.40531	-168.42969	-274.20679	0
877	-21.96909	-96.82673	-75.67131	58.58424	25.22377	-87.06269	-34.98781	-109.84545	-140.76491	-233.52329	-163.54767	-271.76578	0
878	-14.64606	-106.59077	-92.75838	58.58424	37.42882	-99.26774	-27.66478	-107.40444	-133.44188	-223.75925	-158.66565	-266.88376	0
879	-14.64606	-111.47279	-97.6404	61.02525	39.86983	-104.14976	-22.78276	-112.28646	-126.11885	-216.43622	-153.78363	-262.00174	0
880	-14.64606	-113.9138	-100.08141	63.46626	42.31084	-106.59077	-22.78276	-119.60949	-128.55986	-213.99521	-153.78363	-259.56073	0
881	-14.64606	-116.35481	-102.52242	63.46626	42.31084	-109.03178	-22.78276	-122.0505	-131.00087	-211.5542	-153.78363	-259.56073	0
882	-14.64606	-109.03178	-95.19939	61.02525	39.86983	-101.70875	-25.22377	-124.49151	-133.44188	-211.5542	-153.78363	-259.56073	0
883	-12.20505	-106.59077	-95.19939	58.58424	39.86983	-101.70875	-30.10579	-124.49151	-133.44188	-211.5542	-153.78363	-259.56073	0
884	-12.20505	-111.47279	-100.08141	61.02525	42.31084	-106.59077	-30.10579	-124.49151	-133.44188	-211.5542	-153.78363	-259.56073	0
885	-14.64606	-106.59077	-92.75838	58.58424	37.42882	-99.26774	-30.10579	-124.49151	-133.44188	-211.5542	-153.78363	-259.56073	0
886	-12.20505	-101.70875	-90.31737	56.14323	37.42882	-96.82673	-27.66478	-122.0505	-133.44188	-211.5542	-153.78363	-262.00174	0
887	-4.88202	-82.18067	-78.11232	41.49717	34.98781	-79.73966	-27.66478	-122.0505	-133.44188	-211.5542	-151.34262	-264.44275	0
888	-2.44101	-77.29865	-75.67131	39.05616	34.98781	-77.29865	-27.66478	-129.37353	-133.44188	-211.5542	-151.34262	-266.88376	0
889	-9.76404	-87.06269	-78.11232	46.37919	32.5468	-82.18067	-27.66478	-134.25555	-133.44188	-209.11319	-151.34262	-269.32477	0
890	-19.52808	-96.82673	-78.11232	56.14323	27.66478	-87.06269	-27.66478	-141.57858	-135.88289	-206.67218	-151.34262	-269.32477	0
891	-19.52808	-99.26774	-80.55333	58.58424	30.10579	-89.5037	-27.66478	-141.57858	-138.3239	-204.23117	-148.90161	-269.32477	0
892	-21.96909	-104.14976	-82.99434	61.02525	30.10579	-94.38572	-27.66478	-141.57858	-138.3239	-204.23117	-146.4606	-266.88376	0
893	-29.29212	-111.47279	-82.99434	68.34828	25.22377	-96.82673	-30.10579	-141.57858	-138.3239	-204.23117	-146.4606	-266.88376	0
894	-34.17414	-116.35481	-82.99434	73.2303	22.78276	-99.26774	-32.5468	-139.13757	-140.76491	-204.23117	-146.4606	-266.88376	0
895	-34.17414	-111.47279	-78.11232	70.78929	20.34175	-94.38572	-32.5468	-139.13757	-143.20592	-206.67218	-148.90161	-266.88376	0
896	-29.29212	-104.14976	-75.67131	65.90727	22.78276	-89.5037	-32.5468	-139.13757	-143.20592	-209.11319	-151.34262	-269.32477	0
897	-29.29212	-96.82673	-68.34828	61.02525	17.90074	-82.18067	-32.5468	-141.57858	-143.20592	-209.11319	-153.78363	-271.76578	0
898	-29.29212	-94.38572	-65.90727	61.02525	17.90074	-79.73966	-34.98781	-148.90161	-143.20592	-209.11319	-156.22464	-276.6478	0
899	-26.85111	-94.38572	-68.34828	58.58424	20.34175	-82.18067	-32.5468	-156.22464	-140.76491	-204.23117	-158.66565	-276.6478	0
900	-21.96909	-94.38572	-73.2303	56.14323	25.22377	-84.62168	-30.10579	-158.66565	-138.3239	-201.79016	-158.66565	-276.6478	0
901	-19.52808	-94.38572	-75.67131	56.14323	27.66478	-84.62168	-25.22377	-156.22464	-135.88289	-196.90814	-153.78363	-276.6478	0
902	-17.08707	-94.38572	-78.11232	53.70222	30.10579	-87.06269	-22.78276	-153.78363	-133.44188	-194.46713	-153.78363	-276.6478	0
903	-14.64606	-89.5037	-75.67131	51.26121	30.10579	-82.18067	-22.78276	-151.34262	-131.00087	-194.46713	-153.78363	-276.6478	0
904	-14.64606	-84.62168	-70.78929	48.8202	27.66478	-77.29865	-25.22377	-151.34262	-131.00087	-196.90814	-153.78363	-276.6478	0
905	-14.64606	-82.18067	-68.34828	46.37919	25.22377	-74.85764	-25.22377	-151.34262	-135.88289	-199.34915	-153.78363	-279.08881	0
906	-19.52808	-84.62168	-65.90727	51.26121	22.78276	-74.85764	-27.66478	-148.90161	-135.88289	-199.34915	-153.78363	-281.52982	0
907	-21.96909	-84.62168	-63.46626	51.26121	20.34175	-74.85764	-27.66478	-151.34262	-135.88289	-201.79016	-156.22464	-283.97083	0
908	-21.96909	-89.5037	-68.34828	53.70222	22.78276	-79.73966	-27.66478	-156.22464	-133.44188	-199.34915	-156.22464	-286.41184	0
909	-24.4101	-99.26774	-75.67131	61.02525	25.22377	-87.06269	-25.22377	-158.66565	-131.00087	-194.46713	-153.78363	-286.41184	0
910	-29.29212	-111.47279	-82.99434	68.34828	25.22377	-96.82673	-22.78276	-161.10666	-128.55986	-189.58511	-153.78363	-286.41184	0
911	-29.29212	-113.9138	-85.43535	70.78929	27.66478	-99.26774	-20.34175	-156.22464	-126.11885	-184.70309	-151.34262	-286.41184	0
912	-26.85111	-101.70875	-75.67131	63.46626	22.78276	-89.5037	-22.78276	-156.22464	-128.55986	-187.1441	-153.78363	-291.29386	0
913	-24.4101	-96.82673	-73.2303	58.58424	22.78276	-84.62168	-25.22377	-153.78363	-128.55986	-184.70309	-156.22464	-291.29386	0
914	-24.4101	-109.03178	-85.43535	65.90727	30.10579	-96.82673	-20.34175	-146.4606	-123.67784	-179.82107	-151.34262	-288.85285	0
915	-21.96909	-104.14976	-82.99434	61.02525	30.10579	-94.38572	-17.90074	-139.13757	-121.23683	-179.82107	-148.90161	-286.41184	0
916	-17.08707	-94.38572	-78.11232	53.70222	30.10579	-87.06269	-15.45973	-131.81454	-118.79582	-177.38006	-146.4606	-286.41184	0
917	-17.08707	-91.94471	-75.67131	53.70222	27.66478	-84.62168	-15.45973	-129.37353	-116.35481	-174.93905	-144.01959	-283.97083	0
918	-21.96909	-96.82673	-75.67131	58.58424	25.22377	-87.06269	-15.45973	-131.81454	-116.35481	-174.93905	-144.01959	-286.41184	0
919	-26.85111	-111.47279	-85.43535	68.34828	27.66478	-99.26774	-13.01872	-131.81454	-111.47279	-167.61602	-141.57858	-286.41184	0
920	-29.29212	-113.9138	-85.43535	70.78929	27.66478	-99.26774	-15.45973	-134.25555	-111.47279	-167.61602	-141.57858	-288.85285	0
921	-31.73313	-113.9138	-82.99434	70.78929	25.22377	-99.26774	-20.34175	-134.25555	-113.9138	-167.61602	-141.57858	-291.29386	0
922	-34.17414	-111.47279	-78.11232	70.78929	20.34175	-94.38572	-27.66478	-134.25555	-116.35481	-170.05703	-144.01959	-296.17588	0
923	-36.61515	-101.70875	-65.90727	68.34828	13.01872	-84.62168	-34.98781	-134.25555	-121.23683	-174.93905	-151.34262	-301.0579	0
924	-29.29212	-87.06269	-58.58424	56.14323	13.01872	-72.41663	-37.42882	-134.25555	-121.23683	-174.93905	-151.34262	-303.49891	0
925	-21.96909	-74.85764	-53.70222	46.37919	15.45973	-65.0936	-37.42882	-126.93252	-121.23683	-174.93905	-151.34262	-303.49891	0
926	-17.08707	-62.65259	-46.37919	39.05616	13.01872	-55.32956	-37.42882	-122.0505	-121.23683	-174.93905	-151.34262	-303.49891	0
927	-12.20505	-50.44754	-39.05616	29.29212	13.01872	-45.56552	-34.98781	-119.60949	-121.23683	-174.93905	-148.90161	-303.49891	0
928	-4.88202	-50.44754	-46.37919	26.85111	20.34175	-48.00653	-27.66478	-117.16848	-116.35481	-167.61602	-146.4606	-303.49891	0
929	0	-62.65259	-63.46626	29.29212	30.10579	-62.65259	-17.90074	-112.28646	-106.59077	-155.41097	-139.13757	-301.0579	0
930	0	-79.73966	-80.55333	39.05616	39.86983	-79.73966	-8.1367	-107.40444	-99.26774	-145.64693	-131.81454	-296.17588	0
931	3.25468	-84.62168	-87.87636	39.05616	44.75185	-84.62168	-0.81367	-100.08141	-96.82673	-138.3239	-126.93252	-296.17588	0
932	5.69569	-87.06269	-92.75838	39.05616	47.19286	-89.5037	1.62734	-95.19939	-91.94471	-135.88289	-122.0505	-296.17588	0
933	5.69569	-84.62168	-90.31737	39.05616	47.19286	-87.06269	-0.81367	-95.19939	-94.38572	-135.88289	-126.93252	-301.0579	0
934	0	-79.73966	-80.55333	39.05616	39.86983	-79.73966	-5.69569	-97.6404	-99.26774	-140.76491	-129.37353	-305.93992	0
935	-4.88202	-74.85764	-70.78929	39.05616	32.5468	-72.41663	-10.57771	-97.6404	-101.70875	-148.08794	-134.25555	-310.82194	0
936	-9.76404	-79.73966	-70.78929	43.93818	30.10579	-74.85764	-10.57771	-95.19939	-104.14976	-150.52895	-136.69656	-313.26295	0
937	-14.64606	-89.5037	-75.67131	51.26121	30.10579	-82.18067	-10.57771	-95.19939	-104.14976	-152.96996	-136.69656	-313.26295	0
938	-21.96909	-99.26774	-78.11232	58.58424	27.66478	-89.5037	-10.57771	-100.08141	-101.70875	-152.96996	-136.69656	-315.70396	0
939	-26.85111	-109.03178	-82.99434	65.90727	27.66478	-96.82673	-13.01872	-102.52242	-101.70875	-150.52895	-139.13757	-315.70396	0
940	-29.29212	-123.67784	-95.19939	75.67131	32.5468	-109.03178	-10.57771	-102.52242	-96.82673	-145.64693	-134.25555	-315.70396	0
941	-29.29212	-128.55986	-100.08141	78.11232	34.98781	-113.9138	-10.57771	-102.52242	-96.82673	-140.76491	-131.81454	-313.26295	0
942	-26.85111	-121.23683	-95.19939	73.2303	32.5468	-109.03178	-13.01872	-102.52242	-96.82673	-140.76491	-131.81454	-315.70396	0
943	-21.96909	-104.14976	-82.99434	61.02525	30.10579	-94.38572	-17.90074	-107.40444	-99.26774	-143.20592	-136.69656	-320.58598	0
944	-17.08707	-84.62168	-68.34828	48.8202	25.22377	-77.29865	-20.34175	-109.84545	-106.59077	-148.08794	-141.57858	-325.468	0
945	-12.20505	-72.41663	-61.02525	41.49717	22.78276	-67.53461	-17.90074	-107.40444	-106.59077	-148.08794	-141.57858	-325.468	0
946	-2.44101	-65.0936	-63.46626	31.73313	30.10579	-65.0936	-13.01872	-104.96343	-106.59077	-145.64693	-139.13757	-325.468	0
947	3.25468	-55.32956	-58.58424	24.4101	30.10579	-55.32956	-8.1367	-102.52242	-104.14976	-143.20592	-136.69656	-323.02699	0
948	8.1367	-48.00653	-56.14323	19.52808	30.10579	-50.44754	-5.69569	-104.96343	-101.70875	-143.20592	-136.69656	-323.02699	0
949	13.01872	-43.12451	-56.14323	14.64606	32.5468	-48.00653	-3.25468	-107.40444	-101.70875	-135.88289	-134.25555	-323.02699	0
950	15.45973	-50.44754	-65.90727	17.08707	39.86983	-57.77057	1.62734	-107.40444	-99.26774	-131.00087	-126.93252	-318.14497	0
951	17.90074	-57.77057	-75.67131	19.52808	44.75185	-65.0936	1.62734	-107.40444	-96.82673	-128.55986	-122.0505	-315.70396	0
952	13.01872	-62.65259	-75.67131	24.4101	42.31084	-67.53461	-0.81367	-109.84545	-99.26774	-128.55986	-122.0505	-320.58598	0
953	5.69569	-72.41663	-78.11232	31.73313	39.86983	-74.85764	-3.25468	-112.28646	-101.70875	-128.55986	-119.60949	-320.58598	0
954	0	-87.06269	-87.87636	41.49717	42.31084	-87.06269	-5.69569	-112.28646	-106.59077	-128.55986	-117.16848	-318.14497	0
955	-4.88202	-91.94471	-87.87636	46.37919	39.86983	-89.5037	-8.1367	-114.72747	-106.59077	-131.00087	-117.16848	-318.14497	0
956	-7.32303	-87.06269	-80.55333	46.37919	34.98781	-84.62168	-10.57771	-117.16848	-111.47279	-133.44188	-117.16848	-318.14497	0
957	-9.76404	-79.73966	-70.78929	43.93818	30.10579	-74.85764	-15.45973	-122.0505	-116.35481	-138.3239	-122.0505	-320.58598	0
958	-9.76404	-69.97562	-61.02525	39.05616	25.22377	-65.0936	-17.90074	-124.49151	-121.23683	-143.20592	-126.93252	-323.02699	0
959	-4.88202	-60.21158	-56.14323	31.73313	25.22377	-57.77057	-20.34175	-126.93252	-123.67784	-145.64693	-129.37353	-325.468	0
960	0	-45.56552	-46.37919	21.96909	22.78276	-45.56552	-22.78276	-131.81454	-126.11885	-145.64693	-134.25555	-330.35002	0
961	3.25468	-33.36047	-36.61515	14.64606	17.90074	-33.36047	-25.22377	-131.81454	-128.55986	-148.08794	-136.69656	-335.23204	0
962	3.25468	-40.6835	-43.93818	17.08707	22.78276	-40.6835	-20.34175	-129.37353	-128.55986	-145.64693	-136.69656	-335.23204	0
963	5.69569	-45.56552	-51.26121	19.52808	27.66478	-48.00653	-17.90074	-126.93252	-128.55986	-143.20592	-136.69656	-335.23204	0
964	5.69569	-52.88855	-58.58424	21.96909	30.10579	-55.32956	-13.01872	-124.49151	-128.55986	-140.76491	-136.69656	-335.23204	0
965	3.25468	-55.32956	-58.58424	24.4101	30.10579	-55.32956	-13.01872	-124.49151	-131.00087	-140.76491	-136.69656	-340.11406	0
966	0	-48.00653	-48.8202	21.96909	22.78276	-48.00653	-15.45973	-126.93252	-135.88289	-143.20592	-141.57858	-344.99608	0
967	0	-43.12451	-43.93818	19.52808	20.34175	-43.12451	-15.45973	-131.81454	-143.20592	-145.64693	-146.4606	-349.8781	0
968	-2.44101	-40.6835	-39.05616	19.52808	17.90074	-40.6835	-17.90074	-136.69656	-145.64693	-148.08794	-148.90161	-352.31911	0
969	-2.44101	-40.6835	-39.05616	19.52808	17.90074	-40.6835	-20.34175	-141.57858	-150.52895	-150.52895	-148.90161	-354.76012	0
970	-2.44101	-33.36047	-31.73313	17.08707	13.01872	-33.36047	-27.66478	-151.34262	-155.41097	-152.96996	-153.78363	-357.20113	0
971	0	-21.15542	-21.96909	8.95037	9.76404	-21.15542	-32.5468	-158.66565	-160.29299	-155.41097	-156.22464	-359.64214	0
972	5.69569	-13.01872	-18.71441	4.06835	13.01872	-15.45973	-34.98781	-161.10666	-162.734	-157.85198	-156.22464	-359.64214	0
973	8.1367	-21.15542	-29.29212	6.50936	17.90074	-23.59643	-34.98781	-161.10666	-162.734	-155.41097	-156.22464	-357.20113	0
