samplenr	I	II	III	aVR	aVL	aVF	V1	V2	V3	V4	V5	V6	measurement
0	-4.06835	16.2734	20.34175	-7.32303	-11.39138	17.90074	17.08707	-54.51589	-50.44754	0	-14.64606	-71.60296	0
1	-1.62734	21.15542	22.78276	-9.76404	-11.39138	22.78276	19.52808	-54.51589	-48.00653	2.44101	-9.76404	-66.72094	0
2	-1.62734	26.03744	27.66478	-12.20505	-13.83239	27.66478	21.96909	-54.51589	-45.56552	4.88202	-4.88202	-64.27993	0
3	-6.50936	28.47845	34.98781	-12.20505	-21.15542	32.5468	21.96909	-52.07488	-40.6835	8.1367	-2.44101	-61.83892	0
4	-4.06835	30.91946	34.98781	-14.64606	-18.71441	32.5468	21.96909	-52.07488	-40.6835	8.1367	0.81367	-56.9569	0
5	-1.62734	33.36047	34.98781	-17.08707	-18.71441	34.98781	19.52808	-52.07488	-40.6835	10.57771	3.25468	-56.9569	0
6	1.62734	38.24249	37.42882	-19.52808	-18.71441	39.86983	19.52808	-52.07488	-38.24249	13.01872	5.69569	-54.51589	0
7	1.62734	38.24249	37.42882	-19.52808	-18.71441	39.86983	19.52808	-47.19286	-33.36047	17.90074	10.57771	-52.07488	0
8	1.62734	38.24249	37.42882	-19.52808	-18.71441	39.86983	17.08707	-44.75185	-30.91946	22.78276	13.01872	-52.07488	0
9	4.06835	35.80148	32.5468	-19.52808	-13.83239	34.98781	12.20505	-44.75185	-28.47845	22.78276	13.01872	-52.07488	0
10	4.06835	30.91946	27.66478	-17.08707	-11.39138	30.10579	9.76404	-44.75185	-28.47845	22.78276	13.01872	-52.07488	0
11	1.62734	26.03744	25.22377	-14.64606	-11.39138	27.66478	4.88202	-44.75185	-28.47845	22.78276	13.01872	-52.07488	0
12	6.50936	26.03744	20.34175	-17.08707	-6.50936	25.22377	0	-49.63387	-28.47845	22.78276	13.01872	-52.07488	0
13	8.95037	23.59643	15.45973	-17.08707	-4.06835	20.34175	-2.44101	-54.51589	-30.91946	20.34175	13.01872	-52.07488	0
14	6.50936	18.71441	13.01872	-12.20505	-4.06835	17.90074	-7.32303	-59.39791	-35.80148	20.34175	13.01872	-49.63387	0
15	4.06835	11.39138	8.1367	-7.32303	-1.62734	10.57771	-12.20505	-64.27993	-40.6835	15.45973	10.57771	-49.63387	0
16	-1.62734	4.06835	5.69569	-2.44101	-4.06835	5.69569	-19.52808	-74.04397	-48.00653	10.57771	5.69569	-52.07488	0
17	-1.62734	1.62734	3.25468	0	-1.62734	3.25468	-26.85111	-81.367	-55.32956	4.88202	0.81367	-54.51589	0
18	1.62734	1.62734	0	-2.44101	1.62734	3.25468	-31.73313	-88.69003	-60.21158	4.88202	-2.44101	-54.51589	0
19	6.50936	1.62734	-4.88202	-4.88202	6.50936	0	-36.61515	-93.57205	-62.65259	2.44101	-2.44101	-54.51589	0
20	11.39138	1.62734	-9.76404	-7.32303	11.39138	-2.44101	-39.05616	-93.57205	-62.65259	2.44101	-2.44101	-52.07488	0
21	11.39138	-1.62734	-12.20505	-4.88202	11.39138	-4.88202	-41.49717	-93.57205	-62.65259	0	-2.44101	-52.07488	0
22	13.83239	-1.62734	-14.64606	-7.32303	13.83239	-7.32303	-43.93818	-96.01306	-62.65259	-2.44101	-2.44101	-49.63387	0
23	18.71441	1.62734	-17.08707	-9.76404	18.71441	-7.32303	-46.37919	-98.45407	-62.65259	-2.44101	-2.44101	-49.63387	0
24	26.03744	4.06835	-21.96909	-14.64606	23.59643	-7.32303	-43.93818	-96.01306	-62.65259	0	0.81367	-42.31084	0
25	30.91946	4.06835	-26.85111	-17.08707	28.47845	-9.76404	-41.49717	-88.69003	-57.77057	4.88202	3.25468	-37.42882	0
26	30.91946	4.06835	-26.85111	-17.08707	28.47845	-9.76404	-39.05616	-83.80801	-55.32956	4.88202	5.69569	-34.98781	0
27	30.91946	4.06835	-26.85111	-17.08707	28.47845	-9.76404	-36.61515	-76.48498	-52.88855	4.88202	5.69569	-32.5468	0
28	28.47845	4.06835	-24.4101	-17.08707	26.03744	-9.76404	-36.61515	-76.48498	-52.88855	4.88202	3.25468	-32.5468	0
29	28.47845	4.06835	-24.4101	-17.08707	26.03744	-9.76404	-31.73313	-76.48498	-50.44754	4.88202	3.25468	-32.5468	0
30	28.47845	4.06835	-24.4101	-17.08707	26.03744	-9.76404	-26.85111	-76.48498	-50.44754	4.88202	3.25468	-34.98781	0
31	26.03744	1.62734	-24.4101	-14.64606	26.03744	-9.76404	-21.96909	-71.60296	-45.56552	4.88202	3.25468	-34.98781	0
32	21.15542	-1.62734	-21.96909	-9.76404	21.15542	-9.76404	-17.08707	-71.60296	-45.56552	4.88202	0.81367	-39.86983	0
33	18.71441	-8.95037	-26.85111	-4.88202	21.15542	-17.08707	-14.64606	-74.04397	-45.56552	0	-2.44101	-47.19286	0
34	13.83239	-18.71441	-31.73313	0	21.15542	-24.4101	-12.20505	-74.04397	-48.00653	0	-4.88202	-52.07488	0
35	4.06835	-23.59643	-26.85111	8.1367	13.83239	-24.4101	-7.32303	-71.60296	-48.00653	0	-4.88202	-52.07488	0
36	6.50936	-26.03744	-31.73313	8.1367	18.71441	-26.85111	-4.88202	-71.60296	-48.00653	-4.88202	-7.32303	-56.9569	0
37	6.50936	-33.36047	-39.05616	13.01872	21.15542	-34.17414	-4.88202	-71.60296	-50.44754	-7.32303	-12.20505	-64.27993	0
38	1.62734	-38.24249	-39.05616	17.90074	18.71441	-36.61515	-4.88202	-71.60296	-48.00653	-7.32303	-14.64606	-69.16195	0
39	-1.62734	-43.12451	-41.49717	20.34175	18.71441	-41.49717	-2.44101	-71.60296	-48.00653	-9.76404	-17.08707	-74.04397	0
40	-1.62734	-45.56552	-43.93818	22.78276	21.15542	-43.93818	-2.44101	-71.60296	-48.00653	-12.20505	-19.52808	-78.92599	0
41	-4.06835	-45.56552	-41.49717	22.78276	18.71441	-43.93818	-2.44101	-69.16195	-48.00653	-14.64606	-21.96909	-81.367	0
42	-8.95037	-45.56552	-36.61515	25.22377	13.83239	-41.49717	2.44101	-64.27993	-45.56552	-14.64606	-21.96909	-81.367	0
43	-8.95037	-45.56552	-36.61515	25.22377	13.83239	-41.49717	4.88202	-64.27993	-45.56552	-17.08707	-21.96909	-88.69003	0
44	-8.95037	-48.00653	-39.05616	27.66478	13.83239	-43.93818	7.32303	-69.16195	-45.56552	-17.08707	-24.4101	-88.69003	0
45	-16.2734	-52.88855	-36.61515	32.5468	8.95037	-43.93818	9.76404	-69.16195	-45.56552	-17.08707	-24.4101	-88.69003	0
46	-16.2734	-52.88855	-36.61515	32.5468	8.95037	-43.93818	9.76404	-66.72094	-43.12451	-17.08707	-24.4101	-91.13104	0
47	-16.2734	-55.32956	-39.05616	34.98781	11.39138	-46.37919	12.20505	-61.83892	-40.6835	-17.08707	-26.85111	-93.57205	0
48	-18.71441	-55.32956	-36.61515	34.98781	8.95037	-46.37919	12.20505	-59.39791	-38.24249	-14.64606	-29.29212	-93.57205	0
49	-23.59643	-57.77057	-34.17414	39.86983	4.06835	-46.37919	12.20505	-61.83892	-35.80148	-14.64606	-29.29212	-93.57205	0
50	-23.59643	-57.77057	-34.17414	39.86983	4.06835	-46.37919	12.20505	-64.27993	-33.36047	-14.64606	-31.73313	-91.13104	0
51	-21.15542	-60.21158	-39.05616	39.86983	8.95037	-48.8202	9.76404	-66.72094	-33.36047	-17.08707	-31.73313	-91.13104	0
52	-23.59643	-62.65259	-39.05616	42.31084	6.50936	-51.26121	9.76404	-66.72094	-30.91946	-17.08707	-31.73313	-88.69003	0
53	-23.59643	-62.65259	-39.05616	42.31084	6.50936	-51.26121	9.76404	-69.16195	-28.47845	-17.08707	-31.73313	-88.69003	0
54	-21.15542	-62.65259	-41.49717	39.86983	8.95037	-51.26121	9.76404	-69.16195	-28.47845	-17.08707	-31.73313	-86.24902	0
55	-21.15542	-65.0936	-43.93818	42.31084	11.39138	-53.70222	9.76404	-66.72094	-26.03744	-17.08707	-31.73313	-83.80801	0
56	-23.59643	-65.0936	-41.49717	42.31084	8.95037	-53.70222	9.76404	-66.72094	-26.03744	-19.52808	-31.73313	-83.80801	0
57	-26.03744	-65.0936	-39.05616	44.75185	6.50936	-51.26121	12.20505	-61.83892	-23.59643	-19.52808	-31.73313	-83.80801	0
58	-26.03744	-67.53461	-41.49717	44.75185	6.50936	-53.70222	12.20505	-56.9569	-21.15542	-17.08707	-31.73313	-86.24902	0
59	-26.03744	-65.0936	-39.05616	44.75185	6.50936	-51.26121	14.64606	-54.51589	-16.2734	-17.08707	-31.73313	-86.24902	0
60	-21.15542	-65.0936	-43.93818	42.31084	11.39138	-53.70222	14.64606	-54.51589	-16.2734	-17.08707	-31.73313	-88.69003	0
61	-18.71441	-62.65259	-43.93818	39.86983	11.39138	-53.70222	14.64606	-54.51589	-16.2734	-14.64606	-31.73313	-91.13104	0
62	-26.03744	-62.65259	-36.61515	42.31084	4.06835	-48.8202	17.08707	-52.07488	-13.83239	-14.64606	-31.73313	-93.57205	0
63	-28.47845	-62.65259	-34.17414	44.75185	1.62734	-48.8202	19.52808	-52.07488	-11.39138	-12.20505	-31.73313	-96.01306	0
64	-26.03744	-60.21158	-34.17414	42.31084	4.06835	-46.37919	19.52808	-54.51589	-13.83239	-12.20505	-31.73313	-96.01306	0
65	-26.03744	-60.21158	-34.17414	42.31084	4.06835	-46.37919	19.52808	-54.51589	-13.83239	-9.76404	-31.73313	-98.45407	0
66	-21.15542	-55.32956	-34.17414	37.42882	6.50936	-43.93818	19.52808	-54.51589	-11.39138	-7.32303	-31.73313	-98.45407	0
67	-21.15542	-57.77057	-36.61515	37.42882	6.50936	-46.37919	19.52808	-54.51589	-11.39138	-7.32303	-31.73313	-100.89508	0
68	-21.15542	-60.21158	-39.05616	39.86983	8.95037	-48.8202	19.52808	-52.07488	-8.95037	-4.88202	-31.73313	-100.89508	0
69	-18.71441	-60.21158	-41.49717	37.42882	11.39138	-51.26121	17.08707	-49.63387	-4.06835	-2.44101	-31.73313	-103.33609	0
70	-18.71441	-57.77057	-39.05616	37.42882	8.95037	-48.8202	17.08707	-44.75185	-1.62734	-2.44101	-31.73313	-103.33609	0
71	-16.2734	-62.65259	-46.37919	37.42882	13.83239	-53.70222	14.64606	-44.75185	-1.62734	-4.88202	-34.17414	-105.7771	0
72	-21.15542	-62.65259	-41.49717	39.86983	8.95037	-51.26121	14.64606	-42.31084	-1.62734	-4.88202	-34.17414	-105.7771	0
73	-21.15542	-62.65259	-41.49717	39.86983	8.95037	-51.26121	14.64606	-42.31084	0.81367	-4.88202	-34.17414	-103.33609	0
74	-23.59643	-65.0936	-41.49717	42.31084	8.95037	-53.70222	17.08707	-42.31084	0.81367	-4.88202	-31.73313	-100.89508	0
75	-23.59643	-65.0936	-41.49717	42.31084	8.95037	-53.70222	17.08707	-44.75185	-1.62734	-4.88202	-31.73313	-98.45407	0
76	-26.03744	-65.0936	-39.05616	44.75185	6.50936	-51.26121	17.08707	-42.31084	-1.62734	-2.44101	-31.73313	-98.45407	0
77	-28.47845	-67.53461	-39.05616	47.19286	4.06835	-53.70222	14.64606	-37.42882	-1.62734	-2.44101	-34.17414	-98.45407	0
78	-28.47845	-65.0936	-36.61515	44.75185	4.06835	-51.26121	14.64606	-32.5468	0.81367	-2.44101	-34.17414	-96.01306	0
79	-23.59643	-62.65259	-39.05616	42.31084	6.50936	-51.26121	14.64606	-32.5468	3.25468	-2.44101	-34.17414	-93.57205	0
80	-18.71441	-60.21158	-41.49717	37.42882	11.39138	-51.26121	17.08707	-30.10579	3.25468	-2.44101	-34.17414	-91.13104	0
81	-13.83239	-55.32956	-41.49717	32.5468	13.83239	-48.8202	17.08707	-27.66478	3.25468	-2.44101	-34.17414	-88.69003	0
82	-13.83239	-55.32956	-41.49717	32.5468	13.83239	-48.8202	19.52808	-22.78276	5.69569	-2.44101	-34.17414	-88.69003	0
83	-13.83239	-55.32956	-41.49717	32.5468	13.83239	-48.8202	21.96909	-17.90074	10.57771	-2.44101	-34.17414	-88.69003	0
84	-18.71441	-57.77057	-39.05616	37.42882	8.95037	-48.8202	27.66478	-10.57771	10.57771	-2.44101	-34.17414	-88.69003	0
85	-21.15542	-62.65259	-41.49717	39.86983	8.95037	-51.26121	34.98781	-3.25468	15.45973	-7.32303	-39.05616	-93.57205	0
86	-28.47845	-65.0936	-36.61515	44.75185	4.06835	-51.26121	42.31084	6.50936	20.34175	-9.76404	-43.93818	-100.89508	0
87	-35.80148	-67.53461	-31.73313	49.63387	-4.06835	-48.8202	54.51589	23.59643	27.66478	-12.20505	-51.26121	-105.7771	0
88	-38.24249	-72.41663	-34.17414	54.51589	-4.06835	-53.70222	64.27993	38.24249	32.5468	-14.64606	-56.14323	-113.10013	0
89	-43.12451	-79.73966	-36.61515	59.39791	-4.06835	-58.58424	69.16195	48.00653	37.42882	-24.4101	-65.90727	-122.86417	0
90	-48.00653	-84.62168	-36.61515	64.27993	-6.50936	-61.02525	98.45407	92.75838	60.21158	-31.73313	-73.2303	-127.74619	0
91	-43.12451	-91.94471	-48.8202	66.72094	1.62734	-70.78929	105.7771	109.84545	69.97562	-41.49717	-78.11232	-142.39225	0
92	-60.21158	-104.14976	-43.93818	81.367	-8.95037	-73.2303	98.45407	87.87636	55.32956	-51.26121	-82.99434	-144.83326	0
93	-28.47845	-96.82673	-68.34828	61.83892	18.71441	-82.99434	74.04397	53.70222	27.66478	-58.58424	-82.99434	-149.71528	0
94	-35.80148	-96.82673	-61.02525	64.27993	11.39138	-78.11232	56.9569	28.47845	-1.62734	-63.46626	-80.55333	-130.1872	0
95	26.03744	-111.47279	-136.69656	42.31084	79.73966	-122.0505	39.86983	26.03744	0.81367	-68.34828	-80.55333	-105.7771	0
96	55.32956	-121.23683	-175.75272	32.5468	113.9138	-146.4606	25.22377	16.2734	-11.39138	-78.11232	-80.55333	-93.57205	0
97	96.82673	-138.3239	-234.33696	20.34175	165.17501	-185.51676	2.44101	-25.22377	-48.00653	-87.87636	-73.2303	-69.16195	0
98	91.94471	-155.41097	-246.54201	30.10579	167.61602	-200.16282	-39.05616	-76.48498	-67.53461	-100.08141	-31.73313	4.88202	0
99	138.3239	-140.76491	-278.27514	0	206.67218	-207.48585	-112.28646	-188.77144	-140.76491	-112.28646	13.01872	58.58424	0
100	172.49804	-133.44188	-305.12625	-19.52808	238.40531	-217.24989	-219.6909	-362.08315	-270.13844	-129.37353	25.22377	97.6404	1000	P+0
101	189.58511	-128.55986	-317.3313	-31.73313	253.05137	-222.13191	-319.77231	-547.59991	-423.92207	-151.34262	56.9569	165.98868	0
102	257.93339	-89.5037	-346.62342	-85.43535	301.87157	-217.24989	-446.70483	-755.08576	-567.94166	-187.95777	93.57205	217.24989	0
103	318.95864	-28.47845	-346.62342	-146.4606	331.16369	-185.51676	-568.75533	-928.39747	-677.78711	-200.16282	135.06922	319.77231	0
104	367.77884	30.91946	-336.85938	-200.16282	353.13278	-151.34262	-683.4828	-1094.38615	-821.8067	-229.45494	169.24336	397.88463	0
105	426.36308	109.03178	-317.3313	-268.5111	372.66086	-102.52242	-783.56421	-1243.28776	-936.53417	-256.30605	198.53548	463.7919	0
106	450.77318	189.58511	-261.18807	-319.77231	355.57379	-34.17414	-893.40966	-1377.54331	-1034.17457	-248.98302	266.88376	568.75533	0
107	516.68045	301.87157	-214.80888	-410.08968	365.33783	44.75185	-993.49107	-1502.03482	-1141.57901	-263.62908	325.468	663.95472	0
108	553.2956	343.36874	-209.92686	-449.14584	382.4249	69.16195	-1030.10622	-1545.973	-1185.51719	-239.21898	366.96517	732.303	0
109	514.23944	272.57945	-241.65999	-393.00261	377.54288	17.90074	-1044.75228	-1545.973	-1209.92729	-388.12059	335.23204	685.92381	0
110	484.94732	231.08228	-253.86504	-358.82847	370.21985	-9.76404	-1030.10622	-1558.17805	-1273.39355	-461.35089	247.35568	600.48846	0
111	450.77318	218.87723	-231.89595	-334.41837	340.92773	-4.88202	-1017.90117	-1582.58815	-1363.71092	-480.87897	-9.76404	483.31998	0
112	348.25076	174.93905	-173.31171	-261.18807	260.3744	3.25468	-966.63996	-1604.55724	-1451.58728	-673.71876	-114.72747	273.39312	0
113	257.93339	82.18067	-175.75272	-170.8707	216.43622	-46.37919	-847.03047	-1516.68088	-1446.70526	-829.9434	-356.38746	17.08707	0
114	174.93905	109.03178	-65.90727	-141.57858	121.23683	22.78276	-729.86199	-1401.95341	-1388.12102	-878.7636	-488.202	-159.47932	0
115	50.44754	45.56552	-4.88202	-48.8202	28.47845	22.78276	-656.63169	-1299.43099	-1312.44971	-893.40966	-546.78624	-259.56073	0
116	-33.36047	62.65259	96.01306	-14.64606	-65.0936	78.92599	-576.07836	-1167.61645	-1205.04527	-871.44057	-563.87331	-308.38093	0
117	-55.32956	65.0936	120.42316	-4.88202	-87.06269	93.57205	-471.11493	-962.57161	-1021.96952	-773.80017	-519.93513	-305.93992	0
118	-91.94471	74.85764	166.80235	8.1367	-128.55986	120.42316	-341.7414	-728.23465	-802.27862	-605.37048	-410.08968	-230.26861	0
119	-55.32956	62.65259	117.98215	-4.88202	-87.06269	91.13104	-244.101	-545.1589	-599.67479	-468.67392	-322.21332	-213.18154	0
120	-38.24249	28.47845	66.72094	3.25468	-52.88855	47.19286	-178.19373	-406.02133	-438.56813	-341.7414	-241.65999	-183.88942	0
121	-33.36047	1.62734	34.98781	15.45973	-33.36047	17.90074	-114.72747	-288.85285	-296.98955	-219.6909	-192.83979	-149.71528	0
122	-30.91946	16.2734	47.19286	5.69569	-38.24249	32.5468	-58.58424	-166.80235	-160.29299	-109.84545	-129.37353	-98.45407	0
123	-30.91946	6.50936	37.42882	10.57771	-33.36047	22.78276	-24.4101	-76.48498	-79.73966	-65.90727	-36.61515	-98.45407	0
124	-30.91946	-1.62734	30.10579	15.45973	-30.91946	15.45973	12.20505	-27.66478	-45.56552	-34.17414	-21.96909	-74.04397	0
125	-23.59643	-4.06835	20.34175	13.01872	-23.59643	8.1367	47.19286	30.91946	10.57771	22.78276	22.78276	-54.51589	0
126	-21.15542	-6.50936	15.45973	13.01872	-18.71441	5.69569	61.83892	61.02525	50.44754	52.07488	44.75185	-39.86983	0
127	-16.2734	-8.95037	8.1367	10.57771	-13.83239	0	64.27993	73.2303	74.85764	81.367	66.72094	-17.90074	0
128	-16.2734	-11.39138	5.69569	13.01872	-11.39138	-2.44101	61.83892	80.55333	91.94471	98.45407	66.72094	-20.34175	0
129	-16.2734	-13.83239	3.25468	13.01872	-11.39138	-4.88202	66.72094	100.08141	111.47279	105.7771	71.60296	-13.01872	0
130	-16.2734	-16.2734	0	15.45973	-8.95037	-7.32303	71.60296	114.72747	118.79582	110.65912	64.27993	-10.57771	0
131	-13.83239	-18.71441	-4.88202	15.45973	-6.50936	-12.20505	74.04397	131.81454	126.11885	120.42316	76.48498	-7.32303	0
132	-8.95037	-18.71441	-9.76404	13.01872	-1.62734	-14.64606	78.92599	144.01959	152.96996	113.10013	76.48498	-7.32303	0
133	-13.83239	-23.59643	-9.76404	17.90074	-4.06835	-17.08707	78.92599	129.37353	135.88289	115.54114	76.48498	-10.57771	0
134	-18.71441	-23.59643	-4.88202	20.34175	-8.95037	-14.64606	81.367	134.25555	140.76491	117.98215	78.92599	-7.32303	0
135	-21.15542	-26.03744	-4.88202	22.78276	-8.95037	-14.64606	86.24902	139.13757	145.64693	122.86417	81.367	-4.88202	0
136	-23.59643	-28.47845	-4.88202	25.22377	-11.39138	-17.08707	86.24902	141.57858	150.52895	122.86417	81.367	-4.88202	0
137	-18.71441	-28.47845	-9.76404	22.78276	-6.50936	-19.52808	86.24902	146.4606	152.96996	120.42316	78.92599	-4.88202	0
138	-13.83239	-28.47845	-14.64606	20.34175	-1.62734	-21.96909	86.24902	148.90161	157.85198	122.86417	76.48498	-4.88202	0
139	-13.83239	-30.91946	-17.08707	20.34175	1.62734	-24.4101	86.24902	148.90161	160.29299	122.86417	76.48498	-4.88202	0
140	-16.2734	-30.91946	-14.64606	22.78276	-1.62734	-21.96909	86.24902	153.78363	165.17501	125.30518	76.48498	-4.88202	0
141	-11.39138	-28.47845	-17.08707	17.90074	1.62734	-21.96909	86.24902	156.22464	167.61602	125.30518	76.48498	-2.44101	0
142	-6.50936	-23.59643	-17.08707	13.01872	4.06835	-19.52808	88.69003	161.10666	172.49804	125.30518	78.92599	0	0
143	-8.95037	-23.59643	-14.64606	15.45973	1.62734	-19.52808	91.13104	161.10666	174.93905	125.30518	78.92599	2.44101	0
144	-8.95037	-23.59643	-14.64606	15.45973	1.62734	-19.52808	91.13104	161.10666	174.93905	125.30518	78.92599	4.88202	0
145	-4.06835	-23.59643	-19.52808	13.01872	6.50936	-21.96909	91.13104	161.10666	177.38006	125.30518	78.92599	7.32303	0
146	-4.06835	-23.59643	-19.52808	13.01872	6.50936	-21.96909	91.13104	161.10666	177.38006	125.30518	78.92599	7.32303	0
147	-1.62734	-23.59643	-21.96909	10.57771	8.95037	-21.96909	91.13104	163.54767	177.38006	125.30518	78.92599	9.76404	0
148	-1.62734	-26.03744	-24.4101	13.01872	11.39138	-24.4101	91.13104	163.54767	179.82107	127.74619	78.92599	12.20505	0
149	-6.50936	-26.03744	-19.52808	15.45973	6.50936	-21.96909	91.13104	165.98868	182.26208	127.74619	78.92599	12.20505	0
150	-11.39138	-28.47845	-17.08707	17.90074	1.62734	-21.96909	91.13104	165.98868	184.70309	127.74619	78.92599	14.64606	0
151	-13.83239	-30.91946	-17.08707	20.34175	1.62734	-24.4101	88.69003	165.98868	184.70309	125.30518	78.92599	14.64606	0
152	-8.95037	-28.47845	-19.52808	17.90074	4.06835	-24.4101	88.69003	163.54767	187.1441	125.30518	78.92599	14.64606	0
153	-8.95037	-28.47845	-19.52808	17.90074	4.06835	-24.4101	91.13104	163.54767	187.1441	122.86417	81.367	17.08707	0
154	-13.83239	-28.47845	-14.64606	20.34175	-1.62734	-21.96909	93.57205	165.98868	189.58511	122.86417	83.80801	21.96909	0
155	-18.71441	-28.47845	-9.76404	22.78276	-6.50936	-19.52808	96.01306	165.98868	192.02612	125.30518	83.80801	21.96909	0
156	-21.15542	-26.03744	-4.88202	22.78276	-8.95037	-14.64606	96.01306	165.98868	194.46713	125.30518	86.24902	24.4101	0
157	-13.83239	-21.15542	-7.32303	15.45973	-4.06835	-14.64606	98.45407	165.98868	196.90814	125.30518	86.24902	24.4101	0
158	-13.83239	-21.15542	-7.32303	15.45973	-4.06835	-14.64606	100.89508	163.54767	196.90814	125.30518	86.24902	24.4101	0
159	-16.2734	-23.59643	-7.32303	17.90074	-6.50936	-14.64606	100.89508	165.98868	204.23117	127.74619	86.24902	21.96909	0
160	-18.71441	-21.15542	-2.44101	17.90074	-8.95037	-12.20505	100.89508	170.8707	206.67218	130.1872	88.69003	21.96909	0
161	-18.71441	-21.15542	-2.44101	17.90074	-8.95037	-12.20505	100.89508	173.31171	209.11319	130.1872	88.69003	21.96909	0
162	-21.15542	-23.59643	-2.44101	20.34175	-11.39138	-12.20505	103.33609	175.75272	211.5542	130.1872	91.13104	21.96909	0
163	-23.59643	-23.59643	0	22.78276	-13.83239	-12.20505	103.33609	175.75272	211.5542	127.74619	91.13104	19.52808	0
164	-21.15542	-23.59643	-2.44101	20.34175	-11.39138	-12.20505	103.33609	175.75272	211.5542	125.30518	91.13104	19.52808	0
165	-18.71441	-26.03744	-7.32303	20.34175	-6.50936	-17.08707	100.89508	178.19373	211.5542	125.30518	91.13104	19.52808	0
166	-23.59643	-26.03744	-2.44101	22.78276	-11.39138	-14.64606	100.89508	183.07575	216.43622	125.30518	93.57205	19.52808	0
167	-21.15542	-23.59643	-2.44101	20.34175	-11.39138	-12.20505	100.89508	187.95777	216.43622	127.74619	93.57205	19.52808	0
168	-18.71441	-21.15542	-2.44101	17.90074	-8.95037	-12.20505	98.45407	187.95777	218.87723	130.1872	93.57205	19.52808	0
169	-18.71441	-21.15542	-2.44101	17.90074	-8.95037	-12.20505	96.01306	187.95777	221.31824	130.1872	93.57205	19.52808	0
170	-18.71441	-18.71441	0	17.90074	-11.39138	-9.76404	96.01306	187.95777	223.75925	132.62821	93.57205	21.96909	0
171	-13.83239	-16.2734	-2.44101	13.01872	-6.50936	-9.76404	96.01306	187.95777	223.75925	132.62821	93.57205	24.4101	0
172	-11.39138	-13.83239	-2.44101	10.57771	-6.50936	-7.32303	96.01306	187.95777	228.64127	132.62821	93.57205	24.4101	0
173	-11.39138	-13.83239	-2.44101	10.57771	-6.50936	-7.32303	96.01306	190.39878	228.64127	132.62821	96.01306	26.85111	0
174	-13.83239	-13.83239	0	13.01872	-8.95037	-7.32303	96.01306	190.39878	231.08228	132.62821	96.01306	31.73313	0
175	-13.83239	-13.83239	0	13.01872	-8.95037	-7.32303	96.01306	190.39878	231.08228	132.62821	96.01306	34.17414	0
176	-13.83239	-13.83239	0	13.01872	-8.95037	-7.32303	96.01306	187.95777	231.08228	132.62821	96.01306	36.61515	0
177	-18.71441	-13.83239	5.69569	15.45973	-13.83239	-4.88202	98.45407	192.83979	233.52329	135.06922	96.01306	39.05616	0
178	-18.71441	-13.83239	5.69569	15.45973	-13.83239	-4.88202	98.45407	192.83979	235.9643	137.51023	96.01306	41.49717	0
179	-16.2734	-11.39138	5.69569	13.01872	-11.39138	-2.44101	98.45407	195.2808	240.84632	137.51023	96.01306	43.93818	0
180	-16.2734	-8.95037	8.1367	10.57771	-13.83239	0	100.89508	197.72181	243.28733	139.95124	98.45407	48.8202	0
181	-16.2734	-8.95037	8.1367	10.57771	-13.83239	0	103.33609	200.16282	248.16935	142.39225	98.45407	51.26121	0
182	-16.2734	-6.50936	10.57771	10.57771	-13.83239	3.25468	103.33609	200.16282	248.16935	142.39225	98.45407	53.70222	0
183	-11.39138	-6.50936	5.69569	8.1367	-8.95037	0	103.33609	200.16282	248.16935	142.39225	100.89508	53.70222	0
184	-8.95037	-6.50936	3.25468	5.69569	-6.50936	-2.44101	103.33609	200.16282	245.72834	142.39225	100.89508	58.58424	0
185	-6.50936	-6.50936	0	5.69569	-4.06835	-2.44101	103.33609	200.16282	243.28733	142.39225	100.89508	61.02525	0
186	-4.06835	-6.50936	-2.44101	3.25468	-1.62734	-4.88202	103.33609	200.16282	243.28733	142.39225	100.89508	63.46626	0
187	-4.06835	-4.06835	0	3.25468	-4.06835	-2.44101	103.33609	205.04484	240.84632	144.83326	100.89508	65.90727	0
188	-4.06835	-4.06835	0	3.25468	-4.06835	-2.44101	103.33609	207.48585	240.84632	149.71528	100.89508	68.34828	0
189	-4.06835	-4.06835	0	3.25468	-4.06835	-2.44101	100.89508	209.92686	240.84632	152.15629	103.33609	70.78929	0
190	-4.06835	-1.62734	3.25468	0	-4.06835	0	103.33609	214.80888	240.84632	154.5973	105.7771	73.2303	0
191	-4.06835	-1.62734	3.25468	0	-4.06835	0	103.33609	219.6909	243.28733	157.03831	105.7771	78.11232	0
192	-6.50936	-1.62734	5.69569	3.25468	-6.50936	3.25468	105.7771	224.57292	243.28733	157.03831	108.21811	78.11232	0
193	-4.06835	1.62734	5.69569	0	-4.06835	3.25468	108.21811	229.45494	243.28733	159.47932	110.65912	80.55333	0
194	-1.62734	6.50936	8.1367	-2.44101	-4.06835	8.1367	113.10013	234.33696	243.28733	161.92033	113.10013	85.43535	0
195	-1.62734	6.50936	8.1367	-2.44101	-4.06835	8.1367	115.54114	236.77797	243.28733	164.36134	115.54114	87.87636	0
196	-4.06835	6.50936	10.57771	-2.44101	-6.50936	8.1367	117.98215	236.77797	245.72834	166.80235	115.54114	87.87636	0
197	-6.50936	4.06835	10.57771	0	-8.95037	8.1367	120.42316	239.21898	245.72834	169.24336	115.54114	87.87636	0
198	-8.95037	4.06835	13.01872	0	-11.39138	8.1367	120.42316	241.65999	248.16935	174.12538	115.54114	87.87636	0
199	-11.39138	1.62734	13.01872	3.25468	-11.39138	8.1367	120.42316	241.65999	250.61036	174.12538	115.54114	87.87636	0
200	-11.39138	6.50936	17.90074	0	-13.83239	13.01872	120.42316	244.101	255.49238	179.0074	115.54114	90.31737	0
201	-8.95037	8.95037	17.90074	0	-13.83239	13.01872	122.86417	248.98302	260.3744	181.44841	120.42316	95.19939	0
202	-11.39138	8.95037	20.34175	0	-16.2734	15.45973	120.42316	248.98302	262.81541	181.44841	120.42316	95.19939	0
203	-13.83239	6.50936	20.34175	3.25468	-16.2734	13.01872	117.98215	251.42403	270.13844	183.88942	120.42316	92.75838	0
204	-13.83239	6.50936	20.34175	3.25468	-16.2734	13.01872	117.98215	256.30605	272.57945	186.33043	122.86417	95.19939	0
205	-13.83239	6.50936	20.34175	3.25468	-16.2734	13.01872	117.98215	261.18807	279.90248	188.77144	122.86417	97.6404	0
206	-8.95037	11.39138	20.34175	-2.44101	-13.83239	15.45973	117.98215	268.5111	287.22551	191.21245	127.74619	100.08141	0
207	-8.95037	13.83239	22.78276	-2.44101	-16.2734	17.90074	117.98215	275.83413	294.54854	196.09447	130.1872	102.52242	0
208	-8.95037	11.39138	20.34175	-2.44101	-13.83239	15.45973	117.98215	280.71615	299.43056	196.09447	132.62821	102.52242	0
209	-8.95037	8.95037	17.90074	0	-13.83239	13.01872	117.98215	285.59817	304.31258	198.53548	132.62821	102.52242	0
210	-8.95037	8.95037	17.90074	0	-13.83239	13.01872	120.42316	288.03918	309.1946	200.97649	132.62821	102.52242	0
211	-8.95037	11.39138	20.34175	-2.44101	-13.83239	15.45973	120.42316	292.9212	309.1946	203.4175	135.06922	104.96343	0
212	-6.50936	13.83239	20.34175	-4.88202	-13.83239	17.90074	125.30518	297.80322	311.63561	203.4175	135.06922	107.40444	0
213	-4.06835	18.71441	22.78276	-7.32303	-13.83239	20.34175	125.30518	302.68524	314.07662	203.4175	137.51023	107.40444	0
214	-4.06835	21.15542	25.22377	-9.76404	-13.83239	22.78276	127.74619	302.68524	311.63561	203.4175	137.51023	109.84545	0
215	-4.06835	23.59643	27.66478	-9.76404	-16.2734	25.22377	130.1872	307.56726	309.1946	203.4175	137.51023	109.84545	0
216	1.62734	30.91946	30.10579	-17.08707	-13.83239	32.5468	130.1872	310.00827	309.1946	203.4175	137.51023	112.28646	0
217	1.62734	35.80148	34.98781	-19.52808	-16.2734	37.42882	130.1872	314.89029	309.1946	203.4175	135.06922	112.28646	0
218	1.62734	43.12451	42.31084	-21.96909	-21.15542	44.75185	132.62821	319.77231	311.63561	208.29952	135.06922	114.72747	0
219	-1.62734	48.00653	49.63387	-24.4101	-26.03744	49.63387	135.06922	322.21332	316.51763	208.29952	135.06922	114.72747	0
220	-1.62734	48.00653	49.63387	-24.4101	-26.03744	49.63387	135.06922	324.65433	316.51763	205.85851	135.06922	114.72747	0
221	-1.62734	50.44754	52.07488	-24.4101	-26.03744	52.07488	135.06922	327.09534	316.51763	203.4175	132.62821	114.72747	0
222	-1.62734	55.32956	56.9569	-26.85111	-28.47845	56.9569	135.06922	327.09534	316.51763	200.97649	132.62821	114.72747	0
223	-1.62734	57.77057	59.39791	-29.29212	-30.91946	59.39791	137.51023	329.53635	316.51763	200.97649	132.62821	114.72747	0
224	-1.62734	57.77057	59.39791	-29.29212	-30.91946	59.39791	137.51023	327.09534	316.51763	198.53548	127.74619	114.72747	0
225	-6.50936	57.77057	64.27993	-26.85111	-35.80148	61.83892	137.51023	327.09534	314.07662	198.53548	127.74619	114.72747	0
226	-8.95037	57.77057	66.72094	-24.4101	-38.24249	61.83892	137.51023	329.53635	314.07662	198.53548	125.30518	114.72747	0
227	-8.95037	60.21158	69.16195	-26.85111	-38.24249	64.27993	139.95124	331.97736	311.63561	198.53548	125.30518	114.72747	0
228	-8.95037	60.21158	69.16195	-26.85111	-38.24249	64.27993	139.95124	334.41837	311.63561	198.53548	122.86417	114.72747	0
229	-6.50936	65.0936	71.60296	-29.29212	-38.24249	69.16195	142.39225	334.41837	311.63561	198.53548	122.86417	114.72747	0
230	-4.06835	67.53461	71.60296	-31.73313	-38.24249	69.16195	142.39225	329.53635	311.63561	196.09447	120.42316	114.72747	0
231	-4.06835	69.97562	74.04397	-34.17414	-38.24249	71.60296	139.95124	324.65433	306.75359	193.65346	120.42316	112.28646	0
232	-1.62734	74.85764	76.48498	-36.61515	-38.24249	76.48498	137.51023	324.65433	306.75359	191.21245	120.42316	112.28646	0
233	-1.62734	79.73966	81.367	-39.05616	-40.6835	81.367	137.51023	322.21332	306.75359	191.21245	122.86417	114.72747	0
234	-1.62734	84.62168	86.24902	-41.49717	-43.12451	86.24902	132.62821	317.3313	304.31258	188.77144	120.42316	114.72747	0
235	-1.62734	84.62168	86.24902	-41.49717	-43.12451	86.24902	130.1872	314.89029	299.43056	186.33043	117.98215	112.28646	0
236	-1.62734	89.5037	91.13104	-43.93818	-45.56552	91.13104	127.74619	310.00827	296.98955	181.44841	115.54114	109.84545	0
237	-1.62734	94.38572	96.01306	-46.37919	-48.00653	96.01306	122.86417	307.56726	294.54854	179.0074	113.10013	109.84545	0
238	-4.06835	94.38572	98.45407	-46.37919	-50.44754	96.01306	117.98215	307.56726	292.10753	176.56639	108.21811	107.40444	0
239	-8.95037	99.26774	108.21811	-46.37919	-57.77057	103.33609	117.98215	310.00827	292.10753	171.68437	105.7771	104.96343	0
240	-11.39138	99.26774	110.65912	-43.93818	-60.21158	105.7771	117.98215	305.12625	284.7845	164.36134	100.89508	100.08141	0
241	-16.2734	96.82673	113.10013	-41.49717	-65.0936	105.7771	117.98215	300.24423	277.46147	154.5973	93.57205	95.19939	0
242	-16.2734	96.82673	113.10013	-41.49717	-65.0936	105.7771	120.42316	292.9212	267.69743	144.83326	86.24902	92.75838	0
243	-16.2734	96.82673	113.10013	-41.49717	-65.0936	105.7771	117.98215	283.15716	257.93339	132.62821	78.92599	87.87636	0
244	-16.2734	99.26774	115.54114	-41.49717	-65.0936	108.21811	115.54114	270.95211	245.72834	122.86417	71.60296	87.87636	0
245	-18.71441	96.82673	115.54114	-39.05616	-67.53461	105.7771	113.10013	258.74706	233.52329	110.65912	64.27993	85.43535	0
246	-21.15542	94.38572	115.54114	-36.61515	-67.53461	105.7771	108.21811	244.101	221.31824	100.89508	54.51589	82.99434	0
247	-21.15542	94.38572	115.54114	-36.61515	-67.53461	105.7771	103.33609	231.89595	209.11319	88.69003	47.19286	78.11232	0
248	-26.03744	94.38572	120.42316	-34.17414	-72.41663	108.21811	98.45407	222.13191	196.90814	81.367	37.42882	75.67131	0
249	-26.03744	94.38572	120.42316	-34.17414	-72.41663	108.21811	91.13104	207.48585	184.70309	69.16195	30.10579	70.78929	0
250	-28.47845	94.38572	122.86417	-34.17414	-74.85764	108.21811	81.367	190.39878	172.49804	56.9569	20.34175	68.34828	0
251	-33.36047	94.38572	127.74619	-31.73313	-79.73966	110.65912	78.92599	178.19373	160.29299	44.75185	13.01872	65.90727	0
252	-33.36047	94.38572	127.74619	-31.73313	-79.73966	110.65912	74.04397	161.10666	145.64693	32.5468	5.69569	63.46626	0
253	-33.36047	89.5037	122.86417	-29.29212	-77.29865	105.7771	66.72094	144.01959	133.44188	17.90074	0.81367	61.02525	0
254	-35.80148	89.5037	125.30518	-26.85111	-79.73966	108.21811	61.83892	126.93252	118.79582	4.88202	-4.88202	58.58424	0
255	-35.80148	91.94471	127.74619	-29.29212	-82.18067	110.65912	59.39791	112.28646	106.59077	-4.88202	-9.76404	58.58424	0
256	-33.36047	89.5037	122.86417	-29.29212	-77.29865	105.7771	52.07488	95.19939	91.94471	-14.64606	-17.08707	56.14323	0
257	-33.36047	84.62168	117.98215	-26.85111	-74.85764	100.89508	47.19286	82.99434	79.73966	-26.85111	-26.85111	51.26121	0
258	-28.47845	84.62168	113.10013	-29.29212	-69.97562	98.45407	42.31084	70.78929	67.53461	-34.17414	-34.17414	48.8202	0
259	-23.59643	84.62168	108.21811	-31.73313	-65.0936	96.01306	34.98781	58.58424	57.77057	-43.93818	-39.05616	43.93818	0
260	-23.59643	82.18067	105.7771	-29.29212	-65.0936	93.57205	32.5468	50.44754	48.00653	-51.26121	-46.37919	41.49717	0
261	-26.03744	79.73966	105.7771	-26.85111	-65.0936	93.57205	30.10579	40.6835	39.86983	-61.02525	-51.26121	39.05616	0
262	-26.03744	79.73966	105.7771	-26.85111	-65.0936	93.57205	27.66478	30.91946	30.10579	-70.78929	-56.14323	36.61515	0
263	-26.03744	74.85764	100.89508	-24.4101	-62.65259	88.69003	21.96909	21.15542	17.90074	-82.99434	-63.46626	29.29212	0
264	-26.03744	67.53461	93.57205	-21.96909	-60.21158	81.367	21.96909	11.39138	3.25468	-92.75838	-70.78929	24.4101	0
265	-26.03744	62.65259	88.69003	-19.52808	-57.77057	76.48498	21.96909	6.50936	-11.39138	-102.52242	-75.67131	21.96909	0
266	-23.59643	60.21158	83.80801	-19.52808	-52.88855	71.60296	19.52808	-0.81367	-23.59643	-112.28646	-82.99434	17.08707	0
267	-28.47845	52.88855	81.367	-12.20505	-55.32956	66.72094	19.52808	-5.69569	-33.36047	-117.16848	-85.43535	14.64606	0
268	-30.91946	48.00653	78.92599	-9.76404	-55.32956	64.27993	17.08707	-13.01872	-43.12451	-122.0505	-90.31737	9.76404	0
269	-38.24249	40.6835	78.92599	-2.44101	-57.77057	59.39791	17.08707	-17.90074	-50.44754	-126.93252	-95.19939	4.88202	0
270	-38.24249	33.36047	71.60296	0	-55.32956	52.07488	12.20505	-22.78276	-60.21158	-131.81454	-102.52242	-2.44101	0
271	-38.24249	28.47845	66.72094	3.25468	-52.88855	47.19286	9.76404	-27.66478	-67.53461	-136.69656	-104.96343	-4.88202	0
272	-38.24249	26.03744	64.27993	5.69569	-50.44754	44.75185	9.76404	-32.5468	-72.41663	-141.57858	-107.40444	-10.57771	0
273	-38.24249	23.59643	61.83892	5.69569	-50.44754	42.31084	7.32303	-39.86983	-77.29865	-144.01959	-107.40444	-10.57771	0
274	-38.24249	21.15542	59.39791	8.1367	-48.00653	39.86983	7.32303	-44.75185	-82.18067	-144.01959	-107.40444	-13.01872	0
275	-40.6835	18.71441	59.39791	10.57771	-50.44754	39.86983	7.32303	-47.19286	-87.06269	-146.4606	-107.40444	-13.01872	0
276	-40.6835	13.83239	54.51589	13.01872	-48.00653	34.98781	4.88202	-49.63387	-91.94471	-148.90161	-112.28646	-15.45973	0
277	-35.80148	8.95037	44.75185	13.01872	-40.6835	27.66478	2.44101	-49.63387	-96.82673	-151.34262	-114.72747	-20.34175	0
278	-33.36047	4.06835	37.42882	13.01872	-35.80148	20.34175	2.44101	-52.07488	-99.26774	-151.34262	-117.16848	-22.78276	0
279	-33.36047	1.62734	34.98781	15.45973	-33.36047	17.90074	2.44101	-52.07488	-96.82673	-146.4606	-114.72747	-22.78276	0
280	-33.36047	-1.62734	32.5468	15.45973	-33.36047	15.45973	0	-54.51589	-94.38572	-144.01959	-114.72747	-22.78276	0
281	-33.36047	-4.06835	30.10579	17.90074	-33.36047	13.01872	0	-56.9569	-94.38572	-141.57858	-114.72747	-25.22377	0
282	-33.36047	-6.50936	27.66478	17.90074	-30.91946	10.57771	2.44101	-54.51589	-91.94471	-139.13757	-112.28646	-25.22377	0
283	-33.36047	-8.95037	25.22377	20.34175	-30.91946	8.1367	2.44101	-54.51589	-89.5037	-136.69656	-109.84545	-27.66478	0
284	-33.36047	-13.83239	20.34175	22.78276	-28.47845	3.25468	2.44101	-54.51589	-89.5037	-136.69656	-107.40444	-30.10579	0
285	-33.36047	-16.2734	17.90074	22.78276	-26.03744	0	2.44101	-56.9569	-87.06269	-131.81454	-104.96343	-30.10579	0
286	-30.91946	-13.83239	17.90074	20.34175	-26.03744	3.25468	4.88202	-54.51589	-82.18067	-126.93252	-100.08141	-25.22377	0
287	-30.91946	-11.39138	20.34175	20.34175	-26.03744	5.69569	4.88202	-49.63387	-77.29865	-119.60949	-97.6404	-25.22377	0
288	-35.80148	-13.83239	22.78276	22.78276	-30.91946	5.69569	7.32303	-42.31084	-72.41663	-114.72747	-95.19939	-25.22377	0
289	-35.80148	-13.83239	22.78276	22.78276	-30.91946	5.69569	7.32303	-37.42882	-67.53461	-107.40444	-90.31737	-22.78276	0
290	-33.36047	-11.39138	22.78276	20.34175	-28.47845	5.69569	7.32303	-34.98781	-60.21158	-100.08141	-87.87636	-17.90074	0
291	-33.36047	-11.39138	22.78276	20.34175	-28.47845	5.69569	9.76404	-32.5468	-57.77057	-95.19939	-82.99434	-15.45973	0
292	-30.91946	-13.83239	17.90074	20.34175	-26.03744	3.25468	9.76404	-32.5468	-57.77057	-95.19939	-82.99434	-13.01872	1500	QRS+0
293	-26.03744	-11.39138	15.45973	17.90074	-21.15542	3.25468	12.20505	-32.5468	-52.88855	-92.75838	-78.11232	-10.57771	0
294	-26.03744	-13.83239	13.01872	17.90074	-21.15542	0	12.20505	-32.5468	-52.88855	-90.31737	-75.67131	-4.88202	0
295	-26.03744	-18.71441	8.1367	20.34175	-18.71441	-4.88202	12.20505	-34.98781	-55.32956	-87.87636	-73.2303	-2.44101	0
296	-26.03744	-18.71441	8.1367	20.34175	-18.71441	-4.88202	14.64606	-37.42882	-55.32956	-85.43535	-70.78929	4.88202	0
297	-21.15542	-18.71441	3.25468	17.90074	-13.83239	-7.32303	14.64606	-34.98781	-55.32956	-82.99434	-68.34828	4.88202	0
298	-21.15542	-21.15542	0	20.34175	-11.39138	-9.76404	14.64606	-32.5468	-55.32956	-80.55333	-68.34828	4.88202	0
299	-23.59643	-21.15542	3.25468	20.34175	-13.83239	-9.76404	14.64606	-30.10579	-52.88855	-75.67131	-68.34828	4.88202	0
300	-26.03744	-21.15542	5.69569	22.78276	-16.2734	-7.32303	14.64606	-27.66478	-50.44754	-73.2303	-63.46626	2.44101	0
301	-33.36047	-21.15542	13.01872	25.22377	-23.59643	-4.88202	17.08707	-25.22377	-48.00653	-68.34828	-58.58424	4.88202	0
302	-33.36047	-23.59643	10.57771	27.66478	-23.59643	-7.32303	17.08707	-20.34175	-45.56552	-65.90727	-56.14323	0	0
303	-35.80148	-23.59643	13.01872	27.66478	-26.03744	-4.88202	19.52808	-20.34175	-45.56552	-63.46626	-53.70222	0	0
304	-38.24249	-26.03744	13.01872	30.10579	-26.03744	-7.32303	19.52808	-17.90074	-45.56552	-63.46626	-51.26121	-2.44101	0
305	-38.24249	-28.47845	10.57771	32.5468	-26.03744	-9.76404	19.52808	-17.90074	-48.00653	-61.02525	-48.8202	-2.44101	0
306	-38.24249	-28.47845	10.57771	32.5468	-26.03744	-9.76404	19.52808	-15.45973	-50.44754	-58.58424	-46.37919	-2.44101	0
307	-35.80148	-28.47845	8.1367	30.10579	-23.59643	-9.76404	21.96909	-10.57771	-50.44754	-56.14323	-43.93818	-2.44101	0
308	-33.36047	-30.91946	3.25468	30.10579	-18.71441	-14.64606	21.96909	-8.1367	-50.44754	-53.70222	-43.93818	-4.88202	0
309	-33.36047	-30.91946	3.25468	30.10579	-18.71441	-14.64606	21.96909	-8.1367	-50.44754	-51.26121	-46.37919	-7.32303	0
310	-33.36047	-30.91946	3.25468	30.10579	-18.71441	-14.64606	21.96909	-5.69569	-50.44754	-48.8202	-43.93818	-7.32303	0
311	-30.91946	-28.47845	3.25468	27.66478	-18.71441	-12.20505	21.96909	-5.69569	-48.00653	-46.37919	-43.93818	-7.32303	0
312	-28.47845	-28.47845	0	27.66478	-16.2734	-14.64606	21.96909	-5.69569	-48.00653	-46.37919	-41.49717	-10.57771	0
313	-21.15542	-28.47845	-7.32303	22.78276	-8.95037	-17.08707	21.96909	-3.25468	-48.00653	-46.37919	-41.49717	-10.57771	0
314	-21.15542	-28.47845	-7.32303	22.78276	-8.95037	-17.08707	25.22377	-3.25468	-48.00653	-46.37919	-39.05616	-10.57771	0
315	-26.03744	-28.47845	-2.44101	25.22377	-13.83239	-14.64606	30.10579	-3.25468	-48.00653	-43.93818	-36.61515	-10.57771	0
316	-28.47845	-30.91946	-2.44101	27.66478	-13.83239	-17.08707	30.10579	-3.25468	-50.44754	-43.93818	-36.61515	-10.57771	0
317	-28.47845	-28.47845	0	27.66478	-16.2734	-14.64606	34.98781	-3.25468	-45.56552	-41.49717	-34.17414	-10.57771	0
318	-28.47845	-28.47845	0	27.66478	-16.2734	-14.64606	34.98781	-0.81367	-45.56552	-39.05616	-34.17414	-13.01872	0
319	-30.91946	-28.47845	3.25468	27.66478	-18.71441	-12.20505	34.98781	6.50936	-40.6835	-36.61515	-31.73313	-13.01872	0
320	-30.91946	-28.47845	3.25468	27.66478	-18.71441	-12.20505	37.42882	8.95037	-35.80148	-34.17414	-29.29212	-13.01872	0
321	-33.36047	-28.47845	5.69569	30.10579	-21.15542	-12.20505	37.42882	8.95037	-33.36047	-34.17414	-29.29212	-13.01872	0
322	-38.24249	-30.91946	8.1367	32.5468	-23.59643	-12.20505	37.42882	8.95037	-33.36047	-34.17414	-29.29212	-15.45973	0
323	-35.80148	-30.91946	5.69569	32.5468	-21.15542	-12.20505	37.42882	8.95037	-30.91946	-34.17414	-26.85111	-17.90074	0
324	-33.36047	-28.47845	5.69569	30.10579	-21.15542	-12.20505	37.42882	8.95037	-30.91946	-34.17414	-26.85111	-17.90074	0
325	-33.36047	-30.91946	3.25468	30.10579	-18.71441	-14.64606	34.98781	8.95037	-30.91946	-36.61515	-24.4101	-17.90074	0
326	-35.80148	-33.36047	3.25468	32.5468	-21.15542	-14.64606	34.98781	6.50936	-33.36047	-36.61515	-26.85111	-17.90074	0
327	-38.24249	-33.36047	5.69569	34.98781	-23.59643	-14.64606	32.5468	4.06835	-33.36047	-36.61515	-29.29212	-17.90074	0
328	-30.91946	-33.36047	-2.44101	30.10579	-16.2734	-17.08707	30.10579	-0.81367	-33.36047	-36.61515	-31.73313	-17.90074	0
329	-30.91946	-33.36047	-2.44101	30.10579	-16.2734	-17.08707	27.66478	-0.81367	-28.47845	-36.61515	-34.17414	-17.90074	0
330	-28.47845	-30.91946	-2.44101	27.66478	-13.83239	-17.08707	25.22377	-3.25468	-26.03744	-34.17414	-34.17414	-20.34175	0
331	-26.03744	-30.91946	-4.88202	27.66478	-11.39138	-17.08707	21.96909	-5.69569	-23.59643	-34.17414	-34.17414	-20.34175	0
332	-26.03744	-28.47845	-2.44101	25.22377	-13.83239	-14.64606	21.96909	-5.69569	-23.59643	-34.17414	-34.17414	-20.34175	0
333	-26.03744	-28.47845	-2.44101	25.22377	-13.83239	-14.64606	21.96909	-8.1367	-21.15542	-39.05616	-34.17414	-22.78276	0
334	-26.03744	-28.47845	-2.44101	25.22377	-13.83239	-14.64606	21.96909	-10.57771	-21.15542	-39.05616	-34.17414	-20.34175	0
335	-23.59643	-26.03744	-2.44101	22.78276	-11.39138	-14.64606	21.96909	-10.57771	-18.71441	-39.05616	-31.73313	-20.34175	0
336	-26.03744	-26.03744	0	25.22377	-13.83239	-12.20505	21.96909	-10.57771	-18.71441	-39.05616	-31.73313	-20.34175	0
337	-30.91946	-28.47845	3.25468	27.66478	-18.71441	-12.20505	21.96909	-8.1367	-21.15542	-41.49717	-34.17414	-20.34175	0
338	-33.36047	-30.91946	3.25468	30.10579	-18.71441	-14.64606	21.96909	-3.25468	-18.71441	-41.49717	-34.17414	-22.78276	0
339	-30.91946	-28.47845	3.25468	27.66478	-18.71441	-12.20505	21.96909	-0.81367	-16.2734	-41.49717	-36.61515	-22.78276	0
340	-28.47845	-28.47845	0	27.66478	-16.2734	-14.64606	21.96909	-0.81367	-16.2734	-41.49717	-36.61515	-22.78276	0
341	-30.91946	-26.03744	5.69569	27.66478	-18.71441	-9.76404	25.22377	-0.81367	-13.83239	-41.49717	-36.61515	-22.78276	0
342	-30.91946	-26.03744	5.69569	27.66478	-18.71441	-9.76404	25.22377	-3.25468	-13.83239	-41.49717	-36.61515	-22.78276	0
343	-30.91946	-26.03744	5.69569	27.66478	-18.71441	-9.76404	25.22377	-5.69569	-16.2734	-46.37919	-36.61515	-25.22377	0
344	-26.03744	-26.03744	0	25.22377	-13.83239	-12.20505	21.96909	-10.57771	-18.71441	-48.8202	-39.05616	-25.22377	0
345	-21.15542	-26.03744	-4.88202	22.78276	-8.95037	-14.64606	21.96909	-15.45973	-21.15542	-51.26121	-39.05616	-22.78276	0
346	-21.15542	-28.47845	-7.32303	22.78276	-8.95037	-17.08707	21.96909	-17.90074	-23.59643	-51.26121	-39.05616	-17.90074	0
347	-23.59643	-28.47845	-4.88202	25.22377	-11.39138	-17.08707	21.96909	-17.90074	-23.59643	-48.8202	-39.05616	-15.45973	0
348	-26.03744	-28.47845	-2.44101	25.22377	-13.83239	-14.64606	19.52808	-17.90074	-23.59643	-46.37919	-39.05616	-15.45973	0
349	-23.59643	-28.47845	-4.88202	25.22377	-11.39138	-17.08707	14.64606	-17.90074	-23.59643	-48.8202	-41.49717	-15.45973	0
350	-16.2734	-28.47845	-12.20505	20.34175	-4.06835	-19.52808	9.76404	-17.90074	-23.59643	-48.8202	-43.93818	-15.45973	0
351	-13.83239	-26.03744	-12.20505	17.90074	-1.62734	-19.52808	9.76404	-17.90074	-23.59643	-48.8202	-43.93818	-13.01872	0
352	-21.15542	-26.03744	-4.88202	22.78276	-8.95037	-14.64606	12.20505	-17.90074	-21.15542	-48.8202	-41.49717	-10.57771	0
353	-21.15542	-23.59643	-2.44101	20.34175	-11.39138	-12.20505	17.08707	-15.45973	-16.2734	-46.37919	-36.61515	-10.57771	0
354	-23.59643	-21.15542	3.25468	20.34175	-13.83239	-9.76404	17.08707	-15.45973	-16.2734	-48.8202	-36.61515	-7.32303	0
355	-16.2734	-21.15542	-4.88202	17.90074	-6.50936	-12.20505	14.64606	-20.34175	-18.71441	-53.70222	-36.61515	-10.57771	0
356	-18.71441	-23.59643	-4.88202	20.34175	-8.95037	-14.64606	14.64606	-20.34175	-18.71441	-53.70222	-36.61515	-7.32303	0
357	-23.59643	-23.59643	0	22.78276	-13.83239	-12.20505	17.08707	-17.90074	-18.71441	-53.70222	-34.17414	-4.88202	0
358	-18.71441	-23.59643	-4.88202	20.34175	-8.95037	-14.64606	17.08707	-20.34175	-18.71441	-53.70222	-34.17414	-4.88202	0
359	-16.2734	-26.03744	-9.76404	20.34175	-4.06835	-17.08707	17.08707	-17.90074	-16.2734	-51.26121	-36.61515	-10.57771	0
360	-11.39138	-26.03744	-14.64606	17.90074	1.62734	-19.52808	12.20505	-15.45973	-16.2734	-51.26121	-39.05616	-13.01872	0
361	-8.95037	-28.47845	-19.52808	17.90074	4.06835	-24.4101	7.32303	-15.45973	-16.2734	-53.70222	-43.93818	-15.45973	0
362	-8.95037	-26.03744	-17.08707	15.45973	4.06835	-21.96909	7.32303	-15.45973	-18.71441	-53.70222	-43.93818	-17.90074	0
363	-13.83239	-26.03744	-12.20505	17.90074	-1.62734	-19.52808	7.32303	-15.45973	-18.71441	-53.70222	-43.93818	-17.90074	0
364	-13.83239	-26.03744	-12.20505	17.90074	-1.62734	-19.52808	7.32303	-20.34175	-18.71441	-53.70222	-43.93818	-20.34175	0
365	-8.95037	-26.03744	-17.08707	15.45973	4.06835	-21.96909	2.44101	-22.78276	-23.59643	-56.14323	-46.37919	-22.78276	0
366	-13.83239	-26.03744	-12.20505	17.90074	-1.62734	-19.52808	2.44101	-20.34175	-23.59643	-56.14323	-46.37919	-22.78276	0
367	-21.15542	-28.47845	-7.32303	22.78276	-8.95037	-17.08707	2.44101	-20.34175	-23.59643	-56.14323	-43.93818	-22.78276	0
368	-21.15542	-26.03744	-4.88202	22.78276	-8.95037	-14.64606	2.44101	-20.34175	-26.03744	-56.14323	-43.93818	-22.78276	0
369	-21.15542	-23.59643	-2.44101	20.34175	-11.39138	-12.20505	2.44101	-20.34175	-26.03744	-51.26121	-43.93818	-20.34175	0
370	-23.59643	-26.03744	-2.44101	22.78276	-11.39138	-14.64606	0	-22.78276	-26.03744	-48.8202	-43.93818	-20.34175	0
371	-23.59643	-28.47845	-4.88202	25.22377	-11.39138	-17.08707	-2.44101	-27.66478	-26.03744	-48.8202	-43.93818	-20.34175	0
372	-21.15542	-28.47845	-7.32303	22.78276	-8.95037	-17.08707	-4.88202	-27.66478	-26.03744	-48.8202	-43.93818	-20.34175	0
373	-21.15542	-28.47845	-7.32303	22.78276	-8.95037	-17.08707	-4.88202	-27.66478	-26.03744	-46.37919	-41.49717	-20.34175	0
374	-21.15542	-28.47845	-7.32303	22.78276	-8.95037	-17.08707	-4.88202	-25.22377	-26.03744	-46.37919	-41.49717	-20.34175	0
375	-21.15542	-28.47845	-7.32303	22.78276	-8.95037	-17.08707	-4.88202	-27.66478	-26.03744	-46.37919	-41.49717	-20.34175	0
376	-21.15542	-30.91946	-9.76404	25.22377	-6.50936	-19.52808	-4.88202	-27.66478	-28.47845	-43.93818	-41.49717	-17.90074	0
377	-21.15542	-30.91946	-9.76404	25.22377	-6.50936	-19.52808	-4.88202	-27.66478	-26.03744	-41.49717	-39.05616	-17.90074	0
378	-23.59643	-30.91946	-7.32303	25.22377	-8.95037	-19.52808	-4.88202	-22.78276	-26.03744	-41.49717	-39.05616	-17.90074	0
379	-23.59643	-26.03744	-2.44101	22.78276	-11.39138	-14.64606	-2.44101	-17.90074	-23.59643	-36.61515	-36.61515	-17.90074	0
380	-18.71441	-21.15542	-2.44101	17.90074	-8.95037	-12.20505	2.44101	-13.01872	-18.71441	-31.73313	-34.17414	-17.90074	0
381	-18.71441	-16.2734	3.25468	15.45973	-11.39138	-7.32303	4.88202	-10.57771	-18.71441	-29.29212	-31.73313	-15.45973	0
382	-21.15542	-16.2734	5.69569	17.90074	-13.83239	-4.88202	4.88202	-10.57771	-16.2734	-26.85111	-29.29212	-15.45973	0
383	-16.2734	-11.39138	5.69569	13.01872	-11.39138	-2.44101	7.32303	-10.57771	-13.83239	-24.4101	-26.85111	-15.45973	0
384	-13.83239	-6.50936	8.1367	8.1367	-11.39138	0	7.32303	-8.1367	-13.83239	-21.96909	-24.4101	-15.45973	-1500	QRS-0
385	-13.83239	-4.06835	10.57771	8.1367	-13.83239	3.25468	9.76404	-8.1367	-11.39138	-19.52808	-21.96909	-15.45973	0
386	-13.83239	-1.62734	13.01872	5.69569	-13.83239	5.69569	9.76404	-5.69569	-11.39138	-19.52808	-19.52808	-15.45973	0
387	-8.95037	1.62734	10.57771	3.25468	-8.95037	5.69569	7.32303	-3.25468	-8.95037	-17.08707	-19.52808	-15.45973	0
388	-8.95037	4.06835	13.01872	0	-11.39138	8.1367	4.88202	-0.81367	-8.95037	-14.64606	-19.52808	-17.90074	0
389	-16.2734	4.06835	20.34175	5.69569	-18.71441	13.01872	4.88202	1.62734	-8.95037	-12.20505	-19.52808	-20.34175	0
390	-11.39138	4.06835	15.45973	3.25468	-13.83239	10.57771	2.44101	-0.81367	-8.95037	-9.76404	-21.96909	-25.22377	0
391	-6.50936	11.39138	17.90074	-2.44101	-11.39138	15.45973	2.44101	-0.81367	-8.95037	-7.32303	-21.96909	-25.22377	0
392	-11.39138	13.83239	25.22377	-2.44101	-18.71441	20.34175	2.44101	-0.81367	-8.95037	-4.88202	-19.52808	-25.22377	0
393	-11.39138	18.71441	30.10579	-4.88202	-21.15542	25.22377	4.88202	4.06835	-6.50936	0	-17.08707	-25.22377	0
394	-8.95037	23.59643	32.5468	-7.32303	-21.15542	27.66478	7.32303	6.50936	-4.06835	2.44101	-12.20505	-25.22377	0
395	-11.39138	28.47845	39.86983	-9.76404	-26.03744	34.98781	9.76404	6.50936	-1.62734	4.88202	-7.32303	-20.34175	0
396	-11.39138	30.91946	42.31084	-9.76404	-26.03744	37.42882	9.76404	6.50936	-1.62734	10.57771	-7.32303	-17.90074	0
397	-8.95037	33.36047	42.31084	-12.20505	-26.03744	37.42882	9.76404	6.50936	-1.62734	13.01872	-4.88202	-15.45973	0
398	-6.50936	38.24249	44.75185	-17.08707	-26.03744	42.31084	9.76404	8.95037	3.25468	15.45973	-2.44101	-13.01872	0
399	-6.50936	40.6835	47.19286	-17.08707	-26.03744	44.75185	7.32303	13.83239	5.69569	20.34175	0.81367	-10.57771	0
400	-6.50936	40.6835	47.19286	-17.08707	-26.03744	44.75185	4.88202	18.71441	10.57771	25.22377	5.69569	-10.57771	0
401	-4.06835	40.6835	44.75185	-19.52808	-23.59643	42.31084	2.44101	18.71441	13.01872	27.66478	8.1367	-10.57771	0
402	-1.62734	35.80148	37.42882	-17.08707	-18.71441	37.42882	-4.88202	13.83239	13.01872	27.66478	8.1367	-10.57771	0
403	1.62734	33.36047	32.5468	-17.08707	-16.2734	34.98781	-12.20505	8.95037	8.1367	25.22377	8.1367	-10.57771	0
404	1.62734	28.47845	27.66478	-14.64606	-13.83239	30.10579	-17.08707	4.06835	5.69569	25.22377	5.69569	-13.01872	0
405	-1.62734	23.59643	25.22377	-12.20505	-13.83239	25.22377	-21.96909	-0.81367	3.25468	22.78276	5.69569	-13.01872	0
406	1.62734	18.71441	17.90074	-9.76404	-8.95037	20.34175	-29.29212	-8.1367	-4.06835	20.34175	3.25468	-15.45973	0
407	-1.62734	13.83239	15.45973	-7.32303	-8.95037	15.45973	-34.17414	-13.01872	-8.95037	15.45973	0.81367	-20.34175	0
408	-1.62734	13.83239	15.45973	-7.32303	-8.95037	15.45973	-41.49717	-17.90074	-13.83239	13.01872	-2.44101	-22.78276	0
409	-1.62734	11.39138	13.01872	-4.88202	-6.50936	13.01872	-46.37919	-22.78276	-23.59643	8.1367	-7.32303	-27.66478	0
410	-1.62734	11.39138	13.01872	-4.88202	-6.50936	13.01872	-48.8202	-27.66478	-23.59643	8.1367	-7.32303	-30.10579	0
411	-1.62734	13.83239	15.45973	-7.32303	-8.95037	15.45973	-51.26121	-30.10579	-26.03744	4.88202	-7.32303	-30.10579	0
412	1.62734	13.83239	13.01872	-7.32303	-6.50936	15.45973	-51.26121	-34.98781	-28.47845	4.88202	-7.32303	-30.10579	0
413	8.95037	13.83239	5.69569	-12.20505	1.62734	10.57771	-53.70222	-37.42882	-30.91946	4.88202	-7.32303	-30.10579	0
414	18.71441	16.2734	-2.44101	-17.08707	11.39138	8.1367	-56.14323	-39.86983	-30.91946	4.88202	-7.32303	-30.10579	0
415	26.03744	18.71441	-7.32303	-21.96909	16.2734	8.1367	-53.70222	-39.86983	-30.91946	4.88202	-4.88202	-30.10579	0
416	28.47845	16.2734	-12.20505	-21.96909	21.15542	3.25468	-51.26121	-37.42882	-30.91946	4.88202	-2.44101	-25.22377	0
417	23.59643	11.39138	-12.20505	-17.08707	18.71441	0	-46.37919	-32.5468	-26.03744	8.1367	-2.44101	-22.78276	0
418	23.59643	11.39138	-12.20505	-17.08707	18.71441	0	-43.93818	-30.10579	-23.59643	10.57771	0.81367	-22.78276	0
419	21.15542	6.50936	-14.64606	-14.64606	18.71441	-2.44101	-41.49717	-25.22377	-23.59643	13.01872	0.81367	-22.78276	0
420	18.71441	4.06835	-14.64606	-12.20505	16.2734	-4.88202	-41.49717	-25.22377	-21.15542	13.01872	0.81367	-27.66478	0
421	18.71441	6.50936	-12.20505	-12.20505	16.2734	-2.44101	-36.61515	-20.34175	-21.15542	15.45973	0.81367	-27.66478	0
422	8.95037	4.06835	-4.88202	-7.32303	6.50936	0	-31.73313	-17.90074	-18.71441	17.90074	0.81367	-30.10579	0
423	1.62734	-1.62734	-2.44101	0	1.62734	0	-29.29212	-17.90074	-18.71441	17.90074	0.81367	-34.98781	0
424	-1.62734	-6.50936	-4.88202	3.25468	1.62734	-4.88202	-24.4101	-15.45973	-18.71441	17.90074	0.81367	-39.86983	0
425	1.62734	-6.50936	-7.32303	0	4.06835	-4.88202	-21.96909	-13.01872	-16.2734	17.90074	0.81367	-42.31084	0
426	1.62734	-11.39138	-12.20505	3.25468	6.50936	-9.76404	-19.52808	-13.01872	-21.15542	17.90074	-2.44101	-44.75185	0
427	1.62734	-18.71441	-19.52808	8.1367	8.95037	-17.08707	-19.52808	-13.01872	-26.03744	13.01872	-7.32303	-52.07488	0
428	1.62734	-26.03744	-26.85111	10.57771	13.83239	-24.4101	-19.52808	-13.01872	-28.47845	8.1367	-12.20505	-59.39791	0
429	-1.62734	-30.91946	-29.29212	15.45973	13.83239	-29.29212	-17.08707	-10.57771	-30.91946	8.1367	-14.64606	-64.27993	0
430	-6.50936	-38.24249	-31.73313	20.34175	11.39138	-34.17414	-14.64606	-10.57771	-30.91946	8.1367	-17.08707	-66.72094	0
431	-11.39138	-43.12451	-31.73313	25.22377	8.95037	-36.61515	-12.20505	-10.57771	-30.91946	4.88202	-19.52808	-71.60296	0
432	-13.83239	-45.56552	-31.73313	27.66478	8.95037	-39.05616	-12.20505	-10.57771	-30.91946	4.88202	-19.52808	-74.04397	0
433	-16.2734	-50.44754	-34.17414	32.5468	8.95037	-41.49717	-12.20505	-10.57771	-35.80148	2.44101	-24.4101	-78.92599	0
434	-16.2734	-52.88855	-36.61515	32.5468	8.95037	-43.93818	-12.20505	-15.45973	-38.24249	-4.88202	-29.29212	-86.24902	0
435	-8.95037	-50.44754	-41.49717	27.66478	16.2734	-46.37919	-9.76404	-15.45973	-38.24249	-7.32303	-29.29212	-88.69003	0
436	-11.39138	-50.44754	-39.05616	30.10579	13.83239	-43.93818	-9.76404	-15.45973	-38.24249	-7.32303	-29.29212	-88.69003	0
437	-13.83239	-52.88855	-39.05616	32.5468	11.39138	-46.37919	-7.32303	-15.45973	-40.6835	-7.32303	-29.29212	-91.13104	0
438	-13.83239	-52.88855	-39.05616	32.5468	11.39138	-46.37919	-7.32303	-15.45973	-40.6835	-7.32303	-31.73313	-93.57205	0
439	-8.95037	-55.32956	-46.37919	30.10579	18.71441	-51.26121	-7.32303	-10.57771	-40.6835	-9.76404	-34.17414	-96.01306	0
440	-1.62734	-55.32956	-53.70222	27.66478	26.03744	-53.70222	-7.32303	-10.57771	-40.6835	-9.76404	-34.17414	-98.45407	0
441	-6.50936	-55.32956	-48.8202	30.10579	21.15542	-51.26121	-7.32303	-8.1367	-38.24249	-7.32303	-34.17414	-96.01306	0
442	-11.39138	-55.32956	-43.93818	32.5468	16.2734	-48.8202	-4.88202	-8.1367	-35.80148	-7.32303	-31.73313	-96.01306	0
443	-18.71441	-57.77057	-39.05616	37.42882	8.95037	-48.8202	-2.44101	-8.1367	-35.80148	-4.88202	-31.73313	-96.01306	0
444	-21.15542	-60.21158	-39.05616	39.86983	8.95037	-48.8202	0	-8.1367	-35.80148	-7.32303	-31.73313	-96.01306	0
445	-21.15542	-57.77057	-36.61515	37.42882	6.50936	-46.37919	2.44101	-8.1367	-35.80148	-4.88202	-29.29212	-96.01306	0
446	-28.47845	-57.77057	-29.29212	42.31084	-1.62734	-43.93818	4.88202	-8.1367	-33.36047	-2.44101	-26.85111	-91.13104	0
447	-28.47845	-57.77057	-29.29212	42.31084	-1.62734	-43.93818	4.88202	-8.1367	-33.36047	-2.44101	-26.85111	-91.13104	0
448	-28.47845	-57.77057	-29.29212	42.31084	-1.62734	-43.93818	7.32303	-5.69569	-33.36047	-4.88202	-26.85111	-91.13104	0
449	-28.47845	-57.77057	-29.29212	42.31084	-1.62734	-43.93818	9.76404	-3.25468	-33.36047	-4.88202	-26.85111	-91.13104	0
450	-30.91946	-57.77057	-26.85111	42.31084	-4.06835	-41.49717	12.20505	-0.81367	-30.91946	-2.44101	-26.85111	-93.57205	0
451	-30.91946	-57.77057	-26.85111	42.31084	-4.06835	-41.49717	14.64606	-0.81367	-26.03744	-2.44101	-26.85111	-93.57205	0
452	-30.91946	-57.77057	-26.85111	42.31084	-4.06835	-41.49717	14.64606	-0.81367	-26.03744	0	-24.4101	-91.13104	0
453	-30.91946	-57.77057	-26.85111	42.31084	-4.06835	-41.49717	17.08707	-0.81367	-26.03744	0	-24.4101	-91.13104	0
454	-26.03744	-57.77057	-31.73313	39.86983	1.62734	-43.93818	14.64606	-3.25468	-26.03744	-2.44101	-24.4101	-93.57205	0
455	-21.15542	-55.32956	-34.17414	37.42882	6.50936	-43.93818	14.64606	-3.25468	-23.59643	-2.44101	-21.96909	-93.57205	0
456	-21.15542	-52.88855	-31.73313	34.98781	4.06835	-41.49717	14.64606	-3.25468	-21.15542	2.44101	-19.52808	-91.13104	0
457	-26.03744	-55.32956	-29.29212	39.86983	1.62734	-41.49717	12.20505	-3.25468	-21.15542	2.44101	-19.52808	-91.13104	0
458	-26.03744	-55.32956	-29.29212	39.86983	1.62734	-41.49717	12.20505	-3.25468	-18.71441	2.44101	-19.52808	-91.13104	0
459	-23.59643	-52.88855	-29.29212	37.42882	1.62734	-41.49717	9.76404	-0.81367	-18.71441	4.88202	-19.52808	-91.13104	0
460	-21.15542	-52.88855	-31.73313	34.98781	4.06835	-41.49717	7.32303	1.62734	-18.71441	4.88202	-21.96909	-93.57205	0
461	-21.15542	-55.32956	-34.17414	37.42882	6.50936	-43.93818	4.88202	6.50936	-16.2734	4.88202	-21.96909	-93.57205	0
462	-21.15542	-55.32956	-34.17414	37.42882	6.50936	-43.93818	4.88202	8.95037	-13.83239	4.88202	-21.96909	-93.57205	0
463	-21.15542	-55.32956	-34.17414	37.42882	6.50936	-43.93818	4.88202	8.95037	-13.83239	8.1367	-21.96909	-91.13104	0
464	-23.59643	-57.77057	-34.17414	39.86983	4.06835	-46.37919	4.88202	11.39138	-13.83239	4.88202	-21.96909	-91.13104	0
465	-23.59643	-57.77057	-34.17414	39.86983	4.06835	-46.37919	7.32303	11.39138	-13.83239	4.88202	-19.52808	-91.13104	0
466	-21.15542	-55.32956	-34.17414	37.42882	6.50936	-43.93818	7.32303	11.39138	-13.83239	8.1367	-19.52808	-86.24902	0
467	-18.71441	-55.32956	-36.61515	34.98781	8.95037	-46.37919	7.32303	13.83239	-11.39138	8.1367	-17.08707	-86.24902	0
468	-21.15542	-57.77057	-36.61515	37.42882	6.50936	-46.37919	7.32303	16.2734	-8.95037	8.1367	-17.08707	-86.24902	0
469	-21.15542	-57.77057	-36.61515	37.42882	6.50936	-46.37919	9.76404	21.15542	-8.95037	10.57771	-17.08707	-86.24902	0
470	-18.71441	-52.88855	-34.17414	34.98781	6.50936	-43.93818	12.20505	26.03744	-4.06835	15.45973	-14.64606	-86.24902	0
471	-18.71441	-52.88855	-34.17414	34.98781	6.50936	-43.93818	12.20505	26.03744	-4.06835	15.45973	-14.64606	-83.80801	0
472	-18.71441	-48.00653	-29.29212	32.5468	4.06835	-39.05616	14.64606	26.03744	-1.62734	17.90074	-12.20505	-81.367	0
473	-23.59643	-48.00653	-24.4101	34.98781	-1.62734	-36.61515	17.08707	23.59643	0.81367	17.90074	-9.76404	-81.367	0
474	-28.47845	-48.00653	-19.52808	37.42882	-6.50936	-34.17414	21.96909	26.03744	3.25468	20.34175	-9.76404	-81.367	0
475	-30.91946	-48.00653	-17.08707	37.42882	-8.95037	-31.73313	25.22377	28.47845	8.1367	20.34175	-7.32303	-81.367	0
476	-26.03744	-48.00653	-21.96909	34.98781	-4.06835	-34.17414	30.10579	33.36047	10.57771	17.90074	-12.20505	-83.80801	0
477	-26.03744	-48.00653	-21.96909	34.98781	-4.06835	-34.17414	34.98781	38.24249	13.01872	15.45973	-19.52808	-93.57205	0
478	-30.91946	-52.88855	-21.96909	39.86983	-6.50936	-36.61515	42.31084	45.56552	17.90074	8.1367	-29.29212	-105.7771	0
479	-30.91946	-57.77057	-26.85111	42.31084	-4.06835	-41.49717	49.63387	56.14323	20.34175	2.44101	-39.05616	-117.98215	0
480	-30.91946	-65.0936	-34.17414	47.19286	1.62734	-48.8202	56.9569	68.34828	25.22377	-4.88202	-51.26121	-127.74619	0
481	-30.91946	-69.97562	-39.05616	49.63387	4.06835	-53.70222	59.39791	102.52242	25.22377	-14.64606	-63.46626	-139.95124	0
482	-23.59643	-72.41663	-48.8202	47.19286	11.39138	-61.02525	83.80801	109.84545	42.31084	-24.4101	-70.78929	-176.56639	0
483	-11.39138	-79.73966	-68.34828	44.75185	28.47845	-73.2303	78.92599	114.72747	34.98781	-34.17414	-80.55333	-183.88942	0
484	-13.83239	-87.06269	-73.2303	49.63387	28.47845	-80.55333	71.60296	85.43535	15.45973	-43.93818	-82.99434	-179.0074	0
485	-11.39138	-82.18067	-70.78929	44.75185	28.47845	-75.67131	69.16195	68.34828	-13.83239	-48.8202	-78.11232	-152.15629	0
486	-13.83239	-101.70875	-87.87636	56.9569	35.80148	-95.19939	59.39791	56.14323	-8.95037	-53.70222	-73.2303	-125.30518	0
487	60.21158	-99.26774	-158.66565	17.90074	109.03178	-126.93252	42.31084	48.00653	-23.59643	-56.14323	-73.2303	-125.30518	0
488	55.32956	-118.79582	-173.31171	30.10579	113.9138	-144.01959	27.66478	21.15542	-30.91946	-61.02525	-56.14323	-93.57205	0
489	55.32956	-165.17501	-219.6909	54.51589	135.88289	-190.39878	-34.17414	-34.98781	-69.97562	-68.34828	-43.93818	-56.9569	0
490	82.18067	-167.61602	-248.98302	42.31084	165.17501	-207.48585	-95.19939	-105.7771	-111.47279	-78.11232	-7.32303	-2.44101	0
491	157.85198	-121.23683	-278.27514	-19.52808	216.43622	-197.72181	-173.31171	-244.91467	-192.02612	-92.75838	34.98781	51.26121	0
492	206.67218	-111.47279	-317.3313	-48.8202	260.3744	-212.36787	-275.83413	-420.66739	-343.36874	-104.96343	59.39791	104.96343	0
493	243.28733	-109.03178	-351.50544	-68.34828	296.98955	-229.45494	-393.00261	-623.27122	-499.59338	-139.13757	96.01306	156.22464	0
494	304.31258	-60.21158	-363.71049	-122.0505	333.6047	-209.92686	-512.6121	-820.99303	-628.96691	-158.66565	115.54114	234.33696	0
495	360.45581	13.83239	-346.62342	-187.95777	353.13278	-165.98868	-627.33957	-989.42272	-746.13539	-163.54767	181.44841	341.7414	0
496	384.86591	72.41663	-312.44928	-229.45494	348.25076	-119.60949	-720.09795	-1143.20635	-875.50892	-192.83979	210.74053	414.9717	0
497	458.09621	167.61602	-290.48019	-312.44928	375.10187	-61.02525	-827.50239	-1270.13887	-970.70831	-205.04484	262.00174	505.28907	0
498	492.27035	253.05137	-239.21898	-373.47453	365.33783	8.1367	-939.78885	-1397.07139	-1070.78972	-205.04484	325.468	615.13452	0
499	533.76752	338.48672	-195.2808	-436.94079	365.33783	74.04397	-1010.57814	-1487.38876	-1170.87113	-207.48585	374.2882	727.42098	0
500	563.05964	336.04571	-227.01393	-449.14584	394.62995	56.9569	-1017.90117	-1497.1528	-1190.39921	-205.04484	381.61123	732.303	0
501	528.8855	260.3744	-268.5111	-395.44362	399.51197	-2.44101	-1034.98824	-1558.17805	-1244.10143	-380.79756	315.70396	644.42664	0
502	482.50631	216.43622	-266.07009	-349.06443	375.10187	-24.4101	-1030.10622	-1589.91118	-1322.21375	-456.46887	205.85851	561.4323	0
503	397.07096	226.20026	-170.8707	-312.44928	284.7845	30.10579	-998.37309	-1592.35219	-1405.20809	-524.81715	-29.29212	414.9717	0
504	309.1946	165.17501	-144.01959	-236.77797	226.20026	13.01872	-920.26077	-1565.50108	-1456.4693	-698.12886	-200.16282	190.39878	0
505	201.79016	131.00087	-70.78929	-165.98868	135.88289	32.5468	-800.65128	-1462.97866	-1441.82324	-834.82542	-414.9717	-81.367	0
506	94.38572	38.24249	-56.14323	-65.90727	74.85764	-7.32303	-690.80583	-1353.13321	-1363.71092	-849.47148	-485.76099	-196.09447	0
507	-45.56552	67.53461	113.10013	-12.20505	-79.73966	91.13104	-600.48846	-1231.08271	-1263.62951	-837.26643	-510.17109	-240.03265	0
508	-65.0936	89.5037	154.5973	-12.20505	-109.03178	122.86417	-522.37614	-1072.41706	-1117.16891	-781.1232	-497.96604	-274.20679	0
509	-62.65259	91.94471	154.5973	-14.64606	-109.03178	122.86417	-410.08968	-847.84414	-921.88811	-659.0727	-441.82281	-244.91467	0
510	-52.88855	77.29865	130.1872	-12.20505	-91.94471	103.33609	-314.89029	-647.68132	-731.48933	-537.0222	-363.71049	-220.50457	0
511	-55.32956	50.44754	105.7771	0	-79.73966	78.92599	-219.6909	-479.25163	-536.20853	-390.5616	-263.62908	-183.88942	0
512	-13.83239	28.47845	42.31084	-7.32303	-28.47845	34.98781	-144.01959	-315.70396	-365.33783	-261.18807	-173.31171	-142.39225	0
513	-23.59643	50.44754	74.04397	-14.64606	-48.00653	61.83892	-85.43535	-193.65346	-216.43622	-136.69656	-146.4606	-93.57205	0
514	-123.67784	21.15542	144.83326	49.63387	-133.44188	83.80801	-24.4101	-117.98215	-109.03178	-46.37919	-90.31737	-93.57205	0
515	-21.15542	11.39138	32.5468	3.25468	-26.03744	22.78276	-41.49717	-100.89508	-106.59077	-56.14323	-34.17414	-69.16195	0
516	-11.39138	4.06835	15.45973	3.25468	-13.83239	10.57771	-12.20505	-59.39791	-52.88855	-17.08707	-4.88202	-44.75185	0
517	-11.39138	-1.62734	10.57771	5.69569	-11.39138	5.69569	7.32303	-17.90074	-8.95037	25.22377	22.78276	-30.10579	0
518	-4.06835	-6.50936	-2.44101	3.25468	-1.62734	-4.88202	30.10579	28.47845	42.31084	69.16195	56.9569	-20.34175	0
519	4.06835	-8.95037	-12.20505	0	6.50936	-9.76404	42.31084	53.70222	62.65259	105.7771	74.04397	-13.01872	0
520	4.06835	-11.39138	-14.64606	3.25468	8.95037	-12.20505	54.51589	85.43535	91.94471	125.30518	83.80801	-4.88202	0
521	1.62734	-11.39138	-12.20505	3.25468	6.50936	-9.76404	61.83892	85.43535	109.03178	120.42316	76.48498	4.88202	0
522	1.62734	-13.83239	-14.64606	5.69569	6.50936	-12.20505	61.83892	92.75838	113.9138	122.86417	78.92599	9.76404	0
523	-1.62734	-16.2734	-14.64606	8.1367	6.50936	-14.64606	66.72094	112.28646	126.11885	122.86417	83.80801	12.20505	0
524	-1.62734	-16.2734	-14.64606	8.1367	6.50936	-14.64606	71.60296	97.6404	116.35481	125.30518	83.80801	12.20505	0
525	-4.06835	-18.71441	-14.64606	10.57771	4.06835	-17.08707	74.04397	100.08141	121.23683	125.30518	83.80801	9.76404	0
526	-4.06835	-23.59643	-19.52808	13.01872	6.50936	-21.96909	76.48498	104.96343	123.67784	127.74619	86.24902	12.20505	0
527	-6.50936	-26.03744	-19.52808	15.45973	6.50936	-21.96909	78.92599	109.84545	128.55986	130.1872	86.24902	12.20505	0
528	-4.06835	-26.03744	-21.96909	13.01872	8.95037	-24.4101	83.80801	114.72747	133.44188	130.1872	86.24902	12.20505	0
529	-4.06835	-26.03744	-21.96909	13.01872	8.95037	-24.4101	86.24902	122.0505	135.88289	135.06922	86.24902	12.20505	0
530	-6.50936	-26.03744	-19.52808	15.45973	6.50936	-21.96909	88.69003	129.37353	143.20592	137.51023	86.24902	12.20505	0
531	-8.95037	-26.03744	-17.08707	15.45973	4.06835	-21.96909	91.13104	134.25555	148.08794	139.95124	88.69003	12.20505	0
532	-11.39138	-26.03744	-14.64606	17.90074	1.62734	-19.52808	96.01306	139.13757	152.96996	139.95124	91.13104	12.20505	0
533	-13.83239	-23.59643	-9.76404	17.90074	-4.06835	-17.08707	100.89508	139.13757	157.85198	144.83326	93.57205	14.64606	0
534	-21.15542	-23.59643	-2.44101	20.34175	-11.39138	-12.20505	103.33609	139.13757	162.734	147.27427	98.45407	14.64606	0
535	-18.71441	-23.59643	-4.88202	20.34175	-8.95037	-14.64606	103.33609	136.69656	162.734	147.27427	98.45407	14.64606	0
536	-16.2734	-23.59643	-7.32303	17.90074	-6.50936	-14.64606	100.89508	134.25555	162.734	147.27427	98.45407	14.64606	0
537	-16.2734	-23.59643	-7.32303	17.90074	-6.50936	-14.64606	98.45407	134.25555	167.61602	149.71528	98.45407	14.64606	0
538	-13.83239	-21.15542	-7.32303	15.45973	-4.06835	-14.64606	98.45407	134.25555	172.49804	149.71528	100.89508	14.64606	0
539	-8.95037	-21.15542	-12.20505	13.01872	1.62734	-17.08707	93.57205	134.25555	172.49804	152.15629	100.89508	14.64606	0
540	-4.06835	-21.15542	-17.08707	10.57771	6.50936	-19.52808	91.13104	131.81454	177.38006	157.03831	100.89508	14.64606	0
541	-1.62734	-23.59643	-21.96909	10.57771	8.95037	-21.96909	88.69003	134.25555	182.26208	157.03831	100.89508	12.20505	0
542	4.06835	-26.03744	-29.29212	10.57771	16.2734	-26.85111	83.80801	134.25555	182.26208	154.5973	98.45407	7.32303	0
543	4.06835	-26.03744	-29.29212	10.57771	16.2734	-26.85111	83.80801	136.69656	182.26208	154.5973	98.45407	7.32303	0
544	-1.62734	-26.03744	-24.4101	13.01872	11.39138	-24.4101	86.24902	136.69656	182.26208	154.5973	100.89508	2.44101	0
545	-4.06835	-26.03744	-21.96909	13.01872	8.95037	-24.4101	88.69003	136.69656	182.26208	154.5973	100.89508	2.44101	0
546	-6.50936	-30.91946	-24.4101	17.90074	8.95037	-26.85111	88.69003	136.69656	179.82107	154.5973	100.89508	-2.44101	0
547	-8.95037	-30.91946	-21.96909	17.90074	6.50936	-26.85111	88.69003	136.69656	179.82107	152.15629	98.45407	-7.32303	0
548	-11.39138	-30.91946	-19.52808	20.34175	4.06835	-24.4101	91.13104	139.13757	179.82107	152.15629	98.45407	-10.57771	0
549	-16.2734	-30.91946	-14.64606	22.78276	-1.62734	-21.96909	91.13104	141.57858	179.82107	149.71528	98.45407	-13.01872	0
550	-18.71441	-30.91946	-12.20505	22.78276	-4.06835	-21.96909	91.13104	144.01959	182.26208	149.71528	96.01306	-15.45973	0
551	-16.2734	-28.47845	-12.20505	20.34175	-4.06835	-19.52808	91.13104	144.01959	182.26208	149.71528	93.57205	-20.34175	0
552	-16.2734	-26.03744	-9.76404	20.34175	-4.06835	-17.08707	91.13104	148.90161	184.70309	149.71528	93.57205	-20.34175	0
553	-16.2734	-26.03744	-9.76404	20.34175	-4.06835	-17.08707	93.57205	151.34262	187.1441	149.71528	93.57205	-22.78276	0
554	-16.2734	-26.03744	-9.76404	20.34175	-4.06835	-17.08707	96.01306	156.22464	187.1441	149.71528	93.57205	-25.22377	0
555	-13.83239	-23.59643	-9.76404	17.90074	-4.06835	-17.08707	96.01306	156.22464	189.58511	149.71528	93.57205	-27.66478	0
556	-11.39138	-23.59643	-12.20505	15.45973	-1.62734	-17.08707	96.01306	156.22464	189.58511	149.71528	93.57205	-27.66478	0
557	-11.39138	-23.59643	-12.20505	15.45973	-1.62734	-17.08707	98.45407	156.22464	189.58511	149.71528	96.01306	-27.66478	0
558	-11.39138	-21.15542	-9.76404	15.45973	-1.62734	-14.64606	98.45407	156.22464	192.02612	149.71528	96.01306	-27.66478	0
559	-6.50936	-21.15542	-14.64606	13.01872	4.06835	-17.08707	98.45407	158.66565	192.02612	152.15629	98.45407	-30.10579	0
560	-6.50936	-21.15542	-14.64606	13.01872	4.06835	-17.08707	96.01306	158.66565	196.90814	154.5973	98.45407	-30.10579	0
561	-8.95037	-21.15542	-12.20505	13.01872	1.62734	-17.08707	93.57205	158.66565	196.90814	154.5973	98.45407	-32.5468	0
562	-4.06835	-18.71441	-14.64606	10.57771	4.06835	-17.08707	93.57205	158.66565	201.79016	157.03831	103.33609	-32.5468	0
563	-1.62734	-16.2734	-14.64606	8.1367	6.50936	-14.64606	93.57205	158.66565	201.79016	159.47932	105.7771	-30.10579	0
564	-1.62734	-16.2734	-14.64606	8.1367	6.50936	-14.64606	93.57205	158.66565	206.67218	159.47932	108.21811	-30.10579	0
565	-4.06835	-16.2734	-12.20505	8.1367	4.06835	-14.64606	93.57205	158.66565	209.11319	161.92033	110.65912	-30.10579	0
566	-6.50936	-13.83239	-7.32303	8.1367	-1.62734	-9.76404	93.57205	161.10666	211.5542	164.36134	113.10013	-22.78276	0
567	-6.50936	-11.39138	-4.88202	8.1367	-1.62734	-7.32303	98.45407	165.98868	216.43622	166.80235	115.54114	-20.34175	0
568	-13.83239	-13.83239	0	13.01872	-8.95037	-7.32303	100.89508	170.8707	218.87723	169.24336	117.98215	-17.90074	0
569	-16.2734	-13.83239	3.25468	13.01872	-11.39138	-4.88202	100.89508	173.31171	221.31824	169.24336	120.42316	-15.45973	0
570	-11.39138	-13.83239	-2.44101	10.57771	-6.50936	-7.32303	100.89508	170.8707	223.75925	169.24336	120.42316	-15.45973	0
571	-11.39138	-13.83239	-2.44101	10.57771	-6.50936	-7.32303	103.33609	170.8707	226.20026	169.24336	120.42316	-13.01872	0
572	-13.83239	-13.83239	0	13.01872	-8.95037	-7.32303	103.33609	175.75272	231.08228	171.68437	122.86417	-10.57771	0
573	-13.83239	-11.39138	3.25468	10.57771	-8.95037	-4.88202	103.33609	178.19373	233.52329	171.68437	122.86417	-10.57771	0
574	-11.39138	-11.39138	0	10.57771	-6.50936	-4.88202	103.33609	180.63474	233.52329	171.68437	122.86417	-10.57771	0
575	-11.39138	-13.83239	-2.44101	10.57771	-6.50936	-7.32303	103.33609	178.19373	233.52329	169.24336	122.86417	-10.57771	0
576	-8.95037	-13.83239	-4.88202	10.57771	-4.06835	-9.76404	103.33609	178.19373	233.52329	171.68437	122.86417	-10.57771	0
577	-1.62734	-8.95037	-7.32303	3.25468	1.62734	-7.32303	100.89508	178.19373	235.9643	171.68437	125.30518	-7.32303	0
578	-1.62734	-6.50936	-4.88202	3.25468	1.62734	-4.88202	100.89508	187.95777	240.84632	174.12538	127.74619	-7.32303	0
579	-11.39138	-6.50936	5.69569	8.1367	-8.95037	0	103.33609	197.72181	245.72834	181.44841	130.1872	-4.88202	0
580	-13.83239	-6.50936	8.1367	8.1367	-11.39138	0	105.7771	202.60383	250.61036	183.88942	130.1872	-4.88202	0
581	-13.83239	-4.06835	10.57771	8.1367	-13.83239	3.25468	105.7771	205.04484	250.61036	186.33043	132.62821	-4.88202	0
582	-8.95037	-1.62734	8.1367	3.25468	-8.95037	3.25468	105.7771	207.48585	253.05137	186.33043	132.62821	-4.88202	0
583	-6.50936	-1.62734	5.69569	3.25468	-6.50936	3.25468	105.7771	209.92686	255.49238	186.33043	132.62821	-7.32303	0
584	-4.06835	-1.62734	3.25468	0	-4.06835	0	108.21811	214.80888	255.49238	186.33043	135.06922	-7.32303	0
585	-6.50936	-1.62734	5.69569	3.25468	-6.50936	3.25468	110.65912	219.6909	257.93339	188.77144	137.51023	-7.32303	0
586	-8.95037	-1.62734	8.1367	3.25468	-8.95037	3.25468	110.65912	219.6909	257.93339	191.21245	139.95124	-4.88202	0
587	-6.50936	-1.62734	5.69569	3.25468	-6.50936	3.25468	113.10013	219.6909	257.93339	191.21245	139.95124	-7.32303	0
588	1.62734	-1.62734	-2.44101	0	1.62734	0	108.21811	219.6909	255.49238	188.77144	137.51023	-7.32303	0
589	6.50936	1.62734	-4.88202	-4.88202	6.50936	0	108.21811	222.13191	257.93339	191.21245	137.51023	-7.32303	0
590	4.06835	4.06835	0	-4.88202	1.62734	3.25468	108.21811	224.57292	262.81541	196.09447	139.95124	-7.32303	0
591	4.06835	6.50936	3.25468	-4.88202	1.62734	5.69569	110.65912	229.45494	265.25642	198.53548	142.39225	-4.88202	0
592	1.62734	8.95037	8.1367	-4.88202	-4.06835	10.57771	110.65912	234.33696	270.13844	200.97649	142.39225	-2.44101	0
593	-1.62734	8.95037	10.57771	-4.88202	-6.50936	10.57771	110.65912	239.21898	272.57945	200.97649	139.95124	-2.44101	0
594	4.06835	13.83239	10.57771	-9.76404	-4.06835	13.01872	113.10013	244.101	277.46147	203.4175	142.39225	-2.44101	0
595	1.62734	13.83239	13.01872	-7.32303	-6.50936	15.45973	115.54114	246.54201	277.46147	205.85851	142.39225	0	0
596	-1.62734	13.83239	15.45973	-7.32303	-8.95037	15.45973	117.98215	248.98302	279.90248	205.85851	142.39225	4.88202	0
597	-4.06835	16.2734	20.34175	-7.32303	-11.39138	17.90074	117.98215	248.98302	279.90248	208.29952	142.39225	4.88202	0
598	-6.50936	13.83239	20.34175	-4.88202	-13.83239	17.90074	117.98215	253.86504	282.34349	208.29952	142.39225	4.88202	0
599	-8.95037	13.83239	22.78276	-2.44101	-16.2734	17.90074	120.42316	256.30605	284.7845	210.74053	142.39225	4.88202	0
600	-6.50936	13.83239	20.34175	-4.88202	-13.83239	17.90074	122.86417	261.18807	289.66652	213.18154	142.39225	4.88202	0
601	-1.62734	18.71441	20.34175	-9.76404	-11.39138	20.34175	125.30518	266.07009	296.98955	218.06356	142.39225	7.32303	0
602	-4.06835	18.71441	22.78276	-7.32303	-13.83239	20.34175	125.30518	268.5111	299.43056	218.06356	144.83326	9.76404	0
603	-6.50936	18.71441	25.22377	-7.32303	-16.2734	22.78276	127.74619	273.39312	304.31258	220.50457	144.83326	14.64606	0
604	-6.50936	26.03744	32.5468	-9.76404	-18.71441	30.10579	130.1872	278.27514	309.1946	220.50457	147.27427	17.08707	0
605	-1.62734	30.91946	32.5468	-14.64606	-16.2734	32.5468	130.1872	283.15716	311.63561	220.50457	147.27427	19.52808	0
606	4.06835	35.80148	32.5468	-19.52808	-13.83239	34.98781	130.1872	285.59817	311.63561	218.06356	147.27427	21.96909	0
607	4.06835	40.6835	37.42882	-21.96909	-16.2734	39.86983	132.62821	290.48019	316.51763	218.06356	147.27427	26.85111	0
608	-4.06835	43.12451	47.19286	-19.52808	-26.03744	44.75185	132.62821	292.9212	318.95864	220.50457	147.27427	31.73313	0
609	-4.06835	45.56552	49.63387	-21.96909	-26.03744	47.19286	132.62821	292.9212	321.39965	218.06356	147.27427	34.17414	0
610	-6.50936	48.00653	54.51589	-21.96909	-30.91946	52.07488	130.1872	290.48019	323.84066	218.06356	144.83326	34.17414	0
611	-1.62734	50.44754	52.07488	-24.4101	-26.03744	52.07488	127.74619	288.03918	323.84066	218.06356	142.39225	34.17414	0
612	-1.62734	52.88855	54.51589	-26.85111	-28.47845	54.51589	127.74619	288.03918	326.28167	215.62255	142.39225	34.17414	0
613	-1.62734	55.32956	56.9569	-26.85111	-28.47845	56.9569	125.30518	288.03918	328.72268	215.62255	139.95124	34.17414	0
614	-4.06835	55.32956	59.39791	-26.85111	-30.91946	56.9569	125.30518	290.48019	333.6047	215.62255	139.95124	36.61515	0
615	-6.50936	57.77057	64.27993	-26.85111	-35.80148	61.83892	127.74619	290.48019	336.04571	215.62255	139.95124	39.05616	0
616	-1.62734	60.21158	61.83892	-29.29212	-30.91946	61.83892	127.74619	290.48019	336.04571	213.18154	139.95124	39.05616	0
617	-1.62734	65.0936	66.72094	-31.73313	-33.36047	66.72094	127.74619	292.9212	338.48672	213.18154	139.95124	41.49717	0
618	-1.62734	69.97562	71.60296	-34.17414	-35.80148	71.60296	127.74619	297.80322	338.48672	210.74053	139.95124	43.93818	0
619	-1.62734	74.85764	76.48498	-36.61515	-38.24249	76.48498	125.30518	302.68524	338.48672	208.29952	137.51023	43.93818	0
620	-1.62734	77.29865	78.92599	-39.05616	-40.6835	78.92599	127.74619	302.68524	340.92773	208.29952	135.06922	43.93818	0
621	1.62734	82.18067	81.367	-41.49717	-40.6835	83.80801	127.74619	302.68524	338.48672	205.85851	132.62821	43.93818	0
622	1.62734	82.18067	81.367	-41.49717	-40.6835	83.80801	127.74619	300.24423	336.04571	200.97649	130.1872	43.93818	0
623	-1.62734	82.18067	83.80801	-41.49717	-43.12451	83.80801	127.74619	300.24423	331.16369	196.09447	125.30518	43.93818	0
624	-1.62734	82.18067	83.80801	-41.49717	-43.12451	83.80801	127.74619	300.24423	326.28167	188.77144	120.42316	41.49717	0
625	1.62734	82.18067	81.367	-41.49717	-40.6835	83.80801	127.74619	295.36221	321.39965	181.44841	115.54114	39.05616	0
626	1.62734	84.62168	83.80801	-43.93818	-40.6835	86.24902	127.74619	292.9212	314.07662	176.56639	113.10013	39.05616	0
627	1.62734	87.06269	86.24902	-43.93818	-43.12451	88.69003	130.1872	288.03918	309.1946	171.68437	110.65912	36.61515	0
628	1.62734	89.5037	88.69003	-46.37919	-43.12451	91.13104	130.1872	283.15716	304.31258	164.36134	105.7771	34.17414	0
629	-1.62734	89.5037	91.13104	-43.93818	-45.56552	91.13104	130.1872	280.71615	299.43056	159.47932	100.89508	34.17414	0
630	-8.95037	91.94471	100.89508	-41.49717	-55.32956	96.01306	127.74619	275.83413	296.98955	157.03831	100.89508	36.61515	0
631	-8.95037	96.82673	105.7771	-43.93818	-57.77057	100.89508	125.30518	273.39312	292.10753	152.15629	98.45407	36.61515	0
632	-11.39138	99.26774	110.65912	-43.93818	-60.21158	105.7771	122.86417	266.07009	284.7845	144.83326	93.57205	39.05616	0
633	-16.2734	101.70875	117.98215	-43.93818	-67.53461	110.65912	120.42316	261.18807	282.34349	139.95124	91.13104	41.49717	0
634	-16.2734	101.70875	117.98215	-43.93818	-67.53461	110.65912	115.54114	251.42403	272.57945	132.62821	86.24902	41.49717	0
635	-18.71441	99.26774	117.98215	-41.49717	-67.53461	108.21811	108.21811	241.65999	262.81541	120.42316	81.367	41.49717	0
636	-21.15542	99.26774	120.42316	-39.05616	-69.97562	110.65912	103.33609	234.33696	253.05137	113.10013	74.04397	43.93818	0
637	-21.15542	99.26774	120.42316	-39.05616	-69.97562	110.65912	96.01306	227.01393	243.28733	103.33609	69.16195	43.93818	0
638	-18.71441	101.70875	120.42316	-41.49717	-69.97562	110.65912	91.13104	219.6909	233.52329	91.13104	61.83892	43.93818	0
639	-13.83239	101.70875	115.54114	-43.93818	-65.0936	108.21811	83.80801	209.92686	218.87723	81.367	52.07488	39.05616	0
640	-13.83239	101.70875	115.54114	-43.93818	-65.0936	108.21811	78.92599	197.72181	209.11319	71.60296	44.75185	36.61515	0
641	-8.95037	104.14976	113.10013	-48.8202	-60.21158	108.21811	74.04397	185.51676	194.46713	59.39791	34.98781	34.17414	0
642	-6.50936	104.14976	110.65912	-48.8202	-57.77057	108.21811	69.16195	175.75272	179.82107	44.75185	25.22377	29.29212	0
643	-6.50936	106.59077	113.10013	-51.26121	-60.21158	110.65912	69.16195	165.98868	167.61602	34.98781	17.90074	29.29212	0
644	-4.06835	109.03178	113.10013	-53.70222	-57.77057	110.65912	66.72094	153.78363	152.96996	22.78276	10.57771	29.29212	0
645	-6.50936	109.03178	115.54114	-51.26121	-60.21158	113.10013	64.27993	136.69656	138.3239	13.01872	5.69569	26.85111	0
646	-8.95037	109.03178	117.98215	-51.26121	-62.65259	113.10013	61.83892	122.0505	121.23683	4.88202	-2.44101	26.85111	0
647	-13.83239	104.14976	117.98215	-46.37919	-65.0936	110.65912	56.9569	104.96343	106.59077	-7.32303	-7.32303	26.85111	0
648	-16.2734	99.26774	115.54114	-41.49717	-65.0936	108.21811	49.63387	95.19939	91.94471	-17.08707	-17.08707	26.85111	0
649	-21.15542	96.82673	117.98215	-39.05616	-69.97562	108.21811	44.75185	85.43535	79.73966	-26.85111	-24.4101	24.4101	0
650	-26.03744	91.94471	117.98215	-34.17414	-72.41663	105.7771	37.42882	73.2303	67.53461	-36.61515	-31.73313	21.96909	0
651	-30.91946	89.5037	120.42316	-29.29212	-74.85764	105.7771	32.5468	63.46626	55.32956	-43.93818	-39.05616	21.96909	0
652	-35.80148	84.62168	120.42316	-24.4101	-77.29865	103.33609	27.66478	50.44754	44.75185	-51.26121	-43.93818	17.08707	0
653	-35.80148	82.18067	117.98215	-24.4101	-77.29865	100.89508	21.96909	43.12451	34.98781	-61.02525	-48.8202	14.64606	0
654	-35.80148	74.85764	110.65912	-19.52808	-72.41663	93.57205	19.52808	33.36047	22.78276	-73.2303	-56.14323	14.64606	0
655	-33.36047	69.97562	103.33609	-19.52808	-67.53461	86.24902	17.08707	26.03744	8.1367	-85.43535	-63.46626	12.20505	0
656	-33.36047	65.0936	98.45407	-17.08707	-65.0936	81.367	14.64606	21.15542	-1.62734	-92.75838	-68.34828	14.64606	0
657	-33.36047	60.21158	93.57205	-14.64606	-62.65259	76.48498	14.64606	11.39138	-13.83239	-102.52242	-70.78929	17.08707	0
658	-35.80148	57.77057	93.57205	-12.20505	-65.0936	76.48498	14.64606	6.50936	-21.15542	-107.40444	-75.67131	17.08707	0
659	-35.80148	52.88855	88.69003	-9.76404	-62.65259	71.60296	17.08707	-0.81367	-30.91946	-114.72747	-80.55333	19.52808	0
660	-33.36047	45.56552	78.92599	-7.32303	-55.32956	61.83892	14.64606	-8.1367	-38.24249	-119.60949	-87.87636	19.52808	0
661	-33.36047	35.80148	69.16195	-2.44101	-50.44754	52.07488	12.20505	-13.01872	-45.56552	-129.37353	-95.19939	17.08707	0
662	-33.36047	30.91946	64.27993	0	-48.00653	47.19286	12.20505	-17.90074	-50.44754	-134.25555	-100.08141	17.08707	0
663	-35.80148	28.47845	64.27993	3.25468	-50.44754	47.19286	12.20505	-22.78276	-52.88855	-134.25555	-102.52242	17.08707	0
664	-35.80148	26.03744	61.83892	3.25468	-48.00653	44.75185	12.20505	-27.66478	-55.32956	-139.13757	-102.52242	12.20505	0
665	-30.91946	23.59643	54.51589	3.25468	-43.12451	39.86983	9.76404	-32.5468	-60.21158	-141.57858	-104.96343	9.76404	0
666	-21.15542	21.15542	42.31084	0	-30.91946	32.5468	4.88202	-39.86983	-65.0936	-146.4606	-109.84545	4.88202	0
667	-21.15542	16.2734	37.42882	0	-28.47845	27.66478	2.44101	-39.86983	-65.0936	-148.90161	-112.28646	4.88202	0
668	-21.15542	11.39138	32.5468	3.25468	-26.03744	22.78276	0	-42.31084	-67.53461	-148.90161	-112.28646	2.44101	0
669	-21.15542	8.95037	30.10579	5.69569	-26.03744	20.34175	-2.44101	-42.31084	-69.97562	-148.90161	-112.28646	2.44101	0
670	-23.59643	8.95037	32.5468	5.69569	-28.47845	20.34175	-2.44101	-37.42882	-67.53461	-144.01959	-114.72747	4.88202	0
671	-18.71441	6.50936	25.22377	5.69569	-21.15542	15.45973	-4.88202	-34.98781	-67.53461	-144.01959	-117.16848	4.88202	0
672	-18.71441	6.50936	25.22377	5.69569	-21.15542	15.45973	-7.32303	-32.5468	-65.0936	-141.57858	-117.16848	4.88202	0
673	-18.71441	6.50936	25.22377	5.69569	-21.15542	15.45973	-7.32303	-30.10579	-62.65259	-136.69656	-117.16848	4.88202	0
674	-18.71441	1.62734	20.34175	8.1367	-18.71441	10.57771	-2.44101	-27.66478	-60.21158	-131.81454	-112.28646	4.88202	0
675	-21.15542	-1.62734	20.34175	10.57771	-21.15542	10.57771	0	-27.66478	-60.21158	-129.37353	-112.28646	4.88202	0
676	-23.59643	-1.62734	22.78276	10.57771	-23.59643	10.57771	2.44101	-27.66478	-60.21158	-126.93252	-107.40444	7.32303	0
677	-28.47845	-4.06835	25.22377	15.45973	-28.47845	10.57771	4.88202	-22.78276	-55.32956	-124.49151	-104.96343	7.32303	0
678	-26.03744	-6.50936	20.34175	15.45973	-23.59643	8.1367	4.88202	-22.78276	-55.32956	-122.0505	-102.52242	9.76404	0
679	-26.03744	-8.95037	17.90074	15.45973	-23.59643	5.69569	7.32303	-17.90074	-55.32956	-117.16848	-97.6404	9.76404	0
680	-26.03744	-11.39138	15.45973	17.90074	-21.15542	3.25468	9.76404	-17.90074	-52.88855	-112.28646	-95.19939	14.64606	0
681	-30.91946	-16.2734	15.45973	22.78276	-23.59643	0	9.76404	-17.90074	-50.44754	-109.84545	-92.75838	14.64606	0
682	-35.80148	-18.71441	17.90074	25.22377	-28.47845	0	9.76404	-17.90074	-50.44754	-104.96343	-92.75838	14.64606	0
683	-33.36047	-18.71441	15.45973	25.22377	-26.03744	-2.44101	9.76404	-13.01872	-43.12451	-97.6404	-87.87636	17.08707	0
684	-30.91946	-16.2734	15.45973	22.78276	-23.59643	0	9.76404	-10.57771	-40.6835	-92.75838	-85.43535	19.52808	0
685	-28.47845	-21.15542	8.1367	22.78276	-18.71441	-7.32303	9.76404	-10.57771	-40.6835	-90.31737	-82.99434	17.08707	0
686	-26.03744	-21.15542	5.69569	22.78276	-16.2734	-7.32303	9.76404	-8.1367	-38.24249	-87.87636	-80.55333	19.52808	0
687	-28.47845	-23.59643	5.69569	25.22377	-18.71441	-9.76404	12.20505	-3.25468	-33.36047	-82.99434	-75.67131	21.96909	0
688	-28.47845	-23.59643	5.69569	25.22377	-18.71441	-9.76404	14.64606	1.62734	-30.91946	-78.11232	-73.2303	24.4101	-1250	T-0
689	-30.91946	-23.59643	8.1367	25.22377	-21.15542	-7.32303	14.64606	8.95037	-30.91946	-70.78929	-68.34828	24.4101	0
690	-28.47845	-23.59643	5.69569	25.22377	-18.71441	-9.76404	17.08707	13.83239	-23.59643	-65.90727	-65.90727	26.85111	0
691	-26.03744	-23.59643	3.25468	22.78276	-16.2734	-9.76404	19.52808	18.71441	-21.15542	-61.02525	-63.46626	31.73313	0
692	-26.03744	-23.59643	3.25468	22.78276	-16.2734	-9.76404	21.96909	21.15542	-18.71441	-58.58424	-61.02525	31.73313	0
693	-26.03744	-23.59643	3.25468	22.78276	-16.2734	-9.76404	21.96909	23.59643	-13.83239	-53.70222	-56.14323	34.17414	0
694	-28.47845	-21.15542	8.1367	22.78276	-18.71441	-7.32303	27.66478	26.03744	-11.39138	-48.8202	-51.26121	36.61515	0
695	-26.03744	-18.71441	8.1367	20.34175	-18.71441	-4.88202	27.66478	23.59643	-8.95037	-46.37919	-48.8202	36.61515	0
696	-26.03744	-18.71441	8.1367	20.34175	-18.71441	-4.88202	27.66478	23.59643	-8.95037	-43.93818	-46.37919	39.05616	0
697	-23.59643	-21.15542	3.25468	20.34175	-13.83239	-9.76404	25.22377	23.59643	-6.50936	-41.49717	-43.93818	39.05616	0
698	-21.15542	-21.15542	0	20.34175	-11.39138	-9.76404	21.96909	21.15542	-6.50936	-39.05616	-41.49717	39.05616	0
699	-26.03744	-23.59643	3.25468	22.78276	-16.2734	-9.76404	21.96909	23.59643	-6.50936	-36.61515	-41.49717	39.05616	0
700	-26.03744	-26.03744	0	25.22377	-13.83239	-12.20505	21.96909	23.59643	-4.06835	-31.73313	-41.49717	39.05616	0
701	-30.91946	-30.91946	0	30.10579	-16.2734	-14.64606	21.96909	28.47845	-4.06835	-29.29212	-41.49717	39.05616	0
702	-26.03744	-30.91946	-4.88202	27.66478	-11.39138	-17.08707	19.52808	28.47845	-4.06835	-26.85111	-39.05616	39.05616	0
703	-26.03744	-30.91946	-4.88202	27.66478	-11.39138	-17.08707	19.52808	30.91946	-1.62734	-24.4101	-39.05616	36.61515	0
704	-26.03744	-30.91946	-4.88202	27.66478	-11.39138	-17.08707	19.52808	30.91946	0.81367	-24.4101	-39.05616	34.17414	0
705	-26.03744	-30.91946	-4.88202	27.66478	-11.39138	-17.08707	21.96909	30.91946	0.81367	-24.4101	-36.61515	31.73313	0
706	-26.03744	-28.47845	-2.44101	25.22377	-13.83239	-14.64606	25.22377	28.47845	-1.62734	-21.96909	-36.61515	31.73313	0
707	-21.15542	-26.03744	-4.88202	22.78276	-8.95037	-14.64606	27.66478	28.47845	-1.62734	-24.4101	-36.61515	31.73313	0
708	-21.15542	-23.59643	-2.44101	20.34175	-11.39138	-12.20505	27.66478	26.03744	-1.62734	-24.4101	-36.61515	29.29212	0
709	-21.15542	-21.15542	0	20.34175	-11.39138	-9.76404	30.10579	26.03744	-4.06835	-21.96909	-36.61515	29.29212	0
710	-26.03744	-21.15542	5.69569	22.78276	-16.2734	-7.32303	30.10579	26.03744	-1.62734	-19.52808	-36.61515	29.29212	0
711	-30.91946	-23.59643	8.1367	25.22377	-21.15542	-7.32303	30.10579	26.03744	-1.62734	-19.52808	-36.61515	29.29212	0
712	-33.36047	-26.03744	8.1367	27.66478	-21.15542	-9.76404	27.66478	23.59643	-1.62734	-19.52808	-39.05616	26.85111	0
713	-33.36047	-28.47845	5.69569	30.10579	-21.15542	-12.20505	25.22377	23.59643	-1.62734	-19.52808	-39.05616	26.85111	0
714	-33.36047	-28.47845	5.69569	30.10579	-21.15542	-12.20505	25.22377	23.59643	-1.62734	-19.52808	-36.61515	26.85111	0
715	-33.36047	-26.03744	8.1367	27.66478	-21.15542	-9.76404	25.22377	23.59643	-1.62734	-19.52808	-34.17414	24.4101	0
716	-38.24249	-26.03744	13.01872	30.10579	-26.03744	-7.32303	27.66478	23.59643	-1.62734	-17.08707	-34.17414	26.85111	0
717	-35.80148	-28.47845	8.1367	30.10579	-23.59643	-9.76404	27.66478	21.15542	-1.62734	-17.08707	-34.17414	26.85111	0
718	-30.91946	-28.47845	3.25468	27.66478	-18.71441	-12.20505	25.22377	21.15542	-4.06835	-17.08707	-34.17414	24.4101	0
719	-26.03744	-28.47845	-2.44101	25.22377	-13.83239	-14.64606	21.96909	21.15542	-6.50936	-19.52808	-39.05616	19.52808	0
720	-23.59643	-28.47845	-4.88202	25.22377	-11.39138	-17.08707	21.96909	23.59643	-6.50936	-17.08707	-39.05616	19.52808	0
721	-23.59643	-26.03744	-2.44101	22.78276	-11.39138	-14.64606	27.66478	26.03744	-6.50936	-14.64606	-39.05616	19.52808	0
722	-18.71441	-23.59643	-4.88202	20.34175	-8.95037	-14.64606	27.66478	26.03744	-6.50936	-14.64606	-39.05616	19.52808	0
723	-18.71441	-23.59643	-4.88202	20.34175	-8.95037	-14.64606	27.66478	23.59643	-4.06835	-14.64606	-41.49717	19.52808	0
724	-23.59643	-26.03744	-2.44101	22.78276	-11.39138	-14.64606	27.66478	23.59643	-4.06835	-12.20505	-41.49717	17.08707	0
725	-23.59643	-28.47845	-4.88202	25.22377	-11.39138	-17.08707	27.66478	23.59643	-4.06835	-14.64606	-41.49717	14.64606	0
726	-23.59643	-28.47845	-4.88202	25.22377	-11.39138	-17.08707	27.66478	26.03744	-4.06835	-12.20505	-39.05616	17.08707	0
727	-23.59643	-28.47845	-4.88202	25.22377	-11.39138	-17.08707	27.66478	26.03744	-4.06835	-12.20505	-36.61515	19.52808	0
728	-28.47845	-30.91946	-2.44101	27.66478	-13.83239	-17.08707	27.66478	23.59643	-6.50936	-12.20505	-36.61515	21.96909	0
729	-23.59643	-28.47845	-4.88202	25.22377	-11.39138	-17.08707	27.66478	23.59643	-8.95037	-12.20505	-36.61515	21.96909	0
730	-26.03744	-30.91946	-4.88202	27.66478	-11.39138	-17.08707	25.22377	23.59643	-8.95037	-12.20505	-36.61515	21.96909	0
731	-30.91946	-30.91946	0	30.10579	-16.2734	-14.64606	21.96909	26.03744	-8.95037	-12.20505	-39.05616	21.96909	0
732	-30.91946	-30.91946	0	30.10579	-16.2734	-14.64606	21.96909	28.47845	-8.95037	-12.20505	-39.05616	21.96909	0
733	-21.15542	-23.59643	-2.44101	20.34175	-11.39138	-12.20505	21.96909	30.91946	-6.50936	-9.76404	-36.61515	21.96909	0
734	-21.15542	-21.15542	0	20.34175	-11.39138	-9.76404	21.96909	28.47845	-6.50936	-12.20505	-39.05616	17.08707	0
735	-26.03744	-26.03744	0	25.22377	-13.83239	-12.20505	21.96909	23.59643	-11.39138	-12.20505	-39.05616	14.64606	0
736	-21.15542	-23.59643	-2.44101	20.34175	-11.39138	-12.20505	21.96909	18.71441	-13.83239	-14.64606	-39.05616	12.20505	0
737	-16.2734	-23.59643	-7.32303	17.90074	-6.50936	-14.64606	19.52808	16.2734	-13.83239	-17.08707	-39.05616	12.20505	0
738	-16.2734	-23.59643	-7.32303	17.90074	-6.50936	-14.64606	17.08707	11.39138	-16.2734	-17.08707	-39.05616	12.20505	0
739	-18.71441	-26.03744	-7.32303	20.34175	-6.50936	-17.08707	14.64606	11.39138	-18.71441	-17.08707	-39.05616	12.20505	0
740	-11.39138	-26.03744	-14.64606	17.90074	1.62734	-19.52808	12.20505	8.95037	-18.71441	-17.08707	-41.49717	12.20505	0
741	-11.39138	-30.91946	-19.52808	20.34175	4.06835	-24.4101	9.76404	8.95037	-21.15542	-19.52808	-43.93818	12.20505	0
742	-16.2734	-33.36047	-17.08707	22.78276	-1.62734	-24.4101	9.76404	11.39138	-21.15542	-19.52808	-43.93818	12.20505	0
743	-13.83239	-33.36047	-19.52808	22.78276	1.62734	-26.85111	9.76404	11.39138	-21.15542	-19.52808	-41.49717	14.64606	0
744	-11.39138	-28.47845	-17.08707	17.90074	1.62734	-21.96909	12.20505	11.39138	-18.71441	-17.08707	-39.05616	14.64606	0
745	-11.39138	-28.47845	-17.08707	17.90074	1.62734	-21.96909	12.20505	8.95037	-18.71441	-19.52808	-39.05616	14.64606	0
746	-13.83239	-28.47845	-14.64606	20.34175	-1.62734	-21.96909	12.20505	8.95037	-21.15542	-19.52808	-36.61515	14.64606	0
747	-16.2734	-28.47845	-12.20505	20.34175	-4.06835	-19.52808	14.64606	8.95037	-21.15542	-21.96909	-36.61515	17.08707	0
748	-16.2734	-28.47845	-12.20505	20.34175	-4.06835	-19.52808	14.64606	6.50936	-23.59643	-21.96909	-34.17414	17.08707	0
749	-18.71441	-28.47845	-9.76404	22.78276	-6.50936	-19.52808	14.64606	4.06835	-26.03744	-21.96909	-34.17414	19.52808	0
750	-13.83239	-23.59643	-9.76404	17.90074	-4.06835	-17.08707	14.64606	4.06835	-28.47845	-21.96909	-34.17414	19.52808	0
751	-16.2734	-23.59643	-7.32303	17.90074	-6.50936	-14.64606	12.20505	4.06835	-28.47845	-24.4101	-36.61515	19.52808	0
752	-16.2734	-26.03744	-9.76404	20.34175	-4.06835	-17.08707	7.32303	4.06835	-30.91946	-24.4101	-39.05616	19.52808	0
753	-16.2734	-28.47845	-12.20505	20.34175	-4.06835	-19.52808	4.88202	4.06835	-30.91946	-24.4101	-41.49717	19.52808	0
754	-16.2734	-28.47845	-12.20505	20.34175	-4.06835	-19.52808	4.88202	4.06835	-30.91946	-24.4101	-41.49717	19.52808	0
755	-11.39138	-28.47845	-17.08707	17.90074	1.62734	-21.96909	7.32303	1.62734	-33.36047	-26.85111	-41.49717	17.08707	0
756	-8.95037	-28.47845	-19.52808	17.90074	4.06835	-24.4101	4.88202	-0.81367	-35.80148	-29.29212	-41.49717	14.64606	0
757	-6.50936	-28.47845	-21.96909	15.45973	6.50936	-24.4101	2.44101	-3.25468	-35.80148	-34.17414	-41.49717	14.64606	0
758	-8.95037	-30.91946	-21.96909	17.90074	6.50936	-26.85111	0	-8.1367	-40.6835	-34.17414	-41.49717	12.20505	0
759	-8.95037	-30.91946	-21.96909	17.90074	6.50936	-26.85111	-2.44101	-10.57771	-43.12451	-36.61515	-41.49717	12.20505	0
760	-1.62734	-23.59643	-21.96909	10.57771	8.95037	-21.96909	-2.44101	-13.01872	-43.12451	-39.05616	-41.49717	14.64606	0
761	-4.06835	-23.59643	-19.52808	13.01872	6.50936	-21.96909	-2.44101	-10.57771	-40.6835	-39.05616	-41.49717	17.08707	0
762	-8.95037	-21.15542	-12.20505	13.01872	1.62734	-17.08707	0	-5.69569	-40.6835	-39.05616	-39.05616	17.08707	0
763	-4.06835	-18.71441	-14.64606	10.57771	4.06835	-17.08707	0	-5.69569	-38.24249	-36.61515	-39.05616	14.64606	0
764	-4.06835	-18.71441	-14.64606	10.57771	4.06835	-17.08707	0	-5.69569	-35.80148	-34.17414	-39.05616	14.64606	0
765	-6.50936	-18.71441	-12.20505	10.57771	1.62734	-14.64606	2.44101	-5.69569	-35.80148	-34.17414	-36.61515	12.20505	0
766	-8.95037	-21.15542	-12.20505	13.01872	1.62734	-17.08707	2.44101	-8.1367	-35.80148	-34.17414	-36.61515	12.20505	0
767	-8.95037	-23.59643	-14.64606	15.45973	1.62734	-19.52808	2.44101	-10.57771	-35.80148	-34.17414	-36.61515	9.76404	0
768	-11.39138	-26.03744	-14.64606	17.90074	1.62734	-19.52808	2.44101	-15.45973	-40.6835	-36.61515	-36.61515	7.32303	0
769	-8.95037	-26.03744	-17.08707	15.45973	4.06835	-21.96909	0	-17.90074	-43.12451	-36.61515	-39.05616	7.32303	0
770	-4.06835	-23.59643	-19.52808	13.01872	6.50936	-21.96909	-2.44101	-20.34175	-43.12451	-39.05616	-41.49717	4.88202	0
771	-4.06835	-23.59643	-19.52808	13.01872	6.50936	-21.96909	-4.88202	-20.34175	-45.56552	-43.93818	-43.93818	0	0
772	-4.06835	-23.59643	-19.52808	13.01872	6.50936	-21.96909	-4.88202	-20.34175	-45.56552	-43.93818	-43.93818	-2.44101	0
773	-6.50936	-23.59643	-17.08707	13.01872	4.06835	-19.52808	-4.88202	-17.90074	-45.56552	-43.93818	-43.93818	-2.44101	0
774	-4.06835	-21.15542	-17.08707	10.57771	6.50936	-19.52808	-4.88202	-17.90074	-45.56552	-43.93818	-43.93818	-4.88202	0
775	-4.06835	-18.71441	-14.64606	10.57771	4.06835	-17.08707	-2.44101	-15.45973	-43.12451	-43.93818	-41.49717	-4.88202	0
776	-6.50936	-18.71441	-12.20505	10.57771	1.62734	-14.64606	-2.44101	-15.45973	-43.12451	-43.93818	-39.05616	-7.32303	0
777	-4.06835	-18.71441	-14.64606	10.57771	4.06835	-17.08707	-2.44101	-15.45973	-43.12451	-43.93818	-39.05616	-7.32303	0
778	-6.50936	-21.15542	-14.64606	13.01872	4.06835	-17.08707	-2.44101	-17.90074	-45.56552	-43.93818	-36.61515	-4.88202	0
779	-8.95037	-23.59643	-14.64606	15.45973	1.62734	-19.52808	0	-17.90074	-45.56552	-43.93818	-34.17414	-4.88202	0
780	-11.39138	-23.59643	-12.20505	15.45973	-1.62734	-17.08707	0	-15.45973	-45.56552	-41.49717	-31.73313	0	0
781	-8.95037	-23.59643	-14.64606	15.45973	1.62734	-19.52808	0	-13.01872	-45.56552	-43.93818	-31.73313	0	0
782	-8.95037	-23.59643	-14.64606	15.45973	1.62734	-19.52808	-2.44101	-13.01872	-48.00653	-43.93818	-34.17414	-2.44101	0
783	-11.39138	-23.59643	-12.20505	15.45973	-1.62734	-17.08707	-2.44101	-13.01872	-48.00653	-43.93818	-31.73313	-4.88202	0
784	-6.50936	-18.71441	-12.20505	10.57771	1.62734	-14.64606	2.44101	-13.01872	-45.56552	-41.49717	-29.29212	-2.44101	0
785	-6.50936	-16.2734	-9.76404	10.57771	1.62734	-12.20505	4.88202	-10.57771	-45.56552	-39.05616	-26.85111	-2.44101	0
786	-8.95037	-16.2734	-7.32303	10.57771	-1.62734	-12.20505	4.88202	-8.1367	-43.12451	-39.05616	-24.4101	-2.44101	0
787	-6.50936	-11.39138	-4.88202	8.1367	-1.62734	-7.32303	7.32303	-5.69569	-40.6835	-36.61515	-21.96909	-2.44101	0
788	-6.50936	-6.50936	0	5.69569	-4.06835	-2.44101	9.76404	-5.69569	-40.6835	-34.17414	-19.52808	0	0
789	-6.50936	-6.50936	0	5.69569	-4.06835	-2.44101	9.76404	-5.69569	-38.24249	-29.29212	-17.08707	2.44101	0
790	-6.50936	-1.62734	5.69569	3.25468	-6.50936	3.25468	14.64606	-5.69569	-35.80148	-26.85111	-12.20505	7.32303	0
791	-4.06835	4.06835	8.1367	0	-6.50936	5.69569	14.64606	-0.81367	-30.91946	-24.4101	-9.76404	9.76404	0
792	-4.06835	6.50936	10.57771	-2.44101	-6.50936	8.1367	14.64606	-0.81367	-28.47845	-24.4101	-9.76404	12.20505	0
793	-6.50936	6.50936	13.01872	0	-8.95037	10.57771	14.64606	-0.81367	-28.47845	-21.96909	-9.76404	12.20505	0
794	-8.95037	11.39138	20.34175	-2.44101	-13.83239	15.45973	14.64606	-3.25468	-23.59643	-19.52808	-7.32303	12.20505	0
795	-11.39138	16.2734	27.66478	-2.44101	-18.71441	22.78276	14.64606	-5.69569	-21.15542	-17.08707	-4.88202	12.20505	0
796	-8.95037	21.15542	30.10579	-7.32303	-18.71441	25.22377	14.64606	-8.1367	-21.15542	-14.64606	-2.44101	12.20505	0
797	-6.50936	26.03744	32.5468	-9.76404	-18.71441	30.10579	14.64606	-8.1367	-18.71441	-14.64606	-2.44101	12.20505	0
798	-4.06835	30.91946	34.98781	-14.64606	-18.71441	32.5468	14.64606	-8.1367	-18.71441	-12.20505	0.81367	17.08707	0
799	-6.50936	33.36047	39.86983	-14.64606	-23.59643	37.42882	14.64606	-10.57771	-18.71441	-12.20505	3.25468	19.52808	0
800	-6.50936	33.36047	39.86983	-14.64606	-23.59643	37.42882	14.64606	-10.57771	-16.2734	-9.76404	8.1367	24.4101	0
801	-6.50936	35.80148	42.31084	-14.64606	-23.59643	39.86983	12.20505	-8.1367	-11.39138	-7.32303	8.1367	24.4101	0
802	-1.62734	38.24249	39.86983	-19.52808	-21.15542	39.86983	7.32303	-5.69569	-11.39138	-4.88202	10.57771	24.4101	0
803	6.50936	40.6835	34.98781	-24.4101	-13.83239	39.86983	7.32303	-3.25468	-6.50936	-2.44101	13.01872	26.85111	0
804	8.95037	38.24249	30.10579	-24.4101	-11.39138	34.98781	4.88202	-0.81367	-4.06835	0	15.45973	26.85111	0
805	6.50936	33.36047	27.66478	-19.52808	-11.39138	32.5468	2.44101	-0.81367	-4.06835	0	15.45973	26.85111	0
806	4.06835	26.03744	22.78276	-14.64606	-8.95037	25.22377	0	-3.25468	-4.06835	-2.44101	15.45973	24.4101	0
807	4.06835	18.71441	15.45973	-12.20505	-6.50936	17.90074	-4.88202	-8.1367	-8.95037	-4.88202	15.45973	24.4101	0
808	6.50936	18.71441	13.01872	-12.20505	-4.06835	17.90074	-9.76404	-13.01872	-11.39138	-7.32303	13.01872	21.96909	0
809	4.06835	18.71441	15.45973	-12.20505	-6.50936	17.90074	-14.64606	-17.90074	-16.2734	-9.76404	10.57771	21.96909	0
810	1.62734	16.2734	15.45973	-9.76404	-6.50936	17.90074	-19.52808	-20.34175	-21.15542	-14.64606	8.1367	21.96909	0
811	-4.06835	16.2734	20.34175	-7.32303	-11.39138	17.90074	-24.4101	-22.78276	-26.03744	-17.08707	8.1367	21.96909	0
812	-8.95037	16.2734	25.22377	-4.88202	-16.2734	20.34175	-29.29212	-27.66478	-30.91946	-19.52808	8.1367	19.52808	0
813	-8.95037	18.71441	27.66478	-4.88202	-18.71441	22.78276	-36.61515	-32.5468	-33.36047	-24.4101	3.25468	17.08707	0
814	-4.06835	18.71441	22.78276	-7.32303	-13.83239	20.34175	-41.49717	-34.98781	-38.24249	-26.85111	0.81367	14.64606	0
815	-1.62734	21.15542	22.78276	-9.76404	-11.39138	22.78276	-41.49717	-34.98781	-38.24249	-26.85111	0.81367	14.64606	0
816	1.62734	23.59643	22.78276	-12.20505	-11.39138	25.22377	-41.49717	-34.98781	-40.6835	-29.29212	0.81367	14.64606	0
817	8.95037	23.59643	15.45973	-17.08707	-4.06835	20.34175	-43.93818	-37.42882	-45.56552	-31.73313	0.81367	12.20505	0
818	18.71441	23.59643	5.69569	-21.96909	6.50936	15.45973	-43.93818	-44.75185	-45.56552	-31.73313	0.81367	12.20505	0
819	23.59643	21.15542	-2.44101	-21.96909	13.83239	10.57771	-41.49717	-47.19286	-48.00653	-31.73313	0.81367	17.08707	0
820	23.59643	18.71441	-4.88202	-21.96909	13.83239	8.1367	-41.49717	-47.19286	-48.00653	-29.29212	-2.44101	19.52808	0
821	23.59643	13.83239	-9.76404	-19.52808	16.2734	3.25468	-41.49717	-44.75185	-45.56552	-26.85111	-2.44101	21.96909	0
822	21.15542	13.83239	-7.32303	-17.08707	13.83239	5.69569	-36.61515	-42.31084	-40.6835	-24.4101	-2.44101	26.85111	0
823	18.71441	11.39138	-7.32303	-14.64606	13.83239	3.25468	-36.61515	-42.31084	-40.6835	-24.4101	-2.44101	26.85111	0
824	16.2734	6.50936	-9.76404	-12.20505	13.83239	0	-34.17414	-44.75185	-38.24249	-21.96909	-4.88202	26.85111	0
825	13.83239	4.06835	-9.76404	-9.76404	11.39138	-2.44101	-31.73313	-42.31084	-35.80148	-21.96909	-7.32303	21.96909	0
826	6.50936	-1.62734	-7.32303	-2.44101	6.50936	-2.44101	-29.29212	-34.98781	-33.36047	-24.4101	-9.76404	19.52808	0
827	4.06835	-4.06835	-7.32303	0	4.06835	-4.88202	-21.96909	-30.10579	-30.91946	-26.85111	-12.20505	17.08707	0
828	4.06835	-8.95037	-12.20505	0	6.50936	-9.76404	-17.08707	-27.66478	-30.91946	-29.29212	-14.64606	14.64606	0
829	1.62734	-16.2734	-17.08707	5.69569	8.95037	-14.64606	-14.64606	-27.66478	-33.36047	-31.73313	-17.08707	12.20505	0
830	-1.62734	-23.59643	-21.96909	10.57771	8.95037	-21.96909	-9.76404	-30.10579	-35.80148	-34.17414	-17.08707	9.76404	0
831	-1.62734	-28.47845	-26.85111	13.01872	11.39138	-26.85111	-7.32303	-27.66478	-35.80148	-34.17414	-19.52808	9.76404	0
832	-4.06835	-33.36047	-29.29212	17.90074	11.39138	-31.73313	-7.32303	-25.22377	-35.80148	-39.05616	-21.96909	4.88202	0
833	-6.50936	-40.6835	-34.17414	22.78276	13.83239	-36.61515	-7.32303	-25.22377	-35.80148	-39.05616	-26.85111	2.44101	0
834	-11.39138	-48.00653	-36.61515	27.66478	11.39138	-41.49717	-7.32303	-27.66478	-35.80148	-39.05616	-29.29212	0	0
835	-11.39138	-48.00653	-36.61515	27.66478	11.39138	-41.49717	-7.32303	-27.66478	-35.80148	-41.49717	-29.29212	-4.88202	0
836	-13.83239	-52.88855	-39.05616	32.5468	11.39138	-46.37919	-7.32303	-27.66478	-35.80148	-43.93818	-31.73313	-7.32303	0
837	-13.83239	-52.88855	-39.05616	32.5468	11.39138	-46.37919	-7.32303	-27.66478	-35.80148	-48.8202	-34.17414	-10.57771	0
838	-13.83239	-52.88855	-39.05616	32.5468	11.39138	-46.37919	-7.32303	-30.10579	-35.80148	-51.26121	-34.17414	-13.01872	0
839	-11.39138	-55.32956	-43.93818	32.5468	16.2734	-48.8202	-7.32303	-30.10579	-40.6835	-53.70222	-36.61515	-20.34175	0
840	-11.39138	-57.77057	-46.37919	32.5468	16.2734	-51.26121	-7.32303	-30.10579	-40.6835	-53.70222	-39.05616	-20.34175	0
841	-13.83239	-60.21158	-46.37919	34.98781	16.2734	-53.70222	-4.88202	-25.22377	-40.6835	-53.70222	-41.49717	-22.78276	0
842	-11.39138	-60.21158	-48.8202	34.98781	18.71441	-53.70222	-2.44101	-22.78276	-40.6835	-53.70222	-41.49717	-25.22377	0
843	-13.83239	-57.77057	-43.93818	34.98781	13.83239	-51.26121	2.44101	-22.78276	-40.6835	-51.26121	-41.49717	-27.66478	0
844	-13.83239	-60.21158	-46.37919	34.98781	16.2734	-53.70222	2.44101	-20.34175	-40.6835	-51.26121	-43.93818	-27.66478	0
845	-13.83239	-62.65259	-48.8202	37.42882	16.2734	-56.14323	2.44101	-17.90074	-38.24249	-48.8202	-43.93818	-32.5468	0
846	-13.83239	-62.65259	-48.8202	37.42882	16.2734	-56.14323	4.88202	-15.45973	-38.24249	-46.37919	-43.93818	-32.5468	0
847	-13.83239	-62.65259	-48.8202	37.42882	16.2734	-56.14323	7.32303	-10.57771	-35.80148	-46.37919	-43.93818	-30.10579	0
848	-16.2734	-62.65259	-46.37919	37.42882	13.83239	-53.70222	9.76404	-8.1367	-33.36047	-41.49717	-41.49717	-30.10579	0
849	-16.2734	-62.65259	-46.37919	37.42882	13.83239	-53.70222	9.76404	-8.1367	-35.80148	-41.49717	-43.93818	-30.10579	0
850	-13.83239	-62.65259	-48.8202	37.42882	16.2734	-56.14323	9.76404	-8.1367	-35.80148	-39.05616	-43.93818	-27.66478	0
851	-18.71441	-60.21158	-41.49717	37.42882	11.39138	-51.26121	12.20505	-3.25468	-33.36047	-36.61515	-41.49717	-22.78276	0
852	-16.2734	-55.32956	-39.05616	34.98781	11.39138	-46.37919	14.64606	-3.25468	-28.47845	-34.17414	-41.49717	-22.78276	0
853	-18.71441	-55.32956	-36.61515	34.98781	8.95037	-46.37919	14.64606	-5.69569	-28.47845	-34.17414	-41.49717	-22.78276	0
854	-23.59643	-60.21158	-36.61515	39.86983	6.50936	-48.8202	14.64606	-8.1367	-28.47845	-31.73313	-41.49717	-20.34175	0
855	-26.03744	-60.21158	-34.17414	42.31084	4.06835	-46.37919	14.64606	-8.1367	-28.47845	-31.73313	-41.49717	-22.78276	0
856	-28.47845	-60.21158	-31.73313	42.31084	1.62734	-46.37919	14.64606	-10.57771	-28.47845	-31.73313	-41.49717	-22.78276	0
857	-23.59643	-55.32956	-31.73313	37.42882	4.06835	-43.93818	14.64606	-10.57771	-26.03744	-29.29212	-41.49717	-22.78276	0
858	-26.03744	-55.32956	-29.29212	39.86983	1.62734	-41.49717	14.64606	-10.57771	-23.59643	-26.85111	-39.05616	-20.34175	0
859	-26.03744	-57.77057	-31.73313	39.86983	1.62734	-43.93818	12.20505	-13.01872	-26.03744	-26.85111	-39.05616	-20.34175	0
860	-23.59643	-62.65259	-39.05616	42.31084	6.50936	-51.26121	9.76404	-13.01872	-26.03744	-26.85111	-41.49717	-20.34175	0
861	-23.59643	-62.65259	-39.05616	42.31084	6.50936	-51.26121	9.76404	-10.57771	-26.03744	-26.85111	-41.49717	-20.34175	0
862	-23.59643	-62.65259	-39.05616	42.31084	6.50936	-51.26121	9.76404	-8.1367	-23.59643	-26.85111	-41.49717	-20.34175	0
863	-21.15542	-60.21158	-39.05616	39.86983	8.95037	-48.8202	9.76404	-8.1367	-21.15542	-21.96909	-39.05616	-17.90074	0
864	-16.2734	-57.77057	-41.49717	34.98781	11.39138	-48.8202	9.76404	-8.1367	-21.15542	-21.96909	-39.05616	-15.45973	0
865	-16.2734	-57.77057	-41.49717	34.98781	11.39138	-48.8202	9.76404	-8.1367	-21.15542	-21.96909	-39.05616	-15.45973	0
866	-21.15542	-60.21158	-39.05616	39.86983	8.95037	-48.8202	12.20505	-8.1367	-21.15542	-21.96909	-36.61515	-15.45973	0
867	-21.15542	-60.21158	-39.05616	39.86983	8.95037	-48.8202	12.20505	-8.1367	-18.71441	-21.96909	-34.17414	-13.01872	0
868	-23.59643	-60.21158	-36.61515	39.86983	6.50936	-48.8202	12.20505	-10.57771	-18.71441	-21.96909	-34.17414	-13.01872	0
869	-23.59643	-60.21158	-36.61515	39.86983	6.50936	-48.8202	14.64606	-13.01872	-18.71441	-19.52808	-34.17414	-10.57771	0
870	-23.59643	-57.77057	-34.17414	39.86983	4.06835	-46.37919	17.08707	-8.1367	-18.71441	-19.52808	-31.73313	-10.57771	0
871	-23.59643	-55.32956	-31.73313	37.42882	4.06835	-43.93818	17.08707	-5.69569	-16.2734	-19.52808	-31.73313	-10.57771	0
872	-21.15542	-52.88855	-31.73313	34.98781	4.06835	-41.49717	19.52808	-5.69569	-16.2734	-19.52808	-31.73313	-7.32303	0
873	-21.15542	-52.88855	-31.73313	34.98781	4.06835	-41.49717	19.52808	-5.69569	-13.83239	-17.08707	-29.29212	-7.32303	0
874	-21.15542	-52.88855	-31.73313	34.98781	4.06835	-41.49717	19.52808	-8.1367	-13.83239	-17.08707	-29.29212	-10.57771	0
875	-16.2734	-50.44754	-34.17414	32.5468	8.95037	-41.49717	21.96909	-8.1367	-13.83239	-17.08707	-26.85111	-10.57771	0
876	-13.83239	-48.00653	-34.17414	30.10579	8.95037	-41.49717	21.96909	-5.69569	-8.95037	-17.08707	-24.4101	-10.57771	0
877	-13.83239	-48.00653	-34.17414	30.10579	8.95037	-41.49717	25.22377	-3.25468	-6.50936	-19.52808	-21.96909	-10.57771	0
878	-13.83239	-50.44754	-36.61515	30.10579	11.39138	-43.93818	30.10579	-0.81367	-4.06835	-19.52808	-24.4101	-15.45973	0
879	-16.2734	-55.32956	-39.05616	34.98781	11.39138	-46.37919	34.98781	1.62734	-4.06835	-21.96909	-29.29212	-22.78276	0
880	-23.59643	-65.0936	-41.49717	42.31084	8.95037	-53.70222	39.86983	8.95037	-1.62734	-29.29212	-36.61515	-30.10579	0
881	-23.59643	-69.97562	-46.37919	44.75185	11.39138	-58.58424	47.19286	16.2734	3.25468	-36.61515	-46.37919	-42.31084	0
882	-23.59643	-69.97562	-46.37919	44.75185	11.39138	-58.58424	52.07488	26.03744	3.25468	-43.93818	-56.14323	-54.51589	0
883	-23.59643	-74.85764	-51.26121	47.19286	13.83239	-63.46626	56.9569	35.80148	5.69569	-51.26121	-65.90727	-64.27993	0
884	-26.03744	-79.73966	-53.70222	52.07488	13.83239	-65.90727	69.16195	50.44754	5.69569	-58.58424	-75.67131	-103.33609	0
885	-26.03744	-84.62168	-58.58424	54.51589	16.2734	-70.78929	81.367	68.34828	13.01872	-68.34828	-85.43535	-122.86417	0
886	-16.2734	-91.94471	-75.67131	52.07488	28.47845	-82.99434	71.60296	45.56552	0.81367	-78.11232	-112.28646	-120.42316	0
887	-38.24249	-94.38572	-56.14323	64.27993	8.95037	-75.67131	71.60296	40.6835	-4.06835	-82.99434	-109.84545	-108.21811	0
888	-38.24249	-84.62168	-46.37919	59.39791	4.06835	-65.90727	59.39791	28.47845	-28.47845	-82.99434	-90.31737	-81.367	0
889	8.95037	-104.14976	-112.28646	47.19286	60.21158	-107.40444	27.66478	-3.25468	-43.12451	-80.55333	-82.99434	-69.16195	0
890	55.32956	-109.03178	-163.54767	25.22377	109.03178	-134.25555	9.76404	-17.90074	-45.56552	-75.67131	-61.02525	-27.66478	0
891	50.44754	-126.11885	-175.75272	37.42882	111.47279	-148.90161	-2.44101	-47.19286	-55.32956	-75.67131	-26.85111	21.96909	0
892	87.06269	-138.3239	-224.57292	25.22377	155.41097	-180.63474	-56.14323	-122.86417	-96.82673	-75.67131	3.25468	61.02525	0
893	126.11885	-126.11885	-251.42403	0	187.1441	-187.95777	-148.90161	-210.74053	-148.08794	-70.78929	61.83892	124.49151	0
894	182.26208	-87.06269	-268.5111	-48.8202	223.75925	-175.75272	-234.33696	-337.67305	-238.40531	-65.90727	100.89508	205.04484	0
895	218.87723	-84.62168	-302.68524	-68.34828	260.3744	-192.83979	-339.30039	-523.18981	-379.98389	-65.90727	154.5973	248.98302	0
896	253.05137	-52.88855	-305.12625	-100.08141	277.46147	-178.19373	-461.35089	-716.0296	-506.91641	-95.19939	181.44841	324.65433	0
897	275.02046	8.95037	-266.07009	-141.57858	270.13844	-126.93252	-566.31432	-874.69525	-597.23378	-63.46626	269.32477	446.70483	0
898	353.13278	77.29865	-275.83413	-214.80888	314.07662	-97.6404	-683.4828	-1043.12494	-716.84327	-87.87636	318.14497	524.81715	0
899	345.80975	170.05703	-175.75272	-258.74706	260.3744	-2.44101	-754.27209	-1165.17544	-804.71963	-90.31737	366.96517	620.01654	0
900	394.62995	257.93339	-136.69656	-327.09534	265.25642	61.83892	-856.79451	-1282.34392	-882.83195	-78.11232	437.75446	737.18502	0
901	443.45015	353.13278	-90.31737	-397.88463	267.69743	132.62821	-976.404	-1419.04048	-1004.88245	-90.31737	493.89769	825.06138	0
902	465.41924	353.13278	-112.28646	-410.08968	289.66652	122.86417	-1010.57814	-1467.86068	-1051.26164	-58.58424	535.39486	881.20461	0
903	470.30126	355.57379	-114.72747	-412.53069	292.10753	122.86417	-998.37309	-1472.7427	-1080.55376	-73.2303	520.7488	866.55855	0
904	416.59904	326.28167	-90.31737	-371.03352	253.05137	120.42316	-1003.25511	-1521.5629	-1134.25598	-270.95211	452.40052	788.44623	0
905	401.95298	323.84066	-78.11232	-363.71049	240.84632	125.30518	-1005.69612	-1563.06007	-1234.33739	-353.94645	293.73487	644.42664	0
906	284.7845	265.25642	-19.52808	-275.83413	152.96996	125.30518	-951.9939	-1563.06007	-1329.53678	-475.99695	44.75185	410.08968	0
907	187.1441	201.79016	15.45973	-195.2808	87.06269	110.65912	-849.47148	-1475.18371	-1334.4188	-624.89856	-183.07575	156.22464	0
908	123.67784	167.61602	44.75185	-146.4606	40.6835	108.21811	-739.62603	-1382.42533	-1322.21375	-737.18502	-353.94645	-52.07488	0
909	-16.2734	84.62168	100.89508	-34.17414	-57.77057	93.57205	-649.30866	-1279.90291	-1278.27557	-788.44623	-436.94079	-154.5973	0
910	-77.29865	96.82673	174.12538	-9.76404	-126.11885	135.06922	-573.63735	-1167.61645	-1197.72224	-795.76926	-480.87897	-205.85851	0
911	-94.38572	87.06269	181.44841	3.25468	-138.3239	135.06922	-490.64301	-1006.50979	-1058.58467	-744.50805	-468.67392	-237.59164	0
912	-79.73966	69.97562	149.71528	3.25468	-113.9138	110.65912	-395.44362	-842.96212	-897.47801	-641.98563	-429.61776	-240.03265	0
913	-55.32956	60.21158	115.54114	-2.44101	-84.62168	88.69003	-270.95211	-633.03526	-699.7562	-505.28907	-336.85938	-198.53548	0
914	-60.21158	1.62734	61.83892	27.66478	-60.21158	32.5468	-180.63474	-459.72355	-509.35742	-378.35655	-256.30605	-174.12538	0
915	-74.85764	-21.15542	54.51589	47.19286	-65.0936	17.90074	-124.49151	-313.26295	-353.13278	-253.86504	-175.75272	-157.03831	0
916	-52.88855	-11.39138	42.31084	30.10579	-48.00653	15.45973	-58.58424	-193.65346	-209.11319	-141.57858	-141.57858	-108.21811	0
917	-30.91946	-1.62734	30.10579	15.45973	-30.91946	15.45973	-19.52808	-122.86417	-133.44188	-70.78929	-85.43535	-93.57205	0
918	-26.03744	-6.50936	20.34175	15.45973	-23.59643	8.1367	-4.88202	-74.04397	-94.38572	-51.26121	-19.52808	-71.60296	0
919	-18.71441	-8.95037	10.57771	13.01872	-16.2734	0	12.20505	-47.19286	-57.77057	-19.52808	-2.44101	-49.63387	0
920	-11.39138	-8.95037	3.25468	8.1367	-8.95037	-2.44101	37.42882	-10.57771	-6.50936	30.10579	39.86983	-34.98781	0
921	-8.95037	-11.39138	-2.44101	8.1367	-4.06835	-7.32303	66.72094	28.47845	42.31084	74.04397	71.60296	-25.22377	0
922	-8.95037	-16.2734	-7.32303	10.57771	-1.62734	-12.20505	54.51589	35.80148	60.21158	98.45407	74.04397	-17.90074	0
923	-8.95037	-18.71441	-9.76404	13.01872	-1.62734	-14.64606	69.16195	56.14323	67.53461	100.89508	81.367	-13.01872	0
924	-11.39138	-21.15542	-9.76404	15.45973	-1.62734	-14.64606	59.39791	75.67131	87.06269	100.89508	78.92599	-10.57771	0
925	-11.39138	-23.59643	-12.20505	15.45973	-1.62734	-17.08707	61.83892	75.67131	87.06269	96.01306	78.92599	-10.57771	0
926	-6.50936	-23.59643	-17.08707	13.01872	4.06835	-19.52808	61.83892	61.02525	94.38572	100.89508	81.367	-10.57771	0
927	-6.50936	-23.59643	-17.08707	13.01872	4.06835	-19.52808	64.27993	68.34828	94.38572	100.89508	81.367	-13.01872	0
928	-6.50936	-23.59643	-17.08707	13.01872	4.06835	-19.52808	66.72094	73.2303	101.70875	103.33609	83.80801	-15.45973	0
929	-6.50936	-23.59643	-17.08707	13.01872	4.06835	-19.52808	69.16195	73.2303	104.14976	105.7771	83.80801	-15.45973	0
930	-6.50936	-23.59643	-17.08707	13.01872	4.06835	-19.52808	71.60296	78.11232	109.03178	105.7771	83.80801	-15.45973	0
931	-6.50936	-26.03744	-19.52808	15.45973	6.50936	-21.96909	71.60296	82.99434	113.9138	108.21811	83.80801	-17.90074	0
932	-8.95037	-28.47845	-19.52808	17.90074	4.06835	-24.4101	74.04397	90.31737	118.79582	110.65912	83.80801	-17.90074	0
933	-4.06835	-23.59643	-19.52808	13.01872	6.50936	-21.96909	76.48498	97.6404	126.11885	113.10013	83.80801	-17.90074	0
934	-4.06835	-26.03744	-21.96909	13.01872	8.95037	-24.4101	78.92599	97.6404	128.55986	115.54114	83.80801	-17.90074	0
935	-4.06835	-28.47845	-24.4101	15.45973	8.95037	-26.85111	81.367	100.08141	131.00087	115.54114	83.80801	-20.34175	0
936	-4.06835	-30.91946	-26.85111	15.45973	11.39138	-29.29212	83.80801	102.52242	133.44188	115.54114	83.80801	-20.34175	0
937	-1.62734	-30.91946	-29.29212	15.45973	13.83239	-29.29212	86.24902	104.96343	135.88289	113.10013	86.24902	-20.34175	0
938	-1.62734	-30.91946	-29.29212	15.45973	13.83239	-29.29212	88.69003	104.96343	135.88289	115.54114	88.69003	-17.90074	0
939	-1.62734	-28.47845	-26.85111	13.01872	11.39138	-26.85111	91.13104	104.96343	135.88289	117.98215	88.69003	-17.90074	0
940	-1.62734	-26.03744	-24.4101	13.01872	11.39138	-24.4101	91.13104	104.96343	138.3239	117.98215	88.69003	-15.45973	0
941	-1.62734	-26.03744	-24.4101	13.01872	11.39138	-24.4101	88.69003	107.40444	140.76491	117.98215	88.69003	-15.45973	0
942	-6.50936	-28.47845	-21.96909	15.45973	6.50936	-24.4101	86.24902	107.40444	140.76491	117.98215	88.69003	-17.90074	0
943	-11.39138	-28.47845	-17.08707	17.90074	1.62734	-21.96909	86.24902	107.40444	145.64693	122.86417	88.69003	-17.90074	0
944	-11.39138	-28.47845	-17.08707	17.90074	1.62734	-21.96909	86.24902	109.84545	148.08794	122.86417	88.69003	-17.90074	0
945	-11.39138	-28.47845	-17.08707	17.90074	1.62734	-21.96909	83.80801	112.28646	148.08794	125.30518	88.69003	-20.34175	0
946	-13.83239	-30.91946	-17.08707	20.34175	1.62734	-24.4101	83.80801	112.28646	148.08794	125.30518	88.69003	-20.34175	0
947	-13.83239	-30.91946	-17.08707	20.34175	1.62734	-24.4101	83.80801	112.28646	148.08794	122.86417	86.24902	-22.78276	0
948	-11.39138	-30.91946	-19.52808	20.34175	4.06835	-24.4101	83.80801	112.28646	148.08794	122.86417	86.24902	-22.78276	0
949	-11.39138	-30.91946	-19.52808	20.34175	4.06835	-24.4101	83.80801	112.28646	148.08794	122.86417	86.24902	-22.78276	0
950	-6.50936	-30.91946	-24.4101	17.90074	8.95037	-26.85111	83.80801	114.72747	150.52895	122.86417	86.24902	-20.34175	0
951	-6.50936	-28.47845	-21.96909	15.45973	6.50936	-24.4101	83.80801	117.16848	152.96996	125.30518	86.24902	-17.90074	0
952	-4.06835	-28.47845	-24.4101	15.45973	8.95037	-26.85111	81.367	119.60949	152.96996	125.30518	86.24902	-17.90074	0
953	-4.06835	-28.47845	-24.4101	15.45973	8.95037	-26.85111	81.367	122.0505	157.85198	127.74619	86.24902	-17.90074	0
954	-4.06835	-28.47845	-24.4101	15.45973	8.95037	-26.85111	81.367	122.0505	160.29299	130.1872	88.69003	-15.45973	0
955	-4.06835	-28.47845	-24.4101	15.45973	8.95037	-26.85111	78.92599	124.49151	162.734	132.62821	88.69003	-15.45973	0
956	-4.06835	-26.03744	-21.96909	13.01872	8.95037	-24.4101	78.92599	126.93252	165.17501	132.62821	91.13104	-15.45973	0
957	-4.06835	-23.59643	-19.52808	13.01872	6.50936	-21.96909	83.80801	131.81454	167.61602	132.62821	91.13104	-15.45973	0
958	-6.50936	-23.59643	-17.08707	13.01872	4.06835	-19.52808	86.24902	134.25555	167.61602	132.62821	91.13104	-15.45973	0
959	-6.50936	-26.03744	-19.52808	15.45973	6.50936	-21.96909	86.24902	134.25555	167.61602	135.06922	91.13104	-15.45973	0
960	-6.50936	-26.03744	-19.52808	15.45973	6.50936	-21.96909	91.13104	134.25555	170.05703	135.06922	91.13104	-13.01872	0
961	-8.95037	-23.59643	-14.64606	15.45973	1.62734	-19.52808	93.57205	134.25555	170.05703	137.51023	91.13104	-13.01872	0
962	-8.95037	-23.59643	-14.64606	15.45973	1.62734	-19.52808	96.01306	131.81454	172.49804	137.51023	91.13104	-15.45973	0
963	-8.95037	-23.59643	-14.64606	15.45973	1.62734	-19.52808	96.01306	134.25555	177.38006	142.39225	91.13104	-15.45973	0
964	-6.50936	-23.59643	-17.08707	13.01872	4.06835	-19.52808	96.01306	136.69656	179.82107	144.83326	91.13104	-17.90074	0
965	-4.06835	-21.15542	-17.08707	10.57771	6.50936	-19.52808	96.01306	136.69656	182.26208	147.27427	91.13104	-20.34175	0
966	-4.06835	-21.15542	-17.08707	10.57771	6.50936	-19.52808	93.57205	136.69656	182.26208	149.71528	91.13104	-20.34175	0
967	-6.50936	-21.15542	-14.64606	13.01872	4.06835	-17.08707	91.13104	131.81454	182.26208	149.71528	91.13104	-22.78276	0
968	-6.50936	-21.15542	-14.64606	13.01872	4.06835	-17.08707	91.13104	131.81454	184.70309	149.71528	91.13104	-22.78276	0
969	-8.95037	-23.59643	-14.64606	15.45973	1.62734	-19.52808	88.69003	131.81454	184.70309	149.71528	88.69003	-25.22377	0
970	-8.95037	-26.03744	-17.08707	15.45973	4.06835	-21.96909	86.24902	136.69656	184.70309	149.71528	86.24902	-25.22377	0
971	-4.06835	-23.59643	-19.52808	13.01872	6.50936	-21.96909	86.24902	141.57858	184.70309	147.27427	83.80801	-25.22377	0
972	-1.62734	-21.15542	-19.52808	10.57771	8.95037	-19.52808	86.24902	141.57858	184.70309	147.27427	81.367	-25.22377	0
973	-4.06835	-21.15542	-17.08707	10.57771	6.50936	-19.52808	86.24902	144.01959	187.1441	147.27427	81.367	-25.22377	0
974	-4.06835	-23.59643	-19.52808	13.01872	6.50936	-21.96909	86.24902	146.4606	189.58511	147.27427	81.367	-25.22377	0
975	-1.62734	-18.71441	-17.08707	8.1367	6.50936	-17.08707	88.69003	151.34262	194.46713	149.71528	83.80801	-25.22377	0
976	4.06835	-13.83239	-17.08707	3.25468	8.95037	-14.64606	91.13104	156.22464	196.90814	152.15629	86.24902	-22.78276	0
977	6.50936	-16.2734	-21.96909	3.25468	13.83239	-17.08707	91.13104	161.10666	199.34915	149.71528	86.24902	-20.34175	0
978	6.50936	-16.2734	-21.96909	3.25468	13.83239	-17.08707	93.57205	165.98868	199.34915	152.15629	91.13104	-17.90074	0
979	6.50936	-16.2734	-21.96909	3.25468	13.83239	-17.08707	98.45407	170.8707	201.79016	154.5973	93.57205	-13.01872	0
980	4.06835	-18.71441	-21.96909	5.69569	11.39138	-19.52808	100.89508	173.31171	204.23117	157.03831	96.01306	-13.01872	0
981	4.06835	-18.71441	-21.96909	5.69569	11.39138	-19.52808	100.89508	175.75272	206.67218	157.03831	96.01306	-10.57771	0
982	4.06835	-18.71441	-21.96909	5.69569	11.39138	-19.52808	100.89508	178.19373	206.67218	157.03831	96.01306	-10.57771	0
983	4.06835	-18.71441	-21.96909	5.69569	11.39138	-19.52808	100.89508	178.19373	209.11319	157.03831	93.57205	-10.57771	0
984	-1.62734	-21.15542	-19.52808	10.57771	8.95037	-19.52808	100.89508	178.19373	211.5542	157.03831	93.57205	-13.01872	0
985	-1.62734	-21.15542	-19.52808	10.57771	8.95037	-19.52808	100.89508	183.07575	211.5542	159.47932	93.57205	-15.45973	0
986	-1.62734	-16.2734	-14.64606	8.1367	6.50936	-14.64606	100.89508	185.51676	216.43622	161.92033	98.45407	-15.45973	0
987	-1.62734	-13.83239	-12.20505	5.69569	4.06835	-12.20505	100.89508	190.39878	218.87723	161.92033	98.45407	-15.45973	0
988	-1.62734	-8.95037	-7.32303	3.25468	1.62734	-7.32303	100.89508	192.83979	221.31824	164.36134	100.89508	-13.01872	0
989	-1.62734	-4.06835	-2.44101	0	-1.62734	-2.44101	100.89508	197.72181	223.75925	166.80235	103.33609	-13.01872	0
990	-1.62734	-1.62734	0	0	-1.62734	0	100.89508	202.60383	226.20026	169.24336	103.33609	-10.57771	0
991	-1.62734	1.62734	3.25468	0	-1.62734	3.25468	103.33609	209.92686	231.08228	169.24336	105.7771	-10.57771	0
992	-1.62734	4.06835	5.69569	-2.44101	-4.06835	5.69569	103.33609	214.80888	233.52329	169.24336	108.21811	-10.57771	0
993	4.06835	4.06835	0	-4.88202	1.62734	3.25468	103.33609	222.13191	238.40531	171.68437	108.21811	-10.57771	0
994	4.06835	6.50936	3.25468	-4.88202	1.62734	5.69569	108.21811	227.01393	240.84632	171.68437	105.7771	-10.57771	0
995	4.06835	6.50936	3.25468	-4.88202	1.62734	5.69569	110.65912	227.01393	243.28733	171.68437	105.7771	-10.57771	0
996	1.62734	6.50936	5.69569	-4.88202	-1.62734	8.1367	113.10013	227.01393	243.28733	171.68437	105.7771	-10.57771	0
997	-1.62734	6.50936	8.1367	-2.44101	-4.06835	8.1367	113.10013	227.01393	243.28733	171.68437	103.33609	-13.01872	0
998	-1.62734	6.50936	8.1367	-2.44101	-4.06835	8.1367	115.54114	229.45494	245.72834	171.68437	103.33609	-13.01872	0
999	-1.62734	6.50936	8.1367	-2.44101	-4.06835	8.1367	115.54114	236.77797	245.72834	171.68437	103.33609	-13.01872	0
1000	-6.50936	4.06835	10.57771	0	-8.95037	8.1367	115.54114	239.21898	250.61036	174.12538	105.7771	-10.57771	0
1001	-11.39138	4.06835	15.45973	3.25468	-13.83239	10.57771	115.54114	244.101	250.61036	174.12538	105.7771	-10.57771	0
1002	-11.39138	6.50936	17.90074	0	-13.83239	13.01872	115.54114	246.54201	253.05137	176.56639	105.7771	-10.57771	0
1003	-8.95037	8.95037	17.90074	0	-13.83239	13.01872	113.10013	248.98302	257.93339	176.56639	103.33609	-10.57771	0
1004	-6.50936	13.83239	20.34175	-4.88202	-13.83239	17.90074	113.10013	253.86504	257.93339	179.0074	100.89508	-10.57771	0
1005	-1.62734	18.71441	20.34175	-9.76404	-11.39138	20.34175	110.65912	261.18807	260.3744	181.44841	100.89508	-13.01872	0
1006	-1.62734	21.15542	22.78276	-9.76404	-11.39138	22.78276	110.65912	266.07009	262.81541	181.44841	98.45407	-13.01872	0
1007	1.62734	23.59643	22.78276	-12.20505	-11.39138	25.22377	110.65912	266.07009	265.25642	181.44841	96.01306	-13.01872	0
1008	6.50936	28.47845	22.78276	-17.08707	-8.95037	27.66478	110.65912	266.07009	267.69743	181.44841	96.01306	-13.01872	0
1009	13.83239	33.36047	20.34175	-24.4101	-4.06835	27.66478	113.10013	268.5111	267.69743	181.44841	91.13104	-13.01872	0
1010	16.2734	35.80148	20.34175	-26.85111	-1.62734	30.10579	113.10013	270.95211	267.69743	179.0074	88.69003	-13.01872	0
