samplenr	I	II	III	aVR	aVL	aVF	V1	V2	V3	V4	V5	V6	measurement
0	80.55333	-139.95124	-221.31824	27.66478	150.52895	-179.82107	-21.96909	242.47366	293.73487	338.48672	313.26295	-15.45973	0
1	78.11232	-142.39225	-221.31824	30.10579	148.08794	-182.26208	-19.52808	240.03265	293.73487	333.6047	308.38093	-17.90074	0
2	75.67131	-144.83326	-221.31824	32.5468	148.08794	-182.26208	-19.52808	240.03265	291.29386	333.6047	301.0579	-25.22377	0
3	70.78929	-149.71528	-221.31824	37.42882	145.64693	-184.70309	-14.64606	240.03265	286.41184	328.72268	296.17588	-34.98781	0
4	65.90727	-149.71528	-216.43622	39.86983	140.76491	-182.26208	-12.20505	242.47366	286.41184	323.84066	291.29386	-39.86983	0
5	63.46626	-149.71528	-213.99521	42.31084	138.3239	-182.26208	-7.32303	242.47366	283.97083	323.84066	288.85285	-42.31084	0
6	63.46626	-149.71528	-213.99521	42.31084	138.3239	-182.26208	0	242.47366	288.85285	321.39965	286.41184	-44.75185	0
7	63.46626	-147.27427	-211.5542	39.86983	135.88289	-179.82107	0	242.47366	286.41184	323.84066	286.41184	-44.75185	0
8	63.46626	-142.39225	-206.67218	37.42882	133.44188	-174.93905	2.44101	244.91467	283.97083	323.84066	286.41184	-44.75185	0
9	65.90727	-135.06922	-201.79016	32.5468	133.44188	-167.61602	4.88202	247.35568	281.52982	323.84066	288.85285	-47.19286	0
10	63.46626	-135.06922	-199.34915	34.98781	131.00087	-167.61602	9.76404	244.91467	281.52982	321.39965	291.29386	-44.75185	0
11	61.02525	-135.06922	-196.90814	34.98781	128.55986	-165.17501	12.20505	240.03265	281.52982	318.95864	288.85285	-44.75185	0
12	58.58424	-137.51023	-196.90814	37.42882	126.11885	-167.61602	12.20505	235.15063	279.08881	318.95864	286.41184	-44.75185	0
13	61.02525	-137.51023	-199.34915	37.42882	128.55986	-167.61602	12.20505	235.15063	274.20679	318.95864	286.41184	-49.63387	0
14	63.46626	-137.51023	-201.79016	34.98781	131.00087	-170.05703	17.08707	235.15063	274.20679	316.51763	286.41184	-47.19286	0
15	58.58424	-142.39225	-201.79016	39.86983	128.55986	-172.49804	21.96909	232.70962	274.20679	316.51763	288.85285	-44.75185	0
16	58.58424	-142.39225	-201.79016	39.86983	128.55986	-172.49804	24.4101	230.26861	276.6478	318.95864	288.85285	-39.86983	0
17	63.46626	-142.39225	-206.67218	37.42882	133.44188	-174.93905	21.96909	230.26861	276.6478	321.39965	288.85285	-37.42882	0
18	65.90727	-139.95124	-206.67218	34.98781	135.88289	-172.49804	21.96909	232.70962	276.6478	321.39965	288.85285	-37.42882	0
19	61.02525	-137.51023	-199.34915	37.42882	128.55986	-167.61602	21.96909	235.15063	276.6478	323.84066	293.73487	-34.98781	0
20	58.58424	-137.51023	-196.90814	37.42882	126.11885	-167.61602	21.96909	235.15063	276.6478	323.84066	296.17588	-34.98781	0
21	58.58424	-137.51023	-196.90814	37.42882	126.11885	-167.61602	21.96909	230.26861	276.6478	321.39965	293.73487	-32.5468	0
22	58.58424	-137.51023	-196.90814	37.42882	126.11885	-167.61602	17.08707	230.26861	276.6478	323.84066	291.29386	-37.42882	0
23	58.58424	-135.06922	-194.46713	37.42882	126.11885	-165.17501	17.08707	230.26861	274.20679	323.84066	291.29386	-39.86983	0
24	58.58424	-132.62821	-192.02612	34.98781	123.67784	-162.734	17.08707	235.15063	276.6478	321.39965	291.29386	-39.86983	0
25	58.58424	-132.62821	-192.02612	34.98781	123.67784	-162.734	17.08707	235.15063	281.52982	321.39965	293.73487	-37.42882	0
26	61.02525	-130.1872	-192.02612	32.5468	126.11885	-160.29299	17.08707	235.15063	286.41184	326.28167	293.73487	-32.5468	0
27	63.46626	-127.74619	-192.02612	30.10579	126.11885	-160.29299	14.64606	235.15063	286.41184	331.16369	291.29386	-32.5468	0
28	61.02525	-125.30518	-187.1441	30.10579	123.67784	-155.41097	12.20505	240.03265	288.85285	333.6047	293.73487	-32.5468	0
29	61.02525	-122.86417	-184.70309	30.10579	121.23683	-152.96996	9.76404	242.47366	288.85285	333.6047	298.61689	-32.5468	0
30	61.02525	-122.86417	-184.70309	30.10579	121.23683	-152.96996	4.88202	244.91467	288.85285	333.6047	301.0579	-30.10579	0
31	61.02525	-120.42316	-182.26208	27.66478	121.23683	-150.52895	4.88202	244.91467	291.29386	331.16369	301.0579	-32.5468	0
32	63.46626	-120.42316	-184.70309	27.66478	123.67784	-152.96996	0	244.91467	291.29386	331.16369	298.61689	-37.42882	0
33	65.90727	-125.30518	-192.02612	27.66478	128.55986	-157.85198	-4.88202	247.35568	286.41184	331.16369	298.61689	-42.31084	0
34	65.90727	-130.1872	-196.90814	30.10579	131.00087	-162.734	-4.88202	249.79669	286.41184	326.28167	296.17588	-42.31084	0
35	65.90727	-137.51023	-204.23117	34.98781	133.44188	-170.05703	-7.32303	247.35568	288.85285	326.28167	293.73487	-39.86983	0
36	61.02525	-144.83326	-206.67218	39.86983	133.44188	-174.93905	-2.44101	247.35568	296.17588	331.16369	293.73487	-34.98781	0
37	61.02525	-147.27427	-209.11319	42.31084	133.44188	-177.38006	-2.44101	252.2377	296.17588	336.04571	293.73487	-34.98781	0
38	58.58424	-152.15629	-211.5542	44.75185	133.44188	-182.26208	-2.44101	254.67871	293.73487	338.48672	293.73487	-34.98781	0
39	53.70222	-152.15629	-206.67218	47.19286	128.55986	-179.82107	-2.44101	257.11972	293.73487	338.48672	298.61689	-32.5468	0
40	53.70222	-149.71528	-204.23117	47.19286	128.55986	-177.38006	-2.44101	259.56073	296.17588	340.92773	303.49891	-27.66478	0
41	58.58424	-144.83326	-204.23117	42.31084	131.00087	-174.93905	-2.44101	257.11972	298.61689	343.36874	305.93992	-22.78276	0
42	58.58424	-139.95124	-199.34915	39.86983	128.55986	-170.05703	-7.32303	257.11972	298.61689	348.25076	310.82194	-22.78276	0
43	61.02525	-137.51023	-199.34915	37.42882	128.55986	-167.61602	-12.20505	257.11972	296.17588	348.25076	315.70396	-20.34175	0
44	63.46626	-135.06922	-199.34915	34.98781	131.00087	-167.61602	-12.20505	257.11972	301.0579	345.80975	318.14497	-13.01872	0
45	65.90727	-135.06922	-201.79016	32.5468	133.44188	-167.61602	-14.64606	257.11972	305.93992	350.69177	320.58598	-5.69569	0
46	63.46626	-137.51023	-201.79016	34.98781	131.00087	-170.05703	-12.20505	257.11972	313.26295	355.57379	320.58598	-0.81367	0
47	61.02525	-142.39225	-204.23117	39.86983	131.00087	-172.49804	-12.20505	264.44275	320.58598	365.33783	320.58598	-0.81367	0
48	61.02525	-142.39225	-204.23117	39.86983	131.00087	-172.49804	-7.32303	279.08881	335.23204	379.98389	327.90901	-3.25468	0
49	63.46626	-142.39225	-206.67218	37.42882	133.44188	-174.93905	2.44101	305.93992	364.52416	404.39399	344.99608	-5.69569	0
50	65.90727	-152.15629	-218.87723	42.31084	140.76491	-184.70309	12.20505	342.55507	406.02133	438.56813	362.08315	-10.57771	0
51	70.78929	-164.36134	-235.9643	44.75185	152.96996	-199.34915	24.4101	388.93426	462.16456	482.50631	381.61123	-20.34175	0
52	80.55333	-179.0074	-260.3744	47.19286	170.05703	-218.87723	39.05616	449.95951	532.95385	541.09055	410.90335	-27.66478	0
53	87.87636	-191.21245	-279.90248	49.63387	182.26208	-235.9643	53.70222	523.18981	615.94819	614.32085	454.84153	-27.66478	0
54	100.08141	-198.53548	-299.43056	47.19286	199.34915	-248.16935	71.60296	606.18415	718.47061	699.7562	513.42577	-15.45973	0
55	109.84545	-200.97649	-311.63561	44.75185	209.11319	-255.49238	88.69003	691.6195	833.19808	807.16064	584.21506	8.95037	0
56	122.0505	-186.33043	-309.1946	30.10579	213.99521	-248.16935	110.65912	796.58293	969.89464	941.41619	681.85546	52.88855	0
57	139.13757	-149.71528	-289.66652	4.88202	213.99521	-218.87723	132.62821	918.63343	1118.79625	1092.75881	799.02394	113.9138	0
58	158.66565	-98.45407	-257.93339	-31.73313	206.67218	-177.38006	149.71528	1030.91989	1265.25685	1258.74749	945.48454	192.02612	0
59	183.07575	-31.73313	-216.43622	-75.67131	199.34915	-123.67784	159.47932	1123.67827	1406.83543	1436.94122	1116.35524	289.66652	0
60	209.92686	51.26121	-160.29299	-131.81454	184.70309	-55.32956	159.47932	1172.49847	1524.00391	1622.45798	1316.51806	411.71702	0
61	239.21898	146.4606	-94.38572	-192.83979	167.61602	26.03744	139.95124	1155.4114	1599.67522	1802.27905	1531.32694	553.2956	0
62	275.83413	248.98302	-27.66478	-263.62908	152.96996	111.47279	96.01306	1062.65302	1616.76229	1956.06268	1745.32215	707.07923	0
63	314.89029	356.38746	40.6835	-336.85938	138.3239	199.34915	29.29212	877.13626	1555.73704	2065.90813	1945.48497	860.86286	0
64	344.18241	458.90988	113.9138	-402.76665	116.35481	287.22551	-61.02525	603.74314	1419.04048	2107.4053	2113.91466	1014.64649	0
65	373.47453	556.55028	182.26208	-466.23291	96.82673	370.21985	-170.8707	252.2377	1196.90857	2065.90813	2218.87809	1151.34305	0
66	397.88463	644.42664	245.72834	-522.37614	77.29865	445.89116	-295.36221	-173.31171	874.69525	1899.91945	2216.43708	1248.98345	0
67	414.9717	717.65694	301.87157	-566.31432	57.77057	509.35742	-436.94079	-661.51371	442.63648	1583.40182	2091.94557	1297.80365	0
68	417.41271	776.24118	358.0148	-598.04745	30.91946	567.94166	-580.96038	-1191.21288	-117.16848	1092.75881	1825.87548	1295.36264	0
69	400.32564	817.73835	416.59904	-610.2525	-8.95037	616.76186	-722.53896	-1742.88114	-764.03613	472.74227	1445.89159	1248.98345	0
70	378.35655	847.03047	467.86025	-612.69351	-45.56552	658.25903	-859.23552	-2272.58031	-1408.46277	-177.38006	1004.06878	1173.31214	0
71	358.82847	864.11754	504.4754	-612.69351	-72.41663	685.11014	-988.60905	-2755.90029	-2016.27426	-821.8067	528.07183	1073.23073	0
72	329.53635	871.44057	541.09055	-600.48846	-106.59077	707.07923	-1105.77753	-3161.10795	-2541.09141	-1393.00304	78.92599	973.14932	0
73	290.48019	876.32259	585.02873	-583.40139	-148.08794	731.48933	-1196.0949	-3471.11622	-2965.82715	-1876.32302	-327.09534	880.39094	0
74	258.74706	886.08663	626.5259	-573.63735	-184.70309	755.89943	-1257.12015	-3666.39702	-3234.33825	-2215.62341	-656.63169	807.16064	0
75	229.45494	890.96865	660.70004	-561.4323	-216.43622	775.42751	-1291.29429	-3742.06833	-3339.30168	-2386.49411	-888.52764	746.13539	0
76	200.16282	898.29168	697.31519	-549.22725	-248.16935	797.3966	-1301.05833	-3717.65823	-3331.97865	-2454.84239	-1059.39834	692.43317	0
77	165.98868	908.05572	741.25337	-537.0222	-287.22551	824.24771	-1291.29429	-3617.57682	-3258.74835	-2459.72441	-1179.00783	646.05398	0
78	129.37353	920.26077	790.07357	-524.81715	-331.16369	855.98084	-1257.12015	-3458.91117	-3139.13886	-2423.10926	-1262.00217	602.1158	0
79	87.87636	910.49673	821.8067	-500.40705	-367.77884	865.74488	-1196.0949	-3241.66128	-2973.15018	-2344.99694	-1310.82237	543.53156	0
80	46.37919	876.32259	829.12973	-461.35089	-392.18894	853.53983	-1117.98258	-2987.79624	-2770.54635	-2230.26947	-1337.67348	470.30126	0
81	-0.81367	822.62037	821.8067	-412.53069	-411.71702	821.8067	-1022.78319	-2721.72615	-2548.41444	-2100.89594	-1352.31954	379.98389	0
82	-42.31084	759.15411	799.83761	-358.82847	-421.48106	777.86852	-917.81976	-2448.33303	-2318.9595	-1951.99433	-1342.5555	287.22551	0
83	-81.367	685.92381	765.66347	-302.68524	-423.92207	724.1663	-805.5333	-2192.02698	-2101.70961	-1803.09272	-1318.1454	192.02612	0
84	-120.42316	600.48846	719.28428	-241.65999	-419.04005	658.25903	-690.80583	-1950.36699	-1894.22376	-1668.83717	-1291.29429	94.38572	0
85	-152.15629	512.6121	663.14105	-180.63474	-406.835	587.46974	-580.96038	-1735.55811	-1706.26599	-1539.46364	-1264.44318	1.62734	0
86	-176.56639	441.82281	616.76186	-134.25555	-397.07096	528.8855	-480.87897	-1540.27731	-1535.39529	-1419.85415	-1230.26904	-74.85764	0
87	-193.65346	378.35655	570.38267	-92.75838	-382.4249	472.74227	-395.44362	-1359.64257	-1384.05267	-1307.56769	-1183.88985	-138.3239	0
88	-208.29952	322.21332	528.8855	-58.58424	-367.77884	423.92207	-322.21332	-1203.41793	-1254.67914	-1207.48628	-1130.18763	-189.58511	0
89	-215.62255	268.5111	482.50631	-26.85111	-348.25076	375.10187	-256.30605	-1064.28036	-1139.95167	-1117.16891	-1076.48541	-233.52329	0
90	-220.50457	217.24989	436.12712	0	-328.72268	326.28167	-202.60383	-939.78885	-1032.54723	-1029.29255	-1020.34218	-262.81541	0
91	-222.94558	170.8707	392.18894	24.4101	-306.75359	279.90248	-153.78363	-827.50239	-930.02481	-946.29821	-966.63996	-287.22551	0
92	-220.50457	122.0505	340.92773	47.19286	-279.90248	231.08228	-117.16848	-722.53896	-834.82542	-868.18589	-912.93774	-306.75359	0
93	-215.62255	73.2303	287.22551	69.16195	-250.61036	179.82107	-85.43535	-627.33957	-749.39007	-794.95559	-859.23552	-323.84066	0
94	-208.29952	24.4101	231.08228	91.13104	-218.87723	126.11885	-58.58424	-544.34523	-668.83674	-731.48933	-807.97431	-333.6047	0
95	-196.09447	-17.08707	177.38006	105.7771	-187.1441	79.73966	-34.17414	-471.11493	-595.60644	-665.58206	-756.7131	-340.92773	0
96	-183.88942	-52.07488	131.00087	115.54114	-157.85198	38.24249	-9.76404	-400.32564	-524.81715	-602.1158	-710.33391	-345.80975	0
97	-174.12538	-78.92599	94.38572	125.30518	-135.88289	6.50936	7.32303	-336.85938	-466.23291	-545.97257	-663.95472	-348.25076	0
98	-166.80235	-98.45407	67.53461	130.1872	-118.79582	-15.45973	24.4101	-278.27514	-412.53069	-494.71136	-617.57553	-348.25076	0
99	-159.47932	-108.21811	50.44754	132.62821	-106.59077	-30.10579	41.49717	-231.89595	-368.59251	-453.21419	-576.07836	-340.92773	0
100	-149.71528	-110.65912	38.24249	127.74619	-94.38572	-37.42882	51.26121	-192.83979	-331.97736	-419.04005	-537.0222	-328.72268	0
101	-142.39225	-110.65912	30.91946	125.30518	-87.06269	-39.86983	58.58424	-161.10666	-300.24423	-387.30692	-510.17109	-316.51763	0
102	-137.51023	-113.10013	23.59643	122.86417	-82.18067	-44.75185	66.72094	-134.25555	-273.39312	-362.89682	-483.31998	-301.87157	0
103	-132.62821	-110.65912	21.15542	120.42316	-77.29865	-44.75185	76.48498	-104.96343	-248.98302	-338.48672	-461.35089	-287.22551	0
104	-130.1872	-108.21811	21.15542	117.98215	-77.29865	-44.75185	86.24902	-82.99434	-227.01393	-323.84066	-444.26382	-272.57945	0
105	-125.30518	-105.7771	18.71441	113.10013	-72.41663	-44.75185	98.45407	-63.46626	-207.48585	-306.75359	-427.17675	-260.3744	0
106	-122.86417	-100.89508	21.15542	110.65912	-72.41663	-39.86983	110.65912	-48.8202	-192.83979	-292.10753	-417.41271	-255.49238	0
107	-120.42316	-93.57205	26.03744	105.7771	-74.85764	-34.98781	122.86417	-31.73313	-180.63474	-282.34349	-410.08968	-250.61036	0
108	-120.42316	-86.24902	33.36047	100.89508	-77.29865	-27.66478	135.06922	-17.08707	-175.75272	-272.57945	-400.32564	-250.61036	0
109	-120.42316	-76.48498	43.12451	96.01306	-82.18067	-17.90074	144.83326	-7.32303	-170.8707	-267.69743	-390.5616	-250.61036	0
110	-117.98215	-71.60296	45.56552	93.57205	-82.18067	-13.01872	149.71528	0	-165.98868	-267.69743	-385.67958	-250.61036	0
111	-113.10013	-64.27993	48.00653	86.24902	-82.18067	-8.1367	154.5973	4.88202	-163.54767	-265.25642	-383.23857	-250.61036	0
112	-113.10013	-64.27993	48.00653	86.24902	-82.18067	-8.1367	157.03831	14.64606	-156.22464	-260.3744	-380.79756	-245.72834	0
113	-115.54114	-64.27993	50.44754	88.69003	-84.62168	-8.1367	157.03831	21.96909	-151.34262	-255.49238	-375.91554	-243.28733	0
114	-113.10013	-64.27993	48.00653	86.24902	-82.18067	-8.1367	159.47932	31.73313	-144.01959	-255.49238	-375.91554	-240.84632	0
115	-108.21811	-64.27993	43.12451	83.80801	-77.29865	-10.57771	159.47932	36.61515	-136.69656	-253.05137	-373.47453	-238.40531	0
116	-105.7771	-59.39791	45.56552	81.367	-77.29865	-8.1367	164.36134	43.93818	-126.93252	-245.72834	-368.59251	-235.9643	0
117	-105.7771	-56.9569	48.00653	78.92599	-77.29865	-5.69569	164.36134	51.26121	-124.49151	-240.84632	-366.1515	-233.52329	0
118	-105.7771	-52.07488	52.88855	76.48498	-79.73966	-0.81367	161.92033	53.70222	-124.49151	-238.40531	-358.82847	-231.08228	0
119	-103.33609	-46.37919	55.32956	74.04397	-79.73966	4.06835	161.92033	56.14323	-124.49151	-238.40531	-356.38746	-231.08228	0
120	-103.33609	-43.93818	57.77057	71.60296	-79.73966	6.50936	157.03831	58.58424	-122.0505	-238.40531	-353.94645	-228.64127	0
121	-103.33609	-41.49717	60.21158	71.60296	-82.18067	8.95037	152.15629	56.14323	-119.60949	-238.40531	-353.94645	-226.20026	0
122	-100.89508	-43.93818	55.32956	71.60296	-77.29865	4.06835	149.71528	58.58424	-117.16848	-238.40531	-353.94645	-223.75925	0
123	-100.89508	-43.93818	55.32956	71.60296	-77.29865	4.06835	147.27427	63.46626	-114.72747	-235.9643	-353.94645	-221.31824	0
124	-103.33609	-43.93818	57.77057	71.60296	-79.73966	6.50936	147.27427	65.90727	-107.40444	-235.9643	-356.38746	-218.87723	0
125	-103.33609	-43.93818	57.77057	71.60296	-79.73966	6.50936	152.15629	68.34828	-102.52242	-233.52329	-356.38746	-218.87723	0
126	-100.89508	-43.93818	55.32956	71.60296	-77.29865	4.06835	154.5973	73.2303	-97.6404	-228.64127	-358.82847	-221.31824	0
127	-103.33609	-41.49717	60.21158	71.60296	-82.18067	8.95037	157.03831	78.11232	-95.19939	-228.64127	-361.26948	-226.20026	0
128	-105.7771	-36.61515	67.53461	69.16195	-87.06269	13.83239	157.03831	80.55333	-97.6404	-231.08228	-363.71049	-231.08228	0
129	-108.21811	-34.17414	72.41663	69.16195	-89.5037	18.71441	154.5973	80.55333	-100.08141	-231.08228	-363.71049	-235.9643	0
130	-113.10013	-36.61515	74.85764	74.04397	-94.38572	18.71441	152.15629	80.55333	-102.52242	-235.9643	-366.1515	-235.9643	0
131	-113.10013	-39.05616	72.41663	74.04397	-91.94471	16.2734	149.71528	78.11232	-102.52242	-238.40531	-371.03352	-238.40531	0
132	-110.65912	-41.49717	67.53461	74.04397	-89.5037	11.39138	147.27427	82.99434	-97.6404	-238.40531	-373.47453	-235.9643	0
133	-110.65912	-46.37919	62.65259	76.48498	-87.06269	6.50936	144.83326	85.43535	-95.19939	-233.52329	-373.47453	-231.08228	0
134	-113.10013	-46.37919	65.0936	78.92599	-89.5037	8.95037	149.71528	92.75838	-85.43535	-233.52329	-375.91554	-226.20026	0
135	-113.10013	-48.8202	62.65259	78.92599	-87.06269	6.50936	154.5973	100.08141	-78.11232	-228.64127	-373.47453	-226.20026	0
136	-110.65912	-48.8202	60.21158	78.92599	-84.62168	4.06835	161.92033	112.28646	-65.90727	-221.31824	-373.47453	-223.75925	0
137	-105.7771	-41.49717	62.65259	71.60296	-84.62168	8.95037	169.24336	129.37353	-53.70222	-213.99521	-371.03352	-223.75925	0
138	-108.21811	-36.61515	69.97562	71.60296	-89.5037	16.2734	176.56639	144.01959	-46.37919	-209.11319	-368.59251	-226.20026	0
139	-113.10013	-34.17414	77.29865	71.60296	-94.38572	21.15542	186.33043	161.10666	-36.61515	-204.23117	-368.59251	-231.08228	0
140	-115.54114	-31.73313	82.18067	71.60296	-99.26774	23.59643	193.65346	178.19373	-26.85111	-199.34915	-363.71049	-231.08228	0
141	-117.98215	-29.29212	87.06269	71.60296	-101.70875	28.47845	200.97649	193.65346	-12.20505	-192.02612	-363.71049	-233.52329	0
142	-117.98215	-31.73313	84.62168	74.04397	-101.70875	26.03744	205.85851	213.18154	4.88202	-184.70309	-363.71049	-233.52329	0
143	-117.98215	-34.17414	82.18067	74.04397	-99.26774	23.59643	210.74053	232.70962	19.52808	-174.93905	-361.26948	-233.52329	0
144	-120.42316	-36.61515	82.18067	76.48498	-101.70875	21.15542	218.06356	254.67871	36.61515	-170.05703	-361.26948	-235.9643	0
145	-113.10013	-34.17414	77.29865	71.60296	-94.38572	21.15542	227.8276	271.76578	51.26121	-160.29299	-356.38746	-238.40531	0
146	-113.10013	-31.73313	79.73966	71.60296	-96.82673	23.59643	237.59164	291.29386	68.34828	-150.52895	-356.38746	-240.84632	0
147	-113.10013	-31.73313	79.73966	71.60296	-96.82673	23.59643	244.91467	313.26295	82.99434	-143.20592	-353.94645	-245.72834	0
148	-115.54114	-26.85111	87.06269	69.16195	-101.70875	28.47845	252.2377	332.79103	92.75838	-133.44188	-349.06443	-248.16935	0
149	-117.98215	-21.96909	94.38572	69.16195	-106.59077	35.80148	262.00174	354.76012	107.40444	-128.55986	-341.7414	-248.16935	0
150	-120.42316	-19.52808	99.26774	69.16195	-109.03178	38.24249	266.88376	374.2882	119.60949	-121.23683	-331.97736	-245.72834	0
151	-127.74619	-19.52808	106.59077	71.60296	-116.35481	43.12451	274.20679	393.81628	135.06922	-111.47279	-327.09534	-240.84632	0
152	-132.62821	-24.4101	106.59077	76.48498	-118.79582	40.6835	274.20679	413.34436	152.15629	-101.70875	-319.77231	-233.52329	0
153	-132.62821	-24.4101	106.59077	76.48498	-118.79582	40.6835	281.52982	432.87244	169.24336	-87.06269	-310.00827	-223.75925	0
154	-130.1872	-21.96909	106.59077	74.04397	-118.79582	40.6835	288.85285	457.28254	188.77144	-74.85764	-302.68524	-213.99521	0
155	-127.74619	-21.96909	104.14976	74.04397	-116.35481	40.6835	296.17588	476.81062	205.85851	-60.21158	-295.36221	-209.11319	0
156	-122.86417	-19.52808	101.70875	69.16195	-111.47279	40.6835	303.49891	496.3387	225.38659	-45.56552	-288.03918	-206.67218	0
157	-122.86417	-19.52808	101.70875	69.16195	-111.47279	40.6835	308.38093	518.30779	242.47366	-33.36047	-280.71615	-206.67218	0
158	-122.86417	-17.08707	104.14976	69.16195	-113.9138	43.12451	315.70396	537.83587	254.67871	-21.15542	-268.5111	-206.67218	0
159	-122.86417	-17.08707	104.14976	69.16195	-113.9138	43.12451	320.58598	557.36395	266.88376	-8.95037	-258.74706	-206.67218	0
160	-120.42316	-19.52808	99.26774	69.16195	-109.03178	38.24249	323.02699	574.45102	281.52982	0.81367	-244.101	-201.79016	0
161	-120.42316	-24.4101	94.38572	71.60296	-106.59077	33.36047	325.468	586.65607	293.73487	13.01872	-234.33696	-196.90814	0
162	-115.54114	-31.73313	82.18067	71.60296	-99.26774	23.59643	323.02699	598.86112	308.38093	22.78276	-222.13191	-187.1441	0
163	-110.65912	-41.49717	67.53461	74.04397	-89.5037	11.39138	320.58598	606.18415	318.14497	37.42882	-207.48585	-177.38006	0
164	-100.89508	-46.37919	52.88855	71.60296	-77.29865	1.62734	318.14497	613.50718	330.35002	47.19286	-195.2808	-165.17501	0
165	-91.13104	-46.37919	43.12451	66.72094	-67.53461	-3.25468	318.14497	615.94819	337.67305	56.9569	-183.07575	-155.41097	0
166	-81.367	-43.93818	35.80148	61.83892	-57.77057	-5.69569	318.14497	618.3892	347.43709	69.16195	-173.31171	-145.64693	0
167	-78.92599	-43.93818	33.36047	59.39791	-55.32956	-5.69569	315.70396	618.3892	347.43709	72.41663	-165.98868	-140.76491	0
168	-78.92599	-39.05616	38.24249	56.9569	-57.77057	-0.81367	315.70396	620.83021	347.43709	79.73966	-156.22464	-138.3239	0
169	-74.04397	-26.85111	45.56552	49.63387	-60.21158	8.95037	320.58598	625.71223	352.31911	87.06269	-144.01959	-133.44188	0
170	-71.60296	-19.52808	50.44754	44.75185	-60.21158	13.83239	323.02699	628.15324	357.20113	91.94471	-131.81454	-128.55986	0
171	-74.04397	-14.64606	57.77057	42.31084	-65.0936	21.15542	325.468	633.03526	369.40618	104.14976	-122.0505	-123.67784	0
172	-76.48498	-14.64606	60.21158	44.75185	-67.53461	21.15542	325.468	637.91728	379.17022	116.35481	-109.84545	-116.35481	0
173	-76.48498	-12.20505	62.65259	42.31084	-69.97562	23.59643	325.468	640.35829	391.37527	131.00087	-92.75838	-109.03178	0
174	-64.27993	-4.88202	57.77057	32.5468	-60.21158	26.03744	325.468	645.24031	406.02133	148.08794	-73.2303	-99.26774	0
175	-59.39791	-2.44101	55.32956	30.10579	-57.77057	26.03744	325.468	645.24031	415.78537	165.17501	-53.70222	-91.94471	0
176	-59.39791	-9.76404	48.00653	32.5468	-52.88855	18.71441	320.58598	640.35829	425.54941	184.70309	-36.61515	-84.62168	0
177	-52.07488	-9.76404	40.6835	30.10579	-45.56552	13.83239	310.82194	635.47627	432.87244	201.79016	-14.64606	-77.29865	0
178	-42.31084	-9.76404	30.91946	24.4101	-35.80148	8.95037	298.61689	628.15324	435.31345	221.31824	10.57771	-72.41663	0
179	-32.5468	-9.76404	21.15542	19.52808	-26.03744	4.06835	283.97083	615.94819	437.75446	238.40531	37.42882	-62.65259	0
180	-22.78276	-14.64606	6.50936	17.08707	-13.83239	-5.69569	266.88376	603.74314	440.19547	253.05137	64.27993	-55.32956	0
181	-15.45973	-21.96909	-8.1367	17.08707	-4.06835	-15.45973	249.79669	586.65607	442.63648	272.57945	86.24902	-44.75185	0
182	-8.1367	-31.73313	-25.22377	19.52808	8.1367	-30.10579	232.70962	572.01001	447.5185	289.66652	110.65912	-32.5468	0
183	-0.81367	-41.49717	-42.31084	19.52808	20.34175	-42.31084	218.06356	554.92294	449.95951	309.1946	137.51023	-20.34175	0
184	9.76404	-46.37919	-57.77057	17.08707	33.36047	-52.88855	203.4175	535.39486	452.40052	323.84066	161.92033	-10.57771	0
185	21.96909	-52.07488	-74.85764	14.64606	48.00653	-62.65259	188.77144	515.86678	452.40052	340.92773	186.33043	-0.81367	0
186	29.29212	-56.9569	-87.06269	12.20505	57.77057	-72.41663	174.12538	496.3387	454.84153	358.0148	208.29952	4.06835	0
187	36.61515	-61.83892	-99.26774	12.20505	67.53461	-79.73966	157.03831	476.81062	452.40052	370.21985	227.8276	8.95037	0
188	43.93818	-64.27993	-109.03178	9.76404	74.85764	-87.06269	137.51023	454.84153	445.07749	382.4249	249.79669	11.39138	0
189	51.26121	-64.27993	-116.35481	4.88202	82.18067	-89.5037	120.42316	435.31345	437.75446	389.74793	269.32477	13.83239	0
190	56.14323	-71.60296	-128.55986	7.32303	91.94471	-99.26774	98.45407	415.78537	430.43143	394.62995	288.85285	18.71441	0
191	61.02525	-81.367	-143.20592	9.76404	101.70875	-111.47279	78.92599	391.37527	425.54941	399.51197	301.0579	21.15542	0
192	65.90727	-96.01306	-162.734	14.64606	113.9138	-128.55986	61.83892	374.2882	418.22638	401.95298	310.82194	28.47845	0
193	70.78929	-105.7771	-177.38006	17.08707	123.67784	-140.76491	46.37919	354.76012	413.34436	406.835	323.02699	33.36047	0
194	75.67131	-115.54114	-192.02612	19.52808	133.44188	-152.96996	36.61515	340.11406	408.46234	406.835	330.35002	38.24249	0
195	82.99434	-120.42316	-204.23117	17.08707	143.20592	-162.734	29.29212	323.02699	403.58032	409.27601	337.67305	40.6835	0
196	90.31737	-127.74619	-218.87723	17.08707	152.96996	-172.49804	26.85111	310.82194	401.13931	411.71702	342.55507	40.6835	0
197	90.31737	-130.1872	-221.31824	19.52808	155.41097	-174.93905	21.96909	303.49891	393.81628	411.71702	344.99608	40.6835	0
198	95.19939	-125.30518	-221.31824	14.64606	157.85198	-172.49804	19.52808	296.17588	386.49325	414.15803	349.8781	38.24249	0
199	97.6404	-120.42316	-218.87723	9.76404	157.85198	-170.05703	17.08707	291.29386	381.61123	409.27601	354.76012	35.80148	0
200	97.6404	-117.98215	-216.43622	9.76404	155.41097	-167.61602	14.64606	286.41184	374.2882	406.835	354.76012	35.80148	0
201	97.6404	-117.98215	-216.43622	9.76404	155.41097	-167.61602	12.20505	279.08881	371.84719	401.95298	352.31911	35.80148	0
202	95.19939	-122.86417	-218.87723	12.20505	155.41097	-170.05703	9.76404	274.20679	369.40618	399.51197	347.43709	33.36047	0
203	95.19939	-125.30518	-221.31824	14.64606	157.85198	-172.49804	7.32303	271.76578	362.08315	397.07096	347.43709	30.91946	0
204	95.19939	-127.74619	-223.75925	14.64606	157.85198	-174.93905	7.32303	266.88376	362.08315	392.18894	342.55507	28.47845	0
205	95.19939	-132.62821	-228.64127	17.08707	160.29299	-179.82107	7.32303	262.00174	354.76012	387.30692	337.67305	26.03744	0
206	87.87636	-137.51023	-226.20026	24.4101	155.41097	-182.26208	12.20505	262.00174	352.31911	387.30692	332.79103	21.15542	0
207	87.87636	-137.51023	-226.20026	24.4101	155.41097	-182.26208	12.20505	259.56073	347.43709	382.4249	327.90901	16.2734	0
208	85.43535	-135.06922	-221.31824	24.4101	152.96996	-177.38006	9.76404	259.56073	337.67305	377.54288	327.90901	11.39138	0
209	82.99434	-130.1872	-213.99521	21.96909	148.08794	-172.49804	9.76404	257.11972	332.79103	372.66086	327.90901	8.95037	0
210	82.99434	-130.1872	-213.99521	21.96909	148.08794	-172.49804	4.88202	252.2377	327.90901	365.33783	325.468	8.95037	0
211	80.55333	-135.06922	-216.43622	24.4101	148.08794	-174.93905	0	247.35568	323.02699	360.45581	320.58598	8.95037	0
212	82.99434	-137.51023	-221.31824	24.4101	150.52895	-179.82107	-4.88202	244.91467	323.02699	355.57379	315.70396	8.95037	0
213	87.87636	-139.95124	-228.64127	24.4101	157.85198	-184.70309	-7.32303	242.47366	320.58598	355.57379	315.70396	11.39138	0
214	92.75838	-142.39225	-235.9643	24.4101	162.734	-189.58511	-7.32303	242.47366	323.02699	353.13278	313.26295	11.39138	0
215	92.75838	-144.83326	-238.40531	24.4101	165.17501	-192.02612	-7.32303	242.47366	320.58598	353.13278	310.82194	13.83239	0
216	92.75838	-144.83326	-238.40531	24.4101	165.17501	-192.02612	-2.44101	242.47366	323.02699	353.13278	310.82194	13.83239	0
217	97.6404	-137.51023	-235.9643	19.52808	165.17501	-187.1441	-2.44101	247.35568	325.468	355.57379	310.82194	13.83239	0
218	97.6404	-132.62821	-231.08228	17.08707	162.734	-182.26208	2.44101	249.79669	323.02699	358.0148	310.82194	13.83239	0
219	95.19939	-127.74619	-223.75925	14.64606	157.85198	-174.93905	2.44101	252.2377	320.58598	353.13278	313.26295	13.83239	0
220	90.31737	-127.74619	-218.87723	17.08707	152.96996	-172.49804	2.44101	252.2377	318.14497	353.13278	315.70396	18.71441	0
221	87.87636	-125.30518	-213.99521	17.08707	150.52895	-170.05703	2.44101	249.79669	318.14497	353.13278	315.70396	26.03744	0
222	90.31737	-122.86417	-213.99521	14.64606	150.52895	-167.61602	2.44101	249.79669	318.14497	353.13278	315.70396	33.36047	0
223	90.31737	-122.86417	-213.99521	14.64606	150.52895	-167.61602	2.44101	247.35568	318.14497	353.13278	318.14497	40.6835	0
224	90.31737	-125.30518	-216.43622	17.08707	152.96996	-170.05703	7.32303	244.91467	320.58598	353.13278	318.14497	48.00653	0
225	87.87636	-127.74619	-216.43622	19.52808	150.52895	-172.49804	9.76404	242.47366	320.58598	355.57379	318.14497	50.44754	0
226	90.31737	-127.74619	-218.87723	17.08707	152.96996	-172.49804	14.64606	240.03265	323.02699	358.0148	315.70396	50.44754	0
227	90.31737	-125.30518	-216.43622	17.08707	152.96996	-170.05703	17.08707	240.03265	323.02699	358.0148	313.26295	48.00653	0
228	90.31737	-122.86417	-213.99521	14.64606	150.52895	-167.61602	17.08707	237.59164	320.58598	355.57379	313.26295	43.12451	0
229	87.87636	-122.86417	-211.5542	17.08707	148.08794	-167.61602	17.08707	237.59164	315.70396	350.69177	310.82194	38.24249	0
230	85.43535	-125.30518	-211.5542	19.52808	148.08794	-167.61602	14.64606	235.15063	313.26295	345.80975	310.82194	38.24249	0
231	85.43535	-122.86417	-209.11319	17.08707	145.64693	-165.17501	14.64606	232.70962	310.82194	343.36874	308.38093	35.80148	0
232	87.87636	-122.86417	-211.5542	17.08707	148.08794	-167.61602	12.20505	232.70962	313.26295	343.36874	308.38093	40.6835	0
233	85.43535	-122.86417	-209.11319	17.08707	145.64693	-165.17501	12.20505	232.70962	318.14497	348.25076	308.38093	45.56552	0
234	87.87636	-122.86417	-211.5542	17.08707	148.08794	-167.61602	14.64606	237.59164	325.468	348.25076	310.82194	50.44754	0
235	90.31737	-117.98215	-209.11319	12.20505	148.08794	-162.734	17.08707	237.59164	330.35002	353.13278	313.26295	55.32956	0
236	92.75838	-115.54114	-209.11319	9.76404	150.52895	-162.734	17.08707	235.15063	335.23204	358.0148	315.70396	55.32956	0
237	92.75838	-110.65912	-204.23117	7.32303	148.08794	-157.85198	14.64606	235.15063	337.67305	358.0148	315.70396	52.88855	0
238	90.31737	-103.33609	-194.46713	4.88202	140.76491	-148.08794	12.20505	235.15063	335.23204	360.45581	318.14497	48.00653	0
239	90.31737	-96.01306	-187.1441	2.44101	138.3239	-140.76491	7.32303	230.26861	330.35002	358.0148	318.14497	43.12451	0
240	87.87636	-93.57205	-182.26208	2.44101	133.44188	-138.3239	0	225.38659	325.468	353.13278	320.58598	38.24249	0
241	82.99434	-93.57205	-177.38006	4.88202	128.55986	-135.88289	-7.32303	218.06356	320.58598	348.25076	318.14497	33.36047	0
242	80.55333	-96.01306	-177.38006	7.32303	128.55986	-135.88289	-14.64606	215.62255	323.02699	348.25076	315.70396	33.36047	0
243	78.11232	-100.89508	-179.82107	9.76404	128.55986	-140.76491	-17.08707	215.62255	325.468	355.57379	318.14497	38.24249	0
244	75.67131	-103.33609	-179.82107	12.20505	126.11885	-140.76491	-17.08707	218.06356	330.35002	358.0148	320.58598	43.12451	0
245	75.67131	-108.21811	-184.70309	14.64606	128.55986	-145.64693	-14.64606	220.50457	332.79103	362.89682	325.468	48.00653	0
246	75.67131	-110.65912	-187.1441	17.08707	131.00087	-148.08794	-14.64606	222.94558	337.67305	370.21985	325.468	52.88855	0
247	73.2303	-113.10013	-187.1441	19.52808	128.55986	-150.52895	-14.64606	225.38659	337.67305	372.66086	327.90901	52.88855	0
248	70.78929	-110.65912	-182.26208	19.52808	126.11885	-145.64693	-12.20505	232.70962	335.23204	377.54288	332.79103	52.88855	0
249	68.34828	-108.21811	-177.38006	19.52808	121.23683	-143.20592	-12.20505	232.70962	332.79103	375.10187	335.23204	52.88855	0
250	68.34828	-110.65912	-179.82107	19.52808	123.67784	-145.64693	-12.20505	235.15063	327.90901	370.21985	337.67305	52.88855	0
251	70.78929	-110.65912	-182.26208	19.52808	126.11885	-145.64693	-12.20505	230.26861	327.90901	367.77884	335.23204	52.88855	0
252	73.2303	-113.10013	-187.1441	19.52808	128.55986	-150.52895	-12.20505	232.70962	332.79103	367.77884	332.79103	57.77057	0
253	73.2303	-115.54114	-189.58511	19.52808	131.00087	-152.96996	-4.88202	237.59164	337.67305	375.10187	332.79103	57.77057	0
254	73.2303	-120.42316	-194.46713	21.96909	133.44188	-157.85198	2.44101	242.47366	344.99608	375.10187	330.35002	57.77057	0
255	73.2303	-122.86417	-196.90814	24.4101	133.44188	-160.29299	9.76404	247.35568	347.43709	377.54288	330.35002	55.32956	0
256	73.2303	-125.30518	-199.34915	24.4101	135.88289	-162.734	14.64606	252.2377	354.76012	382.4249	330.35002	50.44754	0
257	78.11232	-122.86417	-201.79016	21.96909	138.3239	-162.734	14.64606	257.11972	357.20113	384.86591	327.90901	43.12451	0
258	78.11232	-122.86417	-201.79016	21.96909	138.3239	-162.734	14.64606	257.11972	352.31911	387.30692	327.90901	33.36047	0
259	80.55333	-120.42316	-201.79016	19.52808	140.76491	-160.29299	14.64606	257.11972	347.43709	382.4249	327.90901	26.03744	0
260	85.43535	-120.42316	-206.67218	17.08707	145.64693	-162.734	9.76404	252.2377	342.55507	377.54288	330.35002	23.59643	0
261	92.75838	-120.42316	-213.99521	12.20505	152.96996	-167.61602	9.76404	247.35568	340.11406	372.66086	330.35002	23.59643	0
262	97.6404	-120.42316	-218.87723	9.76404	157.85198	-170.05703	9.76404	244.91467	342.55507	372.66086	330.35002	30.91946	0
263	100.08141	-120.42316	-221.31824	9.76404	160.29299	-170.05703	14.64606	247.35568	347.43709	377.54288	332.79103	35.80148	0
264	100.08141	-120.42316	-221.31824	9.76404	160.29299	-170.05703	24.4101	254.67871	352.31911	377.54288	330.35002	40.6835	0
265	100.08141	-120.42316	-221.31824	9.76404	160.29299	-170.05703	31.73313	262.00174	357.20113	382.4249	330.35002	43.12451	0
266	97.6404	-120.42316	-218.87723	9.76404	157.85198	-170.05703	43.93818	266.88376	364.52416	384.86591	330.35002	45.56552	0
267	87.87636	-117.98215	-206.67218	14.64606	145.64693	-162.734	51.26121	276.6478	366.96517	384.86591	325.468	40.6835	0
268	82.99434	-113.10013	-196.90814	14.64606	138.3239	-155.41097	56.14323	281.52982	364.52416	387.30692	323.02699	35.80148	0
269	78.11232	-110.65912	-189.58511	14.64606	133.44188	-150.52895	61.83892	291.29386	364.52416	384.86591	323.02699	28.47845	0
270	70.78929	-115.54114	-187.1441	21.96909	128.55986	-150.52895	61.83892	298.61689	369.40618	384.86591	325.468	26.03744	0
271	70.78929	-125.30518	-196.90814	24.4101	133.44188	-160.29299	66.72094	308.38093	384.05224	392.18894	330.35002	23.59643	0
272	70.78929	-142.39225	-213.99521	34.98781	140.76491	-177.38006	69.16195	327.90901	410.90335	411.71702	332.79103	21.15542	0
273	75.67131	-161.92033	-238.40531	42.31084	155.41097	-199.34915	78.92599	364.52416	452.40052	445.89116	344.99608	16.2734	0
274	82.99434	-183.88942	-267.69743	49.63387	174.93905	-226.20026	93.57205	418.22638	510.98476	487.38833	362.08315	11.39138	0
275	87.87636	-208.29952	-296.98955	59.39791	192.02612	-253.05137	105.7771	476.81062	579.33304	545.97257	393.81628	6.50936	0
276	100.08141	-225.38659	-326.28167	61.83892	211.5542	-275.02046	120.42316	540.27688	664.76839	621.64388	435.31345	4.06835	0
277	107.40444	-227.8276	-336.04571	59.39791	221.31824	-282.34349	130.1872	620.83021	762.40879	711.96125	491.45668	8.95037	0
278	117.16848	-218.06356	-336.04571	49.63387	226.20026	-277.46147	135.06922	706.26556	869.81323	821.8067	569.569	28.47845	0
279	134.25555	-188.77144	-323.84066	24.4101	228.64127	-255.49238	142.39225	806.34697	1001.62777	951.18023	676.97344	67.53461	0
280	153.78363	-149.71528	-304.31258	-2.44101	228.64127	-226.20026	144.83326	913.75141	1150.52938	1100.08184	803.90596	128.55986	0
281	173.31171	-105.7771	-279.90248	-34.17414	226.20026	-192.02612	144.83326	1011.39181	1301.872	1263.62951	947.92555	206.67218	0
282	200.16282	-48.8202	-250.61036	-75.67131	226.20026	-150.52895	139.95124	1087.06312	1448.3326	1444.26425	1111.47322	304.31258	0
283	231.89595	26.85111	-206.67218	-129.37353	218.87723	-89.5037	132.62821	1128.56029	1567.94209	1639.54505	1309.19503	423.92207	0
284	263.62908	117.16848	-148.08794	-190.39878	206.67218	-15.45973	120.42316	1111.47322	1653.37744	1824.24814	1526.44492	565.50065	0
285	297.80322	214.80888	-84.62168	-256.30605	192.02612	65.0936	86.24902	1011.39181	1675.34653	1990.23682	1747.76316	714.40226	0
286	324.65433	312.44928	-13.01872	-319.77231	170.05703	150.52895	29.29212	816.11101	1624.08532	2107.4053	1952.808	863.30387	0
287	356.38746	424.73574	67.53461	-390.5616	145.64693	245.72834	-51.26121	542.71789	1489.82977	2163.54853	2123.6787	1004.88245	0
288	388.12059	539.46321	150.52895	-463.7919	118.79582	345.80975	-151.34262	200.97649	1265.25685	2126.93338	2233.52415	1129.37396	0
289	407.64867	641.98563	233.52329	-524.81715	87.06269	438.56813	-268.5111	-209.92686	947.92555	1960.9447	2243.28819	1217.25032	0
290	414.9717	717.65694	301.87157	-566.31432	57.77057	509.35742	-410.08968	-698.12886	508.54375	1634.66303	2121.23769	1263.62951	0
291	410.08968	773.80017	362.89682	-593.16543	22.78276	567.94166	-551.66826	-1232.71005	-56.14323	1129.37396	1847.84457	1261.1885	0
292	395.44362	812.85633	416.59904	-605.37048	-11.39138	614.32085	-695.68785	-1789.26033	-705.45189	502.03439	1453.21462	1217.25032	0
293	366.1515	827.50239	460.53722	-598.04745	-48.00653	643.61297	-829.9434	-2318.9595	-1359.64257	-157.85198	999.18676	1144.02002	0
294	329.53635	829.9434	499.59338	-580.96038	-84.62168	665.58206	-959.31693	-2799.83847	-1974.77709	-812.04266	520.7488	1048.82063	0
295	295.36221	829.9434	533.76752	-563.87331	-118.79582	682.66913	-1076.48541	-3219.69219	-2519.12232	-1395.44405	69.16195	956.06225	0
296	258.74706	827.50239	567.94166	-544.34523	-155.41097	697.31519	-1164.36177	-3544.34652	-2948.74008	-1881.20504	-341.7414	865.74488	0
297	222.13191	837.26643	614.32085	-529.69917	-196.90814	726.60731	-1225.38702	-3739.62732	-3222.1332	-2210.74139	-663.95472	790.07357	0
298	195.2808	851.91249	655.81802	-524.81715	-231.08228	753.45842	-1262.00217	-3810.41661	-3331.97865	-2376.73007	-888.52764	724.1663	0
299	165.98868	861.67653	694.87418	-515.05311	-265.25642	777.86852	-1271.76621	-3778.68348	-3331.97865	-2449.96037	-1047.19329	668.02307	0
300	139.13757	873.88158	733.93034	-507.73008	-296.98955	804.71963	-1262.00217	-3673.72005	-3253.86633	-2454.84239	-1154.59773	621.64388	0
301	112.28646	873.88158	760.78145	-493.08402	-323.84066	816.92468	-1222.94601	-3505.29036	-3117.16977	-2408.4632	-1227.82803	575.26469	0
302	78.11232	847.03047	768.10448	-463.7919	-345.80975	807.16064	-1161.92076	-3278.27643	-2931.65301	-2318.14583	-1274.20722	514.23944	0
303	43.93818	803.09229	758.34044	-424.73574	-358.0148	780.30953	-1081.36743	-3012.20634	-2721.72615	-2193.65432	-1291.29429	441.00914	0
304	9.76404	744.50805	733.93034	-378.35655	-362.89682	738.81236	-983.72703	-2736.37221	-2497.15323	-2059.39877	-1298.61732	355.57379	0
305	-30.10579	676.15977	704.63822	-324.65433	-367.77884	689.99216	-876.32259	-2460.53808	-2265.25728	-1908.05615	-1281.53025	265.25642	0
306	-64.27993	605.37048	668.02307	-270.95211	-365.33783	636.28994	-764.03613	-2201.79102	-2038.24335	-1754.27252	-1254.67914	177.38006	0
307	-98.45407	529.69917	626.5259	-217.24989	-362.89682	577.7057	-651.74967	-1960.13103	-1833.19851	-1612.69394	-1225.38702	79.73966	0
308	-127.74619	468.67392	594.79277	-170.8707	-360.45581	531.32651	-546.78624	-1740.44013	-1652.56377	-1483.32041	-1191.21288	-5.69569	0
309	-154.5973	407.64867	560.61863	-126.93252	-358.0148	482.50631	-454.02786	-1540.27731	-1489.0161	-1366.15193	-1152.15672	-77.29865	0
310	-174.12538	351.50544	524.00348	-90.31737	-348.25076	436.12712	-375.91554	-1362.08358	-1335.23247	-1258.74749	-1100.89551	-133.44188	0
311	-186.33043	297.80322	482.50631	-56.14323	-333.6047	389.74793	-307.56726	-1203.41793	-1196.0949	-1156.22507	-1047.19329	-179.82107	0
312	-188.77144	244.101	431.2451	-29.29212	-309.1946	336.04571	-251.42403	-1064.28036	-1071.60339	-1061.02568	-995.93208	-213.99521	0
313	-193.65346	192.83979	384.86591	0	-289.66652	287.22551	-197.72181	-934.90683	-959.31693	-968.2673	-939.78885	-240.84632	0
314	-193.65346	144.01959	336.04571	24.4101	-265.25642	238.40531	-148.90161	-817.73835	-854.3535	-885.27296	-883.64562	-257.93339	0
315	-191.21245	97.6404	287.22551	44.75185	-238.40531	192.02612	-104.96343	-717.65694	-759.15411	-804.71963	-822.62037	-272.57945	0
316	-181.44841	56.14323	235.9643	61.83892	-209.11319	145.64693	-65.90727	-624.89856	-671.27775	-726.60731	-768.91815	-282.34349	0
317	-174.12538	19.52808	192.02612	76.48498	-182.26208	104.14976	-34.17414	-541.90422	-595.60644	-658.25903	-717.65694	-289.66652	0
318	-166.80235	-7.32303	157.85198	86.24902	-162.734	74.85764	-4.88202	-466.23291	-529.69917	-592.35176	-663.95472	-294.54854	0
319	-157.03831	-29.29212	126.11885	91.13104	-140.76491	48.00653	21.96909	-395.44362	-466.23291	-536.20853	-612.69351	-296.98955	0
320	-147.27427	-48.8202	96.82673	96.01306	-121.23683	23.59643	41.49717	-331.97736	-407.64867	-487.38833	-568.75533	-294.54854	0
321	-142.39225	-64.27993	77.29865	100.89508	-111.47279	6.50936	58.58424	-280.71615	-356.38746	-443.45015	-532.14018	-292.10753	0
322	-132.62821	-76.48498	55.32956	103.33609	-94.38572	-10.57771	71.60296	-236.77797	-312.44928	-404.39399	-500.40705	-282.34349	0
323	-122.86417	-81.367	40.6835	100.89508	-82.18067	-20.34175	83.80801	-197.72181	-275.83413	-367.77884	-468.67392	-270.13844	0
324	-115.54114	-86.24902	28.47845	98.45407	-72.41663	-30.10579	98.45407	-163.54767	-241.65999	-338.48672	-439.3818	-257.93339	0
325	-108.21811	-86.24902	21.15542	96.01306	-65.0936	-32.5468	110.65912	-139.13757	-214.80888	-311.63561	-412.53069	-243.28733	0
326	-105.7771	-83.80801	21.15542	93.57205	-65.0936	-32.5468	122.86417	-117.16848	-190.39878	-287.22551	-390.5616	-231.08228	0
327	-98.45407	-78.92599	18.71441	86.24902	-60.21158	-30.10579	132.62821	-100.08141	-175.75272	-272.57945	-375.91554	-223.75925	0
328	-98.45407	-66.72094	30.91946	81.367	-65.0936	-17.90074	142.39225	-82.99434	-168.42969	-257.93339	-361.26948	-216.43622	0
329	-98.45407	-54.51589	43.12451	74.04397	-72.41663	-5.69569	149.71528	-68.34828	-161.10666	-250.61036	-349.06443	-211.5542	0
330	-98.45407	-43.93818	52.88855	69.16195	-74.85764	4.06835	149.71528	-58.58424	-156.22464	-250.61036	-344.18241	-209.11319	0
331	-98.45407	-36.61515	60.21158	66.72094	-79.73966	11.39138	149.71528	-53.70222	-151.34262	-250.61036	-341.7414	-209.11319	0
332	-98.45407	-34.17414	62.65259	64.27993	-79.73966	13.83239	147.27427	-48.8202	-148.90161	-248.16935	-344.18241	-206.67218	0
333	-100.89508	-34.17414	65.0936	66.72094	-82.18067	13.83239	144.83326	-43.93818	-144.01959	-243.28733	-344.18241	-209.11319	0
334	-103.33609	-36.61515	65.0936	69.16195	-84.62168	13.83239	144.83326	-39.05616	-139.13757	-240.84632	-344.18241	-209.11319	0
335	-108.21811	-41.49717	65.0936	74.04397	-87.06269	11.39138	147.27427	-39.05616	-134.25555	-238.40531	-341.7414	-213.99521	0
336	-108.21811	-48.8202	57.77057	76.48498	-82.18067	4.06835	147.27427	-36.61515	-131.81454	-235.9643	-344.18241	-218.87723	0
337	-110.65912	-52.07488	57.77057	78.92599	-84.62168	1.62734	147.27427	-34.17414	-131.81454	-235.9643	-344.18241	-226.20026	0
338	-117.98215	-52.07488	65.0936	83.80801	-91.94471	6.50936	147.27427	-34.17414	-134.25555	-233.52329	-341.7414	-231.08228	0
339	-120.42316	-52.07488	67.53461	83.80801	-94.38572	6.50936	147.27427	-31.73313	-134.25555	-235.9643	-341.7414	-235.9643	0
340	-125.30518	-52.07488	72.41663	86.24902	-99.26774	8.95037	142.39225	-29.29212	-134.25555	-238.40531	-336.85938	-235.9643	0
341	-125.30518	-52.07488	72.41663	86.24902	-99.26774	8.95037	137.51023	-31.73313	-134.25555	-240.84632	-336.85938	-235.9643	0
342	-122.86417	-52.07488	69.97562	86.24902	-96.82673	8.95037	132.62821	-26.85111	-129.37353	-240.84632	-336.85938	-231.08228	0
343	-125.30518	-52.07488	72.41663	86.24902	-99.26774	8.95037	127.74619	-26.85111	-126.93252	-233.52329	-334.41837	-223.75925	0
344	-127.74619	-54.51589	72.41663	88.69003	-101.70875	8.95037	127.74619	-19.52808	-119.60949	-231.08228	-331.97736	-213.99521	0
345	-127.74619	-54.51589	72.41663	88.69003	-101.70875	8.95037	127.74619	-19.52808	-114.72747	-226.20026	-329.53635	-209.11319	0
346	-125.30518	-56.9569	67.53461	88.69003	-96.82673	4.06835	122.86417	-17.08707	-112.28646	-223.75925	-331.97736	-209.11319	0
347	-125.30518	-54.51589	69.97562	88.69003	-99.26774	6.50936	122.86417	-14.64606	-109.84545	-223.75925	-334.41837	-209.11319	0
348	-127.74619	-52.07488	74.85764	88.69003	-101.70875	11.39138	122.86417	-9.76404	-109.84545	-221.31824	-336.85938	-209.11319	0
349	-127.74619	-46.37919	79.73966	86.24902	-104.14976	16.2734	122.86417	-7.32303	-109.84545	-221.31824	-336.85938	-213.99521	0
350	-125.30518	-41.49717	82.18067	81.367	-104.14976	18.71441	117.98215	-4.88202	-109.84545	-226.20026	-339.30039	-218.87723	0
351	-125.30518	-43.93818	79.73966	83.80801	-101.70875	16.2734	117.98215	-2.44101	-109.84545	-231.08228	-344.18241	-223.75925	0
352	-125.30518	-46.37919	77.29865	83.80801	-101.70875	13.83239	115.54114	2.44101	-104.96343	-233.52329	-349.06443	-223.75925	0
353	-120.42316	-52.07488	67.53461	83.80801	-94.38572	6.50936	115.54114	7.32303	-102.52242	-233.52329	-353.94645	-223.75925	0
354	-120.42316	-61.83892	57.77057	88.69003	-89.5037	-3.25468	117.98215	14.64606	-97.6404	-235.9643	-356.38746	-226.20026	0
355	-117.98215	-71.60296	45.56552	93.57205	-82.18067	-13.01872	117.98215	17.08707	-95.19939	-235.9643	-361.26948	-231.08228	0
356	-115.54114	-78.92599	35.80148	96.01306	-77.29865	-22.78276	120.42316	21.96909	-90.31737	-235.9643	-366.1515	-233.52329	0
357	-110.65912	-76.48498	33.36047	91.13104	-72.41663	-22.78276	125.30518	31.73313	-87.87636	-235.9643	-371.03352	-238.40531	0
358	-105.7771	-71.60296	33.36047	86.24902	-69.97562	-20.34175	127.74619	41.49717	-87.87636	-233.52329	-373.47453	-243.28733	0
359	-110.65912	-66.72094	43.12451	86.24902	-77.29865	-13.01872	132.62821	53.70222	-82.99434	-235.9643	-375.91554	-248.16935	0
360	-117.98215	-64.27993	52.88855	88.69003	-87.06269	-5.69569	137.51023	68.34828	-78.11232	-235.9643	-378.35655	-253.05137	0
361	-122.86417	-61.83892	60.21158	91.13104	-91.94471	-0.81367	144.83326	85.43535	-65.90727	-235.9643	-380.79756	-255.49238	0
362	-130.1872	-61.83892	67.53461	93.57205	-99.26774	1.62734	152.15629	104.96343	-56.14323	-235.9643	-383.23857	-255.49238	0
363	-137.51023	-69.16195	67.53461	100.89508	-104.14976	-0.81367	161.92033	124.49151	-43.93818	-231.08228	-385.67958	-253.05137	0
364	-147.27427	-76.48498	69.97562	110.65912	-109.03178	-3.25468	171.68437	146.4606	-31.73313	-228.64127	-388.12059	-250.61036	0
365	-152.15629	-81.367	69.97562	115.54114	-111.47279	-5.69569	186.33043	168.42969	-19.52808	-221.31824	-388.12059	-250.61036	0
366	-161.92033	-83.80801	77.29865	120.42316	-121.23683	-3.25468	200.97649	191.21245	-2.44101	-213.99521	-390.5616	-250.61036	0
367	-166.80235	-81.367	84.62168	122.86417	-126.11885	1.62734	213.18154	215.62255	9.76404	-211.5542	-390.5616	-255.49238	0
368	-166.80235	-71.60296	94.38572	117.98215	-131.00087	11.39138	225.38659	237.59164	14.64606	-204.23117	-393.00261	-260.3744	0
369	-166.80235	-64.27993	101.70875	113.10013	-135.88289	18.71441	235.15063	259.56073	26.85111	-201.79016	-393.00261	-270.13844	0
370	-166.80235	-56.9569	109.03178	110.65912	-138.3239	26.03744	247.35568	281.52982	36.61515	-199.34915	-393.00261	-277.46147	0
371	-171.68437	-56.9569	113.9138	113.10013	-143.20592	28.47845	257.11972	305.93992	51.26121	-194.46713	-393.00261	-284.7845	0
372	-169.24336	-56.9569	111.47279	110.65912	-140.76491	26.03744	264.44275	327.90901	68.34828	-187.1441	-393.00261	-287.22551	0
373	-164.36134	-61.83892	101.70875	110.65912	-133.44188	18.71441	276.6478	352.31911	85.43535	-177.38006	-390.5616	-287.22551	0
374	-164.36134	-69.16195	94.38572	115.54114	-131.00087	11.39138	288.85285	379.17022	104.96343	-167.61602	-388.12059	-287.22551	0
375	-169.24336	-76.48498	91.94471	120.42316	-131.00087	6.50936	298.61689	403.58032	124.49151	-155.41097	-378.35655	-282.34349	0
376	-176.56639	-83.80801	91.94471	127.74619	-135.88289	4.06835	310.82194	427.99042	142.39225	-140.76491	-373.47453	-277.46147	0
377	-176.56639	-83.80801	91.94471	127.74619	-135.88289	4.06835	318.14497	452.40052	159.47932	-128.55986	-366.1515	-275.02046	0
378	-176.56639	-81.367	94.38572	127.74619	-135.88289	6.50936	323.02699	471.9286	169.24336	-113.9138	-358.82847	-272.57945	0
379	-174.12538	-71.60296	101.70875	120.42316	-138.3239	13.83239	330.35002	493.89769	183.88942	-106.59077	-349.06443	-270.13844	0
380	-174.12538	-61.83892	111.47279	115.54114	-143.20592	23.59643	332.79103	510.98476	196.09447	-96.82673	-339.30039	-265.25642	0
381	-171.68437	-59.39791	111.47279	113.10013	-143.20592	26.03744	335.23204	528.07183	210.74053	-89.5037	-329.53635	-260.3744	0
382	-166.80235	-56.9569	109.03178	110.65912	-138.3239	26.03744	335.23204	540.27688	222.94558	-79.73966	-324.65433	-255.49238	0
383	-161.92033	-56.9569	104.14976	108.21811	-133.44188	23.59643	335.23204	554.92294	235.15063	-69.97562	-317.3313	-248.16935	0
384	-159.47932	-56.9569	101.70875	105.7771	-131.00087	21.15542	340.11406	569.569	252.2377	-60.21158	-307.56726	-238.40531	0
385	-159.47932	-61.83892	96.82673	108.21811	-128.55986	16.2734	342.55507	579.33304	262.00174	-48.00653	-297.80322	-233.52329	0
386	-157.03831	-66.72094	89.5037	110.65912	-123.67784	11.39138	342.55507	586.65607	271.76578	-40.6835	-290.48019	-228.64127	0
387	-154.5973	-66.72094	87.06269	108.21811	-121.23683	8.95037	342.55507	596.42011	279.08881	-30.91946	-280.71615	-226.20026	0
388	-154.5973	-61.83892	91.94471	105.7771	-123.67784	13.83239	342.55507	603.74314	281.52982	-21.15542	-270.95211	-223.75925	0
389	-149.71528	-56.9569	91.94471	100.89508	-121.23683	16.2734	344.99608	608.62516	286.41184	-16.2734	-258.74706	-223.75925	0
390	-144.83326	-52.07488	91.94471	96.01306	-118.79582	18.71441	342.55507	613.50718	291.29386	-11.39138	-246.54201	-218.87723	0
391	-142.39225	-52.07488	89.5037	96.01306	-116.35481	18.71441	342.55507	613.50718	296.17588	-4.06835	-236.77797	-213.99521	0
392	-139.95124	-56.9569	82.18067	96.01306	-111.47279	11.39138	340.11406	613.50718	303.49891	3.25468	-227.01393	-209.11319	0
393	-139.95124	-64.27993	74.85764	100.89508	-109.03178	4.06835	337.67305	613.50718	308.38093	13.01872	-217.24989	-199.34915	0
394	-137.51023	-69.16195	67.53461	100.89508	-104.14976	-0.81367	337.67305	615.94819	315.70396	25.22377	-202.60383	-192.02612	0
395	-130.1872	-76.48498	52.88855	100.89508	-91.94471	-13.01872	332.79103	611.06617	323.02699	37.42882	-185.51676	-182.26208	0
396	-125.30518	-81.367	43.12451	100.89508	-84.62168	-20.34175	330.35002	608.62516	330.35002	52.07488	-170.8707	-177.38006	0
397	-117.98215	-81.367	35.80148	98.45407	-77.29865	-22.78276	323.02699	606.18415	335.23204	64.27993	-153.78363	-170.05703	0
398	-110.65912	-74.04397	35.80148	91.13104	-74.85764	-20.34175	313.26295	601.30213	335.23204	82.18067	-131.81454	-165.17501	0
399	-100.89508	-66.72094	33.36047	81.367	-67.53461	-17.90074	303.49891	593.9791	340.11406	94.38572	-109.84545	-160.29299	0
400	-86.24902	-64.27993	21.15542	74.04397	-55.32956	-22.78276	286.41184	584.21506	342.55507	109.03178	-85.43535	-150.52895	1500	QRS+0
401	-76.48498	-61.83892	13.83239	66.72094	-45.56552	-25.22377	271.76578	574.45102	347.43709	123.67784	-61.02525	-140.76491	0
402	-74.04397	-66.72094	6.50936	69.16195	-40.6835	-30.10579	254.67871	559.80496	357.20113	143.20592	-39.05616	-131.00087	0
403	-61.83892	-69.16195	-8.1367	64.27993	-28.47845	-39.86983	237.59164	545.1589	362.08315	165.17501	-14.64606	-121.23683	0
404	-49.63387	-76.48498	-27.66478	61.83892	-11.39138	-52.88855	220.50457	528.07183	366.96517	184.70309	8.1367	-113.9138	0
405	-39.86983	-86.24902	-47.19286	61.83892	3.25468	-67.53461	200.97649	510.98476	371.84719	204.23117	34.98781	-104.14976	0
406	-30.10579	-91.13104	-62.65259	59.39791	15.45973	-77.29865	181.44841	491.45668	379.17022	228.64127	59.39791	-96.82673	0
407	-20.34175	-96.01306	-77.29865	56.9569	28.47845	-87.06269	159.47932	471.9286	379.17022	248.16935	86.24902	-91.94471	0
408	-5.69569	-96.01306	-91.94471	49.63387	43.12451	-94.38572	135.06922	449.95951	376.72921	265.25642	110.65912	-89.5037	0
409	-0.81367	-96.01306	-96.82673	47.19286	48.00653	-96.82673	110.65912	430.43143	374.2882	279.90248	137.51023	-87.06269	0
410	7.32303	-98.45407	-106.59077	44.75185	55.32956	-101.70875	86.24902	408.46234	374.2882	294.54854	164.36134	-79.73966	0
411	14.64606	-103.33609	-118.79582	42.31084	65.0936	-111.47279	64.27993	386.49325	371.84719	306.75359	186.33043	-72.41663	0
412	21.96909	-110.65912	-133.44188	42.31084	77.29865	-121.23683	48.8202	369.40618	374.2882	316.51763	203.4175	-65.0936	0
413	26.85111	-120.42316	-148.08794	44.75185	87.06269	-133.44188	34.17414	352.31911	374.2882	328.72268	220.50457	-57.77057	0
414	26.85111	-130.1872	-157.85198	49.63387	91.94471	-143.20592	29.29212	340.11406	379.17022	338.48672	235.15063	-52.07488	0
415	29.29212	-139.95124	-170.05703	54.51589	99.26774	-155.41097	21.96909	323.02699	376.72921	348.25076	249.79669	-47.19286	0
416	36.61515	-147.27427	-184.70309	54.51589	109.03178	-165.17501	17.08707	310.82194	376.72921	358.0148	259.56073	-44.75185	0
417	41.49717	-149.71528	-192.02612	52.07488	116.35481	-170.05703	12.20505	298.61689	374.2882	362.89682	271.76578	-42.31084	0
418	41.49717	-149.71528	-192.02612	52.07488	116.35481	-170.05703	7.32303	288.85285	366.96517	370.21985	281.52982	-39.86983	0
419	41.49717	-149.71528	-192.02612	52.07488	116.35481	-170.05703	0	276.6478	359.64214	372.66086	291.29386	-39.86983	0
420	43.93818	-147.27427	-192.02612	49.63387	116.35481	-170.05703	-9.76404	264.44275	352.31911	370.21985	298.61689	-37.42882	0
421	51.26121	-144.83326	-196.90814	44.75185	123.67784	-170.05703	-17.08707	252.2377	349.8781	370.21985	305.93992	-32.5468	0
422	51.26121	-149.71528	-201.79016	47.19286	126.11885	-174.93905	-21.96909	244.91467	347.43709	367.77884	308.38093	-27.66478	0
423	51.26121	-157.03831	-209.11319	52.07488	128.55986	-182.26208	-26.85111	235.15063	342.55507	367.77884	310.82194	-20.34175	0
424	53.70222	-159.47932	-213.99521	52.07488	133.44188	-187.1441	-26.85111	232.70962	342.55507	367.77884	313.26295	-15.45973	0
425	58.58424	-159.47932	-218.87723	49.63387	138.3239	-189.58511	-26.85111	227.8276	342.55507	370.21985	315.70396	-10.57771	0
426	63.46626	-159.47932	-223.75925	47.19286	143.20592	-192.02612	-29.29212	225.38659	342.55507	372.66086	315.70396	-10.57771	0
427	63.46626	-159.47932	-223.75925	47.19286	143.20592	-192.02612	-29.29212	225.38659	340.11406	370.21985	313.26295	-13.01872	0
428	63.46626	-154.5973	-218.87723	44.75185	140.76491	-187.1441	-31.73313	222.94558	332.79103	370.21985	313.26295	-20.34175	0
429	63.46626	-147.27427	-211.5542	39.86983	135.88289	-179.82107	-31.73313	222.94558	327.90901	365.33783	310.82194	-25.22377	0
430	61.02525	-142.39225	-204.23117	39.86983	131.00087	-172.49804	-34.17414	222.94558	325.468	360.45581	308.38093	-30.10579	0
431	56.14323	-142.39225	-199.34915	42.31084	126.11885	-170.05703	-34.17414	218.06356	323.02699	355.57379	305.93992	-34.98781	0
432	51.26121	-144.83326	-196.90814	44.75185	123.67784	-170.05703	-31.73313	218.06356	320.58598	350.69177	301.0579	-34.98781	0
433	48.8202	-152.15629	-201.79016	49.63387	123.67784	-177.38006	-26.85111	220.50457	320.58598	350.69177	298.61689	-34.98781	0
434	46.37919	-159.47932	-206.67218	54.51589	126.11885	-182.26208	-19.52808	222.94558	320.58598	345.80975	296.17588	-32.5468	0
435	46.37919	-164.36134	-211.5542	56.9569	128.55986	-187.1441	-12.20505	227.8276	323.02699	348.25076	301.0579	-30.10579	0
436	46.37919	-166.80235	-213.99521	59.39791	128.55986	-189.58511	-2.44101	232.70962	327.90901	350.69177	301.0579	-27.66478	0
437	46.37919	-166.80235	-213.99521	59.39791	128.55986	-189.58511	4.88202	240.03265	330.35002	353.13278	301.0579	-27.66478	0
438	46.37919	-159.47932	-206.67218	54.51589	126.11885	-182.26208	12.20505	244.91467	327.90901	355.57379	305.93992	-27.66478	0
439	46.37919	-152.15629	-199.34915	52.07488	121.23683	-174.93905	19.52808	252.2377	330.35002	355.57379	308.38093	-27.66478	0
440	46.37919	-144.83326	-192.02612	47.19286	118.79582	-167.61602	26.85111	257.11972	332.79103	353.13278	310.82194	-25.22377	0
441	43.93818	-142.39225	-187.1441	47.19286	113.9138	-165.17501	31.73313	264.44275	335.23204	353.13278	310.82194	-25.22377	0
442	43.93818	-142.39225	-187.1441	47.19286	113.9138	-165.17501	36.61515	266.88376	340.11406	353.13278	308.38093	-25.22377	0
443	46.37919	-144.83326	-192.02612	47.19286	118.79582	-167.61602	41.49717	271.76578	342.55507	355.57379	308.38093	-22.78276	0
444	46.37919	-152.15629	-199.34915	52.07488	121.23683	-174.93905	46.37919	274.20679	347.43709	355.57379	308.38093	-22.78276	0
445	48.8202	-154.5973	-204.23117	52.07488	126.11885	-179.82107	51.26121	276.6478	349.8781	362.89682	313.26295	-22.78276	0
446	51.26121	-159.47932	-211.5542	52.07488	131.00087	-184.70309	51.26121	274.20679	352.31911	367.77884	315.70396	-25.22377	0
447	58.58424	-159.47932	-218.87723	49.63387	138.3239	-189.58511	46.37919	271.76578	349.8781	367.77884	318.14497	-30.10579	0
448	63.46626	-152.15629	-216.43622	42.31084	138.3239	-184.70309	41.49717	266.88376	344.99608	370.21985	323.02699	-27.66478	0
449	68.34828	-142.39225	-211.5542	34.98781	138.3239	-177.38006	36.61515	259.56073	342.55507	367.77884	325.468	-25.22377	0
450	70.78929	-135.06922	-206.67218	30.10579	138.3239	-170.05703	31.73313	257.11972	340.11406	367.77884	327.90901	-20.34175	0
451	70.78929	-127.74619	-199.34915	27.66478	133.44188	-162.734	29.29212	252.2377	340.11406	367.77884	330.35002	-10.57771	0
452	73.2303	-125.30518	-199.34915	24.4101	135.88289	-162.734	26.85111	252.2377	340.11406	365.33783	327.90901	-3.25468	0
453	70.78929	-122.86417	-194.46713	24.4101	131.00087	-157.85198	31.73313	254.67871	340.11406	367.77884	327.90901	6.50936	0
454	68.34828	-120.42316	-189.58511	24.4101	128.55986	-155.41097	36.61515	259.56073	347.43709	367.77884	327.90901	11.39138	0
455	65.90727	-122.86417	-189.58511	27.66478	126.11885	-155.41097	41.49717	259.56073	347.43709	365.33783	327.90901	11.39138	0
456	63.46626	-122.86417	-187.1441	27.66478	123.67784	-155.41097	46.37919	259.56073	344.99608	365.33783	325.468	8.95037	0
457	63.46626	-120.42316	-184.70309	27.66478	123.67784	-152.96996	48.8202	259.56073	337.67305	360.45581	320.58598	4.06835	0
458	56.14323	-117.98215	-174.93905	30.10579	113.9138	-145.64693	46.37919	252.2377	327.90901	358.0148	320.58598	-0.81367	0
459	48.8202	-122.86417	-172.49804	34.98781	109.03178	-148.08794	43.93818	247.35568	323.02699	348.25076	315.70396	-8.1367	0
460	43.93818	-125.30518	-170.05703	39.86983	106.59077	-148.08794	34.17414	240.03265	315.70396	338.48672	308.38093	-13.01872	0
461	41.49717	-132.62821	-174.93905	44.75185	106.59077	-152.96996	24.4101	232.70962	310.82194	331.16369	301.0579	-17.90074	0
462	36.61515	-139.95124	-177.38006	49.63387	106.59077	-157.85198	17.08707	230.26861	308.38093	326.28167	296.17588	-17.90074	0
463	34.17414	-149.71528	-184.70309	56.9569	109.03178	-167.61602	7.32303	225.38659	305.93992	323.84066	288.85285	-20.34175	0
464	31.73313	-159.47932	-192.02612	61.83892	111.47279	-174.93905	0	220.50457	305.93992	318.95864	281.52982	-25.22377	0
465	34.17414	-161.92033	-196.90814	61.83892	113.9138	-179.82107	-9.76404	215.62255	301.0579	318.95864	279.08881	-32.5468	0
466	41.49717	-164.36134	-206.67218	59.39791	123.67784	-184.70309	-19.52808	208.29952	298.61689	318.95864	274.20679	-39.86983	0
467	41.49717	-164.36134	-206.67218	59.39791	123.67784	-184.70309	-26.85111	203.4175	293.73487	314.07662	274.20679	-47.19286	0
468	41.49717	-164.36134	-206.67218	59.39791	123.67784	-184.70309	-36.61515	196.09447	286.41184	311.63561	274.20679	-55.32956	0
469	41.49717	-166.80235	-209.11319	61.83892	123.67784	-187.1441	-41.49717	191.21245	283.97083	304.31258	271.76578	-60.21158	0
470	41.49717	-174.12538	-216.43622	64.27993	128.55986	-194.46713	-48.8202	186.33043	276.6478	299.43056	266.88376	-65.0936	0
471	36.61515	-183.88942	-221.31824	71.60296	128.55986	-201.79016	-48.8202	186.33043	279.08881	296.98955	264.44275	-65.0936	0
472	34.17414	-193.65346	-228.64127	78.92599	131.00087	-211.5542	-48.8202	188.77144	279.08881	294.54854	259.56073	-62.65259	0
473	34.17414	-205.85851	-240.84632	83.80801	135.88289	-223.75925	-48.8202	191.21245	281.52982	296.98955	257.11972	-62.65259	0
474	34.17414	-218.06356	-253.05137	91.13104	143.20592	-235.9643	-46.37919	193.65346	286.41184	296.98955	254.67871	-62.65259	0
475	31.73313	-227.8276	-260.3744	96.01306	145.64693	-243.28733	-46.37919	196.09447	288.85285	301.87157	254.67871	-62.65259	0
476	31.73313	-230.26861	-262.81541	98.45407	145.64693	-245.72834	-43.93818	203.4175	293.73487	309.1946	257.11972	-62.65259	0
477	36.61515	-230.26861	-267.69743	96.01306	150.52895	-248.16935	-41.49717	213.18154	301.0579	316.51763	262.00174	-62.65259	0
478	43.93818	-227.8276	-272.57945	91.13104	157.85198	-250.61036	-39.05616	222.94558	313.26295	331.16369	274.20679	-62.65259	0
479	51.26121	-227.8276	-279.90248	86.24902	165.17501	-253.05137	-34.17414	242.47366	340.11406	350.69177	286.41184	-62.65259	0
480	58.58424	-235.15063	-294.54854	86.24902	174.93905	-265.25642	-29.29212	276.6478	376.72921	382.4249	303.49891	-62.65259	0
481	68.34828	-247.35568	-316.51763	88.69003	192.02612	-282.34349	-14.64606	323.02699	432.87244	426.36308	327.90901	-60.21158	0
482	78.11232	-262.00174	-340.92773	91.13104	209.11319	-301.87157	0	384.05224	506.10274	482.50631	354.76012	-60.21158	0
483	87.87636	-276.6478	-365.33783	93.57205	226.20026	-321.39965	19.52808	454.84153	591.53809	558.17762	393.81628	-55.32956	0
484	100.08141	-291.29386	-392.18894	93.57205	245.72834	-340.92773	34.17414	532.95385	694.06051	646.05398	447.5185	-47.19286	0
485	112.28646	-293.73487	-406.835	88.69003	257.93339	-350.69177	48.8202	623.27122	811.22899	758.34044	520.7488	-32.5468	0
486	126.93252	-283.97083	-411.71702	76.48498	267.69743	-348.25076	61.83892	728.23465	947.92555	890.15498	613.50718	-3.25468	0
487	144.01959	-252.2377	-397.07096	52.07488	270.13844	-323.84066	71.60296	847.84414	1094.38615	1034.17457	725.79364	43.12451	0
488	163.54767	-203.4175	-367.77884	19.52808	265.25642	-284.7845	78.92599	965.01262	1245.72877	1200.16325	864.93121	111.47279	0
489	190.39878	-139.95124	-331.16369	-26.85111	260.3744	-235.9643	78.92599	1055.32999	1394.63038	1371.03395	1026.03787	199.34915	0
490	222.13191	-64.27993	-287.22551	-80.55333	253.05137	-174.93905	69.16195	1111.47322	1516.68088	1554.1097	1213.99564	311.63561	0
491	251.42403	21.96909	-231.08228	-136.69656	240.84632	-104.14976	51.26121	1104.15019	1604.55724	1738.81279	1426.36351	445.89116	0
492	290.48019	119.60949	-172.49804	-205.04484	231.08228	-25.22377	12.20505	1018.71484	1636.29037	1902.36046	1641.17239	594.79277	0
493	334.41837	222.13191	-113.9138	-278.27514	223.75925	55.32956	-46.37919	833.19808	1592.35219	2024.41096	1845.40356	748.5764	0
494	378.35655	322.21332	-57.77057	-351.50544	218.87723	133.44188	-126.93252	559.80496	1467.86068	2087.87722	2026.0383	902.36003	0
495	412.53069	417.41271	4.06835	-414.9717	204.23117	211.5542	-231.89595	200.97649	1250.61079	2061.02611	2145.64779	1034.17457	0
496	436.94079	507.73008	69.97562	-473.55594	184.70309	289.66652	-351.50544	-241.65999	925.95646	1909.68349	2167.61688	1136.69699	0
497	456.46887	588.28341	131.00087	-522.37614	162.734	360.45581	-488.202	-754.27209	491.45668	1615.13495	2074.8585	1195.28123	0
498	461.35089	654.19068	192.02612	-558.99129	135.88289	423.92207	-627.33957	-1310.82237	-61.02525	1156.22507	1852.72659	1212.3683	0
499	449.14584	710.33391	260.3744	-580.96038	94.38572	484.94732	-761.59512	-1891.78275	-715.21593	553.2956	1504.47583	1190.39921	0
500	419.85372	749.39007	328.72268	-585.8424	45.56552	538.64954	-883.64562	-2443.45101	-1381.61166	-96.82673	1084.62211	1136.69699	0
501	405.20766	761.59512	355.57379	-583.40139	25.22377	558.17762	-939.78885	-2704.63908	-1701.38397	-421.48106	860.04919	1100.08184	0
502	373.47453	776.24118	401.95298	-576.07836	-13.83239	589.91075	-1044.75228	-3168.43098	-2287.22637	-1034.17457	413.34436	1021.96952	0
503	344.18241	786.00522	441.00914	-566.31432	-48.00653	614.32085	-1130.18763	-3534.58248	-2777.86938	-1563.87374	2.44101	943.8572	0
504	310.00827	793.32825	482.50631	-551.66826	-87.06269	638.73095	-1188.77187	-3790.88853	-3144.02088	-1991.05049	-366.1515	870.6269	0
505	275.83413	807.97431	531.32651	-541.90422	-128.55986	670.46408	-1225.38702	-3915.38004	-3351.50673	-2266.88462	-651.74967	814.48367	0
506	251.42403	817.73835	565.50065	-534.58119	-157.85198	692.43317	-1244.9151	-3922.70307	-3400.32693	-2391.37613	-851.91249	765.66347	0
507	231.89595	834.82542	602.1158	-534.58119	-184.70309	719.28428	-1244.9151	-3839.70873	-3356.38875	-2432.8733	-993.49107	726.60731	0
508	202.60383	864.11754	660.70004	-534.58119	-228.64127	763.22246	-1222.94601	-3693.24813	-3256.30734	-2425.55027	-1096.01349	694.87418	0
509	161.10666	890.96865	729.04832	-527.25816	-284.7845	809.60165	-1179.00783	-3500.40834	-3119.61078	-2384.0531	-1171.6848	665.58206	0
510	119.60949	895.85067	775.42751	-507.73008	-328.72268	836.45276	-1113.10056	-3253.86633	-2931.65301	-2301.05876	-1220.505	616.76186	0
511	75.67131	881.20461	804.71963	-478.43796	-365.33783	843.77579	-1027.66521	-2982.91422	-2719.28514	-2183.89028	-1252.23813	548.41358	0
512	29.29212	842.14845	812.04266	-436.94079	-392.18894	826.68872	-925.14279	-2702.19807	-2494.71222	-2059.39877	-1271.76621	465.41924	0
513	-17.90074	788.44623	804.71963	-385.67958	-411.71702	794.95559	-812.85633	-2428.80495	-2267.69829	-1917.82019	-1271.76621	377.54288	0
514	-61.83892	717.65694	777.86852	-329.53635	-419.04005	746.13539	-698.12886	-2174.93991	-2050.4484	-1776.24161	-1262.00217	279.90248	0
515	-96.01306	637.10361	731.48933	-270.95211	-414.15803	682.66913	-590.72442	-1935.72093	-1847.84457	-1644.42707	-1249.79712	172.49804	0
516	-125.30518	551.66826	675.3461	-214.80888	-399.51197	611.87984	-493.08402	-1718.47104	-1662.32781	-1517.49455	-1225.38702	69.97562	-1500	QRS-0
517	-152.15629	473.55594	624.08489	-161.10666	-387.30692	548.41358	-410.08968	-1523.19024	-1498.78014	-1402.76708	-1191.21288	-17.90074	0
518	-171.68437	405.20766	575.26469	-117.16848	-372.66086	489.82934	-341.7414	-1347.43752	-1352.31954	-1295.36264	-1144.83369	-87.06269	0
519	-186.33043	336.85938	521.56247	-75.67131	-353.13278	428.80409	-283.15716	-1196.0949	-1222.94601	-1197.72224	-1093.57248	-143.20592	0
520	-196.09447	275.83413	470.30126	-41.49717	-333.6047	372.66086	-234.33696	-1056.95733	-1103.33652	-1109.84588	-1039.87026	-189.58511	0
521	-205.85851	212.36787	416.59904	-4.88202	-311.63561	314.07662	-192.83979	-932.46582	-995.93208	-1021.96952	-983.72703	-226.20026	0
522	-208.29952	151.34262	358.0148	27.66478	-282.34349	253.05137	-153.78363	-817.73835	-888.52764	-941.41619	-930.02481	-253.05137	0
523	-205.85851	92.75838	296.98955	54.51589	-250.61036	194.46713	-117.16848	-712.77492	-795.76926	-863.30387	-873.88158	-277.46147	0
524	-203.4175	39.05616	240.84632	81.367	-221.31824	138.3239	-85.43535	-622.45755	-710.33391	-790.07357	-822.62037	-296.98955	0
525	-191.21245	-7.32303	182.26208	98.45407	-187.1441	87.06269	-58.58424	-539.46321	-634.6626	-724.1663	-771.35916	-309.1946	0
526	-183.88942	-48.8202	133.44188	115.54114	-157.85198	40.6835	-34.17414	-468.67392	-568.75533	-660.70004	-720.09795	-318.95864	0
527	-174.12538	-78.92599	94.38572	125.30518	-135.88289	6.50936	-14.64606	-402.76665	-507.73008	-606.99782	-671.27775	-321.39965	0
528	-161.92033	-98.45407	62.65259	127.74619	-113.9138	-17.90074	0	-346.62342	-456.46887	-558.17762	-627.33957	-321.39965	0
529	-152.15629	-115.54114	35.80148	132.62821	-94.38572	-39.86983	12.20505	-297.80322	-412.53069	-519.12146	-585.8424	-314.07662	0
530	-142.39225	-122.86417	18.71441	130.1872	-82.18067	-52.88855	21.96909	-258.74706	-375.91554	-484.94732	-551.66826	-299.43056	0
531	-142.39225	-130.1872	11.39138	135.06922	-77.29865	-60.21158	26.85111	-229.45494	-344.18241	-455.6552	-524.81715	-282.34349	0
532	-142.39225	-135.06922	6.50936	137.51023	-74.85764	-65.0936	34.17414	-197.72181	-312.44928	-433.68611	-502.84806	-265.25642	0
533	-137.51023	-135.06922	1.62734	135.06922	-69.97562	-67.53461	43.93818	-170.8707	-290.48019	-411.71702	-485.76099	-253.05137	0
534	-132.62821	-135.06922	-3.25468	132.62821	-65.0936	-69.97562	56.14323	-151.34262	-268.5111	-389.74793	-468.67392	-245.72834	0
535	-130.1872	-132.62821	-3.25468	130.1872	-65.0936	-69.97562	64.27993	-131.81454	-251.42403	-375.10187	-456.46887	-243.28733	0
536	-130.1872	-127.74619	1.62734	127.74619	-67.53461	-65.0936	71.60296	-119.60949	-244.101	-365.33783	-444.26382	-245.72834	0
537	-122.86417	-120.42316	1.62734	120.42316	-62.65259	-60.21158	76.48498	-109.84545	-236.77797	-358.0148	-432.05877	-250.61036	0
538	-113.10013	-110.65912	1.62734	110.65912	-57.77057	-55.32956	74.04397	-107.40444	-236.77797	-358.0148	-427.17675	-257.93339	0
539	-105.7771	-103.33609	1.62734	103.33609	-55.32956	-52.88855	71.60296	-107.40444	-239.21898	-358.0148	-422.29473	-260.3744	0
540	-98.45407	-93.57205	4.06835	93.57205	-52.88855	-44.75185	69.16195	-107.40444	-241.65999	-362.89682	-417.41271	-260.3744	0
541	-93.57205	-88.69003	4.06835	88.69003	-50.44754	-42.31084	66.72094	-107.40444	-241.65999	-362.89682	-412.53069	-250.61036	0
542	-83.80801	-81.367	1.62734	81.367	-43.12451	-39.86983	69.16195	-104.96343	-236.77797	-362.89682	-412.53069	-240.84632	0
543	-76.48498	-76.48498	-0.81367	74.04397	-38.24249	-39.86983	74.04397	-95.19939	-231.89595	-355.57379	-407.64867	-228.64127	0
544	-76.48498	-69.16195	6.50936	71.60296	-43.12451	-32.5468	83.80801	-85.43535	-222.13191	-345.80975	-402.76665	-213.99521	0
545	-76.48498	-61.83892	13.83239	66.72094	-45.56552	-25.22377	98.45407	-73.2303	-214.80888	-338.48672	-393.00261	-201.79016	0
546	-78.92599	-59.39791	18.71441	66.72094	-50.44754	-20.34175	110.65912	-61.02525	-207.48585	-331.16369	-385.67958	-189.58511	0
547	-81.367	-52.07488	28.47845	64.27993	-55.32956	-13.01872	120.42316	-46.37919	-200.16282	-328.72268	-378.35655	-182.26208	0
548	-88.69003	-52.07488	35.80148	69.16195	-62.65259	-8.1367	125.30518	-36.61515	-197.72181	-326.28167	-373.47453	-174.93905	0
549	-98.45407	-48.8202	48.00653	71.60296	-72.41663	-0.81367	135.06922	-29.29212	-192.83979	-326.28167	-368.59251	-167.61602	0
550	-103.33609	-46.37919	55.32956	74.04397	-79.73966	4.06835	142.39225	-21.96909	-190.39878	-328.72268	-366.1515	-160.29299	0
551	-110.65912	-52.07488	57.77057	78.92599	-84.62168	1.62734	147.27427	-17.08707	-190.39878	-331.16369	-366.1515	-152.96996	0
552	-113.10013	-54.51589	57.77057	81.367	-87.06269	1.62734	154.5973	-7.32303	-183.07575	-336.04571	-371.03352	-148.08794	0
553	-117.98215	-59.39791	57.77057	86.24902	-89.5037	-0.81367	164.36134	2.44101	-180.63474	-333.6047	-375.91554	-148.08794	0
554	-115.54114	-61.83892	52.88855	86.24902	-84.62168	-5.69569	171.68437	9.76404	-175.75272	-328.72268	-378.35655	-150.52895	0
555	-113.10013	-59.39791	52.88855	83.80801	-84.62168	-3.25468	176.56639	21.96909	-170.8707	-328.72268	-378.35655	-155.41097	0
556	-115.54114	-61.83892	52.88855	86.24902	-84.62168	-5.69569	176.56639	29.29212	-170.8707	-326.28167	-378.35655	-162.734	0
557	-117.98215	-61.83892	55.32956	88.69003	-87.06269	-3.25468	171.68437	36.61515	-170.8707	-326.28167	-378.35655	-174.93905	0
558	-120.42316	-56.9569	62.65259	86.24902	-91.94471	1.62734	164.36134	46.37919	-168.42969	-326.28167	-378.35655	-187.1441	0
559	-120.42316	-56.9569	62.65259	86.24902	-91.94471	1.62734	159.47932	48.8202	-165.98868	-328.72268	-380.79756	-196.90814	0
560	-122.86417	-59.39791	62.65259	88.69003	-94.38572	1.62734	157.03831	53.70222	-163.54767	-336.04571	-383.23857	-204.23117	0
561	-125.30518	-64.27993	60.21158	93.57205	-94.38572	-3.25468	157.03831	61.02525	-161.10666	-336.04571	-388.12059	-206.67218	0
562	-125.30518	-71.60296	52.88855	96.01306	-89.5037	-10.57771	159.47932	70.78929	-151.34262	-336.04571	-393.00261	-206.67218	0
563	-127.74619	-76.48498	50.44754	100.89508	-89.5037	-13.01872	166.80235	85.43535	-144.01959	-331.16369	-393.00261	-206.67218	0
564	-127.74619	-78.92599	48.00653	100.89508	-89.5037	-15.45973	179.0074	100.08141	-131.81454	-326.28167	-395.44362	-206.67218	0
565	-122.86417	-78.92599	43.12451	98.45407	-84.62168	-17.90074	188.77144	117.16848	-122.0505	-318.95864	-395.44362	-206.67218	0
566	-122.86417	-71.60296	50.44754	96.01306	-87.06269	-10.57771	200.97649	139.13757	-109.84545	-311.63561	-388.12059	-206.67218	0
567	-125.30518	-69.16195	55.32956	96.01306	-91.94471	-8.1367	208.29952	161.10666	-100.08141	-306.75359	-385.67958	-211.5542	0
568	-132.62821	-61.83892	69.97562	96.01306	-101.70875	4.06835	215.62255	180.63474	-90.31737	-299.43056	-383.23857	-213.99521	0
569	-132.62821	-54.51589	77.29865	91.13104	-106.59077	11.39138	225.38659	200.97649	-75.67131	-294.54854	-380.79756	-213.99521	0
570	-132.62821	-52.07488	79.73966	91.13104	-106.59077	13.83239	237.59164	222.94558	-61.02525	-289.66652	-378.35655	-213.99521	0
571	-132.62821	-52.07488	79.73966	91.13104	-106.59077	13.83239	252.2377	244.91467	-43.93818	-282.34349	-373.47453	-209.11319	0
572	-139.95124	-54.51589	84.62168	96.01306	-113.9138	13.83239	266.88376	269.32477	-21.96909	-275.02046	-373.47453	-204.23117	0
573	-142.39225	-54.51589	87.06269	96.01306	-116.35481	16.2734	281.52982	293.73487	-4.88202	-262.81541	-371.03352	-199.34915	0
574	-139.95124	-54.51589	84.62168	96.01306	-113.9138	13.83239	293.73487	318.14497	14.64606	-248.16935	-366.1515	-194.46713	0
575	-139.95124	-54.51589	84.62168	96.01306	-113.9138	13.83239	303.49891	340.11406	31.73313	-238.40531	-363.71049	-196.90814	0
576	-139.95124	-52.07488	87.06269	93.57205	-113.9138	16.2734	308.38093	364.52416	43.93818	-226.20026	-358.82847	-199.34915	0
577	-132.62821	-52.07488	79.73966	91.13104	-106.59077	13.83239	308.38093	384.05224	58.58424	-218.87723	-353.94645	-201.79016	0
578	-132.62821	-48.8202	82.18067	88.69003	-106.59077	16.2734	303.49891	406.02133	70.78929	-209.11319	-349.06443	-204.23117	0
579	-130.1872	-52.07488	77.29865	88.69003	-104.14976	11.39138	301.0579	423.1084	82.99434	-204.23117	-344.18241	-206.67218	0
580	-127.74619	-52.07488	74.85764	88.69003	-101.70875	11.39138	301.0579	440.19547	100.08141	-199.34915	-339.30039	-201.79016	0
581	-127.74619	-56.9569	69.97562	91.13104	-99.26774	6.50936	305.93992	459.72355	117.16848	-189.58511	-331.97736	-194.46713	0
582	-125.30518	-61.83892	62.65259	91.13104	-94.38572	-0.81367	310.82194	481.69264	137.51023	-177.38006	-324.65433	-182.26208	0
583	-122.86417	-64.27993	57.77057	91.13104	-91.94471	-3.25468	318.14497	501.22072	154.5973	-162.734	-317.3313	-172.49804	0
584	-125.30518	-69.16195	55.32956	96.01306	-91.94471	-8.1367	325.468	523.18981	174.12538	-148.08794	-310.00827	-167.61602	0
585	-122.86417	-69.16195	52.88855	93.57205	-89.5037	-8.1367	327.90901	540.27688	188.77144	-135.88289	-302.68524	-167.61602	0
586	-122.86417	-71.60296	50.44754	96.01306	-87.06269	-10.57771	325.468	554.92294	200.97649	-126.11885	-292.9212	-167.61602	0
587	-122.86417	-69.16195	52.88855	93.57205	-89.5037	-8.1367	320.58598	569.569	208.29952	-118.79582	-285.59817	-170.05703	0
588	-125.30518	-69.16195	55.32956	96.01306	-91.94471	-8.1367	313.26295	579.33304	215.62255	-111.47279	-280.71615	-172.49804	0
589	-127.74619	-71.60296	55.32956	98.45407	-91.94471	-8.1367	305.93992	584.21506	222.94558	-106.59077	-273.39312	-174.93905	0
590	-127.74619	-76.48498	50.44754	100.89508	-89.5037	-13.01872	296.17588	591.53809	230.26861	-101.70875	-268.5111	-172.49804	0
591	-122.86417	-78.92599	43.12451	98.45407	-84.62168	-17.90074	288.85285	593.9791	235.15063	-96.82673	-261.18807	-165.17501	0
592	-115.54114	-81.367	33.36047	96.01306	-74.85764	-25.22377	286.41184	598.86112	247.35568	-89.5037	-256.30605	-155.41097	0
593	-113.10013	-86.24902	26.03744	98.45407	-69.97562	-30.10579	283.97083	606.18415	257.11972	-77.29865	-246.54201	-148.08794	0
594	-113.10013	-93.57205	18.71441	100.89508	-67.53461	-37.42882	283.97083	613.50718	266.88376	-67.53461	-241.65999	-143.20592	0
595	-108.21811	-93.57205	13.83239	98.45407	-62.65259	-39.86983	281.52982	620.83021	271.76578	-60.21158	-234.33696	-145.64693	0
596	-103.33609	-96.01306	6.50936	98.45407	-55.32956	-44.75185	279.08881	625.71223	279.08881	-48.00653	-222.13191	-145.64693	0
597	-100.89508	-93.57205	6.50936	96.01306	-55.32956	-44.75185	276.6478	635.47627	286.41184	-38.24249	-209.92686	-148.08794	0
598	-103.33609	-91.13104	11.39138	96.01306	-57.77057	-39.86983	276.6478	645.24031	293.73487	-26.03744	-195.2808	-148.08794	0
599	-103.33609	-93.57205	8.95037	96.01306	-57.77057	-42.31084	271.76578	650.12233	301.0579	-18.71441	-183.07575	-150.52895	0
600	-100.89508	-91.13104	8.95037	93.57205	-55.32956	-42.31084	269.32477	652.56334	310.82194	-6.50936	-165.98868	-143.20592	0
601	-93.57205	-88.69003	4.06835	88.69003	-50.44754	-42.31084	266.88376	655.00435	323.02699	10.57771	-148.90161	-131.00087	0
602	-83.80801	-88.69003	-5.69569	83.80801	-40.6835	-47.19286	266.88376	657.44536	337.67305	25.22377	-134.25555	-118.79582	0
603	-78.92599	-88.69003	-10.57771	81.367	-35.80148	-49.63387	266.88376	659.88637	347.43709	44.75185	-114.72747	-104.14976	0
604	-74.04397	-91.13104	-17.90074	81.367	-28.47845	-55.32956	264.44275	655.00435	354.76012	64.27993	-95.19939	-91.94471	0
605	-64.27993	-91.13104	-27.66478	76.48498	-18.71441	-60.21158	257.11972	650.12233	359.64214	77.29865	-75.67131	-82.18067	0
606	-56.9569	-91.13104	-34.98781	71.60296	-11.39138	-65.0936	247.35568	640.35829	364.52416	96.82673	-53.70222	-72.41663	0
607	-49.63387	-91.13104	-42.31084	69.16195	-4.06835	-67.53461	232.70962	630.59425	366.96517	111.47279	-29.29212	-65.0936	0
608	-44.75185	-86.24902	-42.31084	64.27993	-1.62734	-65.0936	215.62255	618.3892	366.96517	126.11885	-7.32303	-57.77057	0
609	-39.86983	-86.24902	-47.19286	61.83892	3.25468	-67.53461	198.53548	603.74314	371.84719	140.76491	15.45973	-49.63387	0
610	-27.66478	-88.69003	-62.65259	56.9569	15.45973	-77.29865	179.0074	586.65607	371.84719	152.96996	39.86983	-42.31084	0
611	-15.45973	-88.69003	-74.85764	49.63387	28.47845	-82.18067	161.92033	567.12799	376.72921	170.05703	64.27993	-27.66478	0
612	-5.69569	-91.13104	-87.06269	47.19286	40.6835	-89.5037	147.27427	550.04092	384.05224	187.1441	88.69003	-13.01872	0
613	2.44101	-96.01306	-99.26774	44.75185	50.44754	-96.82673	132.62821	532.95385	384.05224	206.67218	113.10013	-0.81367	0
614	12.20505	-98.45407	-111.47279	42.31084	60.21158	-104.14976	117.98215	513.42577	388.93426	226.20026	137.51023	13.83239	0
615	24.4101	-100.89508	-126.11885	37.42882	74.85764	-113.9138	100.89508	493.89769	386.49325	243.28733	159.47932	21.15542	0
616	34.17414	-100.89508	-135.88289	32.5468	84.62168	-118.79582	83.80801	474.36961	384.05224	260.3744	183.88942	28.47845	0
617	36.61515	-103.33609	-140.76491	32.5468	87.06269	-121.23683	69.16195	459.72355	381.61123	272.57945	205.85851	35.80148	0
618	41.49717	-105.7771	-148.08794	30.10579	94.38572	-126.11885	51.26121	442.63648	376.72921	284.7845	225.38659	40.6835	0
619	48.8202	-105.7771	-155.41097	27.66478	101.70875	-131.00087	34.17414	425.54941	374.2882	292.10753	242.47366	43.12451	0
620	56.14323	-108.21811	-165.17501	24.4101	109.03178	-135.88289	21.96909	413.34436	374.2882	301.87157	257.11972	45.56552	0
621	58.58424	-113.10013	-172.49804	24.4101	113.9138	-143.20592	14.64606	398.6983	376.72921	311.63561	271.76578	50.44754	0
622	63.46626	-120.42316	-184.70309	27.66478	123.67784	-152.96996	7.32303	388.93426	376.72921	316.51763	283.97083	55.32956	0
623	68.34828	-125.30518	-194.46713	27.66478	131.00087	-160.29299	2.44101	379.17022	376.72921	323.84066	293.73487	57.77057	0
624	73.2303	-132.62821	-206.67218	27.66478	138.3239	-170.05703	-2.44101	371.84719	376.72921	331.16369	301.0579	57.77057	0
625	75.67131	-137.51023	-213.99521	30.10579	143.20592	-174.93905	-4.88202	364.52416	374.2882	336.04571	308.38093	55.32956	0
626	73.2303	-144.83326	-218.87723	34.98781	145.64693	-182.26208	-12.20505	357.20113	369.40618	340.92773	315.70396	55.32956	0
627	75.67131	-147.27427	-223.75925	34.98781	148.08794	-184.70309	-19.52808	352.31911	364.52416	340.92773	323.02699	52.88855	0
628	78.11232	-147.27427	-226.20026	32.5468	150.52895	-187.1441	-24.4101	349.8781	359.64214	340.92773	327.90901	52.88855	0
629	80.55333	-147.27427	-228.64127	32.5468	152.96996	-187.1441	-31.73313	340.11406	357.20113	336.04571	332.79103	55.32956	0
630	82.99434	-147.27427	-231.08228	30.10579	155.41097	-189.58511	-39.05616	332.79103	352.31911	333.6047	337.67305	62.65259	0
631	87.87636	-149.71528	-238.40531	30.10579	162.734	-194.46713	-43.93818	323.02699	349.8781	333.6047	340.11406	69.97562	0
632	97.6404	-152.15629	-250.61036	24.4101	172.49804	-201.79016	-48.8202	315.70396	349.8781	333.6047	342.55507	79.73966	0
633	107.40444	-152.15629	-260.3744	21.96909	182.26208	-206.67218	-51.26121	308.38093	344.99608	331.16369	342.55507	84.62168	0
634	109.84545	-157.03831	-267.69743	21.96909	187.1441	-211.5542	-51.26121	301.0579	342.55507	331.16369	342.55507	87.06269	0
635	109.84545	-159.47932	-270.13844	24.4101	189.58511	-213.99521	-51.26121	293.73487	335.23204	326.28167	340.11406	87.06269	0
636	112.28646	-159.47932	-272.57945	21.96909	192.02612	-216.43622	-53.70222	286.41184	325.468	323.84066	337.67305	89.5037	0
637	114.72747	-154.5973	-270.13844	19.52808	192.02612	-211.5542	-53.70222	283.97083	318.14497	318.95864	337.67305	91.94471	0
638	112.28646	-152.15629	-265.25642	19.52808	187.1441	-209.11319	-53.70222	283.97083	310.82194	314.07662	332.79103	89.5037	0
639	107.40444	-149.71528	-257.93339	19.52808	182.26208	-204.23117	-56.14323	283.97083	305.93992	306.75359	327.90901	87.06269	0
640	104.96343	-147.27427	-253.05137	19.52808	177.38006	-199.34915	-53.70222	283.97083	305.93992	299.43056	323.02699	87.06269	0
641	104.96343	-142.39225	-248.16935	17.08707	174.93905	-194.46713	-48.8202	283.97083	305.93992	299.43056	320.58598	94.38572	0
642	95.19939	-144.83326	-240.84632	24.4101	167.61602	-192.02612	-43.93818	288.85285	308.38093	294.54854	313.26295	96.82673	0
643	92.75838	-144.83326	-238.40531	24.4101	165.17501	-192.02612	-41.49717	291.29386	305.93992	292.10753	305.93992	94.38572	0
644	85.43535	-142.39225	-228.64127	27.66478	155.41097	-184.70309	-31.73313	293.73487	305.93992	287.22551	296.17588	91.94471	0
645	78.11232	-137.51023	-216.43622	27.66478	145.64693	-177.38006	-26.85111	291.29386	298.61689	282.34349	288.85285	87.06269	0
646	78.11232	-132.62821	-211.5542	24.4101	143.20592	-172.49804	-24.4101	288.85285	288.85285	277.46147	283.97083	82.18067	0
647	73.2303	-130.1872	-204.23117	27.66478	138.3239	-167.61602	-24.4101	286.41184	281.52982	270.13844	279.08881	74.85764	0
648	70.78929	-125.30518	-196.90814	24.4101	133.44188	-160.29299	-26.85111	286.41184	274.20679	265.25642	274.20679	65.0936	0
649	68.34828	-122.86417	-192.02612	24.4101	128.55986	-157.85198	-24.4101	281.52982	271.76578	257.93339	269.32477	60.21158	0
650	65.90727	-122.86417	-189.58511	27.66478	126.11885	-155.41097	-21.96909	281.52982	271.76578	255.49238	269.32477	60.21158	0
651	65.90727	-120.42316	-187.1441	24.4101	126.11885	-152.96996	-19.52808	281.52982	271.76578	253.05137	269.32477	62.65259	0
652	63.46626	-125.30518	-189.58511	30.10579	126.11885	-157.85198	-17.08707	281.52982	279.08881	255.49238	269.32477	67.53461	0
653	61.02525	-125.30518	-187.1441	30.10579	123.67784	-155.41097	-14.64606	283.97083	279.08881	255.49238	269.32477	72.41663	0
654	61.02525	-125.30518	-187.1441	30.10579	123.67784	-155.41097	-7.32303	286.41184	281.52982	262.81541	271.76578	74.85764	0
655	63.46626	-120.42316	-184.70309	27.66478	123.67784	-152.96996	-7.32303	288.85285	281.52982	262.81541	274.20679	74.85764	0
656	63.46626	-120.42316	-184.70309	27.66478	123.67784	-152.96996	-7.32303	288.85285	276.6478	265.25642	276.6478	74.85764	0
657	63.46626	-117.98215	-182.26208	24.4101	121.23683	-150.52895	-12.20505	291.29386	274.20679	262.81541	276.6478	74.85764	0
658	68.34828	-108.21811	-177.38006	19.52808	121.23683	-143.20592	-17.08707	291.29386	269.32477	260.3744	276.6478	69.97562	0
659	68.34828	-105.7771	-174.93905	17.08707	121.23683	-140.76491	-24.4101	283.97083	266.88376	253.05137	271.76578	67.53461	0
660	63.46626	-110.65912	-174.93905	21.96909	118.79582	-143.20592	-34.17414	276.6478	259.56073	245.72834	266.88376	65.0936	0
661	61.02525	-113.10013	-174.93905	24.4101	116.35481	-143.20592	-43.93818	264.44275	254.67871	240.84632	262.00174	65.0936	0
662	63.46626	-117.98215	-182.26208	24.4101	121.23683	-150.52895	-51.26121	259.56073	254.67871	235.9643	257.11972	65.0936	0
663	61.02525	-122.86417	-184.70309	30.10579	121.23683	-152.96996	-58.58424	252.2377	249.79669	233.52329	249.79669	62.65259	0
664	56.14323	-130.1872	-187.1441	34.98781	121.23683	-157.85198	-61.02525	247.35568	249.79669	233.52329	249.79669	57.77057	0
665	56.14323	-137.51023	-194.46713	39.86983	123.67784	-165.17501	-65.90727	242.47366	244.91467	233.52329	247.35568	55.32956	0
666	58.58424	-142.39225	-201.79016	39.86983	128.55986	-172.49804	-68.34828	242.47366	244.91467	235.9643	252.2377	55.32956	0
667	61.02525	-147.27427	-209.11319	42.31084	133.44188	-177.38006	-70.78929	244.91467	244.91467	238.40531	257.11972	55.32956	0
668	61.02525	-149.71528	-211.5542	42.31084	135.88289	-179.82107	-73.2303	247.35568	242.47366	240.84632	262.00174	57.77057	0
669	61.02525	-152.15629	-213.99521	44.75185	135.88289	-182.26208	-75.67131	247.35568	242.47366	240.84632	266.88376	62.65259	0
670	61.02525	-157.03831	-218.87723	47.19286	138.3239	-187.1441	-80.55333	244.91467	244.91467	240.84632	269.32477	69.97562	0
671	63.46626	-157.03831	-221.31824	44.75185	140.76491	-189.58511	-80.55333	244.91467	249.79669	243.28733	271.76578	77.29865	0
672	65.90727	-157.03831	-223.75925	44.75185	143.20592	-189.58511	-80.55333	247.35568	254.67871	243.28733	271.76578	87.06269	0
673	63.46626	-154.5973	-218.87723	44.75185	140.76491	-187.1441	-78.11232	252.2377	259.56073	248.16935	271.76578	91.94471	0
674	65.90727	-154.5973	-221.31824	42.31084	143.20592	-187.1441	-78.11232	254.67871	264.44275	253.05137	271.76578	91.94471	0
675	63.46626	-147.27427	-211.5542	39.86983	135.88289	-179.82107	-73.2303	262.00174	266.88376	255.49238	271.76578	89.5037	0
676	63.46626	-139.95124	-204.23117	37.42882	133.44188	-172.49804	-68.34828	269.32477	269.32477	260.3744	274.20679	82.18067	0
677	63.46626	-135.06922	-199.34915	34.98781	131.00087	-167.61602	-68.34828	276.6478	269.32477	260.3744	274.20679	72.41663	0
678	63.46626	-135.06922	-199.34915	34.98781	131.00087	-167.61602	-68.34828	281.52982	269.32477	260.3744	274.20679	62.65259	0
679	61.02525	-135.06922	-196.90814	34.98781	128.55986	-165.17501	-68.34828	283.97083	269.32477	257.93339	271.76578	57.77057	0
680	56.14323	-139.95124	-196.90814	39.86983	126.11885	-167.61602	-63.46626	286.41184	274.20679	257.93339	269.32477	55.32956	0
681	56.14323	-142.39225	-199.34915	42.31084	126.11885	-170.05703	-61.02525	288.85285	279.08881	260.3744	269.32477	55.32956	0
682	51.26121	-147.27427	-199.34915	47.19286	123.67784	-172.49804	-56.14323	296.17588	286.41184	262.81541	266.88376	60.21158	0
683	48.8202	-149.71528	-199.34915	49.63387	123.67784	-174.93905	-48.8202	303.49891	291.29386	270.13844	269.32477	67.53461	0
684	43.93818	-152.15629	-196.90814	52.07488	118.79582	-174.93905	-39.05616	313.26295	303.49891	279.90248	274.20679	69.97562	0
685	41.49717	-152.15629	-194.46713	54.51589	116.35481	-172.49804	-29.29212	325.468	313.26295	289.66652	281.52982	69.97562	0
686	43.93818	-154.5973	-199.34915	54.51589	121.23683	-177.38006	-29.29212	342.55507	325.468	309.1946	291.29386	67.53461	0
687	48.8202	-157.03831	-206.67218	52.07488	126.11885	-182.26208	-26.85111	366.96517	349.8781	331.16369	305.93992	60.21158	0
688	53.70222	-164.36134	-218.87723	54.51589	135.88289	-192.02612	-24.4101	398.6983	386.49325	365.33783	325.468	50.44754	0
689	61.02525	-179.0074	-240.84632	56.9569	150.52895	-209.11319	-19.52808	440.19547	440.19547	401.95298	344.99608	43.12451	0
690	65.90727	-200.97649	-267.69743	66.72094	165.17501	-233.52329	-12.20505	493.89769	506.10274	455.6552	369.40618	38.24249	0
691	73.2303	-220.50457	-294.54854	71.60296	182.26208	-257.93339	-2.44101	557.36395	589.09708	526.44449	406.02133	43.12451	0
692	80.55333	-232.70962	-314.07662	74.04397	196.90814	-272.57945	14.64606	637.91728	689.17849	611.87984	457.28254	55.32956	0
693	87.87636	-235.15063	-323.84066	71.60296	204.23117	-279.90248	29.29212	728.23465	801.46495	716.84327	528.07183	79.73966	0
694	102.52242	-220.50457	-323.84066	56.9569	211.5542	-272.57945	48.8202	828.31606	935.7205	843.77579	615.94819	116.35481	0
695	119.60949	-188.77144	-309.1946	32.5468	213.99521	-248.16935	58.58424	943.04353	1082.1811	987.79538	725.79364	162.734	0
696	141.57858	-139.95124	-282.34349	-2.44101	211.5542	-211.5542	66.72094	1052.88898	1228.6417	1148.90204	860.04919	228.64127	0
697	168.42969	-74.04397	-243.28733	-48.8202	204.23117	-157.85198	64.27993	1140.76534	1367.77927	1319.77274	1021.15585	309.1946	0
698	197.72181	4.88202	-194.46713	-102.52242	196.90814	-94.38572	51.26121	1184.70352	1480.06573	1497.96647	1209.11362	411.71702	0
699	229.45494	92.75838	-138.3239	-161.10666	184.70309	-22.78276	31.73313	1167.61645	1555.73704	1671.27818	1419.04048	541.09055	0
700	263.62908	192.83979	-72.41663	-229.45494	167.61602	60.21158	-7.32303	1074.85807	1580.14714	1826.68915	1633.84936	687.55115	0
701	300.24423	292.9212	-8.1367	-297.80322	155.41097	143.20592	-63.46626	894.22333	1531.32694	1946.29864	1838.08053	846.2168	0
702	334.41837	395.44362	60.21158	-366.1515	138.3239	228.64127	-139.13757	630.59425	1401.95341	2002.44187	2016.27426	1002.44144	0
703	368.59251	495.52503	126.11885	-432.05877	121.23683	311.63561	-231.89595	296.17588	1187.14453	1975.59076	2135.88375	1144.02002	0
704	395.44362	593.16543	196.90814	-495.52503	99.26774	394.62995	-336.85938	-107.40444	882.01828	1826.68915	2155.41183	1253.86547	0
705	414.9717	676.15977	260.3744	-546.78624	77.29865	467.86025	-461.35089	-578.51937	467.04658	1532.14061	2052.88941	1314.89072	0
706	414.9717	739.62603	323.84066	-578.51937	45.56552	531.32651	-598.04745	-1096.01349	-73.2303	1068.34871	1808.78841	1327.09577	0
707	397.88463	788.44623	389.74793	-593.16543	3.25468	589.91075	-732.303	-1633.03569	-707.8929	460.53722	1445.89159	1297.80365	0
708	373.47453	825.06138	450.77318	-600.48846	-38.24249	638.73095	-861.67653	-2155.41183	-1359.64257	-194.46713	1008.9508	1234.33739	0
709	341.7414	844.58946	502.03439	-593.16543	-79.73966	672.90509	-983.72703	-2641.17282	-1969.89507	-843.77579	537.83587	1153.78406	0
710	310.00827	854.3535	543.53156	-583.40139	-116.35481	699.7562	-1096.01349	-3061.02654	-2509.35828	-1427.17718	86.24902	1070.78972	0
711	268.5111	856.79451	587.46974	-563.87331	-160.29299	721.72529	-1188.77187	-3397.88592	-2953.6221	-1920.2612	-327.09534	990.23639	0
712	229.45494	866.55855	636.28994	-549.22725	-204.23117	751.01741	-1249.79712	-3620.01783	-3253.86633	-2286.4127	-673.71876	919.4471	0
713	197.72181	873.88158	675.3461	-537.0222	-238.40531	775.42751	-1283.97126	-3717.65823	-3390.56289	-2479.25249	-920.26077	858.42185	0
714	168.42969	881.20461	711.96125	-524.81715	-272.57945	797.3966	-1296.17631	-3720.09924	-3402.76794	-2562.24683	-1100.89551	799.83761	0
715	136.69656	893.40966	755.89943	-515.05311	-309.1946	824.24771	-1286.41227	-3634.66389	-3341.74269	-2574.45188	-1225.38702	743.69438	0
716	100.08141	908.05572	807.16064	-505.28907	-353.13278	858.42185	-1259.56116	-3483.32127	-3231.89724	-2540.27774	-1313.26338	692.43317	0
717	61.02525	905.61471	843.77579	-483.31998	-392.18894	875.50892	-1210.74096	-3270.9534	-3065.90856	-2464.60643	-1362.08358	628.96691	0
718	24.4101	878.7636	853.53983	-451.58685	-414.15803	865.74488	-1144.83369	-3012.20634	-2860.86372	-2347.43795	-1384.05267	550.85459	0
719	-13.01872	832.38441	843.77579	-410.08968	-428.80409	836.45276	-1059.39834	-2738.81322	-2631.40878	-2215.62341	-1393.81671	458.09621	0
720	-54.51589	771.35916	824.24771	-358.82847	-438.56813	797.3966	-964.19895	-2465.4201	-2394.63081	-2064.28079	-1384.05267	362.89682	0
721	-98.45407	693.24684	790.07357	-297.80322	-443.45015	741.25337	-864.11754	-2201.79102	-2167.61688	-1905.61514	-1357.20156	267.69743	0
722	-132.62821	610.2525	741.25337	-239.21898	-436.12712	675.3461	-759.15411	-1960.13103	-1950.36699	-1759.15454	-1325.46843	170.05703	0
723	-159.47932	524.81715	682.66913	-183.07575	-421.48106	602.1158	-656.63169	-1740.44013	-1755.08619	-1620.01697	-1288.85328	72.41663	0
724	-181.44841	449.14584	628.96691	-134.25555	-404.39399	538.64954	-561.4323	-1547.60034	-1581.77448	-1495.52546	-1247.35611	-8.1367	0
725	-196.09447	388.12059	582.58772	-97.6404	-389.74793	484.94732	-480.87897	-1374.28863	-1425.54984	-1375.91597	-1193.65389	-69.97562	0
726	-208.29952	329.53635	536.20853	-61.02525	-372.66086	431.2451	-419.85372	-1218.06399	-1293.7353	-1268.51153	-1135.06965	-121.23683	0
727	-213.18154	275.83413	487.38833	-31.73313	-350.69177	379.98389	-368.59251	-1076.48541	-1171.6848	-1170.87113	-1071.60339	-160.29299	0
728	-215.62255	231.89595	445.89116	-9.76404	-331.16369	338.48672	-322.21332	-947.11188	-1061.83935	-1080.55376	-1008.13713	-189.58511	0
729	-215.62255	183.07575	397.07096	14.64606	-306.75359	289.66652	-278.27514	-834.82542	-954.43491	-997.55942	-949.55289	-209.11319	0
730	-210.74053	136.69656	345.80975	34.98781	-277.46147	240.84632	-239.21898	-729.86199	-856.79451	-919.4471	-893.40966	-223.75925	0
731	-205.85851	90.31737	294.54854	56.9569	-250.61036	192.02612	-200.16282	-632.22159	-766.47714	-843.77579	-842.14845	-235.9643	0
732	-200.97649	46.37919	245.72834	76.48498	-223.75925	145.64693	-163.54767	-539.46321	-681.04179	-772.9865	-790.88724	-243.28733	0
733	-191.21245	14.64606	204.23117	86.24902	-196.90814	109.03178	-126.93252	-451.58685	-605.37048	-704.63822	-737.18502	-243.28733	0
734	-186.33043	-14.64606	170.05703	98.45407	-177.38006	77.29865	-87.87636	-375.91554	-532.14018	-643.61297	-690.80583	-248.16935	0
735	-181.44841	-41.49717	138.3239	110.65912	-160.29299	48.00653	-58.58424	-310.00827	-473.55594	-589.91075	-649.30866	-255.49238	0
736	-176.56639	-59.39791	116.35481	115.54114	-148.08794	28.47845	-31.73313	-246.54201	-424.73574	-541.09055	-610.2525	-260.3744	0
737	-169.24336	-74.04397	94.38572	120.42316	-133.44188	8.95037	-12.20505	-190.39878	-383.23857	-504.4754	-571.19634	-260.3744	0
738	-164.36134	-81.367	82.18067	120.42316	-123.67784	-0.81367	2.44101	-148.90161	-346.62342	-467.86025	-532.14018	-250.61036	0
739	-159.47932	-83.80801	74.85764	120.42316	-118.79582	-5.69569	14.64606	-117.16848	-314.89029	-443.45015	-502.84806	-240.84632	0
740	-152.15629	-86.24902	65.0936	117.98215	-109.03178	-10.57771	24.4101	-87.87636	-283.15716	-419.04005	-478.43796	-226.20026	0
741	-144.83326	-86.24902	57.77057	113.10013	-101.70875	-15.45973	34.17414	-63.46626	-256.30605	-392.18894	-456.46887	-209.11319	0
742	-142.39225	-83.80801	57.77057	110.65912	-101.70875	-13.01872	43.93818	-36.61515	-234.33696	-372.66086	-434.49978	-189.58511	0
743	-139.95124	-78.92599	60.21158	108.21811	-101.70875	-10.57771	51.26121	-17.08707	-217.24989	-353.13278	-414.9717	-174.93905	0
744	-142.39225	-74.04397	67.53461	105.7771	-106.59077	-3.25468	58.58424	-4.88202	-200.16282	-338.48672	-400.32564	-165.17501	0
745	-139.95124	-69.16195	69.97562	103.33609	-106.59077	-0.81367	64.27993	4.88202	-195.2808	-331.16369	-393.00261	-165.17501	0
746	-139.95124	-61.83892	77.29865	98.45407	-109.03178	6.50936	64.27993	17.08707	-195.2808	-326.28167	-385.67958	-165.17501	0
747	-139.95124	-61.83892	77.29865	98.45407	-109.03178	6.50936	64.27993	24.4101	-195.2808	-323.84066	-375.91554	-162.734	0
748	-135.06922	-59.39791	74.85764	96.01306	-106.59077	6.50936	64.27993	29.29212	-197.72181	-323.84066	-368.59251	-157.85198	0
749	-132.62821	-61.83892	69.97562	96.01306	-101.70875	4.06835	69.16195	26.85111	-190.39878	-326.28167	-366.1515	-148.08794	0
750	-130.1872	-66.72094	62.65259	96.01306	-96.82673	-3.25468	74.04397	26.85111	-187.95777	-326.28167	-363.71049	-135.88289	0
751	-127.74619	-69.16195	57.77057	96.01306	-94.38572	-5.69569	81.367	29.29212	-183.07575	-318.95864	-363.71049	-123.67784	0
752	-127.74619	-74.04397	52.88855	98.45407	-91.94471	-10.57771	86.24902	34.17414	-178.19373	-316.51763	-366.1515	-116.35481	0
753	-132.62821	-74.04397	57.77057	100.89508	-96.82673	-8.1367	96.01306	39.05616	-173.31171	-311.63561	-363.71049	-113.9138	0
754	-130.1872	-74.04397	55.32956	100.89508	-94.38572	-10.57771	103.33609	39.05616	-165.98868	-311.63561	-366.1515	-116.35481	0
755	-132.62821	-71.60296	60.21158	100.89508	-96.82673	-5.69569	103.33609	39.05616	-165.98868	-311.63561	-371.03352	-126.11885	0
756	-132.62821	-69.16195	62.65259	98.45407	-99.26774	-3.25468	100.89508	43.93818	-170.8707	-311.63561	-375.91554	-140.76491	0
757	-132.62821	-66.72094	65.0936	98.45407	-99.26774	-0.81367	96.01306	48.8202	-175.75272	-316.51763	-375.91554	-152.96996	0
758	-130.1872	-66.72094	62.65259	96.01306	-96.82673	-3.25468	93.57205	51.26121	-178.19373	-321.39965	-375.91554	-160.29299	0
759	-127.74619	-66.72094	60.21158	96.01306	-94.38572	-3.25468	93.57205	48.8202	-175.75272	-326.28167	-380.79756	-162.734	0
760	-130.1872	-69.16195	60.21158	98.45407	-96.82673	-5.69569	93.57205	48.8202	-170.8707	-326.28167	-385.67958	-162.734	0
761	-132.62821	-69.16195	62.65259	98.45407	-99.26774	-3.25468	96.01306	51.26121	-165.98868	-323.84066	-390.5616	-157.85198	0
762	-137.51023	-66.72094	69.97562	100.89508	-104.14976	1.62734	100.89508	61.02525	-161.10666	-321.39965	-393.00261	-152.96996	0
763	-142.39225	-61.83892	79.73966	100.89508	-111.47279	8.95037	108.21811	68.34828	-156.22464	-316.51763	-393.00261	-152.96996	0
764	-137.51023	-52.07488	84.62168	93.57205	-111.47279	16.2734	113.10013	70.78929	-148.90161	-314.07662	-393.00261	-152.96996	0
765	-135.06922	-46.37919	87.06269	88.69003	-111.47279	18.71441	115.54114	78.11232	-144.01959	-309.1946	-393.00261	-160.29299	0
766	-135.06922	-39.05616	94.38572	86.24902	-113.9138	26.03744	113.10013	85.43535	-144.01959	-304.31258	-393.00261	-167.61602	0
767	-130.1872	-34.17414	94.38572	81.367	-111.47279	28.47845	105.7771	97.6404	-141.57858	-301.87157	-385.67958	-177.38006	0
768	-125.30518	-31.73313	91.94471	76.48498	-109.03178	28.47845	98.45407	107.40444	-139.13757	-301.87157	-383.23857	-184.70309	0
769	-117.98215	-36.61515	79.73966	76.48498	-99.26774	21.15542	93.57205	107.40444	-131.81454	-304.31258	-383.23857	-187.1441	0
770	-122.86417	-43.93818	77.29865	81.367	-99.26774	16.2734	93.57205	114.72747	-117.16848	-299.43056	-380.79756	-182.26208	0
771	-130.1872	-52.07488	77.29865	88.69003	-104.14976	11.39138	93.57205	129.37353	-104.96343	-287.22551	-378.35655	-172.49804	0
772	-130.1872	-56.9569	72.41663	91.13104	-101.70875	6.50936	96.01306	146.4606	-92.75838	-279.90248	-373.47453	-162.734	0
773	-127.74619	-56.9569	69.97562	91.13104	-99.26774	6.50936	103.33609	163.54767	-78.11232	-270.13844	-366.1515	-152.96996	0
774	-130.1872	-56.9569	72.41663	91.13104	-101.70875	6.50936	113.10013	180.63474	-58.58424	-260.3744	-358.82847	-143.20592	0
775	-130.1872	-52.07488	77.29865	88.69003	-104.14976	11.39138	120.42316	198.53548	-43.93818	-245.72834	-351.50544	-131.00087	0
776	-125.30518	-48.8202	74.85764	86.24902	-99.26774	11.39138	125.30518	225.38659	-31.73313	-233.52329	-344.18241	-123.67784	0
777	-120.42316	-41.49717	77.29865	78.92599	-99.26774	16.2734	127.74619	247.35568	-21.96909	-226.20026	-339.30039	-123.67784	0
778	-115.54114	-36.61515	77.29865	74.04397	-96.82673	18.71441	130.1872	266.88376	-9.76404	-221.31824	-329.53635	-116.35481	0
779	-113.10013	-34.17414	77.29865	71.60296	-94.38572	21.15542	135.06922	281.52982	9.76404	-213.99521	-327.09534	-109.03178	0
780	-115.54114	-34.17414	79.73966	74.04397	-96.82673	21.15542	142.39225	296.17588	29.29212	-204.23117	-324.65433	-104.14976	0
781	-115.54114	-36.61515	77.29865	74.04397	-96.82673	18.71441	149.71528	318.14497	48.8202	-187.1441	-322.21332	-101.70875	0
782	-117.98215	-36.61515	79.73966	76.48498	-99.26774	21.15542	157.03831	340.11406	65.90727	-179.82107	-319.77231	-104.14976	0
783	-120.42316	-36.61515	82.18067	76.48498	-101.70875	21.15542	166.80235	364.52416	82.99434	-167.61602	-312.44928	-109.03178	0
784	-122.86417	-36.61515	84.62168	78.92599	-104.14976	23.59643	179.0074	381.61123	102.52242	-157.85198	-310.00827	-116.35481	0
785	-125.30518	-36.61515	87.06269	78.92599	-106.59077	23.59643	183.88942	398.6983	114.72747	-148.08794	-307.56726	-126.11885	0
786	-120.42316	-34.17414	84.62168	76.48498	-101.70875	23.59643	186.33043	423.1084	124.49151	-140.76491	-302.68524	-135.88289	0
787	-117.98215	-31.73313	84.62168	74.04397	-101.70875	26.03744	186.33043	447.5185	132.62821	-133.44188	-297.80322	-143.20592	0
788	-115.54114	-31.73313	82.18067	71.60296	-99.26774	23.59643	186.33043	464.60557	142.39225	-131.00087	-290.48019	-150.52895	0
789	-113.10013	-34.17414	77.29865	71.60296	-94.38572	21.15542	193.65346	476.81062	159.47932	-126.11885	-288.03918	-150.52895	0
790	-110.65912	-39.05616	69.97562	74.04397	-89.5037	13.83239	198.53548	489.01567	174.12538	-116.35481	-283.15716	-143.20592	0
791	-110.65912	-41.49717	67.53461	74.04397	-89.5037	11.39138	205.85851	506.10274	191.21245	-99.26774	-273.39312	-133.44188	0
792	-115.54114	-43.93818	69.97562	78.92599	-91.94471	11.39138	215.62255	528.07183	205.85851	-87.06269	-263.62908	-123.67784	0
793	-115.54114	-43.93818	69.97562	78.92599	-91.94471	11.39138	227.8276	547.59991	222.94558	-69.97562	-246.54201	-113.9138	0
794	-115.54114	-43.93818	69.97562	78.92599	-91.94471	11.39138	242.47366	564.68698	244.91467	-55.32956	-231.89595	-104.14976	0
795	-115.54114	-41.49717	72.41663	76.48498	-94.38572	13.83239	254.67871	581.77405	262.00174	-35.80148	-219.6909	-96.82673	0
796	-115.54114	-41.49717	72.41663	76.48498	-94.38572	13.83239	257.11972	603.74314	271.76578	-21.15542	-207.48585	-96.82673	0
797	-108.21811	-41.49717	65.0936	74.04397	-87.06269	11.39138	257.11972	623.27122	283.97083	-8.95037	-195.2808	-96.82673	0
798	-100.89508	-41.49717	57.77057	69.16195	-79.73966	6.50936	254.67871	637.91728	293.73487	-1.62734	-183.07575	-96.82673	0
799	-98.45407	-43.93818	52.88855	69.16195	-74.85764	4.06835	252.2377	642.7993	310.82194	5.69569	-180.63474	-91.94471	0
800	-96.01306	-46.37919	48.00653	69.16195	-72.41663	-0.81367	252.2377	650.12233	325.468	17.90074	-173.31171	-84.62168	0
801	-91.13104	-46.37919	43.12451	66.72094	-67.53461	-3.25468	247.35568	659.88637	337.67305	34.98781	-165.98868	-77.29865	0
802	-86.24902	-43.93818	40.6835	64.27993	-62.65259	-3.25468	249.79669	676.97344	352.31911	49.63387	-151.34262	-69.97562	0
803	-86.24902	-41.49717	43.12451	61.83892	-65.0936	-0.81367	252.2377	691.6195	366.96517	66.72094	-134.25555	-65.0936	0
804	-86.24902	-39.05616	45.56552	61.83892	-65.0936	1.62734	257.11972	701.38354	386.49325	82.18067	-117.16848	-62.65259	0
805	-83.80801	-31.73313	50.44754	56.9569	-67.53461	8.95037	259.56073	713.58859	401.13931	101.70875	-97.6404	-57.77057	0
806	-76.48498	-21.96909	52.88855	47.19286	-65.0936	13.83239	259.56073	728.23465	408.46234	123.67784	-73.2303	-52.07488	0
807	-69.16195	-21.96909	45.56552	44.75185	-57.77057	11.39138	257.11972	737.99869	415.78537	138.3239	-48.8202	-42.31084	0
808	-66.72094	-21.96909	43.12451	42.31084	-55.32956	8.95037	254.67871	740.4397	423.1084	150.52895	-21.96909	-25.22377	0
809	-61.83892	-21.96909	38.24249	39.86983	-50.44754	6.50936	252.2377	733.11667	432.87244	162.734	0	-5.69569	0
810	-59.39791	-24.4101	33.36047	39.86983	-45.56552	4.06835	252.2377	725.79364	442.63648	179.82107	20.34175	21.15542	0
811	-54.51589	-31.73313	21.15542	42.31084	-38.24249	-5.69569	252.2377	718.47061	449.95951	201.79016	39.86983	43.12451	0
812	-54.51589	-41.49717	11.39138	47.19286	-33.36047	-15.45973	247.35568	711.14758	452.40052	216.43622	59.39791	57.77057	0
813	-54.51589	-52.07488	1.62734	52.07488	-28.47845	-25.22377	244.91467	698.94253	457.28254	233.52329	81.367	67.53461	0
814	-47.19286	-54.51589	-8.1367	49.63387	-21.15542	-32.5468	235.15063	684.29647	464.60557	248.16935	98.45407	72.41663	0
815	-37.42882	-56.9569	-20.34175	44.75185	-8.95037	-39.86983	218.06356	669.65041	464.60557	265.25642	117.98215	72.41663	0
816	-25.22377	-61.83892	-37.42882	42.31084	5.69569	-49.63387	191.21245	655.00435	462.16456	282.34349	139.95124	69.97562	0
817	-10.57771	-66.72094	-57.77057	37.42882	22.78276	-62.65259	157.03831	637.91728	459.72355	294.54854	164.36134	67.53461	0
818	2.44101	-74.04397	-77.29865	34.98781	38.24249	-74.85764	122.86417	615.94819	457.28254	306.75359	188.77144	67.53461	0
819	17.08707	-81.367	-99.26774	30.10579	57.77057	-89.5037	93.57205	589.09708	457.28254	318.95864	208.29952	74.85764	0
820	31.73313	-88.69003	-121.23683	27.66478	74.85764	-104.14976	64.27993	562.24597	457.28254	331.16369	225.38659	82.18067	0
821	39.05616	-96.01306	-135.88289	27.66478	87.06269	-116.35481	46.37919	540.27688	459.72355	350.69177	247.35568	91.94471	0
822	43.93818	-105.7771	-150.52895	30.10579	96.82673	-128.55986	29.29212	525.63082	459.72355	365.33783	269.32477	99.26774	0
823	51.26121	-110.65912	-162.734	27.66478	106.59077	-135.88289	19.52808	510.98476	459.72355	379.98389	291.29386	101.70875	0
824	56.14323	-115.54114	-172.49804	27.66478	113.9138	-143.20592	14.64606	496.3387	464.60557	392.18894	313.26295	106.59077	0
825	58.58424	-117.98215	-177.38006	27.66478	116.35481	-148.08794	4.88202	486.57466	464.60557	406.835	332.79103	106.59077	0
826	58.58424	-117.98215	-177.38006	27.66478	116.35481	-148.08794	-9.76404	476.81062	457.28254	416.59904	347.43709	106.59077	0
827	63.46626	-117.98215	-182.26208	24.4101	121.23683	-150.52895	-21.96909	467.04658	447.5185	419.04005	359.64214	109.03178	0
828	70.78929	-117.98215	-189.58511	21.96909	128.55986	-152.96996	-34.17414	452.40052	437.75446	419.04005	369.40618	109.03178	0
829	70.78929	-120.42316	-192.02612	24.4101	131.00087	-155.41097	-43.93818	430.43143	432.87244	414.15803	366.96517	106.59077	0
830	68.34828	-125.30518	-194.46713	27.66478	131.00087	-160.29299	-51.26121	410.90335	425.54941	409.27601	362.08315	104.14976	0
831	65.90727	-127.74619	-194.46713	30.10579	128.55986	-160.29299	-53.70222	396.25729	418.22638	409.27601	362.08315	101.70875	0
832	68.34828	-132.62821	-201.79016	30.10579	133.44188	-167.61602	-53.70222	386.49325	410.90335	406.835	362.08315	96.82673	0
833	68.34828	-137.51023	-206.67218	32.5468	135.88289	-172.49804	-48.8202	381.61123	406.02133	406.835	366.96517	87.06269	0
834	63.46626	-142.39225	-206.67218	37.42882	133.44188	-174.93905	-41.49717	376.72921	406.02133	406.835	371.84719	79.73966	0
835	63.46626	-147.27427	-211.5542	39.86983	135.88289	-179.82107	-39.05616	369.40618	401.13931	409.27601	376.72921	77.29865	0
836	70.78929	-147.27427	-218.87723	37.42882	143.20592	-182.26208	-39.05616	369.40618	393.81628	414.15803	388.93426	84.62168	0
837	75.67131	-149.71528	-226.20026	34.98781	150.52895	-187.1441	-39.05616	369.40618	388.93426	411.71702	401.13931	91.94471	0
838	75.67131	-159.47932	-235.9643	39.86983	155.41097	-196.90814	-39.05616	366.96517	381.61123	406.835	408.46234	101.70875	0
839	75.67131	-164.36134	-240.84632	42.31084	157.85198	-201.79016	-36.61515	357.20113	381.61123	401.95298	410.90335	113.9138	0
840	82.99434	-169.24336	-253.05137	42.31084	167.61602	-211.5542	-36.61515	344.99608	376.72921	399.51197	408.46234	128.55986	0
841	87.87636	-174.12538	-262.81541	42.31084	174.93905	-218.87723	-39.05616	340.11406	374.2882	401.95298	408.46234	143.20592	0
842	85.43535	-176.56639	-262.81541	44.75185	172.49804	-218.87723	-36.61515	340.11406	371.84719	399.51197	406.02133	148.08794	0
843	85.43535	-174.12538	-260.3744	42.31084	172.49804	-216.43622	-34.17414	337.67305	366.96517	394.62995	401.13931	145.64693	0
844	87.87636	-169.24336	-257.93339	39.86983	172.49804	-213.99521	-31.73313	330.35002	364.52416	389.74793	391.37527	135.88289	0
845	85.43535	-164.36134	-250.61036	37.42882	167.61602	-206.67218	-31.73313	325.468	359.64214	387.30692	384.05224	123.67784	0
846	80.55333	-159.47932	-240.84632	37.42882	160.29299	-199.34915	-31.73313	327.90901	349.8781	382.4249	376.72921	111.47279	0
847	75.67131	-159.47932	-235.9643	39.86983	155.41097	-196.90814	-31.73313	327.90901	340.11406	375.10187	371.84719	94.38572	0
848	70.78929	-159.47932	-231.08228	42.31084	150.52895	-194.46713	-31.73313	327.90901	335.23204	365.33783	369.40618	84.62168	0
849	70.78929	-164.36134	-235.9643	44.75185	152.96996	-199.34915	-29.29212	320.58598	335.23204	358.0148	362.08315	82.18067	0
850	63.46626	-174.12538	-238.40531	54.51589	150.52895	-206.67218	-29.29212	315.70396	332.79103	353.13278	354.76012	82.18067	0
851	58.58424	-179.0074	-238.40531	59.39791	148.08794	-209.11319	-19.52808	315.70396	332.79103	355.57379	352.31911	89.5037	0
852	63.46626	-179.0074	-243.28733	56.9569	152.96996	-211.5542	-14.64606	318.14497	332.79103	353.13278	349.8781	96.82673	0
853	65.90727	-176.56639	-243.28733	54.51589	152.96996	-209.11319	-7.32303	318.14497	330.35002	353.13278	352.31911	104.14976	0
854	61.02525	-174.12538	-235.9643	54.51589	148.08794	-204.23117	0	315.70396	332.79103	353.13278	349.8781	106.59077	0
855	56.14323	-166.80235	-223.75925	54.51589	138.3239	-194.46713	2.44101	310.82194	327.90901	350.69177	347.43709	101.70875	0
856	58.58424	-154.5973	-213.99521	47.19286	135.88289	-184.70309	-4.88202	310.82194	323.02699	350.69177	347.43709	94.38572	0
857	63.46626	-137.51023	-201.79016	34.98781	131.00087	-170.05703	-7.32303	315.70396	320.58598	348.25076	349.8781	89.5037	0
858	63.46626	-135.06922	-199.34915	34.98781	131.00087	-167.61602	-17.08707	313.26295	315.70396	343.36874	349.8781	84.62168	0
859	63.46626	-135.06922	-199.34915	34.98781	131.00087	-167.61602	-21.96909	305.93992	315.70396	336.04571	344.99608	84.62168	0
860	65.90727	-135.06922	-201.79016	32.5468	133.44188	-167.61602	-21.96909	298.61689	318.14497	333.6047	342.55507	87.06269	0
861	73.2303	-130.1872	-204.23117	27.66478	138.3239	-167.61602	-19.52808	301.0579	323.02699	343.36874	342.55507	94.38572	0
862	73.2303	-132.62821	-206.67218	27.66478	138.3239	-170.05703	-12.20505	305.93992	325.468	345.80975	347.43709	101.70875	0
863	70.78929	-135.06922	-206.67218	30.10579	138.3239	-170.05703	-4.88202	305.93992	325.468	348.25076	352.31911	109.03178	0
864	70.78929	-135.06922	-206.67218	30.10579	138.3239	-170.05703	4.88202	305.93992	327.90901	350.69177	354.76012	113.9138	0
865	68.34828	-127.74619	-196.90814	27.66478	131.00087	-162.734	12.20505	301.0579	325.468	353.13278	354.76012	113.9138	0
866	63.46626	-125.30518	-189.58511	30.10579	126.11885	-157.85198	12.20505	301.0579	318.14497	355.57379	354.76012	109.03178	0
867	61.02525	-122.86417	-184.70309	30.10579	121.23683	-152.96996	12.20505	303.49891	313.26295	350.69177	354.76012	104.14976	0
868	53.70222	-125.30518	-179.82107	34.98781	116.35481	-152.96996	12.20505	298.61689	308.38093	345.80975	359.64214	104.14976	0
869	56.14323	-125.30518	-182.26208	32.5468	118.79582	-152.96996	9.76404	286.41184	308.38093	340.92773	357.20113	106.59077	0
870	53.70222	-132.62821	-187.1441	37.42882	118.79582	-160.29299	4.88202	274.20679	308.38093	340.92773	357.20113	116.35481	0
871	53.70222	-132.62821	-187.1441	37.42882	118.79582	-160.29299	0	269.32477	308.38093	345.80975	354.76012	126.11885	0
872	58.58424	-135.06922	-194.46713	37.42882	126.11885	-165.17501	-7.32303	266.88376	308.38093	345.80975	357.20113	131.00087	0
873	61.02525	-132.62821	-194.46713	34.98781	126.11885	-162.734	-12.20505	262.00174	308.38093	345.80975	359.64214	131.00087	0
874	65.90727	-127.74619	-194.46713	30.10579	128.55986	-160.29299	-17.08707	257.11972	308.38093	345.80975	357.20113	128.55986	0
875	68.34828	-122.86417	-192.02612	24.4101	128.55986	-157.85198	-24.4101	249.79669	305.93992	345.80975	354.76012	121.23683	0
876	70.78929	-120.42316	-192.02612	24.4101	131.00087	-155.41097	-34.17414	247.35568	298.61689	345.80975	352.31911	111.47279	0
877	70.78929	-122.86417	-194.46713	24.4101	131.00087	-157.85198	-43.93818	247.35568	291.29386	340.92773	352.31911	99.26774	0
878	70.78929	-127.74619	-199.34915	27.66478	133.44188	-162.734	-48.8202	244.91467	286.41184	333.6047	354.76012	96.82673	0
879	70.78929	-132.62821	-204.23117	30.10579	135.88289	-167.61602	-51.26121	240.03265	291.29386	333.6047	354.76012	104.14976	0
880	68.34828	-142.39225	-211.5542	34.98781	138.3239	-177.38006	-58.58424	230.26861	291.29386	333.6047	352.31911	113.9138	0
881	61.02525	-152.15629	-213.99521	44.75185	135.88289	-182.26208	-63.46626	225.38659	291.29386	333.6047	347.43709	126.11885	0
882	58.58424	-154.5973	-213.99521	47.19286	135.88289	-184.70309	-63.46626	227.8276	291.29386	333.6047	344.99608	133.44188	0
883	61.02525	-149.71528	-211.5542	42.31084	135.88289	-179.82107	-58.58424	230.26861	291.29386	336.04571	347.43709	135.88289	0
884	58.58424	-147.27427	-206.67218	42.31084	131.00087	-177.38006	-56.14323	230.26861	296.17588	336.04571	344.99608	131.00087	0
885	56.14323	-142.39225	-199.34915	42.31084	126.11885	-170.05703	-56.14323	227.8276	296.17588	338.48672	340.11406	121.23683	0
886	56.14323	-137.51023	-194.46713	39.86983	123.67784	-165.17501	-63.46626	230.26861	288.85285	338.48672	337.67305	109.03178	0
887	61.02525	-130.1872	-192.02612	32.5468	126.11885	-160.29299	-68.34828	237.59164	288.85285	336.04571	340.11406	94.38572	0
888	65.90727	-125.30518	-192.02612	27.66478	128.55986	-157.85198	-68.34828	242.47366	291.29386	336.04571	344.99608	87.06269	0
889	63.46626	-130.1872	-194.46713	32.5468	128.55986	-162.734	-73.2303	240.03265	298.61689	336.04571	344.99608	87.06269	0
890	68.34828	-132.62821	-201.79016	30.10579	133.44188	-167.61602	-75.67131	235.15063	305.93992	336.04571	344.99608	94.38572	0
891	70.78929	-137.51023	-209.11319	32.5468	138.3239	-172.49804	-78.11232	240.03265	310.82194	345.80975	344.99608	101.70875	0
892	73.2303	-142.39225	-216.43622	32.5468	143.20592	-179.82107	-73.2303	244.91467	318.14497	348.25076	344.99608	106.59077	0
893	73.2303	-144.83326	-218.87723	34.98781	145.64693	-182.26208	-63.46626	252.2377	323.02699	353.13278	352.31911	113.9138	0
894	73.2303	-149.71528	-223.75925	37.42882	148.08794	-187.1441	-56.14323	252.2377	332.79103	355.57379	352.31911	118.79582	0
895	73.2303	-149.71528	-223.75925	37.42882	148.08794	-187.1441	-48.8202	257.11972	335.23204	362.89682	354.76012	121.23683	0
896	70.78929	-149.71528	-221.31824	37.42882	145.64693	-184.70309	-43.93818	266.88376	335.23204	367.77884	357.20113	123.67784	0
897	68.34828	-149.71528	-218.87723	39.86983	143.20592	-184.70309	-43.93818	276.6478	335.23204	367.77884	362.08315	123.67784	0
898	73.2303	-144.83326	-218.87723	34.98781	145.64693	-182.26208	-41.49717	283.97083	337.67305	367.77884	366.96517	128.55986	0
899	73.2303	-142.39225	-216.43622	32.5468	143.20592	-179.82107	-34.17414	283.97083	344.99608	367.77884	369.40618	138.3239	0
900	73.2303	-142.39225	-216.43622	32.5468	143.20592	-179.82107	-24.4101	283.97083	349.8781	370.21985	369.40618	145.64693	0
901	73.2303	-142.39225	-216.43622	32.5468	143.20592	-179.82107	-17.08707	286.41184	352.31911	377.54288	369.40618	150.52895	0
902	73.2303	-142.39225	-216.43622	32.5468	143.20592	-179.82107	-9.76404	293.73487	354.76012	377.54288	371.84719	150.52895	0
903	70.78929	-139.95124	-211.5542	32.5468	140.76491	-174.93905	-2.44101	296.17588	354.76012	377.54288	374.2882	148.08794	0
904	65.90727	-139.95124	-206.67218	34.98781	135.88289	-172.49804	7.32303	291.29386	357.20113	377.54288	374.2882	145.64693	0
905	61.02525	-139.95124	-201.79016	37.42882	131.00087	-170.05703	12.20505	288.85285	354.76012	379.98389	371.84719	140.76491	0
906	63.46626	-137.51023	-201.79016	34.98781	131.00087	-170.05703	9.76404	291.29386	349.8781	379.98389	364.52416	126.11885	0
907	65.90727	-137.51023	-204.23117	34.98781	133.44188	-170.05703	7.32303	296.17588	344.99608	375.10187	362.08315	111.47279	0
908	65.90727	-142.39225	-209.11319	37.42882	135.88289	-174.93905	4.88202	296.17588	340.11406	370.21985	362.08315	104.14976	0
909	68.34828	-147.27427	-216.43622	37.42882	140.76491	-182.26208	7.32303	283.97083	342.55507	362.89682	357.20113	99.26774	0
910	70.78929	-154.5973	-226.20026	39.86983	148.08794	-189.58511	9.76404	276.6478	342.55507	360.45581	349.8781	96.82673	0
911	75.67131	-161.92033	-238.40531	42.31084	155.41097	-199.34915	9.76404	274.20679	340.11406	362.89682	344.99608	91.94471	0
912	78.11232	-166.80235	-245.72834	42.31084	160.29299	-206.67218	14.64606	279.08881	340.11406	360.45581	342.55507	91.94471	0
913	80.55333	-164.36134	-245.72834	39.86983	162.734	-204.23117	17.08707	279.08881	337.67305	360.45581	347.43709	91.94471	0
914	80.55333	-161.92033	-243.28733	39.86983	160.29299	-201.79016	19.52808	279.08881	342.55507	360.45581	344.99608	89.5037	0
915	75.67131	-161.92033	-238.40531	42.31084	155.41097	-199.34915	21.96909	281.52982	347.43709	365.33783	342.55507	84.62168	0
916	75.67131	-159.47932	-235.9643	39.86983	155.41097	-196.90814	19.52808	301.0579	359.64214	379.98389	344.99608	74.85764	0
917	75.67131	-161.92033	-238.40531	42.31084	155.41097	-199.34915	21.96909	330.35002	381.61123	397.07096	352.31911	62.65259	0
918	73.2303	-174.12538	-248.16935	49.63387	160.29299	-211.5542	26.85111	366.96517	413.34436	419.04005	366.96517	52.88855	0
919	70.78929	-191.21245	-262.81541	59.39791	165.17501	-226.20026	39.05616	406.02133	469.48759	455.6552	381.61123	52.88855	0
920	65.90727	-218.06356	-284.7845	74.04397	174.93905	-250.61036	48.8202	452.40052	532.95385	504.4754	406.02133	55.32956	0
921	73.2303	-232.70962	-306.75359	78.92599	189.58511	-270.13844	58.58424	513.42577	608.62516	577.7057	445.07749	65.0936	0
922	82.99434	-240.03265	-323.84066	76.48498	201.79016	-282.34349	71.60296	584.21506	696.50152	660.70004	501.22072	82.18067	0
923	90.31737	-235.15063	-326.28167	71.60296	206.67218	-279.90248	86.24902	655.00435	801.46495	765.66347	579.33304	109.03178	0
924	104.96343	-213.18154	-318.95864	52.07488	211.5542	-265.25642	98.45407	742.88071	935.7205	895.037	676.97344	150.52895	0
925	122.0505	-169.24336	-292.10753	21.96909	206.67218	-231.08228	110.65912	840.52111	1077.29908	1048.82063	796.58293	204.23117	0
926	146.4606	-108.21811	-255.49238	-19.52808	199.34915	-182.26208	113.10013	938.16151	1218.87766	1217.25032	938.16151	270.13844	0
927	173.31171	-31.73313	-206.67218	-70.78929	189.58511	-118.79582	120.42316	1021.15585	1350.6922	1393.00304	1109.03221	358.0148	0
928	195.2808	56.14323	-140.76491	-126.93252	167.61602	-42.31084	122.86417	1057.771	1455.65563	1571.19677	1309.19503	470.30126	0
929	219.6909	161.10666	-60.21158	-190.39878	140.76491	50.44754	120.42316	1033.3609	1528.88593	1748.57683	1528.88593	611.87984	0
930	248.98302	275.83413	26.03744	-263.62908	111.47279	150.52895	100.89508	930.83848	1543.53199	1907.24248	1755.08619	775.42751	0
931	278.27514	395.44362	116.35481	-336.85938	82.18067	255.49238	56.14323	742.88071	1467.86068	2017.08793	1962.57204	938.97518	0
932	302.68524	512.6121	209.11319	-407.64867	48.00653	360.45581	-9.76404	474.36961	1309.19503	2046.38005	2131.00173	1095.19982	0
933	327.09534	627.33957	299.43056	-478.43796	13.01872	462.97823	-92.75838	144.01959	1072.41706	1987.79581	2235.96516	1229.45537	0
934	344.18241	729.86199	384.86591	-537.0222	-21.15542	558.17762	-192.83979	-251.42403	759.96778	1812.04309	2235.96516	1327.09577	0
935	356.38746	815.29734	458.09621	-585.8424	-50.44754	636.28994	-314.89029	-705.45189	325.468	1478.43839	2096.82759	1371.03395	0
936	349.06443	873.88158	524.00348	-612.69351	-87.06269	699.7562	-444.26382	-1191.21288	-229.45494	960.94427	1799.02437	1349.06486	0
937	324.65433	910.49673	585.02873	-617.57553	-131.00087	748.5764	-573.63735	-1684.2969	-849.47148	331.16369	1392.18937	1285.5986	0
938	300.24423	932.46582	631.40792	-617.57553	-165.17501	782.75054	-703.01088	-2160.29385	-1457.28297	-318.95864	930.83848	1200.16325	0
939	263.62908	934.90683	670.46408	-600.48846	-204.23117	802.27862	-822.62037	-2599.67565	-2016.27426	-948.73922	447.5185	1107.40487	0
940	231.89595	937.34784	704.63822	-585.8424	-235.9643	821.8067	-939.78885	-2990.23725	-2519.12232	-1515.05354	-12.20505	1019.52851	0
941	195.2808	934.90683	738.81236	-566.31432	-272.57945	836.45276	-1037.42925	-3297.80451	-2921.88897	-1978.84544	-427.17675	936.53417	0
942	163.54767	934.90683	770.54549	-549.22725	-304.31258	853.53983	-1108.21854	-3500.40834	-3170.87199	-2283.97169	-742.06704	870.6269	0
943	139.13757	937.34784	797.3966	-539.46321	-328.72268	868.18589	-1152.15672	-3595.60773	-3278.27643	-2442.63734	-961.75794	814.48367	0
944	114.72747	934.90683	819.36569	-524.81715	-353.13278	877.94993	-1166.80278	-3600.48975	-3275.83542	-2506.1036	-1122.8646	760.78145	0
945	90.31737	932.46582	841.33478	-512.6121	-375.10187	887.71397	-1159.47975	-3534.58248	-3214.81017	-2508.54461	-1244.9151	694.87418	0
946	63.46626	912.93774	848.65781	-488.202	-392.18894	880.39094	-1137.51066	-3390.56289	-3100.0827	-2464.60643	-1327.90944	619.20287	0
947	34.17414	868.99956	834.01175	-451.58685	-399.51197	851.09882	-1093.57248	-3178.19502	-2931.65301	-2376.73007	-1371.84762	528.8855	0
948	9.76404	807.97431	797.3966	-410.08968	-394.62995	802.27862	-1027.66521	-2926.77099	-2729.04918	-2259.56159	-1388.93469	426.36308	0
949	-20.34175	727.42098	746.13539	-353.94645	-382.4249	736.37135	-947.11188	-2668.02393	-2502.03525	-2125.30604	-1398.69873	314.07662	0
