samplenr	I	II	III	aVR	aVL	aVF	V1	V2	V3	V4	V5	V6	measurement
0	-55.32956	-157.03831	-102.52242	104.14976	22.78276	-129.37353	152.15629	117.16848	103.33609	188.77144	-122.0505	-94.38572	0
1	-55.32956	-154.5973	-100.08141	104.14976	22.78276	-126.93252	152.15629	117.16848	100.89508	188.77144	-122.0505	-94.38572	0
2	-55.32956	-147.27427	-92.75838	99.26774	17.90074	-119.60949	149.71528	117.16848	96.01306	188.77144	-122.0505	-96.82673	0
3	-52.88855	-139.95124	-87.87636	94.38572	17.90074	-114.72747	144.83326	114.72747	93.57205	188.77144	-124.49151	-96.82673	0
4	-52.88855	-135.06922	-82.99434	91.94471	15.45973	-109.84545	139.95124	112.28646	96.01306	188.77144	-126.93252	-99.26774	0
5	-55.32956	-130.1872	-75.67131	91.94471	10.57771	-102.52242	137.51023	104.96343	98.45407	186.33043	-129.37353	-101.70875	0
6	-57.77057	-122.86417	-65.90727	89.5037	3.25468	-95.19939	137.51023	100.08141	98.45407	183.88942	-131.81454	-101.70875	0
7	-57.77057	-117.98215	-61.02525	87.06269	0.81367	-90.31737	137.51023	92.75838	91.13104	181.44841	-134.25555	-101.70875	0
8	-50.44754	-115.54114	-65.90727	82.18067	8.1367	-90.31737	130.1872	85.43535	83.80801	181.44841	-134.25555	-104.14976	0
9	-48.00653	-115.54114	-68.34828	79.73966	10.57771	-92.75838	122.86417	73.2303	74.04397	179.0074	-134.25555	-104.14976	0
10	-43.12451	-117.98215	-75.67131	79.73966	15.45973	-97.6404	113.10013	65.90727	61.83892	176.56639	-134.25555	-101.70875	0
11	-40.6835	-117.98215	-78.11232	77.29865	17.90074	-97.6404	103.33609	58.58424	49.63387	171.68437	-139.13757	-101.70875	0
12	-40.6835	-117.98215	-78.11232	77.29865	17.90074	-97.6404	88.69003	48.8202	32.5468	164.36134	-146.4606	-106.59077	0
13	-38.24249	-120.42316	-82.99434	77.29865	22.78276	-102.52242	76.48498	39.05616	22.78276	154.5973	-153.78363	-113.9138	0
14	-43.12451	-120.42316	-78.11232	79.73966	17.90074	-100.08141	69.16195	31.73313	15.45973	144.83326	-163.54767	-118.79582	0
15	-43.12451	-120.42316	-78.11232	79.73966	17.90074	-100.08141	66.72094	23.59643	13.01872	135.06922	-170.8707	-123.67784	0
16	-48.00653	-120.42316	-73.2303	82.18067	13.01872	-97.6404	64.27993	21.15542	9.76404	127.74619	-178.19373	-126.11885	0
17	-50.44754	-120.42316	-70.78929	84.62168	10.57771	-95.19939	69.16195	21.15542	7.32303	125.30518	-180.63474	-128.55986	0
18	-43.12451	-117.98215	-75.67131	79.73966	15.45973	-97.6404	76.48498	21.15542	7.32303	125.30518	-178.19373	-126.11885	0
19	-35.80148	-117.98215	-82.99434	74.85764	22.78276	-100.08141	81.367	23.59643	7.32303	130.1872	-173.31171	-121.23683	0
20	-26.03744	-120.42316	-95.19939	72.41663	34.98781	-107.40444	81.367	26.85111	4.88202	132.62821	-168.42969	-116.35481	0
21	-18.71441	-122.86417	-104.96343	69.97562	42.31084	-114.72747	81.367	29.29212	2.44101	135.06922	-163.54767	-113.9138	0
22	-10.57771	-122.86417	-112.28646	65.0936	49.63387	-117.16848	81.367	31.73313	-2.44101	135.06922	-161.10666	-111.47279	0
23	-3.25468	-122.86417	-119.60949	62.65259	56.9569	-119.60949	76.48498	31.73313	-2.44101	135.06922	-161.10666	-111.47279	0
24	-5.69569	-125.30518	-119.60949	65.0936	56.9569	-122.0505	71.60296	29.29212	-2.44101	132.62821	-168.42969	-118.79582	0
25	-10.57771	-130.1872	-119.60949	69.97562	54.51589	-124.49151	71.60296	26.85111	-2.44101	125.30518	-173.31171	-123.67784	0
26	-16.2734	-135.06922	-119.60949	74.85764	52.07488	-126.93252	74.04397	23.59643	-2.44101	120.42316	-183.07575	-131.00087	0
27	-23.59643	-137.51023	-114.72747	79.73966	44.75185	-126.93252	78.92599	23.59643	-2.44101	117.98215	-187.95777	-140.76491	0
28	-30.91946	-144.83326	-114.72747	87.06269	42.31084	-129.37353	86.24902	23.59643	-2.44101	115.54114	-192.83979	-150.52895	0
29	-38.24249	-152.15629	-114.72747	94.38572	37.42882	-134.25555	96.01306	23.59643	-2.44101	115.54114	-195.2808	-157.85198	0
30	-40.6835	-159.47932	-119.60949	99.26774	39.86983	-139.13757	103.33609	23.59643	-7.32303	113.10013	-195.2808	-165.17501	0
31	-40.6835	-169.24336	-129.37353	104.14976	44.75185	-148.90161	110.65912	23.59643	-12.20505	110.65912	-200.16282	-170.05703	0
32	-40.6835	-174.12538	-134.25555	106.59077	47.19286	-153.78363	110.65912	23.59643	-19.52808	105.7771	-205.04484	-177.38006	0
33	-38.24249	-179.0074	-141.57858	106.59077	52.07488	-161.10666	110.65912	23.59643	-24.4101	98.45407	-209.92686	-182.26208	0
34	-38.24249	-186.33043	-148.90161	111.47279	54.51589	-168.42969	110.65912	23.59643	-24.4101	93.57205	-217.24989	-189.58511	0
35	-35.80148	-193.65346	-158.66565	113.9138	61.83892	-175.75272	110.65912	18.71441	-26.85111	83.80801	-224.57292	-199.34915	0
36	-35.80148	-200.97649	-165.98868	116.35481	64.27993	-183.07575	110.65912	13.83239	-31.73313	74.04397	-236.77797	-206.67218	0
37	-38.24249	-208.29952	-170.8707	121.23683	66.72094	-190.39878	110.65912	8.95037	-36.61515	64.27993	-244.101	-218.87723	0
38	-40.6835	-218.06356	-178.19373	128.55986	69.16195	-197.72181	110.65912	4.06835	-41.49717	61.83892	-251.42403	-226.20026	0
39	-40.6835	-222.94558	-183.07575	131.00087	71.60296	-202.60383	113.10013	1.62734	-43.93818	59.39791	-253.86504	-231.08228	0
40	-38.24249	-225.38659	-187.95777	131.00087	74.04397	-207.48585	113.10013	-0.81367	-51.26121	59.39791	-253.86504	-233.52329	0
41	-33.36047	-222.94558	-190.39878	126.11885	78.92599	-207.48585	113.10013	-0.81367	-56.14323	56.9569	-253.86504	-235.9643	0
42	-28.47845	-215.62255	-187.95777	121.23683	78.92599	-202.60383	113.10013	1.62734	-58.58424	54.51589	-253.86504	-235.9643	0
43	-23.59643	-208.29952	-185.51676	113.9138	81.367	-197.72181	110.65912	1.62734	-58.58424	54.51589	-253.86504	-238.40531	0
44	-21.15542	-203.4175	-183.07575	111.47279	81.367	-192.83979	110.65912	1.62734	-53.70222	54.51589	-253.86504	-240.84632	0
45	-21.15542	-200.97649	-180.63474	109.03178	78.92599	-190.39878	108.21811	1.62734	-48.8202	52.07488	-256.30605	-243.28733	0
46	-26.03744	-198.53548	-173.31171	111.47279	74.04397	-185.51676	110.65912	1.62734	-46.37919	47.19286	-258.74706	-248.16935	0
47	-30.91946	-200.97649	-170.8707	113.9138	69.16195	-185.51676	113.10013	1.62734	-46.37919	47.19286	-261.18807	-253.05137	0
48	-33.36047	-205.85851	-173.31171	118.79582	69.16195	-190.39878	115.54114	-0.81367	-46.37919	44.75185	-261.18807	-255.49238	0
49	-33.36047	-208.29952	-175.75272	118.79582	71.60296	-192.83979	120.42316	-3.25468	-46.37919	47.19286	-256.30605	-255.49238	0
50	-30.91946	-210.74053	-180.63474	118.79582	74.04397	-195.2808	120.42316	-0.81367	-51.26121	47.19286	-251.42403	-253.05137	0
51	-28.47845	-210.74053	-183.07575	118.79582	76.48498	-197.72181	120.42316	1.62734	-53.70222	47.19286	-251.42403	-253.05137	0
52	-23.59643	-205.85851	-183.07575	113.9138	78.92599	-195.2808	117.98215	6.50936	-58.58424	49.63387	-246.54201	-250.61036	0
53	-18.71441	-200.97649	-183.07575	109.03178	81.367	-192.83979	115.54114	6.50936	-58.58424	52.07488	-246.54201	-250.61036	0
54	-16.2734	-193.65346	-178.19373	104.14976	81.367	-185.51676	113.10013	8.95037	-53.70222	52.07488	-246.54201	-250.61036	0
55	-16.2734	-188.77144	-173.31171	101.70875	78.92599	-180.63474	110.65912	8.95037	-48.8202	47.19286	-251.42403	-253.05137	0
56	-18.71441	-188.77144	-170.8707	101.70875	76.48498	-180.63474	110.65912	8.95037	-48.8202	44.75185	-256.30605	-255.49238	0
57	-21.15542	-183.88942	-163.54767	101.70875	71.60296	-173.31171	110.65912	6.50936	-48.8202	44.75185	-258.74706	-257.93339	0
58	-21.15542	-181.44841	-161.10666	99.26774	69.16195	-170.8707	113.10013	6.50936	-48.8202	44.75185	-258.74706	-260.3744	0
59	-21.15542	-181.44841	-161.10666	99.26774	69.16195	-170.8707	117.98215	4.06835	-48.8202	47.19286	-253.86504	-260.3744	0
60	-21.15542	-181.44841	-161.10666	99.26774	69.16195	-170.8707	120.42316	4.06835	-53.70222	49.63387	-251.42403	-257.93339	0
61	-21.15542	-186.33043	-165.98868	101.70875	71.60296	-175.75272	120.42316	6.50936	-56.14323	52.07488	-246.54201	-255.49238	0
62	-23.59643	-183.88942	-161.10666	101.70875	69.16195	-173.31171	120.42316	11.39138	-58.58424	52.07488	-244.101	-255.49238	0
63	-21.15542	-181.44841	-161.10666	99.26774	69.16195	-170.8707	117.98215	13.83239	-58.58424	54.51589	-241.65999	-255.49238	0
64	-21.15542	-179.0074	-158.66565	99.26774	69.16195	-168.42969	115.54114	13.83239	-53.70222	54.51589	-241.65999	-255.49238	0
65	-21.15542	-176.56639	-156.22464	96.82673	66.72094	-165.98868	113.10013	13.83239	-48.8202	52.07488	-244.101	-257.93339	0
66	-21.15542	-174.12538	-153.78363	96.82673	66.72094	-163.54767	110.65912	13.83239	-46.37919	49.63387	-248.98302	-257.93339	0
67	-23.59643	-169.24336	-146.4606	94.38572	61.83892	-158.66565	113.10013	11.39138	-46.37919	49.63387	-248.98302	-262.81541	0
68	-21.15542	-166.80235	-146.4606	91.94471	61.83892	-156.22464	115.54114	11.39138	-46.37919	47.19286	-251.42403	-262.81541	0
69	-18.71441	-161.92033	-144.01959	89.5037	61.83892	-153.78363	117.98215	8.95037	-48.8202	47.19286	-248.98302	-265.25642	0
70	-16.2734	-159.47932	-144.01959	87.06269	64.27993	-151.34262	117.98215	8.95037	-53.70222	49.63387	-246.54201	-265.25642	0
71	-10.57771	-154.5973	-144.01959	82.18067	66.72094	-148.90161	117.98215	11.39138	-56.14323	49.63387	-246.54201	-262.81541	0
72	-5.69569	-147.27427	-141.57858	74.85764	66.72094	-144.01959	115.54114	13.83239	-61.02525	49.63387	-246.54201	-262.81541	0
73	-3.25468	-142.39225	-139.13757	72.41663	66.72094	-139.13757	113.10013	13.83239	-61.02525	49.63387	-246.54201	-262.81541	0
74	-3.25468	-137.51023	-134.25555	69.97562	64.27993	-134.25555	110.65912	13.83239	-56.14323	52.07488	-246.54201	-262.81541	0
75	-3.25468	-135.06922	-131.81454	67.53461	64.27993	-131.81454	110.65912	13.83239	-51.26121	52.07488	-248.98302	-262.81541	0
76	-3.25468	-135.06922	-131.81454	67.53461	64.27993	-131.81454	110.65912	13.83239	-46.37919	52.07488	-248.98302	-262.81541	0
77	-8.1367	-135.06922	-126.93252	69.97562	59.39791	-129.37353	113.10013	13.83239	-43.93818	52.07488	-248.98302	-262.81541	0
78	-10.57771	-139.95124	-129.37353	74.85764	59.39791	-134.25555	115.54114	13.83239	-43.93818	52.07488	-248.98302	-262.81541	0
79	-10.57771	-144.83326	-134.25555	77.29865	61.83892	-139.13757	120.42316	11.39138	-43.93818	54.51589	-244.101	-260.3744	0
80	-10.57771	-144.83326	-134.25555	77.29865	61.83892	-139.13757	120.42316	13.83239	-46.37919	54.51589	-239.21898	-257.93339	0
81	-8.1367	-144.83326	-136.69656	74.85764	64.27993	-139.13757	120.42316	13.83239	-48.8202	56.9569	-236.77797	-253.05137	0
82	-3.25468	-139.95124	-136.69656	69.97562	66.72094	-136.69656	115.54114	18.71441	-53.70222	56.9569	-234.33696	-253.05137	0
83	-3.25468	-137.51023	-134.25555	69.97562	64.27993	-134.25555	113.10013	18.71441	-56.14323	56.9569	-234.33696	-250.61036	0
84	-3.25468	-135.06922	-131.81454	67.53461	64.27993	-131.81454	108.21811	18.71441	-48.8202	54.51589	-234.33696	-250.61036	0
85	-5.69569	-132.62821	-126.93252	67.53461	59.39791	-129.37353	105.7771	16.2734	-46.37919	52.07488	-236.77797	-248.16935	0
86	-10.57771	-135.06922	-124.49151	72.41663	56.9569	-129.37353	103.33609	16.2734	-43.93818	47.19286	-239.21898	-248.16935	0
87	-16.2734	-135.06922	-119.60949	74.85764	52.07488	-126.93252	103.33609	13.83239	-43.93818	42.31084	-239.21898	-253.05137	0
88	-16.2734	-137.51023	-122.0505	74.85764	52.07488	-129.37353	103.33609	11.39138	-46.37919	42.31084	-239.21898	-255.49238	0
89	-18.71441	-139.95124	-122.0505	77.29865	52.07488	-131.81454	103.33609	8.95037	-46.37919	39.86983	-236.77797	-255.49238	0
90	-16.2734	-139.95124	-124.49151	77.29865	54.51589	-131.81454	103.33609	11.39138	-48.8202	39.86983	-229.45494	-253.05137	0
91	-13.01872	-135.06922	-122.0505	72.41663	54.51589	-126.93252	103.33609	13.83239	-51.26121	39.86983	-227.01393	-250.61036	0
92	-8.1367	-125.30518	-117.16848	65.0936	54.51589	-119.60949	100.89508	18.71441	-53.70222	39.86983	-222.13191	-248.16935	0
93	1.62734	-113.10013	-114.72747	55.32956	56.9569	-112.28646	98.45407	21.15542	-51.26121	39.86983	-219.6909	-243.28733	0
94	8.95037	-103.33609	-112.28646	45.56552	59.39791	-107.40444	98.45407	23.59643	-43.93818	39.86983	-217.24989	-240.84632	0
95	8.95037	-98.45407	-107.40444	43.12451	56.9569	-102.52242	96.01306	23.59643	-36.61515	39.86983	-214.80888	-240.84632	0
96	4.06835	-98.45407	-102.52242	45.56552	52.07488	-100.08141	96.01306	26.85111	-34.17414	37.42882	-214.80888	-238.40531	0
97	1.62734	-98.45407	-100.08141	48.00653	49.63387	-97.6404	98.45407	26.85111	-31.73313	37.42882	-214.80888	-238.40531	0
98	1.62734	-100.89508	-102.52242	48.00653	52.07488	-100.08141	98.45407	26.85111	-31.73313	37.42882	-209.92686	-235.9643	0
99	1.62734	-103.33609	-104.96343	50.44754	52.07488	-102.52242	100.89508	26.85111	-29.29212	39.86983	-205.04484	-233.52329	0
100	-0.81367	-105.7771	-104.96343	52.88855	52.07488	-104.96343	100.89508	29.29212	-29.29212	42.31084	-197.72181	-228.64127	1000	P+0
101	4.06835	-105.7771	-109.84545	50.44754	56.9569	-107.40444	100.89508	31.73313	-29.29212	44.75185	-192.83979	-221.31824	0
102	11.39138	-98.45407	-109.84545	43.12451	59.39791	-102.52242	98.45407	36.61515	-31.73313	44.75185	-185.51676	-216.43622	0
103	18.71441	-91.13104	-109.84545	35.80148	64.27993	-100.08141	96.01306	39.05616	-29.29212	47.19286	-183.07575	-213.99521	0
104	21.15542	-86.24902	-107.40444	30.91946	64.27993	-95.19939	96.01306	43.93818	-19.52808	49.63387	-180.63474	-213.99521	0
105	21.15542	-83.80801	-104.96343	30.91946	61.83892	-92.75838	98.45407	48.8202	-9.76404	44.75185	-183.07575	-218.87723	0
106	16.2734	-88.69003	-104.96343	35.80148	59.39791	-95.19939	108.21811	58.58424	0	39.86983	-195.2808	-231.08228	0
107	6.50936	-96.01306	-102.52242	43.12451	54.51589	-97.6404	125.30518	78.11232	9.76404	34.98781	-207.48585	-253.05137	0
108	-3.25468	-115.54114	-112.28646	57.77057	54.51589	-112.28646	144.83326	102.52242	27.66478	32.5468	-219.6909	-279.90248	0
109	-10.57771	-135.06922	-124.49151	72.41663	56.9569	-129.37353	166.80235	129.37353	52.07488	37.42882	-224.57292	-304.31258	0
110	-13.01872	-154.5973	-141.57858	82.18067	64.27993	-146.4606	188.77144	165.98868	78.92599	49.63387	-219.6909	-318.95864	0
111	-8.1367	-164.36134	-156.22464	84.62168	74.04397	-158.66565	205.85851	207.48585	117.98215	81.367	-195.2808	-314.07662	0
112	8.95037	-166.80235	-175.75272	77.29865	91.13104	-170.8707	213.18154	261.18807	174.12538	139.95124	-139.13757	-284.7845	0
113	40.6835	-159.47932	-200.16282	57.77057	120.42316	-178.19373	210.74053	324.65433	259.56073	240.03265	-38.24249	-209.11319	0
114	87.06269	-139.95124	-227.01393	26.03744	157.03831	-183.07575	188.77144	383.23857	366.96517	384.05224	117.98215	-77.29865	0
115	152.96996	-105.7771	-258.74706	-23.59643	205.85851	-180.63474	144.83326	424.73574	467.04658	557.36395	327.90901	109.03178	0
116	235.9643	-56.9569	-292.9212	-89.5037	264.44275	-173.31171	78.92599	441.82281	557.36395	755.08576	574.45102	348.25076	0
117	336.04571	4.88202	-331.97736	-170.05703	335.23204	-163.54767	-9.76404	432.05877	625.71223	977.21767	867.37222	636.28994	0
118	448.33217	80.55333	-368.59251	-265.25642	408.46234	-144.01959	-122.0505	378.35655	659.88637	1196.90857	1179.8215	960.94427	0
119	565.50065	175.75272	-390.5616	-370.21985	479.25163	-107.40444	-248.98302	275.83413	645.24031	1404.39442	1494.71179	1307.56769	0
120	682.66913	280.71615	-402.76665	-482.50631	542.71789	-61.02525	-388.12059	129.37353	574.45102	1565.50108	1779.49629	1643.6134	0
121	782.75054	390.5616	-393.00261	-587.46974	589.09708	0	-515.05311	-34.98781	459.72355	1669.65084	1999.18719	1931.65258	0
122	860.86286	502.84806	-358.82847	-682.66913	611.06617	74.04397	-629.78058	-200.97649	323.02699	1713.58902	2135.88375	2146.46146	0
123	917.00609	605.37048	-312.44928	-760.78145	615.94819	147.27427	-724.97997	-357.20113	174.12538	1681.85589	2172.4989	2266.07095	0
124	938.97518	678.60078	-261.18807	-809.60165	601.30213	210.74053	-788.44623	-493.89769	22.78276	1577.70613	2094.38658	2268.51196	0
125	926.77013	720.09795	-207.48585	-824.24771	567.12799	257.11972	-810.41532	-598.86112	-124.49151	1399.5124	1903.9878	2151.34348	0
126	873.06791	729.86199	-144.01959	-802.27862	508.54375	293.73487	-795.76926	-681.85546	-278.27514	1148.08837	1604.55724	1921.88854	0
127	792.51458	707.8929	-85.43535	-751.01741	440.19547	313.26295	-756.7131	-745.32172	-432.05877	847.84414	1233.52372	1607.81192	0
128	687.55115	661.51371	-26.85111	-675.3461	357.20113	318.14497	-695.68785	-796.58293	-578.51937	523.18981	823.43404	1246.54244	0
129	567.94166	595.60644	27.66478	-582.58772	271.76578	313.26295	-615.13452	-833.19808	-707.8929	198.53548	410.90335	873.06791	0
130	445.89116	515.05311	69.16195	-480.0653	188.77144	293.73487	-524.81715	-845.40313	-812.85633	-82.99434	49.63387	531.32651	0
131	331.16369	432.05877	100.89508	-382.4249	115.54114	266.88376	-436.94079	-845.40313	-883.64562	-312.44928	-241.65999	240.84632	0
132	235.9643	358.82847	122.86417	-296.98955	56.9569	242.47366	-361.26948	-825.87505	-915.37875	-466.23291	-451.58685	16.2734	0
133	160.29299	295.36221	135.06922	-228.64127	13.01872	215.62255	-292.9212	-786.81889	-903.1737	-554.10927	-580.96038	-143.20592	0
134	106.59077	241.65999	135.06922	-174.93905	-14.64606	188.77144	-229.45494	-725.79364	-849.47148	-576.07836	-637.10361	-245.72834	0
135	74.85764	197.72181	122.86417	-135.88289	-24.4101	161.92033	-178.19373	-642.7993	-759.15411	-539.46321	-620.01654	-292.10753	0
136	57.77057	170.8707	113.10013	-113.9138	-26.85111	142.39225	-144.01959	-557.36395	-659.0727	-478.43796	-576.07836	-304.31258	0
137	48.00653	156.22464	108.21811	-101.70875	-29.29212	132.62821	-117.16848	-476.81062	-568.75533	-412.53069	-524.81715	-301.87157	0
138	45.56552	146.4606	100.89508	-96.82673	-26.85111	125.30518	-95.19939	-398.6983	-480.87897	-349.06443	-466.23291	-287.22551	0
139	48.00653	141.57858	93.57205	-94.38572	-21.96909	117.98215	-85.43535	-327.90901	-405.20766	-292.9212	-412.53069	-267.69743	0
140	52.88855	139.13757	86.24902	-96.82673	-17.08707	113.10013	-80.55333	-266.88376	-341.7414	-246.54201	-363.71049	-245.72834	0
141	57.77057	136.69656	78.92599	-96.82673	-8.95037	108.21811	-80.55333	-218.06356	-292.9212	-212.36787	-329.53635	-228.64127	0
142	62.65259	134.25555	71.60296	-99.26774	-4.06835	103.33609	-80.55333	-181.44841	-263.62908	-190.39878	-302.68524	-218.87723	0
143	67.53461	131.81454	64.27993	-99.26774	3.25468	98.45407	-80.55333	-157.03831	-239.21898	-180.63474	-288.03918	-213.99521	0
144	67.53461	129.37353	61.83892	-99.26774	3.25468	96.01306	-82.99434	-139.95124	-222.13191	-178.19373	-280.71615	-213.99521	0
145	62.65259	124.49151	61.83892	-94.38572	0.81367	93.57205	-85.43535	-130.1872	-209.92686	-180.63474	-278.27514	-218.87723	0
146	55.32956	117.16848	61.83892	-87.06269	-1.62734	91.13104	-80.55333	-125.30518	-205.04484	-187.95777	-278.27514	-226.20026	0
147	50.44754	112.28646	61.83892	-82.18067	-4.06835	88.69003	-78.11232	-122.86417	-205.04484	-197.72181	-280.71615	-233.52329	0
148	45.56552	107.40444	61.83892	-77.29865	-6.50936	86.24902	-75.67131	-122.86417	-205.04484	-202.60383	-280.71615	-238.40531	0
149	40.6835	102.52242	61.83892	-72.41663	-8.95037	83.80801	-73.2303	-122.86417	-207.48585	-207.48585	-278.27514	-240.84632	0
150	38.24249	97.6404	59.39791	-67.53461	-8.95037	78.92599	-73.2303	-122.86417	-209.92686	-214.80888	-273.39312	-240.84632	0
151	35.80148	95.19939	59.39791	-65.0936	-12.20505	78.92599	-73.2303	-120.42316	-214.80888	-219.6909	-270.95211	-243.28733	0
152	35.80148	97.6404	61.83892	-67.53461	-12.20505	81.367	-78.11232	-117.98215	-217.24989	-224.57292	-268.5111	-243.28733	0
153	40.6835	102.52242	61.83892	-72.41663	-8.95037	83.80801	-82.99434	-115.54114	-214.80888	-231.89595	-263.62908	-243.28733	0
154	40.6835	107.40444	66.72094	-74.85764	-12.20505	88.69003	-85.43535	-115.54114	-209.92686	-236.77797	-261.18807	-243.28733	0
155	40.6835	107.40444	66.72094	-74.85764	-12.20505	88.69003	-90.31737	-115.54114	-205.04484	-244.101	-256.30605	-243.28733	0
156	35.80148	107.40444	71.60296	-72.41663	-17.08707	91.13104	-90.31737	-115.54114	-200.16282	-251.42403	-253.86504	-245.72834	0
157	35.80148	109.84545	74.04397	-72.41663	-19.52808	93.57205	-90.31737	-115.54114	-200.16282	-258.74706	-246.54201	-245.72834	0
158	33.36047	107.40444	74.04397	-69.97562	-19.52808	91.13104	-90.31737	-115.54114	-200.16282	-263.62908	-241.65999	-248.16935	0
159	30.91946	104.96343	74.04397	-67.53461	-21.96909	91.13104	-90.31737	-117.98215	-200.16282	-268.5111	-231.89595	-248.16935	0
160	28.47845	100.08141	71.60296	-65.0936	-21.96909	86.24902	-92.75838	-117.98215	-205.04484	-275.83413	-224.57292	-245.72834	0
161	28.47845	97.6404	69.16195	-62.65259	-19.52808	83.80801	-95.19939	-117.98215	-207.48585	-283.15716	-217.24989	-243.28733	0
162	30.91946	102.52242	71.60296	-67.53461	-19.52808	88.69003	-97.6404	-115.54114	-212.36787	-285.59817	-209.92686	-238.40531	0
163	33.36047	107.40444	74.04397	-69.97562	-19.52808	91.13104	-102.52242	-115.54114	-209.92686	-292.9212	-205.04484	-235.9643	0
164	33.36047	109.84545	76.48498	-72.41663	-21.96909	93.57205	-107.40444	-115.54114	-205.04484	-297.80322	-197.72181	-235.9643	0
165	30.91946	112.28646	81.367	-72.41663	-24.4101	98.45407	-107.40444	-115.54114	-200.16282	-302.68524	-192.83979	-233.52329	0
166	28.47845	117.16848	88.69003	-72.41663	-29.29212	103.33609	-107.40444	-115.54114	-197.72181	-310.00827	-190.39878	-231.08228	0
167	26.03744	119.60949	93.57205	-72.41663	-34.17414	108.21811	-107.40444	-115.54114	-197.72181	-314.89029	-183.07575	-231.08228	0
168	23.59643	119.60949	96.01306	-72.41663	-36.61515	108.21811	-107.40444	-115.54114	-197.72181	-319.77231	-178.19373	-228.64127	0
169	21.15542	117.16848	96.01306	-69.97562	-36.61515	108.21811	-107.40444	-115.54114	-197.72181	-322.21332	-170.8707	-228.64127	0
170	21.15542	117.16848	96.01306	-69.97562	-36.61515	108.21811	-107.40444	-115.54114	-200.16282	-327.09534	-163.54767	-226.20026	0
171	18.71441	117.16848	98.45407	-67.53461	-39.05616	108.21811	-109.84545	-113.10013	-205.04484	-331.97736	-156.22464	-226.20026	0
172	21.15542	122.0505	100.89508	-72.41663	-39.05616	113.10013	-114.72747	-110.65912	-209.92686	-334.41837	-151.34262	-226.20026	0
173	23.59643	124.49151	100.89508	-74.85764	-39.05616	113.10013	-117.16848	-110.65912	-209.92686	-336.85938	-146.4606	-223.75925	0
174	23.59643	129.37353	105.7771	-77.29865	-41.49717	117.98215	-122.0505	-108.21811	-205.04484	-339.30039	-141.57858	-223.75925	0
175	21.15542	131.81454	110.65912	-77.29865	-43.93818	122.86417	-122.0505	-110.65912	-200.16282	-344.18241	-139.13757	-223.75925	0
176	16.2734	131.81454	115.54114	-74.85764	-48.8202	125.30518	-122.0505	-113.10013	-197.72181	-349.06443	-136.69656	-223.75925	0
177	13.83239	131.81454	117.98215	-72.41663	-51.26121	125.30518	-122.0505	-115.54114	-197.72181	-351.50544	-134.25555	-226.20026	0
178	11.39138	131.81454	120.42316	-72.41663	-53.70222	127.74619	-117.16848	-115.54114	-200.16282	-353.94645	-129.37353	-226.20026	0
179	11.39138	131.81454	120.42316	-72.41663	-53.70222	127.74619	-114.72747	-117.98215	-200.16282	-353.94645	-122.0505	-223.75925	0
180	11.39138	134.25555	122.86417	-72.41663	-56.14323	130.1872	-114.72747	-117.98215	-202.60383	-356.38746	-114.72747	-218.87723	0
181	11.39138	134.25555	122.86417	-72.41663	-56.14323	130.1872	-114.72747	-117.98215	-207.48585	-356.38746	-109.84545	-213.99521	0
182	13.83239	141.57858	127.74619	-77.29865	-56.14323	135.06922	-119.60949	-115.54114	-209.92686	-358.82847	-104.96343	-211.5542	0
183	18.71441	148.90161	130.1872	-84.62168	-56.14323	139.95124	-124.49151	-113.10013	-209.92686	-358.82847	-100.08141	-209.11319	0
184	18.71441	158.66565	139.95124	-89.5037	-61.02525	149.71528	-126.93252	-113.10013	-202.60383	-358.82847	-97.6404	-206.67218	0
185	16.2734	163.54767	147.27427	-89.5037	-65.90727	157.03831	-131.81454	-113.10013	-197.72181	-361.26948	-92.75838	-204.23117	0
186	13.83239	165.98868	152.15629	-89.5037	-68.34828	159.47932	-131.81454	-113.10013	-192.83979	-363.71049	-92.75838	-201.79016	0
187	11.39138	170.8707	159.47932	-91.94471	-73.2303	166.80235	-131.81454	-115.54114	-192.83979	-366.1515	-90.31737	-201.79016	0
188	8.95037	170.8707	161.92033	-89.5037	-75.67131	166.80235	-131.81454	-117.98215	-192.83979	-366.1515	-87.87636	-201.79016	0
189	6.50936	170.8707	164.36134	-89.5037	-78.11232	169.24336	-131.81454	-117.98215	-192.83979	-366.1515	-82.99434	-199.34915	0
190	6.50936	170.8707	164.36134	-89.5037	-78.11232	169.24336	-131.81454	-117.98215	-197.72181	-368.59251	-75.67131	-196.90814	0
191	6.50936	173.31171	166.80235	-89.5037	-80.55333	171.68437	-134.25555	-117.98215	-200.16282	-368.59251	-73.2303	-194.46713	0
192	6.50936	178.19373	171.68437	-91.94471	-82.99434	176.56639	-141.57858	-115.54114	-205.04484	-371.03352	-68.34828	-194.46713	0
193	6.50936	183.07575	176.56639	-94.38572	-85.43535	181.44841	-146.4606	-115.54114	-205.04484	-371.03352	-65.90727	-192.02612	0
194	4.06835	185.51676	181.44841	-94.38572	-87.87636	183.88942	-151.34262	-115.54114	-200.16282	-371.03352	-63.46626	-192.02612	0
195	1.62734	187.95777	186.33043	-94.38572	-92.75838	188.77144	-156.22464	-115.54114	-195.2808	-373.47453	-61.02525	-189.58511	0
196	-3.25468	192.83979	196.09447	-94.38572	-100.08141	196.09447	-156.22464	-117.98215	-190.39878	-375.91554	-58.58424	-187.1441	0
197	-3.25468	195.2808	198.53548	-96.82673	-100.08141	198.53548	-156.22464	-117.98215	-190.39878	-375.91554	-53.70222	-184.70309	0
198	-5.69569	197.72181	203.4175	-96.82673	-104.96343	200.97649	-153.78363	-117.98215	-190.39878	-375.91554	-50.44754	-182.26208	0
199	-8.1367	200.16282	208.29952	-96.82673	-107.40444	205.85851	-153.78363	-120.42316	-190.39878	-371.03352	-43.12451	-177.38006	0
200	-3.25468	205.04484	208.29952	-101.70875	-104.96343	208.29952	-153.78363	-115.54114	-190.39878	-368.59251	-33.36047	-172.49804	0
201	1.62734	212.36787	210.74053	-106.59077	-104.96343	213.18154	-153.78363	-113.10013	-192.83979	-368.59251	-28.47845	-165.17501	0
202	6.50936	222.13191	215.62255	-113.9138	-104.96343	220.50457	-158.66565	-108.21811	-192.83979	-363.71049	-21.15542	-160.29299	0
203	8.95037	227.01393	218.06356	-118.79582	-104.96343	222.94558	-163.54767	-105.7771	-192.83979	-363.71049	-16.2734	-157.85198	0
204	8.95037	234.33696	225.38659	-121.23683	-107.40444	230.26861	-165.98868	-105.7771	-185.51676	-363.71049	-13.83239	-157.85198	0
205	8.95037	239.21898	230.26861	-123.67784	-109.84545	235.15063	-170.8707	-103.33609	-180.63474	-363.71049	-11.39138	-155.41097	0
206	4.06835	241.65999	237.59164	-123.67784	-117.16848	240.03265	-170.8707	-100.89508	-173.31171	-363.71049	-8.95037	-152.96996	0
207	-5.69569	241.65999	247.35568	-118.79582	-126.93252	244.91467	-168.42969	-100.89508	-170.8707	-363.71049	-4.06835	-150.52895	0
208	-8.1367	244.101	252.2377	-118.79582	-129.37353	249.79669	-168.42969	-100.89508	-168.42969	-358.82847	0.81367	-148.08794	0
209	-8.1367	246.54201	254.67871	-118.79582	-131.81454	252.2377	-165.98868	-100.89508	-165.98868	-353.94645	8.1367	-143.20592	0
210	-8.1367	248.98302	257.11972	-121.23683	-131.81454	254.67871	-165.98868	-96.01306	-163.54767	-351.50544	17.90074	-135.88289	0
211	-5.69569	251.42403	257.11972	-123.67784	-131.81454	254.67871	-168.42969	-91.13104	-163.54767	-346.62342	25.22377	-131.00087	0
212	-0.81367	258.74706	259.56073	-128.55986	-129.37353	259.56073	-170.8707	-86.24902	-161.10666	-339.30039	32.5468	-126.11885	0
213	4.06835	266.07009	262.00174	-135.88289	-129.37353	264.44275	-175.75272	-81.367	-153.78363	-334.41837	37.42882	-118.79582	0
214	4.06835	275.83413	271.76578	-140.76491	-134.25555	274.20679	-178.19373	-74.04397	-144.01959	-329.53635	44.75185	-113.9138	0
215	4.06835	280.71615	276.6478	-143.20592	-136.69656	279.08881	-180.63474	-71.60296	-134.25555	-324.65433	49.63387	-109.03178	0
216	-0.81367	285.59817	286.41184	-143.20592	-144.01959	286.41184	-183.07575	-66.72094	-124.49151	-319.77231	54.51589	-104.14976	0
217	-3.25468	292.9212	296.17588	-145.64693	-148.90161	296.17588	-178.19373	-61.83892	-117.16848	-314.89029	61.83892	-96.82673	0
218	-5.69569	295.36221	301.0579	-145.64693	-153.78363	298.61689	-175.75272	-54.51589	-109.84545	-305.12625	71.60296	-91.94471	0
219	-3.25468	297.80322	301.0579	-148.08794	-151.34262	301.0579	-170.8707	-52.07488	-102.52242	-295.36221	81.367	-84.62168	0
220	-3.25468	297.80322	301.0579	-148.08794	-151.34262	301.0579	-170.8707	-44.75185	-97.6404	-288.03918	93.57205	-77.29865	0
221	-0.81367	302.68524	303.49891	-150.52895	-151.34262	303.49891	-170.8707	-37.42882	-92.75838	-278.27514	103.33609	-69.97562	0
222	1.62734	310.00827	308.38093	-155.41097	-153.78363	310.82194	-173.31171	-25.22377	-85.43535	-268.5111	113.10013	-62.65259	0
223	4.06835	314.89029	310.82194	-160.29299	-153.78363	313.26295	-173.31171	-17.90074	-75.67131	-258.74706	122.86417	-57.77057	0
224	4.06835	322.21332	318.14497	-162.734	-156.22464	320.58598	-175.75272	-8.1367	-61.02525	-248.98302	132.62821	-49.63387	0
225	4.06835	327.09534	323.02699	-165.17501	-158.66565	325.468	-175.75272	-0.81367	-43.93818	-239.21898	142.39225	-42.31084	0
226	-0.81367	331.97736	332.79103	-165.17501	-165.98868	332.79103	-173.31171	8.95037	-29.29212	-229.45494	149.71528	-34.98781	0
227	-3.25468	336.85938	340.11406	-167.61602	-170.8707	340.11406	-170.8707	16.2734	-19.52808	-219.6909	161.92033	-27.66478	0
228	-3.25468	339.30039	342.55507	-167.61602	-173.31171	342.55507	-165.98868	23.59643	-7.32303	-207.48585	174.12538	-20.34175	0
229	-0.81367	341.7414	342.55507	-170.05703	-170.8707	342.55507	-161.10666	34.17414	7.32303	-190.39878	186.33043	-8.1367	0
230	1.62734	344.18241	342.55507	-172.49804	-170.8707	344.99608	-158.66565	46.37919	15.45973	-178.19373	203.4175	1.62734	0
231	4.06835	346.62342	342.55507	-174.93905	-168.42969	344.99608	-156.22464	58.58424	25.22377	-163.54767	215.62255	11.39138	0
232	8.95037	353.94645	344.99608	-182.26208	-168.42969	349.8781	-156.22464	70.78929	34.98781	-151.34262	227.8276	21.15542	0
233	16.2734	361.26948	344.99608	-189.58511	-163.54767	354.76012	-158.66565	82.99434	49.63387	-136.69656	240.03265	30.91946	0
234	18.71441	368.59251	349.8781	-194.46713	-165.98868	359.64214	-158.66565	95.19939	66.72094	-119.60949	252.2377	40.6835	0
235	18.71441	373.47453	354.76012	-196.90814	-168.42969	364.52416	-158.66565	107.40444	86.24902	-107.40444	264.44275	50.44754	0
236	18.71441	375.91554	357.20113	-196.90814	-168.42969	366.96517	-153.78363	117.16848	103.33609	-95.19939	274.20679	60.21158	0
237	18.71441	380.79756	362.08315	-199.34915	-170.8707	371.84719	-148.90161	129.37353	115.54114	-78.11232	286.41184	67.53461	0
238	21.15542	383.23857	362.08315	-201.79016	-170.8707	374.2882	-141.57858	141.57858	130.1872	-61.02525	301.0579	79.73966	0
239	26.03744	385.67958	359.64214	-206.67218	-165.98868	374.2882	-134.25555	153.78363	147.27427	-43.93818	318.14497	91.94471	0
240	30.91946	388.12059	357.20113	-209.11319	-163.54767	374.2882	-129.37353	170.8707	159.47932	-28.47845	337.67305	104.14976	0
241	35.80148	393.00261	357.20113	-213.99521	-161.10666	376.72921	-124.49151	185.51676	171.68437	-11.39138	352.31911	116.35481	0
242	40.6835	397.88463	357.20113	-218.87723	-158.66565	379.17022	-124.49151	205.04484	186.33043	5.69569	366.96517	128.55986	0
243	48.00653	402.76665	354.76012	-226.20026	-153.78363	379.17022	-124.49151	219.6909	203.4175	22.78276	381.61123	140.76491	0
244	50.44754	407.64867	357.20113	-228.64127	-153.78363	384.05224	-124.49151	234.33696	222.94558	39.86983	393.81628	150.52895	0
245	55.32956	410.08968	354.76012	-233.52329	-148.90161	384.05224	-124.49151	248.98302	244.91467	54.51589	406.02133	160.29299	0
246	55.32956	410.08968	354.76012	-233.52329	-148.90161	384.05224	-119.60949	263.62908	262.00174	69.16195	415.78537	170.05703	0
247	55.32956	410.08968	354.76012	-233.52329	-148.90161	384.05224	-117.16848	275.83413	276.6478	83.80801	427.99042	179.82107	0
248	60.21158	410.08968	349.8781	-235.9643	-144.01959	381.61123	-112.28646	285.59817	291.29386	100.89508	440.19547	189.58511	0
249	62.65259	410.08968	347.43709	-235.9643	-141.57858	379.17022	-107.40444	297.80322	305.93992	120.42316	454.84153	199.34915	0
250	67.53461	407.64867	340.11406	-238.40531	-136.69656	374.2882	-104.96343	310.00827	320.58598	135.06922	469.48759	211.5542	0
251	72.41663	407.64867	335.23204	-240.84632	-131.81454	371.84719	-102.52242	324.65433	330.35002	152.15629	484.13365	223.75925	0
252	79.73966	407.64867	327.90901	-243.28733	-124.49151	369.40618	-102.52242	336.85938	342.55507	166.80235	496.3387	233.52329	0
253	84.62168	410.08968	325.468	-248.16935	-119.60949	369.40618	-102.52242	349.06443	354.76012	181.44841	506.10274	240.84632	0
254	87.06269	407.64867	320.58598	-248.16935	-117.16848	364.52416	-102.52242	358.82847	374.2882	193.65346	513.42577	245.72834	0
255	87.06269	402.76665	315.70396	-245.72834	-114.72747	359.64214	-100.08141	368.59251	391.37527	203.4175	523.18981	253.05137	0
256	84.62168	393.00261	308.38093	-238.40531	-112.28646	352.31911	-95.19939	375.91554	406.02133	215.62255	530.51284	260.3744	0
257	84.62168	383.23857	298.61689	-233.52329	-107.40444	342.55507	-90.31737	383.23857	415.78537	227.8276	537.83587	262.81541	0
258	84.62168	371.03352	286.41184	-228.64127	-100.08141	330.35002	-82.99434	390.5616	423.1084	240.03265	545.1589	267.69743	0
259	84.62168	356.38746	271.76578	-221.31824	-92.75838	315.70396	-73.2303	395.44362	430.43143	254.67871	557.36395	275.02046	0
260	87.06269	341.7414	254.67871	-213.99521	-82.99434	298.61689	-68.34828	402.76665	437.75446	266.88376	567.12799	282.34349	0
261	91.94471	329.53635	237.59164	-211.5542	-73.2303	283.97083	-63.46626	412.53069	440.19547	276.6478	574.45102	289.66652	0
262	96.82673	319.77231	222.94558	-209.11319	-63.46626	271.76578	-63.46626	419.85372	442.63648	283.97083	579.33304	292.10753	0
263	101.70875	307.56726	205.85851	-204.23117	-51.26121	257.11972	-63.46626	422.29473	447.5185	288.85285	581.77405	294.54854	0
264	104.14976	295.36221	191.21245	-199.34915	-43.93818	244.91467	-63.46626	422.29473	454.84153	293.73487	581.77405	292.10753	0
265	104.14976	283.15716	179.0074	-194.46713	-36.61515	232.70962	-61.02525	419.85372	464.60557	296.17588	581.77405	294.54854	0
266	101.70875	270.95211	169.24336	-187.1441	-34.17414	220.50457	-53.70222	414.9717	467.04658	296.17588	579.33304	294.54854	0
267	96.82673	253.86504	157.03831	-174.93905	-29.29212	205.85851	-43.93818	410.08968	462.16456	296.17588	576.89203	289.66652	0
268	94.38572	234.33696	139.95124	-165.17501	-21.96909	188.77144	-36.61515	400.32564	457.28254	298.61689	576.89203	284.7845	0
269	91.94471	214.80888	122.86417	-152.96996	-14.64606	169.24336	-24.4101	395.44362	449.95951	298.61689	576.89203	282.34349	0
270	91.94471	195.2808	103.33609	-143.20592	-4.06835	149.71528	-17.08707	393.00261	440.19547	298.61689	576.89203	279.90248	0
271	91.94471	178.19373	86.24902	-135.88289	3.25468	132.62821	-12.20505	388.12059	425.54941	291.29386	572.01001	275.02046	0
272	89.5037	161.10666	71.60296	-126.11885	10.57771	117.98215	-12.20505	383.23857	408.46234	286.41184	562.24597	267.69743	0
273	91.94471	144.01959	52.07488	-118.79582	20.34175	98.45407	-12.20505	375.91554	401.13931	276.6478	550.04092	257.93339	0
274	91.94471	129.37353	37.42882	-111.47279	27.66478	83.80801	-14.64606	366.1515	396.25729	262.00174	532.95385	245.72834	0
275	82.18067	112.28646	30.10579	-96.82673	27.66478	71.60296	-14.64606	353.94645	391.37527	244.91467	513.42577	233.52329	0
276	72.41663	95.19939	22.78276	-84.62168	25.22377	59.39791	-7.32303	341.7414	379.17022	225.38659	489.01567	221.31824	0
277	60.21158	78.11232	17.90074	-69.97562	22.78276	49.63387	0	327.09534	364.52416	208.29952	464.60557	201.79016	0
278	50.44754	56.14323	4.88202	-52.88855	22.78276	32.5468	8.1367	312.44928	344.99608	191.21245	445.07749	184.70309	0
279	43.12451	39.05616	-4.88202	-40.6835	25.22377	17.90074	17.90074	297.80322	327.90901	176.56639	427.99042	167.61602	0
280	35.80148	19.52808	-17.08707	-28.47845	27.66478	3.25468	22.78276	285.59817	305.93992	157.03831	410.90335	152.96996	0
281	30.91946	4.88202	-26.85111	-18.71441	30.10579	-9.76404	27.66478	275.83413	281.52982	137.51023	391.37527	138.3239	0
282	28.47845	-8.1367	-36.61515	-11.39138	32.5468	-21.96909	27.66478	268.5111	259.56073	122.86417	371.84719	121.23683	0
283	23.59643	-17.90074	-41.49717	-4.06835	32.5468	-29.29212	25.22377	256.30605	244.91467	103.33609	349.8781	104.14976	0
284	18.71441	-30.10579	-48.8202	5.69569	32.5468	-39.05616	22.78276	244.101	237.59164	83.80801	327.90901	87.06269	0
285	11.39138	-42.31084	-53.70222	13.83239	32.5468	-46.37919	20.34175	231.89595	232.70962	64.27993	305.93992	72.41663	0
286	-0.81367	-52.07488	-51.26121	26.03744	25.22377	-51.26121	25.22377	219.6909	222.94558	44.75185	281.52982	57.77057	0
287	-13.01872	-64.27993	-51.26121	38.24249	17.90074	-56.14323	32.5468	205.04484	208.29952	27.66478	259.56073	40.6835	0
288	-23.59643	-76.48498	-53.70222	48.00653	15.45973	-65.90727	42.31084	192.83979	193.65346	15.45973	242.47366	26.03744	0
289	-28.47845	-88.69003	-61.02525	57.77057	15.45973	-75.67131	49.63387	183.07575	181.44841	3.25468	227.8276	13.83239	0
290	-33.36047	-98.45407	-65.90727	65.0936	15.45973	-82.99434	54.51589	175.75272	166.80235	-8.95037	220.50457	6.50936	0
291	-35.80148	-105.7771	-70.78929	69.97562	17.90074	-87.87636	56.9569	173.31171	149.71528	-18.71441	208.29952	-0.81367	0
292	-35.80148	-110.65912	-75.67131	72.41663	20.34175	-92.75838	56.9569	170.8707	137.51023	-26.03744	198.53548	-10.57771	0
293	-33.36047	-113.10013	-80.55333	72.41663	22.78276	-97.6404	54.51589	165.98868	135.06922	-33.36047	186.33043	-17.90074	0
294	-30.91946	-113.10013	-82.99434	69.97562	25.22377	-97.6404	49.63387	161.10666	135.06922	-41.49717	174.12538	-25.22377	0
295	-35.80148	-117.98215	-82.99434	74.85764	22.78276	-100.08141	47.19286	156.22464	135.06922	-51.26121	161.92033	-32.5468	0
296	-43.12451	-120.42316	-78.11232	79.73966	17.90074	-100.08141	47.19286	148.90161	135.06922	-61.02525	147.27427	-37.42882	0
297	-48.00653	-122.86417	-75.67131	84.62168	13.01872	-100.08141	54.51589	141.57858	130.1872	-65.90727	137.51023	-47.19286	0
298	-52.88855	-127.74619	-75.67131	89.5037	10.57771	-102.52242	59.39791	134.25555	122.86417	-70.78929	130.1872	-54.51589	0
299	-52.88855	-132.62821	-80.55333	91.94471	13.01872	-107.40444	64.27993	129.37353	115.54114	-73.2303	125.30518	-57.77057	0
300	-52.88855	-137.51023	-85.43535	94.38572	15.45973	-112.28646	66.72094	126.93252	105.7771	-75.67131	125.30518	-57.77057	0
301	-52.88855	-139.95124	-87.87636	94.38572	17.90074	-114.72747	69.16195	126.93252	96.01306	-78.11232	122.86417	-60.21158	0
302	-50.44754	-139.95124	-90.31737	94.38572	20.34175	-114.72747	66.72094	126.93252	86.24902	-78.11232	120.42316	-62.65259	0
303	-45.56552	-139.95124	-95.19939	91.94471	25.22377	-117.16848	61.83892	126.93252	86.24902	-80.55333	115.54114	-67.53461	0
304	-45.56552	-137.51023	-92.75838	89.5037	22.78276	-114.72747	59.39791	124.49151	93.57205	-82.99434	110.65912	-69.97562	0
305	-48.00653	-137.51023	-90.31737	91.94471	20.34175	-114.72747	56.9569	122.0505	98.45407	-90.31737	103.33609	-69.97562	0
306	-55.32956	-139.95124	-85.43535	96.82673	15.45973	-112.28646	56.9569	117.16848	100.89508	-95.19939	93.57205	-74.85764	0
307	-62.65259	-142.39225	-80.55333	101.70875	8.1367	-112.28646	59.39791	112.28646	96.01306	-95.19939	83.80801	-79.73966	0
308	-67.53461	-147.27427	-80.55333	106.59077	5.69569	-114.72747	64.27993	107.40444	91.13104	-95.19939	81.367	-82.18067	0
309	-67.53461	-149.71528	-82.99434	106.59077	8.1367	-117.16848	69.16195	104.96343	88.69003	-95.19939	81.367	-82.18067	0
310	-69.97562	-157.03831	-87.87636	111.47279	8.1367	-122.0505	69.16195	102.52242	83.80801	-97.6404	81.367	-82.18067	0
311	-72.41663	-161.92033	-90.31737	116.35481	8.1367	-126.93252	69.16195	102.52242	74.04397	-97.6404	76.48498	-82.18067	0
312	-72.41663	-161.92033	-90.31737	116.35481	8.1367	-126.93252	64.27993	104.96343	66.72094	-97.6404	76.48498	-82.18067	0
313	-67.53461	-161.92033	-95.19939	113.9138	13.01872	-129.37353	59.39791	107.40444	69.16195	-97.6404	74.04397	-82.18067	0
314	-65.0936	-161.92033	-97.6404	111.47279	15.45973	-129.37353	56.9569	107.40444	78.92599	-97.6404	71.60296	-82.18067	0
315	-67.53461	-161.92033	-95.19939	113.9138	13.01872	-129.37353	54.51589	104.96343	86.24902	-102.52242	66.72094	-82.18067	0
316	-74.85764	-164.36134	-90.31737	118.79582	8.1367	-126.93252	54.51589	104.96343	91.13104	-102.52242	59.39791	-82.18067	0
317	-82.18067	-164.36134	-82.99434	121.23683	0.81367	-124.49151	61.83892	100.08141	91.13104	-104.96343	56.9569	-84.62168	0
318	-82.18067	-166.80235	-85.43535	123.67784	0.81367	-126.93252	66.72094	100.08141	91.13104	-102.52242	56.9569	-87.06269	0
319	-82.18067	-169.24336	-87.87636	123.67784	3.25468	-129.37353	74.04397	97.6404	88.69003	-100.08141	59.39791	-84.62168	0
320	-82.18067	-174.12538	-92.75838	126.11885	5.69569	-134.25555	74.04397	97.6404	83.80801	-100.08141	61.83892	-82.18067	0
321	-82.18067	-174.12538	-92.75838	126.11885	5.69569	-134.25555	74.04397	100.08141	76.48498	-100.08141	61.83892	-79.73966	0
322	-72.41663	-171.68437	-100.08141	121.23683	13.01872	-136.69656	66.72094	104.96343	69.16195	-97.6404	61.83892	-79.73966	0
323	-65.0936	-169.24336	-104.96343	116.35481	20.34175	-136.69656	59.39791	104.96343	71.60296	-97.6404	59.39791	-79.73966	0
324	-65.0936	-169.24336	-104.96343	116.35481	20.34175	-136.69656	54.51589	107.40444	81.367	-97.6404	56.9569	-79.73966	0
325	-65.0936	-169.24336	-104.96343	116.35481	20.34175	-136.69656	52.07488	107.40444	88.69003	-100.08141	54.51589	-77.29865	0
326	-72.41663	-166.80235	-95.19939	118.79582	10.57771	-131.81454	52.07488	107.40444	93.57205	-100.08141	47.19286	-77.29865	0
327	-82.18067	-166.80235	-85.43535	123.67784	0.81367	-126.93252	59.39791	104.96343	93.57205	-97.6404	47.19286	-77.29865	0
328	-87.06269	-169.24336	-82.99434	126.11885	-1.62734	-126.93252	64.27993	104.96343	96.01306	-95.19939	47.19286	-77.29865	0
329	-91.94471	-171.68437	-80.55333	131.00087	-6.50936	-126.93252	71.60296	104.96343	96.01306	-90.31737	52.07488	-77.29865	0
330	-91.94471	-174.12538	-82.99434	131.00087	-4.06835	-129.37353	74.04397	107.40444	93.57205	-90.31737	56.9569	-72.41663	0
331	-89.5037	-174.12538	-85.43535	131.00087	-1.62734	-129.37353	74.04397	109.84545	86.24902	-90.31737	59.39791	-69.97562	0
332	-87.06269	-176.56639	-90.31737	131.00087	0.81367	-134.25555	69.16195	114.72747	81.367	-87.87636	59.39791	-69.97562	0
333	-79.73966	-176.56639	-97.6404	126.11885	8.1367	-136.69656	61.83892	114.72747	83.80801	-87.87636	59.39791	-69.97562	0
334	-74.85764	-174.12538	-100.08141	123.67784	13.01872	-136.69656	54.51589	114.72747	93.57205	-87.87636	56.9569	-69.97562	0
335	-74.85764	-174.12538	-100.08141	123.67784	13.01872	-136.69656	49.63387	114.72747	100.89508	-90.31737	52.07488	-69.97562	0
336	-82.18067	-174.12538	-92.75838	126.11885	5.69569	-134.25555	49.63387	112.28646	105.7771	-92.75838	47.19286	-69.97562	0
337	-87.06269	-174.12538	-87.87636	128.55986	0.81367	-131.81454	54.51589	109.84545	105.7771	-90.31737	42.31084	-74.85764	0
338	-87.06269	-174.12538	-87.87636	128.55986	0.81367	-131.81454	61.83892	109.84545	105.7771	-87.87636	42.31084	-74.85764	1500	QRS+0
339	-87.06269	-176.56639	-90.31737	131.00087	0.81367	-134.25555	69.16195	109.84545	105.7771	-82.99434	47.19286	-74.85764	0
340	-87.06269	-179.0074	-92.75838	131.00087	3.25468	-136.69656	74.04397	112.28646	103.33609	-80.55333	54.51589	-72.41663	0
341	-84.62168	-181.44841	-97.6404	131.00087	5.69569	-139.13757	76.48498	117.16848	96.01306	-78.11232	54.51589	-67.53461	0
342	-79.73966	-181.44841	-102.52242	128.55986	10.57771	-141.57858	74.04397	122.0505	91.13104	-73.2303	59.39791	-67.53461	0
343	-74.85764	-181.44841	-107.40444	126.11885	15.45973	-144.01959	71.60296	126.93252	96.01306	-70.78929	59.39791	-67.53461	0
344	-72.41663	-181.44841	-109.84545	126.11885	17.90074	-146.4606	69.16195	126.93252	105.7771	-70.78929	56.9569	-67.53461	0
345	-72.41663	-179.0074	-107.40444	123.67784	17.90074	-144.01959	69.16195	129.37353	115.54114	-70.78929	56.9569	-65.0936	0
346	-77.29865	-179.0074	-102.52242	126.11885	13.01872	-141.57858	69.16195	129.37353	120.42316	-73.2303	49.63387	-65.0936	0
347	-84.62168	-179.0074	-95.19939	131.00087	5.69569	-136.69656	76.48498	126.93252	120.42316	-70.78929	44.75185	-69.97562	0
348	-87.06269	-183.88942	-97.6404	133.44188	5.69569	-141.57858	81.367	126.93252	117.98215	-68.34828	44.75185	-72.41663	0
349	-89.5037	-188.77144	-100.08141	138.3239	5.69569	-144.01959	86.24902	124.49151	115.54114	-65.90727	49.63387	-72.41663	0
350	-89.5037	-191.21245	-102.52242	138.3239	5.69569	-146.4606	88.69003	126.93252	113.10013	-63.46626	54.51589	-69.97562	0
351	-84.62168	-193.65346	-109.84545	138.3239	13.01872	-151.34262	91.13104	129.37353	105.7771	-61.02525	56.9569	-67.53461	0
352	-82.18067	-193.65346	-112.28646	135.88289	15.45973	-153.78363	86.24902	131.81454	100.89508	-58.58424	56.9569	-67.53461	0
353	-74.85764	-193.65346	-119.60949	133.44188	22.78276	-156.22464	81.367	134.25555	103.33609	-56.14323	56.9569	-69.97562	0
354	-69.97562	-193.65346	-124.49151	131.00087	27.66478	-158.66565	78.92599	134.25555	113.10013	-56.14323	56.9569	-69.97562	0
355	-69.97562	-191.21245	-122.0505	128.55986	25.22377	-156.22464	76.48498	131.81454	120.42316	-61.02525	52.07488	-69.97562	0
356	-77.29865	-191.21245	-114.72747	133.44188	17.90074	-153.78363	78.92599	129.37353	125.30518	-61.02525	47.19286	-69.97562	0
357	-82.18067	-193.65346	-112.28646	135.88289	15.45973	-153.78363	83.80801	126.93252	122.86417	-63.46626	42.31084	-74.85764	0
358	-87.06269	-198.53548	-112.28646	140.76491	13.01872	-156.22464	91.13104	124.49151	122.86417	-63.46626	39.86983	-79.73966	0
359	-89.5037	-203.4175	-114.72747	145.64693	13.01872	-158.66565	96.01306	122.0505	120.42316	-61.02525	39.86983	-82.18067	0
360	-89.5037	-208.29952	-119.60949	148.08794	15.45973	-163.54767	98.45407	122.0505	115.54114	-61.02525	44.75185	-82.18067	0
361	-89.5037	-210.74053	-122.0505	148.08794	15.45973	-165.98868	98.45407	124.49151	108.21811	-58.58424	44.75185	-79.73966	0
362	-84.62168	-210.74053	-126.93252	145.64693	20.34175	-168.42969	96.01306	129.37353	100.89508	-56.14323	44.75185	-79.73966	0
363	-79.73966	-210.74053	-131.81454	143.20592	25.22377	-170.8707	88.69003	129.37353	105.7771	-56.14323	44.75185	-82.18067	0
364	-74.85764	-210.74053	-136.69656	140.76491	30.10579	-173.31171	83.80801	131.81454	110.65912	-56.14323	42.31084	-82.18067	0
365	-72.41663	-208.29952	-136.69656	138.3239	32.5468	-173.31171	81.367	131.81454	117.98215	-58.58424	39.86983	-79.73966	0
366	-74.85764	-208.29952	-134.25555	140.76491	30.10579	-170.8707	81.367	129.37353	120.42316	-61.02525	32.5468	-77.29865	0
367	-77.29865	-208.29952	-131.81454	140.76491	27.66478	-170.8707	86.24902	126.93252	120.42316	-61.02525	27.66478	-79.73966	0
368	-79.73966	-210.74053	-131.81454	143.20592	25.22377	-170.8707	88.69003	122.0505	120.42316	-63.46626	25.22377	-82.18067	0
369	-79.73966	-210.74053	-131.81454	143.20592	25.22377	-170.8707	93.57205	119.60949	115.54114	-63.46626	25.22377	-82.18067	0
370	-79.73966	-210.74053	-131.81454	143.20592	25.22377	-170.8707	96.01306	117.16848	110.65912	-63.46626	27.66478	-79.73966	0
371	-79.73966	-210.74053	-131.81454	143.20592	25.22377	-170.8707	98.45407	117.16848	103.33609	-61.02525	27.66478	-77.29865	0
372	-79.73966	-210.74053	-131.81454	143.20592	25.22377	-170.8707	98.45407	117.16848	96.01306	-58.58424	27.66478	-74.85764	0
373	-77.29865	-210.74053	-134.25555	143.20592	27.66478	-173.31171	93.57205	119.60949	98.45407	-58.58424	27.66478	-72.41663	0
374	-77.29865	-210.74053	-134.25555	143.20592	27.66478	-173.31171	91.13104	119.60949	103.33609	-58.58424	25.22377	-72.41663	0
375	-77.29865	-210.74053	-134.25555	143.20592	27.66478	-173.31171	88.69003	122.0505	105.7771	-61.02525	22.78276	-69.97562	0
376	-79.73966	-208.29952	-129.37353	143.20592	25.22377	-168.42969	88.69003	122.0505	108.21811	-61.02525	17.90074	-67.53461	0
377	-79.73966	-203.4175	-124.49151	140.76491	22.78276	-163.54767	93.57205	122.0505	108.21811	-61.02525	15.45973	-67.53461	0
378	-79.73966	-198.53548	-119.60949	138.3239	20.34175	-158.66565	98.45407	124.49151	110.65912	-58.58424	13.01872	-67.53461	0
379	-77.29865	-191.21245	-114.72747	133.44188	17.90074	-153.78363	103.33609	124.49151	113.10013	-58.58424	13.01872	-65.0936	0
380	-72.41663	-183.88942	-112.28646	126.11885	20.34175	-148.90161	105.7771	124.49151	110.65912	-56.14323	17.90074	-60.21158	0
381	-67.53461	-176.56639	-109.84545	121.23683	20.34175	-144.01959	110.65912	126.93252	108.21811	-56.14323	17.90074	-57.77057	0
382	-62.65259	-171.68437	-109.84545	116.35481	22.78276	-141.57858	110.65912	129.37353	105.7771	-51.26121	17.90074	-57.77057	0
383	-60.21158	-169.24336	-109.84545	113.9138	25.22377	-139.13757	110.65912	131.81454	110.65912	-51.26121	17.90074	-57.77057	0
384	-60.21158	-169.24336	-109.84545	113.9138	25.22377	-139.13757	108.21811	134.25555	115.54114	-51.26121	15.45973	-57.77057	0
385	-60.21158	-164.36134	-104.96343	111.47279	22.78276	-134.25555	103.33609	134.25555	120.42316	-51.26121	15.45973	-54.51589	0
386	-62.65259	-164.36134	-102.52242	111.47279	20.34175	-134.25555	103.33609	136.69656	122.86417	-48.8202	10.57771	-52.07488	0
387	-67.53461	-164.36134	-97.6404	113.9138	15.45973	-131.81454	103.33609	136.69656	125.30518	-46.37919	8.1367	-52.07488	0
388	-69.97562	-164.36134	-95.19939	116.35481	13.01872	-129.37353	105.7771	136.69656	125.30518	-46.37919	5.69569	-49.63387	0
389	-69.97562	-159.47932	-90.31737	113.9138	10.57771	-124.49151	108.21811	136.69656	125.30518	-46.37919	5.69569	-47.19286	0
390	-65.0936	-154.5973	-90.31737	109.03178	13.01872	-122.0505	110.65912	136.69656	122.86417	-43.93818	8.1367	-42.31084	0
391	-62.65259	-149.71528	-87.87636	104.14976	13.01872	-119.60949	110.65912	136.69656	117.98215	-43.93818	8.1367	-39.86983	0
392	-57.77057	-144.83326	-87.87636	99.26774	15.45973	-117.16848	110.65912	134.25555	113.10013	-41.49717	8.1367	-37.42882	0
393	-52.88855	-139.95124	-87.87636	94.38572	17.90074	-114.72747	108.21811	129.37353	113.10013	-41.49717	8.1367	-37.42882	0
394	-43.12451	-132.62821	-90.31737	87.06269	22.78276	-112.28646	103.33609	122.0505	110.65912	-46.37919	5.69569	-34.98781	0
395	-43.12451	-127.74619	-85.43535	84.62168	20.34175	-107.40444	93.57205	112.28646	105.7771	-51.26121	0.81367	-34.98781	0
396	-48.00653	-127.74619	-80.55333	87.06269	15.45973	-104.96343	83.80801	97.6404	96.01306	-58.58424	-8.95037	-34.98781	0
397	-52.88855	-127.74619	-75.67131	89.5037	10.57771	-102.52242	74.04397	82.99434	83.80801	-63.46626	-18.71441	-39.86983	0
398	-55.32956	-127.74619	-73.2303	89.5037	8.1367	-100.08141	64.27993	68.34828	69.16195	-70.78929	-26.03744	-44.75185	0
399	-55.32956	-130.1872	-75.67131	91.94471	10.57771	-102.52242	56.9569	53.70222	54.51589	-80.55333	-33.36047	-47.19286	0
400	-60.21158	-137.51023	-78.11232	96.82673	8.1367	-107.40444	47.19286	41.49717	37.42882	-90.31737	-40.6835	-52.07488	0
401	-65.0936	-147.27427	-82.99434	104.14976	8.1367	-114.72747	42.31084	31.73313	22.78276	-102.52242	-50.44754	-57.77057	0
402	-65.0936	-152.15629	-87.87636	106.59077	10.57771	-119.60949	37.42882	23.59643	9.76404	-109.84545	-58.58424	-62.65259	0
403	-62.65259	-157.03831	-95.19939	109.03178	15.45973	-126.93252	34.98781	21.15542	4.88202	-117.16848	-63.46626	-65.0936	0
404	-62.65259	-161.92033	-100.08141	111.47279	17.90074	-131.81454	32.5468	21.15542	4.88202	-122.0505	-68.34828	-67.53461	0
405	-60.21158	-159.47932	-100.08141	109.03178	20.34175	-129.37353	32.5468	21.15542	7.32303	-124.49151	-73.2303	-65.0936	0
406	-57.77057	-154.5973	-97.6404	104.14976	20.34175	-126.93252	34.98781	23.59643	7.32303	-124.49151	-73.2303	-60.21158	0
407	-50.44754	-149.71528	-100.08141	99.26774	25.22377	-124.49151	39.86983	23.59643	9.76404	-119.60949	-73.2303	-57.77057	0
408	-43.12451	-147.27427	-104.96343	94.38572	30.10579	-126.93252	44.75185	23.59643	9.76404	-117.16848	-68.34828	-54.51589	0
409	-35.80148	-147.27427	-112.28646	89.5037	37.42882	-129.37353	49.63387	26.85111	9.76404	-114.72747	-65.90727	-49.63387	0
410	-28.47845	-149.71528	-122.0505	87.06269	47.19286	-136.69656	52.07488	26.85111	7.32303	-114.72747	-61.02525	-44.75185	0
411	-23.59643	-154.5973	-131.81454	87.06269	54.51589	-144.01959	52.07488	29.29212	2.44101	-114.72747	-63.46626	-44.75185	0
412	-21.15542	-161.92033	-141.57858	89.5037	59.39791	-151.34262	54.51589	26.85111	-4.88202	-117.16848	-65.90727	-44.75185	0
413	-23.59643	-166.80235	-144.01959	94.38572	59.39791	-156.22464	52.07488	26.85111	-4.88202	-122.0505	-70.78929	-49.63387	0
414	-26.03744	-174.12538	-148.90161	99.26774	61.83892	-161.10666	52.07488	23.59643	-4.88202	-126.93252	-78.11232	-52.07488	0
415	-35.80148	-176.56639	-141.57858	104.14976	52.07488	-158.66565	54.51589	23.59643	0	-131.81454	-80.55333	-57.77057	0
416	-45.56552	-181.44841	-136.69656	111.47279	44.75185	-158.66565	59.39791	23.59643	0	-134.25555	-87.87636	-60.21158	0
417	-52.88855	-186.33043	-134.25555	118.79582	39.86983	-161.10666	66.72094	23.59643	-2.44101	-136.69656	-92.75838	-67.53461	0
418	-60.21158	-193.65346	-134.25555	126.11885	37.42882	-163.54767	74.04397	21.15542	-4.88202	-139.13757	-95.19939	-74.85764	0
419	-65.0936	-200.97649	-136.69656	131.00087	34.98781	-168.42969	81.367	21.15542	-9.76404	-144.01959	-97.6404	-79.73966	0
420	-69.97562	-208.29952	-139.13757	138.3239	34.98781	-173.31171	88.69003	21.15542	-17.08707	-151.34262	-100.08141	-87.06269	0
421	-72.41663	-218.06356	-146.4606	143.20592	37.42882	-183.07575	91.13104	18.71441	-24.4101	-156.22464	-107.40444	-91.94471	0
422	-77.29865	-230.26861	-153.78363	152.96996	37.42882	-192.83979	93.57205	18.71441	-31.73313	-161.10666	-114.72747	-101.70875	0
423	-84.62168	-242.47366	-158.66565	162.734	37.42882	-200.16282	91.13104	13.83239	-36.61515	-170.8707	-122.0505	-111.47279	0
424	-87.06269	-252.2377	-165.98868	167.61602	39.86983	-209.92686	88.69003	8.95037	-39.05616	-178.19373	-131.81454	-118.79582	0
425	-89.5037	-254.67871	-165.98868	170.05703	37.42882	-209.92686	88.69003	6.50936	-39.05616	-185.51676	-139.13757	-126.11885	0
426	-94.38572	-259.56073	-165.98868	174.93905	34.98781	-212.36787	91.13104	4.06835	-41.49717	-190.39878	-146.4606	-131.00087	-1500	QRS-0
427	-94.38572	-259.56073	-165.98868	174.93905	34.98781	-212.36787	96.01306	4.06835	-43.93818	-190.39878	-151.34262	-133.44188	0
428	-96.82673	-259.56073	-163.54767	177.38006	32.5468	-212.36787	100.89508	4.06835	-46.37919	-192.83979	-151.34262	-138.3239	0
429	-91.94471	-254.67871	-163.54767	172.49804	34.98781	-209.92686	105.7771	4.06835	-48.8202	-192.83979	-151.34262	-138.3239	0
430	-89.5037	-254.67871	-165.98868	170.05703	37.42882	-209.92686	108.21811	4.06835	-48.8202	-192.83979	-148.90161	-138.3239	0
431	-89.5037	-254.67871	-165.98868	170.05703	37.42882	-209.92686	108.21811	6.50936	-53.70222	-192.83979	-148.90161	-138.3239	0
432	-89.5037	-257.11972	-168.42969	172.49804	39.86983	-212.36787	105.7771	8.95037	-58.58424	-190.39878	-148.90161	-138.3239	0
433	-87.06269	-257.11972	-170.8707	170.05703	42.31084	-214.80888	103.33609	8.95037	-56.14323	-190.39878	-148.90161	-140.76491	0
434	-82.18067	-254.67871	-173.31171	167.61602	44.75185	-214.80888	98.45407	8.95037	-53.70222	-190.39878	-148.90161	-140.76491	0
435	-82.18067	-252.2377	-170.8707	165.17501	44.75185	-212.36787	96.01306	8.95037	-48.8202	-192.83979	-151.34262	-140.76491	0
436	-82.18067	-252.2377	-170.8707	165.17501	44.75185	-212.36787	96.01306	6.50936	-48.8202	-192.83979	-153.78363	-140.76491	0
437	-84.62168	-249.79669	-165.98868	165.17501	39.86983	-207.48585	98.45407	6.50936	-48.8202	-192.83979	-153.78363	-140.76491	0
438	-84.62168	-249.79669	-165.98868	165.17501	39.86983	-207.48585	103.33609	6.50936	-51.26121	-192.83979	-153.78363	-140.76491	0
439	-82.18067	-249.79669	-168.42969	165.17501	42.31084	-209.92686	105.7771	6.50936	-51.26121	-192.83979	-151.34262	-140.76491	0
440	-82.18067	-249.79669	-168.42969	165.17501	42.31084	-209.92686	110.65912	6.50936	-53.70222	-192.83979	-148.90161	-138.3239	0
441	-82.18067	-252.2377	-170.8707	165.17501	44.75185	-212.36787	110.65912	8.95037	-58.58424	-192.83979	-148.90161	-138.3239	0
442	-82.18067	-252.2377	-170.8707	165.17501	44.75185	-212.36787	113.10013	11.39138	-61.02525	-190.39878	-148.90161	-138.3239	0
443	-79.73966	-252.2377	-173.31171	165.17501	47.19286	-212.36787	110.65912	11.39138	-58.58424	-190.39878	-146.4606	-138.3239	0
444	-74.85764	-249.79669	-175.75272	160.29299	49.63387	-212.36787	108.21811	11.39138	-56.14323	-190.39878	-148.90161	-138.3239	0
445	-74.85764	-247.35568	-173.31171	160.29299	49.63387	-209.92686	108.21811	11.39138	-51.26121	-192.83979	-151.34262	-138.3239	0
446	-77.29865	-247.35568	-170.8707	160.29299	47.19286	-209.92686	108.21811	11.39138	-51.26121	-192.83979	-153.78363	-138.3239	0
447	-82.18067	-247.35568	-165.98868	162.734	42.31084	-207.48585	110.65912	11.39138	-53.70222	-187.95777	-156.22464	-138.3239	0
448	-82.18067	-247.35568	-165.98868	162.734	42.31084	-207.48585	113.10013	11.39138	-56.14323	-187.95777	-156.22464	-140.76491	0
449	-84.62168	-247.35568	-163.54767	165.17501	39.86983	-205.04484	115.54114	11.39138	-58.58424	-187.95777	-156.22464	-140.76491	0
450	-87.06269	-244.91467	-158.66565	165.17501	34.98781	-202.60383	115.54114	11.39138	-61.02525	-185.51676	-151.34262	-138.3239	0
451	-87.06269	-244.91467	-158.66565	165.17501	34.98781	-202.60383	115.54114	13.83239	-65.90727	-185.51676	-151.34262	-138.3239	0
452	-84.62168	-244.91467	-161.10666	162.734	37.42882	-202.60383	115.54114	16.2734	-68.34828	-185.51676	-151.34262	-138.3239	0
453	-79.73966	-242.47366	-163.54767	160.29299	42.31084	-202.60383	113.10013	16.2734	-65.90727	-185.51676	-148.90161	-140.76491	0
454	-77.29865	-237.59164	-161.10666	155.41097	42.31084	-200.16282	110.65912	16.2734	-61.02525	-185.51676	-148.90161	-140.76491	0
455	-77.29865	-235.15063	-158.66565	155.41097	39.86983	-197.72181	108.21811	16.2734	-58.58424	-185.51676	-151.34262	-138.3239	0
456	-77.29865	-232.70962	-156.22464	152.96996	39.86983	-195.2808	108.21811	13.83239	-56.14323	-185.51676	-153.78363	-138.3239	0
457	-77.29865	-232.70962	-156.22464	152.96996	39.86983	-195.2808	110.65912	11.39138	-58.58424	-180.63474	-153.78363	-138.3239	0
458	-82.18067	-232.70962	-151.34262	155.41097	34.98781	-192.83979	110.65912	6.50936	-58.58424	-178.19373	-156.22464	-138.3239	0
459	-82.18067	-232.70962	-151.34262	155.41097	34.98781	-192.83979	113.10013	6.50936	-61.02525	-178.19373	-156.22464	-138.3239	0
460	-82.18067	-232.70962	-151.34262	155.41097	34.98781	-192.83979	113.10013	4.06835	-63.46626	-173.31171	-153.78363	-138.3239	0
461	-82.18067	-232.70962	-151.34262	155.41097	34.98781	-192.83979	110.65912	4.06835	-68.34828	-170.8707	-153.78363	-135.88289	0
462	-77.29865	-230.26861	-153.78363	152.96996	37.42882	-192.83979	108.21811	6.50936	-68.34828	-165.98868	-151.34262	-133.44188	0
463	-72.41663	-230.26861	-158.66565	150.52895	42.31084	-195.2808	105.7771	6.50936	-65.90727	-163.54767	-151.34262	-133.44188	0
464	-67.53461	-230.26861	-163.54767	148.08794	47.19286	-197.72181	103.33609	6.50936	-61.02525	-161.10666	-151.34262	-133.44188	0
465	-67.53461	-227.8276	-161.10666	145.64693	47.19286	-195.2808	98.45407	6.50936	-56.14323	-161.10666	-151.34262	-133.44188	0
466	-67.53461	-225.38659	-158.66565	145.64693	44.75185	-192.83979	98.45407	4.06835	-56.14323	-161.10666	-151.34262	-133.44188	0
467	-67.53461	-225.38659	-158.66565	145.64693	44.75185	-192.83979	98.45407	1.62734	-56.14323	-158.66565	-153.78363	-133.44188	0
468	-69.97562	-225.38659	-156.22464	145.64693	42.31084	-190.39878	100.89508	-0.81367	-56.14323	-156.22464	-153.78363	-133.44188	0
469	-69.97562	-225.38659	-156.22464	145.64693	42.31084	-190.39878	103.33609	-3.25468	-58.58424	-156.22464	-153.78363	-135.88289	0
470	-67.53461	-225.38659	-158.66565	145.64693	44.75185	-192.83979	103.33609	-3.25468	-61.02525	-156.22464	-151.34262	-133.44188	0
471	-67.53461	-225.38659	-158.66565	145.64693	44.75185	-192.83979	103.33609	-3.25468	-65.90727	-156.22464	-151.34262	-133.44188	0
472	-65.0936	-222.94558	-158.66565	143.20592	47.19286	-190.39878	103.33609	-3.25468	-65.90727	-153.78363	-148.90161	-133.44188	0
473	-62.65259	-222.94558	-161.10666	140.76491	49.63387	-192.83979	98.45407	-0.81367	-63.46626	-153.78363	-148.90161	-133.44188	0
474	-60.21158	-220.50457	-161.10666	138.3239	49.63387	-190.39878	96.01306	-0.81367	-61.02525	-153.78363	-148.90161	-133.44188	0
475	-60.21158	-218.06356	-158.66565	138.3239	49.63387	-187.95777	96.01306	-0.81367	-53.70222	-153.78363	-148.90161	-133.44188	0
476	-60.21158	-213.18154	-153.78363	135.88289	47.19286	-183.07575	93.57205	-0.81367	-53.70222	-153.78363	-151.34262	-133.44188	0
477	-60.21158	-210.74053	-151.34262	133.44188	44.75185	-180.63474	96.01306	-3.25468	-53.70222	-151.34262	-151.34262	-133.44188	0
478	-60.21158	-210.74053	-151.34262	133.44188	44.75185	-180.63474	98.45407	-5.69569	-53.70222	-151.34262	-151.34262	-133.44188	0
479	-55.32956	-210.74053	-156.22464	131.00087	49.63387	-183.07575	100.89508	-5.69569	-56.14323	-151.34262	-148.90161	-131.00087	0
480	-52.88855	-210.74053	-158.66565	131.00087	52.07488	-185.51676	100.89508	-5.69569	-56.14323	-148.90161	-144.01959	-128.55986	0
481	-52.88855	-210.74053	-158.66565	131.00087	52.07488	-185.51676	100.89508	-3.25468	-61.02525	-146.4606	-144.01959	-123.67784	0
482	-48.00653	-210.74053	-163.54767	128.55986	56.9569	-187.95777	100.89508	-0.81367	-61.02525	-144.01959	-141.57858	-121.23683	0
483	-48.00653	-210.74053	-163.54767	128.55986	56.9569	-187.95777	98.45407	1.62734	-56.14323	-141.57858	-139.13757	-118.79582	0
484	-45.56552	-208.29952	-163.54767	126.11885	59.39791	-185.51676	96.01306	4.06835	-51.26121	-139.13757	-136.69656	-116.35481	0
485	-48.00653	-208.29952	-161.10666	126.11885	56.9569	-185.51676	93.57205	6.50936	-46.37919	-139.13757	-134.25555	-113.9138	0
486	-55.32956	-208.29952	-153.78363	131.00087	49.63387	-180.63474	93.57205	6.50936	-43.93818	-136.69656	-131.81454	-111.47279	0
487	-57.77057	-203.4175	-146.4606	128.55986	44.75185	-175.75272	98.45407	6.50936	-41.49717	-134.25555	-131.81454	-109.03178	0
488	-57.77057	-203.4175	-146.4606	128.55986	44.75185	-175.75272	100.89508	6.50936	-41.49717	-131.81454	-129.37353	-106.59077	0
489	-57.77057	-200.97649	-144.01959	128.55986	42.31084	-173.31171	100.89508	4.06835	-41.49717	-131.81454	-124.49151	-101.70875	0
490	-57.77057	-203.4175	-146.4606	128.55986	44.75185	-175.75272	103.33609	4.06835	-41.49717	-129.37353	-122.0505	-96.82673	0
491	-57.77057	-203.4175	-146.4606	128.55986	44.75185	-175.75272	103.33609	6.50936	-43.93818	-126.93252	-119.60949	-94.38572	0
492	-52.88855	-203.4175	-151.34262	126.11885	49.63387	-178.19373	100.89508	8.95037	-43.93818	-122.0505	-117.16848	-89.5037	0
493	-48.00653	-200.97649	-153.78363	123.67784	52.07488	-178.19373	98.45407	11.39138	-39.05616	-122.0505	-114.72747	-87.06269	0
494	-48.00653	-200.97649	-153.78363	123.67784	52.07488	-178.19373	98.45407	13.83239	-31.73313	-117.16848	-114.72747	-84.62168	0
495	-50.44754	-200.97649	-151.34262	123.67784	49.63387	-175.75272	98.45407	18.71441	-21.96909	-117.16848	-114.72747	-84.62168	0
496	-57.77057	-200.97649	-144.01959	128.55986	42.31084	-173.31171	108.21811	26.85111	-14.64606	-117.16848	-124.49151	-94.38572	0
497	-69.97562	-203.4175	-134.25555	135.88289	32.5468	-168.42969	125.30518	43.93818	-4.88202	-117.16848	-139.13757	-111.47279	0
498	-79.73966	-208.29952	-129.37353	143.20592	25.22377	-168.42969	147.27427	65.90727	13.01872	-117.16848	-151.34262	-133.44188	0
499	-87.06269	-220.50457	-134.25555	152.96996	22.78276	-178.19373	171.68437	97.6404	34.98781	-114.72747	-158.66565	-155.41097	0
500	-94.38572	-235.15063	-141.57858	162.734	22.78276	-187.95777	196.09447	131.81454	61.83892	-100.08141	-156.22464	-170.05703	0
501	-96.82673	-242.47366	-146.4606	167.61602	25.22377	-195.2808	205.85851	148.90161	76.48498	-90.31737	-151.34262	-172.49804	0
502	-94.38572	-252.2377	-158.66565	172.49804	32.5468	-205.04484	220.50457	195.2808	120.42316	-48.8202	-122.0505	-162.734	0
503	-74.85764	-257.11972	-183.07575	165.17501	54.51589	-219.6909	225.38659	251.42403	188.77144	20.34175	-53.70222	-121.23683	0
504	-35.80148	-252.2377	-217.24989	143.20592	91.13104	-234.33696	215.62255	312.44928	281.52982	135.06922	66.72094	-32.5468	0
505	18.71441	-237.59164	-256.30605	109.03178	137.51023	-246.54201	183.88942	361.26948	384.05224	288.85285	244.91467	113.9138	0
506	89.5037	-210.74053	-300.24423	60.21158	193.65346	-253.86504	130.1872	390.5616	479.25163	469.48759	464.60557	311.63561	0
507	182.26208	-166.80235	-349.06443	-8.95037	264.44275	-256.30605	54.51589	395.44362	559.80496	676.97344	728.23465	558.17762	0
508	292.10753	-105.7771	-397.88463	-94.38572	344.99608	-251.42403	-41.49717	368.59251	618.3892	901.54636	1028.47888	853.53983	0
509	416.59904	-27.66478	-444.26382	-194.46713	430.43143	-234.33696	-156.22464	295.36221	635.47627	1116.35524	1343.36917	1178.19416	0
510	541.09055	63.46626	-478.43796	-301.87157	510.98476	-207.48585	-283.15716	180.63474	608.62516	1316.51806	1657.44579	1522.37657	0
511	660.70004	163.54767	-497.96604	-411.71702	579.33304	-165.98868	-417.41271	31.73313	528.07183	1467.86068	1930.83891	1843.77622	0
512	768.10448	270.95211	-497.96604	-519.12146	633.03526	-112.28646	-541.90422	-130.1872	413.34436	1565.50108	2135.88375	2117.16934	0
513	853.53983	373.47453	-480.87897	-614.32085	667.2094	-53.70222	-654.19068	-291.29386	283.97083	1602.11623	2260.37526	2312.45014	0
514	907.24205	458.90988	-449.14584	-682.66913	679.41445	5.69569	-744.50805	-445.07749	137.51023	1558.17805	2270.1393	2400.3265	0
515	926.77013	515.05311	-412.53069	-721.72529	669.65041	52.07488	-798.21027	-569.569	-4.88202	1443.45058	2167.61688	2371.03438	0
516	899.91902	534.58119	-366.1515	-716.84327	633.03526	86.24902	-815.29734	-672.09142	-158.66565	1248.16978	1943.04396	2222.13277	0
517	831.57074	527.25816	-305.12625	-680.22812	569.569	113.10013	-795.76926	-764.8498	-324.65433	982.09969	1615.94862	1968.26773	0
518	729.04832	495.52503	-234.33696	-611.87984	481.69264	132.62821	-751.83108	-840.52111	-488.202	669.65041	1221.31867	1641.17239	0
519	602.1158	446.70483	-156.22464	-524.00348	379.17022	147.27427	-681.04179	-906.42838	-646.86765	327.90901	789.2599	1275.83456	0
520	462.97823	380.79756	-82.99434	-421.48106	274.20679	149.71528	-585.8424	-945.48454	-783.56421	0.81367	371.84719	912.12407	0
521	323.84066	310.00827	-14.64606	-316.51763	169.24336	149.71528	-483.31998	-957.68959	-878.7636	-268.5111	22.78276	594.79277	0
522	199.34915	244.101	44.75185	-221.31824	78.92599	144.83326	-390.5616	-950.36656	-937.34784	-473.55594	-248.98302	331.16369	0
523	99.26774	190.39878	91.13104	-145.64693	5.69569	142.39225	-305.12625	-913.75141	-942.22986	-600.48846	-434.49978	135.88289	0
524	26.03744	146.4606	120.42316	-87.06269	-46.37919	135.06922	-229.45494	-847.84414	-898.29168	-656.63169	-537.0222	1.62734	0
525	-21.15542	109.84545	130.1872	-45.56552	-75.67131	120.42316	-165.98868	-755.08576	-805.5333	-639.54462	-556.55028	-69.97562	0
526	-45.56552	82.99434	127.74619	-18.71441	-85.43535	105.7771	-122.0505	-647.68132	-685.92381	-568.75533	-517.49412	-96.82673	0
527	-57.77057	73.2303	130.1872	-8.95037	-92.75838	100.89508	-87.87636	-547.59991	-576.07836	-485.76099	-461.35089	-99.26774	0
528	-62.65259	68.34828	130.1872	-4.06835	-95.19939	98.45407	-63.46626	-459.72355	-478.43796	-412.53069	-405.20766	-91.94471	0
529	-60.21158	68.34828	127.74619	-4.06835	-92.75838	98.45407	-51.26121	-384.05224	-393.00261	-346.62342	-353.94645	-74.85764	0
530	-55.32956	63.46626	117.98215	-4.06835	-85.43535	91.13104	-43.93818	-320.58598	-324.65433	-292.9212	-307.56726	-60.21158	0
531	-52.88855	56.14323	108.21811	-1.62734	-80.55333	81.367	-39.05616	-269.32477	-275.83413	-253.86504	-275.83413	-49.63387	0
532	-50.44754	48.8202	98.45407	0.81367	-73.2303	74.04397	-31.73313	-235.15063	-244.101	-229.45494	-256.30605	-44.75185	0
533	-48.00653	39.05616	86.24902	3.25468	-65.90727	61.83892	-29.29212	-210.74053	-222.13191	-214.80888	-246.54201	-44.75185	0
534	-48.00653	29.29212	76.48498	8.1367	-61.02525	52.07488	-26.85111	-196.09447	-207.48585	-207.48585	-241.65999	-49.63387	0
535	-48.00653	21.96909	69.16195	10.57771	-58.58424	44.75185	-24.4101	-188.77144	-195.2808	-205.04484	-241.65999	-54.51589	0
536	-52.88855	19.52808	71.60296	16.2734	-61.02525	44.75185	-21.96909	-183.88942	-190.39878	-207.48585	-244.101	-60.21158	0
537	-57.77057	14.64606	71.60296	21.15542	-63.46626	42.31084	-14.64606	-183.88942	-190.39878	-209.92686	-251.42403	-67.53461	0
538	-65.0936	14.64606	78.92599	23.59643	-70.78929	47.19286	-9.76404	-186.33043	-190.39878	-209.92686	-256.30605	-77.29865	0
539	-65.0936	12.20505	76.48498	26.03744	-70.78929	44.75185	-4.88202	-186.33043	-190.39878	-212.36787	-256.30605	-82.18067	0
540	-67.53461	12.20505	78.92599	26.03744	-73.2303	44.75185	-2.44101	-186.33043	-195.2808	-212.36787	-256.30605	-87.06269	0
541	-69.97562	9.76404	78.92599	28.47845	-73.2303	44.75185	0	-186.33043	-197.72181	-212.36787	-256.30605	-87.06269	0
542	-69.97562	9.76404	78.92599	28.47845	-73.2303	44.75185	0	-186.33043	-200.16282	-214.80888	-256.30605	-91.94471	0
543	-67.53461	9.76404	76.48498	28.47845	-70.78929	42.31084	-2.44101	-183.88942	-197.72181	-212.36787	-256.30605	-94.38572	0
544	-65.0936	7.32303	71.60296	28.47845	-68.34828	39.86983	-2.44101	-181.44841	-195.2808	-214.80888	-256.30605	-96.82673	0
545	-65.0936	7.32303	71.60296	28.47845	-68.34828	39.86983	-4.88202	-181.44841	-190.39878	-214.80888	-256.30605	-99.26774	0
546	-67.53461	7.32303	74.04397	28.47845	-70.78929	39.86983	-7.32303	-179.0074	-185.51676	-217.24989	-256.30605	-99.26774	0
547	-72.41663	7.32303	78.92599	30.91946	-75.67131	42.31084	-7.32303	-179.0074	-185.51676	-217.24989	-258.74706	-101.70875	0
548	-74.85764	7.32303	81.367	33.36047	-78.11232	44.75185	-4.88202	-179.0074	-185.51676	-217.24989	-258.74706	-104.14976	0
549	-74.85764	7.32303	81.367	33.36047	-78.11232	44.75185	-2.44101	-176.56639	-185.51676	-219.6909	-256.30605	-104.14976	0
550	-74.85764	9.76404	83.80801	30.91946	-78.11232	47.19286	0	-174.12538	-187.95777	-219.6909	-253.86504	-104.14976	0
551	-74.85764	9.76404	83.80801	30.91946	-78.11232	47.19286	0	-171.68437	-190.39878	-222.13191	-251.42403	-101.70875	0
552	-74.85764	12.20505	86.24902	30.91946	-80.55333	49.63387	-2.44101	-171.68437	-195.2808	-222.13191	-248.98302	-101.70875	0
553	-69.97562	12.20505	81.367	28.47845	-75.67131	47.19286	-7.32303	-169.24336	-195.2808	-219.6909	-246.54201	-101.70875	0
554	-69.97562	14.64606	83.80801	26.03744	-75.67131	49.63387	-12.20505	-166.80235	-192.83979	-224.57292	-246.54201	-104.14976	0
555	-67.53461	17.08707	83.80801	23.59643	-75.67131	49.63387	-14.64606	-166.80235	-187.95777	-224.57292	-246.54201	-104.14976	0
556	-67.53461	21.96909	88.69003	21.15542	-78.11232	54.51589	-17.08707	-166.80235	-185.51676	-224.57292	-246.54201	-104.14976	0
557	-69.97562	24.4101	93.57205	21.15542	-80.55333	59.39791	-19.52808	-169.24336	-185.51676	-224.57292	-248.98302	-104.14976	0
558	-72.41663	29.29212	100.89508	21.15542	-85.43535	64.27993	-19.52808	-169.24336	-187.95777	-224.57292	-251.42403	-106.59077	0
559	-72.41663	31.73313	103.33609	18.71441	-87.87636	66.72094	-17.08707	-171.68437	-187.95777	-224.57292	-248.98302	-106.59077	0
560	-72.41663	34.17414	105.7771	18.71441	-87.87636	69.16195	-14.64606	-171.68437	-190.39878	-224.57292	-244.101	-106.59077	0
561	-67.53461	39.05616	105.7771	13.83239	-85.43535	71.60296	-14.64606	-171.68437	-192.83979	-222.13191	-239.21898	-101.70875	0
562	-67.53461	41.49717	108.21811	10.57771	-87.87636	74.04397	-17.08707	-171.68437	-195.2808	-217.24989	-239.21898	-101.70875	0
563	-65.0936	43.93818	108.21811	10.57771	-85.43535	76.48498	-19.52808	-169.24336	-197.72181	-217.24989	-236.77797	-101.70875	0
564	-65.0936	43.93818	108.21811	10.57771	-85.43535	76.48498	-24.4101	-169.24336	-195.2808	-217.24989	-236.77797	-104.14976	0
565	-62.65259	46.37919	108.21811	8.1367	-85.43535	76.48498	-29.29212	-171.68437	-190.39878	-214.80888	-236.77797	-104.14976	0
566	-67.53461	48.8202	115.54114	8.1367	-90.31737	81.367	-31.73313	-174.12538	-187.95777	-214.80888	-239.21898	-106.59077	0
567	-72.41663	51.26121	122.86417	10.57771	-97.6404	86.24902	-31.73313	-174.12538	-187.95777	-212.36787	-241.65999	-106.59077	0
568	-79.73966	51.26121	130.1872	13.83239	-104.96343	91.13104	-31.73313	-176.56639	-190.39878	-209.92686	-241.65999	-109.03178	0
569	-79.73966	53.70222	132.62821	10.57771	-104.96343	93.57205	-29.29212	-179.0074	-190.39878	-207.48585	-241.65999	-109.03178	0
570	-79.73966	56.14323	135.06922	10.57771	-107.40444	96.01306	-29.29212	-181.44841	-192.83979	-202.60383	-236.77797	-106.59077	0
571	-79.73966	58.58424	137.51023	10.57771	-107.40444	98.45407	-29.29212	-183.88942	-195.2808	-202.60383	-234.33696	-106.59077	0
572	-79.73966	63.46626	142.39225	8.1367	-109.84545	103.33609	-31.73313	-183.88942	-200.16282	-197.72181	-231.89595	-106.59077	0
573	-74.85764	68.34828	142.39225	3.25468	-107.40444	105.7771	-36.61515	-186.33043	-200.16282	-192.83979	-231.89595	-104.14976	0
574	-67.53461	73.2303	139.95124	-4.06835	-102.52242	105.7771	-39.05616	-188.77144	-197.72181	-192.83979	-231.89595	-104.14976	0
575	-65.0936	78.11232	142.39225	-6.50936	-102.52242	110.65912	-43.93818	-191.21245	-192.83979	-192.83979	-231.89595	-104.14976	0
576	-67.53461	82.99434	149.71528	-8.95037	-107.40444	115.54114	-43.93818	-193.65346	-190.39878	-190.39878	-231.89595	-106.59077	0
577	-69.97562	87.87636	157.03831	-8.95037	-112.28646	122.86417	-46.37919	-196.09447	-190.39878	-185.51676	-234.33696	-106.59077	0
578	-72.41663	92.75838	164.36134	-11.39138	-117.16848	127.74619	-46.37919	-198.53548	-190.39878	-180.63474	-234.33696	-106.59077	0
579	-72.41663	95.19939	166.80235	-11.39138	-119.60949	130.1872	-46.37919	-200.97649	-192.83979	-178.19373	-231.89595	-106.59077	0
580	-72.41663	95.19939	166.80235	-11.39138	-119.60949	130.1872	-46.37919	-205.85851	-195.2808	-173.31171	-227.01393	-106.59077	0
581	-74.85764	97.6404	171.68437	-11.39138	-122.0505	135.06922	-46.37919	-205.85851	-200.16282	-170.8707	-224.57292	-106.59077	0
582	-72.41663	102.52242	174.12538	-16.2734	-122.0505	137.51023	-51.26121	-205.85851	-202.60383	-165.98868	-224.57292	-104.14976	0
583	-67.53461	104.96343	171.68437	-18.71441	-119.60949	137.51023	-56.14323	-205.85851	-202.60383	-163.54767	-222.13191	-104.14976	0
584	-67.53461	107.40444	174.12538	-21.15542	-119.60949	139.95124	-61.02525	-208.29952	-202.60383	-163.54767	-222.13191	-104.14976	0
585	-67.53461	109.84545	176.56639	-21.15542	-122.0505	142.39225	-63.46626	-208.29952	-197.72181	-161.10666	-222.13191	-104.14976	0
586	-67.53461	114.72747	181.44841	-23.59643	-124.49151	147.27427	-65.90727	-208.29952	-192.83979	-158.66565	-222.13191	-101.70875	0
587	-69.97562	117.16848	186.33043	-23.59643	-126.93252	152.15629	-65.90727	-210.74053	-190.39878	-153.78363	-222.13191	-99.26774	0
588	-72.41663	119.60949	191.21245	-23.59643	-131.81454	154.5973	-63.46626	-213.18154	-190.39878	-151.34262	-222.13191	-99.26774	0
589	-69.97562	124.49151	193.65346	-28.47845	-131.81454	159.47932	-61.02525	-213.18154	-187.95777	-146.4606	-217.24989	-94.38572	0
590	-69.97562	129.37353	198.53548	-30.91946	-134.25555	164.36134	-58.58424	-213.18154	-187.95777	-141.57858	-212.36787	-91.94471	0
591	-67.53461	134.25555	200.97649	-33.36047	-134.25555	166.80235	-58.58424	-210.74053	-187.95777	-136.69656	-207.48585	-87.06269	0
592	-62.65259	136.69656	198.53548	-38.24249	-129.37353	166.80235	-61.02525	-210.74053	-190.39878	-131.81454	-205.04484	-84.62168	0
593	-60.21158	141.57858	200.97649	-40.6835	-129.37353	171.68437	-63.46626	-208.29952	-187.95777	-126.93252	-202.60383	-82.18067	0
594	-57.77057	144.01959	200.97649	-43.12451	-129.37353	171.68437	-68.34828	-208.29952	-185.51676	-126.93252	-200.16282	-79.73966	0
595	-55.32956	148.90161	203.4175	-48.00653	-129.37353	176.56639	-73.2303	-205.85851	-178.19373	-122.0505	-200.16282	-77.29865	0
596	-57.77057	151.34262	208.29952	-48.00653	-131.81454	179.0074	-73.2303	-205.85851	-170.8707	-119.60949	-197.72181	-74.85764	0
597	-62.65259	153.78363	215.62255	-45.56552	-139.13757	183.88942	-73.2303	-205.85851	-168.42969	-114.72747	-195.2808	-69.97562	0
598	-65.0936	158.66565	222.94558	-48.00653	-144.01959	191.21245	-70.78929	-203.4175	-163.54767	-109.84545	-192.83979	-67.53461	0
599	-65.0936	163.54767	227.8276	-50.44754	-146.4606	196.09447	-68.34828	-200.97649	-158.66565	-102.52242	-185.51676	-65.0936	0
600	-65.0936	165.98868	230.26861	-50.44754	-146.4606	198.53548	-63.46626	-198.53548	-156.22464	-97.6404	-178.19373	-57.77057	0
601	-65.0936	170.8707	235.15063	-52.88855	-148.90161	203.4175	-63.46626	-193.65346	-153.78363	-92.75838	-168.42969	-52.07488	0
602	-65.0936	173.31171	237.59164	-55.32956	-151.34262	205.85851	-63.46626	-188.77144	-151.34262	-82.99434	-163.54767	-44.75185	0
603	-60.21158	178.19373	237.59164	-60.21158	-148.90161	208.29952	-68.34828	-183.88942	-144.01959	-75.67131	-158.66565	-39.86983	0
604	-57.77057	180.63474	237.59164	-62.65259	-146.4606	208.29952	-73.2303	-179.0074	-136.69656	-70.78929	-153.78363	-34.98781	0
605	-55.32956	183.07575	237.59164	-65.0936	-146.4606	210.74053	-75.67131	-176.56639	-126.93252	-65.90727	-148.90161	-27.66478	0
606	-55.32956	187.95777	242.47366	-67.53461	-148.90161	215.62255	-78.11232	-171.68437	-117.16848	-58.58424	-141.57858	-20.34175	0
607	-55.32956	192.83979	247.35568	-69.97562	-151.34262	220.50457	-78.11232	-166.80235	-109.84545	-48.8202	-139.13757	-15.45973	0
608	-57.77057	195.2808	252.2377	-69.97562	-153.78363	222.94558	-73.2303	-159.47932	-102.52242	-41.49717	-131.81454	-10.57771	0
609	-57.77057	200.16282	257.11972	-72.41663	-156.22464	227.8276	-70.78929	-154.5973	-92.75838	-30.91946	-122.0505	-3.25468	0
610	-55.32956	202.60383	257.11972	-74.85764	-156.22464	230.26861	-65.90727	-147.27427	-87.87636	-21.15542	-109.84545	4.06835	0
611	-52.88855	207.48585	259.56073	-77.29865	-156.22464	232.70962	-65.90727	-137.51023	-80.55333	-11.39138	-100.08141	13.83239	0
612	-52.88855	207.48585	259.56073	-77.29865	-156.22464	232.70962	-65.90727	-127.74619	-73.2303	0.81367	-87.87636	23.59643	0
613	-50.44754	209.92686	259.56073	-79.73966	-153.78363	235.15063	-65.90727	-120.42316	-61.02525	10.57771	-80.55333	30.91946	0
614	-48.00653	212.36787	259.56073	-82.18067	-153.78363	235.15063	-68.34828	-110.65912	-48.8202	20.34175	-70.78929	38.24249	0
615	-45.56552	214.80888	259.56073	-84.62168	-151.34262	237.59164	-70.78929	-103.33609	-34.17414	30.10579	-61.02525	45.56552	0
616	-50.44754	217.24989	266.88376	-84.62168	-158.66565	242.47366	-73.2303	-93.57205	-19.52808	39.86983	-53.70222	55.32956	0
617	-50.44754	219.6909	269.32477	-84.62168	-158.66565	244.91467	-73.2303	-83.80801	-7.32303	52.07488	-43.12451	65.0936	0
618	-50.44754	227.01393	276.6478	-89.5037	-163.54767	252.2377	-70.78929	-74.04397	7.32303	66.72094	-33.36047	72.41663	0
619	-45.56552	234.33696	279.08881	-94.38572	-161.10666	257.11972	-65.90727	-61.83892	17.90074	81.367	-18.71441	82.18067	0
620	-40.6835	244.101	283.97083	-101.70875	-161.10666	264.44275	-63.46626	-49.63387	32.5468	96.01306	-1.62734	96.82673	0
621	-33.36047	251.42403	283.97083	-109.03178	-158.66565	266.88376	-63.46626	-34.98781	44.75185	110.65912	15.45973	109.03178	0
622	-26.03744	258.74706	283.97083	-116.35481	-153.78363	271.76578	-61.02525	-20.34175	56.9569	127.74619	30.10579	121.23683	0
623	-18.71441	263.62908	281.52982	-123.67784	-148.90161	271.76578	-63.46626	-8.1367	74.04397	144.83326	44.75185	133.44188	0
624	-16.2734	266.07009	281.52982	-126.11885	-148.90161	274.20679	-65.90727	4.06835	91.13104	159.47932	56.9569	143.20592	0
625	-13.01872	268.5111	281.52982	-128.55986	-146.4606	276.6478	-68.34828	18.71441	110.65912	174.12538	71.60296	152.96996	0
626	-10.57771	270.95211	281.52982	-131.00087	-146.4606	276.6478	-68.34828	29.29212	130.1872	191.21245	83.80801	165.17501	0
627	-8.1367	275.83413	283.97083	-133.44188	-146.4606	281.52982	-65.90727	41.49717	144.83326	210.74053	96.01306	174.93905	0
628	-5.69569	285.59817	291.29386	-140.76491	-148.90161	288.85285	-63.46626	56.14323	161.92033	227.8276	108.21811	184.70309	0
629	-0.81367	295.36221	296.17588	-148.08794	-148.90161	296.17588	-63.46626	68.34828	176.56639	244.91467	122.86417	194.46713	0
630	4.06835	312.44928	308.38093	-157.85198	-151.34262	310.82194	-63.46626	78.11232	188.77144	259.56073	137.51023	201.79016	0
631	11.39138	329.53635	318.14497	-170.05703	-153.78363	325.468	-65.90727	90.31737	198.53548	271.76578	152.15629	211.5542	0
632	18.71441	349.06443	330.35002	-184.70309	-156.22464	340.11406	-73.2303	102.52242	205.85851	283.97083	161.92033	218.87723	0
633	23.59643	363.71049	340.11406	-194.46713	-158.66565	352.31911	-80.55333	112.28646	218.06356	296.17588	171.68437	221.31824	0
634	26.03744	378.35655	352.31911	-201.79016	-163.54767	366.96517	-90.31737	122.0505	232.70962	303.49891	179.0074	223.75925	0
635	28.47845	388.12059	359.64214	-209.11319	-165.98868	374.2882	-95.19939	131.81454	247.35568	313.26295	188.77144	231.08228	0
636	30.91946	397.88463	366.96517	-213.99521	-168.42969	384.05224	-97.6404	144.01959	264.44275	325.468	198.53548	238.40531	0
637	30.91946	402.76665	371.84719	-216.43622	-170.8707	388.93426	-97.6404	158.66565	281.52982	340.11406	208.29952	245.72834	0
638	33.36047	407.64867	374.2882	-221.31824	-170.8707	391.37527	-92.75838	170.8707	296.17588	354.76012	220.50457	253.05137	0
639	38.24249	410.08968	371.84719	-223.75925	-165.98868	391.37527	-90.31737	185.51676	313.26295	369.40618	237.59164	260.3744	0
640	43.12451	414.9717	371.84719	-228.64127	-163.54767	393.81628	-85.43535	200.16282	327.90901	384.05224	252.2377	270.13844	0
641	50.44754	417.41271	366.96517	-233.52329	-158.66565	393.81628	-82.99434	217.24989	342.55507	398.6983	269.32477	279.90248	0
642	60.21158	419.85372	359.64214	-240.84632	-148.90161	391.37527	-80.55333	234.33696	357.20113	413.34436	283.97083	289.66652	0
643	67.53461	419.85372	352.31911	-243.28733	-141.57858	386.49325	-80.55333	248.98302	371.84719	425.54941	296.17588	296.98955	0
644	74.85764	419.85372	344.99608	-248.16935	-134.25555	384.05224	-80.55333	263.62908	391.37527	437.75446	308.38093	304.31258	0
645	82.18067	417.41271	335.23204	-250.61036	-126.93252	376.72921	-82.99434	275.83413	408.46234	447.5185	318.14497	311.63561	0
646	84.62168	414.9717	330.35002	-250.61036	-122.0505	374.2882	-80.55333	288.03918	425.54941	457.28254	327.90901	318.95864	0
647	84.62168	412.53069	327.90901	-248.16935	-122.0505	371.84719	-78.11232	297.80322	440.19547	469.48759	335.23204	323.84066	0
648	87.06269	407.64867	320.58598	-248.16935	-117.16848	364.52416	-73.2303	307.56726	449.95951	479.25163	344.99608	328.72268	0
649	91.94471	405.20766	313.26295	-248.16935	-109.84545	359.64214	-65.90727	317.3313	462.16456	491.45668	354.76012	331.16369	0
650	96.82673	400.32564	303.49891	-248.16935	-102.52242	352.31911	-61.02525	324.65433	467.04658	498.77971	366.96517	336.04571	0
651	104.14976	393.00261	288.85285	-248.16935	-92.75838	342.55507	-56.14323	329.53635	471.9286	506.10274	376.72921	340.92773	0
652	109.03178	385.67958	276.6478	-248.16935	-82.99434	332.79103	-53.70222	334.41837	474.36961	513.42577	384.05224	340.92773	0
653	116.35481	373.47453	257.11972	-245.72834	-70.78929	315.70396	-53.70222	336.85938	479.25163	518.30779	388.93426	340.92773	0
654	121.23683	361.26948	240.03265	-240.84632	-58.58424	301.0579	-53.70222	339.30039	481.69264	520.7488	388.93426	338.48672	0
655	121.23683	346.62342	225.38659	-233.52329	-51.26121	286.41184	-51.26121	336.85938	484.13365	520.7488	391.37527	338.48672	0
656	121.23683	329.53635	208.29952	-226.20026	-43.93818	269.32477	-48.8202	334.41837	484.13365	520.7488	391.37527	338.48672	0
657	118.79582	310.00827	191.21245	-213.99521	-36.61515	252.2377	-43.93818	329.53635	479.25163	518.30779	388.93426	333.6047	0
658	113.9138	290.48019	176.56639	-201.79016	-31.73313	235.15063	-39.05616	322.21332	471.9286	515.86678	384.05224	328.72268	0
659	113.9138	270.95211	157.03831	-192.02612	-21.96909	215.62255	-36.61515	317.3313	462.16456	508.54375	381.61123	323.84066	0
660	113.9138	251.42403	137.51023	-182.26208	-12.20505	196.09447	-31.73313	312.44928	452.40052	501.22072	376.72921	316.51763	0
661	113.9138	229.45494	115.54114	-172.49804	0.81367	174.12538	-31.73313	302.68524	440.19547	489.01567	366.96517	306.75359	0
662	109.03178	209.92686	100.89508	-160.29299	5.69569	157.03831	-31.73313	290.48019	423.1084	476.81062	357.20113	292.10753	0
663	106.59077	192.83979	86.24902	-150.52895	10.57771	139.95124	-34.17414	280.71615	413.34436	462.16456	342.55507	279.90248	0
664	101.70875	175.75272	74.04397	-138.3239	15.45973	125.30518	-31.73313	268.5111	401.13931	445.07749	325.468	265.25642	0
665	96.82673	158.66565	61.83892	-128.55986	17.90074	110.65912	-26.85111	253.86504	388.93426	427.99042	310.82194	250.61036	0
666	87.06269	141.57858	54.51589	-113.9138	17.90074	98.45407	-19.52808	239.21898	371.84719	410.90335	291.29386	235.9643	0
667	79.73966	126.93252	47.19286	-104.14976	17.90074	88.69003	-9.76404	224.57292	354.76012	391.37527	274.20679	218.87723	0
668	72.41663	112.28646	39.86983	-91.94471	17.90074	76.48498	-2.44101	212.36787	335.23204	371.84719	257.11972	204.23117	0
669	67.53461	97.6404	30.10579	-82.18067	20.34175	64.27993	2.44101	200.16282	313.26295	352.31911	240.03265	187.1441	0
670	60.21158	80.55333	20.34175	-69.97562	20.34175	52.07488	8.1367	187.95777	291.29386	332.79103	222.94558	170.05703	0
671	55.32956	63.46626	7.32303	-60.21158	25.22377	37.42882	10.57771	175.75272	271.76578	308.38093	203.4175	152.96996	0
672	50.44754	51.26121	0	-50.44754	25.22377	27.66478	10.57771	163.54767	249.79669	286.41184	183.88942	133.44188	0
673	45.56552	36.61515	-9.76404	-40.6835	27.66478	15.45973	8.1367	148.90161	235.15063	264.44275	161.92033	113.9138	0
674	35.80148	24.4101	-12.20505	-30.91946	25.22377	8.1367	10.57771	136.69656	222.94558	242.47366	137.51023	96.82673	0
675	26.03744	12.20505	-14.64606	-18.71441	20.34175	0	13.01872	122.0505	208.29952	222.94558	115.54114	77.29865	0
676	18.71441	0	-19.52808	-8.95037	20.34175	-9.76404	17.90074	107.40444	196.09447	203.4175	96.01306	60.21158	0
677	8.95037	-8.1367	-17.08707	-1.62734	13.01872	-12.20505	25.22377	95.19939	179.0074	186.33043	78.92599	45.56552	0
678	1.62734	-17.90074	-19.52808	8.1367	10.57771	-17.08707	30.10579	82.99434	164.36134	171.68437	61.83892	30.91946	0
679	-3.25468	-25.22377	-21.96909	13.83239	8.1367	-21.96909	34.98781	75.67131	149.71528	157.03831	49.63387	18.71441	0
680	-3.25468	-30.10579	-26.85111	16.2734	10.57771	-26.85111	39.86983	70.78929	135.06922	144.83326	42.31084	6.50936	0
681	-3.25468	-37.42882	-34.17414	18.71441	15.45973	-34.17414	39.86983	63.46626	122.86417	130.1872	32.5468	-3.25468	0
682	-5.69569	-44.75185	-39.05616	23.59643	15.45973	-41.49717	37.42882	58.58424	113.10013	120.42316	20.34175	-13.01872	0
683	-5.69569	-49.63387	-43.93818	26.03744	17.90074	-46.37919	34.98781	53.70222	108.21811	108.21811	10.57771	-22.78276	0
684	-10.57771	-54.51589	-43.93818	30.91946	15.45973	-48.8202	34.98781	46.37919	103.33609	96.01306	-4.06835	-30.10579	0
685	-16.2734	-59.39791	-43.93818	35.80148	13.01872	-51.26121	37.42882	39.05616	98.45407	86.24902	-13.83239	-39.86983	0
686	-18.71441	-61.83892	-43.93818	38.24249	13.01872	-53.70222	42.31084	34.17414	96.01306	78.92599	-23.59643	-47.19286	0
687	-23.59643	-61.83892	-39.05616	40.6835	8.1367	-51.26121	47.19286	26.85111	86.24902	71.60296	-33.36047	-52.07488	0
688	-28.47845	-64.27993	-36.61515	45.56552	3.25468	-51.26121	52.07488	23.59643	78.92599	66.72094	-35.80148	-57.77057	0
689	-28.47845	-64.27993	-36.61515	45.56552	3.25468	-51.26121	54.51589	23.59643	71.60296	61.83892	-40.6835	-62.65259	0
690	-28.47845	-64.27993	-36.61515	45.56552	3.25468	-51.26121	56.9569	23.59643	64.27993	56.9569	-40.6835	-65.0936	0
691	-23.59643	-66.72094	-43.93818	43.12451	10.57771	-56.14323	56.9569	23.59643	59.39791	52.07488	-40.6835	-67.53461	0
692	-23.59643	-69.16195	-46.37919	45.56552	10.57771	-58.58424	54.51589	21.15542	56.9569	49.63387	-45.56552	-72.41663	0
693	-23.59643	-74.04397	-51.26121	48.00653	13.01872	-63.46626	49.63387	21.15542	56.9569	44.75185	-48.00653	-77.29865	0
694	-23.59643	-76.48498	-53.70222	48.00653	15.45973	-65.90727	49.63387	18.71441	56.9569	39.86983	-53.70222	-79.73966	0
695	-26.03744	-78.92599	-53.70222	50.44754	13.01872	-65.90727	49.63387	13.83239	59.39791	37.42882	-58.58424	-84.62168	0
696	-30.91946	-81.367	-51.26121	55.32956	10.57771	-65.90727	49.63387	11.39138	59.39791	34.98781	-63.46626	-87.06269	0
697	-35.80148	-83.80801	-48.8202	57.77057	5.69569	-65.90727	54.51589	8.95037	54.51589	32.5468	-65.90727	-89.5037	0
698	-38.24249	-83.80801	-46.37919	60.21158	3.25468	-65.90727	56.9569	6.50936	52.07488	30.10579	-65.90727	-89.5037	0
699	-38.24249	-86.24902	-48.8202	60.21158	5.69569	-68.34828	59.39791	6.50936	47.19286	27.66478	-65.90727	-89.5037	0
700	-35.80148	-86.24902	-51.26121	60.21158	8.1367	-68.34828	59.39791	8.95037	42.31084	27.66478	-61.02525	-89.5037	0
701	-33.36047	-88.69003	-56.14323	60.21158	10.57771	-73.2303	59.39791	11.39138	42.31084	25.22377	-61.02525	-89.5037	0
702	-30.91946	-88.69003	-58.58424	57.77057	13.01872	-73.2303	56.9569	11.39138	39.86983	25.22377	-61.02525	-89.5037	0
703	-26.03744	-86.24902	-61.02525	55.32956	17.90074	-73.2303	52.07488	13.83239	42.31084	22.78276	-61.02525	-89.5037	0
704	-26.03744	-86.24902	-61.02525	55.32956	17.90074	-73.2303	52.07488	13.83239	44.75185	20.34175	-63.46626	-89.5037	0
705	-30.91946	-86.24902	-56.14323	57.77057	13.01872	-70.78929	52.07488	11.39138	49.63387	17.90074	-65.90727	-89.5037	0
706	-33.36047	-86.24902	-53.70222	57.77057	10.57771	-70.78929	56.9569	11.39138	49.63387	17.90074	-65.90727	-89.5037	0
707	-38.24249	-86.24902	-48.8202	60.21158	5.69569	-68.34828	61.83892	8.95037	49.63387	17.90074	-65.90727	-91.94471	0
708	-40.6835	-86.24902	-46.37919	62.65259	3.25468	-65.90727	61.83892	8.95037	44.75185	17.90074	-65.90727	-91.94471	0
709	-40.6835	-88.69003	-48.8202	62.65259	3.25468	-68.34828	64.27993	11.39138	42.31084	17.90074	-65.90727	-91.94471	0
710	-38.24249	-88.69003	-51.26121	62.65259	5.69569	-70.78929	64.27993	16.2734	37.42882	17.90074	-61.02525	-91.94471	0
711	-33.36047	-88.69003	-56.14323	60.21158	10.57771	-73.2303	61.83892	18.71441	37.42882	15.45973	-58.58424	-91.94471	0
712	-30.91946	-88.69003	-58.58424	57.77057	13.01872	-73.2303	56.9569	21.15542	37.42882	15.45973	-56.14323	-91.94471	0
713	-30.91946	-88.69003	-58.58424	57.77057	13.01872	-73.2303	49.63387	23.59643	42.31084	10.57771	-56.14323	-94.38572	0
714	-30.91946	-88.69003	-58.58424	57.77057	13.01872	-73.2303	47.19286	23.59643	44.75185	8.1367	-61.02525	-94.38572	0
715	-30.91946	-88.69003	-58.58424	57.77057	13.01872	-73.2303	47.19286	23.59643	49.63387	8.1367	-63.46626	-94.38572	0
716	-33.36047	-88.69003	-56.14323	60.21158	10.57771	-73.2303	49.63387	23.59643	52.07488	8.1367	-63.46626	-96.82673	0
717	-35.80148	-88.69003	-53.70222	60.21158	8.1367	-70.78929	54.51589	23.59643	52.07488	8.1367	-63.46626	-96.82673	0
718	-40.6835	-88.69003	-48.8202	62.65259	3.25468	-68.34828	56.9569	23.59643	49.63387	5.69569	-63.46626	-96.82673	0
719	-40.6835	-91.13104	-51.26121	65.0936	5.69569	-70.78929	61.83892	29.29212	47.19286	5.69569	-61.02525	-96.82673	0
720	-38.24249	-91.13104	-53.70222	62.65259	8.1367	-73.2303	61.83892	34.17414	44.75185	8.1367	-58.58424	-96.82673	0
721	-33.36047	-91.13104	-58.58424	60.21158	13.01872	-75.67131	59.39791	39.05616	44.75185	5.69569	-56.14323	-96.82673	0
722	-33.36047	-91.13104	-58.58424	60.21158	13.01872	-75.67131	56.9569	43.93818	44.75185	5.69569	-53.70222	-96.82673	0
723	-28.47845	-91.13104	-63.46626	57.77057	17.90074	-78.11232	52.07488	46.37919	47.19286	5.69569	-53.70222	-96.82673	0
724	-28.47845	-91.13104	-63.46626	57.77057	17.90074	-78.11232	52.07488	48.8202	49.63387	3.25468	-56.14323	-96.82673	0
725	-26.03744	-91.13104	-65.90727	57.77057	20.34175	-78.11232	52.07488	48.8202	54.51589	3.25468	-58.58424	-96.82673	0
726	-26.03744	-91.13104	-65.90727	57.77057	20.34175	-78.11232	54.51589	48.8202	59.39791	3.25468	-58.58424	-94.38572	0
727	-28.47845	-91.13104	-63.46626	57.77057	17.90074	-78.11232	59.39791	46.37919	59.39791	3.25468	-58.58424	-91.94471	0
728	-30.91946	-93.57205	-63.46626	60.21158	15.45973	-78.11232	61.83892	46.37919	56.9569	3.25468	-56.14323	-91.94471	0
729	-30.91946	-96.01306	-65.90727	62.65259	17.90074	-80.55333	64.27993	48.8202	54.51589	3.25468	-53.70222	-89.5037	0
730	-28.47845	-96.01306	-68.34828	60.21158	20.34175	-82.99434	66.72094	51.26121	52.07488	5.69569	-50.44754	-89.5037	0
731	-28.47845	-100.89508	-73.2303	62.65259	22.78276	-87.87636	64.27993	53.70222	52.07488	3.25468	-48.00653	-89.5037	0
732	-28.47845	-103.33609	-75.67131	65.0936	22.78276	-90.31737	61.83892	56.14323	49.63387	3.25468	-45.56552	-89.5037	0
733	-26.03744	-103.33609	-78.11232	62.65259	25.22377	-90.31737	56.9569	58.58424	54.51589	0.81367	-45.56552	-89.5037	0
734	-26.03744	-105.7771	-80.55333	65.0936	27.66478	-92.75838	56.9569	58.58424	59.39791	0.81367	-48.00653	-89.5037	0
735	-26.03744	-105.7771	-80.55333	65.0936	27.66478	-92.75838	56.9569	58.58424	61.83892	0.81367	-48.00653	-89.5037	0
736	-28.47845	-105.7771	-78.11232	65.0936	25.22377	-92.75838	59.39791	58.58424	66.72094	0.81367	-48.00653	-87.06269	0
737	-30.91946	-105.7771	-75.67131	67.53461	22.78276	-90.31737	64.27993	58.58424	66.72094	3.25468	-48.00653	-87.06269	0
738	-30.91946	-105.7771	-75.67131	67.53461	22.78276	-90.31737	66.72094	61.02525	66.72094	5.69569	-43.12451	-84.62168	0
739	-30.91946	-105.7771	-75.67131	67.53461	22.78276	-90.31737	69.16195	63.46626	64.27993	5.69569	-40.6835	-84.62168	0
740	-30.91946	-110.65912	-80.55333	69.97562	25.22377	-95.19939	69.16195	65.90727	59.39791	8.1367	-35.80148	-82.18067	0
741	-23.59643	-113.10013	-90.31737	67.53461	32.5468	-102.52242	66.72094	68.34828	59.39791	5.69569	-33.36047	-82.18067	0
742	-21.15542	-113.10013	-92.75838	65.0936	34.98781	-102.52242	64.27993	70.78929	59.39791	5.69569	-30.91946	-82.18067	0
743	-18.71441	-115.54114	-97.6404	65.0936	39.86983	-107.40444	56.9569	73.2303	61.83892	3.25468	-30.91946	-84.62168	0
744	-18.71441	-120.42316	-102.52242	67.53461	42.31084	-112.28646	54.51589	73.2303	64.27993	0.81367	-33.36047	-84.62168	-1250	T-0
745	-21.15542	-120.42316	-100.08141	69.97562	39.86983	-109.84545	54.51589	73.2303	69.16195	-1.62734	-38.24249	-87.06269	0
746	-21.15542	-120.42316	-100.08141	69.97562	39.86983	-109.84545	56.9569	73.2303	71.60296	-1.62734	-38.24249	-89.5037	0
747	-21.15542	-120.42316	-100.08141	69.97562	39.86983	-109.84545	61.83892	73.2303	69.16195	-4.06835	-38.24249	-89.5037	0
748	-21.15542	-117.98215	-97.6404	67.53461	37.42882	-107.40444	66.72094	73.2303	69.16195	-4.06835	-38.24249	-89.5037	0
749	-21.15542	-120.42316	-100.08141	69.97562	39.86983	-109.84545	69.16195	75.67131	66.72094	-4.06835	-35.80148	-89.5037	0
750	-16.2734	-120.42316	-104.96343	67.53461	44.75185	-112.28646	71.60296	80.55333	61.83892	-1.62734	-33.36047	-89.5037	0
751	-13.01872	-120.42316	-107.40444	65.0936	47.19286	-112.28646	71.60296	82.99434	61.83892	-1.62734	-30.91946	-89.5037	0
752	-13.01872	-122.86417	-109.84545	67.53461	47.19286	-114.72747	69.16195	85.43535	61.83892	-1.62734	-28.47845	-89.5037	0
753	-10.57771	-127.74619	-117.16848	67.53461	52.07488	-122.0505	64.27993	85.43535	66.72094	-1.62734	-28.47845	-89.5037	0
754	-13.01872	-130.1872	-117.16848	69.97562	52.07488	-122.0505	61.83892	85.43535	71.60296	-4.06835	-30.91946	-89.5037	0
755	-13.01872	-130.1872	-117.16848	69.97562	52.07488	-122.0505	61.83892	85.43535	71.60296	-4.06835	-33.36047	-91.94471	0
756	-16.2734	-132.62821	-117.16848	72.41663	49.63387	-124.49151	61.83892	85.43535	76.48498	-4.06835	-35.80148	-91.94471	0
757	-16.2734	-132.62821	-117.16848	72.41663	49.63387	-124.49151	64.27993	82.99434	76.48498	-6.50936	-35.80148	-91.94471	0
758	-16.2734	-135.06922	-119.60949	74.85764	52.07488	-126.93252	66.72094	82.99434	74.04397	-6.50936	-35.80148	-91.94471	0
759	-16.2734	-135.06922	-119.60949	74.85764	52.07488	-126.93252	66.72094	80.55333	69.16195	-8.95037	-35.80148	-91.94471	0
760	-13.01872	-135.06922	-122.0505	72.41663	54.51589	-126.93252	66.72094	82.99434	66.72094	-8.95037	-33.36047	-91.94471	0
761	-10.57771	-135.06922	-124.49151	72.41663	56.9569	-129.37353	64.27993	82.99434	66.72094	-13.83239	-33.36047	-91.94471	0
762	-8.1367	-135.06922	-126.93252	69.97562	59.39791	-129.37353	64.27993	82.99434	64.27993	-13.83239	-33.36047	-91.94471	0
763	-8.1367	-135.06922	-126.93252	69.97562	59.39791	-129.37353	61.83892	82.99434	66.72094	-13.83239	-33.36047	-91.94471	0
764	-10.57771	-135.06922	-124.49151	72.41663	56.9569	-129.37353	61.83892	82.99434	66.72094	-13.83239	-35.80148	-91.94471	0
765	-10.57771	-135.06922	-124.49151	72.41663	56.9569	-129.37353	64.27993	82.99434	64.27993	-16.2734	-38.24249	-91.94471	0
766	-10.57771	-135.06922	-124.49151	72.41663	56.9569	-129.37353	66.72094	80.55333	64.27993	-16.2734	-40.6835	-91.94471	0
767	-13.01872	-135.06922	-122.0505	72.41663	54.51589	-126.93252	71.60296	78.11232	59.39791	-16.2734	-43.12451	-91.94471	0
768	-13.01872	-135.06922	-122.0505	72.41663	54.51589	-126.93252	74.04397	78.11232	59.39791	-21.15542	-43.12451	-91.94471	0
769	-10.57771	-135.06922	-124.49151	72.41663	56.9569	-129.37353	76.48498	78.11232	54.51589	-23.59643	-43.12451	-89.5037	0
770	-8.1367	-135.06922	-126.93252	69.97562	59.39791	-129.37353	76.48498	80.55333	52.07488	-23.59643	-45.56552	-89.5037	0
771	-3.25468	-132.62821	-129.37353	67.53461	61.83892	-129.37353	76.48498	80.55333	54.51589	-23.59643	-45.56552	-89.5037	0
772	-3.25468	-127.74619	-124.49151	65.0936	59.39791	-124.49151	76.48498	80.55333	56.9569	-23.59643	-45.56552	-87.06269	0
773	-0.81367	-122.86417	-122.0505	60.21158	59.39791	-122.0505	76.48498	80.55333	61.83892	-26.03744	-45.56552	-84.62168	0
774	-0.81367	-117.98215	-117.16848	57.77057	56.9569	-117.16848	81.367	82.99434	64.27993	-26.03744	-48.00653	-82.18067	0
775	-3.25468	-115.54114	-112.28646	57.77057	54.51589	-112.28646	86.24902	82.99434	66.72094	-23.59643	-48.00653	-82.18067	0
776	-3.25468	-110.65912	-107.40444	55.32956	52.07488	-107.40444	91.13104	82.99434	66.72094	-23.59643	-45.56552	-82.18067	0
777	-3.25468	-108.21811	-104.96343	55.32956	49.63387	-104.96343	96.01306	80.55333	66.72094	-23.59643	-43.12451	-79.73966	0
778	-3.25468	-105.7771	-102.52242	52.88855	49.63387	-102.52242	98.45407	82.99434	66.72094	-23.59643	-43.12451	-74.85764	0
779	-3.25468	-103.33609	-100.08141	52.88855	47.19286	-100.08141	98.45407	87.87636	64.27993	-23.59643	-38.24249	-72.41663	0
780	-0.81367	-100.89508	-100.08141	50.44754	49.63387	-100.08141	100.89508	92.75838	64.27993	-21.15542	-35.80148	-69.97562	0
781	1.62734	-98.45407	-100.08141	48.00653	49.63387	-97.6404	98.45407	97.6404	69.16195	-18.71441	-35.80148	-69.97562	0
782	4.06835	-93.57205	-97.6404	43.12451	49.63387	-95.19939	98.45407	100.08141	74.04397	-16.2734	-33.36047	-67.53461	0
783	4.06835	-91.13104	-95.19939	43.12451	49.63387	-92.75838	93.57205	104.96343	78.92599	-16.2734	-33.36047	-67.53461	0
784	4.06835	-88.69003	-92.75838	40.6835	47.19286	-90.31737	93.57205	104.96343	81.367	-16.2734	-33.36047	-65.0936	0
785	1.62734	-83.80801	-85.43535	40.6835	42.31084	-82.99434	96.01306	107.40444	83.80801	-13.83239	-35.80148	-65.0936	0
786	1.62734	-78.92599	-80.55333	38.24249	39.86983	-78.11232	98.45407	104.96343	81.367	-13.83239	-35.80148	-65.0936	0
787	1.62734	-76.48498	-78.11232	35.80148	39.86983	-75.67131	100.89508	102.52242	78.92599	-13.83239	-35.80148	-65.0936	0
788	4.06835	-74.04397	-78.11232	33.36047	39.86983	-75.67131	98.45407	97.6404	76.48498	-16.2734	-33.36047	-62.65259	0
789	6.50936	-71.60296	-78.11232	30.91946	42.31084	-73.2303	96.01306	95.19939	69.16195	-18.71441	-33.36047	-62.65259	0
790	8.95037	-66.72094	-75.67131	28.47845	42.31084	-70.78929	91.13104	92.75838	64.27993	-21.15542	-33.36047	-62.65259	0
791	13.83239	-64.27993	-78.11232	23.59643	44.75185	-70.78929	86.24902	85.43535	61.83892	-23.59643	-33.36047	-62.65259	0
792	16.2734	-59.39791	-75.67131	21.15542	44.75185	-65.90727	76.48498	78.11232	56.9569	-28.47845	-33.36047	-62.65259	0
793	16.2734	-59.39791	-75.67131	21.15542	44.75185	-65.90727	64.27993	68.34828	52.07488	-35.80148	-38.24249	-65.0936	0
794	11.39138	-56.9569	-68.34828	21.15542	39.86983	-61.02525	54.51589	58.58424	42.31084	-41.49717	-45.56552	-67.53461	0
795	11.39138	-54.51589	-65.90727	21.15542	37.42882	-58.58424	47.19286	46.37919	32.5468	-43.93818	-53.70222	-69.97562	0
796	8.95037	-56.9569	-65.90727	23.59643	37.42882	-61.02525	39.86983	31.73313	20.34175	-53.70222	-56.14323	-74.85764	0
797	4.06835	-61.83892	-65.90727	28.47845	34.98781	-63.46626	32.5468	18.71441	4.88202	-63.46626	-63.46626	-79.73966	0
798	1.62734	-69.16195	-70.78929	33.36047	34.98781	-68.34828	27.66478	8.95037	-9.76404	-75.67131	-70.78929	-84.62168	0
799	1.62734	-74.04397	-75.67131	35.80148	37.42882	-73.2303	22.78276	1.62734	-24.4101	-85.43535	-80.55333	-89.5037	0
800	4.06835	-74.04397	-78.11232	33.36047	39.86983	-75.67131	17.90074	-0.81367	-31.73313	-90.31737	-82.99434	-91.94471	0
801	11.39138	-74.04397	-85.43535	30.91946	47.19286	-78.11232	17.90074	-3.25468	-34.17414	-95.19939	-85.43535	-94.38572	0
802	13.83239	-74.04397	-87.87636	28.47845	49.63387	-80.55333	17.90074	-0.81367	-34.17414	-97.6404	-85.43535	-94.38572	0
803	21.15542	-66.72094	-87.87636	21.15542	54.51589	-75.67131	17.90074	1.62734	-26.85111	-97.6404	-82.99434	-89.5037	0
804	28.47845	-61.83892	-90.31737	16.2734	59.39791	-75.67131	20.34175	6.50936	-21.96909	-95.19939	-82.99434	-82.18067	0
805	33.36047	-59.39791	-92.75838	10.57771	61.83892	-75.67131	25.22377	6.50936	-21.96909	-90.31737	-80.55333	-77.29865	0
806	40.6835	-59.39791	-100.08141	8.1367	69.16195	-78.11232	27.66478	8.95037	-19.52808	-87.87636	-75.67131	-72.41663	0
807	40.6835	-64.27993	-104.96343	10.57771	71.60296	-82.99434	27.66478	6.50936	-24.4101	-90.31737	-75.67131	-72.41663	0
808	43.12451	-71.60296	-114.72747	13.83239	78.92599	-92.75838	27.66478	6.50936	-29.29212	-95.19939	-73.2303	-72.41663	0
809	40.6835	-78.92599	-119.60949	18.71441	78.92599	-97.6404	27.66478	4.06835	-36.61515	-100.08141	-78.11232	-72.41663	0
810	40.6835	-86.24902	-126.93252	21.15542	83.80801	-104.96343	27.66478	4.06835	-43.93818	-102.52242	-80.55333	-77.29865	0
811	38.24249	-91.13104	-129.37353	26.03744	83.80801	-109.84545	25.22377	1.62734	-43.93818	-109.84545	-85.43535	-82.18067	0
812	30.91946	-96.01306	-126.93252	30.91946	78.92599	-109.84545	27.66478	1.62734	-43.93818	-114.72747	-87.87636	-89.5037	0
813	23.59643	-98.45407	-122.0505	35.80148	71.60296	-109.84545	32.5468	1.62734	-43.93818	-119.60949	-92.75838	-91.94471	0
814	13.83239	-103.33609	-117.16848	43.12451	64.27993	-109.84545	39.86983	1.62734	-41.49717	-122.0505	-100.08141	-96.82673	0
815	6.50936	-110.65912	-117.16848	50.44754	61.83892	-112.28646	49.63387	1.62734	-43.93818	-122.0505	-104.96343	-104.14976	0
816	-0.81367	-117.98215	-117.16848	57.77057	56.9569	-117.16848	59.39791	1.62734	-46.37919	-124.49151	-109.84545	-111.47279	0
817	-10.57771	-127.74619	-117.16848	67.53461	52.07488	-122.0505	66.72094	1.62734	-48.8202	-129.37353	-112.28646	-116.35481	0
818	-16.2734	-139.95124	-124.49151	77.29865	54.51589	-131.81454	71.60296	1.62734	-56.14323	-136.69656	-117.16848	-121.23683	0
819	-21.15542	-149.71528	-129.37353	84.62168	54.51589	-139.13757	76.48498	1.62734	-63.46626	-141.57858	-124.49151	-128.55986	0
820	-23.59643	-159.47932	-136.69656	89.5037	56.9569	-148.90161	76.48498	-0.81367	-70.78929	-148.90161	-129.37353	-138.3239	0
821	-23.59643	-166.80235	-144.01959	94.38572	59.39791	-156.22464	76.48498	-3.25468	-73.2303	-156.22464	-136.69656	-145.64693	0
822	-26.03744	-171.68437	-146.4606	96.82673	59.39791	-158.66565	76.48498	-3.25468	-73.2303	-163.54767	-141.57858	-150.52895	0
823	-26.03744	-174.12538	-148.90161	99.26774	61.83892	-161.10666	74.04397	-5.69569	-75.67131	-170.8707	-148.90161	-155.41097	0
824	-28.47845	-176.56639	-148.90161	101.70875	59.39791	-163.54767	76.48498	-5.69569	-78.11232	-173.31171	-153.78363	-160.29299	0
825	-28.47845	-176.56639	-148.90161	101.70875	59.39791	-163.54767	81.367	-5.69569	-78.11232	-173.31171	-156.22464	-162.734	0
826	-28.47845	-176.56639	-148.90161	101.70875	59.39791	-163.54767	83.80801	-8.1367	-80.55333	-173.31171	-158.66565	-167.61602	0
827	-28.47845	-176.56639	-148.90161	101.70875	59.39791	-163.54767	86.24902	-10.57771	-85.43535	-175.75272	-158.66565	-167.61602	0
828	-33.36047	-176.56639	-144.01959	104.14976	54.51589	-161.10666	88.69003	-8.1367	-85.43535	-178.19373	-156.22464	-165.17501	0
829	-33.36047	-174.12538	-141.57858	101.70875	54.51589	-158.66565	88.69003	-5.69569	-87.87636	-178.19373	-153.78363	-162.734	0
830	-28.47845	-171.68437	-144.01959	99.26774	56.9569	-158.66565	86.24902	-5.69569	-90.31737	-178.19373	-153.78363	-162.734	0
831	-23.59643	-171.68437	-148.90161	96.82673	61.83892	-161.10666	83.80801	-3.25468	-90.31737	-178.19373	-153.78363	-165.17501	0
832	-23.59643	-171.68437	-148.90161	96.82673	61.83892	-161.10666	78.92599	-5.69569	-87.87636	-180.63474	-153.78363	-165.17501	0
833	-26.03744	-171.68437	-146.4606	96.82673	59.39791	-158.66565	78.92599	-5.69569	-82.99434	-183.07575	-153.78363	-165.17501	0
834	-28.47845	-166.80235	-139.13757	96.82673	54.51589	-153.78363	78.92599	-5.69569	-80.55333	-183.07575	-156.22464	-165.17501	0
835	-30.91946	-166.80235	-136.69656	96.82673	52.07488	-151.34262	81.367	-5.69569	-80.55333	-180.63474	-158.66565	-165.17501	0
836	-30.91946	-166.80235	-136.69656	96.82673	52.07488	-151.34262	83.80801	-8.1367	-82.99434	-180.63474	-161.10666	-167.61602	0
837	-33.36047	-166.80235	-134.25555	99.26774	49.63387	-151.34262	88.69003	-10.57771	-82.99434	-180.63474	-156.22464	-167.61602	0
838	-35.80148	-166.80235	-131.81454	99.26774	47.19286	-148.90161	91.13104	-8.1367	-82.99434	-180.63474	-153.78363	-162.734	0
839	-35.80148	-166.80235	-131.81454	99.26774	47.19286	-148.90161	91.13104	-8.1367	-85.43535	-178.19373	-153.78363	-162.734	0
840	-30.91946	-166.80235	-136.69656	96.82673	52.07488	-151.34262	91.13104	-3.25468	-87.87636	-175.75272	-151.34262	-160.29299	0
841	-26.03744	-166.80235	-141.57858	94.38572	56.9569	-153.78363	88.69003	-3.25468	-85.43535	-175.75272	-151.34262	-160.29299	0
842	-26.03744	-164.36134	-139.13757	94.38572	56.9569	-151.34262	88.69003	-3.25468	-82.99434	-175.75272	-151.34262	-157.85198	0
843	-26.03744	-161.92033	-136.69656	91.94471	54.51589	-148.90161	86.24902	-3.25468	-80.55333	-178.19373	-151.34262	-157.85198	0
844	-28.47845	-159.47932	-131.81454	91.94471	52.07488	-146.4606	88.69003	-3.25468	-78.11232	-175.75272	-151.34262	-155.41097	0
845	-30.91946	-159.47932	-129.37353	94.38572	49.63387	-144.01959	91.13104	-3.25468	-78.11232	-173.31171	-153.78363	-155.41097	0
846	-30.91946	-159.47932	-129.37353	94.38572	49.63387	-144.01959	93.57205	-3.25468	-80.55333	-170.8707	-153.78363	-155.41097	0
847	-30.91946	-157.03831	-126.93252	91.94471	47.19286	-141.57858	96.01306	-3.25468	-82.99434	-170.8707	-153.78363	-155.41097	0
848	-30.91946	-157.03831	-126.93252	91.94471	47.19286	-141.57858	96.01306	-3.25468	-85.43535	-170.8707	-151.34262	-155.41097	0
849	-30.91946	-157.03831	-126.93252	91.94471	47.19286	-141.57858	93.57205	-3.25468	-87.87636	-170.8707	-148.90161	-152.96996	0
850	-28.47845	-157.03831	-129.37353	91.94471	49.63387	-144.01959	91.13104	-0.81367	-90.31737	-168.42969	-148.90161	-152.96996	0
851	-26.03744	-157.03831	-131.81454	89.5037	52.07488	-144.01959	86.24902	-0.81367	-87.87636	-170.8707	-148.90161	-155.41097	0
852	-26.03744	-157.03831	-131.81454	89.5037	52.07488	-144.01959	83.80801	-3.25468	-87.87636	-170.8707	-148.90161	-155.41097	0
853	-26.03744	-157.03831	-131.81454	89.5037	52.07488	-144.01959	81.367	-3.25468	-82.99434	-173.31171	-148.90161	-155.41097	0
854	-30.91946	-154.5973	-124.49151	91.94471	47.19286	-139.13757	81.367	-5.69569	-82.99434	-170.8707	-151.34262	-155.41097	0
855	-33.36047	-152.15629	-119.60949	91.94471	42.31084	-136.69656	83.80801	-5.69569	-82.99434	-168.42969	-151.34262	-155.41097	0
856	-35.80148	-152.15629	-117.16848	91.94471	39.86983	-134.25555	86.24902	-5.69569	-82.99434	-165.98868	-153.78363	-155.41097	0
857	-35.80148	-149.71528	-114.72747	91.94471	39.86983	-131.81454	91.13104	-8.1367	-85.43535	-165.98868	-151.34262	-155.41097	0
858	-33.36047	-147.27427	-114.72747	89.5037	39.86983	-131.81454	91.13104	-8.1367	-85.43535	-163.54767	-148.90161	-152.96996	0
859	-33.36047	-147.27427	-114.72747	89.5037	39.86983	-131.81454	91.13104	-8.1367	-87.87636	-163.54767	-146.4606	-152.96996	0
860	-33.36047	-147.27427	-114.72747	89.5037	39.86983	-131.81454	88.69003	-3.25468	-90.31737	-163.54767	-146.4606	-152.96996	0
861	-28.47845	-147.27427	-119.60949	87.06269	44.75185	-134.25555	86.24902	-3.25468	-87.87636	-163.54767	-146.4606	-152.96996	0
862	-26.03744	-144.83326	-119.60949	84.62168	47.19286	-131.81454	83.80801	-3.25468	-82.99434	-161.10666	-144.01959	-152.96996	0
863	-26.03744	-142.39225	-117.16848	82.18067	44.75185	-129.37353	81.367	-0.81367	-80.55333	-161.10666	-144.01959	-152.96996	0
864	-26.03744	-142.39225	-117.16848	82.18067	44.75185	-129.37353	81.367	-0.81367	-78.11232	-161.10666	-148.90161	-150.52895	0
865	-28.47845	-139.95124	-112.28646	82.18067	42.31084	-126.93252	86.24902	-3.25468	-78.11232	-158.66565	-148.90161	-150.52895	0
866	-26.03744	-137.51023	-112.28646	79.73966	42.31084	-124.49151	88.69003	-3.25468	-78.11232	-153.78363	-146.4606	-148.08794	0
867	-23.59643	-135.06922	-112.28646	77.29865	44.75185	-124.49151	93.57205	-3.25468	-80.55333	-153.78363	-141.57858	-148.08794	0
868	-23.59643	-135.06922	-112.28646	77.29865	44.75185	-124.49151	93.57205	-3.25468	-80.55333	-153.78363	-141.57858	-145.64693	0
869	-23.59643	-135.06922	-112.28646	77.29865	44.75185	-124.49151	93.57205	-0.81367	-82.99434	-151.34262	-139.13757	-143.20592	0
870	-21.15542	-132.62821	-112.28646	74.85764	44.75185	-122.0505	91.13104	1.62734	-85.43535	-148.90161	-134.25555	-140.76491	0
871	-16.2734	-130.1872	-114.72747	72.41663	49.63387	-122.0505	88.69003	1.62734	-82.99434	-146.4606	-134.25555	-140.76491	0
872	-16.2734	-130.1872	-114.72747	72.41663	49.63387	-122.0505	86.24902	4.06835	-78.11232	-146.4606	-131.81454	-140.76491	0
873	-16.2734	-127.74619	-112.28646	69.97562	47.19286	-119.60949	81.367	4.06835	-75.67131	-148.90161	-131.81454	-138.3239	0
874	-18.71441	-127.74619	-109.84545	72.41663	44.75185	-119.60949	81.367	4.06835	-75.67131	-148.90161	-136.69656	-138.3239	0
875	-21.15542	-127.74619	-107.40444	72.41663	42.31084	-117.16848	83.80801	1.62734	-75.67131	-148.90161	-136.69656	-138.3239	0
876	-23.59643	-127.74619	-104.96343	74.85764	39.86983	-117.16848	83.80801	1.62734	-75.67131	-146.4606	-136.69656	-138.3239	0
877	-23.59643	-127.74619	-104.96343	74.85764	39.86983	-117.16848	86.24902	1.62734	-75.67131	-146.4606	-131.81454	-135.88289	0
878	-21.15542	-127.74619	-107.40444	72.41663	42.31084	-117.16848	86.24902	4.06835	-78.11232	-144.01959	-129.37353	-133.44188	0
879	-18.71441	-125.30518	-107.40444	69.97562	44.75185	-117.16848	86.24902	6.50936	-78.11232	-141.57858	-126.93252	-128.55986	0
880	-16.2734	-120.42316	-104.96343	67.53461	44.75185	-112.28646	86.24902	11.39138	-78.11232	-139.13757	-122.0505	-126.11885	0
881	-10.57771	-117.98215	-107.40444	62.65259	47.19286	-112.28646	86.24902	13.83239	-70.78929	-136.69656	-117.16848	-121.23683	0
882	-5.69569	-113.10013	-107.40444	57.77057	49.63387	-109.84545	86.24902	16.2734	-65.90727	-131.81454	-114.72747	-118.79582	0
883	-5.69569	-110.65912	-104.96343	57.77057	49.63387	-107.40444	83.80801	16.2734	-61.02525	-131.81454	-112.28646	-116.35481	0
884	-5.69569	-110.65912	-104.96343	57.77057	49.63387	-107.40444	81.367	16.2734	-58.58424	-131.81454	-112.28646	-113.9138	0
885	-8.1367	-108.21811	-100.08141	57.77057	44.75185	-102.52242	83.80801	16.2734	-58.58424	-126.93252	-114.72747	-111.47279	0
886	-8.1367	-108.21811	-100.08141	57.77057	44.75185	-102.52242	86.24902	16.2734	-56.14323	-126.93252	-112.28646	-111.47279	0
887	-10.57771	-108.21811	-97.6404	57.77057	42.31084	-102.52242	86.24902	13.83239	-56.14323	-124.49151	-107.40444	-109.03178	0
888	-10.57771	-110.65912	-100.08141	60.21158	44.75185	-104.96343	86.24902	13.83239	-56.14323	-124.49151	-102.52242	-106.59077	0
889	-10.57771	-110.65912	-100.08141	60.21158	44.75185	-104.96343	86.24902	16.2734	-56.14323	-119.60949	-100.08141	-101.70875	0
890	-8.1367	-110.65912	-102.52242	57.77057	47.19286	-104.96343	83.80801	21.15542	-56.14323	-117.16848	-97.6404	-99.26774	0
891	-3.25468	-108.21811	-104.96343	55.32956	49.63387	-104.96343	81.367	23.59643	-51.26121	-114.72747	-92.75838	-96.82673	0
892	-3.25468	-108.21811	-104.96343	55.32956	49.63387	-104.96343	81.367	29.29212	-43.93818	-109.84545	-92.75838	-96.82673	0
893	-8.1367	-108.21811	-100.08141	57.77057	44.75185	-102.52242	86.24902	36.61515	-34.17414	-109.84545	-95.19939	-99.26774	0
894	-16.2734	-105.7771	-90.31737	60.21158	37.42882	-97.6404	100.89508	51.26121	-21.96909	-109.84545	-104.96343	-109.03178	0
895	-23.59643	-105.7771	-82.99434	62.65259	30.10579	-95.19939	120.42316	70.78929	-7.32303	-107.40444	-117.16848	-126.11885	0
896	-35.80148	-113.10013	-78.11232	72.41663	20.34175	-95.19939	142.39225	97.6404	13.01872	-104.96343	-126.93252	-148.08794	0
897	-43.12451	-122.86417	-80.55333	82.18067	17.90074	-102.52242	169.24336	126.93252	37.42882	-97.6404	-131.81454	-167.61602	0
898	-50.44754	-135.06922	-85.43535	91.94471	17.90074	-109.84545	188.77144	161.10666	66.72094	-82.99434	-129.37353	-182.26208	0
899	-50.44754	-147.27427	-97.6404	96.82673	22.78276	-122.0505	205.85851	202.60383	108.21811	-51.26121	-107.40444	-177.38006	0
900	-38.24249	-157.03831	-119.60949	96.82673	39.86983	-139.13757	210.74053	253.86504	164.36134	8.1367	-53.70222	-148.08794	0
901	-10.57771	-159.47932	-148.90161	84.62168	69.16195	-153.78363	203.4175	312.44928	249.79669	105.7771	47.19286	-74.85764	0
902	38.24249	-152.15629	-190.39878	55.32956	113.10013	-170.8707	176.56639	363.71049	344.99608	240.03265	203.4175	50.44754	0
903	106.59077	-135.06922	-241.65999	13.83239	174.12538	-187.95777	125.30518	395.44362	437.75446	406.02133	403.58032	231.08228	0
904	194.46713	-100.89508	-295.36221	-48.00653	244.91467	-197.72181	54.51589	410.08968	523.18981	601.30213	647.68132	460.53722	0
905	306.75359	-47.19286	-353.94645	-131.00087	330.35002	-200.16282	-34.17414	393.00261	589.09708	816.11101	933.27949	738.81236	0
906	433.68611	19.52808	-414.9717	-226.20026	425.54941	-197.72181	-148.90161	331.97736	618.3892	1028.47888	1238.40574	1051.26164	0
907	570.38267	107.40444	-463.7919	-338.48672	518.30779	-178.19373	-273.39312	229.45494	608.62516	1231.08271	1550.85502	1388.12102	0
908	702.19721	205.04484	-497.96604	-453.21419	601.30213	-146.4606	-407.64867	90.31737	547.59991	1392.18937	1835.63952	1714.40269	0
909	821.8067	307.56726	-515.05311	-565.50065	669.65041	-102.52242	-534.58119	-66.72094	442.63648	1502.03482	2060.21244	1997.55985	0
910	917.00609	410.08968	-507.73008	-663.14105	713.58859	-48.8202	-651.74967	-225.38659	318.14497	1553.29603	2204.23203	2209.92772	0
911	985.35437	502.84806	-483.31998	-743.69438	735.55768	10.57771	-749.39007	-381.61123	176.56639	1528.88593	2245.7292	2324.65519	0
912	1012.20548	566.31432	-446.70483	-790.07357	730.67566	61.83892	-812.85633	-515.86678	27.66478	1431.24553	2170.05789	2322.21418	0
913	995.11841	600.48846	-395.44362	-797.3966	696.50152	103.33609	-839.70744	-625.71223	-122.0505	1260.37483	1977.2181	2200.16368	0
914	931.65215	602.92947	-329.53635	-768.10448	630.59425	137.51023	-827.50239	-720.91162	-288.03918	1011.39181	1672.09185	1968.26773	0
915	831.57074	580.96038	-251.42403	-707.07923	542.71789	166.80235	-786.00522	-799.02394	-451.58685	718.47061	1299.43099	1660.70047	0
916	704.63822	541.90422	-163.54767	-624.08489	435.31345	191.21245	-720.09795	-867.37222	-612.69351	393.81628	882.01828	1307.56769	0
917	558.17762	483.31998	-75.67131	-521.56247	318.14497	205.85851	-629.78058	-916.19242	-754.27209	66.72094	464.60557	943.8572	0
918	409.27601	414.9717	4.88202	-411.71702	203.4175	210.74053	-524.81715	-933.27949	-856.79451	-209.92686	103.33609	619.20287	0
919	272.57945	349.06443	76.48498	-311.63561	98.45407	213.18154	-427.17675	-930.83848	-925.14279	-424.73574	-180.63474	348.25076	0
920	162.734	292.9212	130.1872	-228.64127	17.90074	213.18154	-336.85938	-901.54636	-944.67087	-568.75533	-380.79756	138.3239	0
921	77.29865	244.101	166.80235	-160.29299	-43.93818	205.85851	-258.74706	-842.96212	-915.37875	-644.42664	-502.84806	-10.57771	0
922	18.71441	202.60383	183.88942	-111.47279	-82.99434	193.65346	-190.39878	-757.52677	-842.14845	-649.30866	-546.78624	-99.26774	0
923	-13.01872	173.31171	186.33043	-79.73966	-100.08141	181.44841	-141.57858	-652.56334	-729.86199	-593.16543	-522.37614	-135.88289	0
924	-26.03744	158.66565	183.88942	-67.53461	-104.96343	171.68437	-107.40444	-554.92294	-620.01654	-515.05311	-471.11493	-140.76491	0
925	-33.36047	153.78363	186.33043	-60.21158	-109.84545	169.24336	-82.99434	-464.60557	-519.93513	-441.82281	-417.41271	-133.44188	0
926	-33.36047	153.78363	186.33043	-60.21158	-109.84545	169.24336	-65.90727	-384.05224	-432.05877	-373.47453	-363.71049	-118.79582	0
927	-26.03744	153.78363	179.0074	-65.0936	-102.52242	166.80235	-58.58424	-315.70396	-356.38746	-317.3313	-314.89029	-101.70875	0
928	-18.71441	151.34262	169.24336	-67.53461	-92.75838	159.47932	-53.70222	-259.56073	-300.24423	-273.39312	-275.83413	-87.06269	0
929	-18.71441	146.4606	164.36134	-65.0936	-90.31737	154.5973	-51.26121	-218.06356	-261.18807	-244.101	-251.42403	-79.73966	0
930	-16.2734	136.69656	152.15629	-60.21158	-82.99434	144.83326	-46.37919	-191.21245	-236.77797	-229.45494	-236.77797	-79.73966	0
931	-13.01872	126.93252	139.95124	-57.77057	-75.67131	135.06922	-46.37919	-171.68437	-217.24989	-222.13191	-229.45494	-84.62168	0
932	-16.2734	117.16848	132.62821	-50.44754	-73.2303	125.30518	-46.37919	-161.92033	-207.48585	-222.13191	-229.45494	-91.94471	0
933	-18.71441	109.84545	127.74619	-45.56552	-73.2303	117.98215	-43.93818	-157.03831	-200.16282	-224.57292	-229.45494	-99.26774	0
934	-26.03744	107.40444	132.62821	-40.6835	-78.11232	120.42316	-39.05616	-157.03831	-197.72181	-227.01393	-236.77797	-106.59077	0
935	-33.36047	104.96343	137.51023	-35.80148	-85.43535	120.42316	-34.17414	-157.03831	-197.72181	-229.45494	-241.65999	-113.9138	0
936	-40.6835	100.08141	139.95124	-30.91946	-90.31737	120.42316	-29.29212	-157.03831	-200.16282	-231.89595	-244.101	-123.67784	0
937	-48.00653	92.75838	139.95124	-23.59643	-92.75838	115.54114	-29.29212	-159.47932	-205.04484	-236.77797	-246.54201	-128.55986	0
938	-57.77057	85.43535	142.39225	-13.83239	-100.08141	113.10013	-29.29212	-159.47932	-207.48585	-239.21898	-246.54201	-133.44188	0
939	-67.53461	78.11232	144.83326	-6.50936	-104.96343	110.65912	-31.73313	-161.92033	-212.36787	-241.65999	-248.98302	-138.3239	0
940	-77.29865	65.90727	142.39225	5.69569	-109.84545	103.33609	-39.05616	-161.92033	-217.24989	-246.54201	-251.42403	-145.64693	0
941	-89.5037	51.26121	139.95124	18.71441	-114.72747	96.01306	-46.37919	-164.36134	-219.6909	-253.86504	-256.30605	-155.41097	0
942	-104.14976	39.05616	142.39225	30.91946	-122.0505	91.13104	-53.70222	-166.80235	-219.6909	-261.18807	-261.18807	-162.734	0
943	-113.9138	29.29212	142.39225	40.6835	-126.93252	86.24902	-58.58424	-169.24336	-219.6909	-266.07009	-266.07009	-167.61602	0
944	-126.11885	21.96909	147.27427	50.44754	-136.69656	83.80801	-61.02525	-171.68437	-219.6909	-268.5111	-273.39312	-172.49804	0
945	-135.88289	17.08707	152.15629	57.77057	-144.01959	83.80801	-61.02525	-174.12538	-224.57292	-270.95211	-275.83413	-177.38006	0
946	-140.76491	12.20505	152.15629	62.65259	-146.4606	81.367	-61.02525	-176.56639	-224.57292	-270.95211	-275.83413	-179.82107	0
947	-145.64693	12.20505	157.03831	65.0936	-151.34262	83.80801	-61.02525	-179.0074	-229.45494	-273.39312	-273.39312	-179.82107	0
948	-148.08794	12.20505	159.47932	67.53461	-153.78363	86.24902	-61.02525	-179.0074	-229.45494	-275.83413	-270.95211	-179.82107	0
949	-148.08794	12.20505	159.47932	67.53461	-153.78363	86.24902	-63.46626	-179.0074	-231.89595	-275.83413	-266.07009	-177.38006	0
950	-148.08794	12.20505	159.47932	67.53461	-153.78363	86.24902	-65.90727	-176.56639	-234.33696	-275.83413	-263.62908	-177.38006	0
951	-145.64693	12.20505	157.03831	65.0936	-151.34262	83.80801	-70.78929	-176.56639	-231.89595	-275.83413	-263.62908	-177.38006	0
952	-145.64693	12.20505	157.03831	65.0936	-151.34262	83.80801	-73.2303	-179.0074	-229.45494	-275.83413	-261.18807	-177.38006	0
953	-145.64693	17.08707	161.92033	62.65259	-153.78363	88.69003	-78.11232	-179.0074	-224.57292	-278.27514	-261.18807	-177.38006	0
954	-148.08794	21.96909	169.24336	62.65259	-158.66565	96.01306	-78.11232	-183.88942	-224.57292	-278.27514	-263.62908	-177.38006	0
955	-148.08794	26.85111	174.12538	60.21158	-161.10666	100.89508	-75.67131	-186.33043	-224.57292	-275.83413	-263.62908	-177.38006	0
956	-145.64693	31.73313	176.56639	55.32956	-161.10666	103.33609	-73.2303	-188.77144	-224.57292	-273.39312	-263.62908	-174.93905	0
957	-143.20592	36.61515	179.0074	52.88855	-161.10666	108.21811	-70.78929	-191.21245	-229.45494	-273.39312	-261.18807	-172.49804	0
958	-140.76491	43.93818	183.88942	48.00653	-161.10666	113.10013	-70.78929	-193.65346	-229.45494	-270.95211	-258.74706	-170.05703	0
959	-138.3239	48.8202	186.33043	43.12451	-161.10666	117.98215	-70.78929	-193.65346	-231.89595	-270.95211	-253.86504	-165.17501	0
