samplenr	I	II	III	aVR	aVL	aVF	V1	V2	V3	V4	V5	V6	measurement
0	-25.22377	-189.58511	-165.17501	104.96343	68.34828	-177.38006	78.92599	162.734	58.58424	17.08707	41.49717	-35.80148	0
1	-25.22377	-189.58511	-165.17501	104.96343	68.34828	-177.38006	78.92599	165.17501	56.14323	17.08707	41.49717	-35.80148	0
2	-25.22377	-192.02612	-167.61602	107.40444	70.78929	-179.82107	76.48498	167.61602	56.14323	17.08707	41.49717	-35.80148	0
3	-30.10579	-194.46713	-165.17501	109.84545	65.90727	-179.82107	76.48498	170.05703	58.58424	17.08707	41.49717	-35.80148	0
4	-34.98781	-192.02612	-157.85198	112.28646	61.02525	-174.93905	76.48498	170.05703	58.58424	19.52808	43.93818	-35.80148	0
5	-39.86983	-194.46713	-155.41097	114.72747	56.14323	-174.93905	78.92599	167.61602	61.02525	21.96909	46.37919	-30.91946	0
6	-42.31084	-199.34915	-157.85198	119.60949	56.14323	-179.82107	81.367	167.61602	65.90727	24.4101	51.26121	-28.47845	0
7	-49.63387	-201.79016	-152.96996	124.49151	51.26121	-177.38006	83.80801	170.05703	68.34828	29.29212	51.26121	-26.03744	0
8	-52.07488	-204.23117	-152.96996	126.93252	48.8202	-179.82107	86.24902	170.05703	70.78929	29.29212	53.70222	-23.59643	0
9	-52.07488	-204.23117	-152.96996	126.93252	48.8202	-179.82107	88.69003	170.05703	70.78929	31.73313	53.70222	-23.59643	0
10	-52.07488	-206.67218	-155.41097	126.93252	51.26121	-182.26208	93.57205	170.05703	73.2303	31.73313	53.70222	-21.15542	0
11	-49.63387	-209.11319	-160.29299	126.93252	53.70222	-184.70309	96.01306	174.93905	75.67131	31.73313	53.70222	-21.15542	0
12	-49.63387	-209.11319	-160.29299	126.93252	53.70222	-184.70309	98.45407	182.26208	75.67131	31.73313	53.70222	-21.15542	0
13	-52.07488	-209.11319	-157.85198	129.37353	51.26121	-184.70309	98.45407	184.70309	75.67131	31.73313	53.70222	-21.15542	0
14	-52.07488	-209.11319	-157.85198	129.37353	51.26121	-184.70309	100.89508	184.70309	78.11232	29.29212	51.26121	-21.15542	0
15	-52.07488	-211.5542	-160.29299	129.37353	53.70222	-187.1441	103.33609	184.70309	78.11232	29.29212	51.26121	-21.15542	0
16	-49.63387	-213.99521	-165.17501	129.37353	56.14323	-189.58511	103.33609	187.1441	80.55333	29.29212	48.8202	-21.15542	0
17	-49.63387	-213.99521	-165.17501	129.37353	56.14323	-189.58511	105.7771	189.58511	80.55333	29.29212	43.93818	-21.15542	0
18	-49.63387	-213.99521	-165.17501	129.37353	56.14323	-189.58511	105.7771	192.02612	82.99434	29.29212	41.49717	-23.59643	0
19	-47.19286	-213.99521	-167.61602	129.37353	58.58424	-192.02612	105.7771	192.02612	82.99434	29.29212	39.05616	-26.03744	0
20	-42.31084	-213.99521	-172.49804	126.93252	63.46626	-194.46713	108.21811	194.46713	82.99434	26.85111	36.61515	-26.03744	0
21	-42.31084	-213.99521	-172.49804	126.93252	63.46626	-194.46713	110.65912	196.90814	85.43535	26.85111	36.61515	-28.47845	0
22	-42.31084	-213.99521	-172.49804	126.93252	63.46626	-194.46713	110.65912	204.23117	85.43535	26.85111	36.61515	-28.47845	0
23	-42.31084	-216.43622	-174.93905	126.93252	65.90727	-196.90814	113.10013	204.23117	87.87636	26.85111	36.61515	-28.47845	0
24	-42.31084	-218.87723	-177.38006	129.37353	65.90727	-199.34915	113.10013	206.67218	87.87636	26.85111	36.61515	-30.91946	0
25	-42.31084	-218.87723	-177.38006	129.37353	65.90727	-199.34915	113.10013	206.67218	90.31737	24.4101	39.05616	-30.91946	0
26	-42.31084	-218.87723	-177.38006	129.37353	65.90727	-199.34915	113.10013	209.11319	90.31737	24.4101	39.05616	-30.91946	0
27	-42.31084	-221.31824	-179.82107	129.37353	68.34828	-201.79016	113.10013	211.5542	90.31737	24.4101	39.05616	-30.91946	0
28	-42.31084	-223.75925	-182.26208	131.81454	68.34828	-204.23117	113.10013	213.99521	90.31737	24.4101	36.61515	-33.36047	0
29	-39.86983	-223.75925	-184.70309	129.37353	70.78929	-204.23117	110.65912	211.5542	87.87636	21.96909	34.17414	-33.36047	0
30	-34.98781	-223.75925	-189.58511	126.93252	75.67131	-206.67218	110.65912	211.5542	87.87636	19.52808	31.73313	-38.24249	0
31	-32.5468	-223.75925	-192.02612	126.93252	78.11232	-209.11319	108.21811	211.5542	85.43535	19.52808	29.29212	-40.6835	0
32	-32.5468	-223.75925	-192.02612	126.93252	78.11232	-209.11319	108.21811	213.99521	82.99434	17.08707	26.85111	-43.12451	0
33	-32.5468	-223.75925	-192.02612	126.93252	78.11232	-209.11319	108.21811	211.5542	80.55333	14.64606	21.96909	-45.56552	0
34	-32.5468	-223.75925	-192.02612	126.93252	78.11232	-209.11319	105.7771	209.11319	80.55333	14.64606	19.52808	-45.56552	0
35	-27.66478	-223.75925	-196.90814	124.49151	82.99434	-211.5542	105.7771	209.11319	80.55333	14.64606	19.52808	-48.00653	0
36	-27.66478	-228.64127	-201.79016	126.93252	85.43535	-216.43622	105.7771	209.11319	78.11232	14.64606	17.08707	-48.00653	0
37	-30.10579	-235.9643	-206.67218	131.81454	87.87636	-221.31824	105.7771	213.99521	78.11232	14.64606	17.08707	-50.44754	0
38	-30.10579	-240.84632	-211.5542	134.25555	90.31737	-226.20026	108.21811	218.87723	80.55333	14.64606	14.64606	-52.88855	0
39	-30.10579	-245.72834	-216.43622	136.69656	92.75838	-231.08228	113.10013	228.64127	82.99434	14.64606	14.64606	-55.32956	0
40	-30.10579	-255.49238	-226.20026	141.57858	97.6404	-240.84632	120.42316	243.28733	87.87636	19.52808	14.64606	-55.32956	0
41	-32.5468	-267.69743	-235.9643	148.90161	100.08141	-253.05137	132.62821	267.69743	97.6404	26.85111	17.08707	-55.32956	0
42	-39.86983	-279.90248	-240.84632	158.66565	100.08141	-260.3744	149.71528	301.87157	112.28646	39.05616	24.4101	-50.44754	0
43	-54.51589	-294.54854	-240.84632	173.31171	92.75838	-267.69743	176.56639	343.36874	136.69656	56.14323	36.61515	-40.6835	0
44	-69.16195	-309.1946	-240.84632	187.95777	85.43535	-275.02046	213.18154	397.07096	168.42969	82.99434	51.26121	-28.47845	0
45	-83.80801	-323.84066	-240.84632	202.60383	78.11232	-282.34349	252.2377	460.53722	205.04484	112.28646	70.78929	-13.83239	0
46	-93.57205	-336.04571	-243.28733	212.36787	73.2303	-289.66652	296.17588	536.20853	244.101	141.57858	90.31737	-1.62734	0
47	-98.45407	-348.25076	-250.61036	222.13191	75.67131	-299.43056	340.11406	624.08489	283.15716	168.42969	109.84545	8.95037	0
48	-93.57205	-350.69177	-257.93339	219.6909	80.55333	-304.31258	381.61123	724.1663	319.77231	195.2808	129.37353	18.71441	0
49	-69.16195	-336.04571	-267.69743	200.16282	97.6404	-301.87157	413.34436	838.89377	346.62342	212.36787	139.13757	21.15542	0
50	-20.34175	-309.1946	-289.66652	163.54767	134.25555	-299.43056	430.43143	975.59033	361.26948	219.6909	136.69656	11.39138	0
51	43.93818	-270.13844	-314.07662	112.28646	178.19373	-292.10753	435.31345	1136.69699	363.71049	214.80888	124.49151	-4.06835	0
52	129.37353	-213.99521	-343.36874	41.49717	234.33696	-277.46147	430.43143	1327.09577	358.82847	200.16282	102.52242	-28.47845	0
53	229.45494	-140.76491	-370.21985	-44.75185	297.80322	-255.49238	413.34436	1532.14061	344.18241	175.75272	68.34828	-62.65259	0
54	344.18241	-57.77057	-401.95298	-144.83326	371.03352	-228.64127	388.93426	1746.13582	319.77231	144.01959	26.85111	-101.70875	0
55	461.35089	30.91946	-431.2451	-247.35568	446.70483	-199.34915	359.64214	1951.18066	292.9212	109.84545	-13.01872	-140.76491	0
56	571.19634	131.00087	-441.00914	-352.31911	505.28907	-155.41097	323.02699	2109.84631	263.62908	73.2303	-52.07488	-179.82107	0
57	668.83674	243.28733	-426.36308	-457.28254	546.78624	-91.94471	274.20679	2180.6356	229.45494	39.05616	-88.69003	-211.5542	0
58	739.62603	372.66086	-367.77884	-557.36395	554.10927	4.06835	213.18154	2131.8154	192.83979	7.32303	-113.10013	-228.64127	0
59	786.00522	506.91641	-279.90248	-647.68132	532.14018	113.9138	144.83326	1970.70874	158.66565	-15.45973	-127.74619	-235.9643	0
60	810.41532	631.40792	-179.82107	-720.91162	495.52503	226.20026	64.27993	1694.87461	114.72747	-42.31084	-135.06922	-233.52329	0
61	810.41532	738.81236	-72.41663	-774.61384	441.82281	333.6047	-26.85111	1317.33173	61.02525	-71.60296	-139.95124	-226.20026	0
62	776.24118	821.8067	45.56552	-799.02394	366.1515	433.68611	-126.93252	834.01175	2.44101	-103.33609	-144.83326	-211.5542	0
63	715.21593	875.50892	160.29299	-796.58293	278.27514	519.12146	-227.01393	279.90248	-61.83892	-135.06922	-144.83326	-192.02612	0
64	632.22159	895.037	262.81541	-764.8498	185.51676	580.14671	-310.00827	-250.61036	-120.42316	-164.36134	-139.95124	-172.49804	0
65	544.34523	877.94993	333.6047	-711.14758	104.96343	606.99782	-378.35655	-719.28428	-176.56639	-193.65346	-137.51023	-155.41097	0
66	454.02786	836.45276	382.4249	-645.24031	36.61515	609.43883	-427.17675	-1109.84588	-225.38659	-215.62255	-132.62821	-140.76491	0
67	351.50544	782.75054	431.2451	-567.12799	-39.86983	606.99782	-454.02786	-1410.09011	-254.67871	-227.8276	-125.30518	-121.23683	0
68	251.42403	719.28428	467.86025	-486.57466	-108.21811	594.79277	-458.90988	-1607.81192	-271.76578	-232.70962	-110.65912	-99.26774	0
69	158.66565	650.936	492.27035	-406.02133	-166.80235	572.82368	-436.94079	-1676.1602	-266.88376	-222.94558	-93.57205	-77.29865	0
70	78.11232	577.7057	499.59338	-327.90901	-210.74053	538.64954	-407.64867	-1656.63212	-254.67871	-210.74053	-78.92599	-62.65259	0
71	9.76404	497.15237	487.38833	-254.67871	-240.03265	492.27035	-375.91554	-1590.72485	-244.91467	-200.97649	-69.16195	-50.44754	0
72	-49.63387	414.15803	462.97823	-183.88942	-257.11972	438.56813	-344.18241	-1502.84849	-235.15063	-196.09447	-64.27993	-45.56552	0
73	-100.89508	336.04571	436.12712	-117.98215	-269.32477	384.86591	-314.89029	-1407.6491	-225.38659	-191.21245	-61.83892	-43.12451	0
74	-139.95124	262.81541	401.95298	-61.83892	-271.76578	331.16369	-290.48019	-1302.68567	-218.06356	-188.77144	-61.83892	-43.12451	0
75	-161.92033	196.90814	358.0148	-17.90074	-259.56073	277.46147	-270.95211	-1195.28123	-210.74053	-188.77144	-66.72094	-50.44754	0
76	-169.24336	138.3239	306.75359	13.83239	-237.59164	221.31824	-256.30605	-1085.43578	-205.85851	-188.77144	-69.16195	-55.32956	0
77	-174.12538	87.06269	260.3744	41.49717	-218.06356	172.49804	-241.65999	-973.14932	-196.09447	-186.33043	-71.60296	-60.21158	0
78	-174.12538	48.00653	221.31824	61.02525	-198.53548	133.44188	-219.6909	-863.30387	-174.12538	-171.68437	-64.27993	-57.77057	0
79	-174.12538	18.71441	192.02612	75.67131	-183.88942	104.14976	-190.39878	-755.89943	-144.83326	-149.71528	-52.07488	-50.44754	0
80	-169.24336	-3.25468	165.17501	85.43535	-166.80235	79.73966	-163.54767	-658.25903	-115.54114	-130.1872	-37.42882	-43.12451	0
81	-169.24336	-20.34175	148.08794	92.75838	-159.47932	62.65259	-141.57858	-567.94166	-88.69003	-110.65912	-25.22377	-35.80148	0
82	-164.36134	-30.10579	133.44188	95.19939	-149.71528	50.44754	-117.16848	-487.38833	-61.83892	-91.13104	-15.45973	-28.47845	0
83	-161.92033	-35.80148	126.11885	97.6404	-144.83326	45.56552	-92.75838	-423.92207	-39.86983	-74.04397	-5.69569	-21.15542	0
84	-154.5973	-40.6835	113.9138	95.19939	-135.06922	35.80148	-75.67131	-370.21985	-20.34175	-59.39791	-2.44101	-18.71441	0
85	-144.83326	-48.00653	96.82673	95.19939	-122.86417	23.59643	-58.58424	-323.84066	-5.69569	-49.63387	2.44101	-16.2734	0
86	-137.51023	-62.65259	74.85764	97.6404	-108.21811	6.50936	-46.37919	-282.34349	4.88202	-39.86983	4.88202	-16.2734	0
87	-137.51023	-79.73966	57.77057	107.40444	-98.45407	-10.57771	-31.73313	-243.28733	17.08707	-32.5468	4.88202	-16.2734	0
88	-137.51023	-91.94471	45.56552	112.28646	-93.57205	-22.78276	-17.08707	-213.99521	26.85111	-25.22377	7.32303	-13.83239	0
89	-135.06922	-101.70875	33.36047	117.16848	-86.24902	-35.80148	-4.88202	-187.1441	34.17414	-17.90074	9.76404	-13.83239	0
90	-135.06922	-106.59077	28.47845	119.60949	-83.80801	-40.6835	2.44101	-167.61602	41.49717	-13.01872	12.20505	-11.39138	0
91	-139.95124	-109.03178	30.91946	122.0505	-86.24902	-40.6835	10.57771	-152.96996	46.37919	-5.69569	17.08707	-6.50936	0
92	-142.39225	-106.59077	35.80148	122.0505	-91.13104	-35.80148	13.01872	-143.20592	51.26121	-3.25468	19.52808	-4.06835	0
93	-144.83326	-101.70875	43.12451	122.0505	-96.01306	-30.91946	15.45973	-140.76491	53.70222	-0.81367	21.96909	-1.62734	0
94	-142.39225	-94.38572	48.00653	117.16848	-96.01306	-22.78276	15.45973	-143.20592	53.70222	-0.81367	21.96909	-1.62734	0
95	-142.39225	-91.94471	50.44754	114.72747	-98.45407	-20.34175	15.45973	-148.08794	53.70222	2.44101	21.96909	-1.62734	0
96	-142.39225	-91.94471	50.44754	114.72747	-98.45407	-20.34175	13.01872	-150.52895	53.70222	2.44101	21.96909	-1.62734	0
97	-144.83326	-91.94471	52.88855	117.16848	-100.89508	-20.34175	13.01872	-148.08794	53.70222	2.44101	21.96909	-1.62734	0
98	-144.83326	-94.38572	50.44754	117.16848	-98.45407	-22.78276	13.01872	-150.52895	53.70222	2.44101	21.96909	-1.62734	0
99	-144.83326	-94.38572	50.44754	117.16848	-98.45407	-22.78276	13.01872	-150.52895	51.26121	2.44101	21.96909	1.62734	0
100	-147.27427	-94.38572	52.88855	119.60949	-100.89508	-20.34175	13.01872	-155.41097	51.26121	-0.81367	24.4101	1.62734	0
101	-149.71528	-94.38572	55.32956	119.60949	-103.33609	-20.34175	13.01872	-157.85198	48.8202	-0.81367	24.4101	1.62734	0
102	-149.71528	-91.94471	57.77057	119.60949	-105.7771	-17.90074	10.57771	-157.85198	46.37919	-3.25468	24.4101	1.62734	0
103	-152.15629	-91.94471	60.21158	119.60949	-108.21811	-15.45973	8.1367	-165.17501	43.93818	-5.69569	21.96909	-1.62734	0
104	-149.71528	-89.5037	60.21158	117.16848	-105.7771	-15.45973	2.44101	-172.49804	41.49717	-10.57771	19.52808	-4.06835	0
105	-144.83326	-84.62168	60.21158	112.28646	-103.33609	-13.01872	2.44101	-179.82107	36.61515	-15.45973	17.08707	-6.50936	0
106	-142.39225	-84.62168	57.77057	112.28646	-100.89508	-13.01872	-2.44101	-182.26208	34.17414	-17.90074	12.20505	-8.95037	0
107	-142.39225	-84.62168	57.77057	112.28646	-100.89508	-13.01872	-7.32303	-182.26208	29.29212	-22.78276	7.32303	-11.39138	0
108	-142.39225	-77.29865	65.0936	107.40444	-105.7771	-5.69569	-12.20505	-189.58511	24.4101	-27.66478	4.88202	-16.2734	0
109	-142.39225	-72.41663	69.97562	104.96343	-108.21811	-0.81367	-17.08707	-194.46713	19.52808	-30.10579	2.44101	-16.2734	0
110	-142.39225	-62.65259	79.73966	100.08141	-113.10013	8.95037	-21.96909	-201.79016	17.08707	-34.98781	0	-16.2734	0
111	-144.83326	-52.88855	91.94471	97.6404	-120.42316	18.71441	-26.85111	-209.11319	9.76404	-37.42882	-2.44101	-16.2734	0
112	-144.83326	-43.12451	101.70875	92.75838	-125.30518	28.47845	-34.17414	-216.43622	4.88202	-39.86983	-2.44101	-16.2734	0
113	-142.39225	-35.80148	106.59077	87.87636	-125.30518	35.80148	-41.49717	-228.64127	-0.81367	-44.75185	-5.69569	-16.2734	0
114	-137.51023	-25.22377	111.47279	80.55333	-125.30518	43.12451	-48.8202	-240.84632	-3.25468	-47.19286	-5.69569	-16.2734	0
115	-132.62821	-15.45973	116.35481	73.2303	-125.30518	50.44754	-56.14323	-250.61036	-8.1367	-49.63387	-5.69569	-18.71441	0
116	-127.74619	-8.1367	118.79582	65.90727	-122.86417	55.32956	-63.46626	-255.49238	-13.01872	-52.07488	-5.69569	-18.71441	0
117	-130.1872	-3.25468	126.11885	65.90727	-127.74619	60.21158	-70.78929	-260.3744	-17.90074	-54.51589	-5.69569	-18.71441	0
118	-130.1872	4.06835	133.44188	61.02525	-132.62821	67.53461	-75.67131	-270.13844	-22.78276	-56.9569	-8.1367	-18.71441	0
119	-127.74619	13.83239	140.76491	56.14323	-135.06922	77.29865	-80.55333	-275.02046	-25.22377	-59.39791	-8.1367	-21.15542	0
120	-125.30518	26.03744	150.52895	48.8202	-137.51023	87.06269	-87.87636	-284.7845	-30.10579	-61.83892	-8.1367	-18.71441	0
121	-125.30518	35.80148	160.29299	43.93818	-142.39225	96.82673	-92.75838	-292.10753	-34.98781	-64.27993	-8.1367	-18.71441	0
122	-122.86417	45.56552	167.61602	36.61515	-144.83326	106.59077	-100.08141	-296.98955	-39.86983	-66.72094	-10.57771	-18.71441	0
123	-120.42316	55.32956	174.93905	31.73313	-147.27427	113.9138	-109.84545	-309.1946	-44.75185	-71.60296	-13.01872	-21.15542	0
124	-115.54114	65.0936	179.82107	23.59643	-147.27427	121.23683	-119.60949	-318.95864	-49.63387	-76.48498	-15.45973	-23.59643	0
125	-108.21811	74.85764	182.26208	16.2734	-144.83326	128.55986	-131.81454	-328.72268	-56.9569	-83.80801	-17.90074	-23.59643	0
126	-100.89508	79.73966	179.82107	8.95037	-139.95124	128.55986	-141.57858	-336.04571	-64.27993	-88.69003	-22.78276	-26.03744	0
127	-98.45407	87.06269	184.70309	4.06835	-142.39225	135.88289	-153.78363	-343.36874	-71.60296	-96.01306	-27.66478	-28.47845	0
128	-93.57205	94.38572	187.1441	-0.81367	-139.95124	140.76491	-163.54767	-350.69177	-81.367	-103.33609	-32.5468	-30.91946	0
129	-88.69003	106.59077	194.46713	-10.57771	-142.39225	150.52895	-173.31171	-358.0148	-88.69003	-108.21811	-37.42882	-30.91946	0
130	-81.367	116.35481	196.90814	-17.90074	-139.95124	155.41097	-183.07575	-365.33783	-96.01306	-115.54114	-39.86983	-33.36047	0
131	-78.92599	126.11885	204.23117	-25.22377	-142.39225	165.17501	-187.95777	-367.77884	-100.89508	-117.98215	-42.31084	-35.80148	0
132	-74.04397	135.88289	209.11319	-32.5468	-142.39225	172.49804	-195.2808	-367.77884	-103.33609	-120.42316	-44.75185	-35.80148	0
133	-69.16195	145.64693	213.99521	-39.86983	-142.39225	179.82107	-197.72181	-372.66086	-105.7771	-122.86417	-44.75185	-35.80148	0
134	-61.83892	155.41097	216.43622	-47.19286	-139.95124	184.70309	-202.60383	-372.66086	-108.21811	-122.86417	-44.75185	-35.80148	0
135	-54.51589	162.734	216.43622	-54.51589	-135.06922	189.58511	-205.04484	-372.66086	-108.21811	-122.86417	-44.75185	-35.80148	0
136	-44.75185	170.05703	213.99521	-64.27993	-130.1872	192.02612	-207.48585	-367.77884	-110.65912	-122.86417	-44.75185	-35.80148	0
137	-42.31084	177.38006	218.87723	-69.16195	-130.1872	196.90814	-207.48585	-358.0148	-110.65912	-120.42316	-44.75185	-33.36047	0
138	-37.42882	182.26208	218.87723	-74.04397	-127.74619	199.34915	-207.48585	-353.13278	-110.65912	-117.98215	-42.31084	-33.36047	0
139	-30.10579	194.46713	223.75925	-83.80801	-127.74619	209.11319	-207.48585	-345.80975	-108.21811	-117.98215	-42.31084	-33.36047	0
140	-25.22377	201.79016	226.20026	-88.69003	-125.30518	213.99521	-207.48585	-340.92773	-105.7771	-117.98215	-42.31084	-33.36047	0
141	-20.34175	209.11319	228.64127	-96.01306	-125.30518	218.87723	-207.48585	-328.72268	-105.7771	-117.98215	-42.31084	-30.91946	0
142	-17.08707	213.99521	231.08228	-98.45407	-125.30518	223.75925	-202.60383	-316.51763	-100.89508	-117.98215	-42.31084	-30.91946	0
143	-9.76404	216.43622	226.20026	-103.33609	-117.98215	221.31824	-200.16282	-306.75359	-98.45407	-117.98215	-42.31084	-30.91946	0
144	0	218.87723	218.87723	-110.65912	-110.65912	218.87723	-200.16282	-294.54854	-98.45407	-120.42316	-44.75185	-33.36047	0
145	7.32303	218.87723	211.5542	-113.10013	-103.33609	216.43622	-197.72181	-284.7845	-98.45407	-120.42316	-44.75185	-35.80148	0
146	17.08707	213.99521	196.90814	-115.54114	-91.13104	206.67218	-195.2808	-267.69743	-98.45407	-120.42316	-47.19286	-35.80148	0
147	21.96909	209.11319	187.1441	-115.54114	-83.80801	199.34915	-190.39878	-248.16935	-96.01306	-117.98215	-44.75185	-35.80148	0
148	29.29212	204.23117	174.93905	-117.98215	-74.04397	189.58511	-187.95777	-233.52329	-93.57205	-115.54114	-42.31084	-35.80148	0
149	34.17414	201.79016	167.61602	-117.98215	-66.72094	184.70309	-183.07575	-216.43622	-88.69003	-113.10013	-42.31084	-35.80148	0
150	41.49717	194.46713	152.96996	-117.98215	-56.9569	174.93905	-178.19373	-201.79016	-86.24902	-110.65912	-42.31084	-35.80148	0
151	43.93818	189.58511	145.64693	-117.98215	-52.07488	167.61602	-170.8707	-182.26208	-81.367	-105.7771	-42.31084	-35.80148	0
152	46.37919	179.82107	133.44188	-113.10013	-44.75185	157.85198	-163.54767	-162.734	-74.04397	-100.89508	-39.86983	-35.80148	0
153	46.37919	172.49804	126.11885	-110.65912	-39.86983	150.52895	-153.78363	-143.20592	-66.72094	-96.01306	-39.86983	-35.80148	0
154	51.26121	162.734	111.47279	-108.21811	-30.10579	138.3239	-146.4606	-123.67784	-59.39791	-91.13104	-39.86983	-35.80148	0
155	58.58424	155.41097	96.82673	-108.21811	-20.34175	126.11885	-136.69656	-104.14976	-54.51589	-86.24902	-39.86983	-35.80148	0
156	63.46626	143.20592	79.73966	-103.33609	-8.1367	111.47279	-126.93252	-77.29865	-47.19286	-81.367	-37.42882	-38.24249	0
157	63.46626	126.11885	62.65259	-96.01306	0	94.38572	-117.16848	-50.44754	-39.86983	-74.04397	-34.98781	-38.24249	0
158	68.34828	111.47279	43.12451	-91.13104	12.20505	77.29865	-104.96343	-23.59643	-30.10579	-69.16195	-32.5468	-38.24249	0
159	73.2303	99.26774	26.03744	-86.24902	24.4101	62.65259	-92.75838	1.62734	-25.22377	-61.83892	-32.5468	-38.24249	0
160	75.67131	87.06269	11.39138	-81.367	31.73313	50.44754	-82.99434	26.03744	-17.90074	-59.39791	-32.5468	-38.24249	0
161	78.11232	72.41663	-5.69569	-76.48498	41.49717	33.36047	-70.78929	52.88855	-10.57771	-52.07488	-32.5468	-38.24249	0
162	75.67131	57.77057	-18.71441	-66.72094	46.37919	21.15542	-58.58424	82.18067	-3.25468	-47.19286	-30.10579	-38.24249	0
163	75.67131	45.56552	-30.91946	-61.83892	53.70222	8.95037	-46.37919	104.14976	4.88202	-39.86983	-27.66478	-35.80148	0
164	75.67131	38.24249	-38.24249	-56.9569	56.14323	1.62734	-36.61515	126.11885	9.76404	-32.5468	-27.66478	-35.80148	0
165	78.11232	26.03744	-52.88855	-52.07488	65.90727	-13.01872	-26.85111	143.20592	17.08707	-27.66478	-25.22377	-33.36047	0
166	78.11232	16.2734	-62.65259	-47.19286	70.78929	-22.78276	-17.08707	165.17501	24.4101	-22.78276	-22.78276	-30.91946	0
167	75.67131	1.62734	-74.85764	-39.86983	75.67131	-35.80148	-4.88202	187.1441	34.17414	-17.90074	-17.90074	-28.47845	0
168	73.2303	-8.1367	-82.18067	-32.5468	78.11232	-45.56552	2.44101	201.79016	41.49717	-10.57771	-15.45973	-26.03744	0
169	73.2303	-13.01872	-87.06269	-30.10579	80.55333	-50.44754	13.01872	216.43622	48.8202	-5.69569	-10.57771	-21.15542	0
170	70.78929	-20.34175	-91.94471	-25.22377	80.55333	-55.32956	25.22377	228.64127	58.58424	2.44101	-5.69569	-18.71441	0
171	65.90727	-27.66478	-94.38572	-20.34175	80.55333	-60.21158	37.42882	243.28733	70.78929	14.64606	0	-13.83239	0
172	61.02525	-32.5468	-94.38572	-15.45973	78.11232	-62.65259	49.63387	255.49238	78.11232	21.96909	7.32303	-8.95037	0
173	56.14323	-38.24249	-94.38572	-10.57771	73.2303	-65.0936	59.39791	262.81541	87.87636	31.73313	12.20505	-4.06835	0
174	53.70222	-43.12451	-96.82673	-5.69569	73.2303	-69.97562	71.60296	270.13844	95.19939	39.05616	17.08707	-1.62734	0
175	51.26121	-48.00653	-99.26774	-3.25468	73.2303	-72.41663	78.92599	272.57945	100.08141	43.93818	19.52808	-1.62734	0
176	48.8202	-55.32956	-104.14976	1.62734	75.67131	-79.73966	83.80801	277.46147	102.52242	46.37919	19.52808	-1.62734	0
177	41.49717	-69.97562	-111.47279	13.83239	75.67131	-89.5037	88.69003	282.34349	104.96343	48.8202	19.52808	1.62734	0
178	36.61515	-77.29865	-113.9138	18.71441	73.2303	-94.38572	91.13104	279.90248	104.96343	48.8202	19.52808	1.62734	0
179	31.73313	-84.62168	-116.35481	26.03744	73.2303	-99.26774	91.13104	279.90248	102.52242	48.8202	19.52808	1.62734	0
180	26.85111	-94.38572	-121.23683	31.73313	73.2303	-106.59077	93.57205	277.46147	102.52242	48.8202	19.52808	4.06835	0
181	21.96909	-104.14976	-126.11885	39.05616	73.2303	-113.9138	96.01306	277.46147	102.52242	48.8202	21.96909	4.06835	0
182	14.64606	-113.9138	-128.55986	48.8202	70.78929	-121.23683	98.45407	275.02046	102.52242	48.8202	21.96909	4.06835	0
183	12.20505	-123.67784	-135.88289	53.70222	73.2303	-128.55986	98.45407	270.13844	102.52242	46.37919	19.52808	4.06835	0
184	9.76404	-131.00087	-140.76491	58.58424	73.2303	-135.88289	100.89508	265.25642	100.08141	41.49717	21.96909	1.62734	0
185	7.32303	-140.76491	-148.08794	65.90727	75.67131	-143.20592	100.89508	257.93339	95.19939	39.05616	21.96909	-1.62734	0
186	7.32303	-152.96996	-160.29299	70.78929	82.99434	-155.41097	98.45407	253.05137	90.31737	31.73313	21.96909	-4.06835	0
187	2.44101	-167.61602	-170.05703	80.55333	85.43535	-167.61602	96.01306	245.72834	82.99434	29.29212	21.96909	-4.06835	0
188	-2.44101	-177.38006	-174.93905	87.87636	85.43535	-174.93905	93.57205	235.9643	78.11232	24.4101	24.4101	-8.95037	0
189	-7.32303	-184.70309	-177.38006	95.19939	82.99434	-179.82107	88.69003	221.31824	73.2303	19.52808	26.85111	-11.39138	0
190	-14.64606	-189.58511	-174.93905	100.08141	78.11232	-182.26208	86.24902	206.67218	68.34828	19.52808	26.85111	-13.83239	0
191	-20.34175	-196.90814	-177.38006	107.40444	78.11232	-187.1441	83.80801	194.46713	63.46626	17.08707	26.85111	-13.83239	0
192	-30.10579	-201.79016	-172.49804	114.72747	70.78929	-187.1441	83.80801	184.70309	63.46626	17.08707	26.85111	-13.83239	0
193	-34.98781	-209.11319	-174.93905	119.60949	68.34828	-192.02612	83.80801	172.49804	63.46626	17.08707	26.85111	-13.83239	0
194	-37.42882	-211.5542	-174.93905	122.0505	68.34828	-194.46713	83.80801	165.17501	58.58424	17.08707	26.85111	-13.83239	0
195	-37.42882	-213.99521	-177.38006	124.49151	68.34828	-196.90814	86.24902	157.85198	58.58424	17.08707	29.29212	-11.39138	0
196	-37.42882	-221.31824	-184.70309	126.93252	73.2303	-204.23117	88.69003	157.85198	58.58424	17.08707	29.29212	-8.95037	0
197	-39.86983	-228.64127	-189.58511	131.81454	73.2303	-209.11319	88.69003	157.85198	56.14323	17.08707	26.85111	-8.95037	0
198	-42.31084	-231.08228	-189.58511	134.25555	73.2303	-211.5542	88.69003	157.85198	56.14323	17.08707	26.85111	-8.95037	0
199	-44.75185	-233.52329	-189.58511	136.69656	70.78929	-211.5542	88.69003	155.41097	56.14323	17.08707	29.29212	-8.95037	0
200	-47.19286	-235.9643	-189.58511	139.13757	70.78929	-213.99521	88.69003	150.52895	56.14323	19.52808	29.29212	-8.95037	0
201	-52.07488	-240.84632	-189.58511	144.01959	68.34828	-216.43622	88.69003	145.64693	56.14323	19.52808	29.29212	-6.50936	0
202	-59.39791	-243.28733	-184.70309	148.90161	61.02525	-213.99521	88.69003	138.3239	56.14323	19.52808	29.29212	-6.50936	0
203	-64.27993	-245.72834	-182.26208	153.78363	58.58424	-213.99521	91.13104	133.44188	56.14323	21.96909	26.85111	-6.50936	0
204	-64.27993	-248.16935	-184.70309	153.78363	58.58424	-216.43622	91.13104	128.55986	58.58424	24.4101	29.29212	-6.50936	0
205	-64.27993	-250.61036	-187.1441	156.22464	61.02525	-218.87723	91.13104	121.23683	61.02525	24.4101	29.29212	-6.50936	0
206	-64.27993	-255.49238	-192.02612	158.66565	63.46626	-223.75925	96.01306	123.67784	61.02525	26.85111	29.29212	-4.06835	0
207	-66.72094	-262.81541	-196.90814	163.54767	63.46626	-231.08228	98.45407	126.11885	61.02525	26.85111	29.29212	-4.06835	0
208	-69.16195	-267.69743	-199.34915	165.98868	63.46626	-233.52329	103.33609	123.67784	65.90727	29.29212	31.73313	-1.62734	0
209	-69.16195	-267.69743	-199.34915	165.98868	63.46626	-233.52329	105.7771	123.67784	68.34828	34.17414	34.17414	-1.62734	0
210	-71.60296	-267.69743	-196.90814	168.42969	61.02525	-233.52329	110.65912	118.79582	68.34828	36.61515	34.17414	-1.62734	0
211	-76.48498	-267.69743	-192.02612	170.8707	56.14323	-231.08228	110.65912	116.35481	68.34828	36.61515	39.05616	-1.62734	0
212	-76.48498	-262.81541	-187.1441	168.42969	53.70222	-226.20026	113.10013	113.9138	70.78929	39.05616	39.05616	-1.62734	0
213	-76.48498	-257.93339	-182.26208	165.98868	51.26121	-221.31824	113.10013	106.59077	70.78929	39.05616	41.49717	-1.62734	0
214	-71.60296	-253.05137	-182.26208	161.10666	53.70222	-218.87723	113.10013	104.14976	70.78929	41.49717	43.93818	1.62734	0
215	-64.27993	-250.61036	-187.1441	156.22464	61.02525	-218.87723	110.65912	101.70875	68.34828	41.49717	46.37919	1.62734	0
216	-59.39791	-253.05137	-194.46713	153.78363	65.90727	-223.75925	110.65912	104.14976	68.34828	39.05616	46.37919	1.62734	0
217	-59.39791	-253.05137	-194.46713	153.78363	65.90727	-223.75925	110.65912	109.03178	68.34828	39.05616	46.37919	1.62734	0
218	-59.39791	-255.49238	-196.90814	156.22464	68.34828	-226.20026	115.54114	111.47279	73.2303	43.93818	51.26121	6.50936	0
219	-59.39791	-253.05137	-194.46713	153.78363	65.90727	-223.75925	120.42316	116.35481	75.67131	48.8202	53.70222	8.95037	0
220	-59.39791	-250.61036	-192.02612	153.78363	65.90727	-221.31824	122.86417	116.35481	80.55333	53.70222	56.14323	11.39138	0
221	-61.83892	-248.16935	-187.1441	153.78363	61.02525	-218.87723	127.74619	118.79582	85.43535	58.58424	61.02525	13.83239	0
222	-66.72094	-240.84632	-174.93905	151.34262	53.70222	-209.11319	135.06922	121.23683	90.31737	63.46626	63.46626	16.2734	0
223	-71.60296	-235.9643	-165.17501	151.34262	46.37919	-201.79016	137.51023	123.67784	95.19939	68.34828	68.34828	18.71441	0
224	-66.72094	-231.08228	-165.17501	146.4606	48.8202	-199.34915	142.39225	126.11885	97.6404	73.2303	68.34828	21.15542	0
225	-61.83892	-226.20026	-165.17501	141.57858	51.26121	-196.90814	142.39225	126.11885	100.08141	73.2303	70.78929	21.15542	0
226	-56.9569	-226.20026	-170.05703	139.13757	56.14323	-199.34915	144.83326	133.44188	100.08141	73.2303	70.78929	18.71441	0
227	-56.9569	-226.20026	-170.05703	139.13757	56.14323	-199.34915	144.83326	143.20592	102.52242	73.2303	70.78929	18.71441	0
228	-54.51589	-226.20026	-172.49804	139.13757	58.58424	-199.34915	147.27427	150.52895	102.52242	75.67131	70.78929	18.71441	0
229	-52.07488	-221.31824	-170.05703	134.25555	58.58424	-196.90814	149.71528	155.41097	104.96343	75.67131	68.34828	18.71441	0
230	-49.63387	-216.43622	-167.61602	131.81454	58.58424	-192.02612	152.15629	155.41097	104.96343	78.11232	68.34828	18.71441	0
231	-49.63387	-213.99521	-165.17501	129.37353	56.14323	-189.58511	154.5973	160.29299	109.84545	80.55333	68.34828	18.71441	0
232	-52.07488	-211.5542	-160.29299	129.37353	53.70222	-187.1441	159.47932	165.17501	112.28646	82.99434	68.34828	21.15542	0
233	-54.51589	-211.5542	-157.85198	131.81454	51.26121	-184.70309	161.92033	165.17501	114.72747	87.87636	68.34828	21.15542	0
234	-49.63387	-211.5542	-162.734	129.37353	56.14323	-187.1441	161.92033	172.49804	117.16848	90.31737	68.34828	21.15542	0
235	-44.75185	-218.87723	-174.93905	129.37353	63.46626	-196.90814	166.80235	184.70309	119.60949	92.75838	68.34828	21.15542	0
236	-39.86983	-231.08228	-192.02612	134.25555	75.67131	-211.5542	174.12538	209.11319	124.49151	97.6404	68.34828	23.59643	0
237	-44.75185	-245.72834	-201.79016	144.01959	78.11232	-223.75925	186.33043	250.61036	131.81454	104.96343	73.2303	23.59643	0
238	-47.19286	-255.49238	-209.11319	148.90161	80.55333	-233.52329	200.97649	294.54854	144.01959	112.28646	75.67131	23.59643	0
239	-52.07488	-265.25642	-213.99521	156.22464	80.55333	-240.84632	225.38659	353.13278	163.54767	124.49151	82.99434	28.47845	0
240	-59.39791	-275.02046	-216.43622	165.98868	78.11232	-245.72834	259.56073	421.48106	190.39878	146.4606	95.19939	35.80148	0
241	-69.16195	-279.90248	-211.5542	173.31171	70.78929	-245.72834	296.17588	504.4754	222.13191	168.42969	109.84545	45.56552	0
242	-78.92599	-277.46147	-199.34915	175.75272	58.58424	-238.40531	332.79103	594.79277	256.30605	195.2808	126.93252	55.32956	0
243	-78.92599	-267.69743	-189.58511	170.8707	53.70222	-228.64127	369.40618	692.43317	290.48019	222.13191	144.01959	65.0936	0
244	-64.27993	-248.16935	-184.70309	153.78363	58.58424	-216.43622	403.58032	802.27862	324.65433	248.98302	158.66565	74.85764	0
245	-34.98781	-218.87723	-184.70309	124.49151	73.2303	-201.79016	427.99042	929.21114	349.06443	266.07009	165.98868	77.29865	0
246	12.20505	-179.82107	-192.02612	82.99434	100.08141	-184.70309	442.63648	1070.78972	363.71049	273.39312	165.98868	72.41663	0
247	70.78929	-128.55986	-199.34915	26.03744	134.25555	-162.734	442.63648	1231.89638	366.1515	270.95211	153.78363	60.21158	0
248	151.34262	-65.0936	-216.43622	-44.75185	183.07575	-140.76491	432.87244	1407.6491	358.82847	258.74706	131.81454	35.80148	0
249	248.98302	11.39138	-238.40531	-130.1872	244.101	-113.9138	413.34436	1607.81192	344.18241	234.33696	100.08141	1.62734	0
250	356.38746	94.38572	-262.81541	-225.38659	310.00827	-84.62168	388.93426	1814.4841	319.77231	205.04484	61.02525	-33.36047	0
251	461.35089	179.82107	-282.34349	-320.58598	371.03352	-50.44754	359.64214	2017.08793	290.48019	170.8707	19.52808	-77.29865	0
252	561.4323	270.13844	-292.10753	-415.78537	427.17675	-10.57771	323.02699	2173.31257	256.30605	134.25555	-20.34175	-118.79582	0
253	659.0727	360.45581	-299.43056	-510.98476	478.43796	30.91946	276.6478	2251.42489	214.80888	92.75838	-61.83892	-157.85198	0
254	734.74401	462.97823	-272.57945	-598.86112	502.84806	96.82673	215.62255	2217.25075	170.8707	53.70222	-96.01306	-187.1441	0
255	781.1232	567.94166	-213.99521	-674.53243	497.96604	177.38006	144.83326	2041.49803	117.16848	17.08707	-117.98215	-204.23117	0
256	798.21027	663.14105	-135.88289	-730.67566	466.23291	265.25642	56.9569	1729.04875	58.58424	-20.34175	-135.06922	-211.5542	0
257	783.56421	748.5764	-35.80148	-767.29081	410.08968	358.0148	-39.05616	1288.03961	-5.69569	-56.9569	-147.27427	-209.11319	0
258	744.50805	816.92468	72.41663	-781.93687	336.85938	445.89116	-148.90161	716.84327	-78.92599	-98.45407	-154.5973	-199.34915	0
259	678.60078	870.6269	192.02612	-774.61384	244.101	531.32651	-251.42403	104.14976	-152.15629	-135.06922	-154.5973	-182.26208	0
260	593.16543	897.47801	304.31258	-745.32172	144.01959	602.1158	-339.30039	-477.62429	-215.62255	-166.80235	-154.5973	-160.29299	0
261	502.84806	890.15498	387.30692	-696.50152	58.58424	638.73095	-405.20766	-970.70831	-269.32477	-193.65346	-152.15629	-140.76491	0
262	407.64867	860.86286	453.21419	-635.47627	-22.78276	658.25903	-444.26382	-1351.50587	-305.93992	-210.74053	-144.83326	-118.79582	0
263	312.44928	809.60165	497.15237	-562.24597	-93.57205	653.37701	-458.90988	-1617.57596	-327.90901	-215.62255	-132.62821	-96.82673	0
264	224.57292	751.01741	526.44449	-489.01567	-152.15629	638.73095	-444.26382	-1746.94949	-325.468	-205.85851	-115.54114	-69.97562	0
265	141.57858	677.78711	536.20853	-410.90335	-198.53548	606.99782	-402.76665	-1751.83151	-303.49891	-183.88942	-91.13104	-45.56552	0
266	65.90727	594.79277	528.8855	-330.35002	-232.70962	563.05964	-356.38746	-1695.68828	-274.20679	-157.03831	-64.27993	-18.71441	0
267	-4.88202	509.35742	514.23944	-252.2377	-259.56073	511.79843	-310.00827	-1602.9299	-249.79669	-135.06922	-44.75185	-1.62734	0
268	-61.83892	423.92207	484.94732	-181.44841	-274.20679	453.21419	-270.95211	-1505.2895	-230.26861	-120.42316	-34.98781	6.50936	0
269	-110.65912	345.80975	455.6552	-117.98215	-283.97083	399.51197	-239.21898	-1405.20809	-218.06356	-110.65912	-27.66478	11.39138	0
270	-144.83326	277.46147	421.48106	-66.72094	-283.97083	348.25076	-214.80888	-1312.44971	-210.74053	-108.21811	-27.66478	11.39138	0
271	-166.80235	216.43622	382.4249	-25.22377	-274.20679	299.43056	-205.04484	-1219.69133	-213.18154	-110.65912	-34.98781	6.50936	0
272	-181.44841	165.17501	345.80975	6.50936	-264.44275	255.49238	-200.16282	-1124.49194	-215.62255	-117.98215	-44.75185	-1.62734	0
273	-183.88942	121.23683	304.31258	29.29212	-244.91467	211.5542	-195.2808	-1029.29255	-215.62255	-120.42316	-49.63387	-4.06835	0
274	-179.0074	82.18067	260.3744	46.37919	-220.50457	170.05703	-183.07575	-929.21114	-203.4175	-115.54114	-47.19286	-4.06835	0
275	-171.68437	48.00653	218.87723	61.02525	-196.09447	133.44188	-165.98868	-826.68872	-183.88942	-100.89508	-39.86983	-1.62734	0
276	-161.92033	16.2734	177.38006	70.78929	-169.24336	96.82673	-144.01959	-721.72529	-161.92033	-83.80801	-27.66478	4.06835	0
277	-159.47932	-8.1367	150.52895	82.99434	-154.5973	69.97562	-122.0505	-621.64388	-137.51023	-66.72094	-15.45973	11.39138	0
278	-152.15629	-27.66478	123.67784	87.87636	-137.51023	48.00653	-97.6404	-538.64954	-113.10013	-47.19286	-5.69569	16.2734	0
279	-144.83326	-38.24249	106.59077	90.31737	-127.74619	33.36047	-75.67131	-462.97823	-88.69003	-27.66478	4.88202	21.15542	0
280	-139.95124	-50.44754	89.5037	92.75838	-115.54114	18.71441	-53.70222	-406.835	-69.16195	-13.01872	14.64606	23.59643	0
281	-137.51023	-60.21158	77.29865	97.6404	-108.21811	8.95037	-34.17414	-358.0148	-52.07488	-0.81367	21.96909	26.03744	0
282	-139.95124	-69.97562	69.97562	102.52242	-105.7771	-0.81367	-19.52808	-321.39965	-37.42882	9.76404	26.85111	28.47845	0
283	-139.95124	-82.18067	57.77057	109.84545	-100.89508	-13.01872	-7.32303	-292.10753	-25.22377	17.08707	29.29212	26.03744	0
284	-139.95124	-94.38572	45.56552	114.72747	-93.57205	-26.03744	5.69569	-267.69743	-13.01872	24.4101	31.73313	26.03744	0
285	-137.51023	-109.03178	28.47845	122.0505	-83.80801	-40.6835	17.90074	-245.72834	-3.25468	34.17414	36.61515	26.03744	0
286	-137.51023	-121.23683	16.2734	126.93252	-78.92599	-52.88855	27.66478	-223.75925	4.88202	39.05616	41.49717	28.47845	0
287	-142.39225	-128.55986	13.83239	134.25555	-78.92599	-57.77057	34.98781	-206.67218	9.76404	43.93818	43.93818	28.47845	0
288	-144.83326	-131.00087	13.83239	136.69656	-81.367	-60.21158	39.86983	-196.90814	14.64606	48.8202	48.8202	33.36047	0
289	-147.27427	-126.11885	21.15542	134.25555	-86.24902	-52.88855	39.86983	-194.46713	17.08707	53.70222	51.26121	35.80148	0
290	-149.71528	-121.23683	28.47845	134.25555	-91.13104	-48.00653	42.31084	-196.90814	19.52808	56.14323	56.14323	38.24249	0
291	-154.5973	-116.35481	38.24249	134.25555	-98.45407	-40.6835	44.75185	-199.34915	19.52808	58.58424	58.58424	40.6835	0
292	-159.47932	-111.47279	48.00653	134.25555	-105.7771	-33.36047	44.75185	-204.23117	19.52808	58.58424	58.58424	40.6835	0
293	-159.47932	-109.03178	50.44754	131.81454	-105.7771	-30.91946	44.75185	-211.5542	19.52808	58.58424	58.58424	40.6835	0
294	-157.03831	-106.59077	50.44754	129.37353	-105.7771	-28.47845	44.75185	-216.43622	19.52808	63.46626	58.58424	40.6835	0
295	-152.15629	-106.59077	45.56552	126.93252	-100.89508	-30.91946	44.75185	-221.31824	21.96909	63.46626	58.58424	43.12451	0
296	-144.83326	-109.03178	35.80148	124.49151	-91.13104	-38.24249	44.75185	-221.31824	19.52808	65.90727	58.58424	43.12451	0
297	-147.27427	-111.47279	35.80148	126.93252	-93.57205	-38.24249	42.31084	-221.31824	17.08707	63.46626	56.14323	40.6835	0
298	-144.83326	-111.47279	33.36047	126.93252	-91.13104	-40.6835	39.86983	-228.64127	17.08707	63.46626	53.70222	40.6835	0
299	-144.83326	-106.59077	38.24249	124.49151	-93.57205	-35.80148	39.86983	-233.52329	14.64606	61.02525	53.70222	40.6835	0
300	-142.39225	-101.70875	40.6835	119.60949	-93.57205	-30.91946	39.86983	-243.28733	14.64606	61.02525	53.70222	38.24249	0
301	-144.83326	-99.26774	45.56552	119.60949	-96.01306	-28.47845	37.42882	-248.16935	14.64606	58.58424	48.8202	33.36047	0
302	-147.27427	-91.94471	55.32956	117.16848	-103.33609	-17.90074	37.42882	-253.05137	12.20505	56.14323	46.37919	28.47845	0
303	-144.83326	-89.5037	55.32956	114.72747	-100.89508	-17.90074	32.5468	-260.3744	9.76404	56.14323	43.93818	26.03744	0
304	-139.95124	-82.18067	57.77057	109.84545	-100.89508	-13.01872	27.66478	-267.69743	7.32303	53.70222	39.05616	23.59643	0
305	-132.62821	-72.41663	60.21158	100.08141	-98.45407	-5.69569	20.34175	-275.02046	-0.81367	51.26121	36.61515	21.15542	0
306	-127.74619	-67.53461	60.21158	95.19939	-96.01306	-3.25468	10.57771	-277.46147	-3.25468	46.37919	31.73313	18.71441	0
307	-127.74619	-60.21158	67.53461	92.75838	-98.45407	4.06835	0	-282.34349	-10.57771	41.49717	29.29212	16.2734	0
308	-122.86417	-50.44754	72.41663	85.43535	-98.45407	11.39138	-9.76404	-289.66652	-15.45973	36.61515	26.85111	11.39138	0
309	-120.42316	-38.24249	82.18067	78.11232	-103.33609	21.15542	-19.52808	-294.54854	-22.78276	29.29212	24.4101	11.39138	0
310	-117.98215	-27.66478	89.5037	70.78929	-103.33609	30.91946	-31.73313	-306.75359	-32.5468	24.4101	19.52808	8.95037	0
311	-115.54114	-20.34175	94.38572	65.90727	-105.7771	35.80148	-41.49717	-316.51763	-39.86983	17.08707	17.08707	6.50936	0
312	-115.54114	-10.57771	104.14976	61.02525	-110.65912	45.56552	-48.8202	-323.84066	-44.75185	12.20505	17.08707	6.50936	0
313	-110.65912	-5.69569	104.14976	56.14323	-108.21811	48.00653	-58.58424	-333.6047	-49.63387	7.32303	14.64606	4.06835	0
314	-103.33609	1.62734	104.14976	48.8202	-103.33609	52.88855	-68.34828	-340.92773	-56.9569	-0.81367	12.20505	4.06835	0
315	-96.01306	6.50936	101.70875	43.93818	-98.45407	52.88855	-75.67131	-348.25076	-64.27993	-3.25468	9.76404	1.62734	0
316	-91.13104	11.39138	101.70875	39.05616	-96.01306	55.32956	-85.43535	-350.69177	-69.16195	-8.1367	9.76404	-1.62734	0
317	-91.13104	18.71441	109.03178	34.17414	-100.89508	62.65259	-90.31737	-348.25076	-74.04397	-8.1367	7.32303	-1.62734	0
318	-91.13104	30.91946	121.23683	29.29212	-105.7771	74.85764	-95.19939	-350.69177	-78.92599	-13.01872	4.88202	-1.62734	0
319	-93.57205	45.56552	138.3239	23.59643	-115.54114	91.94471	-102.52242	-353.13278	-83.80801	-15.45973	2.44101	-1.62734	0
320	-96.01306	57.77057	152.96996	18.71441	-125.30518	104.14976	-107.40444	-360.45581	-86.24902	-17.90074	2.44101	-1.62734	0
321	-96.01306	72.41663	167.61602	11.39138	-132.62821	118.79582	-109.84545	-367.77884	-91.13104	-20.34175	2.44101	-1.62734	0
322	-96.01306	84.62168	179.82107	4.06835	-137.51023	131.00087	-114.72747	-372.66086	-93.57205	-22.78276	0	-1.62734	0
323	-86.24902	91.94471	177.38006	-3.25468	-132.62821	133.44188	-119.60949	-379.98389	-98.45407	-25.22377	-5.69569	-1.62734	0
324	-76.48498	101.70875	177.38006	-13.01872	-127.74619	138.3239	-126.93252	-382.4249	-103.33609	-30.10579	-5.69569	-1.62734	0
325	-66.72094	109.03178	174.93905	-22.78276	-120.42316	140.76491	-134.25555	-382.4249	-108.21811	-34.98781	-8.1367	-6.50936	0
326	-56.9569	113.9138	170.05703	-30.10579	-113.10013	140.76491	-139.13757	-379.98389	-113.10013	-37.42882	-10.57771	-8.95037	0
327	-52.07488	118.79582	170.05703	-34.98781	-110.65912	143.20592	-144.01959	-372.66086	-117.98215	-42.31084	-13.01872	-13.83239	0
328	-44.75185	128.55986	172.49804	-42.31084	-108.21811	150.52895	-148.90161	-370.21985	-122.86417	-44.75185	-17.90074	-18.71441	0
329	-42.31084	135.88289	177.38006	-47.19286	-110.65912	155.41097	-153.78363	-365.33783	-125.30518	-49.63387	-17.90074	-21.15542	0
330	-42.31084	145.64693	187.1441	-52.07488	-115.54114	165.17501	-156.22464	-362.89682	-125.30518	-49.63387	-15.45973	-23.59643	0
331	-39.86983	150.52895	189.58511	-56.9569	-115.54114	170.05703	-156.22464	-358.0148	-125.30518	-47.19286	-15.45973	-21.15542	0
332	-37.42882	160.29299	196.90814	-61.83892	-117.98215	177.38006	-158.66565	-353.13278	-125.30518	-47.19286	-13.01872	-21.15542	0
333	-30.10579	167.61602	196.90814	-69.16195	-113.10013	182.26208	-161.10666	-348.25076	-127.74619	-47.19286	-13.01872	-21.15542	0
334	-20.34175	172.49804	192.02612	-76.48498	-105.7771	182.26208	-163.54767	-336.04571	-127.74619	-47.19286	-13.01872	-21.15542	0
335	-12.20505	177.38006	189.58511	-83.80801	-100.89508	184.70309	-163.54767	-323.84066	-127.74619	-47.19286	-13.01872	-21.15542	0
336	-2.44101	179.82107	182.26208	-88.69003	-93.57205	182.26208	-163.54767	-306.75359	-127.74619	-47.19286	-17.90074	-23.59643	0
337	2.44101	184.70309	182.26208	-93.57205	-91.13104	184.70309	-163.54767	-289.66652	-127.74619	-52.07488	-22.78276	-28.47845	0
338	9.76404	187.1441	177.38006	-98.45407	-83.80801	182.26208	-158.66565	-270.13844	-127.74619	-52.07488	-25.22377	-33.36047	0
339	14.64606	187.1441	172.49804	-100.89508	-78.92599	179.82107	-156.22464	-250.61036	-127.74619	-54.51589	-27.66478	-35.80148	0
340	17.08707	184.70309	167.61602	-100.89508	-76.48498	177.38006	-153.78363	-233.52329	-125.30518	-54.51589	-32.5468	-38.24249	0
341	24.4101	182.26208	157.85198	-103.33609	-66.72094	170.05703	-148.90161	-216.43622	-120.42316	-54.51589	-32.5468	-40.6835	0
342	29.29212	179.82107	150.52895	-105.7771	-61.83892	165.17501	-144.01959	-196.90814	-115.54114	-49.63387	-32.5468	-43.12451	0
343	39.05616	172.49804	133.44188	-105.7771	-47.19286	152.96996	-139.13757	-177.38006	-113.10013	-49.63387	-32.5468	-43.12451	0
344	48.8202	165.17501	116.35481	-108.21811	-34.98781	140.76491	-134.25555	-155.41097	-110.65912	-47.19286	-32.5468	-45.56552	0
345	58.58424	160.29299	101.70875	-110.65912	-22.78276	131.00087	-131.81454	-133.44188	-108.21811	-47.19286	-37.42882	-48.00653	0
346	70.78929	157.85198	87.06269	-115.54114	-8.1367	123.67784	-124.49151	-106.59077	-103.33609	-42.31084	-37.42882	-48.00653	0
347	70.78929	152.96996	82.18067	-113.10013	-5.69569	118.79582	-119.60949	-79.73966	-96.01306	-39.86983	-37.42882	-48.00653	0
348	73.2303	145.64693	72.41663	-110.65912	0	109.03178	-112.28646	-52.88855	-91.13104	-34.98781	-34.98781	-50.44754	0
349	75.67131	138.3239	62.65259	-108.21811	7.32303	101.70875	-104.96343	-23.59643	-86.24902	-32.5468	-34.98781	-50.44754	0
350	75.67131	131.00087	55.32956	-103.33609	9.76404	94.38572	-95.19939	1.62734	-78.92599	-27.66478	-34.98781	-50.44754	0
351	78.11232	118.79582	40.6835	-98.45407	19.52808	79.73966	-85.43535	28.47845	-71.60296	-22.78276	-32.5468	-50.44754	0
352	75.67131	109.03178	33.36047	-93.57205	21.96909	72.41663	-75.67131	57.77057	-64.27993	-17.90074	-32.5468	-50.44754	0
353	80.55333	94.38572	13.83239	-88.69003	34.17414	55.32956	-68.34828	87.06269	-56.9569	-15.45973	-32.5468	-50.44754	0
354	87.87636	84.62168	-3.25468	-86.24902	46.37919	40.6835	-58.58424	116.35481	-49.63387	-13.01872	-32.5468	-50.44754	0
355	95.19939	69.97562	-26.03744	-83.80801	61.02525	23.59643	-48.8202	150.52895	-39.86983	-8.1367	-30.10579	-50.44754	0
356	100.08141	55.32956	-45.56552	-78.92599	73.2303	6.50936	-39.05616	179.82107	-34.98781	-3.25468	-30.10579	-50.44754	0
357	100.08141	48.00653	-52.88855	-74.04397	75.67131	-0.81367	-31.73313	209.11319	-27.66478	-0.81367	-25.22377	-45.56552	0
358	100.08141	38.24249	-62.65259	-69.16195	80.55333	-10.57771	-21.96909	235.9643	-17.90074	4.88202	-22.78276	-43.12451	0
359	97.6404	28.47845	-69.97562	-64.27993	82.99434	-20.34175	-9.76404	257.93339	-10.57771	12.20505	-17.90074	-40.6835	0
360	92.75838	16.2734	-77.29865	-54.51589	85.43535	-30.91946	0	275.02046	-0.81367	19.52808	-15.45973	-38.24249	0
361	87.87636	4.06835	-84.62168	-47.19286	85.43535	-40.6835	10.57771	292.10753	4.88202	26.85111	-13.01872	-35.80148	0
362	82.99434	-8.1367	-91.94471	-37.42882	87.87636	-50.44754	20.34175	304.31258	14.64606	31.73313	-10.57771	-35.80148	0
363	80.55333	-25.22377	-106.59077	-27.66478	92.75838	-65.0936	32.5468	314.07662	24.4101	39.05616	-8.1367	-33.36047	0
364	78.11232	-40.6835	-118.79582	-20.34175	97.6404	-79.73966	44.75185	323.84066	31.73313	43.93818	-5.69569	-30.91946	0
365	75.67131	-57.77057	-133.44188	-10.57771	102.52242	-94.38572	54.51589	331.16369	39.05616	48.8202	-2.44101	-30.91946	0
366	73.2303	-74.85764	-148.08794	-0.81367	109.84545	-111.47279	64.27993	338.48672	46.37919	53.70222	-2.44101	-30.91946	0
367	63.46626	-89.5037	-152.96996	11.39138	107.40444	-121.23683	71.60296	340.92773	51.26121	56.14323	-2.44101	-30.91946	0
368	51.26121	-99.26774	-150.52895	23.59643	100.08141	-123.67784	76.48498	340.92773	56.14323	58.58424	-2.44101	-30.91946	0
369	41.49717	-109.03178	-150.52895	31.73313	95.19939	-128.55986	83.80801	338.48672	58.58424	63.46626	-2.44101	-30.91946	0
370	29.29212	-118.79582	-148.08794	43.93818	87.87636	-133.44188	91.13104	328.72268	63.46626	65.90727	0	-28.47845	0
371	19.52808	-123.67784	-143.20592	51.26121	80.55333	-133.44188	96.01306	318.95864	68.34828	68.34828	2.44101	-26.03744	0
372	9.76404	-128.55986	-138.3239	58.58424	73.2303	-133.44188	98.45407	309.1946	70.78929	73.2303	7.32303	-23.59643	0
373	4.88202	-135.88289	-140.76491	63.46626	70.78929	-138.3239	100.89508	296.98955	73.2303	75.67131	9.76404	-18.71441	0
374	4.88202	-140.76491	-145.64693	65.90727	73.2303	-143.20592	105.7771	287.22551	73.2303	75.67131	9.76404	-16.2734	0
375	2.44101	-148.08794	-150.52895	70.78929	75.67131	-148.08794	108.21811	279.90248	75.67131	78.11232	12.20505	-13.83239	0
376	2.44101	-155.41097	-157.85198	75.67131	78.11232	-155.41097	110.65912	272.57945	75.67131	80.55333	12.20505	-11.39138	0
377	-4.88202	-162.734	-157.85198	82.99434	75.67131	-160.29299	110.65912	267.69743	75.67131	80.55333	14.64606	-8.95037	0
378	-9.76404	-165.17501	-155.41097	85.43535	70.78929	-160.29299	113.10013	257.93339	78.11232	80.55333	17.08707	-6.50936	0
379	-17.08707	-167.61602	-150.52895	90.31737	65.90727	-157.85198	115.54114	245.72834	78.11232	82.99434	19.52808	-1.62734	0
380	-25.22377	-172.49804	-148.08794	97.6404	61.02525	-160.29299	117.98215	235.9643	78.11232	85.43535	21.96909	-1.62734	0
381	-32.5468	-177.38006	-145.64693	102.52242	56.14323	-162.734	117.98215	223.75925	80.55333	85.43535	24.4101	-1.62734	0
382	-37.42882	-177.38006	-140.76491	104.96343	51.26121	-160.29299	117.98215	213.99521	80.55333	82.99434	24.4101	-1.62734	0
383	-39.86983	-182.26208	-143.20592	109.84545	51.26121	-162.734	117.98215	204.23117	78.11232	80.55333	21.96909	-1.62734	0
384	-37.42882	-187.1441	-150.52895	109.84545	56.14323	-170.05703	113.10013	199.34915	75.67131	80.55333	19.52808	-4.06835	0
385	-37.42882	-194.46713	-157.85198	114.72747	58.58424	-177.38006	113.10013	194.46713	73.2303	78.11232	17.08707	-4.06835	0
386	-32.5468	-201.79016	-170.05703	114.72747	68.34828	-187.1441	110.65912	192.02612	73.2303	75.67131	14.64606	-6.50936	0
387	-37.42882	-206.67218	-170.05703	119.60949	65.90727	-189.58511	110.65912	187.1441	73.2303	75.67131	14.64606	-6.50936	0
388	-42.31084	-209.11319	-167.61602	124.49151	61.02525	-189.58511	110.65912	179.82107	70.78929	78.11232	14.64606	-6.50936	0
389	-49.63387	-211.5542	-162.734	129.37353	56.14323	-187.1441	110.65912	172.49804	70.78929	78.11232	14.64606	-6.50936	0
390	-59.39791	-216.43622	-157.85198	136.69656	48.8202	-187.1441	110.65912	165.17501	70.78929	78.11232	14.64606	-6.50936	0
391	-64.27993	-221.31824	-157.85198	141.57858	46.37919	-189.58511	110.65912	160.29299	70.78929	78.11232	9.76404	-6.50936	0
392	-66.72094	-226.20026	-160.29299	144.01959	46.37919	-194.46713	113.10013	152.96996	70.78929	78.11232	7.32303	-6.50936	0
393	-69.16195	-235.9643	-167.61602	151.34262	48.8202	-201.79016	113.10013	150.52895	70.78929	78.11232	7.32303	-4.06835	0
394	-69.16195	-243.28733	-174.93905	153.78363	51.26121	-209.11319	113.10013	145.64693	68.34828	78.11232	4.88202	-4.06835	0
395	-69.16195	-253.05137	-184.70309	158.66565	56.14323	-218.87723	110.65912	145.64693	65.90727	75.67131	2.44101	-4.06835	0
396	-66.72094	-257.93339	-192.02612	161.10666	61.02525	-226.20026	110.65912	143.20592	63.46626	73.2303	2.44101	-4.06835	0
397	-69.16195	-257.93339	-189.58511	161.10666	58.58424	-223.75925	110.65912	140.76491	61.02525	70.78929	2.44101	-4.06835	0
398	-74.04397	-257.93339	-184.70309	163.54767	53.70222	-221.31824	105.7771	133.44188	58.58424	68.34828	2.44101	-6.50936	0
399	-76.48498	-250.61036	-174.93905	161.10666	48.8202	-213.99521	103.33609	128.55986	53.70222	63.46626	2.44101	-8.95037	0
400	-78.92599	-243.28733	-165.17501	158.66565	41.49717	-204.23117	100.89508	121.23683	51.26121	61.02525	0	-11.39138	1500	QRS+0
401	-78.92599	-243.28733	-165.17501	158.66565	41.49717	-204.23117	100.89508	118.79582	51.26121	58.58424	0	-11.39138	0
402	-76.48498	-240.84632	-165.17501	156.22464	43.93818	-204.23117	98.45407	113.9138	48.8202	58.58424	2.44101	-11.39138	0
403	-74.04397	-243.28733	-170.05703	156.22464	46.37919	-206.67218	96.01306	109.03178	48.8202	58.58424	2.44101	-8.95037	0
404	-69.16195	-248.16935	-179.82107	156.22464	53.70222	-213.99521	93.57205	109.03178	48.8202	58.58424	2.44101	-8.95037	0
405	-66.72094	-253.05137	-187.1441	158.66565	58.58424	-221.31824	93.57205	109.03178	48.8202	56.14323	2.44101	-8.95037	0
406	-61.83892	-257.93339	-196.90814	158.66565	65.90727	-228.64127	93.57205	111.47279	46.37919	53.70222	0	-6.50936	0
407	-61.83892	-255.49238	-194.46713	156.22464	65.90727	-226.20026	91.13104	111.47279	43.93818	53.70222	-2.44101	-8.95037	0
408	-64.27993	-250.61036	-187.1441	156.22464	61.02525	-218.87723	91.13104	109.03178	43.93818	53.70222	-5.69569	-8.95037	0
409	-66.72094	-248.16935	-182.26208	156.22464	56.14323	-216.43622	93.57205	109.03178	46.37919	53.70222	-5.69569	-11.39138	0
410	-69.16195	-245.72834	-177.38006	156.22464	53.70222	-211.5542	93.57205	111.47279	46.37919	53.70222	-10.57771	-11.39138	0
411	-69.16195	-245.72834	-177.38006	156.22464	53.70222	-211.5542	93.57205	111.47279	46.37919	53.70222	-10.57771	-13.83239	0
412	-69.16195	-248.16935	-179.82107	156.22464	53.70222	-213.99521	93.57205	109.03178	46.37919	53.70222	-10.57771	-13.83239	0
413	-66.72094	-250.61036	-184.70309	156.22464	58.58424	-218.87723	91.13104	111.47279	46.37919	56.14323	-10.57771	-13.83239	0
414	-61.83892	-250.61036	-189.58511	153.78363	63.46626	-221.31824	88.69003	116.35481	46.37919	56.14323	-10.57771	-11.39138	0
415	-52.07488	-250.61036	-199.34915	148.90161	73.2303	-226.20026	83.80801	118.79582	41.49717	53.70222	-10.57771	-11.39138	0
416	-47.19286	-250.61036	-204.23117	146.4606	78.11232	-228.64127	81.367	123.67784	41.49717	53.70222	-13.01872	-11.39138	0
417	-47.19286	-248.16935	-201.79016	146.4606	75.67131	-226.20026	81.367	128.55986	39.05616	53.70222	-13.01872	-11.39138	0
418	-52.07488	-240.84632	-189.58511	144.01959	68.34828	-216.43622	83.80801	133.44188	41.49717	56.14323	-10.57771	-8.95037	0
419	-52.07488	-231.08228	-179.82107	139.13757	63.46626	-206.67218	86.24902	135.88289	43.93818	56.14323	-13.01872	-8.95037	0
420	-54.51589	-228.64127	-174.93905	139.13757	58.58424	-201.79016	91.13104	135.88289	46.37919	53.70222	-15.45973	-11.39138	0
421	-54.51589	-231.08228	-177.38006	141.57858	61.02525	-204.23117	96.01306	143.20592	51.26121	53.70222	-15.45973	-11.39138	0
422	-52.07488	-235.9643	-184.70309	141.57858	65.90727	-211.5542	98.45407	150.52895	53.70222	53.70222	-15.45973	-11.39138	0
423	-49.63387	-243.28733	-194.46713	144.01959	70.78929	-218.87723	100.89508	155.41097	53.70222	53.70222	-15.45973	-11.39138	0
424	-44.75185	-250.61036	-206.67218	146.4606	80.55333	-228.64127	100.89508	162.734	53.70222	51.26121	-17.90074	-13.83239	0
425	-37.42882	-255.49238	-218.87723	144.01959	90.31737	-238.40531	100.89508	167.61602	53.70222	51.26121	-17.90074	-13.83239	0
426	-32.5468	-255.49238	-223.75925	141.57858	95.19939	-240.84632	100.89508	174.93905	53.70222	51.26121	-15.45973	-11.39138	0
427	-32.5468	-250.61036	-218.87723	139.13757	92.75838	-235.9643	100.89508	177.38006	53.70222	53.70222	-15.45973	-11.39138	0
428	-39.86983	-245.72834	-206.67218	141.57858	82.99434	-226.20026	100.89508	177.38006	56.14323	56.14323	-13.01872	-11.39138	0
429	-42.31084	-238.40531	-196.90814	139.13757	75.67131	-218.87723	103.33609	174.93905	58.58424	58.58424	-13.01872	-8.95037	0
430	-47.19286	-235.9643	-189.58511	139.13757	70.78929	-213.99521	103.33609	170.05703	61.02525	61.02525	-10.57771	-8.95037	0
431	-49.63387	-235.9643	-187.1441	141.57858	68.34828	-211.5542	105.7771	170.05703	63.46626	63.46626	-10.57771	-6.50936	0
432	-49.63387	-240.84632	-192.02612	144.01959	70.78929	-216.43622	108.21811	165.17501	65.90727	65.90727	-8.1367	-6.50936	0
433	-52.07488	-248.16935	-196.90814	148.90161	70.78929	-223.75925	110.65912	162.734	68.34828	68.34828	-5.69569	-6.50936	0
434	-47.19286	-253.05137	-206.67218	148.90161	78.11232	-231.08228	110.65912	165.17501	68.34828	70.78929	-5.69569	-6.50936	0
435	-42.31084	-260.3744	-218.87723	148.90161	87.87636	-240.84632	110.65912	170.05703	68.34828	70.78929	-5.69569	-6.50936	0
436	-37.42882	-265.25642	-228.64127	148.90161	95.19939	-248.16935	113.10013	182.26208	68.34828	70.78929	-5.69569	-6.50936	0
437	-37.42882	-272.57945	-235.9643	153.78363	97.6404	-255.49238	120.42316	201.79016	68.34828	70.78929	-5.69569	-6.50936	0
438	-39.86983	-277.46147	-238.40531	156.22464	97.6404	-257.93339	127.74619	223.75925	73.2303	73.2303	-5.69569	-8.95037	0
439	-42.31084	-284.7845	-243.28733	161.10666	100.08141	-265.25642	139.95124	257.93339	82.99434	78.11232	-2.44101	-6.50936	0
440	-47.19286	-296.98955	-250.61036	170.8707	100.08141	-275.02046	157.03831	301.87157	95.19939	87.87636	4.88202	-4.06835	0
441	-52.07488	-309.1946	-257.93339	178.19373	102.52242	-284.7845	183.88942	358.0148	117.16848	104.96343	14.64606	1.62734	0
442	-56.9569	-321.39965	-265.25642	187.95777	102.52242	-294.54854	215.62255	428.80409	144.01959	126.93252	29.29212	13.83239	0
443	-61.83892	-333.6047	-272.57945	195.2808	104.96343	-304.31258	249.79669	509.35742	173.31171	148.90161	46.37919	23.59643	0
444	-61.83892	-338.48672	-277.46147	197.72181	107.40444	-309.1946	288.85285	602.1158	207.48585	178.19373	63.46626	38.24249	0
445	-61.83892	-338.48672	-277.46147	197.72181	107.40444	-309.1946	327.90901	704.63822	246.54201	205.04484	80.55333	52.88855	0
446	-49.63387	-331.16369	-282.34349	187.95777	114.72747	-306.75359	369.40618	816.92468	283.15716	234.33696	95.19939	65.0936	0
447	-32.5468	-316.51763	-284.7845	173.31171	124.49151	-301.87157	403.58032	938.97518	314.89029	256.30605	104.96343	72.41663	0
448	-4.88202	-284.7845	-279.90248	144.01959	136.69656	-282.34349	425.54941	1068.34871	334.41837	266.07009	107.40444	72.41663	0
449	41.49717	-240.84632	-282.34349	97.6404	161.10666	-260.3744	437.75446	1209.92729	349.06443	268.5111	100.08141	62.65259	0
450	104.96343	-189.58511	-294.54854	41.49717	197.72181	-240.84632	440.19547	1373.47496	351.50544	261.18807	85.43535	45.56552	0
451	190.39878	-123.67784	-314.07662	-34.98781	251.42403	-218.87723	430.43143	1563.87374	346.62342	244.101	63.46626	21.15542	0
452	288.03918	-45.56552	-333.6047	-122.86417	310.00827	-189.58511	415.78537	1768.10491	331.97736	222.13191	36.61515	-6.50936	0
453	390.5616	35.80148	-355.57379	-213.18154	373.47453	-160.29299	393.81628	1970.70874	312.44928	192.83979	4.88202	-40.6835	0
454	493.08402	131.00087	-362.89682	-313.26295	427.17675	-116.35481	362.08315	2131.8154	288.03918	161.10666	-27.66478	-77.29865	0
455	588.28341	233.52329	-355.57379	-410.90335	471.11493	-60.21158	320.58598	2219.69176	256.30605	126.93252	-59.39791	-106.59077	0
456	656.63169	353.13278	-304.31258	-506.10274	480.87897	26.03744	264.44275	2190.39964	214.80888	92.75838	-86.24902	-128.55986	0
457	695.68785	487.38833	-209.11319	-591.53809	451.58685	140.76491	193.65346	2017.08793	168.42969	61.02525	-105.7771	-138.3239	0
458	705.45189	619.20287	-87.06269	-662.32738	395.44362	267.69743	103.33609	1699.75663	109.84545	21.96909	-122.86417	-143.20592	0
459	700.56987	736.37135	35.80148	-718.47061	331.97736	387.30692	0	1268.51153	39.05616	-17.90074	-135.06922	-140.76491	0
460	661.51371	834.01175	172.49804	-747.76273	244.101	504.4754	-112.28646	719.28428	-32.5468	-56.9569	-137.51023	-126.11885	0
461	595.60644	907.24205	311.63561	-752.64475	141.57858	609.43883	-222.13191	121.23683	-103.33609	-91.13104	-132.62821	-104.14976	0
462	517.49412	943.8572	426.36308	-730.67566	46.37919	685.11014	-319.77231	-450.77318	-174.12538	-125.30518	-127.74619	-84.62168	0
463	441.82281	941.41619	499.59338	-691.6195	-30.10579	721.72529	-395.44362	-934.09316	-235.15063	-154.5973	-125.30518	-65.0936	0
464	363.71049	912.12407	548.41358	-637.91728	-93.57205	731.48933	-449.14584	-1312.44971	-283.97083	-179.0074	-120.42316	-48.00653	0
465	283.15716	863.30387	580.14671	-574.45102	-149.71528	721.72529	-475.99695	-1583.40182	-315.70396	-193.65346	-110.65912	-28.47845	0
466	202.60383	802.27862	599.67479	-503.66173	-198.53548	702.19721	-478.43796	-1734.74444	-330.35002	-196.09447	-98.45407	-8.95037	0
467	126.93252	731.48933	604.55681	-430.43143	-240.03265	668.02307	-458.90988	-1766.47757	-327.90901	-188.77144	-83.80801	4.06835	0
468	58.58424	653.37701	594.79277	-357.20113	-269.32477	624.08489	-424.73574	-1724.9804	-315.70396	-179.0074	-71.60296	16.2734	0
469	-4.88202	570.38267	575.26469	-283.97083	-291.29386	572.82368	-388.12059	-1644.42707	-301.0579	-166.80235	-64.27993	26.03744	0
470	-56.9569	482.50631	538.64954	-213.18154	-298.61689	509.35742	-351.50544	-1544.34566	-288.85285	-159.47932	-59.39791	28.47845	0
471	-103.33609	392.18894	494.71136	-144.83326	-298.61689	443.45015	-314.89029	-1434.50021	-274.20679	-152.15629	-54.51589	30.91946	0
472	-139.95124	306.75359	445.89116	-83.80801	-293.73487	375.10187	-283.15716	-1327.09577	-264.44275	-147.27427	-54.51589	28.47845	0
473	-161.92033	226.20026	387.30692	-32.5468	-274.20679	306.75359	-261.18807	-1214.80931	-257.11972	-147.27427	-59.39791	23.59643	0
474	-164.36134	157.85198	321.39965	1.62734	-242.47366	238.40531	-246.54201	-1104.96386	-257.11972	-149.71528	-66.72094	13.83239	0
475	-161.92033	99.26774	260.3744	29.29212	-210.74053	179.82107	-236.77797	-997.55942	-257.11972	-154.5973	-74.04397	4.06835	0
476	-154.5973	50.44754	204.23117	51.26121	-179.0074	126.11885	-222.13191	-892.59599	-244.91467	-149.71528	-76.48498	-1.62734	0
477	-154.5973	11.39138	165.17501	70.78929	-159.47932	87.06269	-202.60383	-790.07357	-225.38659	-137.51023	-69.16195	-1.62734	0
478	-157.03831	-13.01872	143.20592	82.99434	-149.71528	65.0936	-180.63474	-697.31519	-200.97649	-120.42316	-56.9569	4.06835	0
479	-159.47932	-25.22377	133.44188	90.31737	-147.27427	52.88855	-158.66565	-614.32085	-179.0074	-103.33609	-47.19286	11.39138	0
480	-159.47932	-35.80148	123.67784	95.19939	-142.39225	43.12451	-136.69656	-541.09055	-154.5973	-83.80801	-37.42882	16.2734	0
481	-157.03831	-40.6835	116.35481	97.6404	-137.51023	38.24249	-117.16848	-475.18328	-130.1872	-66.72094	-25.22377	18.71441	0
482	-152.15629	-48.00653	104.14976	97.6404	-130.1872	28.47845	-95.19939	-419.04005	-108.21811	-49.63387	-17.90074	23.59643	0
483	-147.27427	-57.77057	89.5037	100.08141	-120.42316	16.2734	-80.55333	-370.21985	-91.13104	-37.42882	-10.57771	28.47845	0
484	-137.51023	-67.53461	69.97562	100.08141	-105.7771	1.62734	-68.34828	-328.72268	-78.92599	-30.10579	-8.1367	26.03744	0
485	-127.74619	-84.62168	43.12451	104.96343	-86.24902	-20.34175	-56.14323	-292.10753	-71.60296	-25.22377	-8.1367	23.59643	0
486	-120.42316	-101.70875	18.71441	109.84545	-71.60296	-43.12451	-43.93818	-257.93339	-61.83892	-20.34175	-8.1367	18.71441	0
487	-120.42316	-118.79582	1.62734	117.16848	-61.83892	-60.21158	-34.17414	-228.64127	-54.51589	-15.45973	-8.1367	18.71441	0
488	-122.86417	-131.00087	-8.1367	124.49151	-59.39791	-69.97562	-21.96909	-206.67218	-47.19286	-13.01872	-8.1367	18.71441	0
489	-125.30518	-138.3239	-13.01872	129.37353	-56.9569	-77.29865	-12.20505	-192.02612	-42.31084	-8.1367	-8.1367	18.71441	0
490	-130.1872	-148.08794	-18.71441	136.69656	-56.9569	-84.62168	-4.88202	-182.26208	-37.42882	-5.69569	-8.1367	18.71441	0
491	-132.62821	-155.41097	-23.59643	141.57858	-56.9569	-89.5037	0	-177.38006	-34.98781	-3.25468	-5.69569	18.71441	0
492	-132.62821	-155.41097	-23.59643	141.57858	-56.9569	-89.5037	0	-177.38006	-34.98781	-3.25468	-5.69569	18.71441	0
493	-132.62821	-155.41097	-23.59643	141.57858	-56.9569	-89.5037	0	-179.82107	-34.98781	-3.25468	-5.69569	21.15542	0
494	-130.1872	-155.41097	-26.03744	141.57858	-54.51589	-91.94471	-4.88202	-184.70309	-39.86983	-5.69569	-5.69569	21.15542	0
495	-125.30518	-152.96996	-28.47845	136.69656	-49.63387	-91.94471	-7.32303	-189.58511	-42.31084	-8.1367	-5.69569	21.15542	0
496	-120.42316	-148.08794	-28.47845	131.81454	-47.19286	-89.5037	-12.20505	-194.46713	-47.19286	-10.57771	-5.69569	21.15542	0
497	-120.42316	-143.20592	-23.59643	129.37353	-49.63387	-84.62168	-14.64606	-196.90814	-49.63387	-13.01872	-5.69569	21.15542	0
498	-120.42316	-138.3239	-18.71441	126.93252	-52.07488	-79.73966	-17.08707	-201.79016	-52.07488	-15.45973	-5.69569	21.15542	0
499	-122.86417	-133.44188	-10.57771	126.93252	-56.9569	-72.41663	-17.08707	-209.11319	-54.51589	-15.45973	-5.69569	23.59643	0
500	-125.30518	-128.55986	-3.25468	124.49151	-61.83892	-67.53461	-19.52808	-216.43622	-54.51589	-17.90074	-8.1367	26.03744	0
501	-127.74619	-126.11885	1.62734	124.49151	-66.72094	-62.65259	-21.96909	-218.87723	-56.9569	-17.90074	-10.57771	28.47845	0
502	-127.74619	-123.67784	4.06835	124.49151	-66.72094	-60.21158	-26.85111	-226.20026	-59.39791	-20.34175	-13.01872	30.91946	0
503	-127.74619	-121.23683	6.50936	122.0505	-69.16195	-57.77057	-34.17414	-233.52329	-64.27993	-25.22377	-15.45973	30.91946	0
504	-122.86417	-116.35481	6.50936	117.16848	-66.72094	-55.32956	-43.93818	-240.84632	-71.60296	-32.5468	-17.90074	30.91946	0
505	-122.86417	-111.47279	11.39138	114.72747	-69.16195	-50.44754	-53.70222	-250.61036	-76.48498	-39.86983	-22.78276	30.91946	0
506	-117.98215	-106.59077	11.39138	109.84545	-66.72094	-48.00653	-63.46626	-255.49238	-81.367	-42.31084	-22.78276	30.91946	0
507	-115.54114	-99.26774	16.2734	104.96343	-66.72094	-43.12451	-70.78929	-260.3744	-86.24902	-47.19286	-27.66478	30.91946	0
508	-115.54114	-91.94471	23.59643	102.52242	-71.60296	-35.80148	-80.55333	-267.69743	-91.13104	-54.51589	-30.10579	28.47845	-1500	QRS-0
509	-115.54114	-79.73966	35.80148	95.19939	-76.48498	-22.78276	-85.43535	-275.02046	-93.57205	-59.39791	-32.5468	28.47845	0
510	-117.98215	-69.97562	48.00653	92.75838	-83.80801	-10.57771	-90.31737	-282.34349	-96.01306	-59.39791	-32.5468	28.47845	0
511	-120.42316	-60.21158	60.21158	87.87636	-91.13104	-0.81367	-90.31737	-289.66652	-96.01306	-59.39791	-30.10579	28.47845	0
512	-120.42316	-50.44754	69.97562	82.99434	-96.01306	8.95037	-95.19939	-294.54854	-96.01306	-59.39791	-27.66478	30.91946	0
513	-117.98215	-38.24249	79.73966	75.67131	-100.89508	21.15542	-100.08141	-301.87157	-98.45407	-59.39791	-25.22377	33.36047	0
514	-113.10013	-27.66478	84.62168	68.34828	-98.45407	28.47845	-104.96343	-306.75359	-103.33609	-59.39791	-25.22377	33.36047	0
515	-108.21811	-13.01872	94.38572	58.58424	-100.89508	40.6835	-109.84545	-309.1946	-105.7771	-59.39791	-20.34175	33.36047	0
516	-103.33609	-0.81367	101.70875	51.26121	-103.33609	50.44754	-114.72747	-309.1946	-108.21811	-64.27993	-20.34175	33.36047	0
517	-96.01306	8.95037	104.14976	41.49717	-100.89508	55.32956	-122.0505	-309.1946	-115.54114	-69.16195	-22.78276	28.47845	0
518	-91.13104	21.15542	111.47279	34.17414	-100.89508	65.0936	-129.37353	-311.63561	-120.42316	-76.48498	-27.66478	23.59643	0
519	-88.69003	33.36047	121.23683	26.03744	-105.7771	77.29865	-134.25555	-314.07662	-127.74619	-81.367	-30.10579	18.71441	0
520	-86.24902	45.56552	131.00087	18.71441	-108.21811	87.06269	-139.13757	-318.95864	-127.74619	-83.80801	-32.5468	16.2734	0
521	-83.80801	52.88855	135.88289	13.83239	-110.65912	94.38572	-144.01959	-323.84066	-132.62821	-88.69003	-32.5468	13.83239	0
522	-78.92599	60.21158	138.3239	8.95037	-108.21811	99.26774	-148.90161	-328.72268	-137.51023	-88.69003	-32.5468	13.83239	0
523	-76.48498	72.41663	148.08794	1.62734	-113.10013	109.03178	-156.22464	-336.04571	-142.39225	-91.13104	-30.10579	13.83239	0
524	-71.60296	87.06269	157.85198	-8.1367	-115.54114	121.23683	-163.54767	-340.92773	-144.83326	-91.13104	-30.10579	13.83239	0
525	-66.72094	101.70875	167.61602	-17.90074	-117.98215	133.44188	-168.42969	-343.36874	-147.27427	-93.57205	-27.66478	13.83239	0
526	-61.83892	109.03178	170.05703	-25.22377	-115.54114	138.3239	-175.75272	-343.36874	-152.15629	-96.01306	-25.22377	13.83239	0
527	-54.51589	121.23683	174.93905	-34.98781	-115.54114	148.08794	-180.63474	-343.36874	-154.5973	-98.45407	-25.22377	11.39138	0
528	-54.51589	135.88289	189.58511	-42.31084	-122.86417	162.734	-185.51676	-343.36874	-157.03831	-103.33609	-25.22377	11.39138	0
529	-52.07488	148.08794	199.34915	-49.63387	-125.30518	172.49804	-187.95777	-343.36874	-159.47932	-103.33609	-25.22377	11.39138	0
530	-49.63387	155.41097	204.23117	-54.51589	-127.74619	179.82107	-190.39878	-343.36874	-161.92033	-105.7771	-22.78276	11.39138	0
531	-49.63387	162.734	211.5542	-56.9569	-130.1872	187.1441	-192.83979	-343.36874	-164.36134	-105.7771	-22.78276	11.39138	0
532	-47.19286	170.05703	216.43622	-61.83892	-132.62821	192.02612	-195.2808	-343.36874	-166.80235	-105.7771	-22.78276	11.39138	0
533	-47.19286	177.38006	223.75925	-66.72094	-135.06922	199.34915	-197.72181	-345.80975	-166.80235	-108.21811	-25.22377	8.95037	0
534	-42.31084	182.26208	223.75925	-71.60296	-132.62821	201.79016	-197.72181	-343.36874	-169.24336	-108.21811	-25.22377	6.50936	0
535	-37.42882	187.1441	223.75925	-76.48498	-130.1872	204.23117	-200.16282	-340.92773	-169.24336	-108.21811	-30.10579	4.06835	0
536	-34.98781	187.1441	221.31824	-76.48498	-127.74619	204.23117	-202.60383	-336.04571	-171.68437	-110.65912	-30.10579	1.62734	0
537	-30.10579	187.1441	216.43622	-78.92599	-122.86417	201.79016	-205.04484	-331.16369	-171.68437	-113.10013	-32.5468	-1.62734	0
538	-25.22377	192.02612	216.43622	-83.80801	-120.42316	204.23117	-205.04484	-326.28167	-174.12538	-113.10013	-34.98781	-1.62734	0
539	-20.34175	196.90814	216.43622	-88.69003	-117.98215	206.67218	-207.48585	-321.39965	-174.12538	-115.54114	-34.98781	-1.62734	0
540	-17.08707	199.34915	216.43622	-91.13104	-117.98215	209.11319	-209.92686	-316.51763	-174.12538	-115.54114	-37.42882	-1.62734	0
541	-12.20505	201.79016	213.99521	-96.01306	-113.10013	209.11319	-209.92686	-306.75359	-174.12538	-117.98215	-39.86983	-4.06835	0
542	-4.88202	204.23117	209.11319	-100.89508	-108.21811	206.67218	-209.92686	-296.98955	-176.56639	-117.98215	-42.31084	-6.50936	0
543	2.44101	204.23117	201.79016	-103.33609	-100.89508	204.23117	-207.48585	-287.22551	-174.12538	-117.98215	-42.31084	-8.95037	0
544	7.32303	201.79016	194.46713	-105.7771	-93.57205	199.34915	-205.04484	-272.57945	-171.68437	-117.98215	-44.75185	-11.39138	0
545	14.64606	194.46713	179.82107	-105.7771	-83.80801	187.1441	-200.16282	-255.49238	-169.24336	-117.98215	-44.75185	-11.39138	0
546	19.52808	184.70309	165.17501	-103.33609	-74.04397	174.93905	-197.72181	-238.40531	-166.80235	-115.54114	-44.75185	-11.39138	0
547	26.85111	174.93905	148.08794	-100.89508	-61.83892	162.734	-192.83979	-218.87723	-161.92033	-110.65912	-39.86983	-11.39138	0
548	29.29212	167.61602	138.3239	-98.45407	-54.51589	152.96996	-185.51676	-199.34915	-157.03831	-108.21811	-34.98781	-11.39138	0
549	31.73313	157.85198	126.11885	-96.01306	-47.19286	143.20592	-178.19373	-179.82107	-149.71528	-103.33609	-32.5468	-8.95037	0
550	36.61515	150.52895	113.9138	-93.57205	-39.86983	133.44188	-173.31171	-157.85198	-144.83326	-100.89508	-30.10579	-8.95037	0
551	41.49717	143.20592	101.70875	-93.57205	-30.10579	123.67784	-165.98868	-135.88289	-142.39225	-98.45407	-30.10579	-11.39138	0
552	46.37919	133.44188	87.06269	-91.13104	-20.34175	111.47279	-153.78363	-111.47279	-135.06922	-96.01306	-27.66478	-11.39138	0
553	51.26121	123.67784	72.41663	-88.69003	-10.57771	99.26774	-144.01959	-87.06269	-130.1872	-93.57205	-27.66478	-13.83239	0
554	56.14323	109.03178	52.88855	-83.80801	2.44101	82.18067	-131.81454	-57.77057	-120.42316	-88.69003	-27.66478	-16.2734	0
555	61.02525	94.38572	33.36047	-78.92599	14.64606	65.0936	-122.0505	-28.47845	-113.10013	-83.80801	-27.66478	-18.71441	0
556	68.34828	79.73966	11.39138	-74.04397	29.29212	45.56552	-109.84545	-0.81367	-105.7771	-78.92599	-30.10579	-21.15542	0
557	70.78929	62.65259	-8.1367	-66.72094	39.05616	28.47845	-100.08141	26.03744	-96.01306	-71.60296	-27.66478	-21.15542	0
558	70.78929	50.44754	-21.15542	-61.83892	46.37919	16.2734	-87.87636	52.88855	-86.24902	-64.27993	-27.66478	-23.59643	0
559	70.78929	38.24249	-33.36047	-54.51589	51.26121	4.06835	-75.67131	77.29865	-76.48498	-56.9569	-25.22377	-23.59643	0
560	70.78929	26.03744	-45.56552	-49.63387	58.58424	-8.1367	-63.46626	104.14976	-64.27993	-49.63387	-22.78276	-23.59643	0
561	70.78929	11.39138	-60.21158	-42.31084	65.90727	-22.78276	-53.70222	126.11885	-56.9569	-44.75185	-22.78276	-23.59643	0
562	75.67131	-0.81367	-77.29865	-37.42882	75.67131	-38.24249	-43.93818	148.08794	-49.63387	-39.86983	-22.78276	-26.03744	0
563	78.11232	-13.01872	-91.94471	-32.5468	85.43535	-52.88855	-36.61515	165.17501	-42.31084	-34.98781	-22.78276	-26.03744	0
564	82.99434	-22.78276	-106.59077	-30.10579	95.19939	-65.0936	-29.29212	182.26208	-39.86983	-32.5468	-22.78276	-28.47845	0
565	87.87636	-32.5468	-121.23683	-27.66478	104.96343	-77.29865	-24.4101	196.90814	-34.98781	-27.66478	-22.78276	-28.47845	0
566	87.87636	-45.56552	-133.44188	-22.78276	109.84545	-89.5037	-19.52808	211.5542	-32.5468	-27.66478	-22.78276	-28.47845	0
567	87.87636	-55.32956	-143.20592	-17.90074	114.72747	-99.26774	-14.64606	223.75925	-27.66478	-25.22377	-20.34175	-28.47845	0
568	82.99434	-67.53461	-150.52895	-8.1367	114.72747	-109.03178	-9.76404	233.52329	-25.22377	-22.78276	-17.90074	-28.47845	0
569	73.2303	-79.73966	-152.96996	1.62734	112.28646	-116.35481	-2.44101	240.84632	-20.34175	-17.90074	-13.01872	-23.59643	0
570	65.90727	-91.94471	-157.85198	11.39138	109.84545	-123.67784	5.69569	245.72834	-13.01872	-13.01872	-5.69569	-23.59643	0
571	58.58424	-101.70875	-160.29299	21.15542	107.40444	-131.00087	10.57771	248.16935	-8.1367	-8.1367	-2.44101	-21.15542	0
572	53.70222	-113.9138	-167.61602	29.29212	109.84545	-140.76491	15.45973	250.61036	-3.25468	-3.25468	2.44101	-16.2734	0
573	48.8202	-121.23683	-170.05703	34.17414	107.40444	-145.64693	20.34175	248.16935	-0.81367	-0.81367	7.32303	-13.83239	0
574	46.37919	-126.11885	-172.49804	39.05616	107.40444	-148.08794	22.78276	248.16935	2.44101	4.88202	14.64606	-11.39138	0
575	46.37919	-133.44188	-179.82107	41.49717	112.28646	-155.41097	27.66478	245.72834	7.32303	9.76404	19.52808	-8.95037	0
576	43.93818	-145.64693	-189.58511	48.8202	114.72747	-167.61602	32.5468	243.28733	9.76404	9.76404	21.96909	-6.50936	0
577	39.05616	-152.96996	-192.02612	56.14323	114.72747	-172.49804	37.42882	243.28733	14.64606	9.76404	24.4101	-6.50936	0
578	31.73313	-160.29299	-192.02612	63.46626	109.84545	-174.93905	42.31084	240.84632	17.08707	9.76404	24.4101	-6.50936	0
579	24.4101	-167.61602	-192.02612	70.78929	107.40444	-179.82107	49.63387	235.9643	19.52808	9.76404	24.4101	-4.06835	0
580	19.52808	-177.38006	-196.90814	78.11232	107.40444	-187.1441	54.51589	231.08228	21.96909	12.20505	24.4101	-4.06835	0
581	9.76404	-182.26208	-192.02612	85.43535	100.08141	-187.1441	56.9569	223.75925	24.4101	14.64606	24.4101	-4.06835	0
582	4.88202	-187.1441	-192.02612	90.31737	97.6404	-189.58511	59.39791	216.43622	26.85111	14.64606	26.85111	-1.62734	0
583	-2.44101	-192.02612	-189.58511	95.19939	92.75838	-189.58511	59.39791	209.11319	26.85111	17.08707	26.85111	-1.62734	0
584	-4.88202	-194.46713	-189.58511	97.6404	90.31737	-192.02612	64.27993	201.79016	29.29212	19.52808	29.29212	1.62734	0
585	-9.76404	-199.34915	-189.58511	102.52242	87.87636	-194.46713	64.27993	194.46713	31.73313	19.52808	31.73313	1.62734	0
586	-12.20505	-204.23117	-192.02612	107.40444	87.87636	-196.90814	69.16195	189.58511	34.17414	21.96909	34.17414	4.06835	0
587	-17.08707	-206.67218	-189.58511	109.84545	85.43535	-196.90814	71.60296	184.70309	36.61515	24.4101	36.61515	4.06835	0
588	-22.78276	-209.11319	-187.1441	114.72747	80.55333	-199.34915	74.04397	179.82107	39.05616	26.85111	39.05616	6.50936	0
589	-27.66478	-209.11319	-182.26208	117.16848	75.67131	-196.90814	76.48498	172.49804	41.49717	29.29212	41.49717	8.95037	0
590	-34.98781	-213.99521	-179.82107	122.0505	70.78929	-196.90814	81.367	167.61602	43.93818	34.17414	43.93818	8.95037	0
591	-39.86983	-213.99521	-174.93905	124.49151	65.90727	-194.46713	81.367	160.29299	43.93818	36.61515	48.8202	11.39138	0
592	-42.31084	-213.99521	-172.49804	126.93252	63.46626	-194.46713	81.367	155.41097	43.93818	36.61515	51.26121	11.39138	0
593	-44.75185	-216.43622	-172.49804	129.37353	63.46626	-194.46713	81.367	148.08794	46.37919	39.05616	51.26121	11.39138	0
594	-44.75185	-216.43622	-172.49804	129.37353	63.46626	-194.46713	81.367	143.20592	46.37919	39.05616	51.26121	8.95037	0
595	-42.31084	-216.43622	-174.93905	126.93252	65.90727	-196.90814	78.92599	143.20592	43.93818	36.61515	51.26121	8.95037	0
596	-39.86983	-218.87723	-179.82107	126.93252	68.34828	-199.34915	76.48498	140.76491	41.49717	34.17414	48.8202	4.06835	0
597	-39.86983	-218.87723	-179.82107	126.93252	68.34828	-199.34915	74.04397	138.3239	39.05616	34.17414	46.37919	4.06835	0
598	-42.31084	-218.87723	-177.38006	129.37353	65.90727	-199.34915	76.48498	138.3239	39.05616	34.17414	46.37919	4.06835	0
599	-44.75185	-221.31824	-177.38006	131.81454	65.90727	-199.34915	76.48498	135.88289	39.05616	34.17414	46.37919	4.06835	0
600	-47.19286	-221.31824	-174.93905	131.81454	63.46626	-199.34915	78.92599	133.44188	39.05616	34.17414	46.37919	4.06835	0
601	-49.63387	-226.20026	-177.38006	136.69656	63.46626	-201.79016	81.367	128.55986	39.05616	34.17414	46.37919	4.06835	0
602	-52.07488	-228.64127	-177.38006	139.13757	61.02525	-204.23117	81.367	126.11885	39.05616	34.17414	48.8202	6.50936	0
603	-56.9569	-226.20026	-170.05703	139.13757	56.14323	-199.34915	81.367	123.67784	39.05616	34.17414	51.26121	6.50936	0
604	-52.07488	-218.87723	-167.61602	134.25555	56.14323	-194.46713	81.367	123.67784	39.05616	34.17414	51.26121	6.50936	0
605	-47.19286	-211.5542	-165.17501	126.93252	58.58424	-189.58511	78.92599	123.67784	36.61515	34.17414	51.26121	6.50936	0
606	-42.31084	-206.67218	-165.17501	122.0505	61.02525	-187.1441	76.48498	126.11885	36.61515	34.17414	51.26121	8.95037	0
607	-39.86983	-199.34915	-160.29299	117.16848	58.58424	-179.82107	76.48498	128.55986	36.61515	34.17414	51.26121	8.95037	0
608	-39.86983	-192.02612	-152.96996	114.72747	56.14323	-172.49804	76.48498	135.88289	36.61515	34.17414	51.26121	8.95037	0
609	-39.86983	-187.1441	-148.08794	112.28646	53.70222	-167.61602	78.92599	140.76491	36.61515	36.61515	51.26121	8.95037	0
610	-39.86983	-187.1441	-148.08794	112.28646	53.70222	-167.61602	81.367	143.20592	39.05616	36.61515	51.26121	11.39138	0
611	-39.86983	-187.1441	-148.08794	112.28646	53.70222	-167.61602	83.80801	145.64693	41.49717	41.49717	51.26121	13.83239	0
612	-42.31084	-189.58511	-148.08794	114.72747	51.26121	-170.05703	83.80801	150.52895	43.93818	43.93818	53.70222	16.2734	0
613	-44.75185	-192.02612	-148.08794	117.16848	51.26121	-170.05703	83.80801	155.41097	43.93818	43.93818	53.70222	16.2734	0
614	-44.75185	-192.02612	-148.08794	117.16848	51.26121	-170.05703	81.367	155.41097	43.93818	43.93818	53.70222	18.71441	0
615	-42.31084	-189.58511	-148.08794	114.72747	51.26121	-170.05703	78.92599	157.85198	41.49717	41.49717	53.70222	18.71441	0
616	-37.42882	-189.58511	-152.96996	112.28646	56.14323	-172.49804	74.04397	160.29299	41.49717	41.49717	51.26121	18.71441	0
617	-34.98781	-187.1441	-152.96996	109.84545	58.58424	-170.05703	71.60296	165.17501	39.05616	41.49717	51.26121	21.15542	0
618	-34.98781	-187.1441	-152.96996	109.84545	58.58424	-170.05703	71.60296	167.61602	39.05616	41.49717	51.26121	21.15542	0
619	-37.42882	-184.70309	-148.08794	109.84545	53.70222	-167.61602	71.60296	170.05703	36.61515	39.05616	51.26121	21.15542	0
620	-37.42882	-184.70309	-148.08794	109.84545	53.70222	-167.61602	71.60296	172.49804	39.05616	41.49717	53.70222	21.15542	0
621	-37.42882	-184.70309	-148.08794	109.84545	53.70222	-167.61602	74.04397	174.93905	39.05616	43.93818	53.70222	23.59643	0
622	-37.42882	-189.58511	-152.96996	112.28646	56.14323	-172.49804	76.48498	177.38006	39.05616	43.93818	53.70222	23.59643	0
623	-39.86983	-192.02612	-152.96996	114.72747	56.14323	-172.49804	76.48498	182.26208	41.49717	43.93818	53.70222	23.59643	0
624	-39.86983	-194.46713	-155.41097	114.72747	56.14323	-174.93905	81.367	192.02612	41.49717	43.93818	53.70222	23.59643	0
625	-37.42882	-201.79016	-165.17501	117.16848	63.46626	-184.70309	86.24902	206.67218	46.37919	48.8202	51.26121	23.59643	0
626	-34.98781	-213.99521	-179.82107	122.0505	70.78929	-196.90814	91.13104	233.52329	51.26121	48.8202	51.26121	21.15542	0
627	-34.98781	-228.64127	-194.46713	129.37353	78.11232	-211.5542	103.33609	267.69743	58.58424	56.14323	51.26121	21.15542	0
628	-37.42882	-240.84632	-204.23117	136.69656	82.99434	-223.75925	117.98215	318.95864	73.2303	63.46626	56.14323	21.15542	0
629	-42.31084	-250.61036	-209.11319	144.01959	82.99434	-231.08228	142.39225	382.4249	92.75838	80.55333	63.46626	21.15542	0
630	-47.19286	-260.3744	-213.99521	151.34262	82.99434	-238.40531	174.12538	458.09621	119.60949	100.08141	75.67131	28.47845	0
631	-49.63387	-260.3744	-211.5542	153.78363	80.55333	-235.9643	208.29952	545.97257	151.34262	126.93252	95.19939	40.6835	0
632	-47.19286	-250.61036	-204.23117	146.4606	78.11232	-228.64127	247.35568	643.61297	187.95777	153.78363	117.16848	52.88855	0
633	-47.19286	-233.52329	-187.1441	139.13757	68.34828	-211.5542	283.97083	751.01741	227.01393	185.51676	139.13757	67.53461	0
634	-32.5468	-204.23117	-172.49804	117.16848	68.34828	-189.58511	320.58598	875.50892	263.62908	212.36787	158.66565	77.29865	0
635	-7.32303	-165.17501	-157.85198	85.43535	73.2303	-160.29299	347.43709	1012.20548	295.36221	234.33696	173.31171	87.06269	0
636	34.17414	-116.35481	-150.52895	39.05616	90.31737	-133.44188	366.96517	1168.43012	314.89029	248.98302	178.19373	87.06269	0
637	90.31737	-55.32956	-145.64693	-17.90074	117.16848	-99.26774	376.72921	1349.06486	327.09534	251.42403	173.31171	74.85764	0
638	161.10666	8.95037	-152.96996	-86.24902	156.22464	-72.41663	379.17022	1551.66869	329.53635	244.101	161.10666	55.32956	0
639	244.101	84.62168	-160.29299	-164.36134	202.60383	-38.24249	371.84719	1765.6639	324.65433	229.45494	136.69656	28.47845	0
640	334.41837	167.61602	-167.61602	-252.2377	251.42403	1.62734	354.76012	1970.70874	307.56726	205.04484	104.96343	-4.06835	0
641	427.17675	255.49238	-172.49804	-342.55507	300.24423	43.12451	330.35002	2136.69742	285.59817	173.31171	68.34828	-40.6835	0
642	517.49412	345.80975	-172.49804	-432.87244	344.18241	87.06269	291.29386	2217.25075	248.98302	134.25555	26.85111	-79.73966	0
643	583.40139	445.89116	-138.3239	-515.86678	361.26948	155.41097	232.70962	2183.07661	200.16282	92.75838	-10.57771	-111.47279	0
644	629.78058	550.85459	-79.73966	-591.53809	353.94645	235.9643	161.92033	2024.41096	148.90161	53.70222	-37.42882	-128.55986	0
645	654.19068	663.14105	8.95037	-659.88637	322.21332	336.04571	71.60296	1721.72572	85.43535	7.32303	-64.27993	-143.20592	0
646	656.63169	763.22246	106.59077	-711.14758	275.83413	436.12712	-34.17414	1300.24466	9.76404	-39.86983	-88.69003	-148.08794	0
647	634.6626	841.33478	206.67218	-737.99869	214.80888	524.00348	-153.78363	777.86852	-76.48498	-91.13104	-105.7771	-148.08794	0
648	583.40139	895.037	311.63561	-740.4397	136.69656	604.55681	-273.39312	182.26208	-166.80235	-142.39225	-117.98215	-140.76491	0
649	510.17109	926.77013	416.59904	-718.47061	46.37919	672.90509	-378.35655	-397.07096	-247.35568	-183.88942	-125.30518	-123.67784	0
650	439.3818	929.21114	489.82934	-684.29647	-25.22377	709.52024	-466.23291	-907.24205	-320.58598	-227.8276	-132.62821	-113.9138	0
651	363.71049	902.36003	538.64954	-633.03526	-88.69003	721.72529	-527.25816	-1319.77274	-379.17022	-259.56073	-137.51023	-101.70875	0
652	283.15716	848.65781	565.50065	-567.12799	-142.39225	707.07923	-556.55028	-1612.69394	-415.78537	-276.6478	-135.06922	-89.5037	0
653	200.16282	780.30953	580.14671	-491.45668	-191.21245	680.22812	-556.55028	-1795.76969	-425.54941	-276.6478	-122.86417	-72.41663	0
654	124.49151	709.52024	585.02873	-418.22638	-230.26861	648.49499	-527.25816	-1851.91292	-415.78537	-264.44275	-105.7771	-52.88855	0
655	61.02525	641.17196	580.14671	-352.31911	-259.56073	611.87984	-483.31998	-1807.97474	-391.37527	-240.03265	-83.80801	-33.36047	0
656	2.44101	567.94166	565.50065	-286.41184	-281.52982	567.94166	-434.49978	-1722.53939	-362.08315	-218.06356	-64.27993	-16.2734	0
657	-47.19286	497.15237	543.53156	-225.38659	-296.17588	519.12146	-393.00261	-1617.57596	-340.11406	-198.53548	-49.63387	-4.06835	0
658	-93.57205	426.36308	519.12146	-166.80235	-305.93992	472.74227	-356.38746	-1502.84849	-320.58598	-183.88942	-37.42882	4.06835	0
659	-132.62821	365.33783	497.15237	-117.98215	-315.70396	431.2451	-329.53635	-1390.56203	-308.38093	-176.56639	-30.10579	11.39138	0
660	-154.5973	314.07662	467.86025	-81.367	-310.82194	389.74793	-312.44928	-1278.27557	-301.0579	-174.12538	-27.66478	11.39138	0
661	-161.92033	265.25642	426.36308	-52.07488	-293.73487	345.80975	-302.68524	-1163.5481	-298.61689	-171.68437	-27.66478	11.39138	0
662	-161.92033	218.87723	379.98389	-30.10579	-271.76578	299.43056	-292.9212	-1046.37962	-291.29386	-169.24336	-25.22377	11.39138	0
663	-161.92033	179.82107	340.92773	-10.57771	-252.2377	260.3744	-275.83413	-931.65215	-276.6478	-159.47932	-20.34175	11.39138	0
664	-157.03831	145.64693	301.87157	4.06835	-230.26861	223.75925	-256.30605	-819.36569	-259.56073	-144.83326	-8.1367	16.2734	0
665	-147.27427	121.23683	267.69743	11.39138	-208.29952	194.46713	-236.77797	-716.84327	-235.15063	-127.74619	2.44101	21.15542	0
666	-139.95124	94.38572	233.52329	21.15542	-186.33043	162.734	-212.36787	-626.5259	-210.74053	-108.21811	14.64606	28.47845	0
667	-137.51023	72.41663	209.11319	31.73313	-174.12538	140.76491	-187.95777	-550.85459	-186.33043	-88.69003	26.85111	30.91946	0
668	-139.95124	50.44754	189.58511	43.93818	-164.36134	118.79582	-165.98868	-489.82934	-164.36134	-74.04397	34.17414	35.80148	0
669	-139.95124	30.91946	170.05703	53.70222	-154.5973	99.26774	-146.4606	-438.56813	-144.83326	-59.39791	39.05616	35.80148	0
670	-139.95124	8.95037	148.08794	63.46626	-144.83326	77.29865	-126.93252	-399.51197	-127.74619	-44.75185	43.93818	35.80148	0
671	-139.95124	-15.45973	123.67784	75.67131	-132.62821	52.88855	-109.84545	-362.89682	-110.65912	-34.98781	43.93818	33.36047	0
672	-137.51023	-35.80148	101.70875	85.43535	-120.42316	33.36047	-92.75838	-331.16369	-98.45407	-25.22377	43.93818	33.36047	0
673	-137.51023	-55.32956	82.18067	95.19939	-110.65912	13.83239	-75.67131	-299.43056	-86.24902	-17.90074	43.93818	30.91946	0
674	-135.06922	-72.41663	62.65259	102.52242	-100.89508	-5.69569	-61.02525	-270.13844	-71.60296	-8.1367	48.8202	30.91946	0
675	-135.06922	-82.18067	52.88855	107.40444	-96.01306	-15.45973	-46.37919	-248.16935	-61.83892	-0.81367	51.26121	33.36047	0
676	-132.62821	-91.94471	40.6835	109.84545	-88.69003	-26.03744	-36.61515	-231.08228	-54.51589	4.88202	53.70222	35.80148	0
677	-135.06922	-96.82673	38.24249	114.72747	-88.69003	-30.91946	-29.29212	-221.31824	-47.19286	9.76404	58.58424	40.6835	0
678	-137.51023	-94.38572	43.12451	114.72747	-91.13104	-26.03744	-26.85111	-213.99521	-44.75185	14.64606	63.46626	45.56552	0
679	-142.39225	-91.94471	50.44754	114.72747	-98.45407	-20.34175	-24.4101	-213.99521	-39.86983	19.52808	68.34828	50.44754	0
680	-144.83326	-87.06269	57.77057	114.72747	-103.33609	-15.45973	-24.4101	-216.43622	-39.86983	19.52808	68.34828	52.88855	0
681	-147.27427	-82.18067	65.0936	112.28646	-108.21811	-8.1367	-24.4101	-218.87723	-39.86983	19.52808	70.78929	57.77057	0
682	-147.27427	-79.73966	67.53461	112.28646	-108.21811	-5.69569	-24.4101	-223.75925	-39.86983	19.52808	70.78929	57.77057	0
683	-149.71528	-74.85764	74.85764	109.84545	-113.10013	-0.81367	-24.4101	-226.20026	-39.86983	19.52808	70.78929	57.77057	0
684	-149.71528	-69.97562	79.73966	107.40444	-115.54114	4.06835	-24.4101	-226.20026	-39.86983	19.52808	70.78929	57.77057	0
685	-147.27427	-62.65259	84.62168	102.52242	-117.98215	11.39138	-26.85111	-231.08228	-39.86983	17.08707	68.34828	57.77057	0
686	-144.83326	-60.21158	84.62168	100.08141	-115.54114	11.39138	-26.85111	-231.08228	-42.31084	17.08707	68.34828	57.77057	0
687	-142.39225	-55.32956	87.06269	97.6404	-115.54114	16.2734	-29.29212	-233.52329	-44.75185	14.64606	68.34828	57.77057	0
688	-142.39225	-52.88855	89.5037	95.19939	-117.98215	18.71441	-31.73313	-235.9643	-47.19286	14.64606	68.34828	55.32956	0
689	-144.83326	-48.00653	96.82673	95.19939	-122.86417	23.59643	-34.17414	-238.40531	-47.19286	14.64606	68.34828	55.32956	0
690	-144.83326	-43.12451	101.70875	92.75838	-125.30518	28.47845	-36.61515	-243.28733	-49.63387	14.64606	68.34828	55.32956	0
691	-142.39225	-38.24249	104.14976	87.87636	-125.30518	33.36047	-39.05616	-243.28733	-49.63387	12.20505	68.34828	55.32956	0
692	-137.51023	-35.80148	101.70875	85.43535	-120.42316	33.36047	-41.49717	-245.72834	-52.07488	12.20505	65.90727	55.32956	0
693	-137.51023	-30.10579	106.59077	82.99434	-122.86417	38.24249	-43.93818	-245.72834	-52.07488	12.20505	65.90727	55.32956	0
694	-135.06922	-25.22377	109.03178	78.11232	-122.86417	40.6835	-46.37919	-248.16935	-54.51589	12.20505	65.90727	57.77057	-1250	T-0
695	-130.1872	-13.01872	116.35481	70.78929	-122.86417	50.44754	-48.8202	-253.05137	-56.9569	9.76404	65.90727	57.77057	0
696	-125.30518	-8.1367	116.35481	65.90727	-120.42316	52.88855	-53.70222	-257.93339	-59.39791	7.32303	63.46626	57.77057	0
697	-120.42316	1.62734	121.23683	58.58424	-120.42316	60.21158	-61.02525	-262.81541	-64.27993	4.88202	61.02525	57.77057	0
698	-120.42316	13.83239	133.44188	51.26121	-127.74619	72.41663	-65.90727	-267.69743	-66.72094	2.44101	58.58424	55.32956	0
699	-117.98215	23.59643	140.76491	46.37919	-130.1872	82.18067	-73.2303	-275.02046	-74.04397	-0.81367	53.70222	52.88855	0
700	-115.54114	33.36047	148.08794	39.05616	-132.62821	89.5037	-82.99434	-282.34349	-81.367	-5.69569	48.8202	50.44754	0
701	-110.65912	48.00653	157.85198	29.29212	-135.06922	101.70875	-90.31737	-289.66652	-88.69003	-13.01872	43.93818	45.56552	0
702	-105.7771	57.77057	162.734	23.59643	-135.06922	109.03178	-97.6404	-294.54854	-93.57205	-17.90074	41.49717	43.12451	0
703	-103.33609	69.97562	172.49804	16.2734	-137.51023	121.23683	-102.52242	-301.87157	-98.45407	-22.78276	34.17414	40.6835	0
704	-98.45407	77.29865	174.93905	8.95037	-137.51023	126.11885	-109.84545	-309.1946	-105.7771	-30.10579	29.29212	38.24249	0
705	-96.01306	89.5037	184.70309	1.62734	-139.95124	135.88289	-117.16848	-318.95864	-113.10013	-34.98781	24.4101	35.80148	0
706	-91.13104	99.26774	189.58511	-5.69569	-139.95124	143.20592	-124.49151	-323.84066	-120.42316	-42.31084	19.52808	30.91946	0
707	-86.24902	104.14976	189.58511	-10.57771	-137.51023	145.64693	-131.81454	-331.16369	-125.30518	-47.19286	17.08707	30.91946	0
708	-86.24902	109.03178	194.46713	-13.01872	-139.95124	150.52895	-139.13757	-336.04571	-130.1872	-52.07488	12.20505	28.47845	0
709	-83.80801	113.9138	196.90814	-15.45973	-139.95124	155.41097	-146.4606	-343.36874	-137.51023	-56.9569	7.32303	26.03744	0
710	-81.367	121.23683	201.79016	-20.34175	-142.39225	160.29299	-153.78363	-348.25076	-142.39225	-61.83892	4.88202	26.03744	0
711	-74.04397	123.67784	196.90814	-25.22377	-135.06922	160.29299	-161.10666	-350.69177	-147.27427	-64.27993	2.44101	26.03744	0
712	-66.72094	128.55986	194.46713	-32.5468	-130.1872	160.29299	-165.98868	-350.69177	-152.15629	-66.72094	2.44101	26.03744	0
713	-61.83892	135.88289	196.90814	-37.42882	-130.1872	165.17501	-170.8707	-350.69177	-154.5973	-66.72094	2.44101	26.03744	0
714	-59.39791	143.20592	201.79016	-42.31084	-130.1872	172.49804	-173.31171	-350.69177	-157.03831	-69.16195	2.44101	26.03744	0
715	-54.51589	155.41097	209.11319	-52.07488	-132.62821	182.26208	-178.19373	-353.13278	-159.47932	-71.60296	2.44101	28.47845	0
716	-49.63387	165.17501	213.99521	-59.39791	-132.62821	189.58511	-178.19373	-353.13278	-161.92033	-71.60296	2.44101	28.47845	0
717	-47.19286	170.05703	216.43622	-61.83892	-132.62821	192.02612	-180.63474	-353.13278	-161.92033	-71.60296	2.44101	28.47845	0
718	-47.19286	177.38006	223.75925	-66.72094	-135.06922	199.34915	-183.07575	-348.25076	-164.36134	-71.60296	2.44101	28.47845	0
719	-47.19286	182.26208	228.64127	-69.16195	-137.51023	204.23117	-185.51676	-345.80975	-164.36134	-71.60296	2.44101	28.47845	0
720	-44.75185	187.1441	231.08228	-71.60296	-137.51023	209.11319	-187.95777	-340.92773	-166.80235	-74.04397	2.44101	28.47845	0
721	-39.86983	187.1441	226.20026	-74.04397	-132.62821	206.67218	-187.95777	-333.6047	-166.80235	-74.04397	2.44101	28.47845	0
722	-32.5468	187.1441	218.87723	-78.92599	-125.30518	201.79016	-187.95777	-321.39965	-166.80235	-76.48498	0	28.47845	0
723	-27.66478	187.1441	213.99521	-81.367	-120.42316	199.34915	-187.95777	-309.1946	-166.80235	-78.92599	0	26.03744	0
724	-22.78276	189.58511	211.5542	-83.80801	-117.98215	199.34915	-187.95777	-296.98955	-166.80235	-78.92599	-2.44101	26.03744	0
725	-20.34175	192.02612	211.5542	-86.24902	-115.54114	201.79016	-187.95777	-284.7845	-166.80235	-78.92599	-2.44101	26.03744	0
726	-12.20505	194.46713	206.67218	-91.13104	-110.65912	201.79016	-185.51676	-270.13844	-166.80235	-78.92599	-2.44101	26.03744	0
727	-9.76404	192.02612	201.79016	-91.13104	-105.7771	196.90814	-180.63474	-257.93339	-161.92033	-78.92599	-5.69569	26.03744	0
728	-7.32303	192.02612	199.34915	-93.57205	-103.33609	196.90814	-175.75272	-240.84632	-159.47932	-76.48498	-5.69569	26.03744	0
729	-7.32303	189.58511	196.90814	-91.13104	-103.33609	194.46713	-173.31171	-226.20026	-157.03831	-74.04397	-5.69569	26.03744	0
730	-2.44101	184.70309	187.1441	-91.13104	-96.01306	187.1441	-170.8707	-211.5542	-154.5973	-74.04397	-5.69569	26.03744	0
731	4.88202	182.26208	177.38006	-93.57205	-86.24902	179.82107	-165.98868	-192.02612	-149.71528	-71.60296	-5.69569	26.03744	0
732	12.20505	174.93905	162.734	-93.57205	-76.48498	170.05703	-161.10666	-170.05703	-144.83326	-69.16195	-5.69569	26.03744	0
733	17.08707	170.05703	152.96996	-93.57205	-69.16195	162.734	-156.22464	-145.64693	-139.95124	-64.27993	-5.69569	28.47845	0
734	24.4101	165.17501	140.76491	-96.01306	-59.39791	152.96996	-148.90161	-121.23683	-132.62821	-61.83892	-5.69569	28.47845	0
735	29.29212	160.29299	131.00087	-96.01306	-52.07488	145.64693	-139.13757	-99.26774	-125.30518	-56.9569	-5.69569	28.47845	0
736	34.17414	150.52895	116.35481	-93.57205	-42.31084	133.44188	-129.37353	-74.85764	-117.98215	-52.07488	-5.69569	28.47845	0
737	36.61515	140.76491	104.14976	-88.69003	-34.98781	123.67784	-119.60949	-48.00653	-110.65912	-47.19286	-2.44101	28.47845	0
738	39.05616	128.55986	89.5037	-83.80801	-25.22377	109.03178	-107.40444	-18.71441	-100.89508	-42.31084	-2.44101	28.47845	0
739	39.05616	116.35481	77.29865	-78.92599	-20.34175	96.82673	-97.6404	8.95037	-93.57205	-39.86983	-2.44101	26.03744	0
740	43.93818	106.59077	62.65259	-76.48498	-10.57771	84.62168	-85.43535	40.6835	-86.24902	-34.98781	-2.44101	26.03744	0
741	48.8202	94.38572	45.56552	-71.60296	2.44101	69.97562	-78.11232	74.85764	-78.92599	-30.10579	-2.44101	23.59643	0
742	56.14323	82.18067	26.03744	-69.16195	14.64606	55.32956	-65.90727	106.59077	-69.16195	-25.22377	0	23.59643	0
743	61.02525	72.41663	11.39138	-66.72094	24.4101	43.12451	-53.70222	143.20592	-61.83892	-20.34175	2.44101	23.59643	0
744	65.90727	62.65259	-3.25468	-64.27993	34.17414	30.91946	-43.93818	174.93905	-52.07488	-15.45973	4.88202	23.59643	0
745	68.34828	55.32956	-13.01872	-61.83892	41.49717	21.15542	-31.73313	206.67218	-44.75185	-10.57771	7.32303	23.59643	0
746	70.78929	48.00653	-23.59643	-59.39791	46.37919	13.83239	-19.52808	233.52329	-37.42882	-5.69569	9.76404	23.59643	0
747	73.2303	35.80148	-38.24249	-54.51589	56.14323	-0.81367	-7.32303	260.3744	-27.66478	-0.81367	14.64606	23.59643	0
748	70.78929	23.59643	-48.00653	-47.19286	58.58424	-10.57771	2.44101	284.7845	-17.90074	4.88202	17.08707	26.03744	0
749	65.90727	8.95037	-57.77057	-37.42882	61.02525	-22.78276	15.45973	304.31258	-10.57771	9.76404	19.52808	28.47845	0
750	63.46626	-8.1367	-72.41663	-27.66478	68.34828	-40.6835	25.22377	318.95864	-5.69569	14.64606	21.96909	30.91946	0
751	63.46626	-25.22377	-89.5037	-20.34175	75.67131	-57.77057	37.42882	333.6047	-0.81367	19.52808	26.85111	33.36047	0
752	63.46626	-43.12451	-106.59077	-10.57771	82.99434	-74.85764	47.19286	345.80975	7.32303	26.85111	31.73313	38.24249	0
753	63.46626	-57.77057	-121.23683	-3.25468	90.31737	-89.5037	54.51589	355.57379	14.64606	31.73313	36.61515	40.6835	0
754	61.02525	-67.53461	-128.55986	1.62734	92.75838	-96.82673	61.83892	360.45581	19.52808	34.17414	39.05616	43.12451	0
755	58.58424	-77.29865	-135.88289	8.95037	95.19939	-106.59077	66.72094	360.45581	21.96909	36.61515	41.49717	43.12451	0
756	53.70222	-82.18067	-135.88289	13.83239	92.75838	-109.03178	76.48498	360.45581	29.29212	41.49717	43.93818	45.56552	0
757	48.8202	-89.5037	-138.3239	18.71441	92.75838	-113.9138	83.80801	355.57379	31.73313	43.93818	46.37919	48.00653	0
758	39.05616	-96.82673	-135.88289	26.03744	85.43535	-116.35481	88.69003	353.13278	36.61515	46.37919	46.37919	50.44754	0
759	29.29212	-106.59077	-135.88289	36.61515	80.55333	-121.23683	93.57205	345.80975	41.49717	48.8202	48.8202	50.44754	0
760	21.96909	-116.35481	-138.3239	46.37919	78.11232	-126.11885	100.89508	340.92773	43.93818	53.70222	51.26121	52.88855	0
761	14.64606	-128.55986	-143.20592	56.14323	78.11232	-135.88289	105.7771	336.04571	48.8202	58.58424	56.14323	55.32956	0
762	12.20505	-138.3239	-150.52895	61.02525	80.55333	-143.20592	105.7771	328.72268	48.8202	61.02525	56.14323	57.77057	0
763	4.88202	-148.08794	-152.96996	70.78929	78.11232	-150.52895	110.65912	321.39965	51.26121	63.46626	58.58424	60.21158	0
764	-2.44101	-155.41097	-152.96996	78.11232	73.2303	-152.96996	110.65912	314.07662	51.26121	65.90727	63.46626	65.0936	0
765	-9.76404	-155.41097	-145.64693	80.55333	65.90727	-150.52895	115.54114	301.87157	51.26121	68.34828	65.90727	67.53461	0
766	-17.08707	-160.29299	-143.20592	87.87636	61.02525	-150.52895	117.98215	292.10753	53.70222	70.78929	68.34828	72.41663	0
767	-22.78276	-162.734	-140.76491	90.31737	58.58424	-152.96996	122.86417	279.90248	53.70222	70.78929	70.78929	74.85764	0
768	-32.5468	-165.17501	-133.44188	97.6404	48.8202	-150.52895	125.30518	270.13844	56.14323	73.2303	73.2303	79.73966	0
769	-39.86983	-165.17501	-126.11885	100.08141	41.49717	-145.64693	130.1872	260.3744	58.58424	75.67131	73.2303	79.73966	0
770	-47.19286	-170.05703	-123.67784	107.40444	36.61515	-148.08794	132.62821	250.61036	58.58424	75.67131	75.67131	82.18067	0
771	-47.19286	-172.49804	-126.11885	107.40444	39.05616	-150.52895	135.06922	248.16935	61.02525	78.11232	78.11232	84.62168	0
772	-47.19286	-174.93905	-128.55986	109.84545	39.05616	-152.96996	137.51023	243.28733	63.46626	78.11232	80.55333	87.06269	0
773	-52.07488	-179.82107	-128.55986	114.72747	36.61515	-155.41097	137.51023	240.84632	65.90727	80.55333	82.99434	89.5037	0
774	-54.51589	-182.26208	-128.55986	117.16848	36.61515	-155.41097	139.95124	238.40531	65.90727	80.55333	82.99434	89.5037	0
775	-56.9569	-182.26208	-126.11885	117.16848	34.17414	-155.41097	142.39225	233.52329	65.90727	80.55333	82.99434	89.5037	0
776	-56.9569	-182.26208	-126.11885	117.16848	34.17414	-155.41097	142.39225	231.08228	65.90727	80.55333	82.99434	89.5037	0
777	-56.9569	-179.82107	-123.67784	117.16848	31.73313	-152.96996	142.39225	226.20026	65.90727	80.55333	82.99434	89.5037	0
778	-61.83892	-182.26208	-121.23683	119.60949	29.29212	-152.96996	142.39225	221.31824	63.46626	82.99434	82.99434	89.5037	0
779	-64.27993	-182.26208	-118.79582	122.0505	26.85111	-150.52895	142.39225	216.43622	63.46626	82.99434	82.99434	89.5037	0
780	-64.27993	-182.26208	-118.79582	122.0505	26.85111	-150.52895	142.39225	211.5542	61.02525	82.99434	80.55333	89.5037	0
781	-61.83892	-182.26208	-121.23683	119.60949	29.29212	-152.96996	142.39225	211.5542	58.58424	82.99434	80.55333	89.5037	0
782	-56.9569	-182.26208	-126.11885	117.16848	34.17414	-155.41097	142.39225	209.11319	58.58424	80.55333	80.55333	91.94471	0
783	-56.9569	-184.70309	-128.55986	119.60949	34.17414	-157.85198	142.39225	206.67218	56.14323	80.55333	82.99434	94.38572	0
784	-59.39791	-184.70309	-126.11885	119.60949	31.73313	-155.41097	139.95124	204.23117	53.70222	80.55333	82.99434	96.82673	0
785	-59.39791	-184.70309	-126.11885	119.60949	31.73313	-155.41097	139.95124	201.79016	53.70222	78.11232	82.99434	96.82673	0
786	-61.83892	-184.70309	-123.67784	122.0505	29.29212	-155.41097	137.51023	199.34915	51.26121	75.67131	82.99434	96.82673	0
787	-64.27993	-184.70309	-121.23683	122.0505	26.85111	-152.96996	137.51023	196.90814	51.26121	75.67131	82.99434	96.82673	0
788	-66.72094	-189.58511	-123.67784	126.93252	26.85111	-157.85198	137.51023	196.90814	48.8202	75.67131	82.99434	96.82673	0
789	-71.60296	-192.02612	-121.23683	129.37353	24.4101	-157.85198	137.51023	196.90814	48.8202	75.67131	82.99434	96.82673	0
790	-71.60296	-196.90814	-126.11885	131.81454	26.85111	-162.734	137.51023	196.90814	48.8202	75.67131	82.99434	94.38572	0
791	-71.60296	-199.34915	-128.55986	134.25555	26.85111	-165.17501	137.51023	196.90814	48.8202	75.67131	80.55333	94.38572	0
792	-71.60296	-206.67218	-135.88289	136.69656	31.73313	-172.49804	137.51023	196.90814	48.8202	75.67131	80.55333	91.94471	0
793	-71.60296	-211.5542	-140.76491	139.13757	34.17414	-177.38006	139.95124	196.90814	46.37919	75.67131	80.55333	91.94471	0
794	-74.04397	-216.43622	-143.20592	144.01959	34.17414	-179.82107	139.95124	196.90814	46.37919	75.67131	80.55333	91.94471	0
795	-74.04397	-216.43622	-143.20592	144.01959	34.17414	-179.82107	137.51023	194.46713	46.37919	75.67131	78.11232	91.94471	0
796	-74.04397	-216.43622	-143.20592	144.01959	34.17414	-179.82107	137.51023	194.46713	46.37919	75.67131	75.67131	89.5037	0
797	-71.60296	-218.87723	-148.08794	144.01959	36.61515	-184.70309	137.51023	189.58511	46.37919	75.67131	75.67131	89.5037	0
798	-74.04397	-216.43622	-143.20592	144.01959	34.17414	-179.82107	135.06922	189.58511	43.93818	75.67131	75.67131	89.5037	0
799	-76.48498	-213.99521	-138.3239	144.01959	29.29212	-177.38006	135.06922	184.70309	46.37919	75.67131	75.67131	89.5037	0
800	-74.04397	-213.99521	-140.76491	141.57858	31.73313	-177.38006	137.51023	184.70309	48.8202	75.67131	78.11232	89.5037	0
801	-74.04397	-213.99521	-140.76491	141.57858	31.73313	-177.38006	137.51023	184.70309	48.8202	75.67131	78.11232	89.5037	0
802	-74.04397	-213.99521	-140.76491	141.57858	31.73313	-177.38006	139.95124	184.70309	48.8202	75.67131	78.11232	89.5037	0
803	-78.92599	-216.43622	-138.3239	146.4606	29.29212	-177.38006	142.39225	187.1441	51.26121	78.11232	80.55333	91.94471	0
804	-78.92599	-216.43622	-138.3239	146.4606	29.29212	-177.38006	142.39225	189.58511	51.26121	80.55333	82.99434	91.94471	0
805	-81.367	-216.43622	-135.88289	146.4606	26.85111	-177.38006	144.83326	189.58511	53.70222	80.55333	82.99434	91.94471	0
806	-81.367	-218.87723	-138.3239	148.90161	26.85111	-179.82107	147.27427	189.58511	58.58424	85.43535	82.99434	91.94471	0
807	-78.92599	-218.87723	-140.76491	146.4606	29.29212	-179.82107	149.71528	189.58511	58.58424	85.43535	82.99434	91.94471	0
808	-78.92599	-218.87723	-140.76491	146.4606	29.29212	-179.82107	149.71528	187.1441	61.02525	85.43535	82.99434	91.94471	0
809	-78.92599	-221.31824	-143.20592	148.90161	31.73313	-182.26208	152.15629	187.1441	63.46626	85.43535	82.99434	91.94471	0
810	-76.48498	-221.31824	-145.64693	146.4606	34.17414	-184.70309	154.5973	189.58511	63.46626	85.43535	82.99434	91.94471	0
811	-74.04397	-228.64127	-155.41097	148.90161	39.05616	-192.02612	159.47932	192.02612	65.90727	87.87636	82.99434	91.94471	0
812	-71.60296	-233.52329	-162.734	151.34262	43.93818	-199.34915	161.92033	194.46713	68.34828	87.87636	82.99434	91.94471	0
813	-71.60296	-235.9643	-165.17501	151.34262	46.37919	-201.79016	161.92033	196.90814	70.78929	90.31737	82.99434	94.38572	0
814	-74.04397	-235.9643	-162.734	153.78363	43.93818	-199.34915	166.80235	199.34915	73.2303	92.75838	85.43535	96.82673	0
815	-74.04397	-235.9643	-162.734	153.78363	43.93818	-199.34915	166.80235	199.34915	73.2303	97.6404	87.87636	96.82673	0
816	-74.04397	-235.9643	-162.734	153.78363	43.93818	-199.34915	169.24336	199.34915	73.2303	97.6404	87.87636	96.82673	0
817	-71.60296	-238.40531	-167.61602	153.78363	46.37919	-204.23117	169.24336	199.34915	73.2303	97.6404	87.87636	96.82673	0
818	-71.60296	-235.9643	-165.17501	151.34262	46.37919	-201.79016	169.24336	201.79016	73.2303	97.6404	87.87636	94.38572	0
819	-74.04397	-235.9643	-162.734	153.78363	43.93818	-199.34915	166.80235	201.79016	73.2303	97.6404	85.43535	94.38572	0
820	-74.04397	-235.9643	-162.734	153.78363	43.93818	-199.34915	166.80235	204.23117	73.2303	95.19939	85.43535	91.94471	0
821	-74.04397	-235.9643	-162.734	153.78363	43.93818	-199.34915	166.80235	206.67218	73.2303	92.75838	82.99434	89.5037	0
822	-74.04397	-240.84632	-167.61602	156.22464	46.37919	-204.23117	166.80235	206.67218	73.2303	92.75838	80.55333	89.5037	0
823	-76.48498	-240.84632	-165.17501	156.22464	43.93818	-204.23117	166.80235	206.67218	73.2303	90.31737	78.11232	89.5037	0
824	-76.48498	-243.28733	-167.61602	158.66565	43.93818	-206.67218	166.80235	206.67218	70.78929	90.31737	78.11232	89.5037	0
825	-76.48498	-243.28733	-167.61602	158.66565	43.93818	-206.67218	166.80235	204.23117	70.78929	90.31737	75.67131	89.5037	0
826	-76.48498	-248.16935	-172.49804	161.10666	46.37919	-211.5542	166.80235	201.79016	70.78929	87.87636	75.67131	89.5037	0
827	-74.04397	-250.61036	-177.38006	161.10666	51.26121	-213.99521	166.80235	199.34915	70.78929	87.87636	73.2303	89.5037	0
828	-74.04397	-250.61036	-177.38006	161.10666	51.26121	-213.99521	166.80235	199.34915	70.78929	87.87636	70.78929	87.06269	0
829	-74.04397	-253.05137	-179.82107	161.10666	51.26121	-216.43622	166.80235	196.90814	70.78929	85.43535	70.78929	87.06269	0
830	-74.04397	-253.05137	-179.82107	161.10666	51.26121	-216.43622	166.80235	194.46713	70.78929	85.43535	70.78929	87.06269	0
831	-74.04397	-253.05137	-179.82107	161.10666	51.26121	-216.43622	166.80235	194.46713	73.2303	85.43535	70.78929	87.06269	0
832	-74.04397	-253.05137	-179.82107	161.10666	51.26121	-216.43622	164.36134	194.46713	73.2303	85.43535	68.34828	87.06269	0
833	-76.48498	-250.61036	-174.93905	161.10666	48.8202	-213.99521	164.36134	194.46713	73.2303	85.43535	70.78929	87.06269	0
834	-78.92599	-248.16935	-170.05703	161.10666	43.93818	-209.11319	161.92033	194.46713	73.2303	87.87636	70.78929	87.06269	0
835	-78.92599	-243.28733	-165.17501	158.66565	41.49717	-204.23117	161.92033	192.02612	73.2303	87.87636	70.78929	89.5037	0
836	-81.367	-243.28733	-162.734	161.10666	39.05616	-204.23117	159.47932	187.1441	73.2303	90.31737	70.78929	89.5037	0
837	-81.367	-243.28733	-162.734	161.10666	39.05616	-204.23117	157.03831	182.26208	73.2303	90.31737	70.78929	89.5037	0
838	-83.80801	-238.40531	-155.41097	158.66565	34.17414	-196.90814	154.5973	182.26208	73.2303	87.87636	70.78929	87.06269	0
839	-86.24902	-235.9643	-150.52895	158.66565	31.73313	-194.46713	152.15629	179.82107	70.78929	85.43535	70.78929	84.62168	0
840	-83.80801	-235.9643	-152.96996	158.66565	34.17414	-194.46713	149.71528	177.38006	70.78929	82.99434	68.34828	84.62168	0
841	-83.80801	-235.9643	-152.96996	158.66565	34.17414	-194.46713	147.27427	179.82107	70.78929	82.99434	68.34828	84.62168	0
842	-78.92599	-235.9643	-157.85198	156.22464	39.05616	-196.90814	144.83326	179.82107	70.78929	82.99434	68.34828	82.18067	0
843	-81.367	-238.40531	-157.85198	158.66565	36.61515	-199.34915	144.83326	182.26208	68.34828	80.55333	68.34828	82.18067	0
844	-81.367	-238.40531	-157.85198	158.66565	36.61515	-199.34915	144.83326	182.26208	68.34828	80.55333	68.34828	82.18067	0
845	-81.367	-240.84632	-160.29299	158.66565	39.05616	-201.79016	144.83326	184.70309	68.34828	80.55333	68.34828	82.18067	0
846	-81.367	-245.72834	-165.17501	161.10666	41.49717	-206.67218	147.27427	184.70309	68.34828	80.55333	68.34828	84.62168	0
847	-81.367	-248.16935	-167.61602	163.54767	41.49717	-209.11319	147.27427	187.1441	68.34828	78.11232	65.90727	84.62168	0
848	-81.367	-250.61036	-170.05703	163.54767	43.93818	-211.5542	149.71528	192.02612	70.78929	78.11232	63.46626	82.18067	0
849	-81.367	-257.93339	-177.38006	168.42969	46.37919	-218.87723	154.5973	199.34915	70.78929	78.11232	63.46626	82.18067	0
850	-81.367	-265.25642	-184.70309	170.8707	51.26121	-226.20026	159.47932	211.5542	75.67131	80.55333	63.46626	82.18067	0
851	-83.80801	-275.02046	-192.02612	178.19373	53.70222	-233.52329	171.68437	228.64127	82.99434	85.43535	63.46626	82.18067	0
852	-86.24902	-287.22551	-201.79016	185.51676	56.14323	-245.72834	183.88942	248.16935	92.75838	90.31737	65.90727	84.62168	0
853	-96.01306	-299.43056	-204.23117	195.2808	53.70222	-253.05137	203.4175	272.57945	104.96343	100.08141	70.78929	89.5037	0
854	-108.21811	-314.07662	-206.67218	209.92686	48.8202	-260.3744	225.38659	304.31258	124.49151	114.72747	78.11232	96.82673	0
855	-120.42316	-331.16369	-211.5542	224.57292	43.93818	-272.57945	259.56073	345.80975	153.78363	136.69656	92.75838	109.03178	0
856	-137.51023	-350.69177	-213.99521	241.65999	36.61515	-282.34349	298.61689	399.51197	187.95777	163.54767	109.84545	121.23683	0
857	-149.71528	-370.21985	-221.31824	258.74706	34.17414	-296.98955	342.55507	460.53722	227.01393	192.83979	129.37353	133.44188	0
858	-157.03831	-384.86591	-228.64127	268.5111	34.17414	-306.75359	384.05224	536.20853	263.62908	222.13191	148.90161	145.64693	0
859	-157.03831	-392.18894	-235.9643	273.39312	39.05616	-314.07662	427.99042	621.64388	300.24423	251.42403	165.98868	155.41097	0
860	-144.83326	-392.18894	-248.16935	266.07009	51.26121	-321.39965	467.04658	719.28428	334.41837	275.83413	180.63474	162.734	0
861	-115.54114	-377.54288	-262.81541	244.101	73.2303	-321.39965	496.3387	829.12973	361.26948	292.9212	187.95777	162.734	0
862	-66.72094	-350.69177	-284.7845	207.48585	107.40444	-318.95864	513.42577	963.38528	375.91554	297.80322	185.51676	152.96996	0
863	-4.88202	-306.75359	-301.87157	153.78363	146.4606	-304.31258	520.7488	1119.60992	380.79756	295.36221	173.31171	135.88289	0
864	73.2303	-245.72834	-318.95864	85.43535	195.2808	-282.34349	515.86678	1297.80365	378.35655	280.71615	151.34262	111.47279	0
865	165.98868	-165.17501	-331.16369	-0.81367	246.54201	-248.16935	503.66173	1497.96647	368.59251	261.18807	124.49151	82.18067	0
866	266.07009	-79.73966	-345.80975	-93.57205	305.12625	-211.5542	489.01567	1709.52067	353.94645	236.77797	92.75838	48.00653	0
867	366.1515	13.83239	-353.13278	-191.21245	358.82847	-170.05703	467.04658	1902.36046	334.41837	207.48585	56.14323	11.39138	0
868	458.90988	121.23683	-338.48672	-291.29386	397.88463	-109.03178	437.75446	2051.26207	310.00827	175.75272	21.96909	-21.15542	0
869	539.46321	243.28733	-296.98955	-391.37527	417.41271	-26.03744	393.81628	2117.16934	283.15716	146.4606	-5.69569	-48.00653	0
870	600.48846	372.66086	-228.64127	-486.57466	414.9717	72.41663	335.23204	2068.34914	244.101	112.28646	-30.10579	-67.53461	0
871	649.30866	504.4754	-145.64693	-576.89203	397.88463	179.82107	254.67871	1899.91945	192.83979	75.67131	-54.51589	-82.18067	0
872	683.4828	628.96691	-55.32956	-657.44536	368.59251	287.22551	154.5973	1615.13495	126.93252	29.29212	-76.48498	-94.38572	0
873	693.24684	738.81236	45.56552	-716.0296	324.65433	392.18894	42.31084	1239.21941	53.70222	-15.45973	-93.57205	-99.26774	0
874	676.15977	829.12973	152.96996	-752.64475	261.18807	492.27035	-68.34828	794.95559	-17.90074	-56.9569	-105.7771	-94.38572	0
875	632.22159	895.037	262.81541	-764.8498	185.51676	580.14671	-180.63474	279.90248	-98.45407	-100.89508	-113.10013	-84.62168	0
876	566.31432	919.4471	353.13278	-742.88071	107.40444	636.28994	-280.71615	-231.08228	-171.68437	-139.95124	-117.98215	-67.53461	0
877	488.202	914.56508	426.36308	-701.38354	31.73313	670.46408	-353.94645	-677.78711	-227.8276	-166.80235	-113.10013	-48.00653	0
878	393.00261	882.83195	489.82934	-637.91728	-49.63387	687.55115	-400.32564	-1046.37962	-269.32477	-186.33043	-103.33609	-21.15542	0
879	292.9212	834.01175	541.09055	-564.68698	-125.30518	687.55115	-424.73574	-1331.97779	-296.17588	-193.65346	-91.13104	4.06835	0
880	192.83979	772.9865	580.14671	-484.13365	-193.65346	677.78711	-424.73574	-1527.25859	-305.93992	-188.77144	-71.60296	33.36047	0
881	97.6404	692.43317	594.79277	-396.25729	-249.79669	643.61297	-405.20766	-1622.45798	-303.49891	-181.44841	-52.07488	57.77057	0
882	17.08707	602.1158	585.02873	-310.82194	-283.97083	594.79277	-371.03352	-1622.45798	-286.41184	-166.80235	-34.98781	77.29865	0
883	-49.63387	511.79843	560.61863	-232.70962	-305.93992	536.20853	-331.97736	-1568.75576	-271.76578	-154.5973	-25.22377	89.5037	0
884	-108.21811	419.04005	526.44449	-157.03831	-318.14497	472.74227	-297.80322	-1493.08445	-259.56073	-147.27427	-20.34175	91.94471	0
885	-157.03831	328.72268	484.94732	-86.24902	-320.58598	406.835	-263.62908	-1402.76708	-247.35568	-142.39225	-17.90074	91.94471	0
886	-191.21245	240.84632	431.2451	-25.22377	-310.82194	336.04571	-239.21898	-1310.0087	-242.47366	-142.39225	-22.78276	87.06269	0
887	-210.74053	162.734	372.66086	23.59643	-291.29386	267.69743	-219.6909	-1214.80931	-240.03265	-147.27427	-30.10579	77.29865	0
888	-220.50457	96.82673	316.51763	61.02525	-269.32477	206.67218	-202.60383	-1107.40487	-232.70962	-147.27427	-37.42882	67.53461	0
889	-220.50457	40.6835	260.3744	87.87636	-240.03265	150.52895	-190.39878	-1004.88245	-227.8276	-149.71528	-44.75185	57.77057	0
890	-218.06356	-8.1367	209.11319	112.28646	-213.18154	99.26774	-170.8707	-899.91902	-213.18154	-144.83326	-44.75185	52.88855	0
891	-215.62255	-43.12451	172.49804	126.93252	-196.09447	65.0936	-148.90161	-804.71963	-191.21245	-130.1872	-37.42882	55.32956	0
892	-210.74053	-65.0936	145.64693	136.69656	-179.0074	40.6835	-126.93252	-716.84327	-166.80235	-113.10013	-27.66478	60.21158	0
893	-208.29952	-74.85764	133.44188	139.13757	-171.68437	28.47845	-107.40444	-636.28994	-142.39225	-96.01306	-17.90074	65.0936	0
894	-203.4175	-82.18067	121.23683	141.57858	-164.36134	18.71441	-92.75838	-565.50065	-122.86417	-81.367	-8.1367	72.41663	0
895	-196.09447	-84.62168	111.47279	139.13757	-154.5973	13.83239	-78.11232	-506.91641	-103.33609	-66.72094	0	77.29865	0
896	-191.21245	-84.62168	106.59077	136.69656	-149.71528	11.39138	-63.46626	-455.6552	-83.80801	-52.07488	9.76404	82.18067	0
897	-181.44841	-84.62168	96.82673	131.81454	-139.95124	6.50936	-51.26121	-411.71702	-66.72094	-39.86983	14.64606	84.62168	0
898	-176.56639	-89.5037	87.06269	131.81454	-132.62821	-0.81367	-39.05616	-367.77884	-54.51589	-30.10579	19.52808	84.62168	0
899	-171.68437	-101.70875	69.97562	134.25555	-122.86417	-15.45973	-26.85111	-331.16369	-42.31084	-22.78276	21.96909	82.18067	0
900	-166.80235	-113.9138	52.88855	139.13757	-110.65912	-30.91946	-14.64606	-296.98955	-32.5468	-15.45973	21.96909	79.73966	0
901	-164.36134	-121.23683	43.12451	141.57858	-105.7771	-40.6835	-4.88202	-272.57945	-22.78276	-10.57771	24.4101	77.29865	0
902	-164.36134	-126.11885	38.24249	144.01959	-103.33609	-45.56552	2.44101	-253.05137	-15.45973	-5.69569	24.4101	74.85764	0
903	-166.80235	-126.11885	40.6835	144.01959	-105.7771	-43.12451	10.57771	-235.9643	-10.57771	-3.25468	29.29212	72.41663	0
904	-169.24336	-128.55986	40.6835	146.4606	-105.7771	-45.56552	13.01872	-228.64127	-5.69569	-0.81367	29.29212	72.41663	0
905	-171.68437	-123.67784	48.00653	146.4606	-110.65912	-38.24249	15.45973	-228.64127	-5.69569	-0.81367	31.73313	72.41663	0
906	-171.68437	-118.79582	52.88855	144.01959	-113.10013	-33.36047	13.01872	-231.08228	-5.69569	-0.81367	31.73313	72.41663	0
907	-171.68437	-113.9138	57.77057	141.57858	-115.54114	-28.47845	10.57771	-233.52329	-5.69569	-0.81367	31.73313	72.41663	0
908	-171.68437	-111.47279	60.21158	139.13757	-117.98215	-26.03744	8.1367	-235.9643	-8.1367	-0.81367	31.73313	72.41663	0
909	-171.68437	-111.47279	60.21158	139.13757	-117.98215	-26.03744	5.69569	-235.9643	-10.57771	-0.81367	31.73313	72.41663	0
910	-169.24336	-109.03178	60.21158	136.69656	-115.54114	-26.03744	5.69569	-235.9643	-10.57771	-3.25468	31.73313	72.41663	0
911	-169.24336	-106.59077	62.65259	136.69656	-117.98215	-22.78276	5.69569	-235.9643	-10.57771	-3.25468	31.73313	69.97562	0
912	-171.68437	-101.70875	69.97562	134.25555	-122.86417	-15.45973	5.69569	-240.84632	-10.57771	-5.69569	31.73313	69.97562	0
913	-176.56639	-96.82673	79.73966	134.25555	-130.1872	-8.1367	5.69569	-245.72834	-13.01872	-5.69569	31.73313	69.97562	0
914	-179.0074	-91.94471	87.06269	134.25555	-135.06922	-3.25468	2.44101	-253.05137	-13.01872	-8.1367	31.73313	69.97562	0
915	-179.0074	-84.62168	94.38572	129.37353	-137.51023	4.06835	2.44101	-260.3744	-13.01872	-10.57771	29.29212	69.97562	0
916	-179.0074	-82.18067	96.82673	129.37353	-139.95124	6.50936	0	-270.13844	-17.90074	-13.01872	29.29212	67.53461	0
917	-179.0074	-79.73966	99.26774	126.93252	-139.95124	8.95037	-4.88202	-279.90248	-20.34175	-15.45973	24.4101	67.53461	0
918	-179.0074	-77.29865	101.70875	126.93252	-142.39225	11.39138	-7.32303	-284.7845	-22.78276	-20.34175	21.96909	67.53461	0
919	-176.56639	-72.41663	104.14976	122.0505	-142.39225	16.2734	-14.64606	-287.22551	-27.66478	-22.78276	21.96909	65.0936	0
920	-176.56639	-67.53461	109.03178	119.60949	-144.83326	21.15542	-19.52808	-289.66652	-30.10579	-25.22377	19.52808	65.0936	0
921	-174.12538	-60.21158	113.9138	114.72747	-144.83326	26.03744	-24.4101	-294.54854	-32.5468	-27.66478	19.52808	62.65259	0
922	-174.12538	-52.88855	121.23683	112.28646	-149.71528	33.36047	-29.29212	-299.43056	-37.42882	-30.10579	19.52808	62.65259	0
923	-174.12538	-40.6835	133.44188	104.96343	-154.5973	45.56552	-34.17414	-304.31258	-39.86983	-32.5468	19.52808	62.65259	0
924	-174.12538	-27.66478	145.64693	100.08141	-159.47932	57.77057	-41.49717	-314.07662	-42.31084	-37.42882	19.52808	60.21158	0
925	-174.12538	-15.45973	157.85198	92.75838	-166.80235	69.97562	-48.8202	-321.39965	-47.19286	-42.31084	19.52808	57.77057	0
926	-171.68437	-5.69569	165.17501	87.87636	-169.24336	79.73966	-56.14323	-331.16369	-52.07488	-47.19286	17.08707	55.32956	0
927	-164.36134	4.06835	167.61602	78.11232	-166.80235	84.62168	-65.90727	-340.92773	-56.9569	-52.07488	14.64606	52.88855	0
928	-157.03831	13.83239	170.05703	70.78929	-164.36134	91.94471	-73.2303	-343.36874	-64.27993	-59.39791	12.20505	50.44754	0
929	-149.71528	23.59643	172.49804	61.02525	-161.92033	96.82673	-82.99434	-348.25076	-71.60296	-64.27993	9.76404	48.00653	0
930	-142.39225	33.36047	174.93905	53.70222	-159.47932	104.14976	-92.75838	-353.13278	-78.92599	-71.60296	4.88202	45.56552	0
931	-137.51023	43.12451	179.82107	46.37919	-159.47932	111.47279	-100.08141	-358.0148	-83.80801	-76.48498	4.88202	45.56552	0
932	-132.62821	55.32956	187.1441	36.61515	-159.47932	121.23683	-107.40444	-365.33783	-86.24902	-78.92599	4.88202	45.56552	0
933	-132.62821	67.53461	199.34915	31.73313	-166.80235	133.44188	-112.28646	-372.66086	-91.13104	-81.367	2.44101	43.12451	0
934	-130.1872	77.29865	206.67218	26.03744	-169.24336	140.76491	-119.60949	-379.98389	-93.57205	-83.80801	2.44101	40.6835	0
935	-127.74619	91.94471	218.87723	16.2734	-174.12538	155.41097	-124.49151	-387.30692	-93.57205	-86.24902	2.44101	38.24249	0
936	-125.30518	101.70875	226.20026	11.39138	-176.56639	162.734	-131.81454	-399.51197	-98.45407	-91.13104	0	35.80148	0
937	-117.98215	111.47279	228.64127	1.62734	-174.12538	170.05703	-141.57858	-406.835	-103.33609	-93.57205	-2.44101	33.36047	0
938	-110.65912	123.67784	233.52329	-8.1367	-171.68437	177.38006	-148.90161	-409.27601	-108.21811	-100.89508	-5.69569	28.47845	0
939	-103.33609	133.44188	235.9643	-15.45973	-169.24336	184.70309	-156.22464	-411.71702	-113.10013	-103.33609	-10.57771	26.03744	0
940	-96.01306	145.64693	240.84632	-25.22377	-169.24336	192.02612	-163.54767	-411.71702	-117.98215	-108.21811	-13.01872	21.15542	0
941	-91.13104	157.85198	248.16935	-34.98781	-169.24336	201.79016	-170.8707	-411.71702	-120.42316	-110.65912	-15.45973	18.71441	0
942	-83.80801	167.61602	250.61036	-42.31084	-166.80235	209.11319	-173.31171	-414.15803	-122.86417	-113.10013	-17.90074	18.71441	0
943	-83.80801	182.26208	265.25642	-49.63387	-174.12538	223.75925	-175.75272	-414.15803	-125.30518	-115.54114	-17.90074	16.2734	0
944	-81.367	189.58511	270.13844	-54.51589	-176.56639	228.64127	-175.75272	-414.15803	-125.30518	-115.54114	-17.90074	16.2734	0
945	-78.92599	199.34915	277.46147	-61.83892	-179.0074	238.40531	-178.19373	-416.59904	-125.30518	-115.54114	-17.90074	13.83239	0
946	-74.04397	206.67218	279.90248	-66.72094	-176.56639	243.28733	-180.63474	-419.04005	-127.74619	-117.98215	-20.34175	11.39138	0
947	-66.72094	213.99521	279.90248	-74.04397	-174.12538	245.72834	-185.51676	-421.48106	-130.1872	-120.42316	-22.78276	8.95037	0
948	-61.83892	218.87723	279.90248	-78.92599	-171.68437	248.16935	-187.95777	-416.59904	-130.1872	-120.42316	-22.78276	8.95037	0
949	-54.51589	223.75925	277.46147	-86.24902	-166.80235	250.61036	-192.83979	-411.71702	-132.62821	-120.42316	-22.78276	6.50936	0
950	-49.63387	228.64127	277.46147	-91.13104	-164.36134	253.05137	-195.2808	-406.835	-132.62821	-120.42316	-25.22377	6.50936	0
951	-42.31084	235.9643	277.46147	-98.45407	-159.47932	255.49238	-197.72181	-401.95298	-132.62821	-122.86417	-25.22377	4.06835	0
952	-37.42882	240.84632	277.46147	-103.33609	-157.03831	257.93339	-200.16282	-397.07096	-132.62821	-125.30518	-25.22377	1.62734	0
953	-34.98781	245.72834	279.90248	-105.7771	-157.03831	262.81541	-200.16282	-392.18894	-132.62821	-125.30518	-27.66478	-1.62734	0
954	-32.5468	248.16935	279.90248	-108.21811	-157.03831	262.81541	-200.16282	-387.30692	-130.1872	-125.30518	-27.66478	-1.62734	0
955	-27.66478	250.61036	277.46147	-113.10013	-152.15629	262.81541	-200.16282	-382.4249	-130.1872	-127.74619	-27.66478	-4.06835	0
956	-22.78276	250.61036	272.57945	-115.54114	-147.27427	260.3744	-200.16282	-379.98389	-130.1872	-130.1872	-27.66478	-6.50936	0
957	-17.08707	245.72834	262.81541	-115.54114	-139.95124	255.49238	-200.16282	-372.66086	-130.1872	-130.1872	-30.10579	-8.95037	0
958	-14.64606	240.84632	255.49238	-113.10013	-135.06922	248.16935	-200.16282	-362.89682	-130.1872	-130.1872	-30.10579	-8.95037	0
959	-7.32303	233.52329	240.84632	-113.10013	-125.30518	238.40531	-200.16282	-350.69177	-130.1872	-130.1872	-32.5468	-13.83239	0
960	-2.44101	226.20026	228.64127	-113.10013	-115.54114	228.64127	-200.16282	-336.04571	-127.74619	-130.1872	-32.5468	-16.2734	0
961	2.44101	218.87723	216.43622	-110.65912	-108.21811	218.87723	-197.72181	-323.84066	-125.30518	-130.1872	-34.98781	-18.71441	0
962	4.88202	211.5542	206.67218	-108.21811	-100.89508	209.11319	-192.83979	-311.63561	-122.86417	-130.1872	-34.98781	-23.59643	0
963	7.32303	204.23117	196.90814	-105.7771	-96.01306	201.79016	-185.51676	-296.98955	-120.42316	-127.74619	-37.42882	-26.03744	0
964	7.32303	196.90814	189.58511	-103.33609	-91.13104	194.46713	-178.19373	-284.7845	-115.54114	-122.86417	-37.42882	-26.03744	0
965	9.76404	189.58511	179.82107	-100.89508	-86.24902	184.70309	-170.8707	-272.57945	-110.65912	-122.86417	-37.42882	-28.47845	0
966	14.64606	179.82107	165.17501	-98.45407	-76.48498	172.49804	-163.54767	-257.93339	-103.33609	-120.42316	-37.42882	-30.91946	0
