samplenr	I	II	III	aVR	aVL	aVF	V1	V2	V3	V4	V5	V6	measurement
0	432.05877	43.12451	-387.30692	-257.11972	401.95298	-169.24336	-103.33609	-302.68524	-343.36874	101.70875	-48.8202	-151.34262	0
1	432.05877	64.27993	-387.30692	-257.11972	423.1084	-169.24336	-103.33609	-302.68524	-343.36874	101.70875	-48.8202	-151.34262	0
2	432.05877	43.12451	-387.30692	-235.9643	401.95298	-169.24336	-103.33609	-314.07662	-343.36874	101.70875	-48.8202	-151.34262	0
3	432.05877	32.5468	-387.30692	-235.9643	401.95298	-180.63474	-103.33609	-324.65433	-354.76012	101.70875	-48.8202	-161.92033	0
4	421.48106	21.96909	-398.6983	-225.38659	401.95298	-180.63474	-103.33609	-324.65433	-365.33783	91.13104	-59.39791	-172.49804	0
5	421.48106	21.96909	-398.6983	-225.38659	423.1084	-180.63474	-103.33609	-335.23204	-365.33783	91.13104	-59.39791	-172.49804	0
6	442.63648	21.96909	-398.6983	-225.38659	423.1084	-180.63474	-81.367	-335.23204	-343.36874	113.10013	-38.24249	-172.49804	0
7	442.63648	21.96909	-387.30692	-225.38659	423.1084	-180.63474	-113.9138	-345.80975	-365.33783	113.10013	-38.24249	-172.49804	0
8	442.63648	32.5468	-387.30692	-225.38659	423.1084	-180.63474	-113.9138	-345.80975	-365.33783	113.10013	-38.24249	-151.34262	0
9	432.05877	32.5468	-376.72921	-225.38659	423.1084	-180.63474	-113.9138	-356.38746	-365.33783	91.13104	-38.24249	-140.76491	0
10	421.48106	21.96909	-376.72921	-225.38659	412.53069	-180.63474	-124.49151	-356.38746	-365.33783	101.70875	-38.24249	-140.76491	0
11	421.48106	53.70222	-376.72921	-225.38659	412.53069	-180.63474	-92.75838	-356.38746	-365.33783	123.67784	-38.24249	-140.76491	0
12	442.63648	53.70222	-376.72921	-246.54201	412.53069	-158.66565	-81.367	-335.23204	-343.36874	134.25555	-38.24249	-130.1872	0
13	442.63648	53.70222	-376.72921	-246.54201	412.53069	-158.66565	-81.367	-335.23204	-343.36874	134.25555	-26.85111	-130.1872	0
14	442.63648	53.70222	-376.72921	-246.54201	401.95298	-158.66565	-81.367	-335.23204	-343.36874	144.83326	-26.85111	-130.1872	0
15	410.90335	32.5468	-376.72921	-225.38659	391.37527	-158.66565	-81.367	-335.23204	-343.36874	144.83326	-26.85111	-130.1872	0
16	400.32564	32.5468	-376.72921	-214.80888	380.79756	-169.24336	-81.367	-335.23204	-343.36874	144.83326	-48.8202	-151.34262	0
17	400.32564	32.5468	-376.72921	-214.80888	380.79756	-180.63474	-103.33609	-335.23204	-354.76012	123.67784	-48.8202	-161.92033	0
18	400.32564	32.5468	-376.72921	-214.80888	391.37527	-180.63474	-103.33609	-335.23204	-332.79103	123.67784	-48.8202	-161.92033	0
19	410.90335	32.5468	-376.72921	-225.38659	391.37527	-180.63474	-81.367	-335.23204	-332.79103	144.83326	-48.8202	-161.92033	0
20	410.90335	43.12451	-366.1515	-225.38659	380.79756	-158.66565	-81.367	-335.23204	-332.79103	144.83326	-48.8202	-161.92033	0
21	410.90335	43.12451	-366.1515	-225.38659	380.79756	-158.66565	-81.367	-335.23204	-332.79103	144.83326	-48.8202	-161.92033	0
22	388.93426	43.12451	-355.57379	-214.80888	370.21985	-158.66565	-81.367	-335.23204	-332.79103	155.41097	-26.85111	-140.76491	0
23	388.93426	43.12451	-355.57379	-214.80888	370.21985	-158.66565	-81.367	-335.23204	-332.79103	155.41097	-26.85111	-140.76491	0
24	378.35655	21.96909	-355.57379	-203.4175	370.21985	-158.66565	-81.367	-324.65433	-343.36874	155.41097	-26.85111	-140.76491	0
25	367.77884	21.96909	-355.57379	-192.83979	358.82847	-169.24336	-81.367	-324.65433	-343.36874	155.41097	-26.85111	-140.76491	0
26	367.77884	11.39138	-344.99608	-192.83979	358.82847	-169.24336	-81.367	-324.65433	-343.36874	155.41097	-26.85111	-151.34262	0
27	357.20113	0	-344.99608	-182.26208	348.25076	-180.63474	-81.367	-324.65433	-343.36874	155.41097	-38.24249	-151.34262	0
28	314.07662	-21.15542	-334.41837	-139.13757	327.09534	-180.63474	-103.33609	-356.38746	-343.36874	144.83326	-48.8202	-161.92033	0
29	314.07662	-31.73313	-334.41837	-139.13757	327.09534	-180.63474	-103.33609	-356.38746	-343.36874	144.83326	-48.8202	-161.92033	0
30	314.07662	21.96909	-334.41837	-203.4175	327.09534	-180.63474	-103.33609	-356.38746	-343.36874	144.83326	-48.8202	-140.76491	0
31	378.35655	32.5468	-334.41837	-203.4175	370.21985	-158.66565	-103.33609	-356.38746	-343.36874	166.80235	-26.85111	-140.76491	0
32	378.35655	32.5468	-334.41837	-203.4175	370.21985	-158.66565	-103.33609	-324.65433	-343.36874	166.80235	-26.85111	-130.1872	0
33	367.77884	21.96909	-344.99608	-203.4175	370.21985	-158.66565	-124.49151	-324.65433	-332.79103	166.80235	-26.85111	-130.1872	0
34	357.20113	11.39138	-344.99608	-182.26208	370.21985	-158.66565	-124.49151	-324.65433	-332.79103	177.38006	-26.85111	-118.79582	0
35	357.20113	21.96909	-334.41837	-182.26208	370.21985	-158.66565	-92.75838	-324.65433	-332.79103	187.95777	-26.85111	-118.79582	0
36	378.35655	43.12451	-334.41837	-203.4175	370.21985	-148.08794	-81.367	-324.65433	-332.79103	198.53548	-16.2734	-118.79582	0
37	388.93426	53.70222	-334.41837	-214.80888	370.21985	-137.51023	-81.367	-324.65433	-332.79103	209.11319	-16.2734	-118.79582	0
38	388.93426	53.70222	-334.41837	-214.80888	370.21985	-137.51023	-81.367	-324.65433	-332.79103	209.11319	-5.69569	-118.79582	0
39	346.62342	11.39138	-323.02699	-182.26208	337.67305	-137.51023	-81.367	-324.65433	-332.79103	209.11319	-5.69569	-130.1872	0
40	336.04571	11.39138	-323.02699	-171.68437	337.67305	-158.66565	-81.367	-335.23204	-332.79103	209.11319	-26.85111	-130.1872	0
41	336.04571	11.39138	-323.02699	-171.68437	337.67305	-158.66565	-113.9138	-335.23204	-343.36874	209.11319	-26.85111	-130.1872	0
42	324.65433	11.39138	-323.02699	-171.68437	327.09534	-158.66565	-113.9138	-335.23204	-343.36874	209.11319	-26.85111	-130.1872	0
43	314.07662	-10.57771	-312.44928	-150.52895	316.51763	-158.66565	-113.9138	-345.80975	-354.76012	209.11319	-26.85111	-130.1872	0
44	282.34349	-21.15542	-312.44928	-128.55986	294.54854	-169.24336	-81.367	-367.77884	-365.33783	209.11319	-26.85111	-130.1872	0
45	282.34349	-31.73313	-312.44928	-128.55986	294.54854	-169.24336	-81.367	-367.77884	-365.33783	209.11319	-26.85111	-130.1872	0
46	271.76578	-31.73313	-312.44928	-117.98215	294.54854	-169.24336	-81.367	-378.35655	-365.33783	209.11319	-26.85111	-130.1872	0
47	271.76578	-31.73313	-312.44928	-117.98215	294.54854	-169.24336	-103.33609	-378.35655	-365.33783	209.11319	-26.85111	-130.1872	0
48	271.76578	-31.73313	-312.44928	-117.98215	305.12625	-158.66565	-103.33609	-378.35655	-365.33783	209.11319	-26.85111	-130.1872	0
49	303.49891	-10.57771	-312.44928	-150.52895	305.12625	-158.66565	-103.33609	-378.35655	-365.33783	219.6909	-16.2734	-130.1872	0
50	303.49891	-10.57771	-301.87157	-150.52895	305.12625	-158.66565	-81.367	-356.38746	-343.36874	231.08228	-16.2734	-130.1872	0
51	271.76578	-31.73313	-301.87157	-150.52895	305.12625	-169.24336	-81.367	-356.38746	-343.36874	231.08228	-16.2734	-130.1872	0
52	271.76578	-42.31084	-301.87157	-117.98215	294.54854	-180.63474	-81.367	-356.38746	-343.36874	231.08228	-26.85111	-130.1872	0
53	260.3744	-52.88855	-323.02699	-107.40444	294.54854	-180.63474	-81.367	-378.35655	-365.33783	231.08228	-26.85111	-130.1872	0
54	260.3744	-52.88855	-323.02699	-107.40444	294.54854	-180.63474	-81.367	-378.35655	-365.33783	209.11319	-26.85111	-130.1872	0
55	260.3744	-52.88855	-323.02699	-107.40444	294.54854	-180.63474	-124.49151	-378.35655	-365.33783	209.11319	-16.2734	-130.1872	0
56	282.34349	-21.15542	-323.02699	-128.55986	305.12625	-180.63474	-135.06922	-356.38746	-365.33783	231.08228	-5.69569	-130.1872	0
57	282.34349	-21.15542	-312.44928	-139.13757	305.12625	-158.66565	-146.4606	-356.38746	-365.33783	241.65999	-5.69569	-130.1872	0
58	282.34349	-21.15542	-301.87157	-139.13757	283.97083	-158.66565	-157.03831	-356.38746	-365.33783	241.65999	-26.85111	-130.1872	0
59	249.79669	-52.88855	-301.87157	-107.40444	273.39312	-180.63474	-157.03831	-356.38746	-365.33783	252.2377	-26.85111	-130.1872	0
60	249.79669	-52.88855	-301.87157	-107.40444	273.39312	-180.63474	-157.03831	-356.38746	-365.33783	252.2377	-26.85111	-130.1872	0
61	228.64127	-64.27993	-291.29386	-85.43535	262.81541	-180.63474	-103.33609	-378.35655	-365.33783	252.2377	-26.85111	-130.1872	0
62	218.06356	-74.85764	-291.29386	-74.85764	252.2377	-180.63474	-103.33609	-378.35655	-365.33783	252.2377	-26.85111	-130.1872	0
63	206.67218	-85.43535	-291.29386	-64.27993	252.2377	-180.63474	-103.33609	-378.35655	-365.33783	252.2377	-26.85111	-130.1872	0
64	206.67218	-96.01306	-291.29386	-64.27993	252.2377	-191.21245	-103.33609	-378.35655	-375.91554	241.65999	-26.85111	-140.76491	0
65	206.67218	-96.01306	-291.29386	-64.27993	252.2377	-191.21245	-124.49151	-378.35655	-375.91554	241.65999	-26.85111	-140.76491	0
66	239.21898	-64.27993	-301.87157	-85.43535	252.2377	-191.21245	-124.49151	-388.93426	-375.91554	241.65999	-26.85111	-140.76491	0
67	239.21898	-64.27993	-301.87157	-85.43535	273.39312	-180.63474	-113.9138	-399.51197	-375.91554	252.2377	-16.2734	-130.1872	0
68	239.21898	-64.27993	-301.87157	-85.43535	273.39312	-169.24336	-124.49151	-399.51197	-365.33783	262.81541	-16.2734	-130.1872	0
69	239.21898	-64.27993	-291.29386	-85.43535	252.2377	-169.24336	-135.06922	-410.08968	-365.33783	262.81541	-16.2734	-130.1872	0
70	239.21898	-64.27993	-280.71615	-85.43535	252.2377	-169.24336	-146.4606	-410.08968	-365.33783	262.81541	-16.2734	-130.1872	0
71	218.06356	-64.27993	-280.71615	-85.43535	252.2377	-169.24336	-146.4606	-388.93426	-365.33783	262.81541	-16.2734	-140.76491	0
72	196.09447	-85.43535	-280.71615	-64.27993	240.84632	-169.24336	-146.4606	-378.35655	-365.33783	252.2377	-26.85111	-151.34262	0
73	196.09447	-85.43535	-280.71615	-64.27993	230.26861	-169.24336	-157.03831	-378.35655	-365.33783	241.65999	-26.85111	-151.34262	0
74	239.21898	-52.88855	-280.71615	-64.27993	230.26861	-169.24336	-157.03831	-378.35655	-365.33783	231.08228	-26.85111	-151.34262	0
75	260.3744	-31.73313	-280.71615	-117.98215	262.81541	-169.24336	-157.03831	-367.77884	-354.76012	231.08228	-16.2734	-130.1872	0
76	271.76578	-21.15542	-280.71615	-128.55986	273.39312	-158.66565	-157.03831	-367.77884	-343.36874	252.2377	-16.2734	-118.79582	0
77	271.76578	-10.57771	-280.71615	-128.55986	273.39312	-148.08794	-124.49151	-367.77884	-343.36874	252.2377	-16.2734	-118.79582	0
78	271.76578	-10.57771	-280.71615	-139.13757	273.39312	-137.51023	-113.9138	-345.80975	-343.36874	262.81541	-5.69569	-118.79582	0
79	282.34349	0	-280.71615	-150.52895	283.97083	-137.51023	-113.9138	-335.23204	-343.36874	262.81541	-5.69569	-118.79582	0
80	292.9212	11.39138	-280.71615	-150.52895	283.97083	-137.51023	-113.9138	-335.23204	-343.36874	262.81541	-5.69569	-108.21811	0
81	314.07662	21.96909	-280.71615	-161.10666	294.54854	-126.93252	-92.75838	-324.65433	-343.36874	262.81541	4.88202	-108.21811	0
82	324.65433	32.5468	-280.71615	-171.68437	305.12625	-126.93252	-81.367	-324.65433	-332.79103	273.39312	15.45973	-97.6404	0
83	324.65433	32.5468	-258.74706	-171.68437	305.12625	-116.35481	-81.367	-324.65433	-322.21332	273.39312	26.03744	-97.6404	0
84	292.9212	32.5468	-258.74706	-150.52895	283.97083	-116.35481	-81.367	-324.65433	-322.21332	283.97083	26.03744	-87.06269	0
85	282.34349	32.5468	-258.74706	-150.52895	273.39312	-104.96343	-81.367	-324.65433	-322.21332	295.36221	26.03744	-87.06269	0
86	271.76578	32.5468	-248.16935	-150.52895	262.81541	-104.96343	-81.367	-314.07662	-322.21332	295.36221	26.03744	-76.48498	0
87	271.76578	32.5468	-248.16935	-161.10666	262.81541	-104.96343	-113.9138	-314.07662	-311.63561	295.36221	26.03744	-76.48498	0
88	260.3744	43.12451	-237.59164	-161.10666	252.2377	-104.96343	-113.9138	-302.68524	-301.0579	316.51763	4.88202	-65.90727	0
89	249.79669	43.12451	-216.43622	-139.13757	240.84632	-94.38572	-113.9138	-302.68524	-301.0579	316.51763	4.88202	-65.90727	0
90	249.79669	43.12451	-194.46713	-139.13757	230.26861	-83.80801	-92.75838	-324.65433	-301.0579	316.51763	4.88202	-65.90727	0
91	249.79669	53.70222	-194.46713	-139.13757	219.6909	-62.65259	-92.75838	-324.65433	-301.0579	327.09534	4.88202	-65.90727	0
92	239.21898	64.27993	-183.88942	-139.13757	209.11319	-51.26121	-92.75838	-324.65433	-301.0579	327.09534	37.42882	-54.51589	0
93	239.21898	64.27993	-173.31171	-139.13757	209.11319	-51.26121	-81.367	-324.65433	-290.48019	327.09534	48.00653	-54.51589	0
94	239.21898	64.27993	-173.31171	-150.52895	209.11319	-51.26121	-81.367	-324.65433	-290.48019	337.67305	48.00653	-43.93818	0
95	239.21898	75.67131	-173.31171	-161.10666	209.11319	-51.26121	-81.367	-324.65433	-290.48019	337.67305	58.58424	-43.93818	0
96	260.3744	86.24902	-162.734	-171.68437	209.11319	-40.6835	-81.367	-324.65433	-290.48019	337.67305	58.58424	-43.93818	0
97	271.76578	96.82673	-162.734	-182.26208	219.6909	-40.6835	-124.49151	-324.65433	-290.48019	349.06443	58.58424	-33.36047	0
98	271.76578	96.82673	-162.734	-192.83979	230.26861	-40.6835	-146.4606	-302.68524	-290.48019	349.06443	58.58424	-33.36047	0
99	271.76578	64.27993	-194.46713	-192.83979	230.26861	-62.65259	-157.03831	-324.65433	-301.0579	349.06443	58.58424	-22.78276	0
100	271.76578	53.70222	-205.85851	-161.10666	230.26861	-62.65259	-157.03831	-324.65433	-301.0579	327.09534	37.42882	-43.93818	1000	P+0
101	271.76578	53.70222	-205.85851	-150.52895	230.26861	-62.65259	-157.03831	-335.23204	-301.0579	327.09534	37.42882	-43.93818	0
102	271.76578	53.70222	-205.85851	-139.13757	219.6909	-73.2303	-157.03831	-335.23204	-301.0579	327.09534	37.42882	-43.93818	0
103	271.76578	53.70222	-216.43622	-139.13757	219.6909	-83.80801	-157.03831	-335.23204	-311.63561	327.09534	37.42882	-43.93818	0
104	271.76578	43.12451	-216.43622	-139.13757	240.84632	-83.80801	-157.03831	-335.23204	-311.63561	327.09534	37.42882	-54.51589	0
105	271.76578	32.5468	-227.01393	-139.13757	252.2377	-94.38572	-157.03831	-324.65433	-311.63561	327.09534	37.42882	-54.51589	0
106	239.21898	32.5468	-194.46713	-128.55986	219.6909	-94.38572	-157.03831	-324.65433	-301.0579	337.67305	26.03744	-33.36047	0
107	218.06356	21.96909	-194.46713	-128.55986	209.11319	-73.2303	-135.06922	-324.65433	-301.0579	337.67305	26.03744	-33.36047	0
108	206.67218	11.39138	-194.46713	-117.98215	198.53548	-73.2303	-124.49151	-324.65433	-301.0579	337.67305	26.03744	-33.36047	0
109	196.09447	11.39138	-194.46713	-107.40444	187.95777	-73.2303	-113.9138	-324.65433	-322.21332	327.09534	26.03744	-43.93818	0
110	196.09447	11.39138	-194.46713	-107.40444	187.95777	-94.38572	-113.9138	-302.68524	-322.21332	316.51763	15.45973	-54.51589	0
111	196.09447	11.39138	-183.88942	-107.40444	187.95777	-94.38572	-113.9138	-302.68524	-290.48019	337.67305	15.45973	-54.51589	0
112	185.51676	11.39138	-173.31171	-96.82673	176.56639	-73.2303	-113.9138	-292.10753	-290.48019	337.67305	15.45973	-54.51589	0
113	174.93905	0	-162.734	-85.43535	165.98868	-73.2303	-113.9138	-292.10753	-290.48019	337.67305	15.45973	-65.90727	0
114	164.36134	0	-152.15629	-74.85764	155.41097	-73.2303	-113.9138	-292.10753	-290.48019	337.67305	15.45973	-65.90727	0
115	164.36134	0	-152.15629	-74.85764	155.41097	-62.65259	-103.33609	-292.10753	-290.48019	337.67305	15.45973	-65.90727	0
116	142.39225	-21.15542	-152.15629	-74.85764	155.41097	-83.80801	-92.75838	-302.68524	-311.63561	305.93992	4.88202	-76.48498	0
117	131.81454	-42.31084	-152.15629	-43.12451	144.83326	-94.38572	-92.75838	-302.68524	-322.21332	305.93992	-5.69569	-76.48498	0
118	121.23683	-52.88855	-162.734	-32.5468	144.83326	-104.96343	-81.367	-314.07662	-332.79103	295.36221	-16.2734	-76.48498	0
119	100.08141	-74.85764	-173.31171	-10.57771	134.25555	-126.93252	-81.367	-324.65433	-343.36874	283.97083	-16.2734	-97.6404	0
120	78.11232	-96.01306	-173.31171	0	134.25555	-126.93252	-81.367	-335.23204	-343.36874	273.39312	-38.24249	-108.21811	0
121	56.9569	-128.55986	-183.88942	31.73313	112.28646	-137.51023	-124.49151	-356.38746	-354.76012	262.81541	-48.8202	-118.79582	0
122	56.9569	-128.55986	-183.88942	31.73313	112.28646	-148.08794	-135.06922	-367.77884	-354.76012	262.81541	-48.8202	-118.79582	0
123	46.37919	-128.55986	-183.88942	31.73313	112.28646	-148.08794	-135.06922	-378.35655	-354.76012	262.81541	-48.8202	-118.79582	0
124	46.37919	-85.43535	-162.734	0	112.28646	-126.93252	-135.06922	-378.35655	-354.76012	273.39312	-26.85111	-118.79582	0
125	46.37919	-74.85764	-162.734	-10.57771	134.25555	-126.93252	-135.06922	-345.80975	-332.79103	273.39312	-26.85111	-118.79582	0
126	89.5037	-74.85764	-162.734	-10.57771	134.25555	-116.35481	-103.33609	-335.23204	-332.79103	273.39312	-26.85111	-97.6404	0
127	89.5037	-64.27993	-152.15629	-10.57771	134.25555	-104.96343	-103.33609	-314.07662	-332.79103	283.97083	-26.85111	-97.6404	0
128	89.5037	-64.27993	-152.15629	-10.57771	134.25555	-104.96343	-103.33609	-302.68524	-332.79103	283.97083	-26.85111	-97.6404	0
129	89.5037	-64.27993	-152.15629	-10.57771	112.28646	-104.96343	-103.33609	-302.68524	-343.36874	295.36221	-26.85111	-97.6404	0
130	89.5037	-52.88855	-152.15629	-21.15542	112.28646	-104.96343	-113.9138	-302.68524	-343.36874	273.39312	-16.2734	-97.6404	0
131	100.08141	-52.88855	-152.15629	-32.5468	134.25555	-104.96343	-103.33609	-292.10753	-322.21332	273.39312	-16.2734	-97.6404	0
132	100.08141	-52.88855	-140.76491	-32.5468	134.25555	-104.96343	-92.75838	-270.95211	-301.0579	273.39312	-5.69569	-97.6404	0
133	78.11232	-52.88855	-140.76491	-32.5468	112.28646	-94.38572	-92.75838	-270.95211	-290.48019	295.36221	-5.69569	-97.6404	0
134	78.11232	-52.88855	-140.76491	-32.5468	112.28646	-94.38572	-92.75838	-260.3744	-290.48019	295.36221	-5.69569	-87.06269	0
135	78.11232	-52.88855	-130.1872	-10.57771	101.70875	-94.38572	-103.33609	-260.3744	-290.48019	295.36221	-5.69569	-76.48498	0
136	67.53461	-52.88855	-130.1872	0	91.13104	-94.38572	-103.33609	-249.79669	-290.48019	295.36221	-5.69569	-76.48498	0
137	56.9569	-52.88855	-130.1872	0	91.13104	-94.38572	-113.9138	-249.79669	-290.48019	305.93992	-16.2734	-76.48498	0
138	46.37919	-74.85764	-130.1872	10.57771	80.55333	-104.96343	-124.49151	-270.95211	-290.48019	305.93992	-16.2734	-76.48498	0
139	46.37919	-85.43535	-130.1872	21.15542	80.55333	-104.96343	-124.49151	-270.95211	-290.48019	305.93992	-16.2734	-76.48498	0
140	46.37919	-85.43535	-140.76491	21.15542	80.55333	-116.35481	-103.33609	-281.52982	-290.48019	295.36221	-16.2734	-76.48498	0
141	35.80148	-85.43535	-119.60949	31.73313	80.55333	-116.35481	-103.33609	-302.68524	-290.48019	295.36221	-5.69569	-76.48498	0
142	24.4101	-96.01306	-119.60949	31.73313	69.97562	-116.35481	-103.33609	-324.65433	-290.48019	316.51763	4.88202	-76.48498	0
143	24.4101	-64.27993	-119.60949	0	69.97562	-94.38572	-167.61602	-420.66739	-268.5111	359.64214	37.42882	-54.51589	0
144	24.4101	-52.88855	-98.45407	0	69.97562	-73.2303	-210.74053	-484.94732	-257.93339	391.37527	69.16195	-22.78276	0
145	46.37919	-52.88855	-87.87636	0	69.97562	-62.65259	-253.05137	-560.61863	-247.35568	413.34436	79.73966	-12.20505	0
146	46.37919	-42.31084	-87.87636	-10.57771	58.58424	-62.65259	-306.75359	-635.47627	-247.35568	423.92207	91.13104	-1.62734	0
147	67.53461	-42.31084	-130.1872	-10.57771	91.13104	-62.65259	-360.45581	-731.48933	-322.21332	434.49978	101.70875	9.76404	0
148	89.5037	-42.31084	-152.15629	-10.57771	122.86417	-104.96343	-393.00261	-785.19155	-354.76012	434.49978	112.28646	20.34175	0
149	121.23683	-85.43535	-216.43622	-10.57771	176.56639	-148.08794	-457.28254	-913.75141	-515.05311	327.09534	112.28646	30.91946	0
150	164.36134	-96.01306	-258.74706	-32.5468	209.11319	-169.24336	-467.86025	-1010.57814	-654.19068	241.65999	69.16195	30.91946	0
151	196.09447	-96.01306	-280.71615	-53.70222	240.84632	-180.63474	-478.43796	-1117.98258	-815.29734	134.25555	26.03744	30.91946	0
152	206.67218	-106.59077	-323.02699	-64.27993	262.81541	-201.79016	-489.01567	-1246.54244	-986.98171	26.85111	-16.2734	20.34175	0
153	218.06356	-128.55986	-355.57379	-64.27993	294.54854	-244.91467	-521.56247	-1375.1023	-1148.08837	-69.16195	-48.8202	9.76404	0
154	324.65433	-139.13757	-409.27601	-128.55986	370.21985	-276.6478	-639.54462	-1695.68828	-1479.25206	-219.6909	-91.13104	63.46626	0
155	388.93426	11.39138	-409.27601	-203.4175	380.79756	-276.6478	-735.55768	-1899.91945	-1618.38963	-240.84632	-91.13104	127.74619	0
156	454.02786	107.40444	-409.27601	-279.08881	401.95298	-126.93252	-853.53983	-2092.75924	-1736.37178	-262.00174	-91.13104	192.02612	0
157	539.46321	182.26208	-409.27601	-364.52416	434.49978	-83.80801	-1004.06878	-2264.44361	-1822.6208	-273.39312	26.03744	266.88376	0
158	593.16543	214.80888	-334.41837	-397.07096	487.38833	-73.2303	-1100.08184	-2306.75445	-1833.19851	-273.39312	37.42882	298.61689	0
159	624.89856	225.38659	-473.55594	-407.64867	541.09055	-73.2303	-1153.78406	-2317.33216	-1843.77622	-337.67305	48.00653	310.00827	0
160	624.89856	-213.99521	-676.97344	-128.55986	605.37048	-448.33217	-1174.93948	-2317.33216	-1843.77622	-669.65041	-477.62429	-183.88942	0
161	239.21898	-353.13278	-698.94253	53.70222	412.53069	-491.45668	-1174.93948	-1781.9373	-1746.94949	-808.78798	-637.91728	-344.18241	0
162	24.4101	-406.835	-709.52024	182.26208	230.26861	-502.03439	-1174.93948	-1771.35959	-1746.94949	-873.06791	-702.19721	-430.43143	0
163	-157.03831	-428.80409	-280.71615	289.66652	58.58424	-502.03439	-971.52198	-1771.35959	-1746.94949	-905.61471	-755.89943	-494.71136	0
164	-307.56726	-471.11493	-173.31171	385.67958	-69.97562	-502.03439	-907.24205	-1738.81279	-1811.22942	-916.19242	-799.02394	-569.569	0
165	-404.39399	-567.94166	-140.76491	482.50631	-134.25555	-319.77231	-789.2599	-1460.53765	-1564.68741	-916.19242	-852.72616	-698.12886	0
166	-404.39399	-578.51937	-140.76491	493.08402	-134.25555	-319.77231	-735.55768	-1310.82237	-1446.70526	-808.78798	-863.30387	-719.28428	0
167	-404.39399	-589.09708	-140.76491	493.08402	-134.25555	-319.77231	-703.82455	-1192.84022	-1297.80365	-712.77492	-863.30387	-719.28428	0
168	-404.39399	-589.09708	-140.76491	493.08402	-134.25555	-384.05224	-639.54462	-1053.70265	-1126.11928	-562.24597	-691.6195	-719.28428	0
169	-264.44275	-460.53722	-216.43622	353.94645	-37.42882	-384.05224	-575.26469	-956.87592	-997.55942	-444.26382	-606.18415	-558.99129	0
170	-243.28733	-417.41271	-216.43622	321.39965	-26.85111	-297.80322	-510.17109	-849.47148	-868.99956	-327.09534	-509.35742	-483.31998	0
171	-200.16282	-342.55507	-140.76491	267.69743	-26.85111	-233.52329	-381.61123	-624.89856	-633.03526	-91.13104	-316.51763	-344.18241	0
172	-157.03831	-288.85285	-140.76491	225.38659	-26.85111	-212.36787	-306.75359	-463.7919	-483.31998	26.85111	-209.11319	-258.74706	0
173	-125.30518	-257.11972	-130.1872	182.26208	-5.69569	-191.21245	-253.05137	-314.07662	-365.33783	113.10013	-134.25555	-205.04484	0
174	-82.18067	-203.4175	-130.1872	139.13757	16.2734	-169.24336	-188.77144	-174.12538	-247.35568	198.53548	-69.97562	-151.34262	0
175	-39.86983	-160.29299	-130.1872	85.43535	37.42882	-148.08794	-146.4606	-56.14323	-150.52895	241.65999	-26.85111	-118.79582	0
176	13.83239	-96.01306	-109.03178	31.73313	69.97562	-104.96343	-60.21158	126.11885	-0.81367	305.93992	-5.69569	-87.06269	0
177	24.4101	-64.27993	-76.48498	21.15542	69.97562	-73.2303	-17.08707	179.0074	63.46626	327.09534	15.45973	-76.48498	0
178	24.4101	-42.31084	-65.90727	10.57771	69.97562	-51.26121	4.06835	222.13191	106.59077	370.21985	26.03744	-54.51589	0
179	35.80148	-10.57771	-34.17414	-10.57771	69.97562	-19.52808	25.22377	275.83413	149.71528	401.95298	48.00653	-54.51589	0
180	35.80148	11.39138	-23.59643	-21.15542	26.85111	-8.95037	35.80148	296.98955	181.44841	423.92207	69.16195	-33.36047	0
181	35.80148	11.39138	-23.59643	-32.5468	26.85111	1.62734	47.19286	340.11406	203.4175	455.6552	101.70875	-12.20505	0
182	35.80148	11.39138	-23.59643	-32.5468	16.2734	1.62734	68.34828	404.39399	256.30605	498.77971	144.01959	9.76404	0
183	35.80148	11.39138	-23.59643	-10.57771	16.2734	1.62734	78.92599	436.94079	288.85285	498.77971	144.01959	9.76404	0
184	35.80148	11.39138	-23.59643	-10.57771	16.2734	-19.52808	78.92599	458.09621	310.00827	509.35742	155.41097	20.34175	0
185	13.83239	-21.15542	-44.75185	0	16.2734	-30.10579	78.92599	468.67392	331.97736	509.35742	155.41097	20.34175	0
186	13.83239	-31.73313	-44.75185	0	26.85111	-40.6835	78.92599	490.64301	353.13278	509.35742	155.41097	20.34175	0
187	13.83239	-31.73313	-55.32956	0	37.42882	-40.6835	57.77057	511.79843	363.71049	509.35742	133.44188	-1.62734	0
188	13.83239	-31.73313	-55.32956	0	37.42882	-40.6835	100.89508	522.37614	363.71049	509.35742	122.86417	-1.62734	0
189	13.83239	-10.57771	-55.32956	-10.57771	37.42882	-19.52808	111.47279	522.37614	363.71049	509.35742	122.86417	-1.62734	0
190	13.83239	0	-34.17414	-21.15542	37.42882	-19.52808	122.0505	522.37614	363.71049	509.35742	122.86417	9.76404	0
191	46.37919	0	-34.17414	-32.5468	48.00653	-19.52808	122.0505	532.95385	363.71049	519.93513	155.41097	9.76404	0
192	46.37919	0	-34.17414	-32.5468	48.00653	-19.52808	122.0505	554.92294	374.2882	519.93513	165.98868	20.34175	0
193	46.37919	0	-44.75185	-32.5468	48.00653	-19.52808	78.92599	576.07836	417.41271	531.32651	176.56639	30.91946	0
194	46.37919	0	-44.75185	-32.5468	48.00653	-19.52808	78.92599	597.23378	427.99042	531.32651	187.1441	30.91946	0
195	35.80148	0	-34.17414	-32.5468	48.00653	-19.52808	100.89508	607.81149	438.56813	531.32651	187.1441	30.91946	0
196	35.80148	11.39138	-34.17414	-32.5468	37.42882	-8.95037	100.89508	607.81149	449.95951	531.32651	187.1441	30.91946	0
197	35.80148	11.39138	-23.59643	-10.57771	26.85111	-8.95037	111.47279	607.81149	449.95951	531.32651	187.1441	30.91946	0
198	35.80148	11.39138	-23.59643	-10.57771	26.85111	-8.95037	111.47279	607.81149	460.53722	531.32651	165.98868	20.34175	0
199	35.80148	11.39138	-23.59643	-10.57771	37.42882	-19.52808	122.0505	607.81149	471.11493	519.93513	165.98868	20.34175	0
200	35.80148	-10.57771	-34.17414	-32.5468	48.00653	-19.52808	132.62821	607.81149	471.11493	519.93513	165.98868	20.34175	0
201	24.4101	-10.57771	-34.17414	-32.5468	26.85111	-19.52808	132.62821	629.78058	481.69264	519.93513	165.98868	20.34175	0
202	13.83239	-10.57771	-34.17414	-32.5468	26.85111	-30.10579	132.62821	640.35829	481.69264	519.93513	165.98868	41.49717	0
203	13.83239	-10.57771	-34.17414	-10.57771	26.85111	-30.10579	132.62821	650.936	492.27035	519.93513	176.56639	41.49717	0
204	13.83239	-10.57771	-23.59643	-10.57771	26.85111	-30.10579	111.47279	694.06051	535.39486	519.93513	187.1441	41.49717	0
205	13.83239	11.39138	-23.59643	-21.15542	26.85111	-8.95037	132.62821	694.06051	545.97257	531.32651	197.72181	52.07488	0
206	46.37919	11.39138	-23.59643	-32.5468	37.42882	1.62734	143.20592	704.63822	556.55028	531.32651	197.72181	52.07488	0
207	46.37919	11.39138	-23.59643	-32.5468	48.00653	1.62734	143.20592	715.21593	556.55028	531.32651	197.72181	30.91946	0
208	46.37919	11.39138	-23.59643	-32.5468	48.00653	1.62734	143.20592	715.21593	556.55028	509.35742	176.56639	30.91946	0
209	46.37919	11.39138	-23.59643	-32.5468	26.85111	-8.95037	153.78363	725.79364	578.51937	498.77971	176.56639	30.91946	0
210	24.4101	-10.57771	-23.59643	-10.57771	26.85111	-8.95037	153.78363	725.79364	578.51937	498.77971	176.56639	30.91946	0
211	13.83239	-10.57771	-23.59643	-10.57771	16.2734	-8.95037	153.78363	725.79364	578.51937	498.77971	176.56639	30.91946	0
212	13.83239	-10.57771	-23.59643	-10.57771	16.2734	-8.95037	153.78363	747.76273	589.09708	498.77971	197.72181	52.07488	0
213	13.83239	-10.57771	-23.59643	-10.57771	16.2734	1.62734	132.62821	758.34044	599.67479	498.77971	197.72181	63.46626	0
214	13.83239	-10.57771	-23.59643	-32.5468	16.2734	1.62734	132.62821	758.34044	599.67479	498.77971	197.72181	63.46626	0
215	13.83239	-10.57771	-12.20505	-32.5468	5.69569	1.62734	153.78363	779.49586	620.83021	498.77971	197.72181	63.46626	0
216	13.83239	-10.57771	-12.20505	-32.5468	5.69569	13.01872	175.75272	790.07357	632.22159	498.77971	197.72181	63.46626	0
217	13.83239	21.96909	-1.62734	-32.5468	5.69569	13.01872	186.33043	790.07357	653.37701	498.77971	197.72181	63.46626	0
218	46.37919	32.5468	-1.62734	-32.5468	26.85111	13.01872	196.90814	801.46495	663.95472	519.93513	197.72181	74.04397	0
219	46.37919	32.5468	-1.62734	-43.12451	26.85111	13.01872	207.48585	812.04266	674.53243	519.93513	197.72181	74.04397	0
220	46.37919	43.12451	-1.62734	-43.12451	26.85111	23.59643	207.48585	822.62037	685.11014	519.93513	208.29952	74.04397	0
221	46.37919	43.12451	-1.62734	-43.12451	26.85111	23.59643	207.48585	833.19808	696.50152	509.35742	208.29952	74.04397	0
222	46.37919	43.12451	-1.62734	-43.12451	37.42882	23.59643	186.33043	843.77579	717.65694	509.35742	219.6909	63.46626	0
223	78.11232	53.70222	-23.59643	-64.27993	48.00653	23.59643	175.75272	854.3535	728.23465	509.35742	219.6909	63.46626	0
224	89.5037	64.27993	-34.17414	-74.85764	58.58424	23.59643	175.75272	865.74488	738.81236	509.35742	230.26861	63.46626	0
225	89.5037	64.27993	-34.17414	-74.85764	58.58424	23.59643	207.48585	876.32259	749.39007	509.35742	230.26861	63.46626	0
226	35.80148	21.96909	-12.20505	-32.5468	58.58424	1.62734	218.06356	886.9003	760.78145	519.93513	230.26861	63.46626	0
227	24.4101	21.96909	-12.20505	-21.15542	16.2734	1.62734	229.45494	908.05572	771.35916	519.93513	230.26861	63.46626	0
228	13.83239	11.39138	-12.20505	-10.57771	16.2734	1.62734	229.45494	919.4471	781.93687	531.32651	230.26861	63.46626	0
229	13.83239	0	-1.62734	-10.57771	5.69569	1.62734	229.45494	930.02481	792.51458	531.32651	219.6909	63.46626	0
230	13.83239	0	-1.62734	-10.57771	-5.69569	-8.95037	207.48585	930.02481	803.09229	531.32651	219.6909	63.46626	0
231	67.53461	53.70222	-23.59643	-53.70222	48.00653	-8.95037	196.90814	961.75794	835.63909	541.90422	240.84632	74.04397	0
232	78.11232	64.27993	-23.59643	-64.27993	48.00653	23.59643	196.90814	972.33565	835.63909	541.90422	251.42403	74.04397	0
233	78.11232	64.27993	-23.59643	-64.27993	48.00653	23.59643	229.45494	972.33565	835.63909	541.90422	251.42403	74.04397	0
234	78.11232	64.27993	-12.20505	-64.27993	48.00653	23.59643	240.03265	983.72703	846.2168	541.90422	262.00174	84.62168	0
235	46.37919	64.27993	-12.20505	-64.27993	26.85111	23.59643	250.61036	994.30474	856.79451	552.48193	262.00174	84.62168	0
236	46.37919	43.12451	-12.20505	-64.27993	26.85111	23.59643	261.18807	994.30474	867.37222	563.05964	262.00174	95.19939	1500	QRS+0
237	78.11232	64.27993	-12.20505	-74.85764	48.00653	34.17414	261.18807	994.30474	878.7636	563.05964	262.00174	95.19939	0
238	78.11232	64.27993	-1.62734	-74.85764	48.00653	34.17414	218.06356	1004.88245	889.34131	563.05964	262.00174	74.04397	0
239	78.11232	64.27993	-1.62734	-74.85764	37.42882	34.17414	218.06356	1015.46016	889.34131	563.05964	262.00174	74.04397	0
240	78.11232	64.27993	-1.62734	-74.85764	48.00653	34.17414	218.06356	1026.03787	889.34131	563.05964	251.42403	74.04397	0
241	78.11232	64.27993	-1.62734	-74.85764	48.00653	34.17414	240.03265	1048.00696	889.34131	563.05964	251.42403	63.46626	0
242	78.11232	64.27993	-1.62734	-74.85764	48.00653	34.17414	271.76578	1048.00696	899.91902	541.90422	240.84632	63.46626	0
243	78.11232	75.67131	-1.62734	-85.43535	48.00653	44.75185	271.76578	1048.00696	899.91902	541.90422	240.84632	63.46626	0
244	78.11232	75.67131	8.95037	-85.43535	48.00653	44.75185	271.76578	1048.00696	899.91902	541.90422	240.84632	63.46626	0
245	67.53461	86.24902	8.95037	-85.43535	48.00653	55.32956	282.34349	1048.00696	899.91902	531.32651	262.00174	74.04397	0
246	67.53461	86.24902	8.95037	-64.27993	26.85111	55.32956	250.61036	1058.58467	899.91902	519.93513	262.00174	74.04397	0
247	67.53461	86.24902	8.95037	-64.27993	26.85111	55.32956	250.61036	1079.74009	899.91902	519.93513	240.84632	63.46626	0
248	46.37919	53.70222	-1.62734	-43.12451	48.00653	23.59643	229.45494	1090.3178	910.49673	519.93513	240.84632	63.46626	0
249	35.80148	43.12451	8.95037	-32.5468	16.2734	23.59643	229.45494	1090.3178	910.49673	509.35742	240.84632	63.46626	0
250	35.80148	43.12451	8.95037	-32.5468	16.2734	23.59643	229.45494	1090.3178	910.49673	509.35742	240.84632	63.46626	0
251	35.80148	43.12451	8.95037	-32.5468	16.2734	23.59643	229.45494	1069.16238	899.91902	509.35742	240.84632	74.04397	0
252	35.80148	43.12451	8.95037	-64.27993	16.2734	23.59643	250.61036	1069.16238	899.91902	498.77971	240.84632	84.62168	0
253	89.5037	43.12451	-44.75185	-64.27993	69.97562	1.62734	250.61036	1036.61558	867.37222	477.62429	230.26861	52.07488	0
254	110.65912	43.12451	-55.32956	-74.85764	80.55333	-8.95037	207.48585	1036.61558	856.79451	466.23291	219.6909	52.07488	0
255	121.23683	43.12451	-65.90727	-85.43535	91.13104	-8.95037	207.48585	1026.03787	835.63909	445.07749	219.6909	41.49717	0
256	121.23683	43.12451	-76.48498	-85.43535	91.13104	-8.95037	207.48585	1004.88245	825.06138	434.49978	208.29952	41.49717	0
257	121.23683	32.5468	-76.48498	-85.43535	91.13104	-19.52808	240.03265	983.72703	814.48367	423.92207	197.72181	30.91946	0
258	153.78363	75.67131	-76.48498	-107.40444	101.70875	13.01872	250.61036	972.33565	814.48367	423.92207	197.72181	30.91946	0
259	174.93905	96.82673	-76.48498	-139.13757	134.25555	13.01872	261.18807	930.02481	771.35916	401.95298	197.72181	30.91946	0
260	174.93905	96.82673	-76.48498	-139.13757	134.25555	13.01872	261.18807	919.4471	760.78145	391.37527	187.1441	41.49717	0
261	174.93905	96.82673	-76.48498	-139.13757	134.25555	13.01872	218.06356	919.4471	738.81236	380.79756	187.1441	41.49717	0
262	164.36134	96.82673	-76.48498	-139.13757	112.28646	13.01872	207.48585	908.05572	728.23465	370.21985	187.1441	41.49717	0
263	164.36134	86.24902	-76.48498	-117.98215	112.28646	13.01872	196.90814	897.47801	696.50152	370.21985	176.56639	41.49717	0
264	131.81454	96.82673	-55.32956	-139.13757	112.28646	13.01872	196.90814	876.32259	674.53243	337.67305	165.98868	30.91946	0
265	131.81454	96.82673	-44.75185	-107.40444	91.13104	23.59643	229.45494	854.3535	653.37701	327.09534	165.98868	30.91946	0
266	121.23683	96.82673	-34.17414	-96.82673	80.55333	23.59643	240.03265	833.19808	642.7993	305.93992	155.41097	20.34175	0
267	121.23683	75.67131	-34.17414	-96.82673	80.55333	23.59643	240.03265	812.04266	620.83021	305.93992	155.41097	20.34175	0
268	121.23683	64.27993	-34.17414	-96.82673	80.55333	23.59643	186.33043	790.07357	589.09708	283.97083	144.01959	9.76404	0
269	110.65912	64.27993	-34.17414	-85.43535	80.55333	13.01872	165.17501	758.34044	567.94166	262.81541	144.01959	9.76404	0
270	100.08141	53.70222	-34.17414	-74.85764	80.55333	1.62734	143.20592	683.4828	502.84806	241.65999	122.86417	-1.62734	0
271	89.5037	43.12451	-44.75185	-64.27993	69.97562	-8.95037	143.20592	640.35829	471.11493	219.6909	122.86417	-1.62734	0
272	78.11232	32.5468	-44.75185	-53.70222	58.58424	-8.95037	143.20592	619.20287	449.95951	209.11319	112.28646	-12.20505	0
273	78.11232	32.5468	-44.75185	-53.70222	58.58424	-8.95037	132.62821	586.65607	427.99042	187.95777	91.13104	-12.20505	0
274	78.11232	32.5468	-34.17414	-53.70222	58.58424	-8.95037	132.62821	565.50065	406.835	187.95777	79.73966	-12.20505	0
275	67.53461	32.5468	-23.59643	-53.70222	48.00653	13.01872	122.0505	511.79843	363.71049	144.83326	79.73966	-12.20505	0
276	56.9569	32.5468	-23.59643	-43.12451	48.00653	13.01872	111.47279	479.25163	331.97736	123.67784	69.16195	-22.78276	0
277	24.4101	0	-23.59643	-10.57771	26.85111	13.01872	89.5037	425.54941	288.85285	101.70875	58.58424	-33.36047	0
278	13.83239	-10.57771	-23.59643	-10.57771	16.2734	13.01872	78.92599	383.23857	256.30605	80.55333	48.00653	-33.36047	0
279	13.83239	-10.57771	-23.59643	-10.57771	5.69569	-8.95037	78.92599	350.69177	224.57292	69.97562	37.42882	-43.93818	0
280	13.83239	-10.57771	-23.59643	-10.57771	5.69569	-8.95037	78.92599	329.53635	203.4175	48.8202	26.03744	-54.51589	0
281	13.83239	32.5468	-23.59643	-43.12451	48.00653	13.01872	68.34828	296.98955	170.8707	16.2734	26.03744	-65.90727	0
282	13.83239	43.12451	-23.59643	-53.70222	48.00653	13.01872	68.34828	265.25642	149.71528	5.69569	15.45973	-65.90727	0
283	67.53461	43.12451	-23.59643	-53.70222	48.00653	13.01872	68.34828	232.70962	117.16848	-26.85111	4.88202	-65.90727	0
284	67.53461	43.12451	-23.59643	-53.70222	48.00653	-8.95037	47.19286	190.39878	96.01306	-48.00653	4.88202	-65.90727	0
285	24.4101	0	-23.59643	-10.57771	48.00653	-8.95037	25.22377	147.27427	74.04397	-48.00653	-5.69569	-76.48498	0
286	24.4101	-10.57771	-34.17414	-10.57771	26.85111	-8.95037	14.64606	82.99434	42.31084	-79.73966	-26.85111	-87.06269	0
287	24.4101	-10.57771	-34.17414	-10.57771	26.85111	-8.95037	14.64606	50.44754	21.15542	-91.13104	-26.85111	-97.6404	0
288	24.4101	-10.57771	-34.17414	-10.57771	26.85111	-8.95037	14.64606	29.29212	-11.39138	-101.70875	-26.85111	-97.6404	0
289	24.4101	-10.57771	-34.17414	-10.57771	37.42882	-8.95037	4.06835	8.1367	-11.39138	-101.70875	-26.85111	-108.21811	0
290	56.9569	-10.57771	-44.75185	-10.57771	48.00653	-19.52808	-6.50936	-13.83239	-32.5468	-122.86417	-38.24249	-108.21811	0
291	67.53461	-10.57771	-55.32956	-10.57771	58.58424	-19.52808	-28.47845	-24.4101	-54.51589	-133.44188	-48.8202	-108.21811	0
292	24.4101	-10.57771	-55.32956	-10.57771	58.58424	-19.52808	-49.63387	-56.14323	-86.24902	-165.98868	-48.8202	-97.6404	0
293	13.83239	-10.57771	-23.59643	-10.57771	26.85111	-19.52808	-49.63387	-78.11232	-108.21811	-176.56639	-59.39791	-97.6404	0
294	13.83239	-10.57771	-23.59643	0	26.85111	-19.52808	-60.21158	-88.69003	-129.37353	-187.1441	-69.97562	-97.6404	0
295	13.83239	-21.15542	-23.59643	0	26.85111	-30.10579	-70.78929	-99.26774	-129.37353	-209.11319	-80.55333	-118.79582	0
296	13.83239	-31.73313	-44.75185	0	26.85111	-40.6835	-81.367	-109.84545	-139.95124	-219.6909	-80.55333	-130.1872	0
297	35.80148	-31.73313	-55.32956	0	48.00653	-40.6835	-81.367	-142.39225	-161.10666	-219.6909	-102.52242	-130.1872	0
298	35.80148	-31.73313	-55.32956	0	48.00653	-51.26121	-49.63387	-163.54767	-172.49804	-230.26861	-102.52242	-130.1872	0
299	35.80148	-42.31084	-55.32956	10.57771	48.00653	-51.26121	-49.63387	-196.09447	-183.07575	-240.84632	-102.52242	-140.76491	0
300	35.80148	-52.88855	-55.32956	10.57771	37.42882	-51.26121	-70.78929	-206.67218	-204.23117	-251.42403	-113.10013	-151.34262	0
301	13.83239	-52.88855	-34.17414	21.15542	16.2734	-62.65259	-81.367	-206.67218	-214.80888	-262.00174	-113.10013	-151.34262	0
302	3.25468	-21.15542	-23.59643	21.15542	5.69569	-19.52808	-81.367	-217.24989	-225.38659	-283.97083	-113.10013	-161.92033	0
303	-7.32303	-10.57771	-12.20505	0	-5.69569	-8.95037	-103.33609	-238.40531	-247.35568	-305.12625	-134.25555	-161.92033	0
304	-7.32303	-10.57771	-12.20505	0	-5.69569	-8.95037	-103.33609	-249.79669	-247.35568	-315.70396	-134.25555	-161.92033	0
305	-7.32303	11.39138	-1.62734	0	-5.69569	1.62734	-113.9138	-249.79669	-247.35568	-315.70396	-134.25555	-172.49804	0
306	13.83239	21.96909	8.95037	-21.15542	-5.69569	13.01872	-135.06922	-249.79669	-247.35568	-315.70396	-134.25555	-172.49804	0
307	24.4101	32.5468	8.95037	-32.5468	16.2734	23.59643	-146.4606	-260.3744	-257.93339	-327.09534	-144.83326	-183.88942	0
308	35.80148	32.5468	19.52808	-32.5468	16.2734	23.59643	-146.4606	-260.3744	-257.93339	-327.09534	-156.22464	-194.46713	0
309	3.25468	32.5468	19.52808	-32.5468	16.2734	23.59643	-113.9138	-260.3744	-257.93339	-337.67305	-166.80235	-194.46713	0
310	3.25468	32.5468	30.10579	-32.5468	-16.2734	23.59643	-103.33609	-270.95211	-257.93339	-337.67305	-166.80235	-205.04484	0
311	-7.32303	11.39138	30.10579	-10.57771	-16.2734	23.59643	-103.33609	-270.95211	-257.93339	-337.67305	-166.80235	-215.62255	0
312	-17.90074	11.39138	41.49717	0	-26.85111	23.59643	-103.33609	-270.95211	-268.5111	-337.67305	-166.80235	-215.62255	0
313	-39.86983	0	41.49717	10.57771	-37.42882	23.59643	-113.9138	-270.95211	-279.08881	-348.25076	-166.80235	-215.62255	0
314	-39.86983	-10.57771	41.49717	21.15542	-48.00653	1.62734	-124.49151	-292.10753	-279.08881	-369.40618	-166.80235	-205.04484	0
315	-17.90074	-10.57771	41.49717	21.15542	-48.00653	1.62734	-124.49151	-292.10753	-279.08881	-369.40618	-166.80235	-194.46713	0
316	-7.32303	-10.57771	41.49717	-10.57771	-16.2734	1.62734	-124.49151	-292.10753	-279.08881	-369.40618	-166.80235	-194.46713	0
317	3.25468	21.96909	19.52808	-21.15542	-5.69569	1.62734	-124.49151	-302.68524	-257.93339	-369.40618	-144.83326	-194.46713	0
318	3.25468	21.96909	19.52808	-21.15542	-5.69569	23.59643	-124.49151	-281.52982	-257.93339	-348.25076	-144.83326	-194.46713	0
319	3.25468	32.5468	41.49717	-21.15542	-5.69569	34.17414	-103.33609	-270.95211	-247.35568	-337.67305	-134.25555	-194.46713	0
320	3.25468	32.5468	41.49717	-21.15542	-5.69569	34.17414	-103.33609	-270.95211	-247.35568	-337.67305	-134.25555	-194.46713	0
321	3.25468	32.5468	41.49717	-21.15542	-16.2734	34.17414	-124.49151	-260.3744	-247.35568	-358.82847	-134.25555	-183.88942	0
322	-17.90074	32.5468	41.49717	-10.57771	-26.85111	34.17414	-124.49151	-260.3744	-236.77797	-369.40618	-144.83326	-183.88942	0
323	-39.86983	0	41.49717	10.57771	-37.42882	23.59643	-135.06922	-249.79669	-225.38659	-379.98389	-156.22464	-172.49804	0
324	-39.86983	-10.57771	41.49717	21.15542	-48.00653	23.59643	-135.06922	-249.79669	-225.38659	-391.37527	-156.22464	-172.49804	0
325	-39.86983	64.27993	52.07488	-32.5468	-58.58424	55.32956	-92.75838	-249.79669	-225.38659	-391.37527	-123.67784	-172.49804	0
326	3.25468	64.27993	62.65259	-32.5468	-26.85111	65.90727	-92.75838	-249.79669	-225.38659	-391.37527	-123.67784	-172.49804	-1500	QRS-0
327	13.83239	64.27993	62.65259	-43.12451	-26.85111	65.90727	-92.75838	-249.79669	-225.38659	-358.82847	-123.67784	-172.49804	0
328	13.83239	64.27993	62.65259	-43.12451	-16.2734	65.90727	-135.06922	-270.95211	-225.38659	-391.37527	-123.67784	-172.49804	0
329	13.83239	64.27993	62.65259	-43.12451	-16.2734	65.90727	-146.4606	-281.52982	-236.77797	-401.95298	-156.22464	-172.49804	0
330	-39.86983	21.96909	41.49717	0	-48.00653	34.17414	-157.03831	-302.68524	-247.35568	-401.95298	-166.80235	-205.04484	0
331	-39.86983	21.96909	41.49717	0	-48.00653	34.17414	-103.33609	-302.68524	-247.35568	-401.95298	-166.80235	-183.88942	0
332	-39.86983	21.96909	62.65259	0	-58.58424	34.17414	-92.75838	-302.68524	-247.35568	-401.95298	-166.80235	-183.88942	0
333	-39.86983	21.96909	73.2303	10.57771	-58.58424	55.32956	-92.75838	-302.68524	-225.38659	-401.95298	-166.80235	-172.49804	0
334	-50.44754	11.39138	73.2303	21.15542	-58.58424	55.32956	-92.75838	-302.68524	-247.35568	-401.95298	-156.22464	-172.49804	0
335	-61.02525	11.39138	73.2303	31.73313	-69.97562	55.32956	-92.75838	-302.68524	-247.35568	-401.95298	-166.80235	-172.49804	0
336	-28.47845	53.70222	73.2303	-21.15542	-69.97562	65.90727	-113.9138	-281.52982	-247.35568	-401.95298	-166.80235	-172.49804	0
337	-17.90074	64.27993	73.2303	-32.5468	-48.00653	65.90727	-113.9138	-281.52982	-247.35568	-401.95298	-166.80235	-172.49804	0
338	-7.32303	64.27993	83.80801	-32.5468	-48.00653	65.90727	-92.75838	-281.52982	-225.38659	-401.95298	-156.22464	-172.49804	0
339	-7.32303	64.27993	83.80801	-32.5468	-48.00653	65.90727	-81.367	-281.52982	-225.38659	-401.95298	-156.22464	-172.49804	0
340	-7.32303	64.27993	83.80801	-32.5468	-58.58424	65.90727	-113.9138	-292.10753	-247.35568	-401.95298	-156.22464	-194.46713	0
341	-39.86983	32.5468	83.80801	-10.57771	-58.58424	65.90727	-124.49151	-314.07662	-247.35568	-401.95298	-166.80235	-194.46713	0
342	-39.86983	32.5468	73.2303	-21.15542	-58.58424	65.90727	-124.49151	-324.65433	-247.35568	-401.95298	-166.80235	-194.46713	0
343	-7.32303	64.27993	73.2303	-32.5468	-37.42882	65.90727	-124.49151	-324.65433	-247.35568	-401.95298	-144.83326	-194.46713	0
344	3.25468	64.27993	62.65259	-32.5468	-26.85111	65.90727	-103.33609	-324.65433	-247.35568	-401.95298	-144.83326	-194.46713	0
345	3.25468	64.27993	52.07488	-32.5468	-26.85111	65.90727	-92.75838	-324.65433	-225.38659	-401.95298	-144.83326	-172.49804	0
346	3.25468	64.27993	52.07488	-32.5468	-26.85111	65.90727	-81.367	-302.68524	-225.38659	-401.95298	-134.25555	-161.92033	0
347	3.25468	64.27993	73.2303	-32.5468	-26.85111	65.90727	-81.367	-302.68524	-225.38659	-391.37527	-156.22464	-161.92033	0
348	-28.47845	64.27993	73.2303	-32.5468	-48.00653	65.90727	-124.49151	-302.68524	-225.38659	-391.37527	-156.22464	-183.88942	0
349	-28.47845	64.27993	73.2303	-32.5468	-48.00653	65.90727	-124.49151	-302.68524	-225.38659	-391.37527	-144.83326	-183.88942	0
350	-28.47845	53.70222	73.2303	-10.57771	-48.00653	65.90727	-124.49151	-302.68524	-225.38659	-412.53069	-144.83326	-183.88942	0
351	-28.47845	53.70222	83.80801	-10.57771	-48.00653	65.90727	-103.33609	-302.68524	-225.38659	-412.53069	-156.22464	-183.88942	0
352	-39.86983	64.27993	94.38572	-10.57771	-58.58424	65.90727	-92.75838	-324.65433	-247.35568	-412.53069	-134.25555	-183.88942	0
353	-39.86983	64.27993	94.38572	-10.57771	-58.58424	65.90727	-92.75838	-324.65433	-247.35568	-412.53069	-134.25555	-183.88942	0
354	-39.86983	64.27993	94.38572	-10.57771	-58.58424	65.90727	-92.75838	-324.65433	-247.35568	-423.1084	-156.22464	-183.88942	0
355	-39.86983	64.27993	94.38572	-10.57771	-58.58424	65.90727	-113.9138	-324.65433	-247.35568	-423.1084	-156.22464	-183.88942	0
356	-17.90074	64.27993	94.38572	-10.57771	-58.58424	65.90727	-124.49151	-324.65433	-247.35568	-401.95298	-134.25555	-183.88942	0
357	-17.90074	64.27993	94.38572	-10.57771	-58.58424	55.32956	-135.06922	-324.65433	-247.35568	-401.95298	-134.25555	-194.46713	0
358	-50.44754	32.5468	94.38572	10.57771	-69.97562	55.32956	-135.06922	-324.65433	-247.35568	-433.68611	-166.80235	-194.46713	0
359	-61.02525	32.5468	94.38572	10.57771	-80.55333	55.32956	-135.06922	-324.65433	-247.35568	-433.68611	-166.80235	-194.46713	0
360	-61.02525	64.27993	105.7771	-32.5468	-80.55333	77.29865	-124.49151	-314.07662	-247.35568	-433.68611	-166.80235	-172.49804	0
361	-17.90074	75.67131	105.7771	-32.5468	-48.00653	87.87636	-113.9138	-314.07662	-247.35568	-433.68611	-156.22464	-172.49804	0
362	-17.90074	75.67131	105.7771	-32.5468	-48.00653	87.87636	-113.9138	-314.07662	-236.77797	-423.1084	-156.22464	-172.49804	0
363	-17.90074	64.27993	83.80801	-32.5468	-48.00653	87.87636	-113.9138	-314.07662	-225.38659	-423.1084	-156.22464	-172.49804	0
364	-28.47845	75.67131	105.7771	-32.5468	-58.58424	98.45407	-113.9138	-314.07662	-225.38659	-423.1084	-144.83326	-172.49804	0
365	-17.90074	86.24902	105.7771	-32.5468	-58.58424	98.45407	-146.4606	-314.07662	-225.38659	-423.1084	-144.83326	-172.49804	0
366	-39.86983	86.24902	105.7771	-10.57771	-69.97562	98.45407	-157.03831	-314.07662	-225.38659	-444.26382	-144.83326	-172.49804	0
367	-39.86983	53.70222	105.7771	-10.57771	-69.97562	98.45407	-157.03831	-314.07662	-257.93339	-455.6552	-144.83326	-172.49804	0
368	-39.86983	53.70222	105.7771	-10.57771	-80.55333	87.87636	-157.03831	-314.07662	-257.93339	-455.6552	-144.83326	-172.49804	0
369	-17.90074	96.82673	105.7771	-43.12451	-48.00653	98.45407	-113.9138	-335.23204	-225.38659	-455.6552	-134.25555	-161.92033	0
370	-7.32303	107.40444	116.35481	-53.70222	-48.00653	109.03178	-103.33609	-335.23204	-225.38659	-433.68611	-134.25555	-161.92033	0
371	-7.32303	107.40444	126.93252	-53.70222	-48.00653	119.60949	-103.33609	-302.68524	-225.38659	-423.1084	-123.67784	-161.92033	0
372	-7.32303	107.40444	126.93252	-53.70222	-48.00653	119.60949	-103.33609	-302.68524	-225.38659	-423.1084	-113.10013	-151.34262	0
373	-7.32303	107.40444	137.51023	-53.70222	-48.00653	131.00087	-124.49151	-292.10753	-225.38659	-423.1084	-113.10013	-151.34262	0
374	-28.47845	96.82673	137.51023	-32.5468	-80.55333	131.00087	-146.4606	-281.52982	-225.38659	-412.53069	-113.10013	-140.76491	0
375	-7.32303	129.37353	137.51023	-64.27993	-80.55333	131.00087	-92.75838	-281.52982	-214.80888	-401.95298	-102.52242	-130.1872	0
376	3.25468	139.95124	137.51023	-74.85764	-58.58424	131.00087	-81.367	-281.52982	-214.80888	-401.95298	-102.52242	-118.79582	0
377	13.83239	150.52895	148.08794	-85.43535	-58.58424	141.57858	-70.78929	-292.10753	-214.80888	-401.95298	-102.52242	-118.79582	0
378	13.83239	150.52895	148.08794	-85.43535	-58.58424	141.57858	-70.78929	-292.10753	-214.80888	-401.95298	-91.13104	-118.79582	0
379	13.83239	150.52895	148.08794	-85.43535	-58.58424	141.57858	-70.78929	-302.68524	-214.80888	-423.1084	-91.13104	-118.79582	0
380	13.83239	150.52895	148.08794	-85.43535	-58.58424	141.57858	-124.49151	-314.07662	-225.38659	-433.68611	-91.13104	-118.79582	0
381	3.25468	150.52895	148.08794	-85.43535	-58.58424	141.57858	-124.49151	-314.07662	-204.23117	-433.68611	-113.10013	-118.79582	0
382	3.25468	150.52895	148.08794	-74.85764	-58.58424	141.57858	-124.49151	-281.52982	-204.23117	-433.68611	-113.10013	-118.79582	0
383	3.25468	171.68437	158.66565	-85.43535	-58.58424	162.734	-81.367	-281.52982	-193.65346	-412.53069	-113.10013	-118.79582	0
384	13.83239	182.26208	158.66565	-85.43535	-58.58424	173.31171	-70.78929	-270.95211	-183.07575	-401.95298	-91.13104	-108.21811	0
385	13.83239	182.26208	191.21245	-96.82673	-91.13104	183.88942	-49.63387	-270.95211	-172.49804	-391.37527	-80.55333	-87.06269	0
386	-7.32303	182.26208	201.79016	-96.82673	-101.70875	183.88942	-49.63387	-292.10753	-172.49804	-391.37527	-80.55333	-87.06269	0
387	-7.32303	182.26208	201.79016	-74.85764	-101.70875	195.2808	-49.63387	-292.10753	-172.49804	-391.37527	-80.55333	-76.48498	0
388	-7.32303	193.65346	201.79016	-107.40444	-101.70875	195.2808	-92.75838	-302.68524	-172.49804	-391.37527	-69.97562	-76.48498	0
389	24.4101	204.23117	201.79016	-117.98215	-101.70875	205.85851	-103.33609	-314.07662	-172.49804	-391.37527	-59.39791	-65.90727	0
390	35.80148	214.80888	201.79016	-117.98215	-80.55333	205.85851	-103.33609	-324.65433	-172.49804	-391.37527	-59.39791	-65.90727	0
391	46.37919	225.38659	170.05703	-139.13757	-58.58424	205.85851	-113.9138	-324.65433	-172.49804	-379.98389	-38.24249	-43.93818	0
392	46.37919	225.38659	170.05703	-139.13757	-58.58424	205.85851	-113.9138	-302.68524	-172.49804	-379.98389	-38.24249	-43.93818	0
393	46.37919	204.23117	158.66565	-139.13757	-48.00653	173.31171	-124.49151	-302.68524	-172.49804	-379.98389	-38.24249	-43.93818	0
394	46.37919	193.65346	148.08794	-117.98215	-48.00653	173.31171	-135.06922	-302.68524	-193.65346	-412.53069	-59.39791	-43.93818	0
395	35.80148	182.26208	137.51023	-117.98215	-48.00653	162.734	-146.4606	-324.65433	-204.23117	-423.1084	-69.97562	-43.93818	0
396	56.9569	171.68437	126.93252	-107.40444	-37.42882	152.15629	-157.03831	-324.65433	-204.23117	-444.26382	-91.13104	-87.06269	0
397	67.53461	171.68437	116.35481	-107.40444	-26.85111	141.57858	-157.03831	-324.65433	-204.23117	-455.6552	-91.13104	-97.6404	0
398	67.53461	171.68437	116.35481	-107.40444	-26.85111	141.57858	-157.03831	-302.68524	-193.65346	-455.6552	-91.13104	-97.6404	0
399	24.4101	150.52895	116.35481	-85.43535	-26.85111	141.57858	-157.03831	-302.68524	-193.65346	-455.6552	-102.52242	-97.6404	0
400	13.83239	139.95124	116.35481	-74.85764	-48.00653	131.00087	-157.03831	-302.68524	-193.65346	-455.6552	-102.52242	-108.21811	0
401	13.83239	129.37353	126.93252	-74.85764	-58.58424	119.60949	-157.03831	-302.68524	-193.65346	-455.6552	-102.52242	-108.21811	0
402	13.83239	129.37353	126.93252	-74.85764	-58.58424	119.60949	-135.06922	-302.68524	-193.65346	-455.6552	-102.52242	-108.21811	0
403	46.37919	171.68437	126.93252	-107.40444	-37.42882	141.57858	-124.49151	-302.68524	-183.07575	-455.6552	-102.52242	-87.06269	0
404	46.37919	182.26208	116.35481	-107.40444	-37.42882	141.57858	-113.9138	-302.68524	-172.49804	-455.6552	-91.13104	-76.48498	0
405	46.37919	182.26208	105.7771	-107.40444	-37.42882	141.57858	-113.9138	-302.68524	-172.49804	-455.6552	-91.13104	-76.48498	0
406	46.37919	139.95124	105.7771	-107.40444	-37.42882	119.60949	-113.9138	-314.07662	-172.49804	-455.6552	-102.52242	-76.48498	0
407	13.83239	107.40444	105.7771	-64.27993	-58.58424	109.03178	-113.9138	-314.07662	-172.49804	-466.23291	-113.10013	-97.6404	0
408	-7.32303	96.82673	105.7771	-43.12451	-58.58424	109.03178	-113.9138	-314.07662	-193.65346	-487.38833	-113.10013	-118.79582	0
409	-17.90074	75.67131	105.7771	-32.5468	-58.58424	98.45407	-113.9138	-324.65433	-214.80888	-509.35742	-123.67784	-130.1872	0
410	-28.47845	64.27993	94.38572	-21.15542	-69.97562	87.87636	-124.49151	-324.65433	-225.38659	-519.93513	-134.25555	-140.76491	0
411	-28.47845	64.27993	83.80801	-21.15542	-69.97562	77.29865	-124.49151	-324.65433	-236.77797	-519.93513	-134.25555	-151.34262	0
412	-28.47845	64.27993	83.80801	-21.15542	-69.97562	77.29865	-92.75838	-324.65433	-236.77797	-519.93513	-144.83326	-151.34262	0
413	3.25468	64.27993	83.80801	-43.12451	-48.00653	77.29865	-81.367	-345.80975	-236.77797	-530.51284	-156.22464	-151.34262	0
414	3.25468	53.70222	83.80801	-10.57771	-48.00653	65.90727	-81.367	-356.38746	-236.77797	-551.66826	-166.80235	-161.92033	0
415	-39.86983	43.12451	73.2303	0	-58.58424	55.32956	-81.367	-367.77884	-236.77797	-562.24597	-166.80235	-172.49804	0
416	-50.44754	21.96909	73.2303	10.57771	-58.58424	55.32956	-81.367	-378.35655	-247.35568	-573.63735	-177.38006	-183.88942	0
417	-61.02525	0	94.38572	31.73313	-69.97562	44.75185	-81.367	-378.35655	-257.93339	-584.21506	-187.95777	-194.46713	0
418	-104.14976	-31.73313	94.38572	64.27993	-91.13104	23.59643	-124.49151	-388.93426	-279.08881	-594.79277	-198.53548	-194.46713	0
419	-104.14976	-31.73313	94.38572	64.27993	-101.70875	23.59643	-135.06922	-399.51197	-279.08881	-605.37048	-198.53548	-194.46713	0
420	-28.47845	43.12451	94.38572	-10.57771	-48.00653	55.32956	-103.33609	-399.51197	-279.08881	-605.37048	-177.38006	-172.49804	0
421	-7.32303	64.27993	94.38572	-32.5468	-48.00653	65.90727	-81.367	-367.77884	-225.38659	-573.63735	-166.80235	-151.34262	0
422	3.25468	75.67131	73.2303	-43.12451	-37.42882	77.29865	-70.78929	-356.38746	-225.38659	-562.24597	-156.22464	-140.76491	0
423	13.83239	86.24902	73.2303	-43.12451	-26.85111	77.29865	-70.78929	-345.80975	-225.38659	-562.24597	-156.22464	-130.1872	0
424	13.83239	86.24902	62.65259	-43.12451	-26.85111	77.29865	-49.63387	-345.80975	-225.38659	-562.24597	-156.22464	-130.1872	0
425	-39.86983	21.96909	62.65259	0	-58.58424	44.75185	-49.63387	-345.80975	-236.77797	-562.24597	-156.22464	-151.34262	0
426	-39.86983	11.39138	62.65259	10.57771	-58.58424	44.75185	-49.63387	-367.77884	-236.77797	-584.21506	-156.22464	-151.34262	0
427	-50.44754	11.39138	62.65259	21.15542	-58.58424	34.17414	-70.78929	-378.35655	-236.77797	-584.21506	-156.22464	-161.92033	0
428	-50.44754	11.39138	62.65259	21.15542	-58.58424	34.17414	-70.78929	-378.35655	-236.77797	-584.21506	-156.22464	-130.1872	0
429	-7.32303	64.27993	62.65259	-32.5468	-37.42882	65.90727	-70.78929	-356.38746	-214.80888	-584.21506	-144.83326	-118.79582	0
430	-7.32303	64.27993	52.07488	-32.5468	-37.42882	65.90727	-60.21158	-345.80975	-214.80888	-584.21506	-144.83326	-118.79582	0
431	-7.32303	64.27993	52.07488	-32.5468	-37.42882	65.90727	-49.63387	-335.23204	-214.80888	-584.21506	-144.83326	-118.79582	0
432	-7.32303	64.27993	52.07488	0	-37.42882	65.90727	-49.63387	-335.23204	-204.23117	-584.21506	-144.83326	-118.79582	0
433	-39.86983	21.96909	62.65259	0	-37.42882	44.75185	-49.63387	-324.65433	-193.65346	-584.21506	-156.22464	-140.76491	0
434	-39.86983	0	52.07488	21.15542	-48.00653	34.17414	-49.63387	-324.65433	-193.65346	-594.79277	-166.80235	-151.34262	0
435	-50.44754	-10.57771	41.49717	31.73313	-58.58424	23.59643	-103.33609	-367.77884	-193.65346	-594.79277	-166.80235	-161.92033	0
436	-50.44754	-10.57771	41.49717	31.73313	-37.42882	23.59643	-135.06922	-399.51197	-204.23117	-584.21506	-166.80235	-161.92033	0
437	-28.47845	21.96909	41.49717	0	-37.42882	44.75185	-157.03831	-442.63648	-183.07575	-562.24597	-134.25555	-130.1872	0
438	-50.44754	21.96909	62.65259	0	-37.42882	44.75185	-178.19373	-506.91641	-172.49804	-530.51284	-113.10013	-118.79582	0
439	-61.02525	21.96909	83.80801	21.15542	-69.97562	44.75185	-210.74053	-581.77405	-172.49804	-509.35742	-91.13104	-118.79582	0
440	-82.18067	21.96909	94.38572	31.73313	-91.13104	65.90727	-253.05137	-742.88071	-172.49804	-466.23291	-38.24249	-54.51589	0
441	-28.47845	21.96909	52.07488	31.73313	-91.13104	34.17414	-275.02046	-817.73835	-247.35568	-455.6552	-26.85111	-54.51589	0
442	-7.32303	0	19.52808	10.57771	-16.2734	13.01872	-317.3313	-882.01828	-290.48019	-455.6552	-26.85111	-43.93818	0
443	13.83239	-10.57771	-34.17414	0	16.2734	-8.95037	-339.30039	-956.87592	-365.33783	-530.51284	-26.85111	-43.93818	0
444	35.80148	-31.73313	-65.90727	-10.57771	48.00653	-51.26121	-381.61123	-1064.28036	-504.4754	-615.94819	-80.55333	-33.36047	0
445	46.37919	-42.31084	-98.45407	-10.57771	69.97562	-62.65259	-393.00261	-1171.6848	-654.19068	-712.77492	-113.10013	-33.36047	0
446	89.5037	-52.88855	-140.76491	-21.15542	112.28646	-94.38572	-435.31345	-1418.22681	-1008.13713	-926.77013	-187.95777	-76.48498	0
447	121.23683	-52.88855	-173.31171	-32.5468	144.83326	-104.96343	-445.89116	-1545.973	-1200.97692	-1044.75228	-231.08228	-76.48498	0
448	153.78363	-52.88855	-194.46713	-53.70222	176.56639	-116.35481	-489.01567	-1674.53286	-1362.08358	-1141.57901	-262.81541	-76.48498	0
449	196.09447	-21.15542	-205.85851	-85.43535	187.95777	-126.93252	-532.14018	-1824.24814	-1522.37657	-1216.43665	-273.39312	-43.93818	0
450	218.06356	32.5468	-216.43622	-128.55986	198.53548	-73.2303	-606.99782	-1995.93251	-1661.51414	-1259.56116	-284.7845	-1.62734	0
451	292.9212	182.26208	-130.1872	-235.9643	209.11319	23.59643	-789.2599	-2296.17674	-1843.77622	-1280.71658	-284.7845	105.7771	0
452	324.65433	182.26208	-119.60949	-257.11972	240.84632	34.17414	-842.96212	-2306.75445	-1854.35393	-1280.71658	-209.11319	116.35481	0
453	346.62342	182.26208	-237.59164	-267.69743	273.39312	34.17414	-864.11754	-2306.75445	-1854.35393	-1366.9656	-359.64214	116.35481	0
454	357.20113	-64.27993	-334.41837	-107.40444	294.54854	-191.21245	-864.11754	-2306.75445	-1854.35393	-1483.32041	-541.90422	-172.49804	0
455	142.39225	-224.57292	-387.30692	43.12451	305.12625	-297.80322	-864.11754	-1824.24814	-1640.35872	-1633.84936	-745.32172	-365.33783	0
456	-17.90074	-299.43056	-398.6983	161.10666	122.86417	-297.80322	-864.11754	-1759.96821	-1628.96734	-1719.28471	-842.14845	-483.31998	0
457	-382.4249	-331.97736	41.49717	353.94645	-209.11319	-309.1946	-692.43317	-1738.81279	-1618.38963	-1794.95602	-938.16151	-601.30213	0
458	-500.40705	-385.67958	94.38572	439.3818	-294.54854	-309.1946	-671.27775	-1685.11057	-1564.68741	-1805.53373	-1002.44144	-687.55115	0
459	-510.98476	-417.41271	116.35481	460.53722	-316.51763	-137.51023	-650.12233	-1577.70613	-1479.25206	-1805.53373	-1024.41053	-741.25337	0
460	-521.56247	-460.53722	126.93252	471.9286	-327.09534	-137.51023	-628.15324	-1449.95994	-1383.239	-1805.53373	-1034.98824	-783.56421	0
461	-521.56247	-481.69264	126.93252	482.50631	-327.09534	-137.51023	-606.99782	-1310.82237	-1265.25685	-1676.97387	-1045.56595	-783.56421	0
462	-521.56247	-481.69264	116.35481	482.50631	-316.51763	-244.91467	-510.17109	-1074.85807	-997.55942	-1452.40095	-884.45929	-794.95559	0
463	-328.72268	-481.69264	-65.90727	375.10187	-134.25555	-244.91467	-457.28254	-1000.00043	-890.15498	-1334.4188	-799.02394	-655.00435	0
464	-318.14497	-385.67958	-76.48498	343.36874	-123.67784	-244.91467	-403.58032	-935.7205	-794.14192	-1237.59207	-724.1663	-590.72442	0
465	-296.98955	-353.13278	-76.48498	321.39965	-112.28646	-212.36787	-360.45581	-871.44057	-707.8929	-1141.57901	-627.33957	-515.86678	0
466	-264.44275	-310.82194	-76.48498	289.66652	-112.28646	-180.63474	-306.75359	-753.45842	-579.33304	-1023.59686	-509.35742	-419.04005	0
467	-243.28733	-278.27514	-44.75185	257.11972	-101.70875	-169.24336	-263.62908	-624.89856	-472.74227	-938.16151	-434.49978	-354.76012	0
468	-168.42969	-224.57292	-34.17414	203.4175	-58.58424	-137.51023	-167.61602	-367.77884	-236.77797	-798.21027	-316.51763	-258.74706	0
469	-135.88289	-182.26208	-34.17414	149.71528	-48.00653	-116.35481	-113.9138	-206.67218	-108.21811	-733.93034	-262.81541	-226.20026	0
470	-92.75838	-149.71528	-34.17414	128.55986	-26.85111	-104.96343	-70.78929	-109.84545	-32.5468	-680.22812	-231.08228	-215.62255	0
471	-82.18067	-117.98215	-55.32956	96.01306	-16.2734	-94.38572	-28.47845	-24.4101	42.31084	-648.49499	-209.11319	-205.04484	0
472	-71.60296	-96.01306	-23.59643	74.85764	-16.2734	-51.26121	14.64606	39.86983	96.01306	-615.94819	-209.11319	-205.04484	0
473	-50.44754	-10.57771	30.10579	31.73313	-16.2734	13.01872	100.89508	157.85198	192.02612	-509.35742	-134.25555	-161.92033	0
474	-39.86983	11.39138	41.49717	21.15542	-48.00653	23.59643	122.0505	190.39878	245.72834	-466.23291	-91.13104	-130.1872	0
475	-28.47845	11.39138	62.65259	10.57771	-48.00653	34.17414	132.62821	222.13191	278.27514	-433.68611	-69.97562	-118.79582	0
476	-28.47845	21.96909	73.2303	0	-58.58424	44.75185	143.20592	275.83413	299.43056	-401.95298	-38.24249	-97.6404	0
477	-28.47845	32.5468	73.2303	0	-58.58424	55.32956	153.78363	318.95864	353.13278	-379.98389	-26.85111	-76.48498	0
478	-28.47845	32.5468	73.2303	0	-58.58424	55.32956	153.78363	361.26948	385.67958	-379.98389	-16.2734	-54.51589	0
479	-28.47845	-10.57771	30.10579	21.15542	-37.42882	13.01872	132.62821	404.39399	417.41271	-379.98389	4.88202	-54.51589	0
480	-17.90074	-10.57771	19.52808	21.15542	-16.2734	13.01872	153.78363	436.94079	449.95951	-379.98389	4.88202	-54.51589	0
481	-7.32303	-10.57771	19.52808	0	-5.69569	13.01872	153.78363	447.5185	460.53722	-369.40618	4.88202	-54.51589	0
482	3.25468	-10.57771	8.95037	-10.57771	-5.69569	13.01872	165.17501	447.5185	460.53722	-369.40618	4.88202	-54.51589	0
483	3.25468	-10.57771	8.95037	-10.57771	5.69569	13.01872	175.75272	447.5185	460.53722	-369.40618	-16.2734	-54.51589	0
484	3.25468	11.39138	41.49717	-10.57771	5.69569	23.59643	175.75272	436.94079	460.53722	-327.09534	-26.85111	-76.48498	0
485	-17.90074	32.5468	41.49717	-10.57771	-26.85111	34.17414	186.33043	447.5185	438.56813	-327.09534	15.45973	-76.48498	0
486	-17.90074	43.12451	41.49717	-21.15542	-26.85111	44.75185	186.33043	458.09621	460.53722	-327.09534	26.03744	-76.48498	0
487	-17.90074	43.12451	41.49717	-21.15542	-26.85111	44.75185	186.33043	468.67392	481.69264	-315.70396	26.03744	-76.48498	0
488	-17.90074	43.12451	52.07488	-21.15542	-37.42882	44.75185	196.90814	479.25163	492.27035	-315.70396	37.42882	-54.51589	0
489	-28.47845	43.12451	52.07488	0	-37.42882	44.75185	207.48585	490.64301	502.84806	-315.70396	37.42882	-43.93818	0
490	-39.86983	-10.57771	30.10579	31.73313	-37.42882	13.01872	175.75272	501.22072	502.84806	-337.67305	37.42882	-76.48498	0
491	-61.02525	-42.31084	30.10579	43.12451	-48.00653	-8.95037	175.75272	501.22072	502.84806	-337.67305	4.88202	-76.48498	0
492	-71.60296	-52.88855	30.10579	53.70222	-58.58424	-8.95037	175.75272	501.22072	502.84806	-337.67305	4.88202	-76.48498	0
493	-82.18067	-52.88855	19.52808	64.27993	-58.58424	-8.95037	196.90814	501.22072	514.23944	-337.67305	4.88202	-76.48498	0
494	-82.18067	-52.88855	19.52808	64.27993	-58.58424	-8.95037	207.48585	511.79843	514.23944	-337.67305	4.88202	-54.51589	0
495	-28.47845	11.39138	19.52808	10.57771	-37.42882	-8.95037	240.03265	522.37614	535.39486	-294.54854	37.42882	-43.93818	0
496	-28.47845	11.39138	19.52808	0	-37.42882	23.59643	240.03265	522.37614	535.39486	-294.54854	37.42882	-43.93818	0
497	-28.47845	11.39138	19.52808	0	-48.00653	23.59643	240.03265	532.95385	545.97257	-294.54854	37.42882	-43.93818	0
498	-50.44754	11.39138	41.49717	31.73313	-48.00653	1.62734	240.03265	565.50065	556.55028	-294.54854	37.42882	-43.93818	0
499	-50.44754	-21.15542	41.49717	43.12451	-26.85111	1.62734	218.06356	576.07836	567.94166	-305.12625	48.00653	-33.36047	0
500	-7.32303	21.96909	19.52808	-10.57771	-16.2734	1.62734	218.06356	597.23378	599.67479	-294.54854	69.16195	-33.36047	0
501	-7.32303	21.96909	19.52808	-10.57771	-16.2734	23.59643	261.18807	597.23378	599.67479	-294.54854	69.16195	-22.78276	0
502	-7.32303	21.96909	19.52808	-10.57771	-16.2734	23.59643	271.76578	607.81149	599.67479	-294.54854	69.16195	-22.78276	0
503	-39.86983	-10.57771	19.52808	21.15542	-37.42882	23.59643	293.73487	619.20287	610.2525	-283.97083	48.00653	-22.78276	0
504	-39.86983	-10.57771	19.52808	31.73313	-37.42882	1.62734	304.31258	619.20287	610.2525	-283.97083	48.00653	-22.78276	0
505	-39.86983	-21.15542	19.52808	31.73313	-37.42882	1.62734	304.31258	629.78058	610.2525	-273.39312	48.00653	-12.20505	0
506	-61.02525	-42.31084	19.52808	43.12451	-48.00653	-8.95037	304.31258	629.78058	610.2525	-273.39312	48.00653	-12.20505	0
507	-71.60296	-52.88855	19.52808	53.70222	-58.58424	-8.95037	250.61036	640.35829	599.67479	-273.39312	48.00653	-12.20505	0
508	-71.60296	-52.88855	19.52808	53.70222	-58.58424	-8.95037	250.61036	640.35829	599.67479	-273.39312	58.58424	-12.20505	0
509	-71.60296	-52.88855	19.52808	53.70222	-58.58424	-8.95037	250.61036	650.936	620.83021	-262.00174	69.16195	-12.20505	0
510	-28.47845	-10.57771	19.52808	53.70222	-26.85111	13.01872	293.73487	650.936	620.83021	-262.00174	69.16195	-12.20505	0
511	-28.47845	0	19.52808	10.57771	-26.85111	13.01872	314.89029	661.51371	632.22159	-240.84632	79.73966	-1.62734	0
512	-7.32303	11.39138	19.52808	0	-16.2734	13.01872	325.468	672.09142	642.7993	-230.26861	79.73966	9.76404	0
513	3.25468	21.96909	19.52808	-10.57771	-5.69569	13.01872	325.468	683.4828	653.37701	-219.6909	79.73966	9.76404	0
514	3.25468	21.96909	19.52808	-21.15542	-5.69569	23.59643	325.468	694.06051	653.37701	-209.11319	79.73966	9.76404	0
515	3.25468	21.96909	30.10579	-21.15542	-5.69569	23.59643	336.04571	704.63822	663.95472	-209.11319	79.73966	20.34175	0
516	3.25468	32.5468	41.49717	-21.15542	-5.69569	34.17414	336.04571	715.21593	663.95472	-209.11319	79.73966	20.34175	0
517	-7.32303	32.5468	41.49717	-21.15542	-5.69569	34.17414	336.04571	715.21593	674.53243	-209.11319	79.73966	-1.62734	0
518	-7.32303	21.96909	41.49717	-21.15542	-5.69569	23.59643	347.43709	737.18502	685.11014	-209.11319	79.73966	-1.62734	0
519	-17.90074	11.39138	41.49717	0	-5.69569	23.59643	358.0148	747.76273	696.50152	-209.11319	79.73966	-1.62734	0
520	-17.90074	11.39138	41.49717	0	-26.85111	23.59643	368.59251	758.34044	717.65694	-197.72181	79.73966	-1.62734	0
521	-17.90074	11.39138	41.49717	0	-26.85111	23.59643	379.17022	779.49586	728.23465	-187.1441	91.13104	-1.62734	0
522	-17.90074	11.39138	41.49717	0	-26.85111	34.17414	389.74793	801.46495	760.78145	-176.56639	101.70875	20.34175	0
523	-17.90074	0	19.52808	10.57771	-16.2734	13.01872	389.74793	801.46495	771.35916	-176.56639	101.70875	30.91946	0
524	-28.47845	-10.57771	19.52808	21.15542	-26.85111	1.62734	368.59251	801.46495	771.35916	-176.56639	79.73966	30.91946	0
525	-39.86983	-10.57771	19.52808	21.15542	-26.85111	-8.95037	368.59251	801.46495	771.35916	-176.56639	79.73966	30.91946	0
526	-7.32303	-10.57771	19.52808	31.73313	-37.42882	-8.95037	379.17022	812.04266	771.35916	-176.56639	79.73966	30.91946	0
527	3.25468	-10.57771	8.95037	31.73313	-5.69569	-8.95037	379.17022	822.62037	771.35916	-165.98868	79.73966	20.34175	0
528	3.25468	21.96909	8.95037	-10.57771	-5.69569	23.59643	389.74793	854.3535	792.51458	-144.83326	101.70875	20.34175	0
529	13.83239	21.96909	8.95037	-21.15542	5.69569	23.59643	389.74793	854.3535	803.09229	-144.83326	112.28646	20.34175	0
530	13.83239	21.96909	8.95037	-21.15542	5.69569	23.59643	389.74793	865.74488	814.48367	-144.83326	112.28646	20.34175	0
531	13.83239	21.96909	8.95037	-21.15542	5.69569	23.59643	400.32564	876.32259	825.06138	-133.44188	122.86417	30.91946	0
532	13.83239	11.39138	8.95037	-21.15542	5.69569	23.59643	411.71702	876.32259	835.63909	-133.44188	122.86417	41.49717	0
533	-39.86983	-21.15542	19.52808	21.15542	-26.85111	1.62734	422.29473	876.32259	835.63909	-133.44188	101.70875	41.49717	0
534	-39.86983	-31.73313	19.52808	31.73313	-37.42882	-8.95037	422.29473	876.32259	835.63909	-133.44188	101.70875	41.49717	0
535	-50.44754	-31.73313	19.52808	43.12451	-37.42882	-8.95037	389.74793	886.9003	814.48367	-144.83326	101.70875	30.91946	0
536	3.25468	32.5468	19.52808	-21.15542	-37.42882	23.59643	389.74793	897.47801	835.63909	-133.44188	122.86417	30.91946	0
537	24.4101	43.12451	30.10579	-32.5468	-5.69569	34.17414	389.74793	908.05572	835.63909	-122.86417	133.44188	41.49717	0
538	35.80148	53.70222	30.10579	-32.5468	5.69569	44.75185	422.29473	919.4471	835.63909	-122.86417	144.01959	41.49717	0
539	35.80148	53.70222	30.10579	-32.5468	5.69569	44.75185	443.45015	930.02481	835.63909	-122.86417	144.01959	41.49717	0
540	35.80148	53.70222	30.10579	-32.5468	5.69569	44.75185	443.45015	930.02481	835.63909	-122.86417	144.01959	41.49717	0
541	13.83239	53.70222	30.10579	-32.5468	5.69569	44.75185	443.45015	930.02481	835.63909	-112.28646	144.01959	52.07488	0
542	35.80148	53.70222	30.10579	-32.5468	5.69569	44.75185	443.45015	930.02481	814.48367	-112.28646	122.86417	52.07488	0
543	35.80148	32.5468	30.10579	-10.57771	5.69569	44.75185	422.29473	930.02481	814.48367	-112.28646	122.86417	63.46626	0
544	3.25468	32.5468	30.10579	-10.57771	-5.69569	23.59643	411.71702	930.02481	803.09229	-112.28646	112.28646	63.46626	0
545	3.25468	21.96909	30.10579	-10.57771	5.69569	23.59643	411.71702	930.02481	781.93687	-133.44188	112.28646	63.46626	0
546	3.25468	11.39138	8.95037	-10.57771	5.69569	13.01872	411.71702	908.05572	771.35916	-144.83326	112.28646	63.46626	0
547	-7.32303	0	8.95037	0	5.69569	1.62734	443.45015	908.05572	760.78145	-155.41097	112.28646	63.46626	0
548	-7.32303	-10.57771	8.95037	0	5.69569	1.62734	443.45015	897.47801	760.78145	-155.41097	112.28646	63.46626	0
549	24.4101	32.5468	8.95037	-32.5468	5.69569	1.62734	443.45015	897.47801	749.39007	-155.41097	112.28646	63.46626	0
550	35.80148	53.70222	19.52808	-43.12451	16.2734	34.17414	443.45015	897.47801	738.81236	-155.41097	112.28646	63.46626	0
551	35.80148	53.70222	19.52808	-43.12451	16.2734	34.17414	422.29473	886.9003	728.23465	-144.83326	112.28646	63.46626	0
552	35.80148	53.70222	19.52808	-43.12451	16.2734	34.17414	411.71702	865.74488	717.65694	-155.41097	112.28646	63.46626	0
553	35.80148	53.70222	19.52808	-21.15542	16.2734	34.17414	411.71702	854.3535	696.50152	-165.98868	112.28646	74.04397	0
554	35.80148	32.5468	8.95037	-21.15542	16.2734	34.17414	411.71702	843.77579	696.50152	-176.56639	101.70875	74.04397	0
555	35.80148	32.5468	30.10579	-21.15542	16.2734	34.17414	432.87244	812.04266	674.53243	-187.1441	91.13104	74.04397	0
556	35.80148	32.5468	30.10579	-21.15542	16.2734	34.17414	432.87244	801.46495	642.7993	-197.72181	79.73966	52.07488	0
557	13.83239	53.70222	30.10579	-21.15542	-5.69569	34.17414	432.87244	779.49586	642.7993	-197.72181	79.73966	52.07488	0
558	35.80148	64.27993	30.10579	-43.12451	16.2734	44.75185	411.71702	758.34044	620.83021	-197.72181	69.16195	52.07488	0
559	35.80148	64.27993	30.10579	-43.12451	16.2734	44.75185	400.32564	737.18502	599.67479	-219.6909	69.16195	52.07488	0
560	35.80148	64.27993	30.10579	-43.12451	16.2734	44.75185	389.74793	704.63822	578.51937	-219.6909	58.58424	52.07488	0
561	35.80148	32.5468	8.95037	-43.12451	16.2734	23.59643	389.74793	661.51371	535.39486	-251.42403	48.00653	52.07488	0
562	35.80148	21.96909	8.95037	-21.15542	16.2734	13.01872	389.74793	619.20287	524.81715	-262.00174	37.42882	52.07488	0
563	35.80148	21.96909	8.95037	-21.15542	16.2734	13.01872	379.17022	597.23378	502.84806	-283.97083	26.03744	41.49717	0
564	13.83239	21.96909	8.95037	-10.57771	-5.69569	13.01872	368.59251	576.07836	481.69264	-294.54854	15.45973	41.49717	0
565	13.83239	21.96909	8.95037	-10.57771	-5.69569	13.01872	368.59251	554.92294	460.53722	-305.12625	15.45973	41.49717	0
566	3.25468	21.96909	8.95037	-10.57771	-5.69569	13.01872	368.59251	501.22072	385.67958	-337.67305	4.88202	41.49717	-1250	T-0
567	-28.47845	-10.57771	19.52808	10.57771	-16.2734	13.01872	389.74793	458.09621	342.55507	-348.25076	4.88202	41.49717	0
568	-39.86983	-10.57771	19.52808	21.15542	-26.85111	1.62734	336.04571	436.94079	299.43056	-358.82847	-5.69569	41.49717	0
569	-39.86983	-10.57771	19.52808	21.15542	-26.85111	1.62734	314.89029	404.39399	267.69743	-369.40618	-16.2734	30.91946	0
570	-39.86983	-10.57771	19.52808	21.15542	-26.85111	1.62734	304.31258	383.23857	235.15063	-391.37527	-16.2734	30.91946	0
571	3.25468	-10.57771	19.52808	21.15542	5.69569	1.62734	282.34349	361.26948	213.99521	-401.95298	-26.85111	30.91946	0
572	3.25468	11.39138	8.95037	-10.57771	5.69569	1.62734	261.18807	296.98955	170.8707	-433.68611	-48.8202	20.34175	0
573	3.25468	11.39138	19.52808	-10.57771	5.69569	1.62734	250.61036	265.25642	149.71528	-444.26382	-48.8202	20.34175	0
574	-7.32303	11.39138	19.52808	0	-16.2734	13.01872	250.61036	222.13191	117.16848	-455.6552	-48.8202	20.34175	0
575	-17.90074	11.39138	30.10579	0	-26.85111	23.59643	250.61036	190.39878	96.01306	-476.81062	-59.39791	9.76404	0
576	-17.90074	11.39138	41.49717	0	-26.85111	23.59643	250.61036	168.42969	63.46626	-487.38833	-69.97562	-1.62734	0
577	-17.90074	11.39138	41.49717	0	-26.85111	23.59643	229.45494	126.11885	21.15542	-509.35742	-91.13104	-1.62734	0
578	3.25468	21.96909	19.52808	0	-5.69569	23.59643	218.06356	93.57205	-11.39138	-519.93513	-102.52242	-12.20505	0
579	3.25468	21.96909	19.52808	0	-5.69569	23.59643	207.48585	50.44754	-21.96909	-541.09055	-113.10013	-12.20505	0
580	-17.90074	0	19.52808	0	-16.2734	23.59643	207.48585	29.29212	-54.51589	-551.66826	-113.10013	-22.78276	0
581	-39.86983	-10.57771	30.10579	21.15542	-26.85111	23.59643	207.48585	8.1367	-75.67131	-562.24597	-123.67784	-22.78276	0
582	-39.86983	-10.57771	41.49717	31.73313	-37.42882	1.62734	207.48585	-24.4101	-108.21811	-573.63735	-134.25555	-22.78276	0
583	-61.02525	-31.73313	41.49717	43.12451	-48.00653	-8.95037	186.33043	-78.11232	-150.52895	-594.79277	-156.22464	-22.78276	0
584	-71.60296	-42.31084	41.49717	53.70222	-58.58424	-8.95037	175.75272	-88.69003	-161.10666	-605.37048	-156.22464	-22.78276	0
585	-28.47845	11.39138	41.49717	10.57771	-26.85111	-8.95037	153.78363	-88.69003	-161.10666	-605.37048	-156.22464	-22.78276	0
586	-7.32303	11.39138	19.52808	0	-16.2734	23.59643	143.20592	-99.26774	-172.49804	-615.94819	-156.22464	-22.78276	0
587	3.25468	21.96909	19.52808	-10.57771	-5.69569	23.59643	143.20592	-109.84545	-183.07575	-626.5259	-156.22464	-22.78276	0
588	3.25468	32.5468	19.52808	-21.15542	-5.69569	23.59643	143.20592	-142.39225	-225.38659	-637.91728	-166.80235	-33.36047	0
589	3.25468	-21.15542	19.52808	31.73313	-5.69569	1.62734	143.20592	-163.54767	-247.35568	-637.91728	-166.80235	-43.93818	0
590	3.25468	-31.73313	19.52808	43.12451	-37.42882	-8.95037	143.20592	-174.12538	-247.35568	-648.49499	-177.38006	-43.93818	0
591	-50.44754	-31.73313	19.52808	43.12451	-48.00653	-8.95037	143.20592	-174.12538	-247.35568	-648.49499	-177.38006	-43.93818	0
592	-50.44754	-42.31084	19.52808	43.12451	-48.00653	-8.95037	143.20592	-196.09447	-257.93339	-648.49499	-177.38006	-43.93818	0
593	-50.44754	-42.31084	19.52808	43.12451	-48.00653	-8.95037	132.62821	-206.67218	-257.93339	-659.0727	-187.95777	-43.93818	0
594	-61.02525	-52.88855	19.52808	53.70222	-48.00653	-8.95037	132.62821	-227.8276	-257.93339	-669.65041	-187.95777	-43.93818	0
595	-71.60296	-64.27993	19.52808	64.27993	-48.00653	-8.95037	132.62821	-249.79669	-268.5111	-690.80583	-187.95777	-54.51589	0
596	-82.18067	-64.27993	19.52808	64.27993	-48.00653	-19.52808	132.62821	-260.3744	-279.08881	-690.80583	-198.53548	-76.48498	0
597	-104.14976	-74.85764	19.52808	74.85764	-58.58424	-19.52808	132.62821	-260.3744	-279.08881	-690.80583	-209.11319	-76.48498	0
598	-104.14976	-85.43535	30.10579	85.43535	-58.58424	-30.10579	132.62821	-260.3744	-279.08881	-702.19721	-209.11319	-76.48498	0
599	-114.72747	-85.43535	41.49717	107.40444	-69.97562	-30.10579	111.47279	-260.3744	-247.35568	-702.19721	-209.11319	-76.48498	0
600	-114.72747	-85.43535	41.49717	107.40444	-69.97562	-30.10579	111.47279	-270.95211	-247.35568	-680.22812	-220.50457	-87.06269	0
601	-92.75838	-85.43535	41.49717	107.40444	-69.97562	-30.10579	111.47279	-270.95211	-247.35568	-680.22812	-220.50457	-87.06269	0
602	-82.18067	-74.85764	41.49717	107.40444	-58.58424	-30.10579	100.89508	-270.95211	-236.77797	-680.22812	-220.50457	-65.90727	0
603	-82.18067	-64.27993	19.52808	74.85764	-48.00653	-19.52808	89.5037	-249.79669	-225.38659	-680.22812	-220.50457	-54.51589	0
604	-71.60296	-52.88855	19.52808	64.27993	-48.00653	-19.52808	89.5037	-249.79669	-225.38659	-680.22812	-209.11319	-54.51589	0
605	-50.44754	-42.31084	19.52808	31.73313	-37.42882	-8.95037	78.92599	-249.79669	-225.38659	-669.65041	-198.53548	-54.51589	0
606	-39.86983	-31.73313	19.52808	31.73313	-37.42882	1.62734	78.92599	-249.79669	-225.38659	-669.65041	-198.53548	-54.51589	0
607	-39.86983	-31.73313	30.10579	31.73313	-37.42882	1.62734	89.5037	-249.79669	-225.38659	-669.65041	-198.53548	-54.51589	0
608	-39.86983	-31.73313	30.10579	31.73313	-37.42882	1.62734	89.5037	-249.79669	-236.77797	-669.65041	-198.53548	-65.90727	0
609	-71.60296	-64.27993	30.10579	64.27993	-58.58424	-19.52808	78.92599	-249.79669	-236.77797	-669.65041	-209.11319	-76.48498	0
610	-82.18067	-64.27993	19.52808	64.27993	-58.58424	-19.52808	100.89508	-270.95211	-236.77797	-680.22812	-209.11319	-76.48498	0
611	-82.18067	-64.27993	30.10579	64.27993	-58.58424	-19.52808	122.0505	-270.95211	-214.80888	-669.65041	-187.95777	-76.48498	0
612	-61.02525	-64.27993	30.10579	64.27993	-58.58424	-19.52808	132.62821	-270.95211	-214.80888	-669.65041	-187.95777	-76.48498	0
613	-71.60296	-42.31084	30.10579	64.27993	-58.58424	-8.95037	132.62821	-281.52982	-214.80888	-669.65041	-177.38006	-76.48498	0
614	-71.60296	-42.31084	30.10579	64.27993	-58.58424	-8.95037	132.62821	-292.10753	-214.80888	-659.0727	-166.80235	-54.51589	0
615	-71.60296	-64.27993	30.10579	64.27993	-58.58424	-8.95037	132.62821	-292.10753	-214.80888	-659.0727	-166.80235	-54.51589	0
616	-82.18067	-64.27993	30.10579	64.27993	-58.58424	-19.52808	89.5037	-249.79669	-214.80888	-659.0727	-166.80235	-76.48498	0
617	-82.18067	-64.27993	30.10579	64.27993	-58.58424	-19.52808	78.92599	-238.40531	-214.80888	-659.0727	-166.80235	-76.48498	0
618	-82.18067	-64.27993	19.52808	64.27993	-58.58424	-19.52808	78.92599	-238.40531	-214.80888	-648.49499	-156.22464	-76.48498	0
619	-71.60296	-64.27993	19.52808	64.27993	-58.58424	-8.95037	78.92599	-238.40531	-225.38659	-648.49499	-156.22464	-54.51589	0
620	-71.60296	-64.27993	19.52808	53.70222	-58.58424	-8.95037	78.92599	-238.40531	-225.38659	-648.49499	-156.22464	-54.51589	0
621	-61.02525	-64.27993	19.52808	53.70222	-48.00653	-8.95037	78.92599	-260.3744	-204.23117	-648.49499	-156.22464	-33.36047	0
622	-82.18067	-64.27993	30.10579	53.70222	-48.00653	-8.95037	78.92599	-260.3744	-204.23117	-637.91728	-156.22464	-33.36047	0
623	-92.75838	-64.27993	30.10579	74.85764	-58.58424	-19.52808	78.92599	-238.40531	-204.23117	-637.91728	-156.22464	-33.36047	0
624	-104.14976	-74.85764	30.10579	85.43535	-58.58424	-30.10579	78.92599	-238.40531	-204.23117	-637.91728	-156.22464	-33.36047	0
625	-104.14976	-74.85764	30.10579	85.43535	-58.58424	-30.10579	78.92599	-238.40531	-204.23117	-637.91728	-156.22464	-33.36047	0
626	-104.14976	-74.85764	30.10579	85.43535	-58.58424	-30.10579	78.92599	-249.79669	-204.23117	-637.91728	-156.22464	-54.51589	0
627	-104.14976	-52.88855	30.10579	64.27993	-48.00653	-8.95037	78.92599	-249.79669	-204.23117	-626.5259	-144.83326	-54.51589	0
628	-71.60296	-52.88855	30.10579	64.27993	-48.00653	-8.95037	78.92599	-260.3744	-204.23117	-626.5259	-134.25555	-54.51589	0
629	-71.60296	-52.88855	30.10579	53.70222	-48.00653	-8.95037	68.34828	-260.3744	-204.23117	-626.5259	-134.25555	-54.51589	0
630	-71.60296	-52.88855	30.10579	53.70222	-48.00653	-8.95037	68.34828	-260.3744	-204.23117	-626.5259	-134.25555	-54.51589	0
631	-71.60296	-52.88855	19.52808	53.70222	-48.00653	-8.95037	57.77057	-260.3744	-193.65346	-615.94819	-134.25555	-43.93818	0
632	-82.18067	-52.88855	30.10579	53.70222	-58.58424	-30.10579	57.77057	-260.3744	-193.65346	-615.94819	-134.25555	-33.36047	0
633	-82.18067	-52.88855	30.10579	53.70222	-58.58424	-30.10579	89.5037	-260.3744	-183.07575	-594.79277	-134.25555	-22.78276	0
634	-82.18067	-52.88855	30.10579	53.70222	-58.58424	-8.95037	89.5037	-238.40531	-183.07575	-584.21506	-134.25555	-22.78276	0
635	-82.18067	-52.88855	41.49717	53.70222	-58.58424	-8.95037	89.5037	-238.40531	-183.07575	-584.21506	-123.67784	-22.78276	0
636	-82.18067	-42.31084	41.49717	53.70222	-58.58424	1.62734	89.5037	-238.40531	-183.07575	-584.21506	-123.67784	-22.78276	0
637	-61.02525	-31.73313	41.49717	43.12451	-58.58424	1.62734	100.89508	-238.40531	-193.65346	-584.21506	-123.67784	-22.78276	0
638	-61.02525	-31.73313	41.49717	43.12451	-58.58424	1.62734	100.89508	-260.3744	-204.23117	-584.21506	-123.67784	-22.78276	0
639	-82.18067	-31.73313	41.49717	43.12451	-58.58424	1.62734	68.34828	-260.3744	-214.80888	-584.21506	-134.25555	-33.36047	0
640	-82.18067	-31.73313	41.49717	43.12451	-58.58424	1.62734	57.77057	-260.3744	-214.80888	-594.79277	-134.25555	-33.36047	0
641	-82.18067	-31.73313	41.49717	43.12451	-58.58424	1.62734	47.19286	-260.3744	-225.38659	-594.79277	-134.25555	-33.36047	0
642	-82.18067	-31.73313	41.49717	43.12451	-58.58424	1.62734	47.19286	-260.3744	-225.38659	-594.79277	-134.25555	-33.36047	0
643	-82.18067	-31.73313	41.49717	64.27993	-58.58424	1.62734	89.5037	-260.3744	-236.77797	-573.63735	-144.83326	-22.78276	0
644	-82.18067	-42.31084	41.49717	64.27993	-58.58424	1.62734	89.5037	-260.3744	-236.77797	-573.63735	-144.83326	-12.20505	0
645	-82.18067	-31.73313	41.49717	43.12451	-58.58424	13.01872	89.5037	-260.3744	-214.80888	-573.63735	-123.67784	-12.20505	0
646	-82.18067	-31.73313	30.10579	43.12451	-58.58424	13.01872	47.19286	-260.3744	-214.80888	-573.63735	-123.67784	-12.20505	0
647	-82.18067	-52.88855	30.10579	43.12451	-58.58424	13.01872	25.22377	-260.3744	-214.80888	-573.63735	-123.67784	-12.20505	0
648	-92.75838	-64.27993	30.10579	74.85764	-58.58424	13.01872	14.64606	-260.3744	-247.35568	-573.63735	-123.67784	-12.20505	0
649	-104.14976	-74.85764	19.52808	85.43535	-69.97562	-30.10579	14.64606	-260.3744	-247.35568	-584.21506	-144.83326	-33.36047	0
650	-104.14976	-74.85764	19.52808	85.43535	-69.97562	-30.10579	14.64606	-249.79669	-247.35568	-573.63735	-156.22464	-33.36047	0
651	-104.14976	-74.85764	19.52808	64.27993	-48.00653	-30.10579	47.19286	-249.79669	-247.35568	-562.24597	-156.22464	-33.36047	0
652	-61.02525	-31.73313	41.49717	43.12451	-48.00653	-8.95037	47.19286	-249.79669	-225.38659	-562.24597	-156.22464	-12.20505	0
653	-50.44754	-21.15542	41.49717	31.73313	-48.00653	1.62734	47.19286	-238.40531	-225.38659	-562.24597	-134.25555	-12.20505	0
654	-39.86983	-10.57771	41.49717	31.73313	-37.42882	13.01872	47.19286	-238.40531	-225.38659	-551.66826	-134.25555	-12.20505	0
655	-39.86983	-10.57771	41.49717	31.73313	-37.42882	13.01872	47.19286	-260.3744	-247.35568	-551.66826	-134.25555	-12.20505	0
656	-39.86983	-10.57771	41.49717	31.73313	-37.42882	13.01872	57.77057	-260.3744	-247.35568	-573.63735	-144.83326	-22.78276	0
657	-39.86983	-42.31084	41.49717	31.73313	-37.42882	13.01872	57.77057	-270.95211	-257.93339	-573.63735	-156.22464	-33.36047	0
658	-50.44754	-42.31084	8.95037	31.73313	-37.42882	-8.95037	57.77057	-270.95211	-268.5111	-573.63735	-156.22464	-33.36047	0
659	-39.86983	-42.31084	8.95037	31.73313	-26.85111	-8.95037	57.77057	-281.52982	-279.08881	-573.63735	-156.22464	-33.36047	0
660	-28.47845	-21.15542	8.95037	31.73313	-16.2734	1.62734	35.80148	-292.10753	-290.48019	-551.66826	-156.22464	-22.78276	0
661	-28.47845	-21.15542	19.52808	31.73313	-16.2734	1.62734	14.64606	-292.10753	-290.48019	-551.66826	-156.22464	-22.78276	0
662	-28.47845	-21.15542	19.52808	31.73313	-16.2734	1.62734	14.64606	-270.95211	-290.48019	-551.66826	-156.22464	-12.20505	0
663	-28.47845	-21.15542	19.52808	31.73313	-37.42882	1.62734	14.64606	-260.3744	-290.48019	-551.66826	-144.83326	-12.20505	0
664	-61.02525	-42.31084	19.52808	31.73313	-37.42882	1.62734	14.64606	-260.3744	-279.08881	-551.66826	-144.83326	-12.20505	0
665	-71.60296	-64.27993	30.10579	64.27993	-48.00653	1.62734	14.64606	-260.3744	-290.48019	-551.66826	-144.83326	-22.78276	0
666	-71.60296	-21.15542	41.49717	64.27993	-58.58424	13.01872	14.64606	-292.10753	-301.0579	-551.66826	-144.83326	-22.78276	0
667	-71.60296	-10.57771	41.49717	64.27993	-58.58424	13.01872	14.64606	-292.10753	-301.0579	-541.09055	-144.83326	-22.78276	0
668	-71.60296	-10.57771	41.49717	31.73313	-58.58424	13.01872	25.22377	-292.10753	-301.0579	-530.51284	-144.83326	-12.20505	0
669	-28.47845	11.39138	41.49717	10.57771	-58.58424	23.59643	35.80148	-292.10753	-301.0579	-530.51284	-144.83326	-1.62734	0
670	-28.47845	11.39138	41.49717	0	-37.42882	23.59643	35.80148	-270.95211	-311.63561	-519.93513	-134.25555	-1.62734	0
671	-17.90074	21.96909	52.07488	0	-37.42882	34.17414	47.19286	-249.79669	-311.63561	-497.96604	-123.67784	30.91946	0
672	-17.90074	21.96909	62.65259	0	-37.42882	44.75185	47.19286	-249.79669	-311.63561	-497.96604	-113.10013	30.91946	0
673	-39.86983	21.96909	73.2303	0	-58.58424	55.32956	47.19286	-249.79669	-301.0579	-487.38833	-113.10013	41.49717	0
674	-50.44754	21.96909	73.2303	10.57771	-58.58424	55.32956	47.19286	-249.79669	-290.48019	-487.38833	-113.10013	41.49717	0
675	-50.44754	11.39138	73.2303	21.15542	-58.58424	55.32956	25.22377	-249.79669	-290.48019	-487.38833	-113.10013	41.49717	0
676	-50.44754	11.39138	73.2303	21.15542	-58.58424	55.32956	25.22377	-249.79669	-290.48019	-487.38833	-113.10013	41.49717	0
677	-28.47845	43.12451	73.2303	21.15542	-58.58424	55.32956	57.77057	-249.79669	-290.48019	-476.81062	-113.10013	52.07488	0
678	-7.32303	53.70222	73.2303	-32.5468	-37.42882	65.90727	57.77057	-249.79669	-290.48019	-466.23291	-113.10013	63.46626	0
679	3.25468	64.27993	62.65259	-32.5468	-26.85111	65.90727	57.77057	-249.79669	-290.48019	-455.6552	-102.52242	63.46626	0
680	3.25468	75.67131	62.65259	-32.5468	-26.85111	65.90727	47.19286	-249.79669	-311.63561	-455.6552	-91.13104	63.46626	0
681	3.25468	86.24902	83.80801	-43.12451	-26.85111	77.29865	57.77057	-260.3744	-322.21332	-444.26382	-91.13104	74.04397	0
682	3.25468	86.24902	94.38572	-43.12451	-58.58424	98.45407	68.34828	-260.3744	-322.21332	-444.26382	-80.55333	95.19939	0
683	3.25468	86.24902	94.38572	-43.12451	-58.58424	98.45407	25.22377	-260.3744	-322.21332	-444.26382	-80.55333	95.19939	0
684	3.25468	107.40444	94.38572	-53.70222	-58.58424	98.45407	14.64606	-260.3744	-332.79103	-433.68611	-80.55333	95.19939	0
685	24.4101	117.98215	94.38572	-64.27993	-58.58424	109.03178	14.64606	-260.3744	-332.79103	-423.1084	-69.97562	95.19939	0
686	35.80148	129.37353	94.38572	-85.43535	-37.42882	119.60949	14.64606	-260.3744	-332.79103	-423.1084	-69.97562	105.7771	0
687	35.80148	139.95124	94.38572	-85.43535	-26.85111	131.00087	-28.47845	-260.3744	-343.36874	-423.1084	-59.39791	116.35481	0
688	35.80148	139.95124	83.80801	-85.43535	-26.85111	131.00087	-39.05616	-260.3744	-365.33783	-423.1084	-59.39791	116.35481	0
689	56.9569	139.95124	73.2303	-85.43535	-5.69569	131.00087	-39.05616	-260.3744	-375.91554	-423.1084	-59.39791	116.35481	0
690	67.53461	117.98215	62.65259	-85.43535	5.69569	98.45407	-39.05616	-270.95211	-386.49325	-433.68611	-69.97562	116.35481	0
691	78.11232	107.40444	52.07488	-96.82673	16.2734	77.29865	-39.05616	-270.95211	-407.64867	-433.68611	-80.55333	95.19939	0
692	78.11232	107.40444	41.49717	-96.82673	16.2734	65.90727	-39.05616	-281.52982	-419.04005	-444.26382	-80.55333	84.62168	0
693	100.08141	96.82673	19.52808	-117.98215	37.42882	65.90727	-39.05616	-292.10753	-419.04005	-455.6552	-91.13104	74.04397	0
694	110.65912	96.82673	19.52808	-117.98215	48.00653	65.90727	-17.08707	-292.10753	-419.04005	-455.6552	-91.13104	74.04397	0
695	110.65912	129.37353	19.52808	-117.98215	48.00653	55.32956	-17.08707	-292.10753	-419.04005	-455.6552	-102.52242	95.19939	0
696	67.53461	86.24902	19.52808	-74.85764	48.00653	55.32956	-6.50936	-270.95211	-419.04005	-455.6552	-113.10013	95.19939	0
697	56.9569	75.67131	19.52808	-74.85764	16.2734	55.32956	4.06835	-292.10753	-419.04005	-455.6552	-113.10013	95.19939	0
698	56.9569	75.67131	8.95037	-74.85764	16.2734	55.32956	4.06835	-302.68524	-419.04005	-455.6552	-113.10013	74.04397	0
699	56.9569	75.67131	8.95037	-74.85764	37.42882	44.75185	-6.50936	-302.68524	-429.61776	-455.6552	-113.10013	74.04397	0
700	56.9569	64.27993	8.95037	-64.27993	37.42882	34.17414	-6.50936	-302.68524	-429.61776	-455.6552	-113.10013	74.04397	0
701	56.9569	53.70222	-1.62734	-64.27993	37.42882	34.17414	-6.50936	-292.10753	-407.64867	-455.6552	-91.13104	74.04397	0
702	56.9569	53.70222	-1.62734	-64.27993	37.42882	34.17414	-17.08707	-292.10753	-407.64867	-433.68611	-91.13104	74.04397	0
703	56.9569	53.70222	-1.62734	-53.70222	26.85111	23.59643	-17.08707	-281.52982	-407.64867	-433.68611	-91.13104	74.04397	0
704	35.80148	32.5468	-12.20505	-32.5468	26.85111	13.01872	-17.08707	-281.52982	-397.07096	-455.6552	-113.10013	63.46626	0
705	13.83239	11.39138	-12.20505	-10.57771	16.2734	1.62734	-17.08707	-302.68524	-397.07096	-466.23291	-123.67784	41.49717	0
706	13.83239	-10.57771	-12.20505	-10.57771	5.69569	-8.95037	-28.47845	-314.07662	-429.61776	-476.81062	-134.25555	30.91946	0
707	3.25468	-10.57771	-12.20505	0	5.69569	-8.95037	-28.47845	-324.65433	-440.19547	-487.38833	-144.83326	20.34175	0
708	3.25468	-10.57771	-12.20505	10.57771	-5.69569	-8.95037	-39.05616	-324.65433	-450.77318	-487.38833	-156.22464	9.76404	0
709	-7.32303	-21.15542	-23.59643	10.57771	-5.69569	-19.52808	-39.05616	-335.23204	-461.35089	-509.35742	-166.80235	-1.62734	0
710	-7.32303	-31.73313	-34.17414	21.15542	-5.69569	-30.10579	-39.05616	-335.23204	-472.74227	-519.93513	-177.38006	-12.20505	0
711	-7.32303	-42.31084	-34.17414	21.15542	-5.69569	-40.6835	-39.05616	-335.23204	-472.74227	-519.93513	-177.38006	-12.20505	0
712	3.25468	-42.31084	-34.17414	21.15542	16.2734	-40.6835	-39.05616	-335.23204	-472.74227	-519.93513	-187.95777	-12.20505	0
713	3.25468	-42.31084	-34.17414	21.15542	16.2734	-40.6835	-39.05616	-335.23204	-472.74227	-519.93513	-198.53548	-12.20505	0
714	13.83239	-42.31084	-34.17414	10.57771	16.2734	-40.6835	-39.05616	-335.23204	-472.74227	-487.38833	-198.53548	-12.20505	0
715	13.83239	-42.31084	-44.75185	0	16.2734	-30.10579	-39.05616	-324.65433	-472.74227	-487.38833	-198.53548	-12.20505	0
716	13.83239	-42.31084	-44.75185	0	26.85111	-30.10579	-39.05616	-335.23204	-472.74227	-487.38833	-198.53548	-12.20505	0
717	13.83239	-42.31084	-44.75185	21.15542	26.85111	-40.6835	-39.05616	-335.23204	-472.74227	-487.38833	-198.53548	-12.20505	0
718	13.83239	-42.31084	-44.75185	21.15542	26.85111	-40.6835	-39.05616	-335.23204	-450.77318	-487.38833	-198.53548	-12.20505	0
719	24.4101	-42.31084	-55.32956	0	37.42882	-40.6835	-39.05616	-335.23204	-450.77318	-487.38833	-198.53548	-12.20505	0
720	35.80148	-42.31084	-65.90727	0	48.00653	-51.26121	-39.05616	-335.23204	-450.77318	-487.38833	-187.95777	-12.20505	0
721	35.80148	-42.31084	-65.90727	0	48.00653	-62.65259	-39.05616	-335.23204	-440.19547	-487.38833	-187.95777	-12.20505	0
722	35.80148	-42.31084	-65.90727	0	48.00653	-62.65259	-17.08707	-324.65433	-429.61776	-487.38833	-177.38006	-12.20505	0
723	13.83239	-42.31084	-65.90727	0	48.00653	-62.65259	-17.08707	-314.07662	-429.61776	-487.38833	-177.38006	-12.20505	0
724	35.80148	-42.31084	-55.32956	-10.57771	37.42882	-40.6835	-6.50936	-314.07662	-429.61776	-476.81062	-177.38006	-1.62734	0
725	35.80148	-31.73313	-55.32956	-10.57771	48.00653	-40.6835	4.06835	-314.07662	-429.61776	-476.81062	-166.80235	-1.62734	0
726	-39.86983	-31.73313	-1.62734	43.12451	-16.2734	-30.10579	4.06835	-302.68524	-419.04005	-455.6552	-166.80235	-1.62734	0
727	-61.02525	-42.31084	8.95037	43.12451	-37.42882	-19.52808	-17.08707	-292.10753	-407.64867	-444.26382	-156.22464	-1.62734	0
728	-82.18067	-64.27993	19.52808	64.27993	-58.58424	-8.95037	-28.47845	-281.52982	-407.64867	-444.26382	-156.22464	9.76404	0
729	-104.14976	-64.27993	30.10579	74.85764	-58.58424	-8.95037	-39.05616	-281.52982	-407.64867	-444.26382	-156.22464	9.76404	0
730	-104.14976	-74.85764	41.49717	85.43535	-69.97562	-8.95037	-39.05616	-281.52982	-407.64867	-444.26382	-156.22464	9.76404	0
731	-114.72747	-74.85764	52.07488	85.43535	-91.13104	1.62734	-39.05616	-281.52982	-386.49325	-391.37527	-102.52242	52.07488	0
732	-114.72747	-21.15542	62.65259	43.12451	-91.13104	13.01872	-60.21158	-302.68524	-365.33783	-369.40618	-91.13104	63.46626	0
733	-114.72747	-10.57771	83.80801	31.73313	-91.13104	23.59643	-70.78929	-335.23204	-343.36874	-337.67305	-69.97562	74.04397	0
734	-82.18067	-10.57771	94.38572	31.73313	-101.70875	34.17414	-81.367	-399.51197	-343.36874	-305.12625	-48.8202	95.19939	0
735	-82.18067	-10.57771	94.38572	31.73313	-112.28646	44.75185	-103.33609	-484.94732	-332.79103	-273.39312	-38.24249	105.7771	0
736	-114.72747	-10.57771	94.38572	31.73313	-112.28646	44.75185	-113.9138	-571.19634	-322.21332	-262.00174	-26.85111	116.35481	0
737	-125.30518	-42.31084	94.38572	74.85764	-112.28646	13.01872	-178.19373	-742.88071	-375.91554	-251.42403	4.88202	138.3239	0
738	-82.18067	-52.88855	41.49717	74.85764	-58.58424	1.62734	-210.74053	-796.58293	-407.64867	-251.42403	26.03744	159.47932	0
739	-39.86983	-52.88855	-1.62734	43.12451	-16.2734	-19.52808	-253.05137	-849.47148	-472.74227	-251.42403	26.03744	170.05703	0
740	-7.32303	-52.88855	-34.17414	31.73313	16.2734	-30.10579	-285.59817	-913.75141	-558.17762	-327.09534	26.03744	180.63474	0
741	13.83239	-52.88855	-65.90727	10.57771	37.42882	-51.26121	-328.72268	-1010.57814	-697.31519	-401.95298	-16.2734	180.63474	0
742	35.80148	-96.01306	-119.60949	0	69.97562	-104.96343	-393.00261	-1257.12015	-1094.38615	-626.5259	-113.10013	180.63474	0
743	46.37919	-106.59077	-152.15629	0	91.13104	-126.93252	-393.00261	-1353.94688	-1254.67914	-712.77492	-134.25555	148.90161	0
744	100.08141	-106.59077	-173.31171	-10.57771	134.25555	-126.93252	-435.31345	-1460.53765	-1405.20809	-798.21027	-156.22464	148.90161	0
745	164.36134	-21.15542	-183.88942	-74.85764	176.56639	-126.93252	-510.17109	-1641.98606	-1586.6565	-873.06791	-166.80235	192.02612	0
746	218.06356	64.27993	-194.46713	-139.13757	187.95777	-51.26121	-575.26469	-1835.63952	-1725.79407	-926.77013	-177.38006	234.33696	0
747	271.76578	139.95124	-194.46713	-203.4175	187.95777	13.01872	-628.15324	-1995.93251	-1833.19851	-948.73922	-177.38006	298.61689	0
748	336.04571	225.38659	-87.87636	-279.08881	230.26861	65.90727	-789.2599	-2167.61688	-1908.05615	-991.05006	-102.52242	384.86591	0
749	346.62342	235.9643	-227.01393	-289.66652	273.39312	65.90727	-821.8067	-2178.19459	-1918.63386	-1087.87679	-262.81541	395.44362	0
750	346.62342	-96.01306	-366.1515	-96.82673	316.51763	-233.52329	-832.38441	-2178.19459	-1918.63386	-1237.59207	-488.202	52.07488	0
751	164.36134	-278.27514	-430.43143	53.70222	327.09534	-351.50544	-832.38441	-1771.35959	-1918.63386	-1377.54331	-681.04179	-130.1872	0
752	-39.86983	-385.67958	-452.40052	213.99521	165.98868	-405.20766	-832.38441	-1695.68828	-1811.22942	-1472.7427	-820.17936	-279.90248	0
753	-350.69177	-417.41271	-76.48498	375.10187	-144.83326	-415.78537	-724.97997	-1663.95515	-1800.65171	-1526.44492	-927.5838	-430.43143	0
754	-457.28254	-439.3818	8.95037	449.95951	-240.84632	-415.78537	-671.27775	-1631.40835	-1779.49629	-1537.02263	-949.55289	-494.71136	0
755	-500.40705	-481.69264	19.52808	482.50631	-262.81541	-212.36787	-628.15324	-1535.39529	-1694.06094	-1537.02263	-970.70831	-547.59991	0
756	-510.98476	-514.23944	30.10579	503.66173	-273.39312	-212.36787	-596.42011	-1364.52459	-1543.53199	-1537.02263	-981.28602	-590.72442	0
757	-510.98476	-524.81715	30.10579	514.23944	-273.39312	-212.36787	-563.87331	-1235.96473	-1415.7858	-1419.85415	-991.86373	-601.30213	0
758	-510.98476	-535.39486	30.10579	514.23944	-273.39312	-287.22551	-532.14018	-1117.98258	-1287.22594	-1323.84109	-906.42838	-601.30213	0
759	-510.98476	-535.39486	-87.87636	514.23944	-165.98868	-287.22551	-467.86025	-946.29821	-1040.68393	-1077.29908	-745.32172	-601.30213	0
760	-382.4249	-471.11493	-98.45407	439.3818	-155.41097	-287.22551	-424.73574	-860.86286	-933.27949	-948.73922	-659.88637	-397.88463	0
761	-328.72268	-406.835	-98.45407	364.52416	-134.25555	-233.52329	-360.45581	-774.61384	-825.87505	-820.17936	-563.05964	-312.44928	0
762	-264.44275	-331.97736	-98.45407	300.24423	-112.28646	-191.21245	-285.59817	-656.63169	-707.8929	-680.22812	-455.6552	-236.77797	0
763	-200.16282	-257.11972	-55.32956	225.38659	-80.55333	-158.66565	-199.34915	-484.94732	-568.75533	-551.66826	-338.48672	-161.92033	0
764	-125.30518	-170.8707	-55.32956	149.71528	-48.00653	-116.35481	-81.367	-185.51676	-290.48019	-379.98389	-198.53548	-43.93818	0
765	-92.75838	-139.13757	-44.75185	107.40444	-37.42882	-94.38572	-28.47845	-67.53461	-183.07575	-327.09534	-144.83326	-12.20505	0
766	-82.18067	-117.98215	-34.17414	96.01306	-26.85111	-83.80801	-6.50936	18.71441	-96.82673	-305.12625	-123.67784	-1.62734	0
767	-82.18067	-96.01306	-23.59643	85.43535	-26.85111	-51.26121	35.80148	104.14976	-21.96909	-262.00174	-102.52242	9.76404	0
768	-71.60296	-64.27993	-1.62734	74.85764	-26.85111	-40.6835	68.34828	147.27427	21.15542	-240.84632	-91.13104	20.34175	0
769	-61.02525	-52.88855	8.95037	64.27993	-26.85111	-19.52808	89.5037	179.0074	63.46626	-209.11319	-91.13104	30.91946	0
770	-61.02525	-31.73313	52.07488	53.70222	-58.58424	13.01872	132.62821	232.70962	117.16848	-112.28646	-48.8202	52.07488	0
771	-61.02525	-10.57771	73.2303	43.12451	-69.97562	23.59643	153.78363	275.83413	138.3239	-69.16195	-26.85111	63.46626	0
772	-82.18067	0	83.80801	31.73313	-80.55333	34.17414	153.78363	308.38093	170.8707	-26.85111	-5.69569	84.62168	0
773	-82.18067	11.39138	83.80801	31.73313	-80.55333	34.17414	165.17501	350.69177	192.02612	-15.45973	15.45973	105.7771	0
774	-61.02525	11.39138	83.80801	31.73313	-80.55333	34.17414	165.17501	404.39399	245.72834	5.69569	26.03744	116.35481	0
775	-39.86983	11.39138	52.07488	10.57771	-48.00653	34.17414	186.33043	468.67392	299.43056	26.85111	48.00653	127.74619	0
776	-28.47845	11.39138	41.49717	10.57771	-37.42882	34.17414	186.33043	479.25163	320.58598	26.85111	48.00653	127.74619	0
777	-28.47845	-10.57771	41.49717	10.57771	-37.42882	13.01872	196.90814	490.64301	331.97736	26.85111	48.00653	127.74619	0
778	-28.47845	-21.15542	30.10579	43.12451	-37.42882	1.62734	207.48585	490.64301	342.55507	-4.88202	26.03744	105.7771	0
779	-28.47845	-21.15542	30.10579	43.12451	-48.00653	1.62734	207.48585	490.64301	342.55507	-4.88202	26.03744	105.7771	0
780	-28.47845	-21.15542	30.10579	10.57771	-37.42882	1.62734	218.06356	490.64301	342.55507	-4.88202	26.03744	105.7771	0
781	-28.47845	11.39138	30.10579	10.57771	-37.42882	13.01872	240.03265	490.64301	342.55507	48.8202	26.03744	105.7771	0
782	-28.47845	11.39138	30.10579	10.57771	-37.42882	13.01872	240.03265	501.22072	353.13278	59.39791	37.42882	127.74619	0
783	-28.47845	11.39138	30.10579	10.57771	-37.42882	23.59643	207.48585	522.37614	363.71049	80.55333	48.00653	127.74619	0
784	-28.47845	11.39138	30.10579	10.57771	-37.42882	23.59643	207.48585	532.95385	363.71049	91.13104	58.58424	138.3239	0
785	-28.47845	11.39138	30.10579	10.57771	-48.00653	23.59643	207.48585	543.53156	374.2882	91.13104	58.58424	148.90161	0
786	-28.47845	-10.57771	30.10579	21.15542	-48.00653	13.01872	196.90814	554.92294	385.67958	91.13104	69.16195	148.90161	0
787	-28.47845	-10.57771	19.52808	21.15542	-48.00653	1.62734	196.90814	565.50065	396.25729	91.13104	69.16195	148.90161	0
788	-28.47845	-21.15542	19.52808	31.73313	-37.42882	-8.95037	196.90814	565.50065	406.835	91.13104	48.00653	127.74619	0
789	-17.90074	21.96909	19.52808	-10.57771	-37.42882	-8.95037	218.06356	576.07836	417.41271	91.13104	48.00653	127.74619	0
790	-7.32303	43.12451	19.52808	-21.15542	-26.85111	34.17414	229.45494	586.65607	417.41271	101.70875	69.16195	148.90161	0
791	3.25468	53.70222	19.52808	-32.5468	-16.2734	44.75185	229.45494	597.23378	427.99042	113.10013	79.73966	159.47932	0
792	13.83239	64.27993	41.49717	-32.5468	-16.2734	55.32956	240.03265	619.20287	449.95951	134.25555	79.73966	170.05703	0
793	13.83239	64.27993	41.49717	-32.5468	-16.2734	55.32956	240.03265	629.78058	460.53722	134.25555	79.73966	170.05703	0
794	3.25468	32.5468	30.10579	-21.15542	-16.2734	34.17414	240.03265	640.35829	471.11493	134.25555	79.73966	180.63474	0
795	-7.32303	21.96909	30.10579	-10.57771	-16.2734	34.17414	240.03265	640.35829	471.11493	134.25555	79.73966	180.63474	0
796	-28.47845	11.39138	30.10579	0	-37.42882	23.59643	240.03265	650.936	471.11493	134.25555	79.73966	180.63474	0
797	-39.86983	0	30.10579	21.15542	-48.00653	23.59643	250.61036	672.09142	492.27035	113.10013	79.73966	148.90161	0
798	35.80148	64.27993	30.10579	-53.70222	-5.69569	55.32956	261.18807	683.4828	514.23944	144.83326	91.13104	148.90161	0
799	46.37919	86.24902	41.49717	-74.85764	5.69569	65.90727	271.76578	694.06051	535.39486	144.83326	101.70875	170.05703	0
800	56.9569	96.82673	41.49717	-85.43535	16.2734	65.90727	271.76578	694.06051	535.39486	155.41097	101.70875	180.63474	0
801	56.9569	96.82673	41.49717	-85.43535	16.2734	65.90727	282.34349	704.63822	545.97257	155.41097	101.70875	180.63474	0
802	56.9569	96.82673	52.07488	-85.43535	16.2734	65.90727	282.34349	715.21593	545.97257	166.80235	101.70875	180.63474	0
803	13.83239	53.70222	52.07488	-32.5468	-16.2734	65.90727	282.34349	737.18502	556.55028	177.38006	101.70875	180.63474	0
804	13.83239	53.70222	52.07488	-32.5468	-16.2734	65.90727	282.34349	747.76273	556.55028	187.95777	101.70875	180.63474	0
805	13.83239	53.70222	52.07488	-32.5468	-16.2734	65.90727	293.73487	747.76273	567.94166	198.53548	112.28646	180.63474	0
806	35.80148	75.67131	52.07488	-53.70222	-5.69569	65.90727	271.76578	758.34044	578.51937	198.53548	112.28646	170.05703	0
807	35.80148	86.24902	41.49717	-64.27993	5.69569	65.90727	271.76578	758.34044	589.09708	198.53548	112.28646	170.05703	0
808	35.80148	86.24902	41.49717	-64.27993	5.69569	65.90727	271.76578	758.34044	599.67479	209.11319	122.86417	159.47932	0
809	35.80148	75.67131	41.49717	-53.70222	5.69569	65.90727	271.76578	758.34044	599.67479	209.11319	122.86417	159.47932	0
810	13.83239	53.70222	41.49717	-43.12451	5.69569	55.32956	304.31258	779.49586	599.67479	209.11319	122.86417	159.47932	0
811	13.83239	53.70222	41.49717	-32.5468	-16.2734	55.32956	314.89029	790.07357	620.83021	219.6909	122.86417	159.47932	0
812	13.83239	53.70222	41.49717	-32.5468	-16.2734	55.32956	325.468	801.46495	632.22159	231.08228	133.44188	159.47932	0
813	13.83239	53.70222	41.49717	-32.5468	-16.2734	55.32956	325.468	812.04266	642.7993	241.65999	144.01959	159.47932	0
814	13.83239	53.70222	41.49717	-53.70222	-5.69569	55.32956	325.468	833.19808	663.95472	262.81541	144.01959	192.02612	0
815	35.80148	64.27993	30.10579	-53.70222	5.69569	55.32956	304.31258	833.19808	663.95472	262.81541	144.01959	192.02612	0
816	35.80148	64.27993	30.10579	-53.70222	5.69569	55.32956	293.73487	833.19808	674.53243	262.81541	122.86417	192.02612	0
817	35.80148	64.27993	30.10579	-53.70222	5.69569	55.32956	293.73487	843.77579	685.11014	262.81541	122.86417	180.63474	0
818	35.80148	75.67131	30.10579	-53.70222	5.69569	55.32956	325.468	854.3535	696.50152	262.81541	122.86417	180.63474	0
819	35.80148	86.24902	30.10579	-64.27993	5.69569	55.32956	325.468	865.74488	717.65694	283.97083	144.01959	180.63474	0
820	13.83239	86.24902	30.10579	-43.12451	5.69569	55.32956	304.31258	876.32259	728.23465	283.97083	144.01959	180.63474	0
821	13.83239	53.70222	41.49717	-32.5468	-16.2734	55.32956	304.31258	886.9003	738.81236	295.36221	144.01959	192.02612	0
822	3.25468	53.70222	41.49717	-21.15542	-16.2734	55.32956	304.31258	897.47801	749.39007	305.93992	144.01959	192.02612	0
823	3.25468	53.70222	52.07488	-21.15542	-26.85111	55.32956	325.468	908.05572	760.78145	316.51763	144.01959	192.02612	0
824	3.25468	53.70222	52.07488	-21.15542	-26.85111	55.32956	325.468	919.4471	771.35916	327.09534	155.41097	192.02612	0
825	35.80148	75.67131	52.07488	-53.70222	-5.69569	55.32956	347.43709	940.60252	781.93687	337.67305	165.98868	202.60383	0
826	35.80148	75.67131	52.07488	-53.70222	-5.69569	55.32956	347.43709	940.60252	781.93687	337.67305	165.98868	202.60383	0
827	35.80148	75.67131	52.07488	-64.27993	5.69569	55.32956	347.43709	951.18023	792.51458	337.67305	165.98868	202.60383	0
828	46.37919	96.82673	41.49717	-74.85764	5.69569	55.32956	358.0148	951.18023	792.51458	359.64214	165.98868	192.02612	0
829	67.53461	117.98215	41.49717	-85.43535	16.2734	77.29865	358.0148	961.75794	792.51458	370.21985	176.56639	202.60383	0
830	89.5037	129.37353	41.49717	-107.40444	16.2734	87.87636	358.0148	972.33565	825.06138	380.79756	187.1441	223.75925	0
831	89.5037	129.37353	41.49717	-107.40444	16.2734	87.87636	336.04571	983.72703	835.63909	380.79756	197.72181	223.75925	0
832	89.5037	129.37353	41.49717	-107.40444	16.2734	87.87636	358.0148	994.30474	835.63909	380.79756	197.72181	223.75925	0
833	78.11232	129.37353	41.49717	-96.82673	16.2734	77.29865	368.59251	994.30474	835.63909	391.37527	197.72181	223.75925	0
834	67.53461	107.40444	41.49717	-85.43535	5.69569	77.29865	379.17022	1004.88245	835.63909	391.37527	197.72181	213.18154	0
835	67.53461	107.40444	41.49717	-74.85764	5.69569	77.29865	389.74793	1015.46016	835.63909	401.95298	197.72181	213.18154	0
836	89.5037	129.37353	41.49717	-107.40444	5.69569	87.87636	389.74793	1026.03787	835.63909	401.95298	197.72181	234.33696	0
837	46.37919	129.37353	52.07488	-107.40444	-5.69569	87.87636	347.43709	1026.03787	835.63909	401.95298	197.72181	234.33696	0
838	35.80148	96.82673	52.07488	-107.40444	-5.69569	65.90727	336.04571	1026.03787	835.63909	391.37527	176.56639	213.18154	0
839	35.80148	86.24902	52.07488	-64.27993	-5.69569	65.90727	325.468	1004.88245	825.06138	380.79756	165.98868	202.60383	0
840	35.80148	86.24902	52.07488	-64.27993	-5.69569	65.90727	325.468	1004.88245	825.06138	380.79756	165.98868	202.60383	0
841	89.5037	139.95124	52.07488	-107.40444	-5.69569	98.45407	368.59251	1036.61558	846.2168	413.34436	165.98868	202.60383	0
842	89.5037	150.52895	52.07488	-117.98215	26.85111	109.03178	379.17022	1036.61558	814.48367	413.34436	197.72181	202.60383	0
843	100.08141	150.52895	52.07488	-117.98215	26.85111	109.03178	379.17022	994.30474	781.93687	413.34436	197.72181	202.60383	0
844	100.08141	150.52895	30.10579	-117.98215	26.85111	109.03178	379.17022	983.72703	771.35916	413.34436	165.98868	202.60383	0
845	56.9569	150.52895	30.10579	-74.85764	-5.69569	65.90727	347.43709	972.33565	760.78145	413.34436	165.98868	202.60383	0
846	46.37919	96.82673	30.10579	-74.85764	-5.69569	65.90727	347.43709	961.75794	760.78145	380.79756	165.98868	202.60383	0
847	35.80148	96.82673	52.07488	-64.27993	-5.69569	65.90727	368.59251	951.18023	760.78145	370.21985	165.98868	223.75925	0
848	89.5037	150.52895	52.07488	-128.55986	-5.69569	98.45407	379.17022	951.18023	760.78145	370.21985	165.98868	223.75925	0
849	100.08141	161.10666	52.07488	-139.13757	26.85111	109.03178	379.17022	940.60252	749.39007	370.21985	165.98868	223.75925	0
850	110.65912	161.10666	52.07488	-139.13757	26.85111	109.03178	379.17022	919.4471	728.23465	370.21985	155.41097	202.60383	0
851	110.65912	161.10666	41.49717	-139.13757	26.85111	109.03178	379.17022	919.4471	717.65694	359.64214	144.01959	202.60383	0
852	110.65912	161.10666	62.65259	-139.13757	26.85111	109.03178	336.04571	876.32259	685.11014	349.06443	133.44188	192.02612	0
853	78.11232	129.37353	62.65259	-107.40444	5.69569	109.03178	336.04571	854.3535	653.37701	337.67305	133.44188	192.02612	0
854	78.11232	129.37353	62.65259	-107.40444	5.69569	109.03178	325.468	833.19808	642.7993	327.09534	133.44188	192.02612	0
855	78.11232	129.37353	62.65259	-107.40444	5.69569	109.03178	325.468	801.46495	642.7993	327.09534	133.44188	192.02612	0
856	78.11232	150.52895	62.65259	-107.40444	5.69569	109.03178	314.89029	790.07357	620.83021	327.09534	122.86417	192.02612	0
857	78.11232	150.52895	62.65259	-107.40444	5.69569	109.03178	314.89029	768.91815	599.67479	316.51763	122.86417	202.60383	0
858	78.11232	150.52895	52.07488	-107.40444	5.69569	109.03178	304.31258	737.18502	545.97257	295.36221	101.70875	192.02612	0
859	67.53461	129.37353	73.2303	-96.82673	-5.69569	98.45407	293.73487	704.63822	524.81715	283.97083	91.13104	180.63474	0
860	67.53461	129.37353	73.2303	-96.82673	-5.69569	98.45407	293.73487	683.4828	524.81715	273.39312	79.73966	180.63474	0
861	67.53461	129.37353	73.2303	-96.82673	-5.69569	98.45407	293.73487	650.936	492.27035	262.81541	79.73966	180.63474	0
862	67.53461	129.37353	73.2303	-96.82673	-5.69569	98.45407	314.89029	629.78058	471.11493	252.2377	79.73966	180.63474	0
863	89.5037	161.10666	73.2303	-117.98215	-5.69569	119.60949	250.61036	565.50065	417.41271	241.65999	69.16195	159.47932	0
864	89.5037	161.10666	73.2303	-117.98215	-5.69569	119.60949	229.45494	522.37614	385.67958	219.6909	69.16195	159.47932	0
865	89.5037	129.37353	52.07488	-96.82673	16.2734	98.45407	207.48585	479.25163	342.55507	198.53548	48.00653	148.90161	0
866	67.53461	129.37353	52.07488	-96.82673	-5.69569	98.45407	196.90814	447.5185	310.00827	187.95777	37.42882	138.3239	0
867	56.9569	117.98215	52.07488	-85.43535	-5.69569	98.45407	196.90814	414.9717	288.85285	177.38006	26.03744	127.74619	0
868	46.37919	107.40444	62.65259	-74.85764	-5.69569	98.45407	196.90814	393.81628	267.69743	155.41097	15.45973	127.74619	0
869	46.37919	107.40444	73.2303	-74.85764	-5.69569	98.45407	196.90814	340.11406	224.57292	134.25555	4.88202	127.74619	0
870	67.53461	107.40444	73.2303	-96.82673	-5.69569	98.45407	196.90814	308.38093	213.99521	123.67784	4.88202	127.74619	0
871	35.80148	107.40444	73.2303	-96.82673	-5.69569	87.87636	175.75272	286.41184	181.44841	113.10013	4.88202	127.74619	0
872	24.4101	107.40444	73.2303	-96.82673	-16.2734	87.87636	153.78363	243.28733	149.71528	101.70875	-5.69569	116.35481	0
873	24.4101	96.82673	73.2303	-64.27993	-16.2734	87.87636	143.20592	222.13191	117.16848	91.13104	-5.69569	116.35481	0
874	67.53461	96.82673	73.2303	-96.82673	-16.2734	109.03178	132.62821	179.0074	74.04397	69.97562	-5.69569	105.7771	0
875	67.53461	129.37353	73.2303	-96.82673	-16.2734	109.03178	132.62821	136.69656	52.88855	59.39791	-16.2734	105.7771	0
876	67.53461	129.37353	73.2303	-96.82673	-5.69569	109.03178	111.47279	93.57205	21.15542	37.42882	-38.24249	105.7771	0
877	24.4101	129.37353	73.2303	-96.82673	-16.2734	98.45407	100.89508	72.41663	-0.81367	26.85111	-48.8202	95.19939	0
878	13.83239	96.82673	83.80801	-64.27993	-26.85111	87.87636	89.5037	39.86983	-11.39138	16.2734	-48.8202	95.19939	0
879	13.83239	96.82673	83.80801	-64.27993	-26.85111	87.87636	78.92599	8.1367	-21.96909	5.69569	-48.8202	95.19939	0
880	67.53461	96.82673	62.65259	-96.82673	5.69569	87.87636	78.92599	-24.4101	-65.0936	-26.85111	-59.39791	95.19939	0
881	67.53461	129.37353	52.07488	-96.82673	5.69569	87.87636	78.92599	-34.98781	-75.67131	-26.85111	-59.39791	95.19939	0
882	67.53461	129.37353	52.07488	-96.82673	5.69569	87.87636	78.92599	-56.14323	-96.82673	-37.42882	-69.97562	95.19939	0
883	24.4101	96.82673	52.07488	-64.27993	5.69569	87.87636	100.89508	-78.11232	-129.37353	-48.00653	-38.24249	84.62168	0
884	24.4101	86.24902	73.2303	-64.27993	-16.2734	77.29865	111.47279	-88.69003	-150.52895	-58.58424	-16.2734	84.62168	0
885	13.83239	64.27993	52.07488	-32.5468	-26.85111	55.32956	111.47279	-131.81454	-183.07575	-79.73966	26.03744	52.07488	0
886	3.25468	53.70222	52.07488	-32.5468	-26.85111	55.32956	57.77057	-152.96996	-183.07575	-79.73966	26.03744	52.07488	0
887	-7.32303	53.70222	73.2303	-21.15542	-37.42882	55.32956	47.19286	-163.54767	-193.65346	-91.13104	37.42882	52.07488	0
888	-7.32303	53.70222	73.2303	-21.15542	-37.42882	55.32956	47.19286	-174.12538	-193.65346	-91.13104	37.42882	52.07488	0
889	-7.32303	53.70222	73.2303	-21.15542	-37.42882	55.32956	25.22377	-185.51676	-204.23117	-101.70875	37.42882	41.49717	0
890	3.25468	53.70222	52.07488	-21.15542	-37.42882	55.32956	14.64606	-196.09447	-214.80888	-101.70875	37.42882	41.49717	0
891	-17.90074	32.5468	52.07488	-10.57771	-37.42882	44.75185	4.06835	-206.67218	-236.77797	-101.70875	37.42882	41.49717	0
892	13.83239	32.5468	52.07488	-10.57771	-16.2734	44.75185	4.06835	-206.67218	-236.77797	-101.70875	48.00653	41.49717	0
893	13.83239	32.5468	52.07488	-43.12451	-16.2734	65.90727	4.06835	-206.67218	-247.35568	-101.70875	58.58424	41.49717	0
894	13.83239	64.27993	52.07488	-43.12451	-16.2734	65.90727	4.06835	-206.67218	-247.35568	-91.13104	69.16195	63.46626	0
895	13.83239	64.27993	62.65259	-43.12451	-16.2734	65.90727	25.22377	-206.67218	-247.35568	-91.13104	69.16195	63.46626	0
896	-7.32303	64.27993	62.65259	-21.15542	-37.42882	65.90727	25.22377	-227.8276	-247.35568	-91.13104	69.16195	30.91946	0
897	-39.86983	32.5468	62.65259	0	-48.00653	65.90727	25.22377	-238.40531	-247.35568	-112.28646	26.03744	20.34175	0
898	-39.86983	21.96909	62.65259	10.57771	-58.58424	44.75185	25.22377	-249.79669	-247.35568	-122.86417	15.45973	9.76404	0
899	-50.44754	11.39138	73.2303	21.15542	-58.58424	44.75185	25.22377	-260.3744	-257.93339	-122.86417	15.45973	9.76404	0
900	-50.44754	11.39138	73.2303	21.15542	-58.58424	44.75185	4.06835	-260.3744	-257.93339	-122.86417	15.45973	9.76404	0
901	-50.44754	11.39138	73.2303	21.15542	-58.58424	44.75185	4.06835	-260.3744	-257.93339	-101.70875	15.45973	9.76404	0
902	-7.32303	53.70222	62.65259	-32.5468	-37.42882	65.90727	4.06835	-260.3744	-236.77797	-91.13104	37.42882	30.91946	0
903	-7.32303	53.70222	62.65259	-32.5468	-37.42882	65.90727	4.06835	-238.40531	-236.77797	-91.13104	48.00653	30.91946	0
904	-7.32303	53.70222	62.65259	-32.5468	-37.42882	65.90727	25.22377	-238.40531	-225.38659	-91.13104	48.00653	41.49717	0
905	-7.32303	53.70222	62.65259	-32.5468	-37.42882	65.90727	25.22377	-238.40531	-225.38659	-91.13104	48.00653	41.49717	0
906	3.25468	64.27993	62.65259	-32.5468	-26.85111	65.90727	25.22377	-238.40531	-225.38659	-91.13104	37.42882	41.49717	0
907	13.83239	64.27993	52.07488	-32.5468	-16.2734	65.90727	4.06835	-238.40531	-225.38659	-91.13104	37.42882	41.49717	0
908	13.83239	64.27993	52.07488	-32.5468	-16.2734	65.90727	4.06835	-227.8276	-225.38659	-91.13104	37.42882	30.91946	0
909	13.83239	64.27993	52.07488	-32.5468	-16.2734	65.90727	4.06835	-227.8276	-225.38659	-91.13104	37.42882	30.91946	0
910	13.83239	64.27993	52.07488	-32.5468	-16.2734	65.90727	4.06835	-227.8276	-225.38659	-91.13104	37.42882	30.91946	0
911	13.83239	64.27993	52.07488	-32.5468	-16.2734	65.90727	4.06835	-227.8276	-225.38659	-79.73966	48.00653	30.91946	0
912	13.83239	64.27993	52.07488	-32.5468	-16.2734	65.90727	14.64606	-217.24989	-225.38659	-79.73966	58.58424	30.91946	0
913	13.83239	64.27993	41.49717	-32.5468	-37.42882	65.90727	14.64606	-217.24989	-214.80888	-79.73966	58.58424	30.91946	0
914	-39.86983	32.5468	62.65259	-10.57771	-48.00653	65.90727	14.64606	-227.8276	-214.80888	-69.16195	58.58424	30.91946	0
915	-39.86983	21.96909	73.2303	10.57771	-58.58424	65.90727	14.64606	-249.79669	-214.80888	-69.16195	48.00653	30.91946	0
916	-50.44754	11.39138	73.2303	21.15542	-58.58424	44.75185	14.64606	-260.3744	-236.77797	-91.13104	37.42882	20.34175	0
917	-50.44754	11.39138	73.2303	21.15542	-58.58424	44.75185	14.64606	-260.3744	-236.77797	-91.13104	37.42882	20.34175	0
918	-7.32303	64.27993	73.2303	-32.5468	-58.58424	65.90727	4.06835	-260.3744	-236.77797	-91.13104	37.42882	9.76404	0
919	-7.32303	64.27993	52.07488	-32.5468	-37.42882	65.90727	4.06835	-260.3744	-236.77797	-91.13104	37.42882	9.76404	0
920	-7.32303	21.96909	52.07488	-32.5468	-37.42882	65.90727	-6.50936	-270.95211	-236.77797	-91.13104	26.03744	-1.62734	0
921	-7.32303	21.96909	52.07488	10.57771	-58.58424	44.75185	-6.50936	-270.95211	-236.77797	-91.13104	26.03744	-1.62734	0
922	-7.32303	21.96909	52.07488	10.57771	-58.58424	44.75185	-6.50936	-270.95211	-236.77797	-69.16195	26.03744	20.34175	0
923	3.25468	64.27993	52.07488	-32.5468	-26.85111	65.90727	-6.50936	-270.95211	-214.80888	-69.16195	48.00653	30.91946	0
924	13.83239	64.27993	52.07488	-32.5468	-16.2734	65.90727	-6.50936	-238.40531	-214.80888	-48.00653	69.16195	41.49717	0
925	13.83239	64.27993	52.07488	-32.5468	-16.2734	65.90727	-17.08707	-238.40531	-214.80888	-48.00653	69.16195	41.49717	0
926	13.83239	64.27993	73.2303	-32.5468	-37.42882	65.90727	-17.08707	-238.40531	-214.80888	-48.00653	69.16195	41.49717	0
927	13.83239	64.27993	73.2303	-32.5468	-37.42882	65.90727	-17.08707	-238.40531	-214.80888	-48.00653	69.16195	30.91946	0
928	-17.90074	64.27993	73.2303	-21.15542	-48.00653	65.90727	4.06835	-227.8276	-204.23117	-37.42882	69.16195	30.91946	0
929	-39.86983	43.12451	83.80801	-10.57771	-58.58424	65.90727	-28.47845	-227.8276	-204.23117	-37.42882	48.00653	20.34175	0
930	-50.44754	32.5468	83.80801	10.57771	-58.58424	65.90727	-39.05616	-227.8276	-204.23117	-37.42882	48.00653	20.34175	0
931	-61.02525	21.96909	83.80801	21.15542	-69.97562	44.75185	-39.05616	-227.8276	-214.80888	-37.42882	48.00653	20.34175	0
932	-71.60296	11.39138	83.80801	31.73313	-69.97562	44.75185	-39.05616	-249.79669	-225.38659	-58.58424	48.00653	20.34175	0
933	-71.60296	11.39138	83.80801	31.73313	-69.97562	44.75185	-39.05616	-249.79669	-225.38659	-58.58424	48.00653	20.34175	0
934	-71.60296	11.39138	83.80801	31.73313	-48.00653	44.75185	-39.05616	-260.3744	-225.38659	-58.58424	58.58424	20.34175	0
935	-39.86983	11.39138	73.2303	10.57771	-48.00653	55.32956	-39.05616	-260.3744	-236.77797	-48.00653	58.58424	20.34175	0
936	-39.86983	11.39138	73.2303	10.57771	-48.00653	55.32956	-49.63387	-260.3744	-236.77797	-37.42882	58.58424	9.76404	0
937	-39.86983	32.5468	73.2303	0	-48.00653	55.32956	-60.21158	-260.3744	-236.77797	-26.85111	69.16195	9.76404	0
938	-28.47845	43.12451	73.2303	-10.57771	-48.00653	55.32956	-60.21158	-260.3744	-236.77797	-26.85111	69.16195	9.76404	0
939	-17.90074	53.70222	73.2303	-21.15542	-48.00653	65.90727	-60.21158	-260.3744	-236.77797	-26.85111	69.16195	9.76404	0
940	-7.32303	64.27993	83.80801	-32.5468	-48.00653	65.90727	-60.21158	-260.3744	-236.77797	-15.45973	79.73966	30.91946	0
941	-7.32303	64.27993	83.80801	-32.5468	-48.00653	65.90727	-39.05616	-260.3744	-236.77797	-15.45973	79.73966	30.91946	0
942	-7.32303	64.27993	94.38572	-32.5468	-48.00653	65.90727	-28.47845	-270.95211	-236.77797	-15.45973	79.73966	30.91946	0
943	-39.86983	64.27993	94.38572	-32.5468	-48.00653	77.29865	-28.47845	-270.95211	-236.77797	-4.88202	79.73966	30.91946	0
944	-7.32303	75.67131	94.38572	-32.5468	-48.00653	77.29865	-28.47845	-270.95211	-236.77797	-4.88202	79.73966	30.91946	0
945	-7.32303	75.67131	94.38572	-32.5468	-48.00653	77.29865	-28.47845	-270.95211	-247.35568	-4.88202	79.73966	20.34175	0
946	-7.32303	75.67131	94.38572	-32.5468	-48.00653	77.29865	-28.47845	-281.52982	-257.93339	-4.88202	91.13104	9.76404	0
947	-39.86983	32.5468	94.38572	0	-48.00653	55.32956	-28.47845	-281.52982	-257.93339	-26.85111	91.13104	-1.62734	0
948	-71.60296	0	94.38572	31.73313	-69.97562	44.75185	-28.47845	-281.52982	-257.93339	-37.42882	91.13104	-12.20505	0
949	-82.18067	-10.57771	94.38572	43.12451	-80.55333	34.17414	-49.63387	-270.95211	-268.5111	-48.00653	69.16195	-12.20505	0
950	-82.18067	-10.57771	83.80801	43.12451	-80.55333	34.17414	-60.21158	-281.52982	-268.5111	-48.00653	69.16195	-12.20505	0
951	-82.18067	-10.57771	94.38572	43.12451	-80.55333	34.17414	-70.78929	-281.52982	-268.5111	-15.45973	69.16195	-12.20505	0
952	-28.47845	53.70222	94.38572	-10.57771	-48.00653	65.90727	-70.78929	-281.52982	-268.5111	-4.88202	101.70875	9.76404	0
953	-17.90074	64.27993	94.38572	-21.15542	-48.00653	65.90727	-70.78929	-281.52982	-247.35568	-4.88202	112.28646	20.34175	0
954	-17.90074	64.27993	83.80801	-21.15542	-48.00653	65.90727	-49.63387	-281.52982	-247.35568	-4.88202	112.28646	20.34175	0
955	-17.90074	64.27993	83.80801	-21.15542	-48.00653	65.90727	-49.63387	-270.95211	-247.35568	-4.88202	112.28646	20.34175	0
956	-17.90074	64.27993	94.38572	-21.15542	-48.00653	65.90727	-60.21158	-260.3744	-236.77797	-4.88202	112.28646	-1.62734	0
957	-17.90074	64.27993	94.38572	-32.5468	-48.00653	77.29865	-60.21158	-260.3744	-225.38659	-15.45973	122.86417	-1.62734	0
958	-17.90074	64.27993	94.38572	-32.5468	-48.00653	77.29865	-60.21158	-260.3744	-225.38659	-15.45973	122.86417	-1.62734	0
959	-17.90074	64.27993	94.38572	-32.5468	-48.00653	77.29865	-49.63387	-292.10753	-225.38659	-15.45973	122.86417	-1.62734	0
960	-39.86983	64.27993	94.38572	-10.57771	-48.00653	77.29865	-70.78929	-302.68524	-257.93339	-15.45973	101.70875	-1.62734	0
961	-39.86983	64.27993	94.38572	-10.57771	-48.00653	77.29865	-70.78929	-302.68524	-257.93339	-15.45973	101.70875	-1.62734	0
962	-17.90074	75.67131	94.38572	-32.5468	-48.00653	87.87636	-70.78929	-302.68524	-236.77797	5.69569	101.70875	-1.62734	0
963	-7.32303	96.82673	94.38572	-43.12451	-48.00653	98.45407	-39.05616	-270.95211	-225.38659	16.2734	122.86417	20.34175	0
964	3.25468	107.40444	105.7771	-53.70222	-48.00653	109.03178	-28.47845	-260.3744	-225.38659	26.85111	133.44188	30.91946	0
965	3.25468	107.40444	116.35481	-53.70222	-48.00653	109.03178	-28.47845	-249.79669	-225.38659	26.85111	144.01959	30.91946	0
966	3.25468	107.40444	116.35481	-53.70222	-48.00653	109.03178	-28.47845	-249.79669	-225.38659	26.85111	144.01959	30.91946	0
967	3.25468	107.40444	116.35481	-53.70222	-48.00653	119.60949	-28.47845	-249.79669	-225.38659	26.85111	144.01959	30.91946	0
968	-7.32303	107.40444	126.93252	-53.70222	-48.00653	119.60949	-28.47845	-249.79669	-214.80888	26.85111	144.01959	30.91946	0
969	-17.90074	107.40444	126.93252	-43.12451	-58.58424	119.60949	-39.05616	-249.79669	-214.80888	26.85111	144.01959	30.91946	0
