samplenr	I	II	III	aVR	aVL	aVF	V1	V2	V3	V4	V5	V6	measurement
0	103.33609	-6.50936	-109.84545	-48.00653	106.59077	-56.9569	-65.0936	104.96343	180.63474	208.29952	71.60296	-72.41663	0
1	103.33609	-8.95037	-112.28646	-48.00653	106.59077	-59.39791	-65.0936	104.96343	180.63474	205.85851	71.60296	-74.85764	0
2	105.7771	-16.2734	-122.0505	-45.56552	113.9138	-69.16195	-60.21158	109.84545	180.63474	205.85851	69.16195	-77.29865	0
3	108.21811	-23.59643	-131.81454	-43.12451	118.79582	-76.48498	-57.77057	112.28646	180.63474	205.85851	69.16195	-79.73966	0
4	103.33609	-30.91946	-134.25555	-35.80148	118.79582	-81.367	-52.88855	114.72747	183.07575	208.29952	71.60296	-79.73966	0
5	100.89508	-35.80148	-136.69656	-33.36047	118.79582	-86.24902	-48.00653	119.60949	187.95777	215.62255	71.60296	-79.73966	0
6	98.45407	-38.24249	-136.69656	-30.91946	116.35481	-86.24902	-43.12451	124.49151	190.39878	225.38659	76.48498	-79.73966	0
7	98.45407	-40.6835	-139.13757	-28.47845	118.79582	-88.69003	-38.24249	129.37353	192.83979	230.26861	78.92599	-82.18067	0
8	96.01306	-40.6835	-136.69656	-28.47845	116.35481	-88.69003	-33.36047	129.37353	187.95777	232.70962	81.367	-84.62168	0
9	91.13104	-45.56552	-136.69656	-23.59643	113.9138	-91.13104	-28.47845	126.93252	185.51676	230.26861	81.367	-87.06269	0
10	86.24902	-50.44754	-136.69656	-18.71441	111.47279	-93.57205	-21.15542	129.37353	185.51676	225.38659	76.48498	-89.5037	0
11	81.367	-57.77057	-139.13757	-11.39138	109.03178	-98.45407	-18.71441	129.37353	180.63474	218.06356	69.16195	-96.82673	0
12	76.48498	-65.0936	-141.57858	-6.50936	109.03178	-103.33609	-16.2734	126.93252	173.31171	210.74053	56.9569	-106.59077	0
13	71.60296	-74.85764	-146.4606	0.81367	109.03178	-110.65912	-13.83239	122.0505	165.98868	200.97649	47.19286	-116.35481	0
14	61.83892	-87.06269	-148.90161	11.39138	104.14976	-117.98215	-11.39138	119.60949	161.10666	196.09447	39.86983	-123.67784	0
15	47.19286	-101.70875	-148.90161	26.03744	96.82673	-125.30518	-11.39138	114.72747	156.22464	188.77144	27.66478	-133.44188	0
16	39.86983	-106.59077	-146.4606	33.36047	91.94471	-125.30518	-11.39138	112.28646	148.90161	186.33043	22.78276	-140.76491	0
17	44.75185	-101.70875	-146.4606	28.47845	94.38572	-122.86417	-11.39138	112.28646	144.01959	186.33043	20.34175	-145.64693	0
18	47.19286	-99.26774	-146.4606	26.03744	96.82673	-122.86417	-11.39138	107.40444	139.13757	183.88942	20.34175	-150.52895	0
19	47.19286	-99.26774	-146.4606	26.03744	96.82673	-122.86417	-11.39138	104.96343	134.25555	183.88942	20.34175	-150.52895	0
20	47.19286	-99.26774	-146.4606	26.03744	96.82673	-122.86417	-8.95037	102.52242	134.25555	183.88942	20.34175	-150.52895	0
21	52.07488	-96.82673	-148.90161	21.15542	99.26774	-122.86417	-8.95037	104.96343	134.25555	183.88942	20.34175	-150.52895	0
22	61.83892	-89.5037	-151.34262	13.83239	106.59077	-120.42316	-4.06835	107.40444	134.25555	186.33043	20.34175	-152.96996	0
23	64.27993	-94.38572	-158.66565	13.83239	111.47279	-125.30518	-4.06835	107.40444	134.25555	183.88942	20.34175	-155.41097	0
24	56.9569	-99.26774	-156.22464	21.15542	106.59077	-127.74619	-4.06835	107.40444	134.25555	181.44841	17.90074	-157.85198	0
25	52.07488	-104.14976	-156.22464	26.03744	104.14976	-130.1872	-4.06835	107.40444	134.25555	181.44841	13.01872	-157.85198	0
26	49.63387	-104.14976	-153.78363	26.03744	101.70875	-127.74619	-6.50936	109.84545	134.25555	181.44841	8.1367	-160.29299	0
27	47.19286	-104.14976	-151.34262	28.47845	99.26774	-127.74619	-6.50936	109.84545	136.69656	181.44841	8.1367	-162.734	0
28	44.75185	-106.59077	-151.34262	30.91946	96.82673	-127.74619	-6.50936	109.84545	134.25555	179.0074	8.1367	-162.734	0
29	39.86983	-109.03178	-148.90161	33.36047	94.38572	-127.74619	-6.50936	107.40444	131.81454	179.0074	5.69569	-162.734	0
30	34.98781	-111.47279	-146.4606	38.24249	89.5037	-127.74619	-8.95037	107.40444	131.81454	174.12538	3.25468	-162.734	0
31	37.42882	-111.47279	-148.90161	35.80148	91.94471	-130.1872	-11.39138	107.40444	131.81454	171.68437	3.25468	-162.734	0
32	37.42882	-109.03178	-146.4606	35.80148	91.94471	-127.74619	-11.39138	109.84545	131.81454	174.12538	0.81367	-165.17501	0
33	37.42882	-109.03178	-146.4606	35.80148	91.94471	-127.74619	-11.39138	109.84545	131.81454	174.12538	0.81367	-165.17501	0
34	37.42882	-109.03178	-146.4606	35.80148	91.94471	-127.74619	-11.39138	107.40444	131.81454	174.12538	0.81367	-162.734	0
35	34.98781	-109.03178	-144.01959	35.80148	89.5037	-125.30518	-11.39138	107.40444	134.25555	174.12538	0.81367	-157.85198	0
36	34.98781	-106.59077	-141.57858	35.80148	87.06269	-122.86417	-8.95037	109.84545	134.25555	176.56639	0.81367	-155.41097	0
37	30.10579	-106.59077	-136.69656	38.24249	82.18067	-120.42316	-8.95037	109.84545	131.81454	176.56639	0.81367	-155.41097	0
38	27.66478	-109.03178	-136.69656	40.6835	82.18067	-122.86417	-6.50936	109.84545	129.37353	176.56639	3.25468	-152.96996	0
39	25.22377	-109.03178	-134.25555	40.6835	79.73966	-120.42316	-4.06835	109.84545	126.93252	174.12538	3.25468	-150.52895	0
40	20.34175	-109.03178	-129.37353	43.12451	74.85764	-117.98215	-4.06835	109.84545	126.93252	169.24336	-1.62734	-150.52895	0
41	15.45973	-109.03178	-124.49151	45.56552	69.97562	-115.54114	-4.06835	109.84545	126.93252	166.80235	-6.50936	-150.52895	0
42	13.01872	-109.03178	-122.0505	48.00653	67.53461	-115.54114	-4.06835	112.28646	126.93252	166.80235	-8.95037	-155.41097	0
43	10.57771	-106.59077	-117.16848	48.00653	62.65259	-110.65912	-4.06835	112.28646	126.93252	164.36134	-13.83239	-160.29299	0
44	8.1367	-104.14976	-112.28646	48.00653	60.21158	-108.21811	-4.06835	109.84545	124.49151	164.36134	-18.71441	-162.734	0
45	5.69569	-104.14976	-109.84545	48.00653	57.77057	-105.7771	-4.06835	109.84545	124.49151	164.36134	-21.15542	-162.734	0
46	5.69569	-104.14976	-109.84545	48.00653	57.77057	-105.7771	-4.06835	109.84545	122.0505	166.80235	-23.59643	-162.734	0
47	8.1367	-104.14976	-112.28646	48.00653	60.21158	-108.21811	-4.06835	109.84545	119.60949	166.80235	-26.03744	-162.734	0
48	10.57771	-104.14976	-114.72747	45.56552	62.65259	-108.21811	-0.81367	107.40444	114.72747	164.36134	-26.03744	-165.17501	0
49	8.1367	-104.14976	-112.28646	48.00653	60.21158	-108.21811	1.62734	104.96343	114.72747	161.92033	-26.03744	-162.734	0
50	5.69569	-106.59077	-112.28646	50.44754	57.77057	-108.21811	6.50936	104.96343	117.16848	159.47932	-28.47845	-162.734	0
51	5.69569	-106.59077	-112.28646	50.44754	57.77057	-108.21811	6.50936	107.40444	119.60949	154.5973	-34.17414	-160.29299	0
52	3.25468	-106.59077	-109.84545	50.44754	55.32956	-108.21811	8.95037	109.84545	124.49151	154.5973	-34.17414	-162.734	0
53	0.81367	-106.59077	-107.40444	52.88855	52.88855	-105.7771	8.95037	109.84545	131.81454	157.03831	-36.61515	-162.734	0
54	-1.62734	-104.14976	-102.52242	52.88855	50.44754	-103.33609	11.39138	107.40444	136.69656	157.03831	-36.61515	-162.734	0
55	-1.62734	-101.70875	-100.08141	50.44754	48.00653	-100.89508	11.39138	107.40444	139.13757	159.47932	-39.05616	-162.734	0
56	-1.62734	-99.26774	-97.6404	50.44754	48.00653	-98.45407	8.95037	104.96343	141.57858	159.47932	-36.61515	-162.734	0
57	-4.06835	-96.82673	-92.75838	50.44754	43.12451	-93.57205	8.95037	102.52242	141.57858	159.47932	-34.17414	-162.734	0
58	-4.06835	-99.26774	-95.19939	50.44754	45.56552	-96.01306	8.95037	100.08141	136.69656	157.03831	-30.91946	-162.734	0
59	-4.06835	-101.70875	-97.6404	52.88855	45.56552	-98.45407	11.39138	100.08141	131.81454	154.5973	-28.47845	-162.734	0
60	-7.32303	-101.70875	-95.19939	52.88855	43.12451	-98.45407	11.39138	102.52242	131.81454	149.71528	-30.91946	-162.734	0
61	-9.76404	-101.70875	-92.75838	55.32956	40.6835	-98.45407	16.2734	109.84545	131.81454	142.39225	-34.17414	-167.61602	0
62	-9.76404	-109.03178	-100.08141	57.77057	45.56552	-105.7771	23.59643	119.60949	134.25555	142.39225	-36.61515	-174.93905	0
63	-9.76404	-116.35481	-107.40444	62.65259	48.00653	-113.10013	33.36047	136.69656	144.01959	147.27427	-39.05616	-184.70309	0
64	-9.76404	-116.35481	-107.40444	62.65259	48.00653	-113.10013	43.12451	156.22464	156.22464	159.47932	-36.61515	-189.58511	0
65	-7.32303	-116.35481	-109.84545	60.21158	50.44754	-113.10013	52.88855	178.19373	178.19373	176.56639	-30.91946	-189.58511	0
66	-4.06835	-116.35481	-112.28646	60.21158	52.88855	-113.10013	62.65259	202.60383	202.60383	200.97649	-11.39138	-184.70309	0
67	5.69569	-116.35481	-122.0505	55.32956	62.65259	-117.98215	69.97562	229.45494	234.33696	235.15063	17.90074	-172.49804	0
68	22.78276	-116.35481	-139.13757	45.56552	79.73966	-127.74619	74.85764	256.30605	270.95211	274.20679	59.39791	-150.52895	0
69	44.75185	-111.47279	-156.22464	33.36047	99.26774	-132.62821	72.41663	283.15716	310.00827	315.70396	110.65912	-116.35481	0
70	71.60296	-104.14976	-175.75272	16.2734	123.67784	-139.95124	65.0936	314.89029	361.26948	366.96517	174.12538	-69.97562	0
71	108.21811	-94.38572	-202.60383	-6.50936	155.41097	-147.27427	52.88855	351.50544	419.85372	432.87244	259.56073	-5.69569	0
72	157.03831	-79.73966	-236.77797	-38.24249	196.90814	-157.03831	30.91946	383.23857	483.31998	508.54375	359.64214	79.73966	0
73	215.62255	-55.32956	-270.95211	-79.73966	243.28733	-161.92033	-0.81367	407.64867	544.34523	593.9791	481.69264	187.1441	0
74	281.52982	-26.03744	-307.56726	-128.55986	294.54854	-166.80235	-38.24249	422.29473	598.04745	679.41445	613.50718	311.63561	0
75	352.31911	8.95037	-344.18241	-179.82107	348.25076	-166.80235	-89.5037	417.41271	637.10361	759.96778	750.20374	453.21419	0
76	432.87244	52.88855	-380.79756	-243.28733	406.835	-164.36134	-150.52895	397.88463	659.0727	835.63909	901.54636	609.43883	0
77	486.57466	106.59077	-380.79756	-296.98955	433.68611	-137.51023	-211.5542	358.82847	663.95472	903.98737	1057.771	780.30953	0
78	564.68698	160.29299	-405.20766	-362.89682	484.94732	-122.86417	-289.66652	280.71615	622.45755	933.27949	1182.26251	931.65215	0
79	623.27122	209.11319	-414.9717	-416.59904	519.12146	-103.33609	-360.45581	187.95777	546.78624	923.51545	1267.69786	1056.14366	0
80	655.00435	248.16935	-407.64867	-450.77318	531.32651	-78.92599	-423.92207	78.11232	441.82281	864.93121	1296.98998	1136.69699	0
81	662.32738	279.90248	-383.23857	-470.30126	524.00348	-52.07488	-475.18328	-44.75185	307.56726	764.8498	1262.81584	1163.5481	0
82	633.03526	296.98955	-336.85938	-465.41924	484.94732	-20.34175	-506.91641	-179.0074	139.13757	618.3892	1148.08837	1124.49194	0
83	591.53809	301.87157	-290.48019	-445.89116	441.00914	7.32303	-536.20853	-340.11406	-64.27993	418.22638	950.36656	1004.88245	0
84	513.42577	299.43056	-214.80888	-406.835	365.33783	43.93818	-543.53156	-498.77971	-279.08881	191.21245	691.6195	829.12973	0
85	388.93426	292.10753	-97.6404	-340.92773	243.28733	97.6404	-524.00348	-640.35829	-479.25163	-39.05616	406.02133	619.20287	0
86	264.44275	282.34349	17.90074	-272.57945	123.67784	151.34262	-492.27035	-762.40879	-662.32738	-256.30605	117.98215	397.07096	0
87	147.27427	275.02046	127.74619	-211.5542	11.39138	202.60383	-455.6552	-857.60818	-813.67	-441.82281	-136.69656	189.58511	0
88	42.31084	270.13844	227.8276	-155.41097	-91.94471	248.98302	-416.59904	-928.39747	-925.95646	-585.8424	-341.7414	13.83239	0
89	-46.37919	260.3744	305.93992	-106.59077	-174.93905	283.15716	-372.66086	-967.45363	-994.30474	-693.24684	-497.96604	-121.23683	0
90	-122.0505	248.16935	369.40618	-62.65259	-245.72834	307.56726	-326.28167	-977.21767	-1026.03787	-768.91815	-610.2525	-223.75925	0
91	-178.19373	231.08228	408.46234	-26.03744	-292.10753	319.77231	-282.34349	-962.57161	-1026.03787	-812.85633	-683.4828	-296.98955	0
92	-212.36787	218.87723	430.43143	-4.06835	-321.39965	324.65433	-238.40531	-938.16151	-1004.06878	-827.50239	-720.09795	-345.80975	0
93	-241.65999	201.79016	442.63648	18.71441	-340.92773	322.21332	-194.46713	-911.3104	-974.77666	-829.9434	-744.50805	-382.4249	0
94	-270.95211	189.58511	459.72355	40.6835	-365.33783	324.65433	-150.52895	-886.9003	-943.04353	-825.06138	-759.15411	-414.15803	0
95	-297.80322	174.93905	471.9286	60.21158	-384.86591	322.21332	-111.47279	-864.93121	-913.75141	-820.17936	-771.35916	-441.00914	0
96	-317.3313	165.17501	481.69264	74.85764	-399.51197	322.21332	-79.73966	-850.28515	-889.34131	-807.97431	-771.35916	-462.97823	0
97	-334.41837	152.96996	486.57466	89.5037	-409.27601	319.77231	-57.77057	-842.96212	-867.37222	-793.32825	-768.91815	-477.62429	0
98	-346.62342	145.64693	491.45668	99.26774	-419.04005	317.3313	-50.44754	-842.96212	-847.84414	-776.24118	-754.27209	-487.38833	0
99	-349.06443	140.76491	489.01567	104.14976	-419.04005	314.89029	-52.88855	-835.63909	-823.43404	-751.83108	-737.18502	-487.38833	0
100	-351.50544	140.76491	491.45668	104.14976	-421.48106	314.89029	-62.65259	-820.99303	-791.70091	-720.09795	-715.21593	-484.94732	1000	P+0
101	-346.62342	145.64693	491.45668	99.26774	-419.04005	317.3313	-74.85764	-799.02394	-750.20374	-683.4828	-688.36482	-477.62429	0
102	-334.41837	152.96996	486.57466	89.5037	-409.27601	319.77231	-87.06269	-767.29081	-706.26556	-634.6626	-654.19068	-465.41924	0
103	-319.77231	167.61602	486.57466	74.85764	-401.95298	327.09534	-96.82673	-723.35263	-652.56334	-578.51937	-612.69351	-448.33217	0
104	-305.12625	182.26208	486.57466	60.21158	-394.62995	334.41837	-104.14976	-674.53243	-598.86112	-519.93513	-568.75533	-428.80409	0
105	-288.03918	194.46713	481.69264	45.56552	-384.86591	336.85938	-106.59077	-625.71223	-547.59991	-466.23291	-529.69917	-409.27601	0
106	-275.83413	199.34915	474.36961	38.24249	-375.10187	336.85938	-111.47279	-581.77405	-508.54375	-419.85372	-493.08402	-394.62995	0
107	-258.74706	201.79016	459.72355	28.47845	-358.0148	329.53635	-116.35481	-542.71789	-474.36961	-378.35655	-458.90988	-377.54288	0
108	-244.101	201.79016	445.07749	21.15542	-343.36874	322.21332	-121.23683	-508.54375	-442.63648	-346.62342	-427.17675	-365.33783	0
109	-231.89595	196.90814	427.99042	16.2734	-328.72268	312.44928	-126.11885	-474.36961	-415.78537	-319.77231	-402.76665	-353.13278	0
110	-219.6909	189.58511	408.46234	13.83239	-314.07662	297.80322	-126.11885	-445.07749	-388.93426	-302.68524	-383.23857	-343.36874	0
111	-209.92686	182.26208	391.37527	13.83239	-299.43056	285.59817	-128.55986	-415.78537	-364.52416	-288.03918	-371.03352	-338.48672	0
112	-202.60383	174.93905	376.72921	13.83239	-289.66652	275.83413	-128.55986	-388.93426	-344.99608	-275.83413	-361.26948	-336.04571	0
113	-197.72181	167.61602	364.52416	13.83239	-279.90248	266.07009	-128.55986	-369.40618	-330.35002	-263.62908	-351.50544	-336.04571	0
114	-192.83979	157.85198	349.8781	16.2734	-270.13844	253.86504	-131.00087	-352.31911	-318.14497	-251.42403	-344.18241	-336.04571	0
115	-190.39878	148.08794	337.67305	21.15542	-262.81541	241.65999	-131.00087	-337.67305	-308.38093	-244.101	-336.85938	-333.6047	0
116	-187.95777	138.3239	325.468	23.59643	-255.49238	231.89595	-131.00087	-323.02699	-301.0579	-234.33696	-327.09534	-333.6047	0
117	-185.51676	128.55986	313.26295	28.47845	-248.16935	219.6909	-128.55986	-310.82194	-296.17588	-227.01393	-319.77231	-331.16369	0
118	-180.63474	116.35481	296.17588	30.91946	-238.40531	205.04484	-123.67784	-303.49891	-291.29386	-219.6909	-310.00827	-328.72268	0
119	-175.75272	109.03178	283.97083	33.36047	-228.64127	195.2808	-121.23683	-293.73487	-286.41184	-214.80888	-302.68524	-323.84066	0
120	-170.8707	101.70875	271.76578	33.36047	-221.31824	185.51676	-116.35481	-283.97083	-281.52982	-214.80888	-302.68524	-321.39965	0
121	-168.42969	96.82673	264.44275	35.80148	-216.43622	180.63474	-113.9138	-274.20679	-274.20679	-214.80888	-300.24423	-323.84066	0
122	-168.42969	91.94471	259.56073	38.24249	-213.99521	175.75272	-109.03178	-264.44275	-266.88376	-209.92686	-300.24423	-326.28167	0
123	-168.42969	89.5037	257.11972	38.24249	-211.5542	173.31171	-104.14976	-257.11972	-259.56073	-202.60383	-300.24423	-333.6047	0
124	-165.98868	89.5037	254.67871	38.24249	-209.11319	170.8707	-104.14976	-252.2377	-254.67871	-192.83979	-295.36221	-336.04571	0
125	-168.42969	87.06269	254.67871	40.6835	-211.5542	170.8707	-101.70875	-247.35568	-249.79669	-187.95777	-292.9212	-336.04571	0
126	-170.8707	84.62168	254.67871	43.12451	-211.5542	168.42969	-99.26774	-242.47366	-244.91467	-180.63474	-285.59817	-333.6047	0
127	-168.42969	82.18067	249.79669	43.12451	-209.11319	165.98868	-94.38572	-237.59164	-242.47366	-173.31171	-278.27514	-331.16369	0
128	-161.10666	79.73966	240.03265	40.6835	-199.34915	158.66565	-91.94471	-237.59164	-242.47366	-168.42969	-266.07009	-326.28167	0
129	-156.22464	77.29865	232.70962	38.24249	-194.46713	153.78363	-87.06269	-230.26861	-237.59164	-165.98868	-256.30605	-316.51763	0
130	-156.22464	74.85764	230.26861	40.6835	-192.02612	151.34262	-82.18067	-222.94558	-232.70962	-165.98868	-251.42403	-309.1946	0
131	-153.78363	72.41663	225.38659	40.6835	-189.58511	148.90161	-77.29865	-215.62255	-227.8276	-168.42969	-251.42403	-306.75359	0
132	-151.34262	72.41663	222.94558	38.24249	-187.1441	146.4606	-74.85764	-208.29952	-222.94558	-165.98868	-251.42403	-309.1946	0
133	-151.34262	72.41663	222.94558	38.24249	-187.1441	146.4606	-72.41663	-203.4175	-220.50457	-161.10666	-251.42403	-314.07662	0
134	-151.34262	72.41663	222.94558	38.24249	-187.1441	146.4606	-69.97562	-200.97649	-220.50457	-153.78363	-248.98302	-314.07662	0
135	-151.34262	77.29865	227.8276	35.80148	-189.58511	151.34262	-69.97562	-198.53548	-220.50457	-151.34262	-246.54201	-314.07662	0
136	-148.90161	77.29865	225.38659	35.80148	-187.1441	151.34262	-67.53461	-198.53548	-225.38659	-146.4606	-241.65999	-311.63561	0
137	-148.90161	74.85764	222.94558	35.80148	-184.70309	148.90161	-67.53461	-198.53548	-232.70962	-141.57858	-239.21898	-309.1946	0
138	-146.4606	74.85764	220.50457	35.80148	-182.26208	146.4606	-67.53461	-203.4175	-240.03265	-141.57858	-231.89595	-306.75359	0
139	-146.4606	72.41663	218.06356	35.80148	-182.26208	144.01959	-67.53461	-203.4175	-244.91467	-139.13757	-227.01393	-296.98955	0
140	-148.90161	69.97562	218.06356	38.24249	-182.26208	144.01959	-67.53461	-203.4175	-247.35568	-146.4606	-227.01393	-294.54854	0
141	-156.22464	67.53461	222.94558	43.12451	-189.58511	144.01959	-67.53461	-200.97649	-244.91467	-148.90161	-229.45494	-292.10753	0
142	-163.54767	65.0936	227.8276	48.00653	-194.46713	146.4606	-67.53461	-193.65346	-237.59164	-146.4606	-231.89595	-292.10753	0
143	-168.42969	67.53461	235.15063	50.44754	-201.79016	151.34262	-62.65259	-188.77144	-230.26861	-139.13757	-231.89595	-296.98955	0
144	-173.31171	74.85764	247.35568	48.00653	-209.11319	161.10666	-62.65259	-183.88942	-220.50457	-129.37353	-227.01393	-296.98955	0
145	-175.75272	79.73966	254.67871	48.00653	-213.99521	165.98868	-60.21158	-179.0074	-213.18154	-122.0505	-224.57292	-292.10753	0
146	-175.75272	79.73966	254.67871	48.00653	-213.99521	165.98868	-57.77057	-174.12538	-205.85851	-112.28646	-219.6909	-289.66652	0
147	-170.8707	82.18067	252.2377	43.12451	-211.5542	165.98868	-55.32956	-166.80235	-200.97649	-104.96343	-212.36787	-282.34349	0
148	-163.54767	84.62168	247.35568	38.24249	-204.23117	165.98868	-50.44754	-164.36134	-196.09447	-97.6404	-202.60383	-277.46147	0
149	-156.22464	89.5037	244.91467	33.36047	-199.34915	165.98868	-50.44754	-164.36134	-193.65346	-97.6404	-197.72181	-270.13844	0
150	-148.90161	91.94471	240.03265	28.47845	-194.46713	165.98868	-48.00653	-159.47932	-183.88942	-97.6404	-195.2808	-262.81541	0
151	-146.4606	96.82673	242.47366	23.59643	-194.46713	168.42969	-43.12451	-152.15629	-171.68437	-92.75838	-190.39878	-260.3744	0
152	-141.57858	104.14976	244.91467	18.71441	-192.02612	173.31171	-40.6835	-139.95124	-154.5973	-80.55333	-187.95777	-257.93339	0
153	-144.01959	113.9138	257.11972	13.83239	-199.34915	185.51676	-38.24249	-130.1872	-139.95124	-68.34828	-180.63474	-257.93339	0
154	-148.90161	118.79582	266.88376	13.83239	-206.67218	192.83979	-35.80148	-120.42316	-125.30518	-51.26121	-173.31171	-255.49238	0
155	-148.90161	126.11885	274.20679	11.39138	-211.5542	200.16282	-33.36047	-110.65912	-110.65912	-36.61515	-163.54767	-248.16935	0
156	-148.90161	131.00087	279.08881	8.95037	-213.99521	205.04484	-30.91946	-98.45407	-96.01306	-19.52808	-148.90161	-238.40531	0
157	-146.4606	135.88289	281.52982	3.25468	-213.99521	207.48585	-26.03744	-86.24902	-83.80801	-4.88202	-134.25555	-231.08228	0
158	-141.57858	140.76491	281.52982	0.81367	-211.5542	209.92686	-21.15542	-78.92599	-76.48498	4.88202	-119.60949	-223.75925	0
159	-131.81454	145.64693	276.6478	-6.50936	-204.23117	209.92686	-16.2734	-69.16195	-66.72094	17.08707	-104.96343	-213.99521	0
160	-124.49151	152.96996	276.6478	-13.83239	-199.34915	214.80888	-11.39138	-59.39791	-52.07488	21.96909	-95.19939	-204.23117	0
161	-119.60949	157.85198	276.6478	-18.71441	-196.90814	217.24989	-6.50936	-47.19286	-34.98781	30.10579	-87.87636	-196.90814	0
162	-117.16848	165.17501	281.52982	-23.59643	-199.34915	222.13191	-4.06835	-30.10579	-15.45973	42.31084	-80.55333	-196.90814	0
163	-114.72747	170.05703	283.97083	-28.47845	-199.34915	227.01393	1.62734	-15.45973	4.06835	59.39791	-70.78929	-194.46713	0
164	-109.84545	172.49804	281.52982	-30.91946	-194.46713	227.01393	4.06835	1.62734	23.59643	78.92599	-61.02525	-189.58511	0
165	-104.96343	174.93905	279.08881	-35.80148	-192.02612	227.01393	6.50936	16.2734	38.24249	93.57205	-51.26121	-182.26208	0
166	-97.6404	177.38006	274.20679	-40.6835	-184.70309	224.57292	11.39138	30.91946	55.32956	108.21811	-36.61515	-172.49804	0
167	-90.31737	177.38006	266.88376	-43.12451	-177.38006	222.13191	13.83239	45.56552	65.90727	122.86417	-23.59643	-162.734	0
168	-78.11232	177.38006	254.67871	-50.44754	-165.17501	214.80888	18.71441	57.77057	75.67131	132.62821	-6.50936	-152.96996	0
169	-65.90727	179.82107	244.91467	-57.77057	-155.41097	212.36787	23.59643	68.34828	85.43535	142.39225	8.1367	-140.76491	0
170	-53.70222	179.82107	232.70962	-62.65259	-143.20592	205.04484	28.47845	82.99434	97.6404	144.83326	17.90074	-131.00087	0
171	-46.37919	179.82107	225.38659	-67.53461	-135.88289	202.60383	33.36047	102.52242	114.72747	149.71528	22.78276	-126.11885	0
172	-41.49717	179.82107	220.50457	-69.97562	-131.00087	200.16282	38.24249	122.0505	131.81454	161.92033	30.10579	-123.67784	0
173	-39.05616	179.82107	218.06356	-69.97562	-128.55986	197.72181	43.12451	139.13757	146.4606	171.68437	34.98781	-123.67784	0
174	-34.17414	179.82107	213.18154	-72.41663	-123.67784	195.2808	45.56552	153.78363	156.22464	186.33043	39.86983	-123.67784	0
175	-29.29212	174.93905	203.4175	-72.41663	-116.35481	187.95777	48.00653	170.8707	165.98868	196.09447	47.19286	-121.23683	0
176	-24.4101	167.61602	191.21245	-72.41663	-106.59077	178.19373	52.88855	185.51676	175.75272	203.4175	59.39791	-116.35481	0
177	-19.52808	157.85198	176.56639	-69.97562	-96.82673	165.98868	57.77057	197.72181	180.63474	210.74053	69.16195	-113.9138	0
178	-7.32303	150.52895	157.03831	-72.41663	-82.18067	153.78363	62.65259	207.48585	180.63474	213.18154	78.92599	-111.47279	0
179	3.25468	143.20592	139.95124	-72.41663	-67.53461	141.57858	67.53461	219.6909	183.07575	215.62255	86.24902	-104.14976	0
180	13.01872	133.44188	120.42316	-72.41663	-52.88855	126.93252	69.97562	231.89595	187.95777	210.74053	88.69003	-99.26774	0
181	20.34175	121.23683	100.89508	-69.97562	-40.6835	112.28646	69.97562	241.65999	195.2808	203.4175	86.24902	-99.26774	0
182	25.22377	111.47279	86.24902	-67.53461	-30.91946	100.08141	69.97562	253.86504	200.16282	203.4175	81.367	-104.14976	0
183	30.10579	104.14976	74.04397	-67.53461	-21.15542	90.31737	69.97562	263.62908	200.16282	200.97649	76.48498	-109.03178	0
184	34.98781	94.38572	59.39791	-65.0936	-11.39138	78.11232	67.53461	270.95211	200.16282	203.4175	74.04397	-111.47279	0
185	37.42882	82.18067	44.75185	-60.21158	-3.25468	63.46626	65.0936	278.27514	200.16282	203.4175	74.04397	-111.47279	0
186	42.31084	69.97562	27.66478	-55.32956	8.95037	48.8202	62.65259	283.15716	195.2808	203.4175	76.48498	-111.47279	0
187	47.19286	55.32956	8.1367	-50.44754	21.15542	31.73313	62.65259	288.03918	187.95777	200.97649	78.92599	-111.47279	0
188	56.9569	45.56552	-12.20505	-50.44754	35.80148	17.08707	62.65259	288.03918	180.63474	196.09447	83.80801	-111.47279	0
189	64.27993	30.91946	-34.17414	-48.00653	50.44754	-0.81367	62.65259	288.03918	170.8707	188.77144	86.24902	-106.59077	0
190	66.72094	21.15542	-46.37919	-43.12451	57.77057	-13.01872	62.65259	290.48019	170.8707	179.0074	88.69003	-104.14976	0
191	66.72094	8.95037	-58.58424	-38.24249	62.65259	-25.22377	62.65259	292.9212	168.42969	166.80235	83.80801	-104.14976	0
192	66.72094	-1.62734	-68.34828	-33.36047	67.53461	-34.98781	57.77057	295.36221	168.42969	161.92033	76.48498	-111.47279	0
193	66.72094	-8.95037	-75.67131	-28.47845	69.97562	-42.31084	57.77057	295.36221	165.98868	159.47932	74.04397	-118.79582	0
194	66.72094	-16.2734	-82.99434	-26.03744	74.85764	-49.63387	55.32956	292.9212	163.54767	159.47932	71.60296	-123.67784	0
195	61.83892	-21.15542	-82.99434	-21.15542	72.41663	-52.07488	50.44754	290.48019	156.22464	157.03831	71.60296	-126.11885	0
196	61.83892	-28.47845	-90.31737	-16.2734	74.85764	-59.39791	50.44754	285.59817	146.4606	152.15629	71.60296	-126.11885	0
197	61.83892	-35.80148	-97.6404	-13.83239	79.73966	-66.72094	48.00653	278.27514	134.25555	149.71528	71.60296	-128.55986	0
198	66.72094	-43.12451	-109.84545	-11.39138	87.06269	-76.48498	45.56552	268.5111	114.72747	139.95124	69.16195	-128.55986	0
199	71.60296	-50.44754	-122.0505	-11.39138	96.82673	-86.24902	43.12451	256.30605	100.08141	127.74619	66.72094	-128.55986	0
200	71.60296	-55.32956	-126.93252	-8.95037	99.26774	-91.13104	40.6835	246.54201	87.87636	113.10013	59.39791	-126.11885	0
201	69.16195	-62.65259	-131.81454	-4.06835	99.26774	-96.01306	38.24249	239.21898	80.55333	100.89508	49.63387	-126.11885	0
202	69.16195	-67.53461	-136.69656	-1.62734	101.70875	-100.89508	35.80148	236.77797	75.67131	91.13104	37.42882	-131.00087	0
203	69.16195	-74.85764	-144.01959	3.25468	106.59077	-108.21811	30.91946	229.45494	68.34828	86.24902	27.66478	-140.76491	0
204	64.27993	-79.73966	-144.01959	6.50936	104.14976	-110.65912	26.03744	219.6909	60.21158	81.367	20.34175	-145.64693	0
205	61.83892	-84.62168	-146.4606	11.39138	104.14976	-115.54114	21.15542	214.80888	52.88855	76.48498	13.01872	-148.08794	0
206	59.39791	-89.5037	-148.90161	13.83239	104.14976	-117.98215	18.71441	207.48585	45.56552	71.60296	13.01872	-148.08794	0
207	61.83892	-96.82673	-158.66565	16.2734	109.03178	-127.74619	16.2734	200.16282	33.36047	66.72094	13.01872	-148.08794	0
208	64.27993	-101.70875	-165.98868	18.71441	113.9138	-132.62821	16.2734	190.39878	18.71441	56.9569	10.57771	-148.08794	0
209	66.72094	-104.14976	-170.8707	18.71441	118.79582	-137.51023	13.83239	180.63474	6.50936	44.75185	10.57771	-148.08794	0
210	66.72094	-109.03178	-175.75272	21.15542	121.23683	-142.39225	11.39138	175.75272	-0.81367	30.10579	3.25468	-145.64693	0
211	66.72094	-111.47279	-178.19373	21.15542	121.23683	-144.83326	8.95037	170.8707	-3.25468	17.08707	-4.06835	-148.08794	0
212	64.27993	-116.35481	-180.63474	26.03744	121.23683	-147.27427	8.95037	168.42969	-3.25468	9.76404	-13.83239	-155.41097	0
213	59.39791	-118.79582	-178.19373	28.47845	118.79582	-147.27427	6.50936	163.54767	-8.1367	4.88202	-23.59643	-165.17501	0
214	56.9569	-118.79582	-175.75272	30.91946	116.35481	-147.27427	4.06835	161.10666	-10.57771	4.88202	-28.47845	-170.05703	0
215	52.07488	-121.23683	-173.31171	33.36047	111.47279	-147.27427	1.62734	158.66565	-13.01872	2.44101	-30.91946	-170.05703	0
216	49.63387	-121.23683	-170.8707	35.80148	109.03178	-144.83326	1.62734	153.78363	-17.90074	0	-30.91946	-170.05703	0
217	49.63387	-121.23683	-170.8707	35.80148	109.03178	-144.83326	1.62734	148.90161	-25.22377	0	-30.91946	-170.05703	0
218	56.9569	-118.79582	-175.75272	30.91946	116.35481	-147.27427	1.62734	141.57858	-34.98781	-4.88202	-28.47845	-170.05703	0
219	59.39791	-118.79582	-178.19373	28.47845	118.79582	-147.27427	1.62734	136.69656	-39.86983	-7.32303	-28.47845	-162.734	0
220	59.39791	-121.23683	-180.63474	30.91946	118.79582	-149.71528	1.62734	134.25555	-42.31084	-17.08707	-28.47845	-157.85198	0
221	59.39791	-121.23683	-180.63474	30.91946	118.79582	-149.71528	1.62734	131.81454	-42.31084	-24.4101	-34.17414	-157.85198	0
222	56.9569	-126.11885	-183.07575	33.36047	118.79582	-154.5973	-0.81367	131.81454	-39.86983	-26.85111	-41.49717	-162.734	0
223	52.07488	-133.44188	-185.51676	40.6835	118.79582	-159.47932	-0.81367	129.37353	-39.86983	-29.29212	-46.37919	-170.05703	0
224	44.75185	-138.3239	-183.07575	45.56552	113.9138	-159.47932	-4.06835	124.49151	-39.86983	-24.4101	-46.37919	-172.49804	0
225	39.86983	-143.20592	-183.07575	50.44754	111.47279	-161.92033	-4.06835	122.0505	-42.31084	-26.85111	-51.26121	-174.93905	0
226	39.86983	-143.20592	-183.07575	50.44754	111.47279	-161.92033	-6.50936	119.60949	-49.63387	-26.85111	-51.26121	-177.38006	0
227	39.86983	-143.20592	-183.07575	50.44754	111.47279	-161.92033	-8.95037	114.72747	-54.51589	-31.73313	-51.26121	-177.38006	0
228	47.19286	-145.64693	-192.83979	48.00653	118.79582	-169.24336	-8.95037	109.84545	-64.27993	-36.61515	-46.37919	-174.93905	0
229	52.07488	-140.76491	-192.83979	43.12451	121.23683	-166.80235	-6.50936	107.40444	-71.60296	-36.61515	-41.49717	-167.61602	0
230	56.9569	-135.88289	-192.83979	38.24249	123.67784	-164.36134	-4.06835	107.40444	-71.60296	-43.93818	-41.49717	-162.734	0
231	59.39791	-133.44188	-192.83979	35.80148	126.11885	-161.92033	-4.06835	104.96343	-71.60296	-51.26121	-46.37919	-160.29299	0
232	59.39791	-133.44188	-192.83979	35.80148	126.11885	-161.92033	-4.06835	107.40444	-66.72094	-51.26121	-51.26121	-160.29299	0
233	52.07488	-133.44188	-185.51676	40.6835	118.79582	-159.47932	-4.06835	107.40444	-64.27993	-48.8202	-53.70222	-165.17501	0
234	49.63387	-131.00087	-180.63474	40.6835	113.9138	-154.5973	-4.06835	107.40444	-64.27993	-41.49717	-56.14323	-165.17501	0
235	44.75185	-131.00087	-175.75272	43.12451	109.03178	-152.15629	-4.06835	107.40444	-66.72094	-41.49717	-56.14323	-160.29299	0
236	44.75185	-128.55986	-173.31171	40.6835	109.03178	-149.71528	-6.50936	104.96343	-66.72094	-41.49717	-56.14323	-157.85198	0
237	47.19286	-128.55986	-175.75272	40.6835	111.47279	-152.15629	-6.50936	104.96343	-71.60296	-39.05616	-53.70222	-152.96996	0
238	52.07488	-128.55986	-180.63474	38.24249	116.35481	-154.5973	-6.50936	100.08141	-76.48498	-39.05616	-48.8202	-148.08794	0
239	56.9569	-128.55986	-185.51676	35.80148	121.23683	-157.03831	-6.50936	97.6404	-78.92599	-41.49717	-43.93818	-140.76491	0
240	56.9569	-126.11885	-183.07575	33.36047	118.79582	-154.5973	-4.06835	97.6404	-76.48498	-46.37919	-41.49717	-135.88289	0
241	59.39791	-123.67784	-183.07575	30.91946	121.23683	-152.15629	-4.06835	97.6404	-71.60296	-51.26121	-43.93818	-135.88289	0
242	56.9569	-121.23683	-178.19373	30.91946	116.35481	-149.71528	-4.06835	102.52242	-64.27993	-51.26121	-48.8202	-135.88289	0
243	52.07488	-121.23683	-173.31171	33.36047	111.47279	-147.27427	-4.06835	102.52242	-61.83892	-46.37919	-48.8202	-143.20592	0
244	47.19286	-118.79582	-165.98868	35.80148	106.59077	-142.39225	-4.06835	104.96343	-59.39791	-41.49717	-48.8202	-145.64693	0
245	44.75185	-116.35481	-161.10666	35.80148	101.70875	-137.51023	-4.06835	104.96343	-56.9569	-39.05616	-46.37919	-145.64693	0
246	47.19286	-111.47279	-158.66565	30.91946	101.70875	-135.06922	-4.06835	107.40444	-56.9569	-36.61515	-41.49717	-143.20592	0
247	47.19286	-113.9138	-161.10666	33.36047	104.14976	-137.51023	-4.06835	107.40444	-56.9569	-34.17414	-34.17414	-140.76491	0
248	52.07488	-118.79582	-170.8707	33.36047	111.47279	-144.83326	1.62734	107.40444	-61.83892	-34.17414	-26.03744	-138.3239	0
249	61.83892	-116.35481	-178.19373	26.03744	118.79582	-147.27427	1.62734	104.96343	-61.83892	-36.61515	-18.71441	-133.44188	0
250	66.72094	-113.9138	-180.63474	23.59643	123.67784	-147.27427	4.06835	107.40444	-59.39791	-39.05616	-18.71441	-126.11885	0
251	69.16195	-111.47279	-180.63474	21.15542	123.67784	-144.83326	4.06835	112.28646	-49.63387	-41.49717	-16.2734	-126.11885	0
252	69.16195	-106.59077	-175.75272	18.71441	121.23683	-139.95124	6.50936	119.60949	-39.86983	-36.61515	-18.71441	-126.11885	0
253	69.16195	-104.14976	-173.31171	16.2734	121.23683	-137.51023	8.95037	124.49151	-30.10579	-29.29212	-18.71441	-128.55986	0
254	69.16195	-94.38572	-163.54767	11.39138	116.35481	-127.74619	11.39138	129.37353	-22.78276	-17.08707	-13.83239	-128.55986	0
255	64.27993	-89.5037	-153.78363	11.39138	109.03178	-120.42316	13.83239	134.25555	-13.01872	-9.76404	-8.95037	-123.67784	0
256	59.39791	-87.06269	-146.4606	13.83239	101.70875	-115.54114	16.2734	136.69656	-8.1367	0	-1.62734	-121.23683	0
257	59.39791	-82.18067	-141.57858	11.39138	99.26774	-110.65912	21.15542	141.57858	-3.25468	7.32303	5.69569	-113.9138	0
258	61.83892	-77.29865	-139.13757	6.50936	99.26774	-108.21811	26.03744	141.57858	-3.25468	14.64606	17.90074	-106.59077	0
259	66.72094	-74.85764	-141.57858	3.25468	104.14976	-108.21811	30.91946	141.57858	-0.81367	17.08707	25.22377	-94.38572	0
260	66.72094	-72.41663	-139.13757	3.25468	101.70875	-105.7771	30.91946	141.57858	4.06835	14.64606	30.10579	-87.06269	0
261	66.72094	-67.53461	-134.25555	0.81367	99.26774	-100.89508	30.91946	144.01959	13.83239	12.20505	30.10579	-79.73966	0
262	69.16195	-62.65259	-131.81454	-4.06835	99.26774	-96.01306	33.36047	153.78363	23.59643	19.52808	32.5468	-77.29865	0
263	69.16195	-57.77057	-126.93252	-6.50936	96.82673	-91.13104	33.36047	158.66565	33.36047	25.22377	34.98781	-77.29865	0
264	69.16195	-55.32956	-124.49151	-6.50936	96.82673	-88.69003	33.36047	158.66565	38.24249	34.98781	37.42882	-74.85764	0
265	64.27993	-52.88855	-117.16848	-6.50936	89.5037	-83.80801	33.36047	163.54767	43.12451	39.86983	39.86983	-69.97562	0
266	61.83892	-48.00653	-109.84545	-6.50936	84.62168	-78.92599	33.36047	165.98868	48.00653	47.19286	47.19286	-67.53461	0
267	64.27993	-43.12451	-107.40444	-11.39138	84.62168	-74.04397	33.36047	165.98868	50.44754	54.51589	54.51589	-65.0936	0
268	71.60296	-38.24249	-109.84545	-16.2734	89.5037	-74.04397	30.91946	161.10666	48.00653	54.51589	61.83892	-60.21158	0
269	78.92599	-33.36047	-112.28646	-23.59643	94.38572	-71.60296	28.47845	161.10666	48.00653	54.51589	66.72094	-52.88855	0
270	81.367	-30.91946	-112.28646	-26.03744	96.82673	-71.60296	26.03744	158.66565	52.88855	49.63387	69.16195	-48.00653	0
271	83.80801	-26.03744	-109.84545	-28.47845	96.82673	-66.72094	21.15542	158.66565	57.77057	47.19286	69.16195	-45.56552	0
272	86.24902	-21.15542	-107.40444	-33.36047	96.82673	-64.27993	16.2734	161.10666	65.90727	49.63387	69.16195	-45.56552	0
273	83.80801	-16.2734	-100.08141	-33.36047	91.94471	-56.9569	13.83239	158.66565	70.78929	56.9569	69.16195	-45.56552	0
274	81.367	-16.2734	-97.6404	-33.36047	89.5037	-56.9569	8.95037	156.22464	73.2303	64.27993	71.60296	-43.12451	0
275	76.48498	-13.83239	-90.31737	-30.91946	82.18067	-52.07488	4.06835	151.34262	75.67131	66.72094	71.60296	-39.86983	0
276	74.04397	-11.39138	-85.43535	-30.91946	79.73966	-47.19286	-4.06835	146.4606	70.78929	71.60296	76.48498	-34.98781	0
277	78.92599	-11.39138	-90.31737	-33.36047	84.62168	-49.63387	-6.50936	141.57858	65.90727	71.60296	81.367	-30.10579	0
278	86.24902	-13.83239	-100.08141	-35.80148	91.94471	-56.9569	-13.83239	131.81454	57.77057	69.16195	83.80801	-27.66478	0
279	93.57205	-16.2734	-109.84545	-38.24249	101.70875	-61.83892	-21.15542	124.49151	45.56552	61.83892	86.24902	-22.78276	0
280	98.45407	-21.15542	-119.60949	-38.24249	109.03178	-69.16195	-26.03744	119.60949	43.12451	52.07488	81.367	-20.34175	0
281	100.89508	-23.59643	-124.49151	-38.24249	111.47279	-74.04397	-28.47845	117.16848	40.6835	42.31084	76.48498	-20.34175	0
282	100.89508	-26.03744	-126.93252	-38.24249	113.9138	-76.48498	-30.91946	119.60949	43.12451	42.31084	71.60296	-25.22377	0
283	100.89508	-26.03744	-126.93252	-38.24249	113.9138	-76.48498	-30.91946	119.60949	43.12451	42.31084	66.72094	-30.10579	0
284	100.89508	-23.59643	-124.49151	-38.24249	111.47279	-74.04397	-30.91946	124.49151	45.56552	49.63387	66.72094	-30.10579	0
285	98.45407	-21.15542	-119.60949	-38.24249	109.03178	-69.16195	-30.91946	124.49151	48.00653	52.07488	66.72094	-27.66478	0
286	98.45407	-21.15542	-119.60949	-38.24249	109.03178	-69.16195	-33.36047	124.49151	45.56552	54.51589	71.60296	-22.78276	0
287	100.89508	-23.59643	-124.49151	-38.24249	111.47279	-74.04397	-33.36047	124.49151	43.12451	54.51589	76.48498	-17.90074	0
288	108.21811	-26.03744	-134.25555	-40.6835	121.23683	-78.92599	-33.36047	124.49151	38.24249	54.51589	81.367	-13.01872	0
289	115.54114	-30.91946	-146.4606	-43.12451	131.00087	-88.69003	-33.36047	122.0505	33.36047	49.63387	86.24902	-8.1367	0
290	117.98215	-35.80148	-153.78363	-40.6835	135.88289	-93.57205	-33.36047	122.0505	33.36047	42.31084	86.24902	-3.25468	0
291	120.42316	-45.56552	-165.98868	-38.24249	143.20592	-105.7771	-30.91946	124.49151	35.80148	34.98781	83.80801	-3.25468	0
292	120.42316	-50.44754	-170.8707	-35.80148	145.64693	-110.65912	-28.47845	131.81454	43.12451	34.98781	78.92599	-5.69569	0
293	115.54114	-52.88855	-168.42969	-30.91946	140.76491	-110.65912	-26.03744	134.25555	48.00653	39.86983	76.48498	-13.01872	0
294	108.21811	-57.77057	-165.98868	-26.03744	135.88289	-110.65912	-23.59643	139.13757	52.88855	49.63387	76.48498	-13.01872	0
295	98.45407	-62.65259	-161.10666	-18.71441	128.55986	-110.65912	-16.2734	144.01959	57.77057	54.51589	76.48498	-13.01872	0
296	93.57205	-65.0936	-158.66565	-13.83239	126.11885	-110.65912	-11.39138	148.90161	57.77057	61.83892	83.80801	-13.01872	0
297	88.69003	-65.0936	-153.78363	-11.39138	121.23683	-108.21811	-4.06835	153.78363	57.77057	66.72094	86.24902	-10.57771	0
298	88.69003	-65.0936	-153.78363	-11.39138	121.23683	-108.21811	4.06835	153.78363	57.77057	66.72094	93.57205	-8.1367	0
299	88.69003	-69.97562	-158.66565	-8.95037	123.67784	-113.10013	13.83239	153.78363	52.88855	66.72094	96.01306	-5.69569	0
300	83.80801	-74.85764	-158.66565	-4.06835	121.23683	-115.54114	21.15542	156.22464	52.88855	59.39791	93.57205	-5.69569	0
301	81.367	-77.29865	-158.66565	-1.62734	118.79582	-117.98215	26.03744	156.22464	55.32956	47.19286	83.80801	-13.01872	0
302	76.48498	-77.29865	-153.78363	0.81367	113.9138	-115.54114	28.47845	156.22464	57.77057	42.31084	71.60296	-22.78276	0
303	69.16195	-82.18067	-151.34262	6.50936	109.03178	-115.54114	33.36047	153.78363	55.32956	39.86983	61.83892	-37.42882	0
304	59.39791	-87.06269	-146.4606	13.83239	101.70875	-115.54114	35.80148	151.34262	52.88855	39.86983	54.51589	-43.12451	0
305	49.63387	-91.94471	-141.57858	21.15542	94.38572	-115.54114	35.80148	148.90161	48.00653	34.98781	44.75185	-50.44754	0
306	47.19286	-94.38572	-141.57858	23.59643	94.38572	-117.98215	35.80148	146.4606	43.12451	32.5468	44.75185	-52.88855	0
307	47.19286	-99.26774	-146.4606	26.03744	96.82673	-122.86417	38.24249	146.4606	38.24249	32.5468	42.31084	-55.32956	0
308	49.63387	-101.70875	-151.34262	26.03744	99.26774	-125.30518	40.6835	139.13757	28.47845	30.10579	44.75185	-55.32956	0
309	49.63387	-106.59077	-156.22464	28.47845	101.70875	-130.1872	43.12451	136.69656	21.15542	25.22377	44.75185	-52.88855	0
310	49.63387	-109.03178	-158.66565	28.47845	104.14976	-132.62821	43.12451	136.69656	21.15542	19.52808	42.31084	-50.44754	0
311	49.63387	-111.47279	-161.10666	30.91946	104.14976	-135.06922	43.12451	136.69656	21.15542	9.76404	37.42882	-52.88855	0
312	44.75185	-116.35481	-161.10666	35.80148	101.70875	-137.51023	45.56552	141.57858	23.59643	9.76404	30.10579	-57.77057	0
313	34.98781	-118.79582	-153.78363	40.6835	94.38572	-135.06922	45.56552	141.57858	26.03744	9.76404	25.22377	-65.0936	0
314	27.66478	-123.67784	-151.34262	48.00653	89.5037	-137.51023	45.56552	141.57858	26.03744	12.20505	22.78276	-69.97562	1500	QRS+0
315	20.34175	-126.11885	-146.4606	52.88855	82.18067	-135.06922	45.56552	141.57858	28.47845	14.64606	17.90074	-69.97562	0
316	15.45973	-126.11885	-141.57858	55.32956	77.29865	-132.62821	48.00653	141.57858	28.47845	14.64606	20.34175	-69.97562	0
317	15.45973	-126.11885	-141.57858	55.32956	77.29865	-132.62821	50.44754	141.57858	26.03744	14.64606	22.78276	-69.97562	0
318	20.34175	-128.55986	-148.90161	52.88855	84.62168	-137.51023	55.32956	141.57858	23.59643	17.08707	27.66478	-67.53461	0
319	25.22377	-128.55986	-153.78363	50.44754	89.5037	-139.95124	57.77057	139.13757	21.15542	14.64606	34.98781	-60.21158	0
320	30.10579	-128.55986	-158.66565	48.00653	94.38572	-142.39225	60.21158	141.57858	26.03744	9.76404	37.42882	-55.32956	0
321	32.5468	-126.11885	-158.66565	45.56552	94.38572	-142.39225	62.65259	146.4606	30.91946	4.88202	37.42882	-52.88855	0
322	30.10579	-126.11885	-156.22464	48.00653	91.94471	-139.95124	62.65259	151.34262	38.24249	2.44101	30.10579	-57.77057	0
323	27.66478	-128.55986	-156.22464	50.44754	91.94471	-142.39225	62.65259	151.34262	43.12451	4.88202	25.22377	-62.65259	0
324	22.78276	-128.55986	-151.34262	52.88855	87.06269	-139.95124	62.65259	151.34262	43.12451	9.76404	22.78276	-65.0936	0
325	13.01872	-128.55986	-141.57858	57.77057	77.29865	-135.06922	62.65259	151.34262	45.56552	12.20505	17.90074	-69.97562	0
326	10.57771	-128.55986	-139.13757	57.77057	74.85764	-132.62821	62.65259	151.34262	45.56552	12.20505	17.90074	-69.97562	0
327	8.1367	-131.00087	-139.13757	60.21158	72.41663	-135.06922	62.65259	148.90161	40.6835	12.20505	17.90074	-69.97562	0
328	10.57771	-131.00087	-141.57858	60.21158	74.85764	-135.06922	65.0936	144.01959	35.80148	12.20505	22.78276	-72.41663	0
329	10.57771	-128.55986	-139.13757	57.77057	74.85764	-132.62821	67.53461	141.57858	30.91946	12.20505	25.22377	-69.97562	0
330	13.01872	-126.11885	-139.13757	55.32956	74.85764	-132.62821	67.53461	141.57858	30.91946	7.32303	25.22377	-67.53461	0
331	15.45973	-121.23683	-136.69656	52.88855	74.85764	-127.74619	69.97562	141.57858	33.36047	4.88202	25.22377	-67.53461	0
332	15.45973	-121.23683	-136.69656	52.88855	74.85764	-127.74619	69.97562	144.01959	38.24249	4.88202	20.34175	-69.97562	0
333	13.01872	-121.23683	-134.25555	52.88855	72.41663	-127.74619	69.97562	146.4606	38.24249	4.88202	15.45973	-74.85764	0
334	10.57771	-121.23683	-131.81454	55.32956	69.97562	-125.30518	67.53461	146.4606	38.24249	7.32303	13.01872	-79.73966	0
335	8.1367	-121.23683	-129.37353	55.32956	67.53461	-125.30518	67.53461	148.90161	38.24249	7.32303	5.69569	-82.18067	0
336	5.69569	-121.23683	-126.93252	57.77057	65.0936	-122.86417	65.0936	148.90161	35.80148	4.88202	3.25468	-84.62168	0
337	3.25468	-123.67784	-126.93252	60.21158	65.0936	-125.30518	62.65259	148.90161	33.36047	2.44101	0.81367	-84.62168	0
338	3.25468	-123.67784	-126.93252	60.21158	65.0936	-125.30518	62.65259	144.01959	28.47845	-2.44101	0.81367	-87.06269	0
339	3.25468	-123.67784	-126.93252	60.21158	65.0936	-125.30518	62.65259	141.57858	26.03744	-2.44101	3.25468	-87.06269	0
340	5.69569	-123.67784	-129.37353	57.77057	67.53461	-125.30518	65.0936	141.57858	26.03744	-2.44101	3.25468	-84.62168	0
341	5.69569	-121.23683	-126.93252	57.77057	65.0936	-122.86417	67.53461	141.57858	28.47845	-2.44101	5.69569	-82.18067	0
342	5.69569	-118.79582	-124.49151	55.32956	65.0936	-120.42316	69.97562	144.01959	33.36047	-2.44101	3.25468	-82.18067	0
343	5.69569	-116.35481	-122.0505	55.32956	62.65259	-117.98215	69.97562	146.4606	35.80148	0	3.25468	-82.18067	0
344	5.69569	-116.35481	-122.0505	55.32956	62.65259	-117.98215	69.97562	146.4606	40.6835	7.32303	3.25468	-82.18067	0
345	8.1367	-118.79582	-126.93252	55.32956	67.53461	-122.86417	69.97562	146.4606	40.6835	7.32303	3.25468	-82.18067	0
346	5.69569	-118.79582	-124.49151	55.32956	65.0936	-120.42316	67.53461	146.4606	38.24249	7.32303	0.81367	-82.18067	0
347	0.81367	-121.23683	-122.0505	60.21158	60.21158	-120.42316	65.0936	141.57858	35.80148	4.88202	-1.62734	-84.62168	0
348	0.81367	-123.67784	-124.49151	60.21158	62.65259	-122.86417	62.65259	136.69656	30.91946	2.44101	-1.62734	-84.62168	0
349	3.25468	-123.67784	-126.93252	60.21158	65.0936	-125.30518	62.65259	136.69656	28.47845	0	-1.62734	-84.62168	0
350	3.25468	-123.67784	-126.93252	60.21158	65.0936	-125.30518	62.65259	134.25555	26.03744	-4.88202	-4.06835	-84.62168	0
351	0.81367	-126.11885	-126.93252	62.65259	62.65259	-125.30518	65.0936	136.69656	28.47845	-7.32303	-8.95037	-89.5037	0
352	-1.62734	-128.55986	-126.93252	65.0936	62.65259	-127.74619	69.97562	146.4606	35.80148	-7.32303	-13.83239	-94.38572	0
353	-4.06835	-131.00087	-126.93252	67.53461	60.21158	-127.74619	77.29865	158.66565	48.00653	-2.44101	-16.2734	-101.70875	0
354	-7.32303	-131.00087	-124.49151	67.53461	57.77057	-127.74619	89.5037	180.63474	62.65259	9.76404	-16.2734	-109.03178	0
355	-7.32303	-133.44188	-126.93252	69.97562	60.21158	-130.1872	101.70875	202.60383	85.43535	25.22377	-8.95037	-109.03178	0
356	-7.32303	-133.44188	-126.93252	69.97562	60.21158	-130.1872	113.9138	227.01393	114.72747	49.63387	5.69569	-109.03178	0
357	5.69569	-131.00087	-136.69656	62.65259	69.97562	-132.62821	123.67784	256.30605	148.90161	81.367	30.10579	-101.70875	0
358	22.78276	-131.00087	-153.78363	52.88855	87.06269	-142.39225	131.00087	288.03918	190.39878	122.86417	66.72094	-84.62168	0
359	42.31084	-126.11885	-168.42969	40.6835	104.14976	-147.27427	135.88289	324.65433	236.77797	169.24336	115.54114	-55.32956	0
360	71.60296	-123.67784	-195.2808	26.03744	133.44188	-159.47932	135.88289	363.71049	292.9212	225.38659	176.56639	-15.45973	0
361	108.21811	-116.35481	-224.57292	3.25468	165.17501	-169.24336	131.00087	405.20766	356.38746	296.17588	254.67871	40.6835	0
362	152.15629	-106.59077	-258.74706	-23.59643	204.23117	-181.44841	113.9138	441.82281	422.29473	371.84719	347.43709	113.9138	0
363	205.85851	-91.94471	-297.80322	-57.77057	250.61036	-193.65346	87.06269	468.67392	478.43796	454.84153	457.28254	206.67218	0
364	269.32477	-65.0936	-334.41837	-101.70875	301.87157	-198.53548	48.00653	483.31998	527.25816	540.27688	586.65607	321.39965	0
365	344.99608	-33.36047	-378.35655	-155.41097	360.45581	-205.85851	-4.06835	480.87897	558.99129	623.27122	723.35263	450.77318	0
366	427.99042	6.50936	-422.29473	-216.43622	426.36308	-208.29952	-67.53461	451.58685	571.19634	696.50152	869.81323	597.23378	0
367	515.86678	52.88855	-463.7919	-284.7845	489.82934	-205.85851	-150.52895	393.00261	551.66826	755.08576	1016.27383	751.01741	0
368	601.30213	106.59077	-495.52503	-353.13278	548.41358	-193.65346	-238.40531	307.56726	502.84806	791.70091	1152.97039	907.24205	0
369	672.09142	157.85198	-515.05311	-414.15803	594.79277	-179.0074	-326.28167	207.48585	424.73574	794.14192	1262.81584	1046.37962	0
370	723.35263	199.34915	-524.81715	-460.53722	624.08489	-161.92033	-401.95298	92.75838	322.21332	757.52677	1323.84109	1153.78406	0
371	747.76273	233.52329	-515.05311	-489.82934	631.40792	-139.95124	-467.86025	-39.86983	190.39878	679.41445	1326.2821	1214.80931	0
372	737.99869	255.49238	-483.31998	-497.15237	611.87984	-113.10013	-519.12146	-188.77144	33.36047	557.36395	1257.93382	1217.25032	0
373	689.17849	267.69743	-422.29473	-477.62429	555.73661	-76.48498	-555.73661	-354.76012	-154.5973	388.93426	1113.91423	1153.78406	0
374	611.06617	267.69743	-344.18241	-438.56813	477.62429	-37.42882	-572.82368	-525.63082	-362.08315	179.0074	891.78232	1024.41053	0
375	506.10274	255.49238	-251.42403	-379.98389	379.98389	1.62734	-565.50065	-686.73748	-569.569	-53.70222	615.94819	841.33478	0
376	381.61123	240.84632	-141.57858	-311.63561	262.81541	51.26121	-538.64954	-830.75707	-764.8498	-288.03918	323.02699	628.96691	0
377	252.2377	228.64127	-24.4101	-240.84632	138.3239	102.52242	-504.4754	-950.36656	-930.83848	-502.84806	39.86983	414.15803	0
378	135.06922	213.99521	78.92599	-174.93905	28.47845	146.4606	-460.53722	-1033.3609	-1060.21201	-678.60078	-205.04484	218.87723	0
379	32.5468	201.79016	169.24336	-116.35481	-67.53461	185.51676	-406.835	-1074.85807	-1145.64736	-815.29734	-400.32564	52.88855	0
380	-51.26121	192.02612	242.47366	-69.97562	-145.64693	217.24989	-345.80975	-1079.74009	-1182.26251	-905.61471	-541.90422	-69.97562	0
381	-122.0505	184.70309	305.93992	-30.91946	-213.99521	244.101	-279.90248	-1057.771	-1179.8215	-949.55289	-627.33957	-155.41097	0
382	-170.8707	179.82107	349.8781	-4.06835	-260.3744	263.62908	-221.31824	-1023.59686	-1152.97039	-959.31693	-673.71876	-211.5542	0
383	-209.92686	177.38006	386.49325	16.2734	-296.98955	280.71615	-167.61602	-986.98171	-1116.35524	-949.55289	-690.80583	-245.72834	0
384	-239.21898	177.38006	415.78537	30.91946	-326.28167	295.36221	-121.23683	-955.24858	-1082.1811	-930.02481	-698.12886	-270.13844	0
385	-268.5111	177.38006	445.07749	45.56552	-355.57379	310.00827	-84.62168	-935.7205	-1052.88898	-910.49673	-700.56987	-289.66652	0
386	-292.9212	172.49804	464.60557	60.21158	-377.54288	317.3313	-65.0936	-928.39747	-1030.91989	-893.40966	-700.56987	-306.75359	0
387	-312.44928	170.05703	481.69264	69.97562	-397.07096	324.65433	-60.21158	-928.39747	-1013.83282	-876.32259	-695.68785	-321.39965	0
388	-322.21332	170.05703	491.45668	74.85764	-406.835	329.53635	-65.0936	-925.95646	-991.86373	-851.91249	-683.4828	-331.16369	0
389	-327.09534	170.05703	496.3387	77.29865	-411.71702	331.97736	-77.29865	-916.19242	-960.1306	-820.17936	-661.51371	-333.6047	0
390	-327.09534	172.49804	498.77971	77.29865	-411.71702	334.41837	-91.94471	-894.22333	-923.51545	-786.00522	-637.10361	-331.16369	0
391	-324.65433	177.38006	501.22072	72.41663	-411.71702	339.30039	-104.14976	-864.93121	-874.69525	-744.50805	-607.81149	-321.39965	0
392	-312.44928	187.1441	498.77971	62.65259	-404.39399	341.7414	-113.9138	-818.55202	-813.67	-690.80583	-571.19634	-306.75359	0
393	-300.24423	199.34915	498.77971	50.44754	-399.51197	349.06443	-116.35481	-762.40879	-745.32172	-629.78058	-529.69917	-289.66652	0
394	-288.03918	211.5542	498.77971	38.24249	-392.18894	353.94645	-116.35481	-703.82455	-681.85546	-571.19634	-488.202	-272.57945	0
395	-275.83413	216.43622	491.45668	28.47845	-382.4249	353.94645	-111.47279	-650.12233	-623.27122	-517.49412	-449.14584	-255.49238	0
396	-263.62908	216.43622	479.25163	23.59643	-370.21985	346.62342	-109.03178	-598.86112	-569.569	-471.11493	-412.53069	-240.84632	0
397	-251.42403	213.99521	464.60557	18.71441	-358.0148	339.30039	-106.59077	-554.92294	-523.18981	-432.05877	-380.79756	-226.20026	0
398	-236.77797	209.11319	445.07749	13.83239	-340.92773	327.09534	-106.59077	-515.86678	-484.13365	-395.44362	-351.50544	-216.43622	0
399	-227.01393	201.79016	427.99042	11.39138	-326.28167	314.89029	-104.14976	-479.25163	-452.40052	-366.1515	-327.09534	-204.23117	0
400	-219.6909	194.46713	413.34436	11.39138	-316.51763	302.68524	-99.26774	-447.5185	-420.66739	-344.18241	-307.56726	-194.46713	0
401	-212.36787	187.1441	398.6983	11.39138	-304.31258	292.9212	-96.82673	-418.22638	-393.81628	-327.09534	-292.9212	-187.1441	0
402	-207.48585	177.38006	384.05224	13.83239	-294.54854	280.71615	-94.38572	-391.37527	-369.40618	-310.00827	-283.15716	-182.26208	0
403	-205.04484	170.05703	374.2882	16.2734	-289.66652	270.95211	-94.38572	-369.40618	-349.8781	-295.36221	-275.83413	-182.26208	0
404	-202.60383	162.734	364.52416	18.71441	-282.34349	263.62908	-94.38572	-352.31911	-335.23204	-283.15716	-270.95211	-179.82107	0
405	-200.16282	155.41097	354.76012	21.15542	-277.46147	253.86504	-94.38572	-340.11406	-323.02699	-273.39312	-266.07009	-179.82107	0
406	-195.2808	145.64693	340.11406	23.59643	-267.69743	241.65999	-91.94471	-325.468	-310.82194	-266.07009	-258.74706	-177.38006	0
407	-190.39878	138.3239	327.90901	26.03744	-257.93339	231.89595	-89.5037	-313.26295	-301.0579	-261.18807	-251.42403	-177.38006	0
408	-183.07575	131.00087	313.26295	26.03744	-248.16935	222.13191	-87.06269	-303.49891	-296.17588	-256.30605	-246.54201	-177.38006	0
409	-180.63474	123.67784	303.49891	28.47845	-240.84632	212.36787	-82.18067	-293.73487	-288.85285	-248.98302	-239.21898	-174.93905	0
410	-173.31171	118.79582	291.29386	26.03744	-231.08228	205.04484	-74.85764	-283.97083	-283.97083	-248.98302	-234.33696	-172.49804	0
411	-168.42969	116.35481	283.97083	26.03744	-226.20026	200.16282	-69.97562	-274.20679	-274.20679	-246.54201	-229.45494	-170.05703	0
412	-163.54767	113.9138	276.6478	23.59643	-218.87723	195.2808	-62.65259	-262.00174	-264.44275	-241.65999	-227.01393	-167.61602	0
413	-163.54767	111.47279	274.20679	26.03744	-218.87723	192.83979	-57.77057	-254.67871	-254.67871	-236.77797	-227.01393	-167.61602	0
414	-165.98868	106.59077	271.76578	28.47845	-218.87723	187.95777	-50.44754	-247.35568	-244.91467	-229.45494	-227.01393	-167.61602	-1500	QRS-0
415	-165.98868	104.14976	269.32477	30.91946	-216.43622	185.51676	-48.00653	-240.03265	-237.59164	-227.01393	-224.57292	-167.61602	0
416	-168.42969	104.14976	271.76578	30.91946	-218.87723	187.95777	-45.56552	-237.59164	-227.8276	-222.13191	-222.13191	-167.61602	0
417	-170.8707	101.70875	271.76578	33.36047	-221.31824	185.51676	-40.6835	-235.15063	-222.94558	-217.24989	-219.6909	-170.05703	0
418	-170.8707	96.82673	266.88376	35.80148	-218.87723	180.63474	-35.80148	-230.26861	-215.62255	-209.92686	-214.80888	-170.05703	0
419	-168.42969	96.82673	264.44275	35.80148	-216.43622	180.63474	-30.91946	-227.8276	-210.74053	-205.04484	-207.48585	-167.61602	0
420	-163.54767	94.38572	257.11972	33.36047	-209.11319	175.75272	-26.03744	-222.94558	-203.4175	-200.16282	-202.60383	-167.61602	0
421	-163.54767	91.94471	254.67871	35.80148	-209.11319	173.31171	-23.59643	-218.06356	-196.09447	-197.72181	-200.16282	-165.17501	0
422	-158.66565	84.62168	242.47366	35.80148	-199.34915	163.54767	-16.2734	-210.74053	-188.77144	-195.2808	-195.2808	-165.17501	0
423	-158.66565	79.73966	237.59164	38.24249	-196.90814	158.66565	-11.39138	-200.97649	-179.0074	-190.39878	-192.83979	-165.17501	0
424	-156.22464	79.73966	235.15063	38.24249	-194.46713	156.22464	-6.50936	-196.09447	-171.68437	-187.95777	-190.39878	-162.734	0
425	-158.66565	79.73966	237.59164	38.24249	-196.90814	158.66565	-4.06835	-191.21245	-164.36134	-183.07575	-187.95777	-160.29299	0
426	-161.10666	79.73966	240.03265	40.6835	-199.34915	158.66565	-4.06835	-188.77144	-159.47932	-178.19373	-187.95777	-160.29299	0
427	-161.10666	79.73966	240.03265	40.6835	-199.34915	158.66565	-4.06835	-186.33043	-157.03831	-173.31171	-185.51676	-160.29299	0
428	-161.10666	84.62168	244.91467	38.24249	-201.79016	163.54767	1.62734	-186.33043	-154.5973	-165.98868	-180.63474	-155.41097	0
429	-158.66565	87.06269	244.91467	35.80148	-201.79016	165.98868	1.62734	-183.88942	-152.15629	-158.66565	-175.75272	-148.08794	0
430	-156.22464	87.06269	242.47366	33.36047	-199.34915	163.54767	4.06835	-183.88942	-147.27427	-153.78363	-170.8707	-140.76491	0
431	-153.78363	87.06269	240.03265	33.36047	-196.90814	163.54767	4.06835	-179.0074	-142.39225	-148.90161	-168.42969	-133.44188	0
432	-151.34262	87.06269	237.59164	30.91946	-194.46713	161.10666	8.95037	-174.12538	-137.51023	-141.57858	-165.98868	-126.11885	0
433	-156.22464	89.5037	244.91467	33.36047	-199.34915	165.98868	11.39138	-169.24336	-130.1872	-136.69656	-163.54767	-121.23683	0
434	-156.22464	91.94471	247.35568	30.91946	-201.79016	168.42969	13.83239	-161.92033	-117.98215	-124.49151	-158.66565	-116.35481	0
435	-158.66565	94.38572	252.2377	30.91946	-204.23117	173.31171	16.2734	-157.03831	-105.7771	-114.72747	-153.78363	-111.47279	0
436	-165.98868	96.82673	262.00174	33.36047	-213.99521	178.19373	18.71441	-149.71528	-91.13104	-104.96343	-151.34262	-106.59077	0
437	-170.8707	101.70875	271.76578	33.36047	-221.31824	185.51676	23.59643	-142.39225	-78.92599	-95.19939	-146.4606	-101.70875	0
438	-168.42969	111.47279	279.08881	28.47845	-223.75925	195.2808	28.47845	-135.06922	-71.60296	-82.99434	-139.13757	-94.38572	0
439	-165.98868	118.79582	283.97083	23.59643	-223.75925	200.16282	33.36047	-127.74619	-59.39791	-68.34828	-129.37353	-87.06269	0
440	-161.10666	123.67784	283.97083	18.71441	-221.31824	202.60383	35.80148	-117.98215	-47.19286	-58.58424	-119.60949	-77.29865	0
441	-161.10666	128.55986	288.85285	16.2734	-223.75925	207.48585	40.6835	-110.65912	-37.42882	-51.26121	-112.28646	-69.97562	0
442	-158.66565	135.88289	293.73487	11.39138	-226.20026	214.80888	45.56552	-98.45407	-25.22377	-41.49717	-102.52242	-62.65259	0
443	-156.22464	143.20592	298.61689	6.50936	-226.20026	219.6909	50.44754	-88.69003	-10.57771	-26.85111	-92.75838	-55.32956	0
444	-156.22464	148.08794	303.49891	3.25468	-228.64127	224.57292	55.32956	-76.48498	6.50936	-9.76404	-82.99434	-50.44754	0
445	-156.22464	152.96996	308.38093	0.81367	-231.08228	229.45494	60.21158	-66.72094	23.59643	2.44101	-75.67131	-43.12451	0
446	-158.66565	157.85198	315.70396	0.81367	-235.9643	236.77797	62.65259	-54.51589	43.12451	19.52808	-68.34828	-39.86983	0
447	-156.22464	165.17501	320.58598	-4.06835	-238.40531	241.65999	69.97562	-42.31084	62.65259	34.98781	-56.14323	-34.98781	0
448	-153.78363	170.05703	323.02699	-8.95037	-238.40531	246.54201	74.85764	-30.10579	75.67131	52.07488	-43.93818	-27.66478	0
449	-153.78363	174.93905	327.90901	-11.39138	-240.84632	251.42403	79.73966	-15.45973	90.31737	69.16195	-30.91946	-22.78276	0
450	-148.90161	179.82107	327.90901	-16.2734	-238.40531	253.86504	84.62168	-0.81367	109.84545	81.367	-18.71441	-13.01872	0
451	-144.01959	184.70309	327.90901	-21.15542	-235.9643	256.30605	89.5037	13.83239	126.93252	96.01306	-4.06835	-5.69569	0
452	-141.57858	189.58511	330.35002	-23.59643	-235.9643	258.74706	94.38572	33.36047	146.4606	110.65912	10.57771	1.62734	0
453	-136.69656	194.46713	330.35002	-28.47845	-233.52329	261.18807	99.26774	48.00653	165.98868	125.30518	20.34175	6.50936	0
454	-131.81454	201.79016	332.79103	-35.80148	-231.08228	266.07009	104.14976	65.90727	185.51676	144.83326	32.5468	11.39138	0
455	-126.93252	204.23117	330.35002	-38.24249	-228.64127	266.07009	106.59077	80.55333	205.04484	159.47932	42.31084	13.83239	0
456	-119.60949	209.11319	327.90901	-45.56552	-223.75925	268.5111	111.47279	97.6404	227.01393	176.56639	52.07488	18.71441	0
457	-114.72747	211.5542	325.468	-48.00653	-218.87723	268.5111	113.9138	114.72747	244.101	191.21245	61.83892	21.15542	0
458	-107.40444	213.99521	320.58598	-52.88855	-213.99521	266.07009	118.79582	129.37353	256.30605	205.85851	76.48498	26.03744	0
459	-97.6404	213.99521	310.82194	-57.77057	-204.23117	261.18807	121.23683	144.01959	270.95211	220.50457	88.69003	30.91946	0
460	-87.87636	213.99521	301.0579	-62.65259	-194.46713	256.30605	123.67784	161.10666	285.59817	230.26861	100.89508	38.24249	0
461	-78.11232	213.99521	291.29386	-67.53461	-184.70309	251.42403	128.55986	178.19373	300.24423	240.03265	113.10013	45.56552	0
462	-68.34828	213.99521	281.52982	-72.41663	-174.93905	246.54201	131.00087	195.2808	314.89029	247.35568	122.86417	50.44754	0
463	-58.58424	209.11319	266.88376	-74.85764	-162.734	236.77797	133.44188	212.36787	324.65433	254.67871	130.1872	55.32956	0
464	-48.8202	209.11319	257.11972	-79.73966	-152.96996	231.89595	133.44188	224.57292	336.85938	264.44275	137.51023	55.32956	0
465	-39.05616	204.23117	242.47366	-82.18067	-140.76491	222.13191	133.44188	239.21898	351.50544	271.76578	142.39225	57.77057	0
466	-31.73313	201.79016	232.70962	-84.62168	-131.00087	217.24989	133.44188	253.86504	363.71049	279.08881	147.27427	57.77057	0
467	-21.96909	194.46713	215.62255	-87.06269	-118.79582	205.04484	133.44188	263.62908	371.03352	283.97083	154.5973	57.77057	0
468	-12.20505	187.1441	198.53548	-87.06269	-104.14976	192.83979	135.88289	273.39312	375.91554	286.41184	159.47932	57.77057	0
469	-7.32303	179.82107	186.33043	-87.06269	-96.82673	183.07575	135.88289	285.59817	378.35655	288.85285	166.80235	60.21158	0
470	3.25468	170.05703	166.80235	-87.06269	-82.18067	168.42969	138.3239	295.36221	383.23857	286.41184	171.68437	62.65259	0
471	10.57771	157.85198	147.27427	-84.62168	-67.53461	153.78363	138.3239	302.68524	383.23857	281.52982	174.12538	65.0936	0
472	15.45973	145.64693	130.1872	-79.73966	-57.77057	139.13757	138.3239	310.00827	383.23857	276.6478	174.12538	60.21158	0
473	15.45973	131.00087	115.54114	-72.41663	-50.44754	124.49151	135.88289	314.89029	380.79756	271.76578	171.68437	57.77057	0
474	17.90074	116.35481	98.45407	-67.53461	-40.6835	107.40444	133.44188	319.77231	380.79756	269.32477	169.24336	52.88855	0
475	22.78276	104.14976	81.367	-62.65259	-28.47845	92.75838	128.55986	319.77231	378.35655	264.44275	166.80235	48.00653	0
476	22.78276	89.5037	66.72094	-55.32956	-21.15542	78.11232	123.67784	322.21332	375.91554	259.56073	161.92033	43.12451	0
477	27.66478	77.29865	49.63387	-52.88855	-11.39138	63.46626	121.23683	322.21332	371.03352	257.11972	161.92033	35.80148	0
478	34.98781	67.53461	32.5468	-50.44754	1.62734	51.26121	116.35481	322.21332	361.26948	252.2377	161.92033	33.36047	0
479	42.31084	57.77057	15.45973	-50.44754	13.83239	36.61515	113.9138	322.21332	351.50544	247.35568	161.92033	33.36047	0
480	52.07488	48.00653	-4.88202	-50.44754	28.47845	21.96909	111.47279	319.77231	344.18241	237.59164	161.92033	33.36047	0
481	56.9569	35.80148	-21.96909	-45.56552	40.6835	7.32303	106.59077	317.3313	334.41837	225.38659	159.47932	28.47845	0
482	64.27993	28.47845	-36.61515	-45.56552	50.44754	-3.25468	104.14976	314.89029	324.65433	215.62255	157.03831	26.03744	0
483	69.16195	18.71441	-51.26121	-43.12451	60.21158	-15.45973	101.70875	312.44928	314.89029	205.85851	152.15629	21.15542	0
484	69.16195	11.39138	-58.58424	-40.6835	65.0936	-22.78276	99.26774	305.12625	305.12625	198.53548	144.83326	16.2734	0
485	69.16195	1.62734	-68.34828	-35.80148	69.97562	-32.5468	94.38572	297.80322	295.36221	188.77144	137.51023	11.39138	0
486	69.16195	-6.50936	-75.67131	-30.91946	72.41663	-39.86983	89.5037	288.03918	285.59817	179.0074	130.1872	4.06835	0
487	69.16195	-13.83239	-82.99434	-28.47845	74.85764	-47.19286	87.06269	280.71615	273.39312	171.68437	122.86417	-3.25468	0
488	69.16195	-23.59643	-92.75838	-23.59643	79.73966	-56.9569	82.18067	270.95211	258.74706	161.92033	117.98215	-8.1367	0
489	64.27993	-33.36047	-97.6404	-16.2734	79.73966	-64.27993	77.29865	258.74706	246.54201	154.5973	115.54114	-13.01872	0
490	64.27993	-40.6835	-104.96343	-11.39138	84.62168	-71.60296	72.41663	251.42403	234.33696	142.39225	108.21811	-15.45973	0
491	64.27993	-50.44754	-114.72747	-6.50936	89.5037	-81.367	69.97562	239.21898	222.13191	130.1872	103.33609	-20.34175	0
492	64.27993	-57.77057	-122.0505	-4.06835	91.94471	-88.69003	65.0936	231.89595	209.92686	117.98215	96.01306	-25.22377	0
493	64.27993	-62.65259	-126.93252	-1.62734	94.38572	-93.57205	62.65259	224.57292	197.72181	108.21811	88.69003	-30.10579	0
494	64.27993	-67.53461	-131.81454	0.81367	96.82673	-98.45407	57.77057	217.24989	187.95777	100.89508	81.367	-34.98781	0
495	64.27993	-74.85764	-139.13757	3.25468	101.70875	-105.7771	55.32956	207.48585	180.63474	91.13104	74.04397	-39.86983	0
496	64.27993	-77.29865	-141.57858	6.50936	101.70875	-108.21811	50.44754	197.72181	170.8707	83.80801	64.27993	-45.56552	0
497	61.83892	-77.29865	-139.13757	6.50936	99.26774	-108.21811	45.56552	190.39878	161.10666	76.48498	59.39791	-50.44754	0
498	61.83892	-82.18067	-144.01959	8.95037	101.70875	-113.10013	43.12451	183.07575	151.34262	71.60296	54.51589	-55.32956	0
499	61.83892	-84.62168	-146.4606	11.39138	104.14976	-115.54114	40.6835	173.31171	139.13757	66.72094	52.07488	-57.77057	0
500	66.72094	-87.06269	-153.78363	8.95037	109.03178	-120.42316	38.24249	165.98868	131.81454	59.39791	49.63387	-57.77057	0
501	66.72094	-87.06269	-153.78363	8.95037	109.03178	-120.42316	38.24249	163.54767	126.93252	54.51589	47.19286	-60.21158	0
502	69.16195	-89.5037	-158.66565	8.95037	113.9138	-122.86417	33.36047	158.66565	117.16848	47.19286	42.31084	-62.65259	0
503	69.16195	-91.94471	-161.10666	11.39138	113.9138	-125.30518	30.91946	153.78363	109.84545	37.42882	39.86983	-65.0936	0
504	64.27993	-96.82673	-161.10666	16.2734	111.47279	-127.74619	30.91946	148.90161	104.96343	32.5468	34.98781	-69.97562	0
505	61.83892	-99.26774	-161.10666	18.71441	111.47279	-130.1872	28.47845	144.01959	100.08141	27.66478	30.10579	-72.41663	0
506	59.39791	-99.26774	-158.66565	18.71441	109.03178	-127.74619	28.47845	141.57858	97.6404	21.96909	25.22377	-74.85764	0
507	54.51589	-99.26774	-153.78363	21.15542	104.14976	-125.30518	28.47845	139.13757	95.19939	21.96909	20.34175	-79.73966	0
508	54.51589	-101.70875	-156.22464	23.59643	104.14976	-127.74619	28.47845	134.25555	90.31737	17.08707	20.34175	-79.73966	0
509	49.63387	-104.14976	-153.78363	26.03744	101.70875	-127.74619	28.47845	129.37353	82.99434	14.64606	20.34175	-82.18067	0
510	49.63387	-106.59077	-156.22464	28.47845	101.70875	-130.1872	26.03744	126.93252	78.11232	9.76404	20.34175	-82.18067	0
511	52.07488	-111.47279	-163.54767	28.47845	106.59077	-137.51023	23.59643	122.0505	70.78929	4.88202	17.90074	-82.18067	0
512	52.07488	-116.35481	-168.42969	30.91946	109.03178	-142.39225	23.59643	122.0505	68.34828	0	15.45973	-82.18067	0
513	52.07488	-121.23683	-173.31171	33.36047	111.47279	-147.27427	21.15542	117.16848	65.90727	-7.32303	13.01872	-84.62168	0
514	47.19286	-123.67784	-170.8707	38.24249	109.03178	-147.27427	16.2734	112.28646	62.65259	-9.76404	10.57771	-89.5037	0
515	44.75185	-126.11885	-170.8707	40.6835	106.59077	-147.27427	16.2734	109.84545	62.65259	-9.76404	5.69569	-91.94471	0
516	44.75185	-121.23683	-165.98868	38.24249	104.14976	-142.39225	13.83239	107.40444	62.65259	-12.20505	0.81367	-94.38572	0
517	44.75185	-118.79582	-163.54767	35.80148	104.14976	-139.95124	11.39138	104.96343	62.65259	-12.20505	0.81367	-96.82673	0
518	44.75185	-116.35481	-161.10666	35.80148	101.70875	-137.51023	11.39138	102.52242	60.21158	-12.20505	-1.62734	-96.82673	0
519	47.19286	-113.9138	-161.10666	33.36047	104.14976	-137.51023	8.95037	100.08141	55.32956	-12.20505	-1.62734	-96.82673	0
520	47.19286	-113.9138	-161.10666	33.36047	104.14976	-137.51023	8.95037	95.19939	52.88855	-14.64606	0.81367	-96.82673	0
521	47.19286	-116.35481	-163.54767	33.36047	104.14976	-139.95124	6.50936	92.75838	48.00653	-19.52808	0.81367	-96.82673	0
522	49.63387	-121.23683	-170.8707	35.80148	109.03178	-144.83326	6.50936	92.75838	48.00653	-21.96909	-1.62734	-96.82673	0
523	49.63387	-121.23683	-170.8707	35.80148	109.03178	-144.83326	4.06835	92.75838	45.56552	-29.29212	-1.62734	-99.26774	0
524	49.63387	-123.67784	-173.31171	35.80148	111.47279	-147.27427	1.62734	90.31737	45.56552	-29.29212	-4.06835	-104.14976	0
525	47.19286	-123.67784	-170.8707	38.24249	109.03178	-147.27427	1.62734	87.87636	45.56552	-29.29212	-8.95037	-106.59077	0
526	42.31084	-123.67784	-165.98868	40.6835	104.14976	-144.83326	-0.81367	87.87636	45.56552	-29.29212	-11.39138	-106.59077	0
527	39.86983	-123.67784	-163.54767	40.6835	101.70875	-142.39225	-4.06835	87.87636	48.00653	-29.29212	-13.83239	-109.03178	0
528	37.42882	-123.67784	-161.10666	43.12451	99.26774	-142.39225	-4.06835	87.87636	45.56552	-29.29212	-13.83239	-109.03178	0
529	34.98781	-121.23683	-156.22464	43.12451	94.38572	-137.51023	-4.06835	85.43535	43.12451	-26.85111	-11.39138	-109.03178	0
530	34.98781	-121.23683	-156.22464	43.12451	94.38572	-137.51023	-4.06835	85.43535	43.12451	-24.4101	-8.95037	-106.59077	0
531	37.42882	-121.23683	-158.66565	40.6835	96.82673	-139.95124	-4.06835	85.43535	40.6835	-26.85111	-6.50936	-104.14976	0
532	37.42882	-118.79582	-156.22464	40.6835	96.82673	-137.51023	-4.06835	85.43535	40.6835	-26.85111	-6.50936	-104.14976	0
533	39.86983	-116.35481	-156.22464	38.24249	96.82673	-135.06922	-4.06835	85.43535	40.6835	-26.85111	-4.06835	-101.70875	0
534	39.86983	-116.35481	-156.22464	38.24249	96.82673	-135.06922	-4.06835	85.43535	40.6835	-24.4101	-4.06835	-101.70875	0
535	37.42882	-113.9138	-151.34262	38.24249	94.38572	-132.62821	-4.06835	85.43535	45.56552	-24.4101	-4.06835	-101.70875	0
536	30.10579	-116.35481	-146.4606	43.12451	87.06269	-130.1872	-4.06835	85.43535	48.00653	-21.96909	-6.50936	-104.14976	0
537	25.22377	-116.35481	-141.57858	45.56552	82.18067	-127.74619	-6.50936	85.43535	48.00653	-19.52808	-6.50936	-106.59077	0
538	25.22377	-116.35481	-141.57858	45.56552	82.18067	-127.74619	-6.50936	82.99434	48.00653	-19.52808	-6.50936	-106.59077	0
539	25.22377	-113.9138	-139.13757	43.12451	82.18067	-125.30518	-6.50936	80.55333	48.00653	-17.08707	-4.06835	-106.59077	0
540	22.78276	-113.9138	-136.69656	45.56552	79.73966	-125.30518	-6.50936	80.55333	48.00653	-14.64606	-4.06835	-106.59077	0
541	22.78276	-113.9138	-136.69656	45.56552	79.73966	-125.30518	-6.50936	80.55333	48.00653	-19.52808	-1.62734	-106.59077	0
542	25.22377	-109.03178	-134.25555	40.6835	79.73966	-120.42316	-6.50936	85.43535	48.00653	-19.52808	-1.62734	-106.59077	0
543	27.66478	-109.03178	-136.69656	40.6835	82.18067	-122.86417	-4.06835	90.31737	50.44754	-19.52808	0.81367	-106.59077	0
544	27.66478	-106.59077	-134.25555	38.24249	79.73966	-120.42316	-4.06835	92.75838	52.88855	-14.64606	0.81367	-106.59077	0
545	25.22377	-109.03178	-134.25555	40.6835	79.73966	-120.42316	-0.81367	97.6404	57.77057	-12.20505	0.81367	-106.59077	0
546	22.78276	-109.03178	-131.81454	43.12451	77.29865	-120.42316	1.62734	100.08141	62.65259	-7.32303	0.81367	-104.14976	0
547	20.34175	-104.14976	-124.49151	40.6835	72.41663	-113.10013	4.06835	104.96343	70.78929	-2.44101	3.25468	-104.14976	0
548	20.34175	-99.26774	-119.60949	38.24249	69.97562	-108.21811	6.50936	109.84545	75.67131	2.44101	8.1367	-104.14976	0
549	25.22377	-94.38572	-119.60949	33.36047	72.41663	-105.7771	8.95037	112.28646	78.11232	9.76404	13.01872	-99.26774	0
550	30.10579	-89.5037	-119.60949	28.47845	74.85764	-103.33609	11.39138	114.72747	82.99434	14.64606	20.34175	-94.38572	0
551	34.98781	-82.18067	-117.16848	23.59643	74.85764	-98.45407	13.83239	119.60949	87.87636	14.64606	25.22377	-89.5037	0
552	42.31084	-74.85764	-117.16848	16.2734	79.73966	-96.01306	16.2734	126.93252	95.19939	19.52808	30.10579	-84.62168	0
553	47.19286	-67.53461	-114.72747	8.95037	79.73966	-91.13104	18.71441	129.37353	100.08141	21.96909	37.42882	-79.73966	0
554	49.63387	-62.65259	-112.28646	6.50936	79.73966	-86.24902	21.15542	134.25555	104.96343	30.10579	42.31084	-74.85764	0
555	49.63387	-57.77057	-107.40444	3.25468	77.29865	-81.367	23.59643	139.13757	114.72747	34.98781	47.19286	-72.41663	0
556	47.19286	-55.32956	-102.52242	3.25468	74.85764	-78.92599	23.59643	141.57858	122.0505	42.31084	47.19286	-72.41663	0
557	44.75185	-52.88855	-97.6404	3.25468	69.97562	-74.04397	26.03744	144.01959	126.93252	47.19286	52.07488	-69.97562	0
558	42.31084	-50.44754	-92.75838	3.25468	67.53461	-71.60296	26.03744	146.4606	129.37353	49.63387	54.51589	-69.97562	0
559	42.31084	-48.00653	-90.31737	3.25468	65.0936	-69.16195	26.03744	146.4606	129.37353	56.9569	56.9569	-69.97562	0
560	44.75185	-48.00653	-92.75838	0.81367	67.53461	-69.16195	26.03744	148.90161	131.81454	59.39791	61.83892	-67.53461	0
561	47.19286	-45.56552	-92.75838	-1.62734	69.97562	-69.16195	26.03744	151.34262	134.25555	59.39791	64.27993	-65.0936	0
562	49.63387	-43.12451	-92.75838	-4.06835	69.97562	-66.72094	26.03744	156.22464	136.69656	61.83892	66.72094	-65.0936	0
563	49.63387	-38.24249	-87.87636	-6.50936	67.53461	-61.83892	21.15542	158.66565	139.13757	61.83892	69.16195	-65.0936	0
564	49.63387	-38.24249	-87.87636	-6.50936	67.53461	-61.83892	18.71441	158.66565	139.13757	66.72094	69.16195	-62.65259	0
565	44.75185	-38.24249	-82.99434	-4.06835	62.65259	-59.39791	16.2734	158.66565	144.01959	69.16195	69.16195	-62.65259	0
566	39.86983	-35.80148	-75.67131	-1.62734	57.77057	-54.51589	8.95037	153.78363	146.4606	71.60296	69.16195	-62.65259	0
567	37.42882	-38.24249	-75.67131	0.81367	55.32956	-56.9569	4.06835	151.34262	146.4606	76.48498	71.60296	-62.65259	0
568	34.98781	-38.24249	-73.2303	0.81367	52.88855	-54.51589	-0.81367	146.4606	146.4606	76.48498	74.04397	-62.65259	0
569	34.98781	-38.24249	-73.2303	0.81367	52.88855	-54.51589	-4.06835	141.57858	144.01959	81.367	78.92599	-57.77057	0
570	34.98781	-38.24249	-73.2303	0.81367	52.88855	-54.51589	-11.39138	134.25555	141.57858	83.80801	83.80801	-50.44754	0
571	42.31084	-38.24249	-80.55333	-1.62734	60.21158	-59.39791	-16.2734	131.81454	139.13757	81.367	86.24902	-45.56552	0
572	49.63387	-35.80148	-85.43535	-6.50936	67.53461	-59.39791	-21.15542	129.37353	136.69656	81.367	88.69003	-43.12451	0
573	56.9569	-35.80148	-92.75838	-11.39138	74.85764	-64.27993	-28.47845	124.49151	131.81454	74.04397	88.69003	-43.12451	0
574	59.39791	-35.80148	-95.19939	-11.39138	77.29865	-64.27993	-35.80148	117.16848	126.93252	74.04397	83.80801	-39.86983	0
575	61.83892	-35.80148	-97.6404	-13.83239	79.73966	-66.72094	-40.6835	114.72747	124.49151	74.04397	81.367	-37.42882	0
576	64.27993	-38.24249	-102.52242	-13.83239	82.18067	-69.16195	-43.12451	114.72747	124.49151	69.16195	76.48498	-34.98781	0
577	64.27993	-40.6835	-104.96343	-11.39138	84.62168	-71.60296	-45.56552	112.28646	124.49151	69.16195	74.04397	-30.10579	0
578	66.72094	-40.6835	-107.40444	-13.83239	87.06269	-74.04397	-48.00653	112.28646	124.49151	66.72094	74.04397	-17.90074	0
579	71.60296	-40.6835	-112.28646	-16.2734	91.94471	-76.48498	-48.00653	112.28646	122.0505	66.72094	78.92599	-3.25468	0
580	78.92599	-40.6835	-119.60949	-18.71441	99.26774	-78.92599	-50.44754	112.28646	119.60949	66.72094	78.92599	13.83239	0
581	86.24902	-38.24249	-124.49151	-23.59643	104.14976	-81.367	-50.44754	109.84545	117.16848	61.83892	78.92599	28.47845	0
582	93.57205	-38.24249	-131.81454	-28.47845	111.47279	-83.80801	-52.88855	109.84545	117.16848	59.39791	78.92599	43.12451	0
583	96.01306	-40.6835	-136.69656	-28.47845	116.35481	-88.69003	-52.88855	112.28646	117.16848	54.51589	81.367	57.77057	0
584	96.01306	-43.12451	-139.13757	-26.03744	116.35481	-91.13104	-52.88855	112.28646	117.16848	54.51589	78.92599	65.0936	0
585	93.57205	-50.44754	-144.01959	-21.15542	118.79582	-96.01306	-52.88855	114.72747	117.16848	54.51589	76.48498	69.97562	0
586	88.69003	-57.77057	-146.4606	-16.2734	116.35481	-100.89508	-52.88855	117.16848	122.0505	52.07488	74.04397	74.85764	0
587	86.24902	-62.65259	-148.90161	-11.39138	116.35481	-105.7771	-48.00653	119.60949	124.49151	52.07488	74.04397	74.85764	0
588	86.24902	-67.53461	-153.78363	-8.95037	118.79582	-110.65912	-43.12451	124.49151	126.93252	54.51589	76.48498	79.73966	0
589	83.80801	-69.97562	-153.78363	-6.50936	118.79582	-110.65912	-40.6835	124.49151	124.49151	56.9569	78.92599	82.18067	0
590	83.80801	-69.97562	-153.78363	-6.50936	118.79582	-110.65912	-35.80148	124.49151	124.49151	56.9569	78.92599	87.06269	0
591	83.80801	-67.53461	-151.34262	-8.95037	116.35481	-108.21811	-30.91946	126.93252	122.0505	52.07488	81.367	89.5037	0
592	83.80801	-67.53461	-151.34262	-8.95037	116.35481	-108.21811	-23.59643	129.37353	122.0505	52.07488	83.80801	91.94471	0
593	78.92599	-72.41663	-151.34262	-4.06835	113.9138	-110.65912	-18.71441	129.37353	119.60949	47.19286	83.80801	89.5037	0
594	71.60296	-77.29865	-148.90161	3.25468	109.03178	-113.10013	-16.2734	129.37353	119.60949	44.75185	76.48498	84.62168	0
595	61.83892	-79.73966	-141.57858	8.95037	101.70875	-110.65912	-11.39138	126.93252	119.60949	42.31084	71.60296	79.73966	0
596	54.51589	-87.06269	-141.57858	16.2734	96.82673	-113.10013	-8.95037	124.49151	117.16848	37.42882	61.83892	72.41663	0
597	44.75185	-91.94471	-136.69656	23.59643	89.5037	-113.10013	-4.06835	122.0505	114.72747	32.5468	56.9569	62.65259	0
598	34.98781	-99.26774	-134.25555	30.91946	84.62168	-115.54114	-4.06835	119.60949	107.40444	25.22377	52.07488	55.32956	0
599	30.10579	-104.14976	-134.25555	35.80148	82.18067	-117.98215	-0.81367	114.72747	100.08141	21.96909	47.19286	48.00653	0
600	30.10579	-106.59077	-136.69656	38.24249	82.18067	-120.42316	1.62734	114.72747	97.6404	17.08707	47.19286	45.56552	0
601	30.10579	-106.59077	-136.69656	38.24249	82.18067	-120.42316	4.06835	112.28646	90.31737	9.76404	44.75185	40.6835	0
602	30.10579	-111.47279	-141.57858	40.6835	84.62168	-125.30518	4.06835	112.28646	87.87636	4.88202	39.86983	35.80148	0
603	30.10579	-116.35481	-146.4606	43.12451	87.06269	-130.1872	6.50936	112.28646	85.43535	-2.44101	37.42882	30.91946	0
604	27.66478	-116.35481	-144.01959	43.12451	84.62168	-130.1872	6.50936	112.28646	82.99434	-4.88202	32.5468	26.03744	0
605	25.22377	-116.35481	-141.57858	45.56552	82.18067	-127.74619	6.50936	112.28646	82.99434	-7.32303	30.10579	23.59643	0
606	20.34175	-121.23683	-141.57858	50.44754	79.73966	-130.1872	6.50936	112.28646	82.99434	-7.32303	25.22377	18.71441	0
607	13.01872	-123.67784	-136.69656	55.32956	74.85764	-130.1872	6.50936	109.84545	82.99434	-7.32303	22.78276	13.83239	0
608	10.57771	-126.11885	-136.69656	57.77057	72.41663	-130.1872	6.50936	109.84545	80.55333	-7.32303	22.78276	11.39138	0
609	10.57771	-126.11885	-136.69656	57.77057	72.41663	-130.1872	8.95037	109.84545	78.11232	-2.44101	25.22377	11.39138	0
610	8.1367	-128.55986	-136.69656	60.21158	72.41663	-132.62821	11.39138	109.84545	78.11232	-2.44101	27.66478	16.2734	0
611	10.57771	-128.55986	-139.13757	57.77057	74.85764	-132.62821	13.83239	112.28646	78.11232	-2.44101	32.5468	18.71441	0
612	13.01872	-128.55986	-141.57858	57.77057	77.29865	-135.06922	16.2734	114.72747	80.55333	-2.44101	32.5468	18.71441	0
613	13.01872	-128.55986	-141.57858	57.77057	77.29865	-135.06922	18.71441	117.16848	80.55333	-2.44101	32.5468	21.15542	0
614	13.01872	-128.55986	-141.57858	57.77057	77.29865	-135.06922	21.15542	119.60949	82.99434	-2.44101	30.10579	21.15542	0
615	10.57771	-128.55986	-139.13757	57.77057	74.85764	-132.62821	21.15542	122.0505	85.43535	-2.44101	27.66478	21.15542	0
616	10.57771	-128.55986	-139.13757	57.77057	74.85764	-132.62821	21.15542	122.0505	90.31737	-2.44101	25.22377	18.71441	0
617	8.1367	-126.11885	-134.25555	57.77057	69.97562	-130.1872	21.15542	122.0505	92.75838	-2.44101	22.78276	16.2734	0
618	5.69569	-123.67784	-129.37353	57.77057	67.53461	-125.30518	21.15542	122.0505	92.75838	-2.44101	20.34175	11.39138	0
619	5.69569	-123.67784	-129.37353	57.77057	67.53461	-125.30518	21.15542	119.60949	90.31737	-2.44101	22.78276	11.39138	0
620	3.25468	-123.67784	-126.93252	60.21158	65.0936	-125.30518	21.15542	119.60949	87.87636	-2.44101	22.78276	11.39138	0
621	3.25468	-123.67784	-126.93252	60.21158	65.0936	-125.30518	23.59643	117.16848	85.43535	-4.88202	25.22377	11.39138	0
622	3.25468	-126.11885	-129.37353	60.21158	65.0936	-127.74619	23.59643	117.16848	82.99434	-7.32303	25.22377	8.95037	0
623	5.69569	-126.11885	-131.81454	60.21158	67.53461	-127.74619	23.59643	117.16848	80.55333	-9.76404	25.22377	8.95037	0
624	5.69569	-128.55986	-134.25555	60.21158	69.97562	-130.1872	26.03744	119.60949	80.55333	-12.20505	22.78276	8.95037	0
625	8.1367	-128.55986	-136.69656	60.21158	72.41663	-132.62821	26.03744	122.0505	82.99434	-12.20505	17.90074	8.95037	0
626	8.1367	-126.11885	-134.25555	57.77057	69.97562	-130.1872	26.03744	122.0505	85.43535	-14.64606	13.01872	4.06835	0
627	5.69569	-123.67784	-129.37353	57.77057	67.53461	-125.30518	26.03744	124.49151	90.31737	-17.08707	10.57771	1.62734	0
628	3.25468	-121.23683	-124.49151	57.77057	62.65259	-122.86417	28.47845	124.49151	90.31737	-17.08707	8.1367	-0.81367	0
629	0.81367	-121.23683	-122.0505	60.21158	60.21158	-120.42316	28.47845	124.49151	90.31737	-17.08707	8.1367	-3.25468	0
630	-1.62734	-118.79582	-117.16848	60.21158	57.77057	-117.98215	30.91946	122.0505	87.87636	-14.64606	8.1367	-5.69569	0
631	-4.06835	-116.35481	-112.28646	60.21158	52.88855	-113.10013	30.91946	122.0505	82.99434	-14.64606	8.1367	-10.57771	0
632	-1.62734	-116.35481	-114.72747	57.77057	55.32956	-115.54114	30.91946	119.60949	80.55333	-14.64606	5.69569	-10.57771	0
633	-1.62734	-118.79582	-117.16848	60.21158	57.77057	-117.98215	30.91946	119.60949	75.67131	-17.08707	5.69569	-13.01872	0
634	0.81367	-118.79582	-119.60949	57.77057	60.21158	-117.98215	28.47845	119.60949	73.2303	-19.52808	3.25468	-15.45973	0
635	0.81367	-121.23683	-122.0505	60.21158	60.21158	-120.42316	26.03744	117.16848	73.2303	-24.4101	-1.62734	-17.90074	0
636	-1.62734	-121.23683	-119.60949	60.21158	57.77057	-120.42316	23.59643	117.16848	75.67131	-26.85111	-8.95037	-20.34175	0
637	-7.32303	-121.23683	-114.72747	62.65259	52.88855	-117.98215	21.15542	114.72747	78.11232	-31.73313	-16.2734	-25.22377	0
638	-9.76404	-123.67784	-114.72747	65.0936	52.88855	-120.42316	21.15542	114.72747	78.11232	-31.73313	-16.2734	-25.22377	0
639	-14.64606	-126.11885	-112.28646	69.97562	48.00653	-120.42316	18.71441	112.28646	75.67131	-31.73313	-18.71441	-27.66478	0
640	-17.08707	-126.11885	-109.84545	69.97562	45.56552	-117.98215	18.71441	112.28646	73.2303	-31.73313	-18.71441	-30.10579	0
641	-17.08707	-126.11885	-109.84545	69.97562	45.56552	-117.98215	18.71441	109.84545	73.2303	-31.73313	-18.71441	-32.5468	0
642	-17.08707	-126.11885	-109.84545	69.97562	45.56552	-117.98215	18.71441	109.84545	68.34828	-31.73313	-18.71441	-32.5468	0
643	-12.20505	-128.55986	-117.16848	69.97562	52.88855	-122.86417	21.15542	109.84545	62.65259	-36.61515	-16.2734	-32.5468	0
644	-9.76404	-128.55986	-119.60949	67.53461	55.32956	-125.30518	23.59643	109.84545	62.65259	-39.05616	-16.2734	-32.5468	0
645	-7.32303	-126.11885	-119.60949	65.0936	55.32956	-122.86417	23.59643	109.84545	62.65259	-41.49717	-21.15542	-34.98781	0
646	-4.06835	-126.11885	-122.0505	65.0936	57.77057	-122.86417	28.47845	119.60949	70.78929	-41.49717	-26.03744	-39.86983	0
647	-4.06835	-131.00087	-126.93252	67.53461	60.21158	-127.74619	35.80148	134.25555	82.99434	-39.05616	-28.47845	-45.56552	0
648	-7.32303	-135.88289	-129.37353	69.97562	60.21158	-132.62821	48.00653	153.78363	97.6404	-29.29212	-26.03744	-48.00653	0
649	-7.32303	-135.88289	-129.37353	69.97562	60.21158	-132.62821	57.77057	178.19373	119.60949	-12.20505	-18.71441	-48.00653	0
650	-1.62734	-135.88289	-134.25555	67.53461	65.0936	-135.06922	69.97562	202.60383	148.90161	12.20505	-1.62734	-48.00653	0
651	8.1367	-131.00087	-139.13757	60.21158	72.41663	-135.06922	79.73966	234.33696	180.63474	42.31084	22.78276	-39.86983	0
652	25.22377	-131.00087	-156.22464	52.88855	89.5037	-142.39225	87.06269	263.62908	217.24989	78.92599	56.9569	-22.78276	0
653	44.75185	-131.00087	-175.75272	43.12451	109.03178	-152.15629	91.94471	295.36221	258.74706	120.42316	103.33609	1.62734	0
654	74.04397	-128.55986	-202.60383	26.03744	138.3239	-164.36134	89.5037	331.97736	310.00827	174.12538	159.47932	38.24249	0
655	110.65912	-121.23683	-231.89595	3.25468	170.05703	-176.56639	79.73966	368.59251	368.59251	237.59164	232.70962	89.5037	0
656	159.47932	-111.47279	-270.95211	-23.59643	213.99521	-191.21245	60.21158	402.76665	427.17675	308.38093	320.58598	160.29299	0
657	215.62255	-94.38572	-310.00827	-60.21158	262.81541	-200.97649	30.91946	427.17675	480.87897	384.05224	425.54941	245.72834	0
658	283.97083	-72.41663	-356.38746	-106.59077	318.95864	-213.18154	-6.50936	444.26382	529.69917	464.60557	550.04092	355.57379	0
659	357.20113	-40.6835	-397.88463	-157.85198	377.54288	-218.06356	-55.32956	441.82281	563.87331	545.1589	681.85546	480.0653	0
660	442.63648	-1.62734	-444.26382	-221.31824	443.45015	-222.94558	-118.79582	417.41271	578.51937	618.3892	823.43404	619.20287	0
661	532.95385	48.00653	-485.76099	-289.66652	509.35742	-218.06356	-196.90814	363.71049	568.75533	676.97344	967.45363	770.54549	0
662	618.3892	99.26774	-519.93513	-358.0148	570.38267	-210.74053	-282.34349	285.59817	524.81715	711.14758	1099.26817	921.88811	0
663	689.17849	145.64693	-544.34523	-416.59904	616.76186	-198.53548	-365.33783	187.95777	454.02786	713.58859	1204.2316	1056.14366	0
664	740.4397	184.70309	-556.55028	-462.97823	648.49499	-186.33043	-438.56813	75.67131	356.38746	679.41445	1260.37483	1156.22507	0
665	759.96778	216.43622	-544.34523	-487.38833	653.37701	-164.36134	-502.03439	-52.07488	231.89595	606.18415	1257.93382	1212.3683	0
666	747.76273	240.84632	-507.73008	-494.71136	628.96691	-132.62821	-550.85459	-196.09447	78.11232	489.01567	1187.14453	1212.3683	-1250	T-0
667	701.38354	255.49238	-446.70483	-477.62429	575.26469	-96.01306	-582.58772	-362.08315	-103.33609	323.02699	1043.12494	1146.46103	0
668	620.83021	255.49238	-366.1515	-438.56813	494.71136	-54.51589	-597.23378	-530.51284	-305.93992	117.98215	825.87505	1017.0875	0
669	508.54375	248.16935	-261.18807	-377.54288	384.86591	-5.69569	-587.46974	-686.73748	-508.54375	-104.96343	562.24597	836.45276	0
670	379.17022	235.9643	-144.01959	-306.75359	262.81541	46.37919	-558.17762	-825.87505	-696.50152	-324.65433	279.08881	633.84893	0
671	249.79669	226.20026	-24.4101	-238.40531	138.3239	102.52242	-521.56247	-940.60252	-857.60818	-524.81715	13.01872	431.2451	0
672	130.1872	216.43622	86.24902	-172.49804	23.59643	151.34262	-475.18328	-1023.59686	-982.09969	-693.24684	-217.24989	245.72834	0
673	22.78276	199.34915	176.56639	-111.47279	-77.29865	187.95777	-419.04005	-1067.53504	-1065.09403	-825.06138	-402.76665	91.94471	0
674	-65.90727	187.1441	252.2377	-60.21158	-157.85198	219.6909	-358.0148	-1074.85807	-1104.15019	-905.61471	-534.58119	-22.78276	0
675	-136.69656	177.38006	313.26295	-21.15542	-223.75925	244.101	-294.54854	-1052.88898	-1104.15019	-947.11188	-617.57553	-101.70875	0
676	-190.39878	167.61602	357.20113	11.39138	-272.57945	261.18807	-235.9643	-1023.59686	-1082.1811	-959.31693	-663.95472	-155.41097	0
677	-231.89595	162.734	393.81628	33.36047	-311.63561	278.27514	-184.70309	-991.86373	-1050.44797	-954.43491	-683.4828	-189.58511	0
678	-266.07009	160.29299	425.54941	52.88855	-345.80975	292.9212	-138.3239	-962.57161	-1018.71484	-942.22986	-690.80583	-213.99521	0
679	-295.36221	160.29299	454.84153	67.53461	-375.10187	307.56726	-101.70875	-945.48454	-991.86373	-925.14279	-690.80583	-233.52329	0
680	-319.77231	160.29299	479.25163	79.73966	-399.51197	319.77231	-79.73966	-940.60252	-972.33565	-910.49673	-690.80583	-250.61036	0
681	-336.85938	160.29299	496.3387	87.06269	-416.59904	327.09534	-72.41663	-940.60252	-955.24858	-895.85067	-685.92381	-262.81541	0
682	-346.62342	160.29299	506.10274	91.94471	-426.36308	331.97736	-77.29865	-943.04353	-933.27949	-873.88158	-671.27775	-270.13844	0
683	-349.06443	160.29299	508.54375	94.38572	-428.80409	334.41837	-89.5037	-933.27949	-906.42838	-849.47148	-651.74967	-272.57945	0
684	-346.62342	165.17501	510.98476	89.5037	-428.80409	336.85938	-101.70875	-918.63343	-869.81323	-815.29734	-629.78058	-270.13844	0
685	-339.30039	170.05703	508.54375	84.62168	-423.92207	339.30039	-113.9138	-889.34131	-820.99303	-773.80017	-600.48846	-262.81541	0
686	-329.53635	179.82107	508.54375	74.85764	-419.04005	344.18241	-123.67784	-847.84414	-762.40879	-722.53896	-566.31432	-248.16935	0
687	-317.3313	192.02612	508.54375	62.65259	-411.71702	349.06443	-128.55986	-794.14192	-698.94253	-666.39573	-527.25816	-233.52329	0
688	-305.12625	201.79016	506.10274	50.44754	-404.39399	353.94645	-128.55986	-737.99869	-635.47627	-610.2525	-485.76099	-218.87723	0
689	-290.48019	206.67218	496.3387	40.6835	-392.18894	351.50544	-123.67784	-684.29647	-579.33304	-558.99129	-449.14584	-201.79016	0
690	-275.83413	209.11319	484.13365	33.36047	-379.98389	346.62342	-123.67784	-635.47627	-525.63082	-512.6121	-412.53069	-184.70309	0
691	-261.18807	209.11319	469.48759	26.03744	-365.33783	339.30039	-121.23683	-589.09708	-481.69264	-471.11493	-380.79756	-170.05703	0
692	-244.101	204.23117	447.5185	18.71441	-345.80975	324.65433	-121.23683	-547.59991	-447.5185	-439.3818	-353.94645	-157.85198	0
693	-229.45494	199.34915	427.99042	13.83239	-328.72268	312.44928	-118.79582	-513.42577	-413.34436	-412.53069	-329.53635	-148.08794	0
694	-217.24989	192.02612	408.46234	11.39138	-311.63561	300.24423	-113.9138	-479.25163	-384.05224	-388.12059	-310.00827	-138.3239	0
695	-207.48585	187.1441	393.81628	8.95037	-299.43056	290.48019	-113.9138	-449.95951	-357.20113	-368.59251	-295.36221	-131.00087	0
696	-200.16282	179.82107	379.17022	8.95037	-289.66652	278.27514	-111.47279	-425.54941	-332.79103	-351.50544	-288.03918	-128.55986	0
697	-197.72181	172.49804	369.40618	11.39138	-282.34349	270.95211	-113.9138	-406.02133	-313.26295	-336.85938	-280.71615	-128.55986	0
698	-195.2808	165.17501	359.64214	13.83239	-277.46147	261.18807	-113.9138	-388.93426	-296.17588	-324.65433	-273.39312	-128.55986	0
699	-190.39878	157.85198	347.43709	16.2734	-267.69743	251.42403	-113.9138	-371.84719	-283.97083	-307.56726	-268.5111	-126.11885	0
700	-187.95777	148.08794	335.23204	18.71441	-260.3744	241.65999	-113.9138	-359.64214	-274.20679	-292.9212	-263.62908	-126.11885	0
701	-185.51676	135.88289	320.58598	23.59643	-253.05137	227.01393	-113.9138	-347.43709	-266.88376	-280.71615	-258.74706	-128.55986	0
702	-183.07575	126.11885	308.38093	28.47845	-245.72834	217.24989	-111.47279	-337.67305	-259.56073	-266.07009	-253.86504	-128.55986	0
703	-178.19373	118.79582	296.17588	28.47845	-235.9643	207.48585	-106.59077	-327.90901	-257.11972	-256.30605	-248.98302	-128.55986	0
704	-178.19373	111.47279	288.85285	33.36047	-233.52329	200.16282	-99.26774	-320.58598	-249.79669	-239.21898	-244.101	-123.67784	0
705	-178.19373	104.14976	281.52982	35.80148	-228.64127	192.83979	-94.38572	-310.82194	-242.47366	-229.45494	-241.65999	-123.67784	0
706	-180.63474	101.70875	281.52982	38.24249	-231.08228	190.39878	-89.5037	-303.49891	-235.15063	-219.6909	-241.65999	-123.67784	0
707	-180.63474	96.82673	276.6478	40.6835	-228.64127	185.51676	-82.18067	-293.73487	-225.38659	-209.92686	-239.21898	-121.23683	0
708	-183.07575	91.94471	274.20679	45.56552	-228.64127	183.07575	-77.29865	-283.97083	-218.06356	-202.60383	-234.33696	-118.79582	0
709	-183.07575	87.06269	269.32477	48.00653	-226.20026	178.19373	-69.97562	-276.6478	-210.74053	-195.2808	-229.45494	-118.79582	0
710	-185.51676	82.18067	266.88376	50.44754	-226.20026	173.31171	-65.0936	-271.76578	-203.4175	-190.39878	-227.01393	-118.79582	0
711	-183.07575	82.18067	264.44275	50.44754	-223.75925	173.31171	-60.21158	-264.44275	-196.09447	-185.51676	-224.57292	-118.79582	0
712	-180.63474	77.29865	257.11972	50.44754	-218.87723	165.98868	-52.88855	-257.11972	-188.77144	-180.63474	-222.13191	-118.79582	0
713	-180.63474	74.85764	254.67871	52.88855	-216.43622	163.54767	-48.00653	-254.67871	-183.88942	-180.63474	-217.24989	-118.79582	0
714	-180.63474	74.85764	254.67871	52.88855	-216.43622	163.54767	-43.12451	-249.79669	-179.0074	-170.8707	-214.80888	-116.35481	0
715	-180.63474	74.85764	254.67871	52.88855	-216.43622	163.54767	-38.24249	-244.91467	-171.68437	-163.54767	-209.92686	-116.35481	0
716	-180.63474	72.41663	252.2377	52.88855	-216.43622	161.10666	-33.36047	-240.03265	-161.92033	-156.22464	-209.92686	-116.35481	0
717	-183.07575	69.97562	252.2377	55.32956	-216.43622	161.10666	-28.47845	-235.15063	-154.5973	-148.90161	-207.48585	-113.9138	0
718	-183.07575	65.0936	247.35568	57.77057	-213.99521	156.22464	-26.03744	-232.70962	-149.71528	-141.57858	-202.60383	-116.35481	0
719	-183.07575	65.0936	247.35568	57.77057	-213.99521	156.22464	-23.59643	-227.8276	-144.83326	-134.25555	-195.2808	-113.9138	0
720	-183.07575	65.0936	247.35568	57.77057	-213.99521	156.22464	-21.15542	-220.50457	-137.51023	-129.37353	-190.39878	-109.03178	0
721	-180.63474	65.0936	244.91467	57.77057	-211.5542	153.78363	-16.2734	-215.62255	-127.74619	-129.37353	-187.95777	-106.59077	0
722	-178.19373	65.0936	242.47366	55.32956	-209.11319	153.78363	-13.83239	-208.29952	-122.86417	-122.0505	-187.95777	-104.14976	0
723	-180.63474	67.53461	247.35568	55.32956	-213.99521	156.22464	-8.95037	-205.85851	-117.98215	-119.60949	-183.07575	-101.70875	0
724	-180.63474	69.97562	249.79669	55.32956	-213.99521	158.66565	-6.50936	-203.4175	-110.65912	-112.28646	-178.19373	-96.82673	0
725	-180.63474	72.41663	252.2377	52.88855	-216.43622	161.10666	-4.06835	-200.97649	-103.33609	-102.52242	-173.31171	-94.38572	0
726	-183.07575	74.85764	257.11972	52.88855	-218.87723	165.98868	-0.81367	-196.09447	-91.13104	-92.75838	-170.8707	-89.5037	0
727	-185.51676	77.29865	262.00174	52.88855	-223.75925	168.42969	1.62734	-191.21245	-83.80801	-85.43535	-165.98868	-89.5037	0
728	-187.95777	82.18067	269.32477	52.88855	-228.64127	175.75272	6.50936	-186.33043	-76.48498	-73.2303	-156.22464	-84.62168	0
729	-187.95777	87.06269	274.20679	50.44754	-231.08228	180.63474	8.95037	-179.0074	-69.16195	-61.02525	-148.90161	-77.29865	0
730	-185.51676	91.94471	276.6478	45.56552	-231.08228	183.07575	11.39138	-174.12538	-56.9569	-51.26121	-141.57858	-72.41663	0
731	-185.51676	99.26774	283.97083	43.12451	-233.52329	190.39878	16.2734	-166.80235	-44.75185	-43.93818	-136.69656	-65.0936	0
732	-185.51676	104.14976	288.85285	40.6835	-235.9643	195.2808	18.71441	-157.03831	-34.98781	-34.17414	-134.25555	-62.65259	0
733	-185.51676	109.03178	293.73487	38.24249	-238.40531	200.16282	23.59643	-149.71528	-25.22377	-26.85111	-126.93252	-57.77057	0
734	-183.07575	113.9138	296.17588	33.36047	-238.40531	205.04484	26.03744	-142.39225	-13.01872	-14.64606	-122.0505	-55.32956	0
735	-183.07575	118.79582	301.0579	30.91946	-240.84632	209.92686	28.47845	-135.06922	1.62734	-4.88202	-117.16848	-50.44754	0
736	-183.07575	123.67784	305.93992	28.47845	-243.28733	214.80888	33.36047	-127.74619	16.2734	7.32303	-109.84545	-48.00653	0
737	-183.07575	128.55986	310.82194	26.03744	-245.72834	219.6909	35.80148	-117.98215	28.47845	19.52808	-102.52242	-45.56552	0
738	-178.19373	135.88289	313.26295	21.15542	-245.72834	224.57292	40.6835	-108.21811	40.6835	32.5468	-92.75838	-43.12451	0
739	-175.75272	140.76491	315.70396	16.2734	-245.72834	227.01393	43.12451	-98.45407	52.88855	44.75185	-80.55333	-34.98781	0
740	-168.42969	148.08794	315.70396	8.95037	-240.84632	231.89595	45.56552	-88.69003	70.78929	59.39791	-68.34828	-27.66478	0
741	-165.98868	152.96996	318.14497	6.50936	-240.84632	234.33696	50.44754	-76.48498	87.87636	69.16195	-58.58424	-22.78276	0
742	-161.10666	162.734	323.02699	-1.62734	-240.84632	241.65999	57.77057	-61.83892	107.40444	83.80801	-48.8202	-15.45973	0
743	-156.22464	170.05703	325.468	-6.50936	-240.84632	246.54201	62.65259	-47.19286	122.0505	93.57205	-36.61515	-8.1367	0
744	-156.22464	177.38006	332.79103	-11.39138	-243.28733	253.86504	67.53461	-32.5468	139.13757	110.65912	-26.03744	-0.81367	0
745	-153.78363	184.70309	337.67305	-16.2734	-245.72834	261.18807	72.41663	-17.90074	158.66565	127.74619	-16.2734	4.06835	0
746	-148.90161	187.1441	335.23204	-18.71441	-240.84632	261.18807	79.73966	-0.81367	178.19373	144.83326	-4.06835	11.39138	0
747	-144.01959	189.58511	332.79103	-23.59643	-238.40531	261.18807	87.06269	18.71441	195.2808	161.92033	8.1367	16.2734	0
748	-136.69656	194.46713	330.35002	-28.47845	-233.52329	261.18807	91.94471	35.80148	209.92686	181.44841	22.78276	21.15542	0
749	-129.37353	196.90814	325.468	-33.36047	-226.20026	261.18807	96.82673	50.44754	222.13191	198.53548	37.42882	28.47845	0
750	-126.93252	196.90814	323.02699	-35.80148	-223.75925	258.74706	101.70875	65.90727	239.21898	210.74053	49.63387	33.36047	0
751	-119.60949	192.02612	310.82194	-35.80148	-213.99521	251.42403	104.14976	80.55333	256.30605	222.94558	61.83892	40.6835	0
752	-112.28646	192.02612	303.49891	-40.6835	-206.67218	246.54201	109.03178	97.6404	270.95211	235.15063	71.60296	45.56552	0
753	-107.40444	194.46713	301.0579	-43.12451	-204.23117	246.54201	111.47279	112.28646	283.15716	242.47366	83.80801	48.00653	0
754	-102.52242	194.46713	296.17588	-45.56552	-199.34915	244.101	111.47279	126.93252	297.80322	254.67871	91.13104	52.88855	0
755	-95.19939	194.46713	288.85285	-50.44754	-192.02612	241.65999	113.9138	141.57858	310.00827	262.00174	98.45407	55.32956	0
756	-85.43535	194.46713	279.08881	-55.32956	-182.26208	236.77797	116.35481	156.22464	322.21332	271.76578	105.7771	57.77057	0
757	-78.11232	192.02612	269.32477	-57.77057	-172.49804	229.45494	118.79582	170.8707	334.41837	281.52982	113.10013	57.77057	0
758	-68.34828	187.1441	254.67871	-60.21158	-160.29299	219.6909	123.67784	185.51676	341.7414	288.85285	122.86417	62.65259	0
759	-58.58424	182.26208	240.03265	-62.65259	-148.08794	209.92686	126.11885	200.16282	349.06443	296.17588	132.62821	65.0936	0
760	-48.8202	177.38006	225.38659	-65.0936	-135.88289	200.16282	128.55986	212.36787	356.38746	301.0579	139.95124	65.0936	0
761	-39.05616	170.05703	208.29952	-65.0936	-123.67784	187.95777	131.00087	224.57292	363.71049	301.0579	144.83326	65.0936	0
762	-29.29212	162.734	191.21245	-67.53461	-109.03178	175.75272	133.44188	236.77797	368.59251	301.0579	147.27427	62.65259	0
763	-21.96909	155.41097	176.56639	-67.53461	-99.26774	165.98868	133.44188	246.54201	373.47453	301.0579	152.15629	62.65259	0
764	-12.20505	150.52895	161.92033	-69.97562	-87.06269	156.22464	133.44188	253.86504	375.91554	301.0579	154.5973	60.21158	0
765	-7.32303	140.76491	147.27427	-67.53461	-77.29865	144.01959	131.00087	261.18807	378.35655	298.61689	154.5973	57.77057	0
766	0.81367	131.00087	130.1872	-65.0936	-65.0936	131.81454	131.00087	268.5111	380.79756	296.17588	154.5973	52.88855	0
767	5.69569	121.23683	115.54114	-62.65259	-55.32956	119.60949	128.55986	275.83413	378.35655	293.73487	154.5973	48.00653	0
768	10.57771	109.03178	98.45407	-60.21158	-43.12451	104.96343	126.11885	278.27514	373.47453	291.29386	154.5973	45.56552	0
769	17.90074	96.82673	78.92599	-57.77057	-30.91946	87.87636	123.67784	280.71615	366.1515	286.41184	157.03831	43.12451	0
770	22.78276	82.18067	59.39791	-52.88855	-18.71441	70.78929	123.67784	283.15716	363.71049	279.08881	157.03831	40.6835	0
771	27.66478	67.53461	39.86983	-48.00653	-6.50936	53.70222	121.23683	285.59817	358.82847	269.32477	154.5973	38.24249	0
772	32.5468	55.32956	22.78276	-43.12451	6.50936	39.05616	118.79582	288.03918	351.50544	262.00174	149.71528	33.36047	0
773	34.98781	43.12451	8.1367	-38.24249	13.83239	26.85111	116.35481	288.03918	344.18241	252.2377	149.71528	28.47845	0
774	39.86983	33.36047	-7.32303	-35.80148	23.59643	14.64606	111.47279	288.03918	339.30039	247.35568	147.27427	26.03744	0
775	39.86983	23.59643	-17.08707	-30.91946	28.47845	4.88202	109.03178	285.59817	331.97736	237.59164	142.39225	21.15542	0
776	39.86983	11.39138	-29.29212	-26.03744	35.80148	-8.1367	104.14976	280.71615	324.65433	230.26861	135.06922	16.2734	0
777	39.86983	1.62734	-39.05616	-21.15542	40.6835	-17.90074	99.26774	275.83413	312.44928	220.50457	130.1872	8.95037	0
778	44.75185	-4.06835	-48.8202	-21.15542	45.56552	-25.22377	94.38572	268.5111	297.80322	213.18154	130.1872	4.06835	0
779	47.19286	-11.39138	-58.58424	-18.71441	52.88855	-34.98781	89.5037	261.18807	285.59817	205.85851	125.30518	-0.81367	0
780	52.07488	-21.15542	-73.2303	-16.2734	62.65259	-47.19286	84.62168	251.42403	273.39312	196.09447	120.42316	-5.69569	0
781	54.51589	-28.47845	-82.99434	-13.83239	67.53461	-54.51589	79.73966	244.101	261.18807	183.88942	113.10013	-8.1367	0
782	56.9569	-33.36047	-90.31737	-11.39138	72.41663	-61.83892	77.29865	236.77797	248.98302	174.12538	103.33609	-13.01872	0
783	56.9569	-40.6835	-97.6404	-8.95037	77.29865	-69.16195	74.85764	229.45494	239.21898	159.47932	98.45407	-17.90074	0
784	54.51589	-48.00653	-102.52242	-4.06835	77.29865	-74.04397	72.41663	222.13191	227.01393	154.5973	93.57205	-20.34175	0
785	52.07488	-55.32956	-107.40444	0.81367	79.73966	-81.367	69.97562	214.80888	217.24989	144.83326	83.80801	-25.22377	0
786	47.19286	-62.65259	-109.84545	6.50936	77.29865	-86.24902	67.53461	207.48585	207.48585	137.51023	76.48498	-27.66478	0
787	42.31084	-67.53461	-109.84545	11.39138	74.85764	-88.69003	65.0936	200.16282	197.72181	130.1872	69.16195	-32.5468	0
788	42.31084	-74.85764	-117.16848	16.2734	79.73966	-96.01306	62.65259	190.39878	185.51676	125.30518	66.72094	-37.42882	0
789	44.75185	-79.73966	-124.49151	16.2734	84.62168	-100.89508	60.21158	183.07575	170.8707	120.42316	61.83892	-39.86983	0
790	47.19286	-84.62168	-131.81454	18.71441	89.5037	-108.21811	57.77057	175.75272	163.54767	115.54114	56.9569	-43.12451	0
791	52.07488	-89.5037	-141.57858	18.71441	96.82673	-115.54114	57.77057	168.42969	153.78363	105.7771	52.07488	-43.12451	0
792	56.9569	-94.38572	-151.34262	18.71441	104.14976	-122.86417	52.88855	163.54767	141.57858	98.45407	44.75185	-48.00653	0
793	59.39791	-99.26774	-158.66565	18.71441	109.03178	-127.74619	50.44754	156.22464	131.81454	88.69003	39.86983	-52.88855	0
794	64.27993	-101.70875	-165.98868	18.71441	113.9138	-132.62821	48.00653	151.34262	122.0505	81.367	34.98781	-52.88855	0
795	64.27993	-104.14976	-168.42969	18.71441	116.35481	-135.06922	45.56552	146.4606	117.16848	76.48498	30.10579	-57.77057	0
796	59.39791	-109.03178	-168.42969	23.59643	113.9138	-137.51023	40.6835	139.13757	109.84545	69.16195	20.34175	-62.65259	0
797	52.07488	-113.9138	-165.98868	30.91946	109.03178	-139.95124	38.24249	134.25555	102.52242	64.27993	17.90074	-67.53461	0
798	47.19286	-113.9138	-161.10666	33.36047	104.14976	-137.51023	38.24249	131.81454	95.19939	61.83892	15.45973	-67.53461	0
799	42.31084	-116.35481	-158.66565	35.80148	99.26774	-137.51023	38.24249	126.93252	85.43535	59.39791	15.45973	-67.53461	0
800	37.42882	-121.23683	-158.66565	40.6835	96.82673	-139.95124	38.24249	122.0505	82.99434	54.51589	13.01872	-67.53461	0
801	32.5468	-126.11885	-158.66565	45.56552	94.38572	-142.39225	35.80148	122.0505	78.11232	47.19286	10.57771	-69.97562	0
802	32.5468	-128.55986	-161.10666	48.00653	96.82673	-144.83326	35.80148	119.60949	75.67131	42.31084	5.69569	-69.97562	0
803	34.98781	-128.55986	-163.54767	45.56552	99.26774	-144.83326	33.36047	114.72747	70.78929	34.98781	5.69569	-72.41663	0
804	34.98781	-128.55986	-163.54767	45.56552	99.26774	-144.83326	30.91946	112.28646	65.90727	34.98781	3.25468	-72.41663	0
805	34.98781	-128.55986	-163.54767	45.56552	99.26774	-144.83326	28.47845	109.84545	65.90727	32.5468	0.81367	-72.41663	0
806	32.5468	-128.55986	-161.10666	48.00653	96.82673	-144.83326	28.47845	109.84545	65.90727	32.5468	-4.06835	-74.85764	0
807	30.10579	-131.00087	-161.10666	50.44754	94.38572	-144.83326	26.03744	107.40444	62.65259	30.10579	-6.50936	-77.29865	0
808	32.5468	-128.55986	-161.10666	48.00653	96.82673	-144.83326	26.03744	102.52242	57.77057	30.10579	-6.50936	-79.73966	0
809	32.5468	-128.55986	-161.10666	48.00653	96.82673	-144.83326	23.59643	100.08141	50.44754	32.5468	-6.50936	-79.73966	0
810	34.98781	-128.55986	-163.54767	45.56552	99.26774	-144.83326	21.15542	97.6404	48.00653	30.10579	-8.95037	-77.29865	0
811	34.98781	-128.55986	-163.54767	45.56552	99.26774	-144.83326	21.15542	97.6404	45.56552	25.22377	-8.95037	-77.29865	0
812	37.42882	-131.00087	-168.42969	45.56552	101.70875	-149.71528	18.71441	95.19939	40.6835	21.96909	-13.83239	-77.29865	0
813	37.42882	-128.55986	-165.98868	45.56552	101.70875	-147.27427	16.2734	92.75838	38.24249	21.96909	-13.83239	-77.29865	0
814	39.86983	-126.11885	-165.98868	43.12451	101.70875	-144.83326	16.2734	92.75838	35.80148	21.96909	-13.83239	-74.85764	0
815	37.42882	-123.67784	-161.10666	43.12451	99.26774	-142.39225	16.2734	92.75838	38.24249	21.96909	-13.83239	-74.85764	0
816	34.98781	-123.67784	-158.66565	43.12451	96.82673	-139.95124	16.2734	90.31737	38.24249	21.96909	-18.71441	-72.41663	0
817	32.5468	-123.67784	-156.22464	45.56552	94.38572	-139.95124	13.83239	87.87636	35.80148	25.22377	-18.71441	-74.85764	0
818	30.10579	-126.11885	-156.22464	48.00653	91.94471	-139.95124	13.83239	85.43535	30.91946	25.22377	-18.71441	-77.29865	0
819	25.22377	-128.55986	-153.78363	50.44754	89.5037	-139.95124	11.39138	82.99434	26.03744	25.22377	-18.71441	-77.29865	0
820	22.78276	-128.55986	-151.34262	52.88855	87.06269	-139.95124	11.39138	80.55333	26.03744	25.22377	-18.71441	-77.29865	0
821	22.78276	-131.00087	-153.78363	52.88855	87.06269	-142.39225	8.95037	78.11232	26.03744	21.96909	-18.71441	-77.29865	0
822	25.22377	-128.55986	-153.78363	50.44754	89.5037	-139.95124	8.95037	78.11232	26.03744	19.52808	-23.59643	-79.73966	0
823	25.22377	-128.55986	-153.78363	50.44754	89.5037	-139.95124	8.95037	78.11232	23.59643	14.64606	-23.59643	-82.18067	0
824	25.22377	-128.55986	-153.78363	50.44754	89.5037	-139.95124	6.50936	78.11232	23.59643	17.08707	-23.59643	-82.18067	0
825	25.22377	-126.11885	-151.34262	50.44754	87.06269	-137.51023	6.50936	75.67131	26.03744	17.08707	-23.59643	-82.18067	0
826	22.78276	-126.11885	-148.90161	50.44754	84.62168	-137.51023	4.06835	73.2303	26.03744	17.08707	-23.59643	-82.18067	0
827	17.90074	-123.67784	-141.57858	52.88855	79.73966	-132.62821	4.06835	73.2303	26.03744	17.08707	-23.59643	-87.06269	0
828	17.90074	-123.67784	-141.57858	52.88855	79.73966	-132.62821	4.06835	70.78929	21.15542	19.52808	-23.59643	-87.06269	0
829	17.90074	-123.67784	-141.57858	52.88855	79.73966	-132.62821	4.06835	70.78929	18.71441	21.96909	-21.15542	-87.06269	0
830	22.78276	-121.23683	-144.01959	48.00653	82.18067	-132.62821	4.06835	70.78929	21.15542	21.96909	-18.71441	-84.62168	0
831	22.78276	-118.79582	-141.57858	48.00653	82.18067	-130.1872	4.06835	73.2303	21.15542	19.52808	-18.71441	-84.62168	0
832	22.78276	-121.23683	-144.01959	48.00653	82.18067	-132.62821	6.50936	78.11232	21.15542	19.52808	-21.15542	-84.62168	0
833	20.34175	-126.11885	-146.4606	52.88855	82.18067	-135.06922	8.95037	78.11232	21.15542	19.52808	-18.71441	-84.62168	0
834	15.45973	-128.55986	-144.01959	55.32956	79.73966	-135.06922	8.95037	78.11232	21.15542	21.96909	-18.71441	-84.62168	0
835	13.01872	-128.55986	-141.57858	57.77057	77.29865	-135.06922	8.95037	80.55333	26.03744	21.96909	-18.71441	-84.62168	0
836	10.57771	-128.55986	-139.13757	57.77057	74.85764	-132.62821	8.95037	80.55333	28.47845	25.22377	-21.15542	-84.62168	0
837	8.1367	-131.00087	-139.13757	60.21158	72.41663	-135.06922	8.95037	80.55333	28.47845	27.66478	-18.71441	-87.06269	0
838	8.1367	-131.00087	-139.13757	60.21158	72.41663	-135.06922	8.95037	82.99434	28.47845	32.5468	-16.2734	-87.06269	0
839	13.01872	-128.55986	-141.57858	57.77057	77.29865	-135.06922	8.95037	82.99434	28.47845	37.42882	-11.39138	-87.06269	0
840	15.45973	-123.67784	-139.13757	52.88855	77.29865	-130.1872	8.95037	85.43535	33.36047	39.86983	-8.95037	-84.62168	0
841	17.90074	-121.23683	-139.13757	50.44754	77.29865	-130.1872	11.39138	87.87636	38.24249	39.86983	-6.50936	-82.18067	0
842	17.90074	-121.23683	-139.13757	50.44754	77.29865	-130.1872	13.83239	92.75838	43.12451	42.31084	-4.06835	-82.18067	0
843	17.90074	-118.79582	-136.69656	50.44754	77.29865	-127.74619	18.71441	97.6404	48.00653	44.75185	0.81367	-79.73966	0
844	17.90074	-113.9138	-131.81454	48.00653	74.85764	-122.86417	21.15542	102.52242	52.88855	52.07488	3.25468	-77.29865	0
845	20.34175	-109.03178	-129.37353	43.12451	74.85764	-117.98215	21.15542	107.40444	60.21158	56.9569	5.69569	-74.85764	0
846	20.34175	-101.70875	-122.0505	40.6835	69.97562	-110.65912	26.03744	109.84545	65.90727	64.27993	10.57771	-74.85764	0
847	20.34175	-94.38572	-114.72747	35.80148	67.53461	-103.33609	30.91946	117.16848	73.2303	71.60296	15.45973	-72.41663	0
848	25.22377	-84.62168	-109.84545	28.47845	67.53461	-96.01306	35.80148	122.0505	80.55333	81.367	25.22377	-69.97562	0
849	30.10579	-74.85764	-104.96343	21.15542	67.53461	-88.69003	38.24249	126.93252	85.43535	88.69003	32.5468	-65.0936	0
850	34.98781	-67.53461	-102.52242	16.2734	67.53461	-83.80801	38.24249	131.81454	90.31737	93.57205	39.86983	-60.21158	0
851	39.86983	-60.21158	-100.08141	8.95037	69.97562	-78.92599	40.6835	134.25555	97.6404	96.01306	44.75185	-57.77057	0
852	44.75185	-55.32956	-100.08141	3.25468	72.41663	-76.48498	40.6835	139.13757	102.52242	100.89508	44.75185	-57.77057	0
853	47.19286	-50.44754	-97.6404	0.81367	72.41663	-74.04397	40.6835	144.01959	104.96343	103.33609	52.07488	-55.32956	0
854	47.19286	-48.00653	-95.19939	0.81367	69.97562	-71.60296	40.6835	144.01959	107.40444	108.21811	52.07488	-55.32956	0
855	42.31084	-48.00653	-90.31737	3.25468	65.0936	-69.16195	40.6835	146.4606	112.28646	110.65912	54.51589	-55.32956	0
856	39.86983	-45.56552	-85.43535	3.25468	62.65259	-64.27993	40.6835	148.90161	117.16848	115.54114	54.51589	-55.32956	0
857	37.42882	-45.56552	-82.99434	3.25468	60.21158	-64.27993	40.6835	151.34262	119.60949	117.98215	56.9569	-57.77057	0
858	37.42882	-43.12451	-80.55333	3.25468	57.77057	-61.83892	40.6835	151.34262	122.0505	125.30518	61.83892	-57.77057	0
859	37.42882	-43.12451	-80.55333	3.25468	57.77057	-61.83892	38.24249	151.34262	122.0505	130.1872	66.72094	-55.32956	0
860	37.42882	-40.6835	-78.11232	0.81367	57.77057	-59.39791	33.36047	151.34262	122.0505	132.62821	69.16195	-50.44754	0
861	39.86983	-38.24249	-78.11232	-1.62734	57.77057	-56.9569	30.91946	148.90161	124.49151	127.74619	74.04397	-48.00653	0
862	44.75185	-33.36047	-78.11232	-6.50936	60.21158	-54.51589	26.03744	148.90161	124.49151	127.74619	74.04397	-43.12451	0
863	42.31084	-28.47845	-70.78929	-6.50936	55.32956	-49.63387	23.59643	146.4606	126.93252	127.74619	78.92599	-39.86983	0
864	42.31084	-21.15542	-63.46626	-11.39138	52.88855	-42.31084	16.2734	141.57858	124.49151	130.1872	81.367	-32.5468	0
865	42.31084	-16.2734	-58.58424	-13.83239	50.44754	-37.42882	8.95037	136.69656	124.49151	130.1872	81.367	-27.66478	0
866	42.31084	-13.83239	-56.14323	-13.83239	48.00653	-34.98781	-0.81367	131.81454	122.0505	130.1872	81.367	-25.22377	0
867	44.75185	-11.39138	-56.14323	-16.2734	50.44754	-32.5468	-6.50936	126.93252	119.60949	130.1872	81.367	-22.78276	0
868	52.07488	-8.95037	-61.02525	-21.15542	55.32956	-34.98781	-13.83239	119.60949	112.28646	130.1872	81.367	-17.90074	0
869	56.9569	-11.39138	-68.34828	-23.59643	62.65259	-39.86983	-21.15542	112.28646	104.96343	127.74619	81.367	-13.01872	0
870	61.83892	-16.2734	-78.11232	-23.59643	69.97562	-47.19286	-26.03744	109.84545	102.52242	122.86417	78.92599	-8.1367	0
871	66.72094	-18.71441	-85.43535	-23.59643	74.85764	-52.07488	-28.47845	107.40444	100.08141	115.54114	76.48498	-0.81367	0
872	76.48498	-18.71441	-95.19939	-28.47845	84.62168	-56.9569	-30.91946	107.40444	97.6404	113.10013	71.60296	6.50936	0
873	81.367	-18.71441	-100.08141	-30.91946	89.5037	-59.39791	-30.91946	107.40444	95.19939	108.21811	71.60296	13.83239	0
874	83.80801	-21.15542	-104.96343	-30.91946	94.38572	-61.83892	-30.91946	109.84545	95.19939	108.21811	71.60296	23.59643	0
875	86.24902	-21.15542	-107.40444	-33.36047	96.82673	-64.27993	-30.91946	112.28646	97.6404	108.21811	71.60296	30.91946	0
876	91.13104	-21.15542	-112.28646	-35.80148	101.70875	-66.72094	-33.36047	112.28646	100.08141	105.7771	69.16195	38.24249	0
877	91.13104	-21.15542	-112.28646	-35.80148	101.70875	-66.72094	-38.24249	112.28646	97.6404	103.33609	69.16195	40.6835	0
878	88.69003	-26.03744	-114.72747	-30.91946	101.70875	-69.16195	-40.6835	107.40444	92.75838	103.33609	69.16195	43.12451	0
879	83.80801	-35.80148	-119.60949	-23.59643	101.70875	-76.48498	-40.6835	107.40444	87.87636	100.89508	69.16195	45.56552	0
880	78.92599	-43.12451	-122.0505	-18.71441	99.26774	-81.367	-40.6835	107.40444	87.87636	103.33609	69.16195	50.44754	0
881	76.48498	-52.88855	-129.37353	-11.39138	101.70875	-91.13104	-35.80148	107.40444	87.87636	98.45407	69.16195	50.44754	0
882	74.04397	-60.21158	-134.25555	-6.50936	104.14976	-96.01306	-33.36047	107.40444	85.43535	98.45407	64.27993	52.88855	0
883	69.16195	-67.53461	-136.69656	-1.62734	101.70875	-100.89508	-28.47845	107.40444	82.99434	98.45407	64.27993	52.88855	0
884	69.16195	-69.97562	-139.13757	0.81367	104.14976	-103.33609	-23.59643	112.28646	82.99434	105.7771	64.27993	57.77057	0
885	69.16195	-69.97562	-139.13757	0.81367	104.14976	-103.33609	-18.71441	114.72747	87.87636	110.65912	66.72094	62.65259	0
886	69.16195	-67.53461	-136.69656	-1.62734	101.70875	-100.89508	-13.83239	117.16848	90.31737	115.54114	64.27993	65.0936	0
887	69.16195	-65.0936	-134.25555	-1.62734	101.70875	-98.45407	-6.50936	119.60949	90.31737	117.98215	64.27993	65.0936	0
888	66.72094	-62.65259	-129.37353	-1.62734	96.82673	-96.01306	-4.06835	119.60949	90.31737	120.42316	66.72094	67.53461	0
889	61.83892	-62.65259	-124.49151	0.81367	91.94471	-93.57205	1.62734	119.60949	85.43535	120.42316	66.72094	67.53461	0
890	54.51589	-65.0936	-119.60949	3.25468	87.06269	-91.13104	6.50936	119.60949	85.43535	115.54114	64.27993	65.0936	0
891	49.63387	-69.97562	-119.60949	8.95037	84.62168	-93.57205	11.39138	119.60949	82.99434	108.21811	59.39791	62.65259	0
892	42.31084	-74.85764	-117.16848	16.2734	79.73966	-96.01306	16.2734	119.60949	78.11232	103.33609	52.07488	60.21158	0
893	34.98781	-82.18067	-117.16848	23.59643	74.85764	-98.45407	18.71441	117.16848	73.2303	93.57205	47.19286	52.88855	0
894	30.10579	-89.5037	-119.60949	28.47845	74.85764	-103.33609	18.71441	114.72747	65.90727	88.69003	39.86983	50.44754	0
895	22.78276	-96.82673	-119.60949	35.80148	69.97562	-108.21811	21.15542	112.28646	65.90727	81.367	32.5468	45.56552	0
896	17.90074	-104.14976	-122.0505	43.12451	69.97562	-113.10013	23.59643	112.28646	62.65259	78.92599	27.66478	40.6835	0
897	13.01872	-109.03178	-122.0505	48.00653	67.53461	-115.54114	23.59643	109.84545	60.21158	76.48498	22.78276	35.80148	0
898	10.57771	-113.9138	-124.49151	50.44754	67.53461	-117.98215	26.03744	107.40444	55.32956	74.04397	20.34175	33.36047	0
899	13.01872	-116.35481	-129.37353	50.44754	69.97562	-122.86417	26.03744	104.96343	52.88855	74.04397	20.34175	33.36047	0
900	13.01872	-118.79582	-131.81454	52.88855	72.41663	-125.30518	28.47845	104.96343	52.88855	71.60296	17.90074	33.36047	0
901	13.01872	-118.79582	-131.81454	52.88855	72.41663	-125.30518	28.47845	104.96343	52.88855	69.16195	17.90074	33.36047	0
902	15.45973	-118.79582	-134.25555	50.44754	74.85764	-125.30518	30.91946	104.96343	52.88855	66.72094	13.01872	35.80148	0
903	15.45973	-118.79582	-134.25555	50.44754	74.85764	-125.30518	33.36047	107.40444	52.88855	64.27993	15.45973	35.80148	0
904	15.45973	-118.79582	-134.25555	50.44754	74.85764	-125.30518	33.36047	107.40444	52.88855	66.72094	15.45973	40.6835	0
905	10.57771	-118.79582	-129.37353	52.88855	69.97562	-122.86417	35.80148	109.84545	60.21158	66.72094	15.45973	43.12451	0
906	8.1367	-116.35481	-124.49151	52.88855	65.0936	-120.42316	38.24249	112.28646	62.65259	69.16195	15.45973	45.56552	0
907	3.25468	-116.35481	-119.60949	55.32956	60.21158	-117.98215	40.6835	112.28646	62.65259	69.16195	15.45973	45.56552	0
908	3.25468	-118.79582	-122.0505	57.77057	62.65259	-120.42316	40.6835	114.72747	62.65259	74.04397	17.90074	48.00653	0
909	5.69569	-118.79582	-124.49151	55.32956	65.0936	-120.42316	40.6835	114.72747	62.65259	74.04397	17.90074	48.00653	0
910	8.1367	-118.79582	-126.93252	55.32956	67.53461	-122.86417	40.6835	114.72747	68.34828	74.04397	17.90074	50.44754	0
911	8.1367	-116.35481	-124.49151	52.88855	65.0936	-120.42316	40.6835	114.72747	68.34828	69.16195	17.90074	52.88855	0
912	8.1367	-111.47279	-119.60949	50.44754	62.65259	-115.54114	40.6835	114.72747	68.34828	69.16195	15.45973	50.44754	0
913	8.1367	-106.59077	-114.72747	48.00653	60.21158	-110.65912	40.6835	114.72747	65.90727	66.72094	15.45973	50.44754	0
914	8.1367	-106.59077	-114.72747	48.00653	60.21158	-110.65912	40.6835	112.28646	65.90727	69.16195	15.45973	52.88855	0
915	5.69569	-106.59077	-112.28646	50.44754	57.77057	-108.21811	40.6835	109.84545	68.34828	69.16195	15.45973	52.88855	0
916	3.25468	-109.03178	-112.28646	52.88855	57.77057	-110.65912	40.6835	109.84545	68.34828	69.16195	15.45973	52.88855	0
917	3.25468	-109.03178	-112.28646	52.88855	57.77057	-110.65912	40.6835	112.28646	65.90727	69.16195	15.45973	52.88855	0
918	5.69569	-113.9138	-119.60949	52.88855	62.65259	-115.54114	43.12451	112.28646	65.90727	69.16195	13.01872	52.88855	0
919	5.69569	-118.79582	-124.49151	55.32956	65.0936	-120.42316	43.12451	112.28646	62.65259	69.16195	15.45973	55.32956	0
920	5.69569	-118.79582	-124.49151	55.32956	65.0936	-120.42316	43.12451	112.28646	62.65259	64.27993	10.57771	55.32956	0
921	5.69569	-116.35481	-122.0505	55.32956	62.65259	-117.98215	40.6835	112.28646	65.90727	56.9569	5.69569	52.88855	0
922	0.81367	-116.35481	-117.16848	57.77057	57.77057	-115.54114	38.24249	112.28646	65.90727	52.07488	-1.62734	48.00653	0
923	-4.06835	-118.79582	-114.72747	60.21158	55.32956	-115.54114	35.80148	109.84545	65.90727	49.63387	-6.50936	45.56552	0
924	-7.32303	-121.23683	-114.72747	62.65259	52.88855	-117.98215	35.80148	109.84545	65.90727	52.07488	-8.95037	43.12451	0
925	-12.20505	-123.67784	-112.28646	67.53461	50.44754	-117.98215	35.80148	104.96343	65.90727	52.07488	-11.39138	40.6835	0
926	-19.52808	-126.11885	-107.40444	72.41663	43.12451	-117.98215	35.80148	104.96343	65.90727	52.07488	-13.83239	38.24249	0
927	-19.52808	-126.11885	-107.40444	72.41663	43.12451	-117.98215	35.80148	104.96343	62.65259	52.07488	-13.83239	35.80148	0
928	-14.64606	-123.67784	-109.84545	67.53461	48.00653	-117.98215	35.80148	104.96343	62.65259	52.07488	-13.83239	35.80148	0
929	-12.20505	-121.23683	-109.84545	65.0936	48.00653	-115.54114	35.80148	104.96343	62.65259	52.07488	-13.83239	38.24249	0
930	-9.76404	-116.35481	-107.40444	62.65259	48.00653	-113.10013	35.80148	104.96343	62.65259	47.19286	-16.2734	38.24249	0
931	-9.76404	-113.9138	-104.96343	60.21158	48.00653	-110.65912	38.24249	104.96343	62.65259	42.31084	-18.71441	38.24249	0
932	-9.76404	-111.47279	-102.52242	60.21158	45.56552	-108.21811	38.24249	107.40444	62.65259	37.42882	-26.03744	38.24249	0
933	-12.20505	-111.47279	-100.08141	60.21158	43.12451	-105.7771	38.24249	107.40444	65.90727	34.98781	-30.91946	35.80148	0
934	-14.64606	-111.47279	-97.6404	62.65259	40.6835	-105.7771	38.24249	104.96343	65.90727	34.98781	-30.91946	35.80148	0
935	-19.52808	-113.9138	-95.19939	65.0936	38.24249	-105.7771	38.24249	102.52242	62.65259	32.5468	-34.17414	33.36047	0
936	-19.52808	-116.35481	-97.6404	67.53461	38.24249	-108.21811	35.80148	97.6404	62.65259	32.5468	-34.17414	33.36047	0
937	-21.96909	-116.35481	-95.19939	67.53461	35.80148	-105.7771	35.80148	97.6404	57.77057	30.10579	-34.17414	33.36047	0
938	-19.52808	-116.35481	-97.6404	67.53461	38.24249	-108.21811	35.80148	92.75838	52.88855	30.10579	-34.17414	35.80148	0
939	-17.08707	-116.35481	-100.08141	65.0936	40.6835	-108.21811	35.80148	92.75838	50.44754	25.22377	-30.91946	35.80148	0
940	-14.64606	-116.35481	-102.52242	65.0936	43.12451	-110.65912	38.24249	92.75838	50.44754	21.96909	-30.91946	38.24249	0
941	-14.64606	-116.35481	-102.52242	65.0936	43.12451	-110.65912	43.12451	97.6404	55.32956	21.96909	-34.17414	38.24249	0
942	-14.64606	-118.79582	-104.96343	65.0936	45.56552	-113.10013	48.00653	109.84545	62.65259	21.96909	-36.61515	35.80148	0
943	-14.64606	-121.23683	-107.40444	67.53461	45.56552	-115.54114	57.77057	124.49151	73.2303	21.96909	-39.05616	30.91946	0
944	-14.64606	-123.67784	-109.84545	67.53461	48.00653	-117.98215	67.53461	144.01959	90.31737	34.98781	-36.61515	28.47845	0
945	-14.64606	-123.67784	-109.84545	67.53461	48.00653	-117.98215	77.29865	168.42969	112.28646	52.07488	-28.47845	28.47845	0
946	-9.76404	-121.23683	-112.28646	65.0936	50.44754	-117.98215	89.5037	195.2808	139.13757	76.48498	-11.39138	33.36047	0
947	-1.62734	-118.79582	-117.16848	60.21158	57.77057	-117.98215	99.26774	224.57292	170.8707	108.21811	15.45973	43.12451	0
948	15.45973	-116.35481	-131.81454	50.44754	72.41663	-122.86417	104.14976	253.86504	209.92686	149.71528	52.07488	62.65259	0
949	34.98781	-111.47279	-146.4606	38.24249	89.5037	-127.74619	106.59077	285.59817	251.42403	193.65346	100.89508	89.5037	0
950	64.27993	-109.03178	-173.31171	21.15542	118.79582	-139.95124	101.70875	324.65433	302.68524	247.35568	157.03831	126.11885	0
951	103.33609	-104.14976	-207.48585	0.81367	155.41097	-154.5973	89.5037	361.26948	361.26948	308.38093	230.26861	182.26208	0
952	149.71528	-94.38572	-244.101	-28.47845	196.90814	-169.24336	69.97562	395.44362	419.85372	376.72921	318.14497	253.05137	0
953	208.29952	-79.73966	-288.03918	-65.0936	248.16935	-183.88942	38.24249	419.85372	473.55594	449.95951	423.1084	345.80975	0
954	276.6478	-57.77057	-334.41837	-109.03178	304.31258	-196.09447	-0.81367	436.94079	517.49412	525.63082	542.71789	455.6552	0
955	357.20113	-28.47845	-385.67958	-165.17501	370.21985	-205.85851	-52.88855	434.49978	549.22725	598.86112	672.09142	582.58772	0
956	445.07749	8.95037	-436.94079	-226.20026	441.00914	-213.18154	-118.79582	410.08968	563.87331	667.2094	808.78798	721.72529	0
957	540.27688	55.32956	-485.76099	-296.98955	514.23944	-215.62255	-194.46713	356.38746	551.66826	723.35263	947.92555	875.50892	0
958	628.15324	106.59077	-522.37614	-367.77884	575.26469	-208.29952	-277.46147	275.83413	510.17109	755.08576	1072.41706	1021.96952	0
959	701.38354	152.96996	-549.22725	-426.36308	626.5259	-198.53548	-358.0148	180.63474	439.3818	755.08576	1165.17544	1148.90204	0
960	750.20374	194.46713	-556.55028	-472.74227	653.37701	-181.44841	-431.2451	65.90727	341.7414	713.58859	1204.2316	1236.7784	0
961	769.73182	226.20026	-544.34523	-497.15237	658.25903	-159.47932	-489.82934	-64.27993	217.24989	630.59425	1187.14453	1278.27557	0
962	750.20374	248.16935	-502.84806	-499.59338	626.5259	-127.74619	-533.76752	-213.18154	62.65259	506.10274	1096.82716	1261.1885	0
963	689.17849	255.49238	-434.49978	-472.74227	563.05964	-88.69003	-563.05964	-379.17022	-120.42316	335.23204	938.16151	1180.63517	0
964	601.30213	257.93339	-344.18241	-428.80409	472.74227	-42.31084	-570.38267	-550.04092	-323.02699	132.62821	711.14758	1039.05659	0
965	484.13365	255.49238	-229.45494	-370.21985	358.0148	14.64606	-558.17762	-703.82455	-518.30779	-80.55333	452.40052	855.98084	0
966	347.43709	248.16935	-100.08141	-296.98955	223.75925	75.67131	-528.8855	-840.52111	-698.94253	-290.48019	181.44841	658.25903	0
967	215.62255	238.40531	22.78276	-226.20026	96.82673	131.81454	-489.82934	-950.36656	-847.84414	-471.11493	-63.46626	467.86025	0
968	91.13104	226.20026	135.06922	-157.85198	-21.15542	180.63474	-441.00914	-1026.03787	-960.1306	-620.01654	-273.39312	299.43056	0
969	-7.32303	216.43622	222.94558	-104.14976	-113.9138	219.6909	-384.86591	-1062.65302	-1030.91989	-732.303	-434.49978	162.734	0
