samplenr	I	II	III	aVR	aVL	aVF	V1	V2	V3	V4	V5	V6	measurement
0	-30.10579	3.25468	32.5468	12.20505	-30.91946	17.90074	5.69569	0	-128.55986	-4.06835	32.5468	-3.25468	0
1	-27.66478	3.25468	30.10579	12.20505	-28.47845	15.45973	5.69569	2.44101	-128.55986	-6.50936	34.98781	-0.81367	0
2	-27.66478	-4.88202	22.78276	14.64606	-26.03744	8.1367	8.95037	2.44101	-131.00087	-16.2734	32.5468	4.06835	0
3	-32.5468	-19.52808	13.01872	24.4101	-23.59643	-4.88202	13.83239	2.44101	-135.88289	-24.4101	30.10579	8.95037	0
4	-34.98781	-31.73313	3.25468	31.73313	-21.15542	-14.64606	13.83239	2.44101	-143.20592	-31.73313	25.22377	11.39138	0
5	-34.98781	-36.61515	-1.62734	34.17414	-18.71441	-19.52808	13.83239	0	-148.08794	-36.61515	20.34175	8.95037	0
6	-39.86983	-39.05616	0.81367	39.05616	-21.15542	-19.52808	13.83239	-2.44101	-150.52895	-39.05616	15.45973	6.50936	0
7	-42.31084	-41.49717	0.81367	41.49717	-23.59643	-21.96909	16.2734	-9.76404	-150.52895	-41.49717	13.01872	4.06835	0
8	-37.42882	-36.61515	0.81367	36.61515	-21.15542	-19.52808	16.2734	-9.76404	-150.52895	-41.49717	13.01872	-0.81367	0
9	-39.86983	-34.17414	5.69569	36.61515	-23.59643	-14.64606	13.83239	-12.20505	-152.96996	-43.93818	5.69569	-6.50936	0
10	-39.86983	-29.29212	10.57771	34.17414	-26.03744	-9.76404	13.83239	-12.20505	-155.41097	-46.37919	5.69569	-11.39138	0
11	-44.75185	-31.73313	13.01872	36.61515	-30.91946	-9.76404	13.83239	-17.08707	-157.85198	-43.93818	5.69569	-16.2734	0
12	-44.75185	-31.73313	13.01872	36.61515	-30.91946	-9.76404	13.83239	-22.78276	-160.29299	-41.49717	5.69569	-21.15542	0
13	-44.75185	-26.85111	17.90074	34.17414	-33.36047	-4.88202	11.39138	-25.22377	-162.734	-39.05616	-1.62734	-30.91946	0
14	-52.07488	-24.4101	27.66478	36.61515	-40.6835	0.81367	5.69569	-30.10579	-167.61602	-43.93818	-11.39138	-40.6835	0
15	-59.39791	-26.85111	32.5468	41.49717	-48.00653	3.25468	5.69569	-32.5468	-170.05703	-43.93818	-17.08707	-48.00653	0
16	-61.83892	-29.29212	32.5468	43.93818	-48.00653	0.81367	11.39138	-37.42882	-170.05703	-46.37919	-21.96909	-48.00653	0
17	-64.27993	-29.29212	34.98781	46.37919	-50.44754	3.25468	11.39138	-42.31084	-170.05703	-51.26121	-24.4101	-45.56552	0
18	-61.83892	-29.29212	32.5468	43.93818	-48.00653	0.81367	13.83239	-39.86983	-167.61602	-56.14323	-24.4101	-38.24249	0
19	-54.51589	-29.29212	25.22377	41.49717	-40.6835	-1.62734	21.15542	-34.98781	-165.17501	-58.58424	-19.52808	-28.47845	0
20	-54.51589	-48.8202	5.69569	51.26121	-30.91946	-21.96909	26.03744	-32.5468	-165.17501	-61.02525	-11.39138	-13.83239	0
21	-56.9569	-61.02525	-4.88202	58.58424	-28.47845	-34.17414	26.03744	-34.98781	-167.61602	-63.46626	-6.50936	-6.50936	0
22	-59.39791	-68.34828	-9.76404	63.46626	-26.03744	-39.05616	28.47845	-37.42882	-170.05703	-65.90727	-1.62734	-3.25468	0
23	-61.83892	-70.78929	-9.76404	65.90727	-28.47845	-41.49717	30.91946	-39.86983	-174.93905	-65.90727	-1.62734	-3.25468	0
24	-59.39791	-68.34828	-9.76404	63.46626	-26.03744	-39.05616	33.36047	-39.86983	-174.93905	-65.90727	-1.62734	-3.25468	0
25	-59.39791	-61.02525	-1.62734	58.58424	-30.91946	-31.73313	33.36047	-42.31084	-177.38006	-65.90727	-1.62734	-6.50936	0
26	-59.39791	-53.70222	5.69569	56.14323	-33.36047	-24.4101	30.91946	-47.19286	-177.38006	-65.90727	-6.50936	-6.50936	0
27	-59.39791	-43.93818	15.45973	51.26121	-38.24249	-14.64606	28.47845	-52.07488	-174.93905	-61.02525	-8.95037	-8.95037	0
28	-56.9569	-36.61515	20.34175	46.37919	-40.6835	-9.76404	26.03744	-54.51589	-172.49804	-56.14323	-8.95037	-8.95037	0
29	-54.51589	-26.85111	27.66478	39.05616	-43.12451	0.81367	23.59643	-52.07488	-170.05703	-53.70222	-6.50936	-6.50936	0
30	-59.39791	-29.29212	30.10579	43.93818	-45.56552	0.81367	21.15542	-52.07488	-170.05703	-53.70222	-6.50936	-6.50936	0
31	-66.72094	-29.29212	37.42882	46.37919	-52.88855	3.25468	21.15542	-54.51589	-170.05703	-51.26121	-6.50936	-8.95037	0
32	-71.60296	-34.17414	37.42882	51.26121	-55.32956	0.81367	21.15542	-56.9569	-170.05703	-48.8202	-6.50936	-8.95037	0
33	-74.04397	-36.61515	37.42882	53.70222	-57.77057	0.81367	23.59643	-56.9569	-170.05703	-48.8202	-6.50936	-8.95037	0
34	-66.72094	-34.17414	32.5468	48.8202	-50.44754	-1.62734	28.47845	-52.07488	-170.05703	-48.8202	-6.50936	-8.95037	0
35	-64.27993	-34.17414	30.10579	48.8202	-48.00653	-1.62734	30.91946	-49.63387	-170.05703	-48.8202	-6.50936	-13.83239	0
36	-66.72094	-39.05616	27.66478	51.26121	-48.00653	-7.32303	28.47845	-52.07488	-167.61602	-51.26121	-8.95037	-16.2734	0
37	-61.83892	-39.05616	22.78276	48.8202	-43.12451	-9.76404	26.03744	-56.9569	-165.17501	-51.26121	-11.39138	-18.71441	0
38	-66.72094	-46.37919	20.34175	56.14323	-45.56552	-14.64606	18.71441	-61.83892	-167.61602	-56.14323	-17.08707	-26.03744	0
39	-66.72094	-41.49717	25.22377	53.70222	-48.00653	-9.76404	13.83239	-64.27993	-172.49804	-61.02525	-26.85111	-33.36047	0
40	-69.16195	-43.93818	25.22377	56.14323	-48.00653	-9.76404	5.69569	-69.16195	-174.93905	-65.90727	-31.73313	-38.24249	0
41	-71.60296	-46.37919	25.22377	58.58424	-50.44754	-12.20505	3.25468	-74.04397	-179.82107	-70.78929	-36.61515	-40.6835	0
42	-71.60296	-43.93818	27.66478	56.14323	-50.44754	-9.76404	-1.62734	-76.48498	-182.26208	-75.67131	-41.49717	-45.56552	0
43	-71.60296	-36.61515	34.98781	53.70222	-55.32956	-1.62734	-6.50936	-81.367	-187.1441	-80.55333	-46.37919	-45.56552	0
44	-69.16195	-31.73313	37.42882	48.8202	-55.32956	3.25468	-6.50936	-78.92599	-189.58511	-80.55333	-48.8202	-45.56552	0
45	-66.72094	-26.85111	39.86983	46.37919	-55.32956	5.69569	-4.06835	-76.48498	-187.1441	-78.11232	-46.37919	-38.24249	0
46	-64.27993	-26.85111	37.42882	43.93818	-52.88855	5.69569	-4.06835	-76.48498	-179.82107	-75.67131	-41.49717	-33.36047	0
47	-69.16195	-36.61515	32.5468	51.26121	-52.88855	-1.62734	-8.95037	-81.367	-179.82107	-73.2303	-41.49717	-33.36047	0
48	-74.04397	-41.49717	32.5468	56.14323	-55.32956	-4.88202	-11.39138	-83.80801	-179.82107	-70.78929	-39.05616	-35.80148	0
49	-71.60296	-43.93818	27.66478	56.14323	-50.44754	-9.76404	-8.95037	-78.92599	-174.93905	-61.02525	-34.17414	-30.91946	0
50	-69.16195	-43.93818	25.22377	56.14323	-48.00653	-9.76404	-6.50936	-74.04397	-167.61602	-51.26121	-24.4101	-28.47845	0
51	-74.04397	-46.37919	27.66478	58.58424	-52.88855	-9.76404	-8.95037	-76.48498	-167.61602	-48.8202	-21.96909	-30.91946	0
52	-71.60296	-39.05616	32.5468	53.70222	-52.88855	-4.88202	-8.95037	-76.48498	-170.05703	-46.37919	-19.52808	-30.91946	0
53	-69.16195	-29.29212	39.86983	48.8202	-55.32956	5.69569	-8.95037	-78.92599	-174.93905	-46.37919	-19.52808	-28.47845	0
54	-69.16195	-19.52808	49.63387	43.93818	-60.21158	15.45973	-8.95037	-78.92599	-177.38006	-51.26121	-19.52808	-21.15542	0
55	-69.16195	-14.64606	54.51589	41.49717	-62.65259	20.34175	-11.39138	-78.92599	-177.38006	-51.26121	-19.52808	-16.2734	0
56	-74.04397	-21.96909	52.07488	46.37919	-65.0936	15.45973	-16.2734	-83.80801	-177.38006	-56.14323	-19.52808	-13.83239	0
57	-69.16195	-21.96909	47.19286	43.93818	-60.21158	13.01872	-16.2734	-86.24902	-174.93905	-56.14323	-19.52808	-11.39138	0
58	-64.27993	-19.52808	44.75185	41.49717	-55.32956	13.01872	-13.83239	-83.80801	-167.61602	-48.8202	-17.08707	-8.95037	0
59	-64.27993	-21.96909	42.31084	41.49717	-55.32956	10.57771	-13.83239	-78.92599	-162.734	-43.93818	-17.08707	-13.83239	0
60	-61.83892	-21.96909	39.86983	41.49717	-52.88855	8.1367	-13.83239	-76.48498	-160.29299	-41.49717	-14.64606	-16.2734	0
61	-59.39791	-21.96909	37.42882	39.05616	-50.44754	8.1367	-11.39138	-74.04397	-157.85198	-41.49717	-14.64606	-18.71441	0
62	-52.07488	-12.20505	39.86983	31.73313	-48.00653	13.01872	-8.95037	-74.04397	-157.85198	-41.49717	-14.64606	-18.71441	0
63	-49.63387	-9.76404	39.86983	29.29212	-45.56552	15.45973	-6.50936	-66.72094	-157.85198	-43.93818	-14.64606	-18.71441	0
64	-52.07488	-14.64606	37.42882	31.73313	-45.56552	10.57771	-6.50936	-64.27993	-162.734	-56.14323	-21.96909	-18.71441	0
65	-54.51589	-24.4101	30.10579	39.05616	-43.12451	3.25468	-6.50936	-64.27993	-162.734	-65.90727	-24.4101	-16.2734	0
66	-52.07488	-29.29212	22.78276	39.05616	-38.24249	-4.88202	-4.06835	-64.27993	-162.734	-70.78929	-24.4101	-11.39138	0
67	-52.07488	-36.61515	15.45973	43.93818	-35.80148	-12.20505	-4.06835	-66.72094	-157.85198	-68.34828	-21.96909	-8.95037	0
68	-54.51589	-46.37919	8.1367	48.8202	-33.36047	-19.52808	-4.06835	-64.27993	-152.96996	-63.46626	-19.52808	-8.95037	0
69	-54.51589	-46.37919	8.1367	48.8202	-33.36047	-19.52808	-4.06835	-59.39791	-150.52895	-56.14323	-17.08707	-8.95037	0
70	-52.07488	-41.49717	10.57771	46.37919	-33.36047	-17.08707	0.81367	-59.39791	-145.64693	-51.26121	-14.64606	-13.83239	0
71	-52.07488	-29.29212	22.78276	39.05616	-38.24249	-4.88202	0.81367	-64.27993	-145.64693	-43.93818	-14.64606	-18.71441	0
72	-52.07488	-17.08707	34.98781	34.17414	-45.56552	8.1367	0.81367	-66.72094	-145.64693	-36.61515	-14.64606	-26.03744	0
73	-54.51589	-4.88202	49.63387	29.29212	-52.88855	22.78276	0.81367	-69.16195	-145.64693	-34.17414	-17.08707	-33.36047	0
74	-54.51589	8.1367	61.83892	21.96909	-57.77057	34.98781	0.81367	-69.16195	-145.64693	-34.17414	-24.4101	-38.24249	0
75	-56.9569	15.45973	71.60296	19.52808	-65.0936	42.31084	0.81367	-69.16195	-148.08794	-34.17414	-26.85111	-38.24249	0
76	-59.39791	15.45973	74.04397	21.96909	-67.53461	44.75185	0.81367	-69.16195	-145.64693	-34.17414	-26.85111	-35.80148	0
77	-61.83892	5.69569	66.72094	26.85111	-65.0936	34.98781	3.25468	-69.16195	-138.3239	-34.17414	-21.96909	-28.47845	0
78	-69.16195	-9.76404	59.39791	39.05616	-65.0936	25.22377	5.69569	-64.27993	-135.88289	-36.61515	-17.08707	-18.71441	0
79	-74.04397	-29.29212	44.75185	51.26121	-60.21158	8.1367	5.69569	-59.39791	-135.88289	-39.05616	-14.64606	-11.39138	0
80	-64.27993	-34.17414	30.10579	48.8202	-48.00653	-1.62734	11.39138	-52.07488	-128.55986	-39.05616	-4.06835	-6.50936	0
81	-61.83892	-46.37919	15.45973	53.70222	-40.6835	-17.08707	18.71441	-47.19286	-126.11885	-41.49717	-1.62734	-3.25468	0
82	-64.27993	-56.14323	8.1367	58.58424	-38.24249	-24.4101	23.59643	-47.19286	-131.00087	-48.8202	-6.50936	-6.50936	0
83	-66.72094	-53.70222	13.01872	58.58424	-40.6835	-21.96909	26.03744	-47.19286	-135.88289	-56.14323	-14.64606	-16.2734	0
84	-66.72094	-51.26121	15.45973	58.58424	-43.12451	-19.52808	30.91946	-42.31084	-135.88289	-63.46626	-29.29212	-28.47845	0
85	-64.27993	-46.37919	17.90074	53.70222	-43.12451	-14.64606	35.80148	-34.98781	-133.44188	-68.34828	-39.05616	-38.24249	0
86	-61.83892	-41.49717	20.34175	51.26121	-43.12451	-12.20505	40.6835	-25.22377	-123.67784	-61.02525	-39.05616	-43.12451	0
87	-71.60296	-43.93818	27.66478	56.14323	-50.44754	-9.76404	40.6835	-22.78276	-106.59077	-48.8202	-34.17414	-45.56552	0
88	-71.60296	-41.49717	30.10579	56.14323	-52.88855	-7.32303	38.24249	-7.32303	-77.29865	-24.4101	-21.96909	-40.6835	0
89	-66.72094	-41.49717	25.22377	53.70222	-48.00653	-9.76404	38.24249	21.96909	-33.36047	13.01872	0.81367	-30.91946	0
90	-61.83892	-39.05616	22.78276	48.8202	-43.12451	-9.76404	43.12451	51.26121	21.15542	66.72094	37.42882	-13.83239	0
91	-52.07488	-29.29212	22.78276	39.05616	-38.24249	-4.88202	50.44754	97.6404	96.82673	137.51023	86.24902	8.95037	0
92	-32.5468	-19.52808	13.01872	24.4101	-23.59643	-4.88202	62.65259	163.54767	199.34915	227.8276	144.83326	38.24249	0
93	-10.57771	-12.20505	-1.62734	9.76404	-6.50936	-7.32303	84.62168	253.86504	326.28167	337.67305	213.18154	72.41663	0
94	14.64606	-7.32303	-21.96909	-3.25468	16.2734	-14.64606	116.35481	375.91554	487.38833	474.36961	298.61689	121.23683	0
95	46.37919	-1.62734	-48.8202	-22.78276	48.00653	-24.4101	150.52895	507.73008	670.46408	633.03526	403.58032	179.82107	0
96	90.31737	5.69569	-85.43535	-47.19286	87.06269	-39.05616	182.26208	646.86765	875.50892	806.34697	520.7488	243.28733	0
97	141.57858	15.45973	-126.93252	-78.92599	133.44188	-56.14323	201.79016	778.68219	1075.67174	979.65868	637.91728	306.75359	0
98	190.39878	20.34175	-170.8707	-105.7771	179.82107	-75.67131	201.79016	883.64562	1236.7784	1116.35524	737.99869	362.89682	0
99	246.54201	27.66478	-219.6909	-137.51023	233.52329	-95.19939	182.26208	971.52198	1366.15193	1228.6417	828.31606	416.59904	0
100	310.00827	37.42882	-273.39312	-174.12538	292.10753	-117.16848	143.20592	1027.66521	1463.79233	1311.63604	913.75141	472.74227	0
101	378.35655	61.83892	-317.3313	-220.50457	348.25076	-126.93252	79.73966	1037.42925	1507.73051	1353.13321	974.77666	524.00348	0
102	436.94079	76.48498	-361.26948	-257.11972	399.51197	-141.57858	-1.62734	988.60905	1475.99738	1336.04614	1001.62777	563.05964	0
103	485.76099	91.13104	-395.44362	-288.85285	441.00914	-151.34262	-89.5037	873.88158	1366.15193	1255.49281	986.98171	587.46974	0
104	510.17109	98.45407	-412.53069	-303.49891	460.53722	-156.22464	-170.05703	703.01088	1192.84022	1128.56029	938.16151	592.35176	0
105	505.28907	103.33609	-402.76665	-303.49891	453.21419	-148.90161	-245.72834	473.55594	958.50326	967.45363	857.60818	572.82368	0
106	468.67392	96.01306	-373.47453	-281.52982	421.48106	-139.13757	-316.51763	183.07575	655.81802	747.76273	728.23465	521.56247	0
107	407.64867	83.80801	-324.65433	-244.91467	365.33783	-119.60949	-379.98389	-130.1872	314.07662	489.01567	562.24597	441.00914	0
108	334.41837	69.16195	-266.07009	-200.97649	299.43056	-97.6404	-436.12712	-432.87244	-28.47845	227.8276	386.49325	348.25076	0
109	258.74706	49.63387	-209.92686	-154.5973	233.52329	-80.55333	-487.38833	-691.6195	-338.48672	-11.39138	215.62255	253.05137	0
110	180.63474	25.22377	-156.22464	-103.33609	167.61602	-65.90727	-536.20853	-903.98737	-594.79277	-214.80888	66.72094	165.17501	0
111	124.49151	17.90074	-107.40444	-71.60296	116.35481	-43.93818	-572.82368	-1050.44797	-785.19155	-375.91554	-53.70222	89.5037	0
112	78.11232	5.69569	-73.2303	-42.31084	74.85764	-34.17414	-599.67479	-1133.44231	-909.68306	-485.76099	-141.57858	35.80148	0
113	48.8202	3.25468	-46.37919	-25.22377	48.00653	-21.96909	-614.32085	-1165.17544	-973.14932	-544.34523	-197.72181	-0.81367	0
114	24.4101	-1.62734	-26.85111	-10.57771	26.03744	-14.64606	-611.87984	-1152.97039	-987.79538	-563.87331	-224.57292	-18.71441	0
115	-0.81367	8.1367	8.1367	-3.25468	-4.06835	8.1367	-585.02873	-1109.03221	-963.38528	-554.10927	-231.89595	-28.47845	0
116	-20.34175	34.98781	54.51589	-8.1367	-38.24249	44.75185	-541.09055	-1045.56595	-914.56508	-522.37614	-224.57292	-33.36047	0
117	-47.19286	59.39791	105.7771	-5.69569	-77.29865	81.367	-487.38833	-969.89464	-846.2168	-473.55594	-205.04484	-33.36047	0
118	-71.60296	88.69003	159.47932	-8.1367	-116.35481	122.86417	-431.2451	-882.01828	-770.54549	-417.41271	-178.19373	-26.03744	0
119	-88.69003	120.42316	208.29952	-15.45973	-148.08794	164.36134	-372.66086	-789.2599	-692.43317	-361.26948	-151.34262	-21.15542	0
120	-113.10013	144.83326	257.11972	-15.45973	-184.70309	200.97649	-318.95864	-703.82455	-621.64388	-314.89029	-129.37353	-21.15542	0
121	-130.1872	161.92033	291.29386	-15.45973	-211.5542	225.38659	-272.57945	-630.59425	-560.61863	-280.71615	-114.72747	-26.03744	0
122	-139.95124	171.68437	310.82194	-15.45973	-226.20026	240.03265	-228.64127	-562.24597	-509.35742	-248.98302	-102.52242	-26.03744	0
123	-142.39225	174.12538	315.70396	-15.45973	-228.64127	244.91467	-192.02612	-503.66173	-465.41924	-224.57292	-90.31737	-21.15542	0
124	-137.51023	174.12538	310.82194	-17.90074	-223.75925	242.47366	-165.17501	-452.40052	-428.80409	-205.04484	-82.99434	-16.2734	0
125	-137.51023	164.36134	301.0579	-13.01872	-218.87723	232.70962	-140.76491	-408.46234	-394.62995	-187.95777	-75.67131	-11.39138	0
126	-132.62821	154.5973	286.41184	-10.57771	-209.11319	220.50457	-121.23683	-369.40618	-362.89682	-168.42969	-63.46626	-3.25468	0
127	-120.42316	149.71528	269.32477	-15.45973	-194.46713	208.29952	-101.70875	-337.67305	-328.72268	-151.34262	-53.70222	6.50936	0
128	-115.54114	139.95124	254.67871	-13.01872	-184.70309	196.09447	-84.62168	-308.38093	-304.31258	-139.13757	-46.37919	11.39138	0
129	-110.65912	130.1872	240.03265	-10.57771	-174.93905	183.88942	-72.41663	-283.97083	-287.22551	-131.81454	-43.93818	11.39138	0
130	-108.21811	113.10013	220.50457	-3.25468	-165.17501	166.80235	-65.0936	-266.88376	-275.02046	-129.37353	-43.93818	6.50936	0
131	-108.21811	100.89508	208.29952	1.62734	-157.85198	154.5973	-60.21158	-254.67871	-267.69743	-129.37353	-48.8202	-0.81367	0
132	-103.33609	98.45407	200.97649	1.62734	-152.96996	149.71528	-55.32956	-244.91467	-265.25642	-134.25555	-56.14323	-8.95037	0
133	-105.7771	88.69003	193.65346	7.32303	-150.52895	139.95124	-52.88855	-240.03265	-265.25642	-136.69656	-63.46626	-18.71441	0
134	-100.89508	86.24902	186.33043	7.32303	-143.20592	135.06922	-50.44754	-235.15063	-262.81541	-136.69656	-65.90727	-23.59643	0
135	-91.13104	91.13104	181.44841	-0.81367	-135.88289	135.06922	-48.00653	-227.8276	-257.93339	-134.25555	-68.34828	-26.03744	0
136	-83.80801	96.01306	179.0074	-5.69569	-131.00087	137.51023	-45.56552	-222.94558	-250.61036	-129.37353	-68.34828	-26.03744	0
137	-83.80801	96.01306	179.0074	-5.69569	-131.00087	137.51023	-40.6835	-220.50457	-243.28733	-126.93252	-70.78929	-30.91946	0
138	-83.80801	91.13104	174.12538	-3.25468	-128.55986	132.62821	-40.6835	-215.62255	-238.40531	-126.93252	-73.2303	-30.91946	0
139	-78.92599	86.24902	164.36134	-3.25468	-121.23683	125.30518	-35.80148	-205.85851	-228.64127	-119.60949	-68.34828	-26.03744	0
140	-76.48498	86.24902	161.92033	-5.69569	-118.79582	122.86417	-33.36047	-198.53548	-223.75925	-117.16848	-65.90727	-26.03744	0
141	-83.80801	71.60296	154.5973	4.88202	-118.79582	113.10013	-30.91946	-193.65346	-218.87723	-117.16848	-61.02525	-28.47845	0
142	-86.24902	61.83892	147.27427	12.20505	-116.35481	103.33609	-28.47845	-188.77144	-218.87723	-114.72747	-61.02525	-28.47845	0
143	-86.24902	56.9569	142.39225	14.64606	-113.9138	98.45407	-26.03744	-186.33043	-216.43622	-112.28646	-56.14323	-28.47845	0
144	-81.367	56.9569	137.51023	12.20505	-109.03178	96.01306	-23.59643	-179.0074	-211.5542	-102.52242	-51.26121	-26.03744	0
145	-76.48498	64.27993	139.95124	4.88202	-109.03178	100.89508	-23.59643	-171.68437	-204.23117	-97.6404	-48.8202	-26.03744	0
146	-78.92599	61.83892	139.95124	7.32303	-109.03178	100.89508	-23.59643	-171.68437	-199.34915	-95.19939	-48.8202	-26.03744	0
147	-76.48498	59.39791	135.06922	7.32303	-106.59077	96.01306	-23.59643	-171.68437	-194.46713	-95.19939	-53.70222	-26.03744	0
148	-74.04397	64.27993	137.51023	4.88202	-106.59077	100.89508	-21.15542	-164.36134	-189.58511	-95.19939	-53.70222	-26.03744	0
149	-71.60296	64.27993	135.06922	1.62734	-104.14976	98.45407	-18.71441	-157.03831	-187.1441	-95.19939	-53.70222	-23.59643	0
150	-71.60296	64.27993	135.06922	1.62734	-104.14976	98.45407	-16.2734	-152.15629	-184.70309	-95.19939	-51.26121	-21.15542	0
151	-76.48498	61.83892	137.51023	7.32303	-106.59077	98.45407	-13.83239	-149.71528	-184.70309	-97.6404	-51.26121	-18.71441	0
152	-76.48498	59.39791	135.06922	7.32303	-106.59077	96.01306	-8.95037	-149.71528	-187.1441	-102.52242	-51.26121	-16.2734	0
153	-69.16195	61.83892	130.1872	1.62734	-99.26774	96.01306	-4.06835	-149.71528	-189.58511	-104.96343	-51.26121	-13.83239	0
154	-74.04397	59.39791	132.62821	7.32303	-104.14976	96.01306	-4.06835	-154.5973	-192.02612	-112.28646	-58.58424	-18.71441	0
155	-78.92599	54.51589	132.62821	12.20505	-106.59077	93.57205	-4.06835	-157.03831	-196.90814	-119.60949	-68.34828	-23.59643	0
156	-81.367	49.63387	130.1872	14.64606	-106.59077	88.69003	-6.50936	-161.92033	-196.90814	-129.37353	-75.67131	-30.91946	0
157	-76.48498	52.07488	127.74619	12.20505	-101.70875	88.69003	-6.50936	-166.80235	-196.90814	-136.69656	-82.99434	-38.24249	0
158	-76.48498	54.51589	130.1872	9.76404	-104.14976	91.13104	-11.39138	-169.24336	-199.34915	-141.57858	-90.31737	-43.12451	0
159	-83.80801	49.63387	132.62821	17.08707	-109.03178	91.13104	-11.39138	-166.80235	-194.46713	-136.69656	-90.31737	-45.56552	0
160	-86.24902	47.19286	132.62821	19.52808	-109.03178	88.69003	-11.39138	-164.36134	-189.58511	-129.37353	-80.55333	-40.6835	0
161	-83.80801	47.19286	130.1872	17.08707	-106.59077	88.69003	-8.95037	-161.92033	-187.1441	-124.49151	-73.2303	-35.80148	0
162	-78.92599	44.75185	122.86417	17.08707	-101.70875	83.80801	-6.50936	-159.47932	-182.26208	-117.16848	-68.34828	-30.91946	0
163	-78.92599	42.31084	120.42316	17.08707	-99.26774	81.367	-4.06835	-157.03831	-182.26208	-114.72747	-65.90727	-26.03744	0
164	-78.92599	37.42882	115.54114	19.52808	-96.82673	76.48498	-1.62734	-154.5973	-179.82107	-114.72747	-68.34828	-26.03744	0
165	-83.80801	32.5468	115.54114	24.4101	-99.26774	74.04397	-1.62734	-154.5973	-182.26208	-119.60949	-75.67131	-30.91946	0
166	-86.24902	27.66478	113.10013	29.29212	-99.26774	69.16195	-6.50936	-157.03831	-184.70309	-124.49151	-82.99434	-35.80148	0
167	-81.367	27.66478	108.21811	26.85111	-94.38572	66.72094	-6.50936	-161.92033	-182.26208	-129.37353	-90.31737	-43.12451	0
168	-86.24902	25.22377	110.65912	29.29212	-99.26774	66.72094	-8.95037	-161.92033	-182.26208	-134.25555	-97.6404	-50.44754	0
169	-93.57205	22.78276	115.54114	34.17414	-104.14976	69.16195	-8.95037	-161.92033	-184.70309	-136.69656	-102.52242	-57.77057	0
170	-93.57205	27.66478	120.42316	31.73313	-106.59077	74.04397	-8.95037	-161.92033	-187.1441	-139.13757	-102.52242	-57.77057	0
171	-96.01306	30.10579	125.30518	31.73313	-111.47279	76.48498	-8.95037	-161.92033	-187.1441	-139.13757	-97.6404	-57.77057	0
172	-93.57205	32.5468	125.30518	29.29212	-109.03178	78.92599	-4.06835	-159.47932	-187.1441	-139.13757	-90.31737	-55.32956	0
173	-100.89508	25.22377	125.30518	36.61515	-113.9138	74.04397	-1.62734	-161.92033	-192.02612	-139.13757	-85.43535	-52.88855	0
174	-105.7771	20.34175	125.30518	41.49717	-116.35481	71.60296	0.81367	-164.36134	-194.46713	-139.13757	-82.99434	-48.00653	0
175	-100.89508	25.22377	125.30518	36.61515	-113.9138	74.04397	3.25468	-161.92033	-192.02612	-134.25555	-75.67131	-40.6835	0
176	-93.57205	30.10579	122.86417	31.73313	-109.03178	76.48498	5.69569	-157.03831	-184.70309	-129.37353	-73.2303	-33.36047	0
177	-91.13104	20.34175	110.65912	34.17414	-101.70875	64.27993	11.39138	-154.5973	-179.82107	-126.93252	-73.2303	-30.91946	0
178	-93.57205	13.01872	105.7771	39.05616	-99.26774	59.39791	13.83239	-152.15629	-172.49804	-124.49151	-75.67131	-30.91946	0
179	-93.57205	15.45973	108.21811	39.05616	-101.70875	61.83892	18.71441	-147.27427	-167.61602	-119.60949	-75.67131	-33.36047	0
180	-91.13104	20.34175	110.65912	34.17414	-101.70875	64.27993	23.59643	-142.39225	-162.734	-117.16848	-80.55333	-38.24249	0
181	-93.57205	25.22377	117.98215	34.17414	-106.59077	71.60296	28.47845	-139.95124	-162.734	-114.72747	-82.99434	-43.12451	0
182	-98.45407	22.78276	120.42316	36.61515	-109.03178	71.60296	33.36047	-137.51023	-162.734	-114.72747	-85.43535	-50.44754	0
183	-105.7771	22.78276	127.74619	41.49717	-116.35481	74.04397	33.36047	-139.95124	-165.17501	-112.28646	-85.43535	-57.77057	0
184	-103.33609	32.5468	135.06922	34.17414	-118.79582	83.80801	35.80148	-137.51023	-165.17501	-109.84545	-85.43535	-57.77057	0
185	-98.45407	39.86983	137.51023	29.29212	-118.79582	88.69003	35.80148	-135.06922	-162.734	-104.96343	-82.99434	-57.77057	0
186	-93.57205	47.19286	139.95124	21.96909	-116.35481	93.57205	35.80148	-135.06922	-157.85198	-102.52242	-82.99434	-57.77057	0
187	-83.80801	52.07488	135.06922	14.64606	-109.03178	93.57205	35.80148	-130.1872	-148.08794	-92.75838	-75.67131	-50.44754	0
188	-81.367	47.19286	127.74619	17.08707	-104.14976	86.24902	33.36047	-125.30518	-135.88289	-87.87636	-68.34828	-45.56552	0
189	-81.367	42.31084	122.86417	19.52808	-101.70875	81.367	28.47845	-122.86417	-131.00087	-85.43535	-68.34828	-43.12451	0
190	-81.367	39.86983	120.42316	19.52808	-101.70875	78.92599	28.47845	-115.54114	-126.11885	-82.99434	-63.46626	-40.6835	0
191	-78.92599	39.86983	117.98215	19.52808	-99.26774	78.92599	28.47845	-110.65912	-123.67784	-80.55333	-61.02525	-35.80148	0
192	-81.367	39.86983	120.42316	19.52808	-101.70875	78.92599	33.36047	-100.89508	-121.23683	-80.55333	-56.14323	-33.36047	0
193	-88.69003	27.66478	115.54114	29.29212	-101.70875	71.60296	35.80148	-98.45407	-123.67784	-85.43535	-56.14323	-33.36047	0
194	-93.57205	20.34175	113.10013	36.61515	-104.14976	66.72094	38.24249	-93.57205	-126.11885	-90.31737	-58.58424	-33.36047	0
195	-88.69003	22.78276	110.65912	31.73313	-99.26774	66.72094	43.12451	-86.24902	-123.67784	-90.31737	-58.58424	-33.36047	0
196	-86.24902	22.78276	108.21811	31.73313	-96.82673	64.27993	48.00653	-78.92599	-116.35481	-87.87636	-58.58424	-33.36047	0
197	-83.80801	22.78276	105.7771	29.29212	-94.38572	64.27993	52.88855	-74.04397	-111.47279	-85.43535	-58.58424	-33.36047	0
198	-83.80801	20.34175	103.33609	31.73313	-94.38572	61.83892	55.32956	-66.72094	-101.70875	-80.55333	-58.58424	-33.36047	0
199	-78.92599	25.22377	103.33609	26.85111	-91.94471	64.27993	55.32956	-61.83892	-91.94471	-73.2303	-58.58424	-33.36047	0
200	-76.48498	32.5468	108.21811	21.96909	-91.94471	69.16195	55.32956	-49.63387	-82.18067	-65.90727	-53.70222	-33.36047	0
201	-74.04397	34.98781	108.21811	19.52808	-91.94471	71.60296	60.21158	-39.86983	-74.85764	-58.58424	-48.8202	-30.91946	0
202	-76.48498	37.42882	113.10013	19.52808	-94.38572	74.04397	62.65259	-32.5468	-69.97562	-56.14323	-46.37919	-30.91946	0
203	-74.04397	39.86983	113.10013	17.08707	-94.38572	76.48498	65.0936	-25.22377	-67.53461	-51.26121	-41.49717	-28.47845	0
204	-74.04397	37.42882	110.65912	17.08707	-91.94471	74.04397	65.0936	-22.78276	-67.53461	-51.26121	-43.93818	-28.47845	0
205	-74.04397	34.98781	108.21811	19.52808	-91.94471	71.60296	65.0936	-14.64606	-65.0936	-48.8202	-43.93818	-26.03744	0
206	-71.60296	32.5468	103.33609	19.52808	-87.06269	66.72094	67.53461	-7.32303	-57.77057	-46.37919	-43.93818	-23.59643	0
207	-71.60296	32.5468	103.33609	19.52808	-87.06269	66.72094	65.0936	0	-48.00653	-39.05616	-46.37919	-21.15542	0
208	-61.83892	39.86983	100.89508	9.76404	-82.18067	69.16195	65.0936	9.76404	-33.36047	-31.73313	-43.93818	-18.71441	0
209	-54.51589	47.19286	100.89508	1.62734	-77.29865	74.04397	65.0936	21.96909	-21.15542	-24.4101	-39.05616	-16.2734	0
210	-47.19286	56.9569	103.33609	-5.69569	-74.85764	78.92599	67.53461	39.05616	-8.1367	-16.2734	-29.29212	-13.83239	0
211	-42.31084	61.83892	103.33609	-10.57771	-72.41663	81.367	72.41663	56.14323	6.50936	-1.62734	-17.08707	-6.50936	0
212	-39.86983	64.27993	103.33609	-13.01872	-72.41663	83.80801	77.29865	70.78929	16.2734	8.1367	-6.50936	-3.25468	0
213	-34.98781	66.72094	100.89508	-15.45973	-67.53461	83.80801	82.18067	82.99434	26.03744	20.34175	8.1367	1.62734	0
214	-34.98781	61.83892	96.01306	-13.01872	-65.0936	78.92599	89.5037	97.6404	33.36047	25.22377	13.01872	4.06835	0
215	-37.42882	54.51589	91.13104	-8.1367	-65.0936	71.60296	94.38572	114.72747	40.6835	30.10579	17.90074	6.50936	0
216	-37.42882	54.51589	91.13104	-8.1367	-65.0936	71.60296	99.26774	129.37353	52.88855	32.5468	17.90074	6.50936	0
217	-27.66478	59.39791	86.24902	-15.45973	-57.77057	71.60296	106.59077	146.4606	69.97562	37.42882	20.34175	8.95037	0
218	-17.90074	66.72094	83.80801	-25.22377	-50.44754	74.04397	113.9138	168.42969	91.94471	44.75185	22.78276	13.83239	0
219	-17.90074	64.27993	81.367	-22.78276	-50.44754	71.60296	118.79582	187.95777	106.59077	49.63387	25.22377	16.2734	0
220	-15.45973	64.27993	78.92599	-25.22377	-48.00653	71.60296	126.11885	209.92686	123.67784	56.9569	34.98781	23.59643	0
221	-8.1367	66.72094	74.04397	-30.10579	-40.6835	69.16195	133.44188	231.89595	143.20592	74.04397	52.07488	35.80148	0
222	-0.81367	71.60296	71.60296	-34.98781	-35.80148	71.60296	145.64693	256.30605	157.85198	88.69003	66.72094	48.00653	0
223	2.44101	64.27993	61.83892	-32.5468	-30.91946	64.27993	152.96996	275.83413	170.05703	100.89508	78.92599	55.32956	0
224	-0.81367	49.63387	49.63387	-25.22377	-26.03744	49.63387	157.85198	290.48019	177.38006	105.7771	78.92599	57.77057	0
225	7.32303	52.07488	44.75185	-30.10579	-18.71441	49.63387	162.734	312.44928	192.02612	115.54114	83.80801	62.65259	0
226	19.52808	59.39791	39.86983	-39.86983	-11.39138	49.63387	172.49804	334.41837	209.11319	125.30518	83.80801	65.0936	0
227	24.4101	59.39791	34.98781	-42.31084	-6.50936	47.19286	174.93905	351.50544	223.75925	127.74619	78.92599	60.21158	0
228	29.29212	56.9569	27.66478	-42.31084	0.81367	42.31084	177.38006	366.1515	240.84632	127.74619	74.04397	52.88855	0
229	36.61515	66.72094	30.10579	-52.07488	4.06835	49.63387	182.26208	388.12059	257.93339	135.06922	74.04397	50.44754	0
230	43.93818	74.04397	30.10579	-59.39791	6.50936	52.07488	184.70309	410.08968	275.02046	144.83326	74.04397	45.56552	0
231	48.8202	78.92599	30.10579	-64.27993	8.95037	54.51589	189.58511	434.49978	292.10753	154.5973	76.48498	40.6835	0
232	48.8202	71.60296	22.78276	-59.39791	13.83239	47.19286	194.46713	456.46887	306.75359	161.92033	81.367	38.24249	0
233	58.58424	66.72094	8.1367	-61.83892	26.03744	37.42882	201.79016	480.87897	321.39965	171.68437	91.13104	45.56552	0
234	65.90727	61.83892	-4.88202	-64.27993	35.80148	30.10579	211.5542	505.28907	336.04571	181.44841	100.89508	57.77057	0
235	68.34828	47.19286	-21.96909	-56.9569	45.56552	13.01872	213.99521	529.69917	350.69177	186.33043	108.21811	65.0936	0
236	70.78929	27.66478	-43.93818	-49.63387	57.77057	-7.32303	218.87723	554.10927	367.77884	191.21245	115.54114	74.85764	0
237	90.31737	20.34175	-70.78929	-54.51589	79.73966	-24.4101	231.08228	583.40139	392.18894	200.97649	127.74619	91.94471	0
238	102.52242	8.1367	-95.19939	-54.51589	99.26774	-43.93818	240.84632	612.69351	419.04005	210.74053	139.95124	104.14976	0
239	112.28646	3.25468	-109.84545	-56.9569	111.47279	-53.70222	245.72834	634.6626	441.00914	218.06356	144.83326	111.47279	0
240	124.49151	3.25468	-122.0505	-64.27993	123.67784	-58.58424	245.72834	656.63169	460.53722	225.38659	149.71528	113.9138	0
241	134.25555	3.25468	-131.81454	-69.16195	133.44188	-63.46626	253.05137	678.60078	477.62429	237.59164	157.03831	118.79582	0
242	146.4606	8.1367	-139.13757	-76.48498	143.20592	-65.90727	260.3744	700.56987	494.71136	249.79669	161.92033	121.23683	0
243	153.78363	13.01872	-141.57858	-83.80801	148.08794	-63.46626	262.81541	717.65694	506.91641	262.00174	169.24336	121.23683	0
244	156.22464	13.01872	-144.01959	-83.80801	150.52895	-65.90727	265.25642	729.86199	516.68045	269.32477	169.24336	121.23683	0
245	168.42969	20.34175	-148.90161	-93.57205	157.85198	-63.46626	265.25642	746.94906	528.8855	281.52982	176.56639	126.11885	0
246	175.75272	22.78276	-153.78363	-98.45407	165.17501	-65.90727	262.81541	759.15411	543.53156	288.85285	179.0074	128.55986	0
247	183.07575	20.34175	-163.54767	-100.89508	172.49804	-70.78929	260.3744	773.80017	558.17762	296.17588	181.44841	131.00087	0
248	197.72181	17.90074	-180.63474	-108.21811	189.58511	-80.55333	260.3744	790.88724	580.14671	308.38093	191.21245	138.3239	0
249	209.92686	13.01872	-197.72181	-110.65912	204.23117	-92.75838	260.3744	810.41532	599.67479	318.14497	196.09447	145.64693	0
250	219.6909	3.25468	-217.24989	-110.65912	218.87723	-107.40444	262.81541	827.50239	609.43883	318.14497	198.53548	145.64693	0
251	224.57292	-7.32303	-231.89595	-108.21811	226.20026	-119.60949	262.81541	837.26643	616.76186	315.70396	196.09447	143.20592	0
252	229.45494	-19.52808	-248.98302	-105.7771	238.40531	-134.25555	262.81541	849.47148	621.64388	310.82194	191.21245	135.88289	0
253	234.33696	-36.61515	-270.95211	-98.45407	250.61036	-153.78363	267.69743	856.79451	626.5259	308.38093	188.77144	133.44188	0
254	241.65999	-43.93818	-285.59817	-98.45407	262.81541	-163.54767	272.57945	861.67653	626.5259	303.49891	181.44841	128.55986	0
255	234.33696	-58.58424	-292.9212	-88.69003	262.81541	-175.75272	270.13844	861.67653	624.08489	293.73487	174.12538	118.79582	0
256	229.45494	-65.90727	-295.36221	-81.367	260.3744	-180.63474	262.81541	856.79451	624.08489	288.85285	166.80235	113.9138	0
257	236.77797	-68.34828	-305.12625	-83.80801	270.13844	-185.51676	257.93339	856.79451	633.84893	291.29386	171.68437	118.79582	0
258	244.101	-73.2303	-317.3313	-86.24902	279.90248	-195.2808	257.93339	856.79451	643.61297	296.17588	181.44841	126.11885	0
259	246.54201	-75.67131	-322.21332	-86.24902	282.34349	-197.72181	255.49238	854.3535	648.49499	301.0579	188.77144	133.44188	0
260	251.42403	-75.67131	-327.09534	-88.69003	287.22551	-200.16282	250.61036	854.3535	650.936	303.49891	196.09447	140.76491	0
261	258.74706	-70.78929	-329.53635	-93.57205	292.10753	-200.16282	248.16935	847.03047	650.936	303.49891	203.4175	148.08794	0
262	263.62908	-70.78929	-334.41837	-96.01306	296.98955	-202.60383	248.16935	839.70744	643.61297	301.0579	203.4175	150.52895	0
263	253.86504	-78.11232	-331.97736	-88.69003	292.10753	-205.04484	243.28733	822.62037	628.96691	296.17588	198.53548	145.64693	0
264	244.101	-78.11232	-322.21332	-83.80801	282.34349	-200.16282	240.84632	800.65128	611.87984	286.41184	186.33043	138.3239	0
265	239.21898	-78.11232	-317.3313	-81.367	277.46147	-197.72181	235.9643	778.68219	597.23378	279.08881	176.56639	128.55986	0
266	231.89595	-78.11232	-310.00827	-76.48498	270.13844	-192.83979	231.08228	751.83108	580.14671	269.32477	161.92033	118.79582	0
267	212.36787	-90.31737	-302.68524	-61.83892	255.49238	-195.2808	223.75925	722.53896	563.05964	259.56073	147.27427	104.14976	0
268	202.60383	-92.75838	-295.36221	-54.51589	248.16935	-192.83979	216.43622	695.68785	550.85459	252.2377	139.95124	94.38572	0
269	202.60383	-87.87636	-290.48019	-56.9569	245.72834	-187.95777	213.99521	668.83674	536.20853	244.91467	132.62821	84.62168	0
270	192.83979	-85.43535	-278.27514	-54.51589	233.52329	-180.63474	209.11319	641.98563	516.68045	235.15063	122.86417	72.41663	0
271	185.51676	-80.55333	-266.07009	-52.07488	223.75925	-173.31171	206.67218	617.57553	499.59338	227.8276	117.98215	62.65259	0
272	168.42969	-82.99434	-251.42403	-42.31084	209.11319	-165.98868	204.23117	590.72442	475.18328	215.62255	113.10013	52.88855	0
273	156.22464	-85.43535	-241.65999	-34.98781	196.90814	-163.54767	199.34915	556.55028	445.89116	198.53548	103.33609	43.12451	0
274	144.01959	-82.99434	-227.01393	-30.10579	184.70309	-153.78363	192.02612	522.37614	416.59904	179.0074	88.69003	33.36047	0
275	129.37353	-82.99434	-212.36787	-22.78276	170.05703	-146.4606	187.1441	488.202	384.86591	164.36134	76.48498	26.03744	0
276	112.28646	-87.87636	-200.16282	-13.01872	155.41097	-144.01959	182.26208	454.02786	362.89682	149.71528	69.16195	23.59643	0
277	100.08141	-95.19939	-195.2808	-3.25468	145.64693	-144.01959	174.93905	422.29473	338.48672	137.51023	61.83892	23.59643	0
278	97.6404	-90.31737	-187.95777	-3.25468	140.76491	-139.13757	167.61602	393.00261	318.95864	125.30518	56.9569	26.03744	0
279	90.31737	-87.87636	-178.19373	-0.81367	133.44188	-131.81454	160.29299	361.26948	299.43056	117.98215	56.9569	28.47845	0
280	85.43535	-87.87636	-173.31171	1.62734	128.55986	-129.37353	155.41097	336.85938	279.90248	113.10013	56.9569	33.36047	0
281	82.99434	-87.87636	-170.8707	1.62734	126.11885	-129.37353	155.41097	314.89029	262.81541	110.65912	61.83892	40.6835	0
282	85.43535	-78.11232	-163.54767	-3.25468	123.67784	-119.60949	155.41097	295.36221	243.28733	108.21811	61.83892	43.12451	0
283	87.87636	-63.46626	-151.34262	-13.01872	118.79582	-107.40444	155.41097	268.5111	218.87723	100.89508	59.39791	40.6835	0
284	75.67131	-65.90727	-141.57858	-5.69569	106.59077	-102.52242	148.08794	239.21898	192.02612	86.24902	44.75185	33.36047	0
285	61.02525	-68.34828	-129.37353	1.62734	94.38572	-97.6404	143.20592	214.80888	170.05703	71.60296	32.5468	23.59643	0
286	51.26121	-63.46626	-114.72747	4.88202	82.18067	-87.87636	140.76491	187.95777	148.08794	56.9569	13.01872	11.39138	0
287	43.93818	-58.58424	-102.52242	7.32303	72.41663	-80.55333	135.88289	163.54767	131.00087	44.75185	-1.62734	-0.81367	0
288	31.73313	-58.58424	-90.31737	12.20505	60.21158	-73.2303	128.55986	141.57858	118.79582	32.5468	-14.64606	-6.50936	0
289	19.52808	-63.46626	-82.99434	21.96909	50.44754	-73.2303	123.67784	119.60949	104.14976	22.78276	-19.52808	-13.83239	0
290	14.64606	-63.46626	-78.11232	24.4101	45.56552	-70.78929	121.23683	107.40444	94.38572	22.78276	-17.08707	-13.83239	0
291	14.64606	-56.14323	-70.78929	19.52808	40.6835	-63.46626	118.79582	95.19939	87.06269	27.66478	-8.95037	-8.95037	0
292	17.08707	-51.26121	-68.34828	17.08707	40.6835	-58.58424	113.9138	82.99434	77.29865	30.10579	0.81367	-3.25468	0
293	12.20505	-53.70222	-65.90727	19.52808	38.24249	-58.58424	104.14976	65.90727	62.65259	32.5468	10.57771	1.62734	0
294	2.44101	-61.02525	-63.46626	29.29212	30.91946	-61.02525	91.94471	46.37919	48.00653	30.10579	10.57771	4.06835	0
295	2.44101	-56.14323	-58.58424	26.85111	28.47845	-56.14323	79.73966	31.73313	33.36047	27.66478	10.57771	4.06835	0
296	2.44101	-51.26121	-53.70222	24.4101	26.03744	-51.26121	65.0936	12.20505	21.15542	20.34175	5.69569	4.06835	0
297	-0.81367	-51.26121	-51.26121	24.4101	23.59643	-51.26121	48.00653	-7.32303	6.50936	8.1367	-4.06835	1.62734	0
298	-5.69569	-53.70222	-48.8202	29.29212	21.15542	-51.26121	35.80148	-22.78276	-0.81367	-1.62734	-14.64606	-6.50936	0
299	-13.01872	-53.70222	-41.49717	31.73313	13.83239	-48.8202	26.03744	-32.5468	-8.1367	-8.95037	-19.52808	-11.39138	0
300	-10.57771	-39.05616	-29.29212	24.4101	8.95037	-34.17414	18.71441	-42.31084	-15.45973	-16.2734	-24.4101	-18.71441	0
301	-10.57771	-34.17414	-24.4101	21.96909	6.50936	-29.29212	16.2734	-47.19286	-21.15542	-18.71441	-26.85111	-26.03744	0
302	-15.45973	-31.73313	-17.08707	21.96909	-1.62734	-24.4101	16.2734	-54.51589	-28.47845	-21.15542	-29.29212	-33.36047	0
303	-17.90074	-26.85111	-9.76404	21.96909	-6.50936	-19.52808	13.83239	-59.39791	-35.80148	-21.15542	-29.29212	-40.6835	0
304	-20.34175	-21.96909	-1.62734	19.52808	-11.39138	-12.20505	13.83239	-66.72094	-43.12451	-24.4101	-34.17414	-45.56552	0
305	-25.22377	-21.96909	3.25468	21.96909	-16.2734	-9.76404	16.2734	-74.04397	-52.88855	-24.4101	-34.17414	-45.56552	0
306	-25.22377	-19.52808	5.69569	21.96909	-16.2734	-7.32303	16.2734	-76.48498	-52.88855	-24.4101	-39.05616	-48.00653	0
307	-25.22377	-21.96909	3.25468	21.96909	-16.2734	-9.76404	16.2734	-83.80801	-55.32956	-31.73313	-46.37919	-45.56552	0
308	-25.22377	-19.52808	5.69569	21.96909	-16.2734	-7.32303	11.39138	-88.69003	-55.32956	-36.61515	-53.70222	-45.56552	0
309	-22.78276	-14.64606	8.1367	17.08707	-16.2734	-4.88202	11.39138	-91.13104	-60.21158	-46.37919	-63.46626	-50.44754	0
310	-22.78276	-12.20505	10.57771	17.08707	-18.71441	-1.62734	11.39138	-93.57205	-65.0936	-53.70222	-73.2303	-57.77057	0
311	-22.78276	-12.20505	10.57771	17.08707	-18.71441	-1.62734	11.39138	-93.57205	-65.0936	-56.14323	-80.55333	-62.65259	0
312	-20.34175	-7.32303	13.01872	12.20505	-18.71441	3.25468	11.39138	-93.57205	-69.97562	-58.58424	-80.55333	-65.0936	0
313	-17.90074	-4.88202	13.01872	9.76404	-16.2734	3.25468	11.39138	-93.57205	-74.85764	-61.02525	-78.11232	-65.0936	0
314	-13.01872	-4.88202	8.1367	7.32303	-11.39138	0.81367	18.71441	-88.69003	-74.85764	-58.58424	-73.2303	-57.77057	0
315	-13.01872	-12.20505	0.81367	12.20505	-8.95037	-7.32303	21.15542	-83.80801	-74.85764	-51.26121	-61.02525	-45.56552	0
316	-20.34175	-26.85111	-7.32303	21.96909	-8.95037	-17.08707	21.15542	-83.80801	-74.85764	-48.8202	-51.26121	-33.36047	0
317	-17.90074	-36.61515	-19.52808	26.85111	-1.62734	-29.29212	18.71441	-83.80801	-69.97562	-43.93818	-41.49717	-21.15542	0
318	-13.01872	-43.93818	-31.73313	26.85111	8.95037	-39.05616	18.71441	-81.367	-62.65259	-39.05616	-34.17414	-11.39138	0
319	-10.57771	-48.8202	-39.05616	29.29212	13.83239	-43.93818	21.15542	-78.92599	-55.32956	-31.73313	-29.29212	-6.50936	0
320	-15.45973	-51.26121	-36.61515	31.73313	8.95037	-43.93818	18.71441	-78.92599	-55.32956	-31.73313	-29.29212	-8.95037	0
321	-22.78276	-51.26121	-29.29212	36.61515	0.81367	-41.49717	13.83239	-83.80801	-60.21158	-34.17414	-36.61515	-21.15542	0
322	-20.34175	-41.49717	-21.96909	29.29212	-1.62734	-31.73313	16.2734	-83.80801	-62.65259	-36.61515	-39.05616	-28.47845	0
323	-15.45973	-26.85111	-12.20505	19.52808	-4.06835	-19.52808	18.71441	-83.80801	-67.53461	-36.61515	-41.49717	-33.36047	0
324	-15.45973	-17.08707	-1.62734	14.64606	-8.95037	-9.76404	18.71441	-88.69003	-77.29865	-46.37919	-48.8202	-38.24249	0
325	-20.34175	-9.76404	10.57771	14.64606	-16.2734	0.81367	16.2734	-91.13104	-87.06269	-53.70222	-56.14323	-45.56552	0
326	-20.34175	-7.32303	13.01872	12.20505	-18.71441	3.25468	13.83239	-93.57205	-94.38572	-63.46626	-65.90727	-52.88855	0
327	-20.34175	-7.32303	13.01872	12.20505	-18.71441	3.25468	11.39138	-98.45407	-94.38572	-70.78929	-73.2303	-57.77057	0
328	-17.90074	-4.88202	13.01872	9.76404	-16.2734	3.25468	11.39138	-98.45407	-91.94471	-75.67131	-78.11232	-60.21158	0
329	-17.90074	-12.20505	5.69569	14.64606	-13.83239	-4.88202	13.83239	-98.45407	-89.5037	-75.67131	-78.11232	-60.21158	0
330	-17.90074	-21.96909	-4.88202	19.52808	-8.95037	-14.64606	16.2734	-93.57205	-87.06269	-78.11232	-80.55333	-60.21158	0
331	-17.90074	-24.4101	-7.32303	19.52808	-6.50936	-17.08707	18.71441	-91.13104	-84.62168	-78.11232	-80.55333	-62.65259	0
332	-17.90074	-24.4101	-7.32303	19.52808	-6.50936	-17.08707	21.15542	-91.13104	-89.5037	-82.99434	-80.55333	-62.65259	0
333	-17.90074	-19.52808	-1.62734	17.08707	-8.95037	-12.20505	23.59643	-93.57205	-94.38572	-82.99434	-80.55333	-65.0936	0
334	-20.34175	-17.08707	3.25468	17.08707	-13.83239	-7.32303	26.03744	-96.01306	-99.26774	-85.43535	-82.99434	-65.0936	0
335	-27.66478	-17.08707	10.57771	21.96909	-21.15542	-4.88202	26.03744	-98.45407	-104.14976	-87.87636	-87.87636	-67.53461	0
336	-25.22377	-7.32303	17.90074	14.64606	-23.59643	5.69569	26.03744	-103.33609	-106.59077	-87.87636	-90.31737	-67.53461	0
337	-22.78276	-4.88202	17.90074	12.20505	-21.15542	5.69569	26.03744	-105.7771	-101.70875	-87.87636	-92.75838	-67.53461	0
338	-22.78276	-4.88202	17.90074	12.20505	-21.15542	5.69569	30.91946	-100.89508	-91.94471	-82.99434	-85.43535	-62.65259	0
339	-20.34175	-12.20505	8.1367	14.64606	-16.2734	-1.62734	33.36047	-98.45407	-82.18067	-75.67131	-78.11232	-52.88855	0
340	-17.90074	-21.96909	-4.88202	19.52808	-8.95037	-14.64606	38.24249	-91.13104	-72.41663	-65.90727	-63.46626	-40.6835	0
341	-15.45973	-29.29212	-14.64606	21.96909	-1.62734	-21.96909	40.6835	-83.80801	-65.0936	-53.70222	-51.26121	-30.91946	0
342	-20.34175	-34.17414	-14.64606	26.85111	-4.06835	-24.4101	43.12451	-81.367	-62.65259	-51.26121	-43.93818	-28.47845	0
343	-25.22377	-39.05616	-14.64606	31.73313	-6.50936	-26.85111	45.56552	-78.92599	-67.53461	-51.26121	-41.49717	-30.91946	0
344	-27.66478	-36.61515	-9.76404	31.73313	-11.39138	-24.4101	48.00653	-81.367	-77.29865	-61.02525	-48.8202	-35.80148	0
345	-30.10579	-36.61515	-7.32303	31.73313	-13.83239	-21.96909	48.00653	-81.367	-84.62168	-68.34828	-56.14323	-40.6835	0
346	-32.5468	-36.61515	-4.88202	34.17414	-16.2734	-21.96909	48.00653	-83.80801	-89.5037	-75.67131	-70.78929	-48.00653	0
347	-30.10579	-34.17414	-4.88202	31.73313	-13.83239	-19.52808	45.56552	-88.69003	-91.94471	-85.43535	-82.99434	-55.32956	0
348	-22.78276	-34.17414	-12.20505	26.85111	-6.50936	-24.4101	45.56552	-88.69003	-91.94471	-90.31737	-92.75838	-57.77057	0
349	-15.45973	-29.29212	-14.64606	21.96909	-1.62734	-21.96909	45.56552	-86.24902	-89.5037	-90.31737	-95.19939	-55.32956	0
350	-17.90074	-39.05616	-21.96909	26.85111	0.81367	-31.73313	45.56552	-88.69003	-89.5037	-90.31737	-95.19939	-50.44754	0
351	-15.45973	-41.49717	-26.85111	26.85111	4.06835	-34.17414	45.56552	-86.24902	-87.06269	-85.43535	-92.75838	-45.56552	0
352	-15.45973	-39.05616	-24.4101	26.85111	4.06835	-31.73313	45.56552	-88.69003	-89.5037	-80.55333	-85.43535	-43.12451	0
353	-15.45973	-39.05616	-24.4101	26.85111	4.06835	-31.73313	50.44754	-88.69003	-94.38572	-78.11232	-78.11232	-38.24249	0
354	-25.22377	-43.93818	-19.52808	34.17414	-4.06835	-31.73313	55.32956	-93.57205	-96.82673	-75.67131	-70.78929	-38.24249	0
355	-30.10579	-48.8202	-19.52808	39.05616	-6.50936	-34.17414	57.77057	-96.01306	-99.26774	-75.67131	-68.34828	-38.24249	0
356	-27.66478	-43.93818	-17.08707	34.17414	-6.50936	-31.73313	60.21158	-96.01306	-99.26774	-75.67131	-65.90727	-35.80148	0
357	-20.34175	-41.49717	-21.96909	29.29212	-1.62734	-31.73313	60.21158	-93.57205	-94.38572	-75.67131	-65.90727	-30.91946	0
358	-20.34175	-46.37919	-26.85111	31.73313	0.81367	-36.61515	62.65259	-88.69003	-84.62168	-75.67131	-65.90727	-30.91946	0
359	-20.34175	-51.26121	-31.73313	34.17414	4.06835	-41.49717	67.53461	-83.80801	-74.85764	-75.67131	-68.34828	-30.91946	0
360	-20.34175	-53.70222	-34.17414	36.61515	6.50936	-43.93818	72.41663	-78.92599	-72.41663	-80.55333	-73.2303	-33.36047	0
361	-20.34175	-46.37919	-26.85111	31.73313	0.81367	-36.61515	77.29865	-71.60296	-69.97562	-82.99434	-80.55333	-35.80148	0
362	-25.22377	-41.49717	-17.08707	31.73313	-6.50936	-29.29212	82.18067	-69.16195	-69.97562	-87.87636	-87.87636	-43.12451	0
363	-27.66478	-34.17414	-7.32303	29.29212	-11.39138	-21.96909	84.62168	-69.16195	-74.85764	-90.31737	-95.19939	-50.44754	0
364	-32.5468	-24.4101	8.1367	26.85111	-21.15542	-9.76404	84.62168	-76.48498	-82.18067	-92.75838	-107.40444	-60.21158	0
365	-34.98781	-12.20505	22.78276	21.96909	-30.91946	5.69569	82.18067	-83.80801	-87.06269	-97.6404	-117.16848	-69.97562	0
366	-37.42882	-4.88202	32.5468	19.52808	-35.80148	13.01872	72.41663	-88.69003	-94.38572	-104.96343	-126.93252	-77.29865	0
367	-30.10579	3.25468	32.5468	12.20505	-30.91946	17.90074	67.53461	-91.13104	-91.94471	-102.52242	-122.0505	-72.41663	0
368	-27.66478	5.69569	32.5468	9.76404	-30.91946	17.90074	57.77057	-96.01306	-89.5037	-100.08141	-114.72747	-67.53461	0
369	-25.22377	8.1367	32.5468	7.32303	-28.47845	20.34175	50.44754	-100.89508	-87.06269	-100.08141	-107.40444	-60.21158	0
370	-25.22377	-1.62734	22.78276	12.20505	-23.59643	10.57771	45.56552	-100.89508	-89.5037	-100.08141	-100.08141	-50.44754	0
371	-27.66478	-14.64606	13.01872	19.52808	-21.15542	-1.62734	45.56552	-98.45407	-91.94471	-100.08141	-90.31737	-40.6835	0
372	-25.22377	-26.85111	-1.62734	24.4101	-13.83239	-14.64606	45.56552	-96.01306	-89.5037	-95.19939	-78.11232	-30.91946	0
373	-27.66478	-36.61515	-9.76404	31.73313	-11.39138	-24.4101	48.00653	-96.01306	-87.06269	-92.75838	-70.78929	-26.03744	0
374	-30.10579	-43.93818	-14.64606	36.61515	-8.95037	-29.29212	48.00653	-98.45407	-91.94471	-92.75838	-70.78929	-23.59643	0
375	-34.98781	-51.26121	-17.08707	41.49717	-11.39138	-34.17414	48.00653	-100.89508	-94.38572	-92.75838	-70.78929	-23.59643	0
376	-34.98781	-53.70222	-19.52808	43.93818	-8.95037	-36.61515	48.00653	-100.89508	-94.38572	-90.31737	-70.78929	-21.15542	0
377	-30.10579	-51.26121	-21.96909	39.05616	-6.50936	-36.61515	48.00653	-100.89508	-87.06269	-80.55333	-68.34828	-18.71441	0
378	-27.66478	-43.93818	-17.08707	34.17414	-6.50936	-31.73313	48.00653	-103.33609	-82.18067	-75.67131	-65.90727	-18.71441	0
379	-34.98781	-43.93818	-9.76404	39.05616	-13.83239	-26.85111	40.6835	-110.65912	-84.62168	-75.67131	-70.78929	-26.03744	0
380	-37.42882	-36.61515	0.81367	36.61515	-21.15542	-19.52808	35.80148	-113.10013	-87.06269	-75.67131	-75.67131	-33.36047	0
381	-37.42882	-31.73313	5.69569	34.17414	-23.59643	-14.64606	30.91946	-117.98215	-91.94471	-78.11232	-80.55333	-40.6835	0
382	-39.86983	-26.85111	13.01872	31.73313	-28.47845	-7.32303	26.03744	-120.42316	-99.26774	-80.55333	-82.99434	-45.56552	0
383	-39.86983	-17.08707	22.78276	26.85111	-33.36047	3.25468	23.59643	-125.30518	-104.14976	-85.43535	-85.43535	-48.00653	0
384	-37.42882	-7.32303	30.10579	21.96909	-35.80148	10.57771	21.15542	-130.1872	-113.9138	-92.75838	-90.31737	-50.44754	0
385	-32.5468	0.81367	32.5468	14.64606	-33.36047	15.45973	18.71441	-130.1872	-116.35481	-95.19939	-90.31737	-50.44754	0
386	-32.5468	0.81367	32.5468	14.64606	-33.36047	15.45973	16.2734	-135.06922	-121.23683	-100.08141	-95.19939	-50.44754	0
387	-32.5468	-1.62734	30.10579	17.08707	-30.91946	13.01872	16.2734	-135.06922	-121.23683	-100.08141	-97.6404	-50.44754	0
388	-32.5468	-1.62734	30.10579	17.08707	-30.91946	13.01872	11.39138	-137.51023	-116.35481	-102.52242	-100.08141	-52.88855	0
389	-34.98781	-7.32303	27.66478	19.52808	-33.36047	10.57771	8.95037	-137.51023	-111.47279	-104.96343	-102.52242	-55.32956	0
390	-34.98781	-19.52808	15.45973	26.85111	-26.03744	-1.62734	5.69569	-135.06922	-113.9138	-109.84545	-104.96343	-57.77057	0
391	-39.86983	-34.17414	5.69569	36.61515	-23.59643	-14.64606	5.69569	-132.62821	-116.35481	-117.16848	-112.28646	-60.21158	0
392	-42.31084	-46.37919	-4.88202	43.93818	-21.15542	-26.85111	-1.62734	-132.62821	-118.79582	-122.0505	-112.28646	-62.65259	0
393	-37.42882	-51.26121	-14.64606	43.93818	-13.83239	-34.17414	-1.62734	-130.1872	-118.79582	-122.0505	-109.84545	-60.21158	0
394	-32.5468	-53.70222	-21.96909	41.49717	-6.50936	-39.05616	0.81367	-127.74619	-121.23683	-122.0505	-109.84545	-55.32956	0
395	-32.5468	-61.02525	-29.29212	46.37919	-4.06835	-46.37919	3.25468	-127.74619	-123.67784	-117.16848	-107.40444	-50.44754	0
396	-27.66478	-56.14323	-29.29212	41.49717	-1.62734	-43.93818	5.69569	-130.1872	-126.11885	-114.72747	-109.84545	-50.44754	0
397	-27.66478	-56.14323	-29.29212	41.49717	-1.62734	-43.93818	5.69569	-132.62821	-123.67784	-107.40444	-104.96343	-48.00653	0
398	-27.66478	-48.8202	-21.96909	36.61515	-4.06835	-36.61515	0.81367	-137.51023	-118.79582	-100.08141	-97.6404	-43.12451	0
399	-37.42882	-51.26121	-14.64606	43.93818	-13.83239	-34.17414	0.81367	-139.95124	-116.35481	-95.19939	-92.75838	-43.12451	0
400	-39.86983	-56.14323	-17.08707	46.37919	-13.83239	-36.61515	3.25468	-139.95124	-113.9138	-90.31737	-85.43535	-38.24249	1500	QRS+0
401	-39.86983	-53.70222	-14.64606	46.37919	-13.83239	-34.17414	3.25468	-137.51023	-113.9138	-87.87636	-78.11232	-35.80148	0
402	-42.31084	-53.70222	-12.20505	46.37919	-16.2734	-34.17414	3.25468	-135.06922	-113.9138	-87.87636	-73.2303	-30.91946	0
403	-44.75185	-48.8202	-4.88202	46.37919	-21.15542	-26.85111	3.25468	-132.62821	-113.9138	-87.87636	-68.34828	-30.91946	0
404	-44.75185	-43.93818	0.81367	43.93818	-23.59643	-21.96909	8.95037	-130.1872	-116.35481	-92.75838	-75.67131	-33.36047	0
405	-44.75185	-43.93818	0.81367	43.93818	-23.59643	-21.96909	18.71441	-125.30518	-116.35481	-95.19939	-82.99434	-38.24249	0
406	-42.31084	-36.61515	5.69569	39.05616	-26.03744	-17.08707	28.47845	-115.54114	-113.9138	-100.08141	-92.75838	-45.56552	0
407	-52.07488	-34.17414	17.90074	41.49717	-35.80148	-9.76404	33.36047	-110.65912	-111.47279	-100.08141	-104.96343	-57.77057	0
408	-59.39791	-31.73313	27.66478	43.93818	-45.56552	-1.62734	38.24249	-108.21811	-101.70875	-97.6404	-114.72747	-69.97562	0
409	-59.39791	-29.29212	30.10579	43.93818	-45.56552	0.81367	43.12451	-98.45407	-79.73966	-87.87636	-114.72747	-72.41663	0
410	-49.63387	-19.52808	30.10579	34.17414	-40.6835	5.69569	48.00653	-76.48498	-48.00653	-61.02525	-100.08141	-67.53461	0
411	-44.75185	-19.52808	25.22377	31.73313	-35.80148	3.25468	48.00653	-44.75185	-5.69569	-24.4101	-75.67131	-55.32956	0
412	-39.86983	-19.52808	20.34175	29.29212	-30.91946	0.81367	50.44754	-9.76404	52.88855	25.22377	-36.61515	-35.80148	0
413	-30.10579	-21.96909	8.1367	24.4101	-21.15542	-7.32303	57.77057	43.93818	131.00087	93.57205	13.01872	-8.95037	0
414	-10.57771	-24.4101	-14.64606	17.08707	0.81367	-19.52808	72.41663	119.60949	235.9643	188.77144	81.367	26.03744	0
415	12.20505	-19.52808	-31.73313	1.62734	21.15542	-24.4101	101.70875	224.57292	372.66086	310.82194	161.92033	72.41663	0
416	31.73313	-24.4101	-56.14323	-3.25468	43.12451	-39.05616	138.3239	346.62342	533.76752	454.84153	257.11972	126.11885	0
417	61.02525	-19.52808	-80.55333	-20.34175	69.97562	-48.8202	174.93905	473.55594	716.84327	623.27122	369.40618	187.1441	0
418	102.52242	0.81367	-102.52242	-52.07488	101.70875	-51.26121	204.23117	607.81149	919.4471	806.34697	491.45668	255.49238	0
419	151.34262	20.34175	-131.81454	-86.24902	140.76491	-56.14323	221.31824	729.86199	1109.84588	979.65868	611.06617	321.39965	0
420	209.92686	42.31084	-168.42969	-125.30518	189.58511	-63.46626	221.31824	825.06138	1263.62951	1118.79625	716.0296	384.86591	0
421	278.27514	61.83892	-217.24989	-169.24336	248.16935	-78.11232	194.46713	903.1737	1385.68001	1223.75968	803.90596	443.45015	0
422	346.62342	81.367	-266.07009	-213.18154	306.75359	-92.75838	143.20592	951.9939	1473.55637	1301.872	882.01828	499.59338	0
423	410.08968	103.33609	-307.56726	-257.11972	358.0148	-102.52242	69.97562	951.9939	1507.73051	1333.60513	935.7205	545.97257	0
424	466.23291	125.30518	-341.7414	-296.17588	404.39399	-107.40444	-13.83239	890.96865	1468.67435	1306.75402	952.80757	575.26469	0
425	505.28907	130.1872	-375.91554	-318.14497	441.00914	-122.0505	-99.26774	776.24118	1356.38789	1223.75968	930.83848	585.02873	0
426	519.93513	125.30518	-395.44362	-323.02699	458.09621	-134.25555	-184.70309	605.37048	1178.19416	1091.94514	869.81323	575.26469	0
427	502.84806	117.98215	-385.67958	-310.82194	443.45015	-134.25555	-262.81541	371.03352	936.53417	921.07444	777.05485	541.09055	0
428	458.90988	100.89508	-358.82847	-279.08881	409.27601	-129.37353	-333.6047	82.99434	631.40792	696.50152	637.91728	475.18328	0
429	405.20766	78.92599	-327.09534	-242.47366	365.33783	-124.49151	-389.74793	-220.50457	292.10753	442.63648	474.36961	392.18894	0
430	334.41837	42.31084	-292.9212	-188.77144	314.07662	-124.49151	-441.00914	-503.66173	-40.6835	191.21245	301.0579	299.43056	0
431	253.86504	0.81367	-253.86504	-127.74619	253.05137	-126.93252	-492.27035	-752.64475	-340.92773	-41.49717	137.51023	206.67218	0
432	183.07575	-19.52808	-202.60383	-81.367	192.02612	-109.84545	-536.20853	-950.36656	-589.91075	-241.65999	-6.50936	123.67784	0
433	129.37353	-36.61515	-165.98868	-47.19286	145.64693	-100.08141	-563.05964	-1084.62211	-770.54549	-390.5616	-117.16848	57.77057	0
434	95.19939	-36.61515	-131.81454	-30.10579	111.47279	-82.99434	-575.26469	-1152.97039	-882.83195	-490.64301	-195.2808	13.83239	0
435	65.90727	-36.61515	-102.52242	-15.45973	82.18067	-68.34828	-580.14671	-1177.38049	-938.97518	-544.34523	-244.101	-11.39138	0
436	41.49717	-24.4101	-65.90727	-8.1367	52.88855	-43.93818	-567.94166	-1165.17544	-953.62124	-563.87331	-273.39312	-30.91946	0
437	17.08707	-1.62734	-19.52808	-8.1367	18.71441	-9.76404	-536.20853	-1123.67827	-931.65215	-556.55028	-283.15716	-38.24249	0
438	-5.69569	27.66478	32.5468	-10.57771	-18.71441	30.10579	-487.38833	-1060.21201	-885.27296	-532.14018	-280.71615	-40.6835	0
439	-22.78276	64.27993	86.24902	-20.34175	-55.32956	74.04397	-431.2451	-984.5407	-819.36569	-488.202	-261.18807	-35.80148	0
440	-49.63387	88.69003	137.51023	-20.34175	-94.38572	113.10013	-377.54288	-901.54636	-751.01741	-441.82281	-241.65999	-33.36047	0
441	-76.48498	113.10013	188.77144	-17.90074	-133.44188	149.71528	-326.28167	-818.55202	-680.22812	-395.44362	-219.6909	-30.91946	0
442	-103.33609	125.30518	227.8276	-10.57771	-165.17501	176.56639	-277.46147	-737.99869	-616.76186	-356.38746	-200.16282	-30.91946	0
443	-120.42316	132.62821	252.2377	-5.69569	-187.1441	191.21245	-231.08228	-664.76839	-555.73661	-319.77231	-180.63474	-28.47845	0
444	-120.42316	137.51023	257.11972	-8.1367	-189.58511	196.09447	-189.58511	-598.86112	-504.4754	-288.03918	-161.10666	-23.59643	0
445	-122.86417	139.95124	262.00174	-8.1367	-192.02612	200.97649	-152.96996	-545.1589	-462.97823	-258.74706	-144.01959	-21.15542	0
446	-127.74619	135.06922	262.00174	-3.25468	-194.46713	198.53548	-128.55986	-501.22072	-431.2451	-239.21898	-134.25555	-23.59643	0
447	-127.74619	135.06922	262.00174	-3.25468	-194.46713	198.53548	-104.14976	-457.28254	-397.07096	-217.24989	-124.49151	-23.59643	0
448	-120.42316	135.06922	254.67871	-8.1367	-187.1441	193.65346	-84.62168	-420.66739	-362.89682	-192.83979	-112.28646	-23.59643	0
449	-115.54114	137.51023	252.2377	-10.57771	-184.70309	193.65346	-69.97562	-388.93426	-336.04571	-175.75272	-102.52242	-23.59643	0
450	-110.65912	139.95124	249.79669	-15.45973	-179.82107	193.65346	-57.77057	-364.52416	-316.51763	-161.10666	-100.08141	-28.47845	0
451	-113.10013	130.1872	242.47366	-8.1367	-177.38006	186.33043	-48.00653	-344.99608	-306.75359	-153.78363	-100.08141	-35.80148	0
452	-108.21811	125.30518	232.70962	-8.1367	-170.05703	179.0074	-38.24249	-325.468	-294.54854	-148.90161	-100.08141	-40.6835	0
453	-105.7771	113.10013	218.06356	-3.25468	-162.734	164.36134	-26.03744	-310.82194	-284.7845	-146.4606	-100.08141	-48.00653	0
454	-105.7771	100.89508	205.85851	1.62734	-155.41097	152.15629	-21.15542	-305.93992	-287.22551	-151.34262	-109.84545	-55.32956	0
455	-110.65912	88.69003	198.53548	9.76404	-155.41097	142.39225	-16.2734	-298.61689	-289.66652	-158.66565	-119.60949	-65.0936	0
456	-110.65912	78.92599	188.77144	14.64606	-150.52895	132.62821	-11.39138	-293.73487	-289.66652	-165.98868	-131.81454	-69.97562	0
457	-110.65912	76.48498	186.33043	17.08707	-148.08794	130.1872	-8.95037	-291.29386	-289.66652	-170.8707	-139.13757	-74.85764	0
458	-105.7771	81.367	186.33043	12.20505	-145.64693	132.62821	-13.83239	-291.29386	-287.22551	-175.75272	-146.4606	-79.73966	0
459	-105.7771	83.80801	188.77144	9.76404	-148.08794	135.06922	-16.2734	-288.85285	-284.7845	-175.75272	-146.4606	-79.73966	0
460	-103.33609	81.367	183.88942	9.76404	-143.20592	132.62821	-18.71441	-281.52982	-279.90248	-173.31171	-144.01959	-77.29865	0
461	-98.45407	76.48498	174.12538	9.76404	-135.88289	125.30518	-18.71441	-271.76578	-272.57945	-165.98868	-136.69656	-72.41663	0
462	-93.57205	74.04397	166.80235	9.76404	-131.00087	120.42316	-18.71441	-266.88376	-270.13844	-165.98868	-131.81454	-67.53461	0
463	-96.01306	61.83892	157.03831	17.08707	-126.11885	108.21811	-21.15542	-264.44275	-267.69743	-161.10666	-124.49151	-62.65259	0
464	-93.57205	49.63387	142.39225	21.96909	-118.79582	96.01306	-16.2734	-259.56073	-265.25642	-156.22464	-114.72747	-55.32956	0
465	-91.13104	39.86983	130.1872	24.4101	-111.47279	83.80801	-13.83239	-254.67871	-265.25642	-156.22464	-109.84545	-50.44754	0
466	-91.13104	27.66478	117.98215	31.73313	-104.14976	71.60296	-13.83239	-254.67871	-270.13844	-156.22464	-112.28646	-48.00653	0
467	-91.13104	25.22377	115.54114	31.73313	-104.14976	69.16195	-13.83239	-254.67871	-270.13844	-158.66565	-112.28646	-45.56552	0
468	-91.13104	17.90074	108.21811	36.61515	-99.26774	61.83892	-16.2734	-257.11972	-270.13844	-161.10666	-112.28646	-45.56552	0
469	-91.13104	10.57771	100.89508	39.05616	-96.82673	54.51589	-16.2734	-257.11972	-267.69743	-163.54767	-114.72747	-45.56552	0
470	-91.13104	10.57771	100.89508	39.05616	-96.82673	54.51589	-18.71441	-257.11972	-267.69743	-165.98868	-119.60949	-50.44754	0
471	-96.01306	10.57771	105.7771	41.49717	-101.70875	56.9569	-26.03744	-257.11972	-270.13844	-170.8707	-124.49151	-57.77057	0
472	-103.33609	8.1367	110.65912	46.37919	-106.59077	59.39791	-30.91946	-257.11972	-272.57945	-173.31171	-131.81454	-67.53461	0
473	-105.7771	15.45973	120.42316	43.93818	-113.9138	66.72094	-35.80148	-257.11972	-275.02046	-173.31171	-134.25555	-74.85764	0
474	-108.21811	25.22377	132.62821	41.49717	-121.23683	78.92599	-35.80148	-262.00174	-277.46147	-173.31171	-139.13757	-79.73966	0
475	-108.21811	37.42882	144.83326	34.17414	-126.11885	91.13104	-38.24249	-262.00174	-277.46147	-170.8707	-144.01959	-84.62168	0
476	-108.21811	44.75185	152.15629	31.73313	-131.00087	98.45407	-33.36047	-262.00174	-277.46147	-170.8707	-146.4606	-84.62168	0
477	-108.21811	44.75185	152.15629	31.73313	-131.00087	98.45407	-26.03744	-257.11972	-272.57945	-165.98868	-146.4606	-84.62168	0
478	-108.21811	42.31084	149.71528	31.73313	-128.55986	96.01306	-26.03744	-254.67871	-267.69743	-165.98868	-146.4606	-84.62168	0
479	-105.7771	49.63387	154.5973	26.85111	-131.00087	100.89508	-23.59643	-252.2377	-262.81541	-165.98868	-144.01959	-79.73966	0
480	-103.33609	42.31084	144.83326	29.29212	-123.67784	93.57205	-21.15542	-247.35568	-257.93339	-165.98868	-141.57858	-74.85764	0
481	-98.45407	34.98781	132.62821	31.73313	-116.35481	83.80801	-13.83239	-237.59164	-253.05137	-165.98868	-139.13757	-69.97562	0
482	-96.01306	30.10579	125.30518	31.73313	-111.47279	76.48498	-6.50936	-230.26861	-250.61036	-165.98868	-134.25555	-69.97562	0
483	-98.45407	27.66478	125.30518	34.17414	-111.47279	76.48498	-6.50936	-227.8276	-250.61036	-165.98868	-134.25555	-72.41663	0
484	-96.01306	34.98781	130.1872	29.29212	-113.9138	81.367	-1.62734	-225.38659	-253.05137	-163.54767	-134.25555	-74.85764	0
485	-88.69003	37.42882	125.30518	24.4101	-106.59077	81.367	3.25468	-220.50457	-248.16935	-156.22464	-131.81454	-77.29865	0
486	-88.69003	39.86983	127.74619	24.4101	-109.03178	83.80801	3.25468	-220.50457	-248.16935	-151.34262	-134.25555	-79.73966	0
487	-91.13104	42.31084	132.62821	24.4101	-111.47279	86.24902	5.69569	-215.62255	-245.72834	-146.4606	-134.25555	-82.18067	0
488	-91.13104	42.31084	132.62821	24.4101	-111.47279	86.24902	3.25468	-215.62255	-238.40531	-141.57858	-131.81454	-82.18067	0
489	-88.69003	42.31084	130.1872	21.96909	-109.03178	86.24902	3.25468	-210.74053	-231.08228	-136.69656	-126.93252	-77.29865	0
490	-81.367	42.31084	122.86417	19.52808	-101.70875	81.367	5.69569	-203.4175	-226.20026	-134.25555	-122.0505	-72.41663	0
491	-83.80801	37.42882	120.42316	21.96909	-101.70875	78.92599	5.69569	-200.97649	-223.75925	-134.25555	-119.60949	-69.97562	0
492	-83.80801	30.10579	113.10013	26.85111	-99.26774	71.60296	8.95037	-196.09447	-221.31824	-136.69656	-112.28646	-62.65259	0
493	-81.367	22.78276	103.33609	29.29212	-91.94471	61.83892	16.2734	-191.21245	-216.43622	-134.25555	-104.96343	-55.32956	0
494	-83.80801	22.78276	105.7771	29.29212	-94.38572	64.27993	16.2734	-193.65346	-218.87723	-134.25555	-102.52242	-52.88855	0
495	-86.24902	20.34175	105.7771	31.73313	-96.82673	61.83892	16.2734	-196.09447	-221.31824	-134.25555	-100.08141	-48.00653	0
496	-86.24902	20.34175	105.7771	31.73313	-96.82673	61.83892	18.71441	-196.09447	-221.31824	-134.25555	-100.08141	-48.00653	0
497	-96.01306	17.90074	113.10013	39.05616	-104.14976	64.27993	21.15542	-196.09447	-218.87723	-136.69656	-102.52242	-48.00653	0
498	-96.01306	17.90074	113.10013	39.05616	-104.14976	64.27993	23.59643	-191.21245	-213.99521	-139.13757	-104.96343	-48.00653	0
499	-96.01306	20.34175	115.54114	36.61515	-106.59077	66.72094	26.03744	-188.77144	-211.5542	-139.13757	-104.96343	-50.44754	0
500	-93.57205	20.34175	113.10013	36.61515	-104.14976	66.72094	28.47845	-183.88942	-209.11319	-141.57858	-107.40444	-52.88855	0
501	-88.69003	22.78276	110.65912	31.73313	-99.26774	66.72094	30.91946	-181.44841	-206.67218	-141.57858	-107.40444	-52.88855	0
502	-83.80801	25.22377	108.21811	29.29212	-96.82673	66.72094	38.24249	-176.56639	-206.67218	-144.01959	-107.40444	-55.32956	0
503	-83.80801	17.90074	100.89508	31.73313	-91.94471	59.39791	43.12451	-171.68437	-206.67218	-144.01959	-104.96343	-57.77057	0
504	-81.367	10.57771	91.13104	34.17414	-87.06269	49.63387	48.00653	-169.24336	-204.23117	-139.13757	-100.08141	-55.32956	0
505	-81.367	10.57771	91.13104	34.17414	-87.06269	49.63387	52.88855	-166.80235	-201.79016	-136.69656	-97.6404	-52.88855	0
506	-81.367	10.57771	91.13104	34.17414	-87.06269	49.63387	57.77057	-164.36134	-199.34915	-134.25555	-97.6404	-50.44754	0
507	-81.367	17.90074	98.45407	31.73313	-89.5037	56.9569	62.65259	-159.47932	-196.90814	-134.25555	-100.08141	-50.44754	0
508	-86.24902	17.90074	103.33609	34.17414	-94.38572	59.39791	65.0936	-157.03831	-189.58511	-129.37353	-102.52242	-55.32956	0
509	-91.13104	20.34175	110.65912	34.17414	-101.70875	64.27993	65.0936	-152.15629	-182.26208	-124.49151	-102.52242	-60.21158	0
510	-91.13104	30.10579	120.42316	29.29212	-106.59077	74.04397	65.0936	-149.71528	-174.93905	-117.16848	-104.96343	-65.0936	0
511	-86.24902	42.31084	127.74619	21.96909	-106.59077	83.80801	69.97562	-142.39225	-165.17501	-104.96343	-100.08141	-69.97562	0
512	-83.80801	59.39791	142.39225	12.20505	-113.9138	100.89508	72.41663	-135.06922	-157.85198	-95.19939	-95.19939	-72.41663	0
513	-78.92599	74.04397	152.15629	1.62734	-116.35481	113.10013	74.85764	-130.1872	-150.52895	-85.43535	-87.87636	-69.97562	0
514	-78.92599	74.04397	152.15629	1.62734	-116.35481	113.10013	74.85764	-125.30518	-145.64693	-78.11232	-78.11232	-60.21158	0
515	-74.04397	71.60296	144.83326	1.62734	-109.03178	108.21811	74.85764	-117.98215	-143.20592	-75.67131	-68.34828	-48.00653	0
516	-69.16195	69.16195	137.51023	-0.81367	-104.14976	103.33609	77.29865	-110.65912	-138.3239	-73.2303	-61.02525	-35.80148	0
517	-66.72094	61.83892	127.74619	1.62734	-96.82673	93.57205	74.85764	-100.89508	-133.44188	-73.2303	-56.14323	-21.15542	0
518	-66.72094	42.31084	108.21811	12.20505	-87.06269	74.04397	69.97562	-93.57205	-128.55986	-75.67131	-51.26121	-8.95037	0
519	-66.72094	22.78276	88.69003	21.96909	-77.29865	54.51589	67.53461	-83.80801	-118.79582	-70.78929	-43.93818	-0.81367	0
520	-61.83892	13.01872	74.04397	24.4101	-67.53461	42.31084	65.0936	-74.04397	-109.03178	-63.46626	-36.61515	1.62734	0
521	-54.51589	17.90074	71.60296	17.08707	-62.65259	44.75185	65.0936	-61.83892	-99.26774	-56.14323	-34.17414	1.62734	0
522	-47.19286	27.66478	74.04397	9.76404	-60.21158	49.63387	69.97562	-49.63387	-89.5037	-48.8202	-31.73313	1.62734	0
523	-39.86983	42.31084	81.367	-0.81367	-60.21158	61.83892	69.97562	-42.31084	-84.62168	-46.37919	-29.29212	-3.25468	0
524	-42.31084	49.63387	91.13104	-3.25468	-67.53461	69.16195	67.53461	-39.86983	-84.62168	-51.26121	-34.17414	-11.39138	0
525	-42.31084	59.39791	100.89508	-8.1367	-72.41663	78.92599	67.53461	-34.98781	-82.18067	-51.26121	-39.05616	-16.2734	0
526	-39.86983	66.72094	105.7771	-13.01872	-72.41663	86.24902	67.53461	-27.66478	-79.73966	-51.26121	-43.93818	-21.15542	0
527	-39.86983	69.16195	108.21811	-15.45973	-74.85764	88.69003	67.53461	-22.78276	-77.29865	-51.26121	-46.37919	-23.59643	0
528	-39.86983	66.72094	105.7771	-13.01872	-72.41663	86.24902	62.65259	-14.64606	-72.41663	-48.8202	-48.8202	-26.03744	0
529	-32.5468	69.16195	100.89508	-17.90074	-67.53461	83.80801	60.21158	-2.44101	-60.21158	-41.49717	-46.37919	-26.03744	0
530	-22.78276	74.04397	96.01306	-25.22377	-60.21158	83.80801	60.21158	9.76404	-45.56552	-29.29212	-41.49717	-28.47845	0
531	-15.45973	76.48498	91.13104	-30.10579	-52.88855	83.80801	62.65259	29.29212	-30.91946	-16.2734	-34.17414	-23.59643	0
532	-8.1367	78.92599	86.24902	-34.98781	-48.00653	81.367	69.97562	46.37919	-17.90074	-4.06835	-21.96909	-18.71441	0
533	-3.25468	81.367	83.80801	-39.86983	-43.12451	81.367	74.85764	63.46626	-3.25468	10.57771	-8.95037	-13.83239	0
534	-0.81367	78.92599	78.92599	-39.86983	-40.6835	78.92599	77.29865	75.67131	8.95037	22.78276	3.25468	-6.50936	0
535	-0.81367	78.92599	78.92599	-39.86983	-40.6835	78.92599	79.73966	87.87636	18.71441	32.5468	17.90074	1.62734	0
536	-0.81367	78.92599	78.92599	-39.86983	-40.6835	78.92599	84.62168	100.08141	28.47845	42.31084	27.66478	11.39138	-1500	QRS-0
537	-0.81367	81.367	81.367	-39.86983	-40.6835	81.367	89.5037	114.72747	40.6835	54.51589	37.42882	21.15542	0
538	2.44101	81.367	78.92599	-42.31084	-38.24249	81.367	91.94471	126.93252	52.88855	59.39791	44.75185	28.47845	0
539	7.32303	83.80801	76.48498	-44.75185	-35.80148	81.367	91.94471	144.01959	65.0936	66.72094	52.07488	33.36047	0
540	9.76404	88.69003	78.92599	-49.63387	-35.80148	83.80801	96.82673	161.10666	79.73966	71.60296	54.51589	35.80148	0
541	14.64606	91.13104	76.48498	-52.07488	-30.91946	83.80801	101.70875	183.07575	91.94471	76.48498	54.51589	35.80148	0
542	14.64606	78.92599	64.27993	-47.19286	-26.03744	71.60296	106.59077	205.04484	104.14976	76.48498	54.51589	33.36047	0
543	17.08707	66.72094	49.63387	-42.31084	-16.2734	59.39791	113.9138	227.01393	116.35481	76.48498	54.51589	30.91946	0
544	19.52808	59.39791	39.86983	-39.86983	-11.39138	49.63387	118.79582	244.101	128.55986	78.92599	56.9569	28.47845	0
545	24.4101	54.51589	30.10579	-39.86983	-4.06835	42.31084	123.67784	263.62908	138.3239	86.24902	56.9569	28.47845	0
546	29.29212	52.07488	22.78276	-39.86983	4.06835	37.42882	128.55986	280.71615	150.52895	93.57205	56.9569	28.47845	0
547	36.61515	54.51589	17.90074	-44.75185	8.95037	37.42882	133.44188	302.68524	167.61602	105.7771	61.83892	30.91946	0
548	41.49717	54.51589	13.01872	-47.19286	13.83239	34.98781	138.3239	327.09534	189.58511	125.30518	71.60296	38.24249	0
549	46.37919	52.07488	5.69569	-49.63387	21.15542	30.10579	145.64693	351.50544	211.5542	142.39225	83.80801	45.56552	0
550	58.58424	56.9569	-1.62734	-56.9569	30.91946	27.66478	148.08794	375.91554	233.52329	157.03831	93.57205	55.32956	0
551	65.90727	61.83892	-4.88202	-64.27993	35.80148	30.10579	150.52895	400.32564	250.61036	164.36134	100.89508	60.21158	0
552	70.78929	59.39791	-12.20505	-64.27993	40.6835	25.22377	157.85198	424.73574	265.25642	171.68437	108.21811	65.0936	0
553	73.2303	49.63387	-24.4101	-61.83892	48.00653	13.01872	162.734	444.26382	279.90248	176.56639	117.98215	72.41663	0
554	80.55333	42.31084	-39.05616	-61.83892	60.21158	3.25468	170.05703	466.23291	292.10753	183.88942	125.30518	79.73966	0
555	92.75838	47.19286	-46.37919	-69.16195	69.97562	0.81367	174.93905	485.76099	304.31258	191.21245	130.1872	82.18067	0
556	95.19939	42.31084	-53.70222	-69.16195	74.85764	-4.88202	179.82107	505.28907	318.95864	198.53548	132.62821	82.18067	0
557	95.19939	32.5468	-63.46626	-64.27993	79.73966	-14.64606	182.26208	524.81715	333.6047	208.29952	135.06922	82.18067	0
558	102.52242	27.66478	-75.67131	-64.27993	89.5037	-24.4101	184.70309	549.22725	353.13278	220.50457	142.39225	87.06269	0
559	114.72747	22.78276	-92.75838	-69.16195	104.14976	-34.17414	192.02612	576.07836	377.54288	235.15063	152.15629	94.38572	0
560	119.60949	15.45973	-104.96343	-66.72094	111.47279	-43.93818	199.34915	600.48846	397.07096	244.91467	159.47932	101.70875	0
561	129.37353	10.57771	-119.60949	-69.16195	123.67784	-53.70222	199.34915	624.89856	414.15803	249.79669	164.36134	106.59077	0
562	139.13757	0.81367	-139.13757	-69.16195	138.3239	-68.34828	204.23117	644.42664	428.80409	257.11972	169.24336	111.47279	0
563	151.34262	-4.88202	-156.22464	-74.04397	152.96996	-80.55333	209.11319	663.95472	443.45015	264.44275	179.0074	116.35481	0
564	163.54767	-9.76404	-173.31171	-76.48498	167.61602	-90.31737	216.43622	681.04179	458.09621	269.32477	186.33043	116.35481	0
565	170.8707	-17.08707	-187.95777	-76.48498	177.38006	-102.52242	218.87723	695.68785	465.41924	274.20679	186.33043	113.9138	0
566	175.75272	-19.52808	-195.2808	-78.92599	184.70309	-107.40444	216.43622	700.56987	470.30126	274.20679	181.44841	104.14976	0
567	178.19373	-24.4101	-202.60383	-76.48498	189.58511	-112.28646	216.43622	712.77492	480.0653	276.6478	174.12538	94.38572	0
568	183.07575	-19.52808	-202.60383	-81.367	192.02612	-109.84545	216.43622	724.97997	492.27035	281.52982	174.12538	91.94471	0
569	187.95777	-14.64606	-202.60383	-86.24902	194.46713	-107.40444	216.43622	737.18502	504.4754	283.97083	174.12538	91.94471	0
570	192.83979	-9.76404	-202.60383	-91.13104	196.90814	-104.96343	216.43622	744.50805	514.23944	288.85285	176.56639	94.38572	0
571	200.16282	-9.76404	-209.92686	-96.01306	204.23117	-109.84545	216.43622	756.7131	524.00348	293.73487	181.44841	101.70875	0
572	202.60383	-14.64606	-217.24989	-93.57205	209.11319	-114.72747	216.43622	766.47714	531.32651	298.61689	191.21245	109.03178	0
573	214.80888	-7.32303	-222.13191	-103.33609	216.43622	-114.72747	216.43622	771.35916	538.64954	305.93992	203.4175	118.79582	0
574	222.13191	-12.20505	-234.33696	-105.7771	226.20026	-122.0505	216.43622	768.91815	541.09055	308.38093	208.29952	121.23683	0
575	222.13191	-26.85111	-248.98302	-98.45407	233.52329	-136.69656	213.99521	768.91815	538.64954	308.38093	210.74053	121.23683	0
576	224.57292	-39.05616	-263.62908	-93.57205	243.28733	-151.34262	213.99521	768.91815	538.64954	308.38093	210.74053	121.23683	0
577	231.89595	-48.8202	-280.71615	-91.13104	255.49238	-163.54767	213.99521	766.47714	538.64954	308.38093	208.29952	116.35481	0
578	231.89595	-56.14323	-288.03918	-88.69003	257.93339	-170.8707	211.5542	761.59512	538.64954	308.38093	205.85851	111.47279	0
579	231.89595	-65.90727	-297.80322	-83.80801	262.81541	-180.63474	206.67218	751.83108	538.64954	305.93992	200.97649	104.14976	0
580	224.57292	-85.43535	-310.00827	-69.16195	265.25642	-197.72181	201.79016	742.06704	536.20853	303.49891	198.53548	101.70875	0
581	224.57292	-92.75838	-317.3313	-66.72094	270.13844	-205.04484	201.79016	737.18502	536.20853	303.49891	198.53548	101.70875	0
582	227.01393	-100.08141	-327.09534	-64.27993	275.02046	-212.36787	199.34915	727.42098	528.8855	301.0579	196.09447	101.70875	0
583	222.13191	-102.52242	-324.65433	-59.39791	272.57945	-212.36787	194.46713	712.77492	519.12146	293.73487	193.65346	99.26774	0
584	212.36787	-107.40444	-319.77231	-52.07488	265.25642	-212.36787	189.58511	688.36482	502.03439	283.97083	183.88942	94.38572	0
585	207.48585	-112.28646	-319.77231	-47.19286	262.81541	-214.80888	184.70309	666.39573	484.94732	271.76578	174.12538	87.06269	0
586	202.60383	-112.28646	-314.89029	-44.75185	257.93339	-212.36787	184.70309	646.86765	465.41924	264.44275	164.36134	79.73966	0
587	192.83979	-117.16848	-310.00827	-37.42882	250.61036	-212.36787	182.26208	622.45755	445.89116	252.2377	152.15629	72.41663	0
588	183.07575	-114.72747	-297.80322	-34.98781	238.40531	-205.04484	177.38006	595.60644	428.80409	240.03265	144.83326	65.0936	0
589	175.75272	-107.40444	-283.15716	-34.98781	228.64127	-195.2808	174.93905	571.19634	411.71702	235.15063	139.95124	60.21158	0
590	165.98868	-102.52242	-268.5111	-32.5468	216.43622	-185.51676	170.05703	541.90422	392.18894	232.70962	137.51023	55.32956	0
591	156.22464	-102.52242	-258.74706	-27.66478	206.67218	-180.63474	165.17501	517.49412	379.98389	235.15063	139.95124	55.32956	0
592	151.34262	-92.75838	-244.101	-30.10579	196.90814	-168.42969	157.85198	490.64301	362.89682	237.59164	139.95124	55.32956	0
593	151.34262	-73.2303	-224.57292	-39.86983	187.1441	-148.90161	152.96996	463.7919	345.80975	237.59164	144.83326	52.88855	0
594	146.4606	-56.14323	-202.60383	-44.75185	172.49804	-129.37353	148.08794	432.05877	326.28167	232.70962	142.39225	48.00653	0
595	131.81454	-51.26121	-183.07575	-39.86983	155.41097	-117.16848	138.3239	400.32564	299.43056	220.50457	137.51023	40.6835	0
596	117.16848	-48.8202	-165.98868	-34.98781	140.76491	-107.40444	128.55986	368.59251	275.02046	208.29952	125.30518	35.80148	0
597	109.84545	-34.17414	-144.01959	-37.42882	126.11885	-87.87636	121.23683	341.7414	250.61036	191.21245	115.54114	33.36047	0
598	104.96343	-21.96909	-126.93252	-42.31084	113.9138	-73.2303	111.47279	312.44928	226.20026	174.12538	105.7771	30.91946	0
599	90.31737	-29.29212	-119.60949	-30.10579	104.14976	-73.2303	101.70875	288.03918	206.67218	161.92033	98.45407	30.91946	0
600	78.11232	-41.49717	-119.60949	-17.90074	96.82673	-80.55333	89.5037	258.74706	187.1441	149.71528	91.13104	28.47845	0
601	73.2303	-39.05616	-112.28646	-17.90074	91.94471	-75.67131	79.73966	236.77797	167.61602	144.83326	86.24902	26.03744	0
602	68.34828	-31.73313	-100.08141	-17.90074	82.18067	-65.90727	74.85764	212.36787	150.52895	139.95124	83.80801	23.59643	0
603	58.58424	-34.17414	-92.75838	-13.01872	74.85764	-63.46626	67.53461	187.95777	135.88289	139.95124	83.80801	18.71441	0
604	43.93818	-36.61515	-80.55333	-3.25468	60.21158	-58.58424	57.77057	158.66565	116.35481	132.62821	78.92599	11.39138	0
605	31.73313	-31.73313	-63.46626	-0.81367	45.56552	-46.37919	45.56552	129.37353	91.94471	122.86417	71.60296	4.06835	0
606	21.96909	-19.52808	-41.49717	-0.81367	30.91946	-29.29212	35.80148	104.96343	69.97562	115.54114	64.27993	1.62734	0
607	9.76404	-21.96909	-31.73313	4.88202	18.71441	-26.85111	26.03744	82.99434	52.88855	110.65912	59.39791	1.62734	0
608	4.88202	-19.52808	-24.4101	7.32303	13.83239	-21.96909	21.15542	65.90727	38.24249	105.7771	59.39791	1.62734	0
609	-0.81367	-17.08707	-17.08707	7.32303	6.50936	-17.08707	13.83239	51.26121	28.47845	100.89508	56.9569	1.62734	0
610	-3.25468	-17.08707	-14.64606	9.76404	4.06835	-17.08707	8.95037	36.61515	16.2734	93.57205	54.51589	-0.81367	0
611	-8.1367	-14.64606	-7.32303	9.76404	-1.62734	-12.20505	5.69569	29.29212	8.95037	91.13104	52.07488	-6.50936	0
612	-13.01872	-14.64606	-1.62734	12.20505	-6.50936	-9.76404	0.81367	19.52808	1.62734	91.13104	52.07488	-8.95037	0
613	-13.01872	-4.88202	8.1367	7.32303	-11.39138	0.81367	-1.62734	7.32303	-5.69569	93.57205	52.07488	-13.83239	0
614	-22.78276	-1.62734	20.34175	12.20505	-21.15542	8.1367	-6.50936	-7.32303	-15.45973	93.57205	52.07488	-18.71441	0
615	-32.5468	0.81367	32.5468	14.64606	-33.36047	15.45973	-13.83239	-22.78276	-28.47845	88.69003	49.63387	-21.15542	0
616	-37.42882	0.81367	37.42882	17.08707	-38.24249	17.90074	-16.2734	-27.66478	-35.80148	86.24902	47.19286	-18.71441	0
617	-42.31084	-4.88202	37.42882	21.96909	-40.6835	15.45973	-21.15542	-34.98781	-45.56552	81.367	44.75185	-16.2734	0
618	-42.31084	-9.76404	32.5468	24.4101	-38.24249	10.57771	-21.15542	-37.42882	-48.00653	76.48498	44.75185	-11.39138	0
619	-39.86983	-12.20505	27.66478	24.4101	-35.80148	8.1367	-23.59643	-37.42882	-50.44754	69.16195	42.31084	-11.39138	0
620	-37.42882	-12.20505	25.22377	24.4101	-33.36047	5.69569	-26.03744	-39.86983	-52.88855	59.39791	34.98781	-11.39138	0
621	-37.42882	-14.64606	22.78276	24.4101	-30.91946	3.25468	-26.03744	-39.86983	-55.32956	56.9569	32.5468	-13.83239	0
622	-37.42882	-14.64606	22.78276	24.4101	-30.91946	3.25468	-23.59643	-37.42882	-57.77057	54.51589	30.10579	-16.2734	0
623	-34.98781	-12.20505	22.78276	21.96909	-30.91946	5.69569	-23.59643	-39.86983	-55.32956	56.9569	30.10579	-18.71441	0
624	-37.42882	-9.76404	27.66478	21.96909	-33.36047	8.1367	-23.59643	-44.75185	-57.77057	59.39791	30.10579	-21.15542	0
625	-39.86983	-9.76404	30.10579	24.4101	-35.80148	10.57771	-23.59643	-49.63387	-67.53461	54.51589	25.22377	-26.03744	0
626	-47.19286	-9.76404	37.42882	26.85111	-43.12451	13.01872	-26.03744	-56.9569	-77.29865	49.63387	15.45973	-30.91946	0
627	-47.19286	-7.32303	39.86983	26.85111	-45.56552	15.45973	-26.03744	-59.39791	-82.18067	44.75185	8.1367	-33.36047	0
628	-49.63387	-7.32303	42.31084	26.85111	-48.00653	17.90074	-30.91946	-64.27993	-87.06269	39.86983	0.81367	-38.24249	0
629	-44.75185	-1.62734	42.31084	21.96909	-43.12451	20.34175	-33.36047	-64.27993	-87.06269	42.31084	-1.62734	-38.24249	0
630	-44.75185	3.25468	47.19286	19.52808	-45.56552	25.22377	-35.80148	-66.72094	-87.06269	42.31084	-4.06835	-40.6835	0
631	-44.75185	8.1367	52.07488	17.08707	-48.00653	30.10579	-40.6835	-66.72094	-87.06269	42.31084	-4.06835	-43.12451	0
632	-44.75185	13.01872	56.9569	14.64606	-50.44754	34.98781	-40.6835	-61.83892	-84.62168	49.63387	0.81367	-38.24249	0
633	-44.75185	8.1367	52.07488	17.08707	-48.00653	30.10579	-40.6835	-61.83892	-82.18067	54.51589	13.01872	-33.36047	0
634	-44.75185	8.1367	52.07488	17.08707	-48.00653	30.10579	-38.24249	-59.39791	-79.73966	59.39791	25.22377	-26.03744	0
635	-49.63387	10.57771	59.39791	19.52808	-55.32956	34.98781	-38.24249	-59.39791	-82.18067	56.9569	30.10579	-23.59643	0
636	-49.63387	10.57771	59.39791	19.52808	-55.32956	34.98781	-35.80148	-59.39791	-84.62168	54.51589	32.5468	-21.15542	0
637	-47.19286	10.57771	56.9569	17.08707	-52.88855	32.5468	-33.36047	-56.9569	-82.18067	54.51589	32.5468	-18.71441	0
638	-44.75185	5.69569	49.63387	19.52808	-48.00653	27.66478	-33.36047	-54.51589	-79.73966	54.51589	34.98781	-18.71441	0
639	-42.31084	5.69569	47.19286	17.08707	-45.56552	25.22377	-33.36047	-49.63387	-72.41663	54.51589	34.98781	-18.71441	0
640	-42.31084	5.69569	47.19286	17.08707	-45.56552	25.22377	-35.80148	-49.63387	-67.53461	54.51589	32.5468	-21.15542	0
641	-37.42882	0.81367	37.42882	17.08707	-38.24249	17.90074	-35.80148	-42.31084	-65.0936	56.9569	32.5468	-21.15542	0
642	-37.42882	-1.62734	34.98781	19.52808	-35.80148	15.45973	-30.91946	-39.86983	-62.65259	59.39791	32.5468	-21.15542	0
643	-39.86983	-4.88202	34.98781	21.96909	-38.24249	15.45973	-30.91946	-39.86983	-62.65259	59.39791	32.5468	-23.59643	0
644	-32.5468	5.69569	37.42882	12.20505	-35.80148	20.34175	-28.47845	-39.86983	-62.65259	56.9569	32.5468	-26.03744	0
645	-30.10579	10.57771	39.86983	9.76404	-35.80148	25.22377	-21.15542	-42.31084	-69.97562	52.07488	27.66478	-26.03744	0
646	-27.66478	10.57771	37.42882	7.32303	-33.36047	22.78276	-18.71441	-42.31084	-72.41663	47.19286	22.78276	-28.47845	0
647	-30.10579	3.25468	32.5468	12.20505	-30.91946	17.90074	-21.15542	-44.75185	-77.29865	42.31084	15.45973	-33.36047	0
648	-30.10579	5.69569	34.98781	12.20505	-33.36047	20.34175	-21.15542	-44.75185	-77.29865	39.86983	13.01872	-33.36047	0
649	-25.22377	10.57771	34.98781	7.32303	-30.91946	22.78276	-21.15542	-42.31084	-74.85764	39.86983	13.01872	-28.47845	0
650	-30.10579	0.81367	30.10579	14.64606	-30.91946	15.45973	-21.15542	-44.75185	-74.85764	34.98781	10.57771	-28.47845	0
651	-42.31084	-14.64606	27.66478	26.85111	-35.80148	5.69569	-23.59643	-44.75185	-77.29865	34.98781	10.57771	-26.03744	0
652	-47.19286	-19.52808	27.66478	31.73313	-38.24249	3.25468	-28.47845	-47.19286	-79.73966	34.98781	13.01872	-28.47845	0
653	-49.63387	-14.64606	34.98781	31.73313	-43.12451	10.57771	-26.03744	-49.63387	-79.73966	34.98781	13.01872	-30.91946	0
654	-47.19286	-12.20505	34.98781	29.29212	-43.12451	10.57771	-21.15542	-47.19286	-77.29865	39.86983	17.90074	-30.91946	0
655	-44.75185	-7.32303	37.42882	24.4101	-43.12451	15.45973	-16.2734	-44.75185	-79.73966	39.86983	20.34175	-30.91946	0
656	-47.19286	-7.32303	39.86983	26.85111	-45.56552	15.45973	-18.71441	-47.19286	-82.18067	39.86983	20.34175	-33.36047	0
657	-44.75185	-4.88202	39.86983	24.4101	-43.12451	17.90074	-18.71441	-47.19286	-82.18067	42.31084	20.34175	-33.36047	0
658	-44.75185	-1.62734	42.31084	21.96909	-43.12451	20.34175	-16.2734	-44.75185	-79.73966	42.31084	22.78276	-30.91946	0
659	-34.98781	-1.62734	32.5468	17.08707	-33.36047	15.45973	-11.39138	-37.42882	-72.41663	47.19286	27.66478	-26.03744	0
660	-34.98781	-7.32303	27.66478	19.52808	-33.36047	10.57771	-11.39138	-34.98781	-65.0936	52.07488	27.66478	-23.59643	0
661	-42.31084	-12.20505	30.10579	26.85111	-38.24249	8.1367	-13.83239	-34.98781	-62.65259	54.51589	27.66478	-26.03744	0
662	-39.86983	-14.64606	25.22377	26.85111	-33.36047	5.69569	-16.2734	-30.10579	-57.77057	59.39791	27.66478	-26.03744	0
663	-39.86983	-17.08707	22.78276	26.85111	-33.36047	3.25468	-8.95037	-27.66478	-50.44754	66.72094	32.5468	-26.03744	0
664	-34.98781	-12.20505	22.78276	21.96909	-30.91946	5.69569	-8.95037	-27.66478	-48.00653	69.16195	34.98781	-26.03744	0
665	-30.10579	-7.32303	22.78276	17.08707	-28.47845	8.1367	-4.06835	-22.78276	-48.00653	71.60296	34.98781	-26.03744	0
666	-32.5468	-7.32303	25.22377	19.52808	-30.91946	8.1367	-1.62734	-22.78276	-52.88855	69.16195	34.98781	-28.47845	0
667	-30.10579	-4.88202	25.22377	17.08707	-28.47845	10.57771	0.81367	-19.52808	-55.32956	61.83892	34.98781	-26.03744	0
668	-30.10579	-9.76404	20.34175	19.52808	-26.03744	5.69569	5.69569	-17.08707	-55.32956	56.9569	34.98781	-21.15542	0
669	-30.10579	-14.64606	15.45973	21.96909	-23.59643	0.81367	5.69569	-17.08707	-57.77057	49.63387	30.10579	-21.15542	0
670	-32.5468	-21.96909	10.57771	26.85111	-23.59643	-7.32303	5.69569	-19.52808	-60.21158	44.75185	27.66478	-18.71441	0
671	-34.98781	-31.73313	3.25468	31.73313	-21.15542	-14.64606	5.69569	-17.08707	-62.65259	44.75185	30.10579	-13.83239	0
672	-32.5468	-31.73313	0.81367	31.73313	-18.71441	-17.08707	3.25468	-22.78276	-65.0936	44.75185	30.10579	-8.95037	0
673	-34.98781	-31.73313	3.25468	31.73313	-21.15542	-14.64606	-4.06835	-27.66478	-67.53461	49.63387	27.66478	-11.39138	0
674	-34.98781	-26.85111	8.1367	29.29212	-23.59643	-9.76404	-8.95037	-32.5468	-67.53461	54.51589	27.66478	-13.83239	0
675	-34.98781	-19.52808	15.45973	26.85111	-26.03744	-1.62734	-13.83239	-32.5468	-69.97562	59.39791	30.10579	-16.2734	0
676	-34.98781	-7.32303	27.66478	19.52808	-33.36047	10.57771	-16.2734	-32.5468	-69.97562	64.27993	32.5468	-18.71441	0
677	-34.98781	0.81367	34.98781	17.08707	-35.80148	17.90074	-18.71441	-34.98781	-72.41663	64.27993	34.98781	-18.71441	0
678	-37.42882	5.69569	42.31084	14.64606	-40.6835	22.78276	-21.15542	-34.98781	-67.53461	66.72094	37.42882	-16.2734	0
679	-37.42882	10.57771	47.19286	12.20505	-43.12451	27.66478	-23.59643	-27.66478	-60.21158	69.16195	44.75185	-11.39138	0
680	-32.5468	13.01872	44.75185	9.76404	-38.24249	27.66478	-23.59643	-22.78276	-55.32956	71.60296	52.07488	-6.50936	0
681	-32.5468	17.90074	49.63387	7.32303	-40.6835	32.5468	-23.59643	-19.52808	-52.88855	71.60296	56.9569	-0.81367	0
682	-32.5468	17.90074	49.63387	7.32303	-40.6835	32.5468	-23.59643	-17.08707	-48.00653	71.60296	64.27993	4.06835	0
683	-30.10579	15.45973	44.75185	7.32303	-38.24249	30.10579	-23.59643	-12.20505	-40.6835	76.48498	71.60296	11.39138	0
684	-30.10579	15.45973	44.75185	7.32303	-38.24249	30.10579	-26.03744	-9.76404	-35.80148	78.92599	76.48498	13.83239	0
685	-27.66478	15.45973	42.31084	4.88202	-35.80148	27.66478	-28.47845	-7.32303	-35.80148	76.48498	76.48498	13.83239	0
686	-27.66478	13.01872	39.86983	7.32303	-33.36047	25.22377	-28.47845	-4.88202	-35.80148	76.48498	76.48498	13.83239	0
687	-27.66478	10.57771	37.42882	7.32303	-33.36047	22.78276	-26.03744	-4.88202	-35.80148	76.48498	76.48498	13.83239	0
688	-27.66478	13.01872	39.86983	7.32303	-33.36047	25.22377	-28.47845	-4.88202	-38.24249	74.04397	76.48498	13.83239	0
689	-27.66478	13.01872	39.86983	7.32303	-33.36047	25.22377	-35.80148	-4.88202	-43.12451	71.60296	71.60296	11.39138	0
690	-30.10579	15.45973	44.75185	7.32303	-38.24249	30.10579	-38.24249	-7.32303	-48.00653	69.16195	69.16195	8.95037	0
691	-27.66478	17.90074	44.75185	4.88202	-35.80148	30.10579	-35.80148	-9.76404	-50.44754	64.27993	66.72094	11.39138	0
692	-30.10579	13.01872	42.31084	7.32303	-35.80148	27.66478	-40.6835	-14.64606	-55.32956	61.83892	66.72094	11.39138	0
693	-32.5468	13.01872	44.75185	9.76404	-38.24249	27.66478	-48.00653	-22.78276	-60.21158	56.9569	61.83892	6.50936	0
694	-37.42882	10.57771	47.19286	12.20505	-43.12451	27.66478	-55.32956	-25.22377	-65.0936	54.51589	56.9569	4.06835	0
695	-37.42882	8.1367	44.75185	14.64606	-40.6835	25.22377	-55.32956	-27.66478	-65.0936	54.51589	56.9569	-0.81367	0
696	-37.42882	10.57771	47.19286	12.20505	-43.12451	27.66478	-60.21158	-30.10579	-65.0936	52.07488	54.51589	-3.25468	0
697	-34.98781	10.57771	44.75185	12.20505	-40.6835	27.66478	-62.65259	-30.10579	-67.53461	52.07488	52.07488	-6.50936	0
698	-30.10579	13.01872	42.31084	7.32303	-35.80148	27.66478	-67.53461	-32.5468	-67.53461	52.07488	52.07488	-6.50936	0
699	-25.22377	17.90074	42.31084	1.62734	-33.36047	30.10579	-67.53461	-32.5468	-67.53461	52.07488	54.51589	-3.25468	0
700	-22.78276	15.45973	37.42882	1.62734	-30.91946	25.22377	-69.97562	-32.5468	-67.53461	52.07488	56.9569	-0.81367	0
701	-20.34175	13.01872	32.5468	1.62734	-26.03744	22.78276	-74.85764	-32.5468	-69.97562	52.07488	59.39791	6.50936	0
702	-17.90074	10.57771	27.66478	1.62734	-23.59643	17.90074	-79.73966	-37.42882	-74.85764	49.63387	64.27993	11.39138	0
703	-17.90074	-1.62734	15.45973	9.76404	-16.2734	5.69569	-84.62168	-42.31084	-77.29865	47.19286	69.16195	16.2734	0
704	-22.78276	-7.32303	15.45973	14.64606	-21.15542	3.25468	-89.5037	-44.75185	-79.73966	44.75185	69.16195	18.71441	0
705	-30.10579	-19.52808	10.57771	24.4101	-21.15542	-4.88202	-91.94471	-47.19286	-79.73966	44.75185	71.60296	21.15542	0
706	-32.5468	-19.52808	13.01872	24.4101	-23.59643	-4.88202	-94.38572	-47.19286	-79.73966	44.75185	71.60296	21.15542	0
707	-32.5468	-17.08707	15.45973	24.4101	-26.03744	-1.62734	-96.82673	-52.07488	-79.73966	44.75185	66.72094	16.2734	0
708	-37.42882	-19.52808	17.90074	26.85111	-28.47845	-1.62734	-96.82673	-52.07488	-82.18067	42.31084	61.83892	11.39138	0
709	-37.42882	-17.08707	20.34175	26.85111	-30.91946	0.81367	-96.82673	-52.07488	-82.18067	39.86983	56.9569	6.50936	0
710	-34.98781	-12.20505	22.78276	21.96909	-30.91946	5.69569	-96.82673	-52.07488	-84.62168	39.86983	54.51589	1.62734	0
711	-30.10579	-4.88202	25.22377	17.08707	-28.47845	10.57771	-96.82673	-52.07488	-84.62168	37.42882	52.07488	1.62734	0
712	-25.22377	0.81367	25.22377	12.20505	-26.03744	13.01872	-96.82673	-52.07488	-84.62168	34.98781	49.63387	-0.81367	0
713	-32.5468	-4.88202	27.66478	17.08707	-30.91946	10.57771	-101.70875	-59.39791	-87.06269	27.66478	44.75185	-6.50936	0
714	-25.22377	0.81367	25.22377	12.20505	-26.03744	13.01872	-99.26774	-56.9569	-84.62168	27.66478	47.19286	-3.25468	0
715	-22.78276	3.25468	25.22377	9.76404	-23.59643	13.01872	-99.26774	-56.9569	-84.62168	30.10579	49.63387	-0.81367	0
716	-27.66478	-4.88202	22.78276	14.64606	-26.03744	8.1367	-99.26774	-56.9569	-84.62168	27.66478	49.63387	-0.81367	0
717	-32.5468	-4.88202	27.66478	17.08707	-30.91946	10.57771	-99.26774	-56.9569	-84.62168	25.22377	49.63387	-0.81367	0
718	-32.5468	-4.88202	27.66478	17.08707	-30.91946	10.57771	-99.26774	-59.39791	-84.62168	25.22377	49.63387	-3.25468	0
719	-30.10579	-4.88202	25.22377	17.08707	-28.47845	10.57771	-99.26774	-56.9569	-82.18067	27.66478	47.19286	-3.25468	0
720	-27.66478	-4.88202	22.78276	14.64606	-26.03744	8.1367	-96.82673	-54.51589	-82.18067	27.66478	47.19286	-6.50936	0
721	-34.98781	-9.76404	25.22377	21.96909	-30.91946	8.1367	-99.26774	-56.9569	-84.62168	25.22377	42.31084	-8.95037	0
722	-34.98781	-7.32303	27.66478	19.52808	-33.36047	10.57771	-99.26774	-61.83892	-87.06269	22.78276	37.42882	-11.39138	0
723	-34.98781	-4.88202	30.10579	19.52808	-33.36047	13.01872	-99.26774	-64.27993	-89.5037	22.78276	34.98781	-13.83239	0
724	-34.98781	-7.32303	27.66478	19.52808	-33.36047	10.57771	-101.70875	-66.72094	-89.5037	20.34175	34.98781	-13.83239	0
725	-34.98781	-14.64606	20.34175	24.4101	-28.47845	3.25468	-96.82673	-66.72094	-89.5037	20.34175	37.42882	-13.83239	0
726	-34.98781	-14.64606	20.34175	24.4101	-28.47845	3.25468	-96.82673	-66.72094	-91.94471	20.34175	39.86983	-11.39138	0
727	-34.98781	-12.20505	22.78276	21.96909	-30.91946	5.69569	-96.82673	-69.16195	-91.94471	17.90074	39.86983	-11.39138	0
728	-34.98781	-14.64606	20.34175	24.4101	-28.47845	3.25468	-96.82673	-71.60296	-91.94471	17.90074	39.86983	-11.39138	0
729	-37.42882	-19.52808	17.90074	26.85111	-28.47845	-1.62734	-96.82673	-69.16195	-91.94471	17.90074	39.86983	-11.39138	0
730	-39.86983	-19.52808	20.34175	29.29212	-30.91946	0.81367	-94.38572	-69.16195	-91.94471	17.90074	39.86983	-13.83239	0
731	-42.31084	-17.08707	25.22377	29.29212	-35.80148	3.25468	-94.38572	-71.60296	-91.94471	15.45973	34.98781	-16.2734	0
732	-42.31084	-14.64606	27.66478	26.85111	-35.80148	5.69569	-94.38572	-74.04397	-94.38572	15.45973	32.5468	-16.2734	0
733	-39.86983	-12.20505	27.66478	24.4101	-35.80148	8.1367	-94.38572	-74.04397	-94.38572	10.57771	27.66478	-21.15542	0
734	-39.86983	-12.20505	27.66478	24.4101	-35.80148	8.1367	-94.38572	-76.48498	-99.26774	8.1367	25.22377	-23.59643	0
735	-42.31084	-7.32303	34.98781	24.4101	-40.6835	13.01872	-94.38572	-78.92599	-99.26774	5.69569	20.34175	-28.47845	0
736	-44.75185	-4.88202	39.86983	24.4101	-43.12451	17.90074	-94.38572	-78.92599	-99.26774	5.69569	20.34175	-30.91946	0
737	-42.31084	-4.88202	37.42882	21.96909	-40.6835	15.45973	-94.38572	-81.367	-101.70875	5.69569	20.34175	-30.91946	0
738	-44.75185	-4.88202	39.86983	24.4101	-43.12451	17.90074	-94.38572	-81.367	-104.14976	5.69569	15.45973	-35.80148	0
739	-47.19286	-1.62734	44.75185	24.4101	-45.56552	20.34175	-89.5037	-81.367	-104.14976	5.69569	15.45973	-35.80148	0
740	-49.63387	-1.62734	47.19286	24.4101	-48.00653	22.78276	-82.18067	-78.92599	-104.14976	5.69569	17.90074	-33.36047	0
741	-47.19286	-1.62734	44.75185	24.4101	-45.56552	20.34175	-79.73966	-78.92599	-104.14976	5.69569	20.34175	-30.91946	0
742	-44.75185	-4.88202	39.86983	24.4101	-43.12451	17.90074	-77.29865	-76.48498	-104.14976	3.25468	20.34175	-26.03744	0
743	-42.31084	-7.32303	34.98781	24.4101	-40.6835	13.01872	-72.41663	-76.48498	-104.14976	3.25468	22.78276	-21.15542	0
744	-39.86983	-12.20505	27.66478	24.4101	-35.80148	8.1367	-69.97562	-74.04397	-104.14976	3.25468	22.78276	-16.2734	0
745	-37.42882	-12.20505	25.22377	24.4101	-33.36047	5.69569	-67.53461	-71.60296	-104.14976	3.25468	25.22377	-11.39138	0
746	-39.86983	-17.08707	22.78276	26.85111	-33.36047	3.25468	-65.0936	-71.60296	-101.70875	5.69569	27.66478	-6.50936	0
747	-39.86983	-17.08707	22.78276	26.85111	-33.36047	3.25468	-62.65259	-71.60296	-99.26774	8.1367	30.10579	-6.50936	0
748	-37.42882	-12.20505	25.22377	24.4101	-33.36047	5.69569	-57.77057	-69.16195	-96.82673	8.1367	30.10579	-6.50936	0
749	-44.75185	-12.20505	32.5468	26.85111	-40.6835	10.57771	-57.77057	-69.16195	-99.26774	5.69569	22.78276	-8.95037	0
750	-42.31084	-7.32303	34.98781	24.4101	-40.6835	13.01872	-55.32956	-69.16195	-101.70875	3.25468	20.34175	-8.95037	0
751	-39.86983	-7.32303	32.5468	21.96909	-38.24249	13.01872	-50.44754	-66.72094	-99.26774	0.81367	15.45973	-8.95037	0
752	-39.86983	-7.32303	32.5468	21.96909	-38.24249	13.01872	-50.44754	-69.16195	-101.70875	-4.06835	10.57771	-11.39138	0
753	-39.86983	-1.62734	37.42882	19.52808	-38.24249	17.90074	-45.56552	-69.16195	-101.70875	-6.50936	8.1367	-11.39138	0
754	-37.42882	5.69569	42.31084	14.64606	-40.6835	22.78276	-38.24249	-64.27993	-99.26774	-6.50936	8.1367	-11.39138	0
755	-37.42882	10.57771	47.19286	12.20505	-43.12451	27.66478	-30.91946	-59.39791	-96.82673	-6.50936	8.1367	-8.95037	0
756	-32.5468	22.78276	54.51589	4.88202	-43.12451	37.42882	-23.59643	-52.07488	-87.06269	-1.62734	13.01872	-6.50936	0
757	-39.86983	22.78276	61.83892	7.32303	-50.44754	42.31084	-18.71441	-52.07488	-84.62168	0.81367	15.45973	-3.25468	0
758	-42.31084	27.66478	69.16195	7.32303	-55.32956	47.19286	-16.2734	-47.19286	-77.29865	5.69569	20.34175	-0.81367	0
759	-42.31084	32.5468	74.04397	4.88202	-57.77057	52.07488	-13.83239	-42.31084	-72.41663	10.57771	22.78276	4.06835	0
760	-39.86983	34.98781	74.04397	1.62734	-57.77057	54.51589	-13.83239	-42.31084	-69.97562	13.01872	22.78276	4.06835	0
761	-44.75185	25.22377	69.16195	9.76404	-57.77057	47.19286	-21.15542	-44.75185	-69.97562	13.01872	22.78276	4.06835	0
762	-47.19286	20.34175	66.72094	12.20505	-57.77057	42.31084	-26.03744	-49.63387	-69.97562	10.57771	17.90074	4.06835	0
763	-47.19286	15.45973	61.83892	14.64606	-55.32956	37.42882	-33.36047	-56.9569	-69.97562	5.69569	13.01872	1.62734	0
764	-42.31084	17.90074	59.39791	12.20505	-50.44754	37.42882	-35.80148	-56.9569	-72.41663	0.81367	8.1367	1.62734	0
765	-37.42882	15.45973	52.07488	9.76404	-45.56552	32.5468	-38.24249	-59.39791	-72.41663	-4.06835	3.25468	1.62734	0
766	-39.86983	13.01872	52.07488	12.20505	-45.56552	32.5468	-40.6835	-59.39791	-74.85764	-8.95037	-4.06835	1.62734	0
767	-42.31084	8.1367	49.63387	17.08707	-45.56552	27.66478	-40.6835	-59.39791	-74.85764	-13.83239	-6.50936	1.62734	0
768	-42.31084	8.1367	49.63387	17.08707	-45.56552	27.66478	-40.6835	-61.83892	-74.85764	-16.2734	-11.39138	1.62734	0
769	-42.31084	5.69569	47.19286	17.08707	-45.56552	25.22377	-40.6835	-59.39791	-74.85764	-21.15542	-14.64606	1.62734	0
770	-42.31084	5.69569	47.19286	17.08707	-45.56552	25.22377	-43.12451	-59.39791	-74.85764	-24.4101	-17.08707	4.06835	0
771	-42.31084	8.1367	49.63387	17.08707	-45.56552	27.66478	-45.56552	-61.83892	-74.85764	-26.85111	-19.52808	4.06835	0
772	-42.31084	8.1367	49.63387	17.08707	-45.56552	27.66478	-45.56552	-64.27993	-74.85764	-31.73313	-19.52808	4.06835	0
773	-32.5468	13.01872	44.75185	9.76404	-38.24249	27.66478	-45.56552	-64.27993	-72.41663	-31.73313	-21.96909	8.95037	0
774	-22.78276	22.78276	44.75185	-0.81367	-33.36047	32.5468	-45.56552	-64.27993	-72.41663	-34.17414	-24.4101	11.39138	0
775	-17.90074	27.66478	44.75185	-5.69569	-30.91946	34.98781	-45.56552	-64.27993	-69.97562	-39.05616	-24.4101	11.39138	0
776	-17.90074	30.10579	47.19286	-5.69569	-33.36047	37.42882	-50.44754	-66.72094	-72.41663	-46.37919	-29.29212	11.39138	0
777	-22.78276	22.78276	44.75185	-0.81367	-33.36047	32.5468	-57.77057	-71.60296	-74.85764	-51.26121	-36.61515	11.39138	0
778	-25.22377	15.45973	39.86983	4.88202	-33.36047	27.66478	-60.21158	-74.04397	-74.85764	-58.58424	-41.49717	11.39138	0
779	-25.22377	17.90074	42.31084	1.62734	-33.36047	30.10579	-65.0936	-74.04397	-74.85764	-63.46626	-43.93818	11.39138	0
780	-32.5468	10.57771	42.31084	9.76404	-38.24249	25.22377	-69.97562	-78.92599	-79.73966	-70.78929	-51.26121	6.50936	0
781	-32.5468	5.69569	37.42882	12.20505	-35.80148	20.34175	-69.97562	-78.92599	-79.73966	-75.67131	-56.14323	6.50936	0
782	-32.5468	5.69569	37.42882	12.20505	-35.80148	20.34175	-69.97562	-81.367	-77.29865	-78.11232	-58.58424	6.50936	0
783	-30.10579	8.1367	37.42882	9.76404	-33.36047	22.78276	-69.97562	-81.367	-74.85764	-80.55333	-61.02525	6.50936	0
784	-30.10579	8.1367	37.42882	9.76404	-33.36047	22.78276	-69.97562	-83.80801	-74.85764	-82.99434	-65.90727	6.50936	0
785	-32.5468	5.69569	37.42882	12.20505	-35.80148	20.34175	-69.97562	-83.80801	-72.41663	-87.87636	-70.78929	6.50936	0
786	-32.5468	3.25468	34.98781	14.64606	-33.36047	17.90074	-69.97562	-81.367	-69.97562	-87.87636	-73.2303	8.95037	0
787	-34.98781	3.25468	37.42882	14.64606	-35.80148	20.34175	-69.97562	-78.92599	-67.53461	-90.31737	-73.2303	8.95037	0
788	-34.98781	5.69569	39.86983	14.64606	-38.24249	22.78276	-69.97562	-78.92599	-67.53461	-95.19939	-78.11232	8.95037	0
789	-32.5468	5.69569	37.42882	12.20505	-35.80148	20.34175	-69.97562	-76.48498	-67.53461	-100.08141	-78.11232	8.95037	0
790	-27.66478	10.57771	37.42882	7.32303	-33.36047	22.78276	-67.53461	-74.04397	-62.65259	-102.52242	-80.55333	11.39138	0
791	-20.34175	15.45973	34.98781	1.62734	-28.47845	25.22377	-67.53461	-74.04397	-62.65259	-107.40444	-82.99434	11.39138	0
792	-20.34175	15.45973	34.98781	1.62734	-28.47845	25.22377	-67.53461	-74.04397	-62.65259	-112.28646	-85.43535	8.95037	0
793	-15.45973	15.45973	30.10579	-0.81367	-23.59643	22.78276	-67.53461	-74.04397	-62.65259	-114.72747	-87.87636	8.95037	0
794	-10.57771	15.45973	25.22377	-3.25468	-18.71441	20.34175	-65.0936	-74.04397	-60.21158	-119.60949	-90.31737	8.95037	0
795	-10.57771	13.01872	22.78276	-0.81367	-16.2734	17.90074	-65.0936	-74.04397	-60.21158	-122.0505	-92.75838	8.95037	0
796	-13.01872	8.1367	20.34175	1.62734	-16.2734	13.01872	-69.97562	-74.04397	-60.21158	-126.93252	-97.6404	8.95037	0
797	-13.01872	5.69569	17.90074	1.62734	-16.2734	10.57771	-69.97562	-74.04397	-57.77057	-129.37353	-100.08141	8.95037	0
798	-0.81367	13.01872	13.01872	-5.69569	-6.50936	13.01872	-65.0936	-66.72094	-52.88855	-126.93252	-97.6404	16.2734	0
799	-3.25468	3.25468	5.69569	-0.81367	-4.06835	3.25468	-67.53461	-66.72094	-50.44754	-129.37353	-100.08141	16.2734	0
800	-5.69569	-1.62734	3.25468	1.62734	-4.06835	0.81367	-72.41663	-66.72094	-52.88855	-134.25555	-102.52242	16.2734	0
801	-5.69569	-4.88202	0.81367	4.88202	-4.06835	-1.62734	-72.41663	-66.72094	-50.44754	-136.69656	-104.96343	16.2734	0
802	-0.81367	-4.88202	-4.88202	1.62734	0.81367	-4.88202	-67.53461	-66.72094	-50.44754	-141.57858	-107.40444	16.2734	0
803	2.44101	-1.62734	-4.88202	-0.81367	4.06835	-1.62734	-65.0936	-66.72094	-48.00653	-144.01959	-109.84545	16.2734	0
804	-5.69569	-7.32303	-1.62734	4.88202	-4.06835	-4.88202	-67.53461	-69.16195	-50.44754	-153.78363	-117.16848	13.83239	0
805	-10.57771	-7.32303	3.25468	7.32303	-8.95037	-1.62734	-69.97562	-71.60296	-55.32956	-161.10666	-124.49151	8.95037	0
806	-0.81367	0.81367	0.81367	-0.81367	-1.62734	0.81367	-60.21158	-66.72094	-50.44754	-161.10666	-122.0505	13.83239	0
807	2.44101	0.81367	-1.62734	-0.81367	0.81367	0.81367	-57.77057	-64.27993	-48.00653	-163.54767	-124.49151	16.2734	0
808	-0.81367	-4.88202	-4.88202	1.62734	0.81367	-4.88202	-57.77057	-61.83892	-43.12451	-163.54767	-126.93252	16.2734	0
809	-0.81367	-4.88202	-4.88202	1.62734	0.81367	-4.88202	-55.32956	-59.39791	-40.6835	-165.98868	-126.93252	16.2734	0
810	4.88202	-4.88202	-9.76404	-0.81367	6.50936	-7.32303	-50.44754	-56.9569	-38.24249	-165.98868	-126.93252	16.2734	0
811	4.88202	-4.88202	-9.76404	-0.81367	6.50936	-7.32303	-50.44754	-54.51589	-33.36047	-165.98868	-126.93252	13.83239	0
812	-0.81367	-9.76404	-9.76404	4.88202	4.06835	-9.76404	-52.88855	-59.39791	-33.36047	-170.8707	-131.81454	8.95037	0
813	-8.1367	-9.76404	-1.62734	7.32303	-4.06835	-7.32303	-55.32956	-64.27993	-38.24249	-178.19373	-136.69656	4.06835	0
814	-8.1367	-4.88202	3.25468	4.88202	-6.50936	-1.62734	-57.77057	-66.72094	-38.24249	-180.63474	-139.13757	1.62734	0
815	-10.57771	-1.62734	8.1367	4.88202	-8.95037	3.25468	-57.77057	-66.72094	-38.24249	-185.51676	-141.57858	1.62734	0
816	-13.01872	-1.62734	10.57771	7.32303	-11.39138	3.25468	-57.77057	-66.72094	-38.24249	-190.39878	-144.01959	1.62734	0
817	-15.45973	-4.88202	10.57771	9.76404	-13.83239	3.25468	-52.88855	-64.27993	-33.36047	-190.39878	-144.01959	1.62734	0
818	-8.1367	0.81367	8.1367	1.62734	-8.95037	3.25468	-48.00653	-64.27993	-28.47845	-190.39878	-144.01959	4.06835	0
819	-8.1367	0.81367	8.1367	1.62734	-8.95037	3.25468	-40.6835	-59.39791	-26.03744	-190.39878	-146.4606	4.06835	0
820	-10.57771	-4.88202	5.69569	7.32303	-8.95037	0.81367	-38.24249	-54.51589	-23.59643	-195.2808	-148.90161	4.06835	0
821	-8.1367	-7.32303	0.81367	7.32303	-6.50936	-4.88202	-33.36047	-49.63387	-21.15542	-197.72181	-148.90161	4.06835	0
822	-5.69569	-7.32303	-1.62734	4.88202	-4.06835	-4.88202	-28.47845	-49.63387	-15.45973	-197.72181	-148.90161	4.06835	0
823	-5.69569	-4.88202	0.81367	4.88202	-4.06835	-1.62734	-21.15542	-49.63387	-15.45973	-200.16282	-153.78363	4.06835	0
824	-15.45973	-12.20505	3.25468	12.20505	-11.39138	-4.88202	-16.2734	-49.63387	-13.01872	-202.60383	-156.22464	4.06835	0
825	-15.45973	-14.64606	0.81367	14.64606	-8.95037	-7.32303	-6.50936	-49.63387	-5.69569	-202.60383	-156.22464	4.06835	0
826	-15.45973	-12.20505	3.25468	12.20505	-11.39138	-4.88202	0.81367	-49.63387	-0.81367	-202.60383	-156.22464	6.50936	0
827	-15.45973	-9.76404	5.69569	12.20505	-11.39138	-1.62734	8.95037	-44.75185	4.06835	-197.72181	-156.22464	6.50936	0
828	-10.57771	-4.88202	5.69569	7.32303	-8.95037	0.81367	16.2734	-42.31084	8.95037	-192.83979	-156.22464	8.95037	0
829	-10.57771	-4.88202	5.69569	7.32303	-8.95037	0.81367	23.59643	-37.42882	11.39138	-192.83979	-156.22464	8.95037	0
830	-8.1367	-1.62734	5.69569	4.88202	-6.50936	0.81367	30.91946	-30.10579	16.2734	-192.83979	-156.22464	11.39138	0
831	-0.81367	10.57771	10.57771	-5.69569	-6.50936	10.57771	35.80148	-22.78276	23.59643	-187.95777	-153.78363	13.83239	0
832	-0.81367	15.45973	15.45973	-8.1367	-8.95037	15.45973	38.24249	-19.52808	28.47845	-187.95777	-151.34262	16.2734	0
833	-5.69569	13.01872	17.90074	-3.25468	-11.39138	15.45973	38.24249	-17.08707	28.47845	-187.95777	-151.34262	16.2734	0
834	-15.45973	5.69569	20.34175	4.88202	-18.71441	13.01872	38.24249	-17.08707	30.91946	-190.39878	-151.34262	16.2734	0
835	-15.45973	3.25468	17.90074	4.88202	-16.2734	10.57771	35.80148	-17.08707	33.36047	-190.39878	-151.34262	18.71441	0
836	-17.90074	3.25468	20.34175	7.32303	-18.71441	10.57771	33.36047	-17.08707	35.80148	-190.39878	-153.78363	18.71441	0
837	-15.45973	5.69569	20.34175	4.88202	-18.71441	13.01872	33.36047	-17.08707	35.80148	-190.39878	-156.22464	18.71441	0
838	-20.34175	0.81367	20.34175	9.76404	-21.15542	10.57771	26.03744	-22.78276	33.36047	-192.83979	-161.10666	13.83239	0
839	-20.34175	3.25468	22.78276	7.32303	-21.15542	13.01872	28.47845	-22.78276	30.91946	-195.2808	-165.98868	13.83239	0
840	-13.01872	10.57771	22.78276	1.62734	-18.71441	15.45973	28.47845	-19.52808	30.91946	-195.2808	-168.42969	11.39138	0
841	-13.01872	8.1367	20.34175	1.62734	-16.2734	13.01872	28.47845	-19.52808	30.91946	-200.16282	-173.31171	8.95037	0
842	-10.57771	8.1367	17.90074	1.62734	-13.83239	13.01872	26.03744	-19.52808	28.47845	-200.16282	-173.31171	6.50936	0
843	-15.45973	3.25468	17.90074	4.88202	-16.2734	10.57771	23.59643	-19.52808	28.47845	-202.60383	-178.19373	4.06835	0
844	-20.34175	-7.32303	13.01872	12.20505	-18.71441	3.25468	21.15542	-22.78276	26.03744	-207.48585	-180.63474	1.62734	0
845	-22.78276	-17.08707	5.69569	19.52808	-16.2734	-7.32303	21.15542	-22.78276	26.03744	-209.92686	-180.63474	1.62734	0
846	-25.22377	-26.85111	-1.62734	24.4101	-13.83239	-14.64606	21.15542	-22.78276	26.03744	-207.48585	-178.19373	1.62734	0
847	-22.78276	-31.73313	-9.76404	26.85111	-8.95037	-21.96909	23.59643	-22.78276	30.91946	-205.04484	-178.19373	4.06835	0
848	-20.34175	-34.17414	-14.64606	26.85111	-4.06835	-24.4101	28.47845	-22.78276	33.36047	-202.60383	-178.19373	6.50936	0
849	-20.34175	-36.61515	-17.08707	26.85111	-4.06835	-26.85111	26.03744	-22.78276	30.91946	-205.04484	-180.63474	1.62734	0
850	-17.90074	-34.17414	-17.08707	24.4101	-1.62734	-26.85111	26.03744	-19.52808	30.91946	-202.60383	-178.19373	4.06835	0
851	-15.45973	-29.29212	-14.64606	21.96909	-1.62734	-21.96909	26.03744	-14.64606	35.80148	-200.16282	-178.19373	6.50936	0
852	-13.01872	-29.29212	-17.08707	19.52808	0.81367	-24.4101	21.15542	-17.08707	33.36047	-200.16282	-180.63474	4.06835	0
853	-15.45973	-29.29212	-14.64606	21.96909	-1.62734	-21.96909	18.71441	-17.08707	30.91946	-202.60383	-183.07575	1.62734	0
854	-20.34175	-34.17414	-14.64606	26.85111	-4.06835	-24.4101	11.39138	-19.52808	28.47845	-205.04484	-185.51676	-0.81367	0
855	-22.78276	-39.05616	-17.08707	29.29212	-4.06835	-29.29212	8.95037	-22.78276	28.47845	-205.04484	-187.95777	-0.81367	0
856	-17.90074	-34.17414	-17.08707	24.4101	-1.62734	-26.85111	8.95037	-22.78276	28.47845	-205.04484	-187.95777	1.62734	0
857	-17.90074	-36.61515	-19.52808	26.85111	-1.62734	-29.29212	3.25468	-25.22377	28.47845	-205.04484	-190.39878	-0.81367	0
858	-10.57771	-34.17414	-24.4101	21.96909	6.50936	-29.29212	3.25468	-25.22377	28.47845	-200.16282	-190.39878	-0.81367	0
859	-10.57771	-34.17414	-24.4101	21.96909	6.50936	-29.29212	5.69569	-22.78276	28.47845	-197.72181	-187.95777	-0.81367	0
860	-13.01872	-39.05616	-26.85111	24.4101	6.50936	-34.17414	3.25468	-22.78276	28.47845	-195.2808	-187.95777	-0.81367	0
861	-13.01872	-41.49717	-29.29212	26.85111	6.50936	-36.61515	0.81367	-19.52808	30.91946	-192.83979	-187.95777	-0.81367	0
862	-15.45973	-46.37919	-31.73313	29.29212	6.50936	-39.05616	-1.62734	-19.52808	30.91946	-192.83979	-187.95777	-3.25468	0
863	-17.90074	-48.8202	-31.73313	31.73313	6.50936	-41.49717	-4.06835	-19.52808	28.47845	-192.83979	-187.95777	-6.50936	0
864	-20.34175	-51.26121	-31.73313	34.17414	4.06835	-41.49717	-6.50936	-17.08707	28.47845	-195.2808	-187.95777	-6.50936	0
865	-20.34175	-48.8202	-29.29212	34.17414	4.06835	-39.05616	-8.95037	-19.52808	28.47845	-197.72181	-190.39878	-6.50936	0
866	-13.01872	-43.93818	-31.73313	26.85111	8.95037	-39.05616	-8.95037	-19.52808	28.47845	-197.72181	-190.39878	-6.50936	0
867	-10.57771	-36.61515	-26.85111	21.96909	6.50936	-31.73313	-6.50936	-22.78276	28.47845	-195.2808	-190.39878	-8.95037	0
868	-15.45973	-43.93818	-29.29212	29.29212	6.50936	-36.61515	-6.50936	-22.78276	26.03744	-195.2808	-192.83979	-11.39138	0
869	-20.34175	-53.70222	-34.17414	36.61515	6.50936	-43.93818	-8.95037	-25.22377	23.59643	-197.72181	-195.2808	-13.83239	0
870	-20.34175	-56.14323	-36.61515	36.61515	6.50936	-46.37919	-8.95037	-22.78276	23.59643	-200.16282	-197.72181	-13.83239	0
871	-15.45973	-51.26121	-36.61515	31.73313	8.95037	-43.93818	-6.50936	-22.78276	26.03744	-195.2808	-192.83979	-13.83239	0
872	-15.45973	-53.70222	-39.05616	34.17414	11.39138	-46.37919	-8.95037	-22.78276	28.47845	-192.83979	-192.83979	-13.83239	0
873	-13.01872	-51.26121	-39.05616	31.73313	11.39138	-46.37919	-8.95037	-19.52808	30.91946	-190.39878	-187.95777	-11.39138	0
874	-13.01872	-46.37919	-34.17414	29.29212	8.95037	-41.49717	-6.50936	-19.52808	30.91946	-187.95777	-185.51676	-8.95037	0
875	-10.57771	-41.49717	-31.73313	24.4101	8.95037	-36.61515	0.81367	-14.64606	33.36047	-185.51676	-183.07575	-8.95037	0
876	-5.69569	-34.17414	-29.29212	19.52808	11.39138	-31.73313	0.81367	-14.64606	33.36047	-183.07575	-178.19373	-6.50936	0
877	-8.1367	-34.17414	-26.85111	19.52808	8.95037	-31.73313	0.81367	-19.52808	33.36047	-180.63474	-178.19373	-6.50936	0
878	-13.01872	-39.05616	-26.85111	24.4101	6.50936	-34.17414	0.81367	-19.52808	30.91946	-178.19373	-178.19373	-8.95037	0
879	-17.90074	-51.26121	-34.17414	34.17414	6.50936	-43.93818	0.81367	-22.78276	28.47845	-178.19373	-178.19373	-8.95037	0
880	-17.90074	-53.70222	-36.61515	34.17414	8.95037	-46.37919	0.81367	-19.52808	26.03744	-178.19373	-178.19373	-11.39138	0
881	-15.45973	-51.26121	-36.61515	31.73313	8.95037	-43.93818	-4.06835	-19.52808	26.03744	-178.19373	-178.19373	-11.39138	0
882	-5.69569	-46.37919	-41.49717	24.4101	16.2734	-43.93818	-4.06835	-17.08707	30.91946	-170.8707	-173.31171	-8.95037	0
883	-3.25468	-46.37919	-43.93818	24.4101	18.71441	-46.37919	-4.06835	-14.64606	33.36047	-165.98868	-168.42969	-6.50936	0
884	-0.81367	-41.49717	-41.49717	19.52808	18.71441	-41.49717	-1.62734	-12.20505	35.80148	-163.54767	-165.98868	-6.50936	0
885	2.44101	-39.05616	-41.49717	17.08707	21.15542	-39.05616	-1.62734	-12.20505	38.24249	-163.54767	-163.54767	-3.25468	0
886	-0.81367	-39.05616	-39.05616	19.52808	18.71441	-39.05616	-1.62734	-12.20505	38.24249	-161.10666	-161.10666	-3.25468	0
887	-0.81367	-36.61515	-36.61515	17.08707	16.2734	-36.61515	-4.06835	-14.64606	40.6835	-156.22464	-158.66565	-3.25468	0
888	-0.81367	-29.29212	-29.29212	14.64606	13.83239	-29.29212	-1.62734	-12.20505	43.12451	-151.34262	-158.66565	-3.25468	0
889	-0.81367	-29.29212	-29.29212	14.64606	13.83239	-29.29212	0.81367	-12.20505	43.12451	-151.34262	-156.22464	-3.25468	0
890	-3.25468	-29.29212	-26.85111	14.64606	11.39138	-29.29212	0.81367	-9.76404	43.12451	-148.90161	-156.22464	-3.25468	0
891	-0.81367	-19.52808	-19.52808	9.76404	8.95037	-19.52808	0.81367	-7.32303	45.56552	-148.90161	-156.22464	-6.50936	0
892	4.88202	-12.20505	-17.08707	1.62734	8.95037	-14.64606	-1.62734	-4.88202	48.00653	-146.4606	-153.78363	-6.50936	0
893	7.32303	-12.20505	-19.52808	1.62734	11.39138	-14.64606	-1.62734	-4.88202	50.44754	-144.01959	-151.34262	-6.50936	0
894	9.76404	-12.20505	-21.96909	1.62734	13.83239	-17.08707	-1.62734	-4.88202	48.00653	-146.4606	-151.34262	-6.50936	0
895	7.32303	-12.20505	-19.52808	1.62734	11.39138	-14.64606	-4.06835	-4.88202	48.00653	-146.4606	-151.34262	-6.50936	0
896	9.76404	-12.20505	-21.96909	1.62734	13.83239	-17.08707	-4.06835	-7.32303	48.00653	-146.4606	-151.34262	-6.50936	0
897	7.32303	-19.52808	-26.85111	4.88202	16.2734	-21.96909	-4.06835	-7.32303	48.00653	-144.01959	-151.34262	-6.50936	0
898	4.88202	-24.4101	-29.29212	9.76404	16.2734	-26.85111	3.25468	-4.88202	48.00653	-139.13757	-148.90161	-6.50936	0
899	12.20505	-17.08707	-29.29212	1.62734	18.71441	-21.96909	11.39138	0	52.88855	-134.25555	-141.57858	-3.25468	0
900	12.20505	-17.08707	-29.29212	1.62734	18.71441	-21.96909	13.83239	4.88202	55.32956	-131.81454	-141.57858	-3.25468	0
901	7.32303	-21.96909	-29.29212	7.32303	16.2734	-24.4101	13.83239	7.32303	55.32956	-131.81454	-139.13757	-6.50936	0
902	4.88202	-26.85111	-31.73313	9.76404	16.2734	-29.29212	13.83239	9.76404	57.77057	-129.37353	-136.69656	-6.50936	0
903	4.88202	-29.29212	-34.17414	12.20505	18.71441	-31.73313	21.15542	14.64606	60.21158	-126.93252	-136.69656	-6.50936	0
904	2.44101	-31.73313	-34.17414	14.64606	16.2734	-31.73313	23.59643	14.64606	57.77057	-126.93252	-134.25555	-6.50936	0
905	-3.25468	-34.17414	-31.73313	17.08707	13.83239	-34.17414	23.59643	12.20505	55.32956	-131.81454	-136.69656	-8.95037	0
906	-10.57771	-36.61515	-26.85111	21.96909	6.50936	-31.73313	23.59643	7.32303	52.88855	-131.81454	-139.13757	-8.95037	0
907	-8.1367	-34.17414	-26.85111	19.52808	8.95037	-31.73313	30.91946	7.32303	55.32956	-129.37353	-136.69656	-8.95037	0
908	-8.1367	-34.17414	-26.85111	19.52808	8.95037	-31.73313	35.80148	7.32303	55.32956	-126.93252	-136.69656	-8.95037	0
909	-15.45973	-34.17414	-19.52808	24.4101	0.81367	-26.85111	40.6835	7.32303	50.44754	-126.93252	-134.25555	-11.39138	0
910	-15.45973	-26.85111	-12.20505	19.52808	-4.06835	-19.52808	43.12451	7.32303	50.44754	-126.93252	-136.69656	-11.39138	0
911	-10.57771	-19.52808	-9.76404	14.64606	-1.62734	-14.64606	45.56552	12.20505	52.88855	-122.0505	-131.81454	-8.95037	0
912	-8.1367	-19.52808	-12.20505	12.20505	0.81367	-17.08707	50.44754	17.08707	57.77057	-117.16848	-126.93252	-6.50936	0
913	-10.57771	-12.20505	-1.62734	9.76404	-6.50936	-7.32303	50.44754	17.08707	57.77057	-117.16848	-126.93252	-6.50936	0
914	-13.01872	-9.76404	3.25468	9.76404	-8.95037	-4.88202	50.44754	17.08707	55.32956	-117.16848	-122.0505	-6.50936	0
915	-10.57771	-7.32303	3.25468	7.32303	-8.95037	-1.62734	50.44754	17.08707	57.77057	-114.72747	-119.60949	-3.25468	0
916	-10.57771	-9.76404	0.81367	9.76404	-6.50936	-4.88202	45.56552	14.64606	57.77057	-112.28646	-117.16848	-0.81367	0
917	-17.90074	-19.52808	-1.62734	17.08707	-8.95037	-12.20505	43.12451	9.76404	57.77057	-112.28646	-117.16848	-3.25468	0
918	-22.78276	-24.4101	-1.62734	21.96909	-11.39138	-14.64606	38.24249	2.44101	52.88855	-114.72747	-119.60949	-6.50936	0
919	-25.22377	-24.4101	0.81367	24.4101	-13.83239	-12.20505	38.24249	2.44101	50.44754	-114.72747	-119.60949	-6.50936	0
920	-25.22377	-31.73313	-7.32303	26.85111	-11.39138	-19.52808	35.80148	2.44101	50.44754	-114.72747	-119.60949	-6.50936	0
921	-25.22377	-29.29212	-4.88202	26.85111	-11.39138	-17.08707	33.36047	0	48.00653	-114.72747	-122.0505	-8.95037	0
922	-25.22377	-26.85111	-1.62734	24.4101	-13.83239	-14.64606	30.91946	0	48.00653	-114.72747	-124.49151	-11.39138	0
923	-20.34175	-19.52808	0.81367	19.52808	-11.39138	-9.76404	26.03744	-2.44101	45.56552	-114.72747	-124.49151	-13.83239	0
924	-15.45973	-17.08707	-1.62734	14.64606	-8.95037	-9.76404	26.03744	-2.44101	45.56552	-114.72747	-124.49151	-13.83239	0
925	-20.34175	-21.96909	-1.62734	19.52808	-11.39138	-12.20505	23.59643	-4.88202	43.12451	-117.16848	-124.49151	-18.71441	0
926	-17.90074	-21.96909	-4.88202	19.52808	-8.95037	-14.64606	21.15542	-7.32303	40.6835	-117.16848	-124.49151	-18.71441	0
927	-17.90074	-24.4101	-7.32303	19.52808	-6.50936	-17.08707	21.15542	-7.32303	40.6835	-117.16848	-124.49151	-18.71441	0
928	-22.78276	-29.29212	-7.32303	24.4101	-8.95037	-19.52808	23.59643	-7.32303	43.12451	-112.28646	-122.0505	-18.71441	0
929	-15.45973	-29.29212	-14.64606	21.96909	-1.62734	-21.96909	23.59643	-7.32303	40.6835	-112.28646	-119.60949	-18.71441	0
930	-8.1367	-24.4101	-17.08707	14.64606	4.06835	-21.96909	23.59643	-4.88202	40.6835	-112.28646	-119.60949	-18.71441	0
931	-3.25468	-24.4101	-21.96909	12.20505	8.95037	-24.4101	18.71441	-4.88202	43.12451	-109.84545	-117.16848	-18.71441	0
932	-0.81367	-26.85111	-26.85111	12.20505	11.39138	-26.85111	13.83239	-2.44101	45.56552	-104.96343	-114.72747	-18.71441	0
933	-0.81367	-29.29212	-29.29212	14.64606	13.83239	-29.29212	8.95037	-2.44101	45.56552	-104.96343	-112.28646	-18.71441	0
934	4.88202	-24.4101	-29.29212	9.76404	16.2734	-26.85111	3.25468	-2.44101	43.12451	-104.96343	-112.28646	-18.71441	0
935	7.32303	-19.52808	-26.85111	4.88202	16.2734	-21.96909	0.81367	-7.32303	43.12451	-104.96343	-112.28646	-18.71441	0
936	2.44101	-17.08707	-19.52808	7.32303	8.95037	-17.08707	-6.50936	-12.20505	38.24249	-107.40444	-112.28646	-21.15542	0
937	-0.81367	-19.52808	-19.52808	9.76404	8.95037	-19.52808	-8.95037	-14.64606	38.24249	-102.52242	-109.84545	-21.15542	0
938	2.44101	-19.52808	-21.96909	7.32303	11.39138	-19.52808	-6.50936	-14.64606	38.24249	-97.6404	-107.40444	-18.71441	0
939	4.88202	-21.96909	-26.85111	7.32303	13.83239	-24.4101	-4.06835	-14.64606	38.24249	-97.6404	-104.96343	-16.2734	0
940	7.32303	-24.4101	-31.73313	7.32303	18.71441	-26.85111	-6.50936	-17.08707	35.80148	-97.6404	-104.96343	-16.2734	0
941	7.32303	-26.85111	-34.17414	9.76404	18.71441	-29.29212	-8.95037	-17.08707	35.80148	-95.19939	-104.96343	-16.2734	0
942	4.88202	-34.17414	-39.05616	14.64606	21.15542	-36.61515	-11.39138	-14.64606	38.24249	-92.75838	-100.08141	-16.2734	0
943	4.88202	-36.61515	-41.49717	14.64606	21.15542	-39.05616	-11.39138	-14.64606	40.6835	-90.31737	-97.6404	-13.83239	0
944	4.88202	-34.17414	-39.05616	14.64606	21.15542	-36.61515	-16.2734	-17.08707	35.80148	-92.75838	-97.6404	-16.2734	0
945	2.44101	-26.85111	-29.29212	12.20505	13.83239	-26.85111	-18.71441	-22.78276	35.80148	-95.19939	-97.6404	-18.71441	0
946	2.44101	-21.96909	-24.4101	9.76404	11.39138	-21.96909	-18.71441	-25.22377	33.36047	-95.19939	-97.6404	-18.71441	0
947	7.32303	-21.96909	-29.29212	7.32303	16.2734	-24.4101	-18.71441	-27.66478	33.36047	-90.31737	-95.19939	-18.71441	0
948	7.32303	-24.4101	-31.73313	7.32303	18.71441	-26.85111	-18.71441	-27.66478	33.36047	-87.87636	-95.19939	-18.71441	0
949	9.76404	-24.4101	-34.17414	7.32303	21.15542	-29.29212	-18.71441	-27.66478	30.91946	-85.43535	-92.75838	-18.71441	0
950	7.32303	-26.85111	-34.17414	9.76404	18.71441	-29.29212	-18.71441	-27.66478	30.91946	-85.43535	-92.75838	-18.71441	0
951	4.88202	-31.73313	-36.61515	12.20505	18.71441	-34.17414	-18.71441	-25.22377	30.91946	-85.43535	-92.75838	-18.71441	0
952	4.88202	-36.61515	-41.49717	14.64606	21.15542	-39.05616	-21.15542	-22.78276	28.47845	-82.99434	-92.75838	-21.15542	0
953	2.44101	-36.61515	-39.05616	17.08707	18.71441	-36.61515	-23.59643	-22.78276	28.47845	-82.99434	-92.75838	-21.15542	0
954	7.32303	-29.29212	-36.61515	9.76404	21.15542	-31.73313	-21.15542	-22.78276	28.47845	-82.99434	-87.87636	-21.15542	0
955	9.76404	-21.96909	-31.73313	4.88202	18.71441	-26.85111	-21.15542	-27.66478	26.03744	-85.43535	-90.31737	-23.59643	0
956	7.32303	-19.52808	-26.85111	4.88202	16.2734	-21.96909	-26.03744	-32.5468	21.15542	-85.43535	-90.31737	-26.03744	0
957	7.32303	-21.96909	-29.29212	7.32303	16.2734	-24.4101	-26.03744	-34.98781	21.15542	-82.99434	-90.31737	-26.03744	0
958	9.76404	-21.96909	-31.73313	4.88202	18.71441	-26.85111	-26.03744	-37.42882	21.15542	-80.55333	-90.31737	-26.03744	0
959	9.76404	-21.96909	-31.73313	4.88202	18.71441	-26.85111	-21.15542	-34.98781	21.15542	-80.55333	-90.31737	-26.03744	0
960	4.88202	-26.85111	-31.73313	9.76404	16.2734	-29.29212	-21.15542	-32.5468	18.71441	-80.55333	-90.31737	-26.03744	0
961	-0.81367	-29.29212	-29.29212	14.64606	13.83239	-29.29212	-23.59643	-27.66478	18.71441	-75.67131	-90.31737	-26.03744	0
962	4.88202	-29.29212	-34.17414	12.20505	18.71441	-31.73313	-21.15542	-22.78276	21.15542	-70.78929	-85.43535	-23.59643	0
963	9.76404	-24.4101	-34.17414	7.32303	21.15542	-29.29212	-18.71441	-22.78276	21.15542	-70.78929	-85.43535	-23.59643	0
964	14.64606	-17.08707	-31.73313	1.62734	21.15542	-24.4101	-16.2734	-19.52808	21.15542	-70.78929	-82.99434	-21.15542	0
965	17.08707	-14.64606	-31.73313	-0.81367	23.59643	-21.96909	-16.2734	-19.52808	21.15542	-70.78929	-80.55333	-21.15542	0
966	19.52808	-14.64606	-34.17414	-3.25468	26.03744	-24.4101	-16.2734	-22.78276	21.15542	-65.90727	-78.11232	-21.15542	0
967	21.96909	-14.64606	-36.61515	-3.25468	28.47845	-24.4101	-18.71441	-25.22377	16.2734	-65.90727	-80.55333	-21.15542	0
968	19.52808	-19.52808	-39.05616	-0.81367	28.47845	-29.29212	-18.71441	-27.66478	13.83239	-65.90727	-82.99434	-26.03744	0
969	19.52808	-19.52808	-39.05616	-0.81367	28.47845	-29.29212	-16.2734	-27.66478	13.83239	-65.90727	-82.99434	-26.03744	0
970	21.96909	-17.08707	-39.05616	-3.25468	28.47845	-26.85111	-11.39138	-22.78276	13.83239	-63.46626	-82.99434	-23.59643	0
971	14.64606	-29.29212	-43.93818	7.32303	28.47845	-36.61515	-16.2734	-22.78276	13.83239	-63.46626	-82.99434	-26.03744	0
972	4.88202	-36.61515	-41.49717	14.64606	21.15542	-39.05616	-18.71441	-22.78276	11.39138	-63.46626	-85.43535	-28.47845	0
973	4.88202	-36.61515	-41.49717	14.64606	21.15542	-39.05616	-18.71441	-17.08707	11.39138	-63.46626	-85.43535	-28.47845	0
974	7.32303	-34.17414	-41.49717	12.20505	23.59643	-36.61515	-13.83239	-14.64606	11.39138	-61.02525	-82.99434	-26.03744	0
975	4.88202	-34.17414	-39.05616	14.64606	21.15542	-36.61515	-13.83239	-17.08707	11.39138	-61.02525	-80.55333	-26.03744	0
976	2.44101	-34.17414	-36.61515	14.64606	18.71441	-34.17414	-16.2734	-22.78276	6.50936	-63.46626	-80.55333	-26.03744	0
977	2.44101	-31.73313	-34.17414	14.64606	16.2734	-31.73313	-16.2734	-27.66478	6.50936	-63.46626	-80.55333	-26.03744	0
978	7.32303	-21.96909	-29.29212	7.32303	16.2734	-24.4101	-11.39138	-30.10579	6.50936	-58.58424	-80.55333	-26.03744	0
979	12.20505	-14.64606	-26.85111	1.62734	18.71441	-19.52808	-6.50936	-30.10579	4.06835	-58.58424	-78.11232	-26.03744	0
980	7.32303	-17.08707	-24.4101	4.88202	13.83239	-19.52808	-6.50936	-30.10579	4.06835	-58.58424	-80.55333	-26.03744	0
981	4.88202	-21.96909	-26.85111	7.32303	13.83239	-24.4101	-6.50936	-30.10579	4.06835	-58.58424	-80.55333	-26.03744	0
982	2.44101	-26.85111	-29.29212	12.20505	13.83239	-26.85111	-6.50936	-30.10579	4.06835	-58.58424	-80.55333	-26.03744	0
983	-0.81367	-29.29212	-29.29212	14.64606	13.83239	-29.29212	-8.95037	-30.10579	1.62734	-58.58424	-82.99434	-28.47845	0
984	2.44101	-24.4101	-26.85111	9.76404	13.83239	-24.4101	-6.50936	-27.66478	1.62734	-58.58424	-80.55333	-26.03744	0
985	-0.81367	-29.29212	-29.29212	14.64606	13.83239	-29.29212	-6.50936	-27.66478	-0.81367	-58.58424	-80.55333	-26.03744	0
986	-3.25468	-31.73313	-29.29212	17.08707	11.39138	-31.73313	-8.95037	-34.98781	-5.69569	-58.58424	-80.55333	-26.03744	0
987	-3.25468	-29.29212	-26.85111	14.64606	11.39138	-29.29212	-6.50936	-34.98781	-5.69569	-56.14323	-80.55333	-28.47845	0
988	-0.81367	-29.29212	-29.29212	14.64606	13.83239	-29.29212	-1.62734	-34.98781	-5.69569	-53.70222	-80.55333	-26.03744	0
989	-0.81367	-26.85111	-26.85111	12.20505	11.39138	-26.85111	0.81367	-34.98781	-5.69569	-51.26121	-78.11232	-26.03744	0
