samplenr	I	II	III	aVR	aVL	aVF	V1	V2	V3	V4	V5	V6	measurement
0	97.6404	-51.26121	-148.90161	-24.4101	121.23683	-98.45407	-59.39791	-65.90727	-153.78363	52.07488	1.62734	-24.4101	0
1	90.31737	-58.58424	-148.90161	-17.08707	118.79582	-103.33609	-59.39791	-65.90727	-153.78363	47.19286	-0.81367	-26.85111	0
2	75.67131	-73.2303	-148.90161	-2.44101	111.47279	-110.65912	-56.9569	-63.46626	-151.34262	39.86983	-8.1367	-34.17414	0
3	73.2303	-78.11232	-151.34262	0	111.47279	-113.10013	-49.63387	-58.58424	-146.4606	34.98781	-10.57771	-36.61515	0
4	78.11232	-73.2303	-151.34262	-2.44101	113.9138	-110.65912	-42.31084	-51.26121	-141.57858	32.5468	-13.01872	-36.61515	0
5	61.02525	-85.43535	-146.4606	10.57771	101.70875	-115.54114	-37.42882	-48.8202	-139.13757	32.5468	-17.90074	-39.05616	0
6	46.37919	-107.40444	-153.78363	30.10579	99.26774	-130.1872	-42.31084	-53.70222	-144.01959	22.78276	-30.10579	-48.8202	0
7	43.93818	-119.60949	-163.54767	37.42882	101.70875	-139.95124	-47.19286	-58.58424	-148.90161	15.45973	-37.42882	-56.14323	0
8	26.85111	-131.81454	-158.66565	52.07488	91.94471	-144.83326	-47.19286	-58.58424	-148.90161	15.45973	-39.86983	-58.58424	0
9	26.85111	-126.93252	-153.78363	49.63387	89.5037	-139.95124	-39.86983	-51.26121	-141.57858	22.78276	-37.42882	-56.14323	0
10	29.29212	-126.93252	-156.22464	47.19286	91.94471	-139.95124	-37.42882	-48.8202	-141.57858	22.78276	-37.42882	-53.70222	0
11	24.4101	-136.69656	-161.10666	54.51589	91.94471	-147.27427	-37.42882	-48.8202	-144.01959	17.90074	-42.31084	-58.58424	0
12	26.85111	-136.69656	-163.54767	54.51589	94.38572	-149.71528	-34.98781	-48.8202	-144.01959	13.01872	-42.31084	-56.14323	0
13	9.76404	-144.01959	-153.78363	66.72094	79.73966	-147.27427	-30.10579	-43.93818	-141.57858	10.57771	-39.86983	-53.70222	0
14	9.76404	-141.57858	-151.34262	64.27993	79.73966	-144.83326	-27.66478	-41.49717	-141.57858	5.69569	-42.31084	-53.70222	0
15	14.64606	-141.57858	-156.22464	61.83892	84.62168	-147.27427	-25.22377	-39.05616	-141.57858	3.25468	-47.19286	-56.14323	0
16	2.44101	-156.22464	-158.66565	76.48498	79.73966	-157.03831	-30.10579	-41.49717	-146.4606	0	-54.51589	-63.46626	0
17	-10.57771	-165.98868	-156.22464	86.24902	72.41663	-161.92033	-32.5468	-41.49717	-146.4606	0	-56.9569	-68.34828	0
18	-10.57771	-165.98868	-156.22464	86.24902	72.41663	-161.92033	-32.5468	-41.49717	-146.4606	0	-59.39791	-68.34828	0
19	2.44101	-156.22464	-158.66565	76.48498	79.73966	-157.03831	-32.5468	-39.05616	-144.01959	5.69569	-59.39791	-70.78929	0
20	12.20505	-151.34262	-163.54767	69.16195	87.06269	-157.03831	-30.10579	-36.61515	-141.57858	8.1367	-56.9569	-70.78929	0
21	9.76404	-158.66565	-168.42969	74.04397	87.06269	-161.92033	-30.10579	-36.61515	-144.01959	8.1367	-59.39791	-73.2303	0
22	9.76404	-161.10666	-170.8707	74.04397	89.5037	-164.36134	-27.66478	-36.61515	-144.01959	8.1367	-56.9569	-70.78929	0
23	7.32303	-163.54767	-170.8707	76.48498	87.06269	-166.80235	-27.66478	-36.61515	-141.57858	5.69569	-54.51589	-70.78929	0
24	9.76404	-161.10666	-170.8707	74.04397	89.5037	-164.36134	-22.78276	-34.17414	-139.13757	5.69569	-54.51589	-68.34828	0
25	2.44101	-168.42969	-170.8707	81.367	84.62168	-169.24336	-22.78276	-31.73313	-139.13757	0	-56.9569	-68.34828	0
26	-10.57771	-183.07575	-173.31171	96.01306	79.73966	-179.0074	-25.22377	-34.17414	-144.01959	-2.44101	-61.83892	-73.2303	0
27	-15.45973	-183.07575	-168.42969	98.45407	74.85764	-176.56639	-25.22377	-34.17414	-141.57858	-2.44101	-61.83892	-75.67131	0
28	-10.57771	-175.75272	-165.98868	91.13104	77.29865	-171.68437	-22.78276	-31.73313	-139.13757	0	-59.39791	-73.2303	0
29	2.44101	-165.98868	-168.42969	81.367	84.62168	-166.80235	-20.34175	-26.85111	-136.69656	0	-56.9569	-70.78929	0
30	17.08707	-153.78363	-170.8707	66.72094	91.94471	-161.92033	-15.45973	-21.96909	-131.81454	5.69569	-52.07488	-65.90727	0
31	24.4101	-144.01959	-168.42969	59.39791	94.38572	-154.5973	-10.57771	-17.08707	-129.37353	10.57771	-49.63387	-61.02525	0
32	34.17414	-136.69656	-170.8707	49.63387	101.70875	-152.15629	-8.1367	-14.64606	-124.49151	15.45973	-44.75185	-56.14323	0
33	41.49717	-129.37353	-170.8707	42.31084	104.14976	-149.71528	-5.69569	-14.64606	-122.0505	20.34175	-37.42882	-48.8202	0
34	51.26121	-126.93252	-178.19373	37.42882	113.9138	-152.15629	-5.69569	-12.20505	-122.0505	20.34175	-37.42882	-46.37919	0
35	43.93818	-131.81454	-175.75272	42.31084	109.03178	-152.15629	-8.1367	-14.64606	-124.49151	20.34175	-37.42882	-43.93818	0
36	24.4101	-144.01959	-168.42969	59.39791	94.38572	-154.5973	-13.01872	-19.52808	-126.93252	17.90074	-37.42882	-43.93818	0
37	9.76404	-153.78363	-163.54767	71.60296	84.62168	-157.03831	-13.01872	-19.52808	-129.37353	15.45973	-37.42882	-43.93818	0
38	4.88202	-156.22464	-161.10666	74.04397	82.18067	-157.03831	-13.01872	-19.52808	-129.37353	13.01872	-39.86983	-43.93818	0
39	4.88202	-158.66565	-163.54767	76.48498	82.18067	-159.47932	-13.01872	-19.52808	-129.37353	10.57771	-42.31084	-46.37919	0
40	7.32303	-156.22464	-163.54767	74.04397	84.62168	-159.47932	-8.1367	-14.64606	-129.37353	8.1367	-44.75185	-48.8202	0
41	4.88202	-151.34262	-156.22464	71.60296	79.73966	-152.15629	-0.81367	-9.76404	-124.49151	8.1367	-44.75185	-51.26121	0
42	9.76404	-146.4606	-156.22464	66.72094	82.18067	-149.71528	-0.81367	-4.88202	-124.49151	8.1367	-44.75185	-53.70222	0
43	4.88202	-153.78363	-158.66565	74.04397	79.73966	-154.5973	-3.25468	-7.32303	-126.93252	0	-52.07488	-61.02525	0
44	-5.69569	-168.42969	-163.54767	86.24902	77.29865	-166.80235	-10.57771	-14.64606	-134.25555	-9.76404	-61.83892	-70.78929	0
45	-17.90074	-178.19373	-161.10666	96.01306	69.97562	-169.24336	-13.01872	-14.64606	-136.69656	-14.64606	-66.72094	-73.2303	0
46	-22.78276	-178.19373	-156.22464	98.45407	65.0936	-166.80235	-15.45973	-14.64606	-136.69656	-14.64606	-66.72094	-70.78929	0
47	-27.66478	-180.63474	-153.78363	103.33609	62.65259	-166.80235	-17.90074	-17.08707	-139.13757	-14.64606	-66.72094	-70.78929	0
48	-27.66478	-180.63474	-153.78363	103.33609	62.65259	-166.80235	-20.34175	-17.08707	-141.57858	-17.08707	-66.72094	-70.78929	0
49	-27.66478	-175.75272	-148.90161	100.89508	60.21158	-161.92033	-15.45973	-14.64606	-139.13757	-12.20505	-64.27993	-68.34828	0
50	-15.45973	-156.22464	-141.57858	83.80801	62.65259	-149.71528	-8.1367	-7.32303	-129.37353	0	-54.51589	-58.58424	0
51	0	-134.25555	-134.25555	66.72094	65.0936	-132.62821	-0.81367	0.81367	-122.0505	10.57771	-44.75185	-51.26121	0
52	19.52808	-114.72747	-134.25555	47.19286	74.85764	-122.86417	7.32303	8.1367	-112.28646	22.78276	-37.42882	-41.49717	0
53	26.85111	-104.96343	-131.81454	37.42882	77.29865	-117.98215	14.64606	13.01872	-104.96343	32.5468	-32.5468	-36.61515	0
54	31.73313	-97.6404	-129.37353	32.5468	79.73966	-113.10013	19.52808	17.90074	-100.08141	37.42882	-27.66478	-31.73313	0
55	24.4101	-102.52242	-126.93252	37.42882	74.85764	-113.10013	21.96909	20.34175	-97.6404	32.5468	-30.10579	-34.17414	0
56	19.52808	-114.72747	-134.25555	47.19286	74.85764	-122.86417	24.4101	20.34175	-97.6404	20.34175	-39.86983	-43.93818	0
57	9.76404	-131.81454	-141.57858	59.39791	74.85764	-135.06922	24.4101	20.34175	-100.08141	5.69569	-52.07488	-53.70222	0
58	-8.1367	-151.34262	-144.01959	78.92599	67.53461	-147.27427	26.85111	17.90074	-102.52242	-4.88202	-64.27993	-68.34828	0
59	-22.78276	-173.31171	-151.34262	96.01306	62.65259	-161.92033	24.4101	10.57771	-107.40444	-19.52808	-78.92599	-85.43535	0
60	-27.66478	-190.39878	-163.54767	108.21811	67.53461	-176.56639	19.52808	5.69569	-117.16848	-29.29212	-96.01306	-104.96343	0
61	-27.66478	-200.16282	-173.31171	113.10013	72.41663	-186.33043	19.52808	-2.44101	-124.49151	-34.17414	-105.7771	-117.16848	0
62	-3.25468	-195.2808	-192.83979	98.45407	94.38572	-193.65346	14.64606	-9.76404	-131.81454	-26.85111	-105.7771	-124.49151	0
63	24.4101	-190.39878	-214.80888	81.367	118.79582	-200.97649	4.88202	-21.96909	-144.01959	-14.64606	-105.7771	-131.81454	0
64	65.90727	-175.75272	-241.65999	54.51589	152.96996	-208.29952	-13.01872	-43.93818	-161.10666	5.69569	-100.89508	-134.25555	0
65	119.60949	-156.22464	-275.83413	17.90074	196.90814	-215.62255	-42.31084	-75.67131	-185.51676	34.98781	-93.57205	-136.69656	0
66	168.42969	-136.69656	-305.12625	-17.08707	235.9643	-220.50457	-81.367	-112.28646	-217.24989	76.48498	-76.48498	-136.69656	0
67	236.77797	-97.6404	-334.41837	-70.78929	284.7845	-215.62255	-122.86417	-153.78363	-246.54201	132.62821	-52.07488	-129.37353	0
68	324.65433	-39.05616	-363.71049	-144.01959	343.36874	-200.97649	-171.68437	-195.2808	-278.27514	198.53548	-20.34175	-117.16848	0
69	405.20766	20.34175	-385.67958	-212.36787	394.62995	-181.44841	-227.8276	-244.101	-312.44928	274.20679	17.08707	-102.52242	0
70	483.31998	86.24902	-397.88463	-285.59817	441.00914	-154.5973	-291.29386	-295.36221	-349.06443	354.76012	58.58424	-82.99434	0
71	546.78624	149.71528	-397.88463	-349.06443	472.74227	-122.86417	-352.31911	-339.30039	-378.35655	437.75446	107.40444	-58.58424	0
72	610.2525	220.50457	-390.5616	-414.9717	499.59338	-83.80801	-406.02133	-373.47453	-400.32564	513.42577	158.66565	-24.4101	0
73	646.86765	274.20679	-373.47453	-461.35089	509.35742	-49.63387	-447.5185	-400.32564	-414.9717	574.45102	205.04484	10.57771	0
74	646.86765	308.38093	-339.30039	-478.43796	492.27035	-15.45973	-476.81062	-412.53069	-417.41271	620.83021	246.54201	44.75185	0
75	615.13452	327.90901	-288.03918	-471.11493	450.77318	21.96909	-491.45668	-407.64867	-405.20766	645.24031	280.71615	78.92599	0
76	556.55028	337.67305	-219.6909	-446.70483	387.30692	61.02525	-489.01567	-385.67958	-373.47453	647.68132	307.56726	120.42316	0
77	483.31998	340.11406	-144.01959	-412.53069	314.07662	100.08141	-462.16456	-346.62342	-329.53635	628.15324	329.53635	161.92033	0
78	385.67958	335.23204	-51.26121	-361.26948	218.87723	144.01959	-418.22638	-288.03918	-268.5111	584.21506	339.30039	198.53548	0
79	268.5111	315.70396	47.19286	-292.9212	111.47279	183.07575	-364.52416	-224.57292	-200.16282	528.07183	341.7414	227.8276	0
80	161.10666	305.93992	144.83326	-234.33696	8.95037	227.01393	-303.49891	-153.78363	-129.37353	467.04658	339.30039	257.11972	0
81	61.02525	291.29386	230.26861	-175.75272	-84.62168	261.18807	-242.47366	-90.31737	-65.90727	406.02133	331.97736	274.20679	0
82	-13.01872	279.08881	291.29386	-134.25555	-152.96996	285.59817	-181.44841	-26.85111	-6.50936	349.8781	319.77231	288.85285	0
83	-86.24902	254.67871	340.11406	-85.43535	-213.99521	297.80322	-120.42316	22.78276	39.86983	296.17588	302.68524	291.29386	0
84	-149.71528	227.8276	376.72921	-39.05616	-262.81541	302.68524	-66.72094	69.16195	78.92599	249.79669	283.15716	283.97083	0
85	-191.21245	208.29952	398.6983	-9.76404	-294.54854	302.68524	-20.34175	105.7771	110.65912	218.06356	263.62908	274.20679	0
86	-213.18154	196.09447	408.46234	8.1367	-311.63561	302.68524	21.96909	137.51023	135.06922	188.77144	244.101	264.44275	0
87	-232.70962	186.33043	418.22638	22.78276	-326.28167	302.68524	58.58424	166.80235	157.03831	159.47932	224.57292	252.2377	0
88	-244.91467	176.56639	420.66739	32.5468	-333.6047	297.80322	87.87636	188.77144	176.56639	132.62821	207.48585	242.47366	0
89	-247.35568	176.56639	423.1084	34.98781	-336.04571	300.24423	109.84545	205.85851	191.21245	110.65912	192.83979	235.15063	0
90	-237.59164	188.77144	425.54941	22.78276	-331.16369	307.56726	122.0505	220.50457	205.85851	96.01306	183.07575	230.26861	0
91	-230.26861	196.09447	425.54941	15.45973	-328.72268	310.00827	124.49151	227.8276	218.06356	81.367	173.31171	225.38659	0
92	-220.50457	205.85851	425.54941	5.69569	-323.84066	314.89029	124.49151	230.26861	225.38659	66.72094	163.54767	218.06356	0
93	-213.18154	213.18154	425.54941	0	-318.95864	319.77231	124.49151	232.70962	230.26861	56.9569	151.34262	210.74053	0
94	-200.97649	218.06356	418.22638	-9.76404	-309.1946	317.3313	119.60949	232.70962	232.70962	52.07488	141.57858	200.97649	0
95	-191.21245	227.8276	418.22638	-19.52808	-304.31258	322.21332	119.60949	232.70962	235.15063	47.19286	131.81454	191.21245	0
96	-171.68437	242.47366	413.34436	-36.61515	-292.10753	327.09534	122.0505	235.15063	237.59164	47.19286	124.49151	181.44841	0
97	-159.47932	247.35568	406.02133	-43.93818	-282.34349	327.09534	122.0505	232.70962	237.59164	47.19286	114.72747	169.24336	0
98	-144.83326	249.79669	393.81628	-53.70222	-270.13844	322.21332	119.60949	227.8276	235.15063	42.31084	104.96343	154.5973	0
99	-135.06922	242.47366	376.72921	-53.70222	-255.49238	310.00827	112.28646	218.06356	225.38659	37.42882	95.19939	144.83326	0
100	-130.1872	235.15063	364.52416	-53.70222	-248.16935	300.24423	102.52242	205.85851	215.62255	32.5468	85.43535	135.06922	1000	P+0
101	-130.1872	220.50457	349.8781	-46.37919	-240.84632	285.59817	92.75838	193.65346	205.85851	25.22377	78.11232	125.30518	0
102	-135.06922	200.97649	335.23204	-34.17414	-235.9643	268.5111	80.55333	179.0074	193.65346	17.90074	70.78929	117.98215	0
103	-142.39225	181.44841	323.02699	-19.52808	-233.52329	251.42403	68.34828	164.36134	179.0074	10.57771	58.58424	108.21811	0
104	-147.27427	164.36134	310.82194	-9.76404	-228.64127	236.77797	56.14323	149.71528	166.80235	5.69569	51.26121	100.89508	0
105	-144.83326	157.03831	301.0579	-7.32303	-223.75925	229.45494	43.93818	137.51023	154.5973	5.69569	46.37919	98.45407	0
106	-137.51023	147.27427	283.97083	-4.88202	-211.5542	214.80888	31.73313	122.86417	142.39225	5.69569	43.93818	93.57205	0
107	-127.74619	142.39225	269.32477	-7.32303	-199.34915	205.04484	21.96909	113.10013	132.62821	8.1367	41.49717	93.57205	0
108	-113.10013	144.83326	257.11972	-17.08707	-184.70309	200.16282	17.08707	103.33609	125.30518	8.1367	39.05616	88.69003	0
109	-105.7771	139.95124	244.91467	-17.08707	-174.93905	192.83979	12.20505	96.01306	115.54114	3.25468	34.17414	83.80801	0
110	-100.89508	132.62821	232.70962	-17.08707	-167.61602	183.07575	9.76404	93.57205	110.65912	0	29.29212	78.92599	0
111	-100.89508	122.86417	222.94558	-12.20505	-162.734	173.31171	7.32303	88.69003	105.7771	-4.88202	24.4101	71.60296	0
112	-105.7771	105.7771	210.74053	0	-157.85198	158.66565	4.88202	83.80801	98.45407	-12.20505	17.08707	61.83892	0
113	-108.21811	93.57205	200.97649	5.69569	-155.41097	146.4606	-0.81367	76.48498	91.13104	-21.96909	7.32303	52.07488	0
114	-108.21811	83.80801	191.21245	10.57771	-150.52895	136.69656	-0.81367	74.04397	86.24902	-26.85111	1.62734	44.75185	0
115	-105.7771	83.80801	188.77144	10.57771	-148.08794	136.69656	-0.81367	74.04397	86.24902	-26.85111	1.62734	44.75185	0
116	-100.89508	83.80801	183.88942	8.1367	-143.20592	134.25555	-0.81367	74.04397	83.80801	-26.85111	1.62734	42.31084	0
117	-105.7771	78.92599	183.88942	13.01872	-145.64693	131.81454	-0.81367	71.60296	78.92599	-31.73313	-3.25468	39.86983	0
118	-100.89508	78.92599	179.0074	10.57771	-140.76491	129.37353	-0.81367	71.60296	74.04397	-34.17414	-5.69569	37.42882	0
119	-93.57205	86.24902	179.0074	3.25468	-135.88289	131.81454	4.88202	74.04397	74.04397	-34.17414	-3.25468	39.86983	0
120	-96.01306	81.367	176.56639	5.69569	-135.88289	129.37353	4.88202	74.04397	71.60296	-34.17414	-5.69569	39.86983	0
121	-110.65912	66.72094	176.56639	20.34175	-143.20592	122.0505	4.88202	69.16195	64.27993	-39.05616	-10.57771	34.98781	0
122	-120.42316	56.9569	176.56639	30.10579	-148.08794	117.16848	-0.81367	64.27993	59.39791	-43.93818	-15.45973	32.5468	0
123	-110.65912	59.39791	169.24336	25.22377	-140.76491	114.72747	-0.81367	64.27993	56.9569	-41.49717	-17.90074	32.5468	0
124	-98.45407	66.72094	164.36134	15.45973	-131.00087	114.72747	4.88202	66.72094	56.9569	-39.05616	-15.45973	32.5468	0
125	-88.69003	74.04397	161.92033	5.69569	-126.11885	117.16848	7.32303	69.16195	56.9569	-39.05616	-15.45973	34.98781	0
126	-76.48498	86.24902	161.92033	-4.88202	-118.79582	124.49151	14.64606	76.48498	59.39791	-34.17414	-8.1367	42.31084	0
127	-56.9569	108.21811	164.36134	-26.85111	-111.47279	136.69656	21.96909	83.80801	66.72094	-29.29212	-0.81367	49.63387	0
128	-52.07488	113.10013	164.36134	-31.73313	-109.03178	139.13757	24.4101	86.24902	66.72094	-26.85111	-0.81367	54.51589	0
129	-52.07488	117.98215	169.24336	-34.17414	-111.47279	144.01959	26.85111	91.13104	66.72094	-26.85111	1.62734	54.51589	0
130	-61.83892	117.98215	179.0074	-29.29212	-121.23683	148.90161	31.73313	96.01306	66.72094	-29.29212	1.62734	56.9569	0
131	-76.48498	110.65912	186.33043	-17.08707	-131.00087	148.90161	31.73313	96.01306	66.72094	-29.29212	1.62734	56.9569	0
132	-91.13104	98.45407	188.77144	-4.88202	-140.76491	144.01959	31.73313	98.45407	61.83892	-31.73313	-3.25468	54.51589	0
133	-105.7771	91.13104	196.09447	5.69569	-150.52895	144.01959	31.73313	98.45407	59.39791	-36.61515	-8.1367	52.07488	0
134	-105.7771	98.45407	203.4175	3.25468	-155.41097	151.34262	39.05616	105.7771	61.83892	-36.61515	-8.1367	54.51589	0
135	-96.01306	108.21811	203.4175	-7.32303	-150.52895	156.22464	46.37919	110.65912	64.27993	-34.17414	-5.69569	56.9569	0
136	-83.80801	122.86417	205.85851	-19.52808	-145.64693	163.54767	53.70222	117.98215	69.16195	-26.85111	-0.81367	61.83892	0
137	-69.16195	142.39225	210.74053	-36.61515	-140.76491	175.75272	61.02525	127.74619	76.48498	-21.96909	1.62734	66.72094	0
138	-61.83892	157.03831	218.06356	-48.8202	-140.76491	187.95777	68.34828	132.62821	78.92599	-17.08707	4.88202	69.16195	0
139	-64.27993	159.47932	222.94558	-48.8202	-143.20592	190.39878	73.2303	132.62821	78.92599	-17.08707	4.88202	69.16195	0
140	-69.16195	159.47932	227.8276	-46.37919	-148.08794	192.83979	78.11232	135.06922	78.92599	-14.64606	4.88202	66.72094	0
141	-76.48498	152.15629	227.8276	-39.05616	-152.96996	190.39878	80.55333	137.51023	78.92599	-19.52808	1.62734	64.27993	0
142	-81.367	149.71528	230.26861	-34.17414	-155.41097	190.39878	87.87636	139.95124	78.92599	-21.96909	1.62734	61.83892	0
143	-96.01306	139.95124	235.15063	-21.96909	-165.17501	187.95777	90.31737	139.95124	78.92599	-26.85111	-0.81367	56.9569	0
144	-108.21811	137.51023	244.91467	-14.64606	-177.38006	190.39878	95.19939	144.83326	81.367	-26.85111	1.62734	56.9569	0
145	-108.21811	147.27427	254.67871	-19.52808	-182.26208	200.16282	104.96343	154.5973	88.69003	-21.96909	4.88202	61.83892	0
146	-103.33609	159.47932	262.00174	-29.29212	-182.26208	209.92686	114.72747	164.36134	93.57205	-19.52808	9.76404	64.27993	0
147	-103.33609	169.24336	271.76578	-34.17414	-187.1441	219.6909	124.49151	171.68437	100.89508	-17.08707	14.64606	69.16195	0
148	-108.21811	176.56639	283.97083	-34.17414	-196.90814	229.45494	131.81454	176.56639	105.7771	-14.64606	17.08707	69.16195	0
149	-103.33609	186.33043	288.85285	-41.49717	-196.90814	236.77797	139.13757	183.88942	110.65912	-14.64606	19.52808	74.04397	0
150	-103.33609	193.65346	296.17588	-46.37919	-199.34915	244.101	146.4606	188.77144	113.10013	-12.20505	21.96909	74.04397	0
151	-103.33609	198.53548	301.0579	-48.8202	-201.79016	248.98302	151.34262	191.21245	115.54114	-12.20505	19.52808	71.60296	0
152	-93.57205	208.29952	301.0579	-58.58424	-196.90814	253.86504	158.66565	196.09447	120.42316	-4.88202	19.52808	74.04397	0
153	-91.13104	213.18154	303.49891	-61.02525	-196.90814	258.74706	165.98868	198.53548	120.42316	0	19.52808	74.04397	0
154	-81.367	225.38659	305.93992	-73.2303	-194.46713	266.07009	170.8707	200.97649	122.86417	10.57771	21.96909	71.60296	0
155	-76.48498	235.15063	310.82194	-80.55333	-194.46713	273.39312	178.19373	208.29952	127.74619	22.78276	29.29212	78.92599	0
156	-74.04397	242.47366	315.70396	-85.43535	-194.46713	278.27514	187.95777	213.18154	132.62821	32.5468	34.17414	81.367	0
157	-69.16195	247.35568	315.70396	-90.31737	-192.02612	280.71615	192.83979	218.06356	132.62821	37.42882	36.61515	86.24902	0
158	-71.60296	249.79669	320.58598	-90.31737	-196.90814	285.59817	192.83979	218.06356	132.62821	39.86983	36.61515	86.24902	0
159	-74.04397	252.2377	325.468	-90.31737	-199.34915	288.03918	197.72181	220.50457	132.62821	39.86983	41.49717	88.69003	0
160	-76.48498	252.2377	327.90901	-87.87636	-201.79016	290.48019	200.16282	220.50457	132.62821	39.86983	41.49717	88.69003	0
161	-74.04397	254.67871	327.90901	-90.31737	-201.79016	290.48019	202.60383	218.06356	132.62821	37.42882	41.49717	91.13104	0
162	-56.9569	259.56073	315.70396	-102.52242	-187.1441	288.03918	205.04484	215.62255	127.74619	34.98781	41.49717	88.69003	0
163	-49.63387	264.44275	313.26295	-107.40444	-182.26208	288.03918	207.48585	215.62255	127.74619	34.98781	43.93818	88.69003	0
164	-49.63387	262.00174	310.82194	-107.40444	-179.82107	285.59817	209.92686	215.62255	125.30518	37.42882	43.93818	91.13104	0
165	-42.31084	254.67871	296.17588	-107.40444	-170.05703	275.83413	209.92686	210.74053	120.42316	34.98781	41.49717	83.80801	0
166	-34.98781	247.35568	281.52982	-107.40444	-157.85198	263.62908	209.92686	208.29952	115.54114	32.5468	39.05616	78.92599	0
167	-27.66478	242.47366	269.32477	-107.40444	-148.08794	256.30605	209.92686	208.29952	110.65912	32.5468	36.61515	74.04397	0
168	-34.98781	230.26861	264.44275	-97.6404	-150.52895	246.54201	209.92686	203.4175	105.7771	32.5468	31.73313	66.72094	0
169	-37.42882	213.18154	249.79669	-87.87636	-143.20592	231.89595	205.04484	196.09447	96.01306	25.22377	24.4101	56.9569	0
170	-32.5468	200.97649	232.70962	-85.43535	-133.44188	217.24989	197.72181	188.77144	88.69003	22.78276	17.08707	47.19286	0
171	-27.66478	193.65346	220.50457	-82.99434	-123.67784	207.48585	195.2808	183.88942	83.80801	22.78276	14.64606	47.19286	0
172	-20.34175	179.0074	198.53548	-80.55333	-109.03178	187.95777	187.95777	171.68437	74.04397	20.34175	9.76404	39.86983	0
173	-20.34175	166.80235	186.33043	-73.2303	-104.14976	175.75272	180.63474	164.36134	64.27993	20.34175	7.32303	39.86983	0
174	-20.34175	152.15629	171.68437	-65.90727	-96.82673	161.10666	175.75272	154.5973	56.9569	20.34175	7.32303	37.42882	0
175	-17.90074	139.95124	157.03831	-61.02525	-87.06269	148.90161	165.98868	147.27427	47.19286	17.90074	4.88202	37.42882	0
176	-15.45973	127.74619	142.39225	-56.14323	-79.73966	134.25555	156.22464	137.51023	34.98781	17.90074	1.62734	32.5468	0
177	-15.45973	110.65912	125.30518	-48.8202	-69.97562	117.16848	146.4606	125.30518	25.22377	15.45973	-3.25468	25.22377	0
178	-13.01872	96.01306	108.21811	-41.49717	-60.21158	102.52242	136.69656	115.54114	15.45973	10.57771	-8.1367	17.90074	0
179	-10.57771	78.92599	88.69003	-34.17414	-50.44754	82.99434	126.93252	103.33609	3.25468	5.69569	-15.45973	10.57771	0
180	-3.25468	61.83892	64.27993	-29.29212	-33.36047	63.46626	112.28646	88.69003	-8.95037	0	-22.78276	0.81367	0
181	-3.25468	44.75185	47.19286	-21.96909	-26.03744	46.37919	100.08141	74.04397	-21.96909	-7.32303	-32.5468	-4.88202	0
182	7.32303	30.10579	22.78276	-19.52808	-8.95037	26.85111	87.87636	59.39791	-31.73313	-12.20505	-37.42882	-12.20505	0
183	24.4101	27.66478	2.44101	-26.85111	11.39138	17.08707	82.99434	52.07488	-39.05616	-14.64606	-39.86983	-12.20505	0
184	29.29212	25.22377	-4.88202	-26.85111	16.2734	12.20505	75.67131	47.19286	-46.37919	-17.08707	-42.31084	-14.64606	0
185	34.17414	22.78276	-12.20505	-29.29212	23.59643	7.32303	70.78929	42.31084	-51.26121	-17.08707	-42.31084	-14.64606	0
186	46.37919	22.78276	-24.4101	-34.17414	35.80148	-0.81367	65.90727	34.98781	-56.14323	-14.64606	-39.86983	-12.20505	0
187	53.70222	17.90074	-36.61515	-36.61515	45.56552	-8.1367	61.02525	30.10579	-61.02525	-14.64606	-39.86983	-12.20505	0
188	51.26121	5.69569	-46.37919	-29.29212	48.00653	-20.34175	53.70222	25.22377	-68.34828	-9.76404	-42.31084	-17.08707	0
189	43.93818	-7.32303	-51.26121	-19.52808	45.56552	-27.66478	46.37919	17.90074	-73.2303	-4.88202	-44.75185	-17.08707	0
190	39.05616	-24.4101	-63.46626	-7.32303	50.44754	-42.31084	36.61515	5.69569	-82.99434	-4.88202	-49.63387	-21.96909	0
191	41.49717	-39.05616	-80.55333	-2.44101	60.21158	-59.39791	26.85111	-2.44101	-92.75838	-9.76404	-54.51589	-24.4101	0
192	46.37919	-48.8202	-95.19939	0	69.97562	-71.60296	24.4101	-9.76404	-100.08141	-12.20505	-59.39791	-26.85111	0
193	41.49717	-58.58424	-100.08141	8.1367	69.97562	-78.92599	19.52808	-14.64606	-104.96343	-17.08707	-61.83892	-29.29212	0
194	43.93818	-63.46626	-107.40444	8.1367	74.85764	-83.80801	14.64606	-17.08707	-107.40444	-19.52808	-64.27993	-29.29212	0
195	56.14323	-58.58424	-114.72747	0	84.62168	-86.24902	12.20505	-17.08707	-107.40444	-21.96909	-64.27993	-29.29212	0
196	56.14323	-65.90727	-122.0505	3.25468	87.06269	-93.57205	4.88202	-21.96909	-112.28646	-26.85111	-69.16195	-34.17414	0
197	53.70222	-70.78929	-124.49151	8.1367	87.06269	-96.01306	2.44101	-21.96909	-114.72747	-29.29212	-69.16195	-34.17414	0
198	46.37919	-78.11232	-124.49151	15.45973	84.62168	-100.89508	-0.81367	-24.4101	-114.72747	-31.73313	-71.60296	-34.17414	0
199	43.93818	-92.75838	-136.69656	22.78276	89.5037	-113.10013	-8.1367	-29.29212	-122.0505	-36.61515	-78.92599	-43.93818	0
200	39.05616	-107.40444	-146.4606	32.5468	91.94471	-125.30518	-15.45973	-36.61515	-126.93252	-43.93818	-86.24902	-51.26121	0
201	31.73313	-117.16848	-148.90161	42.31084	89.5037	-132.62821	-20.34175	-39.05616	-129.37353	-46.37919	-91.13104	-56.14323	0
202	36.61515	-122.0505	-158.66565	42.31084	96.82673	-139.95124	-22.78276	-41.49717	-131.81454	-48.8202	-93.57205	-58.58424	0
203	46.37919	-119.60949	-165.98868	34.98781	104.14976	-142.39225	-25.22377	-43.93818	-131.81454	-46.37919	-93.57205	-58.58424	0
204	48.8202	-124.49151	-173.31171	37.42882	109.03178	-147.27427	-30.10579	-46.37919	-134.25555	-46.37919	-96.01306	-61.02525	0
205	43.93818	-134.25555	-178.19373	44.75185	109.03178	-154.5973	-34.98781	-51.26121	-139.13757	-48.8202	-98.45407	-63.46626	0
206	31.73313	-139.13757	-170.8707	52.07488	99.26774	-154.5973	-37.42882	-53.70222	-139.13757	-48.8202	-98.45407	-63.46626	0
207	31.73313	-141.57858	-173.31171	54.51589	101.70875	-157.03831	-39.86983	-53.70222	-141.57858	-48.8202	-98.45407	-61.02525	0
208	31.73313	-146.4606	-178.19373	56.9569	104.14976	-161.92033	-42.31084	-53.70222	-141.57858	-48.8202	-98.45407	-61.02525	0
209	29.29212	-148.90161	-178.19373	59.39791	101.70875	-161.92033	-44.75185	-56.14323	-144.01959	-51.26121	-98.45407	-61.02525	0
210	24.4101	-153.78363	-178.19373	64.27993	99.26774	-164.36134	-44.75185	-56.14323	-144.01959	-53.70222	-98.45407	-61.02525	0
211	21.96909	-153.78363	-175.75272	64.27993	96.82673	-164.36134	-39.86983	-53.70222	-139.13757	-53.70222	-96.01306	-58.58424	0
212	31.73313	-144.01959	-175.75272	54.51589	101.70875	-159.47932	-34.98781	-51.26121	-136.69656	-51.26121	-93.57205	-53.70222	0
213	36.61515	-141.57858	-178.19373	52.07488	106.59077	-159.47932	-34.98781	-51.26121	-134.25555	-51.26121	-91.13104	-51.26121	0
214	26.85111	-148.90161	-175.75272	59.39791	99.26774	-161.92033	-34.98781	-51.26121	-136.69656	-53.70222	-91.13104	-51.26121	0
215	19.52808	-158.66565	-178.19373	69.16195	96.82673	-166.80235	-42.31084	-58.58424	-139.13757	-58.58424	-91.13104	-56.14323	0
216	14.64606	-163.54767	-178.19373	74.04397	94.38572	-169.24336	-44.75185	-61.02525	-144.01959	-58.58424	-83.80801	-56.14323	0
217	19.52808	-163.54767	-183.07575	71.60296	99.26774	-171.68437	-49.63387	-65.90727	-146.4606	-58.58424	-74.04397	-56.14323	0
218	19.52808	-163.54767	-183.07575	71.60296	99.26774	-171.68437	-49.63387	-68.34828	-148.90161	-58.58424	-66.72094	-56.14323	0
219	17.08707	-165.98868	-183.07575	74.04397	99.26774	-174.12538	-52.07488	-70.78929	-148.90161	-58.58424	-56.9569	-51.26121	0
220	29.29212	-156.22464	-185.51676	61.83892	106.59077	-169.24336	-52.07488	-70.78929	-148.90161	-56.14323	-44.75185	-48.8202	0
221	46.37919	-139.13757	-185.51676	44.75185	113.9138	-161.92033	-49.63387	-65.90727	-144.01959	-53.70222	-37.42882	-41.49717	0
222	48.8202	-134.25555	-183.07575	42.31084	113.9138	-157.03831	-47.19286	-65.90727	-141.57858	-53.70222	-37.42882	-41.49717	0
223	53.70222	-131.81454	-185.51676	37.42882	118.79582	-157.03831	-44.75185	-63.46626	-141.57858	-53.70222	-39.86983	-41.49717	0
224	48.8202	-139.13757	-187.95777	44.75185	116.35481	-161.92033	-49.63387	-68.34828	-144.01959	-56.14323	-47.19286	-46.37919	0
225	39.05616	-146.4606	-185.51676	52.07488	111.47279	-164.36134	-54.51589	-68.34828	-144.01959	-61.02525	-54.51589	-51.26121	0
226	26.85111	-156.22464	-183.07575	64.27993	104.14976	-169.24336	-54.51589	-73.2303	-146.4606	-63.46626	-61.83892	-56.14323	0
227	9.76404	-168.42969	-178.19373	78.92599	91.94471	-171.68437	-56.9569	-73.2303	-151.34262	-63.46626	-66.72094	-58.58424	0
228	7.32303	-170.8707	-178.19373	81.367	91.94471	-174.12538	-56.9569	-73.2303	-151.34262	-63.46626	-66.72094	-58.58424	0
229	7.32303	-168.42969	-175.75272	78.92599	89.5037	-171.68437	-56.9569	-73.2303	-151.34262	-63.46626	-66.72094	-56.14323	0
230	0	-170.8707	-170.8707	83.80801	84.62168	-169.24336	-54.51589	-70.78929	-151.34262	-63.46626	-66.72094	-56.14323	0
231	-3.25468	-165.98868	-163.54767	83.80801	79.73966	-164.36134	-52.07488	-68.34828	-148.90161	-63.46626	-66.72094	-56.14323	0
232	7.32303	-156.22464	-163.54767	74.04397	84.62168	-159.47932	-44.75185	-61.02525	-144.01959	-61.02525	-66.72094	-56.14323	0
233	19.52808	-146.4606	-165.98868	61.83892	91.94471	-154.5973	-37.42882	-56.14323	-136.69656	-61.02525	-64.27993	-56.14323	0
234	29.29212	-136.69656	-165.98868	52.07488	96.82673	-149.71528	-32.5468	-48.8202	-131.81454	-61.02525	-64.27993	-53.70222	0
235	24.4101	-141.57858	-165.98868	56.9569	94.38572	-152.15629	-32.5468	-48.8202	-129.37353	-63.46626	-64.27993	-53.70222	0
236	19.52808	-144.01959	-163.54767	61.83892	89.5037	-152.15629	-30.10579	-46.37919	-126.93252	-63.46626	-61.83892	-51.26121	0
237	24.4101	-136.69656	-161.10666	54.51589	91.94471	-147.27427	-27.66478	-43.93818	-124.49151	-58.58424	-56.9569	-46.37919	0
238	31.73313	-126.93252	-158.66565	47.19286	94.38572	-142.39225	-25.22377	-39.05616	-122.0505	-51.26121	-49.63387	-41.49717	0
239	43.93818	-114.72747	-158.66565	34.98781	99.26774	-135.06922	-22.78276	-39.05616	-119.60949	-46.37919	-42.31084	-36.61515	0
240	53.70222	-107.40444	-161.10666	25.22377	106.59077	-132.62821	-22.78276	-39.05616	-119.60949	-41.49717	-37.42882	-31.73313	0
241	68.34828	-97.6404	-165.98868	13.01872	116.35481	-130.1872	-17.90074	-36.61515	-114.72747	-36.61515	-32.5468	-26.85111	0
242	75.67131	-90.31737	-165.98868	5.69569	118.79582	-127.74619	-15.45973	-36.61515	-109.84545	-34.17414	-27.66478	-24.4101	0
243	80.55333	-87.87636	-168.42969	3.25468	123.67784	-127.74619	-13.01872	-34.17414	-107.40444	-34.17414	-27.66478	-24.4101	0
244	78.11232	-90.31737	-168.42969	5.69569	121.23683	-127.74619	-13.01872	-34.17414	-107.40444	-41.49717	-27.66478	-24.4101	0
245	65.90727	-97.6404	-163.54767	15.45973	113.9138	-130.1872	-13.01872	-34.17414	-107.40444	-46.37919	-32.5468	-26.85111	0
246	46.37919	-109.84545	-156.22464	30.10579	99.26774	-132.62821	-13.01872	-34.17414	-107.40444	-51.26121	-34.98781	-31.73313	0
247	24.4101	-122.0505	-146.4606	47.19286	84.62168	-132.62821	-13.01872	-34.17414	-107.40444	-53.70222	-37.42882	-34.17414	0
248	9.76404	-129.37353	-139.13757	59.39791	72.41663	-132.62821	-13.01872	-34.17414	-107.40444	-53.70222	-39.86983	-39.05616	0
249	7.32303	-126.93252	-134.25555	59.39791	69.97562	-130.1872	-8.1367	-29.29212	-102.52242	-48.8202	-37.42882	-39.05616	0
250	12.20505	-114.72747	-126.93252	49.63387	67.53461	-120.42316	-5.69569	-24.4101	-100.08141	-39.05616	-34.98781	-34.17414	0
251	17.08707	-107.40444	-124.49151	44.75185	69.97562	-115.54114	-0.81367	-24.4101	-97.6404	-29.29212	-27.66478	-31.73313	0
252	21.96909	-104.96343	-126.93252	39.86983	72.41663	-115.54114	-0.81367	-24.4101	-97.6404	-24.4101	-27.66478	-31.73313	0
253	31.73313	-92.75838	-124.49151	30.10579	77.29865	-108.21811	-0.81367	-21.96909	-95.19939	-19.52808	-25.22377	-26.85111	0
254	48.8202	-78.11232	-126.93252	13.01872	87.06269	-100.89508	4.88202	-19.52808	-92.75838	-14.64606	-20.34175	-21.96909	0
255	65.90727	-58.58424	-124.49151	-4.88202	94.38572	-91.13104	7.32303	-17.08707	-87.87636	-9.76404	-15.45973	-14.64606	0
256	78.11232	-43.93818	-122.0505	-17.08707	99.26774	-81.367	12.20505	-12.20505	-82.99434	-4.88202	-8.1367	-7.32303	0
257	82.99434	-36.61515	-119.60949	-24.4101	99.26774	-76.48498	12.20505	-12.20505	-82.99434	-4.88202	-5.69569	-4.88202	0
258	95.19939	-24.4101	-119.60949	-36.61515	106.59077	-71.60296	14.64606	-12.20505	-80.55333	-4.88202	-3.25468	-2.44101	0
259	100.08141	-19.52808	-119.60949	-41.49717	109.03178	-69.16195	17.08707	-9.76404	-78.11232	-2.44101	-0.81367	-2.44101	0
260	92.75838	-24.4101	-117.16848	-34.17414	104.14976	-69.16195	17.08707	-12.20505	-80.55333	-4.88202	-0.81367	-2.44101	0
261	87.87636	-26.85111	-114.72747	-31.73313	99.26774	-69.16195	17.08707	-12.20505	-78.11232	-4.88202	-0.81367	-2.44101	0
262	82.99434	-31.73313	-114.72747	-26.85111	96.82673	-71.60296	17.08707	-9.76404	-78.11232	-9.76404	-5.69569	-2.44101	0
263	68.34828	-43.93818	-112.28646	-12.20505	89.5037	-76.48498	12.20505	-12.20505	-80.55333	-14.64606	-5.69569	-4.88202	0
264	41.49717	-53.70222	-95.19939	5.69569	67.53461	-74.04397	9.76404	-12.20505	-80.55333	-14.64606	-5.69569	-4.88202	0
265	29.29212	-53.70222	-82.99434	10.57771	55.32956	-66.72094	7.32303	-12.20505	-78.11232	-14.64606	-0.81367	-2.44101	0
266	29.29212	-43.93818	-73.2303	5.69569	50.44754	-56.9569	7.32303	-12.20505	-73.2303	-9.76404	4.88202	8.1367	0
267	29.29212	-36.61515	-65.90727	3.25468	45.56552	-49.63387	-0.81367	-14.64606	-73.2303	-2.44101	12.20505	15.45973	0
268	36.61515	-24.4101	-61.02525	-7.32303	48.00653	-42.31084	-3.25468	-19.52808	-78.11232	3.25468	19.52808	20.34175	0
269	46.37919	-17.08707	-63.46626	-14.64606	52.88855	-39.86983	-10.57771	-24.4101	-80.55333	10.57771	26.85111	25.22377	0
270	65.90727	0	-65.90727	-34.17414	65.0936	-32.5468	-13.01872	-26.85111	-80.55333	22.78276	34.17414	32.5468	0
271	92.75838	13.01872	-80.55333	-53.70222	87.06269	-32.5468	-10.57771	-24.4101	-82.99434	30.10579	41.49717	39.86983	0
272	104.96343	13.01872	-92.75838	-58.58424	99.26774	-39.86983	-15.45973	-31.73313	-85.43535	32.5468	43.93818	39.86983	0
273	109.84545	10.57771	-100.08141	-61.02525	104.14976	-44.75185	-20.34175	-36.61515	-90.31737	32.5468	43.93818	37.42882	0
274	117.16848	10.57771	-107.40444	-63.46626	111.47279	-47.19286	-22.78276	-36.61515	-92.75838	34.98781	43.93818	37.42882	0
275	119.60949	5.69569	-114.72747	-63.46626	116.35481	-54.51589	-27.66478	-41.49717	-95.19939	34.98781	41.49717	32.5468	0
276	126.93252	3.25468	-124.49151	-65.90727	126.11885	-59.39791	-32.5468	-46.37919	-100.08141	32.5468	39.05616	30.10579	0
277	126.93252	-4.88202	-131.81454	-61.02525	128.55986	-66.72094	-39.86983	-53.70222	-107.40444	27.66478	34.17414	22.78276	0
278	119.60949	-14.64606	-134.25555	-53.70222	126.11885	-74.04397	-47.19286	-61.02525	-114.72747	22.78276	31.73313	20.34175	0
279	122.0505	-17.08707	-139.13757	-53.70222	128.55986	-76.48498	-49.63387	-63.46626	-119.60949	22.78276	31.73313	17.90074	0
280	131.81454	-14.64606	-146.4606	-58.58424	138.3239	-78.92599	-49.63387	-65.90727	-122.0505	22.78276	31.73313	20.34175	0
281	131.81454	-17.08707	-148.90161	-58.58424	138.3239	-81.367	-52.07488	-65.90727	-126.93252	22.78276	31.73313	20.34175	0
282	131.81454	-21.96909	-153.78363	-56.14323	140.76491	-86.24902	-52.07488	-68.34828	-126.93252	25.22377	31.73313	22.78276	0
283	124.49151	-26.85111	-151.34262	-48.8202	135.88289	-88.69003	-52.07488	-65.90727	-126.93252	30.10579	36.61515	27.66478	0
284	119.60949	-29.29212	-148.90161	-46.37919	133.44188	-88.69003	-49.63387	-65.90727	-126.93252	32.5468	36.61515	27.66478	0
285	117.16848	-34.17414	-151.34262	-41.49717	133.44188	-91.13104	-49.63387	-63.46626	-126.93252	32.5468	34.17414	27.66478	0
286	104.96343	-41.49717	-146.4606	-31.73313	123.67784	-93.57205	-44.75185	-58.58424	-126.93252	32.5468	31.73313	27.66478	0
287	95.19939	-53.70222	-148.90161	-21.96909	121.23683	-100.89508	-44.75185	-56.14323	-126.93252	27.66478	26.85111	20.34175	0
288	82.99434	-61.02525	-144.01959	-12.20505	111.47279	-100.89508	-39.86983	-51.26121	-122.0505	25.22377	19.52808	15.45973	0
289	80.55333	-63.46626	-144.01959	-9.76404	111.47279	-103.33609	-34.98781	-46.37919	-119.60949	20.34175	14.64606	8.1367	0
290	78.11232	-70.78929	-148.90161	-4.88202	111.47279	-108.21811	-30.10579	-41.49717	-117.16848	13.01872	9.76404	0.81367	0
291	73.2303	-80.55333	-153.78363	3.25468	111.47279	-115.54114	-30.10579	-39.05616	-117.16848	5.69569	1.62734	-4.88202	0
292	68.34828	-95.19939	-163.54767	13.01872	113.9138	-127.74619	-30.10579	-36.61515	-117.16848	-4.88202	-5.69569	-14.64606	0
293	68.34828	-102.52242	-170.8707	15.45973	118.79582	-135.06922	-30.10579	-34.17414	-119.60949	-14.64606	-13.01872	-19.52808	0
294	73.2303	-102.52242	-175.75272	13.01872	123.67784	-137.51023	-25.22377	-29.29212	-117.16848	-21.96909	-15.45973	-21.96909	0
295	73.2303	-104.96343	-178.19373	15.45973	123.67784	-139.95124	-22.78276	-26.85111	-114.72747	-29.29212	-17.90074	-21.96909	0
296	78.11232	-112.28646	-190.39878	15.45973	133.44188	-149.71528	-22.78276	-26.85111	-114.72747	-36.61515	-22.78276	-26.85111	0
297	82.99434	-107.40444	-190.39878	10.57771	135.88289	-147.27427	-17.90074	-24.4101	-114.72747	-39.05616	-25.22377	-24.4101	0
298	87.87636	-92.75838	-180.63474	0	133.44188	-135.06922	-10.57771	-14.64606	-107.40444	-34.17414	-20.34175	-19.52808	0
299	97.6404	-78.11232	-175.75272	-9.76404	135.88289	-125.30518	-3.25468	-9.76404	-102.52242	-29.29212	-17.90074	-12.20505	0
300	87.87636	-85.43535	-173.31171	-2.44101	128.55986	-127.74619	-3.25468	-9.76404	-102.52242	-26.85111	-17.90074	-12.20505	0
301	73.2303	-100.08141	-173.31171	13.01872	121.23683	-135.06922	-5.69569	-14.64606	-107.40444	-29.29212	-25.22377	-19.52808	0
302	58.58424	-112.28646	-170.8707	25.22377	113.9138	-139.95124	-8.1367	-17.08707	-109.84545	-29.29212	-30.10579	-24.4101	0
303	36.61515	-126.93252	-163.54767	44.75185	99.26774	-144.83326	-10.57771	-19.52808	-112.28646	-34.17414	-32.5468	-29.29212	0
304	21.96909	-144.01959	-165.98868	59.39791	91.94471	-154.5973	-15.45973	-26.85111	-117.16848	-41.49717	-39.86983	-34.17414	0
305	7.32303	-165.98868	-173.31171	78.92599	89.5037	-169.24336	-22.78276	-34.17414	-124.49151	-51.26121	-52.07488	-43.93818	0
306	-3.25468	-175.75272	-173.31171	88.69003	84.62168	-174.12538	-25.22377	-36.61515	-126.93252	-61.02525	-56.9569	-48.8202	1500	QRS+0
307	7.32303	-163.54767	-170.8707	76.48498	87.06269	-166.80235	-22.78276	-34.17414	-124.49151	-63.46626	-56.9569	-46.37919	0
308	12.20505	-158.66565	-170.8707	71.60296	89.5037	-164.36134	-20.34175	-31.73313	-122.0505	-63.46626	-56.9569	-43.93818	0
309	7.32303	-163.54767	-170.8707	76.48498	87.06269	-166.80235	-20.34175	-31.73313	-124.49151	-65.90727	-59.39791	-43.93818	0
310	-3.25468	-170.8707	-168.42969	86.24902	82.18067	-169.24336	-20.34175	-34.17414	-124.49151	-70.78929	-61.83892	-48.8202	0
311	-3.25468	-170.8707	-168.42969	86.24902	82.18067	-169.24336	-17.90074	-31.73313	-122.0505	-70.78929	-64.27993	-48.8202	0
312	9.76404	-161.10666	-170.8707	74.04397	89.5037	-164.36134	-10.57771	-26.85111	-114.72747	-63.46626	-59.39791	-43.93818	0
313	7.32303	-163.54767	-170.8707	76.48498	87.06269	-166.80235	-10.57771	-24.4101	-112.28646	-58.58424	-56.9569	-41.49717	0
314	-3.25468	-173.31171	-170.8707	86.24902	82.18067	-171.68437	-15.45973	-29.29212	-114.72747	-58.58424	-59.39791	-43.93818	0
315	0	-168.42969	-168.42969	83.80801	82.18067	-166.80235	-15.45973	-26.85111	-114.72747	-58.58424	-59.39791	-46.37919	0
316	19.52808	-151.34262	-170.8707	64.27993	94.38572	-159.47932	-10.57771	-21.96909	-107.40444	-51.26121	-54.51589	-43.93818	0
317	41.49717	-134.25555	-175.75272	44.75185	106.59077	-154.5973	-5.69569	-17.08707	-100.08141	-41.49717	-47.19286	-39.05616	0
318	48.8202	-124.49151	-173.31171	37.42882	109.03178	-147.27427	-5.69569	-14.64606	-97.6404	-39.05616	-47.19286	-39.05616	0
319	48.8202	-126.93252	-175.75272	37.42882	111.47279	-149.71528	-5.69569	-19.52808	-97.6404	-41.49717	-47.19286	-43.93818	0
320	43.93818	-126.93252	-170.8707	39.86983	106.59077	-147.27427	-5.69569	-19.52808	-97.6404	-41.49717	-47.19286	-43.93818	0
321	41.49717	-129.37353	-170.8707	42.31084	104.14976	-149.71528	-5.69569	-19.52808	-97.6404	-41.49717	-47.19286	-43.93818	0
322	41.49717	-131.81454	-173.31171	44.75185	106.59077	-152.15629	-5.69569	-24.4101	-100.08141	-41.49717	-47.19286	-41.49717	0
323	31.73313	-141.57858	-173.31171	54.51589	101.70875	-157.03831	-10.57771	-29.29212	-104.96343	-43.93818	-47.19286	-41.49717	0
324	26.85111	-144.01959	-170.8707	56.9569	96.82673	-157.03831	-10.57771	-31.73313	-109.84545	-46.37919	-49.63387	-41.49717	0
325	14.64606	-151.34262	-165.98868	66.72094	89.5037	-157.03831	-10.57771	-31.73313	-109.84545	-48.8202	-49.63387	-39.05616	0
326	17.08707	-151.34262	-168.42969	66.72094	91.94471	-159.47932	-10.57771	-34.17414	-109.84545	-48.8202	-49.63387	-36.61515	0
327	19.52808	-148.90161	-168.42969	64.27993	91.94471	-157.03831	-10.57771	-34.17414	-109.84545	-51.26121	-49.63387	-39.05616	0
328	17.08707	-148.90161	-165.98868	64.27993	89.5037	-157.03831	-10.57771	-34.17414	-109.84545	-51.26121	-54.51589	-43.93818	0
329	26.85111	-139.13757	-165.98868	54.51589	94.38572	-152.15629	-8.1367	-29.29212	-102.52242	-51.26121	-54.51589	-46.37919	0
330	31.73313	-129.37353	-161.10666	47.19286	94.38572	-144.83326	-3.25468	-26.85111	-97.6404	-48.8202	-54.51589	-46.37919	0
331	41.49717	-117.16848	-158.66565	37.42882	99.26774	-137.51023	2.44101	-21.96909	-92.75838	-43.93818	-52.07488	-46.37919	0
332	48.8202	-109.84545	-158.66565	30.10579	101.70875	-132.62821	4.88202	-17.08707	-85.43535	-41.49717	-47.19286	-46.37919	0
333	48.8202	-107.40444	-156.22464	27.66478	101.70875	-130.1872	4.88202	-17.08707	-85.43535	-41.49717	-47.19286	-46.37919	0
334	51.26121	-107.40444	-158.66565	27.66478	104.14976	-132.62821	4.88202	-17.08707	-85.43535	-41.49717	-47.19286	-46.37919	0
335	41.49717	-114.72747	-156.22464	34.98781	96.82673	-135.06922	2.44101	-19.52808	-87.87636	-46.37919	-49.63387	-46.37919	0
336	31.73313	-124.49151	-156.22464	44.75185	91.94471	-139.95124	-0.81367	-21.96909	-92.75838	-51.26121	-52.07488	-46.37919	0
337	21.96909	-134.25555	-156.22464	54.51589	87.06269	-144.83326	-5.69569	-26.85111	-97.6404	-56.14323	-54.51589	-46.37919	0
338	12.20505	-146.4606	-158.66565	66.72094	84.62168	-152.15629	-10.57771	-31.73313	-102.52242	-61.02525	-56.9569	-48.8202	0
339	4.88202	-148.90161	-153.78363	71.60296	77.29865	-149.71528	-15.45973	-36.61515	-107.40444	-61.02525	-59.39791	-48.8202	0
340	4.88202	-144.01959	-148.90161	69.16195	74.85764	-144.83326	-10.57771	-31.73313	-104.96343	-56.14323	-54.51589	-41.49717	0
341	12.20505	-134.25555	-146.4606	59.39791	77.29865	-139.95124	-5.69569	-26.85111	-100.08141	-48.8202	-47.19286	-36.61515	0
342	24.4101	-122.0505	-146.4606	47.19286	84.62168	-132.62821	-0.81367	-21.96909	-97.6404	-41.49717	-42.31084	-29.29212	0
343	31.73313	-114.72747	-146.4606	39.86983	87.06269	-130.1872	2.44101	-19.52808	-92.75838	-36.61515	-39.86983	-24.4101	0
344	36.61515	-109.84545	-146.4606	34.98781	89.5037	-127.74619	7.32303	-14.64606	-90.31737	-31.73313	-37.42882	-19.52808	0
345	34.17414	-114.72747	-148.90161	39.86983	89.5037	-130.1872	12.20505	-14.64606	-90.31737	-31.73313	-39.86983	-21.96909	0
346	19.52808	-134.25555	-153.78363	56.9569	84.62168	-142.39225	12.20505	-17.08707	-92.75838	-41.49717	-49.63387	-31.73313	0
347	-3.25468	-161.10666	-158.66565	81.367	77.29865	-159.47932	12.20505	-21.96909	-100.08141	-56.14323	-64.27993	-43.93818	0
348	-27.66478	-187.95777	-161.10666	105.7771	65.0936	-174.12538	14.64606	-24.4101	-104.96343	-68.34828	-76.48498	-56.14323	0
349	-37.42882	-202.60383	-165.98868	117.98215	62.65259	-183.88942	17.08707	-24.4101	-107.40444	-78.11232	-88.69003	-68.34828	0
350	-34.98781	-207.48585	-173.31171	120.42316	67.53461	-191.21245	21.96909	-24.4101	-109.84545	-82.99434	-96.01306	-80.55333	0
351	-27.66478	-207.48585	-180.63474	115.54114	74.85764	-193.65346	24.4101	-26.85111	-114.72747	-82.99434	-103.33609	-92.75838	0
352	-3.25468	-192.83979	-190.39878	96.01306	91.94471	-191.21245	26.85111	-26.85111	-114.72747	-73.2303	-103.33609	-97.6404	0
353	36.61515	-170.8707	-207.48585	66.72094	121.23683	-188.77144	26.85111	-31.73313	-122.0505	-58.58424	-98.45407	-97.6404	0
354	87.87636	-148.90161	-236.77797	30.10579	160.29299	-191.21245	17.08707	-43.93818	-134.25555	-36.61515	-93.57205	-100.08141	0
355	144.01959	-124.49151	-268.5111	-9.76404	204.23117	-196.09447	-0.81367	-68.34828	-156.22464	-7.32303	-83.80801	-102.52242	0
356	192.83979	-104.96343	-297.80322	-43.93818	243.28733	-200.97649	-34.98781	-100.08141	-185.51676	27.66478	-71.60296	-104.96343	0
357	244.101	-82.99434	-327.09534	-80.55333	284.7845	-203.4175	-76.48498	-141.57858	-222.13191	76.48498	-52.07488	-102.52242	0
358	302.68524	-56.14323	-358.82847	-124.49151	328.72268	-205.85851	-130.1872	-190.39878	-263.62908	130.1872	-32.5468	-97.6404	0
359	371.03352	-14.64606	-385.67958	-178.19373	377.54288	-198.53548	-191.21245	-244.101	-307.56726	196.09447	1.62734	-85.43535	0
360	444.26382	39.86983	-405.20766	-241.65999	423.92207	-181.44841	-254.67871	-295.36221	-349.06443	274.20679	41.49717	-65.90727	0
361	507.73008	100.89508	-407.64867	-305.12625	458.09621	-152.15629	-320.58598	-346.62342	-385.67958	359.64214	92.75838	-39.05616	0
362	563.87331	161.92033	-402.76665	-363.71049	482.50631	-120.42316	-379.17022	-388.12059	-414.9717	442.63648	146.4606	-7.32303	0
363	598.04745	205.85851	-393.00261	-402.76665	494.71136	-93.57205	-430.43143	-422.29473	-436.94079	508.54375	192.83979	22.78276	0
364	610.2525	247.35568	-363.71049	-429.61776	487.38833	-56.9569	-467.04658	-441.82281	-444.26382	564.68698	236.77797	56.9569	0
365	600.48846	281.52982	-319.77231	-441.82281	460.53722	-17.90074	-484.13365	-441.82281	-434.49978	606.18415	280.71615	98.45407	0
366	558.99129	298.61689	-261.18807	-429.61776	409.27601	19.52808	-486.57466	-427.17675	-412.53069	615.94819	312.44928	135.06922	0
367	490.64301	303.49891	-187.95777	-397.88463	338.48672	58.58424	-474.36961	-397.88463	-375.91554	601.30213	331.97736	169.24336	0
368	385.67958	288.85285	-97.6404	-336.85938	240.84632	97.6404	-437.75446	-349.06443	-324.65433	564.68698	344.18241	203.4175	0
369	273.39312	271.76578	-2.44101	-273.39312	138.3239	136.69656	-386.49325	-288.03918	-261.18807	508.54375	344.18241	232.70962	0
370	163.54767	259.56073	96.01306	-212.36787	33.36047	178.19373	-325.468	-217.24989	-190.39878	447.5185	346.62342	262.00174	0
371	56.14323	242.47366	186.33043	-148.90161	-65.0936	214.80888	-262.00174	-148.90161	-119.60949	384.05224	336.85938	283.97083	0
372	-27.66478	227.8276	254.67871	-100.08141	-140.76491	241.65999	-196.09447	-82.99434	-58.58424	323.02699	327.09534	296.17588	0
373	-98.45407	225.38659	323.02699	-63.46626	-211.5542	273.39312	-122.86417	-14.64606	3.25468	279.08881	319.77231	310.82194	0
374	-149.71528	225.38659	374.2882	-39.05616	-262.81541	300.24423	-52.07488	44.75185	56.9569	240.03265	307.56726	315.70396	0
375	-183.88942	220.50457	403.58032	-19.52808	-294.54854	312.44928	4.88202	91.13104	96.01306	208.29952	290.48019	313.26295	0
376	-210.74053	210.74053	420.66739	0	-316.51763	314.89029	53.70222	130.1872	122.86417	181.44841	275.83413	305.93992	0
377	-232.70962	203.4175	435.31345	13.01872	-333.6047	319.77231	95.19939	161.92033	144.83326	154.5973	256.30605	296.17588	0
378	-242.47366	203.4175	445.07749	17.90074	-343.36874	324.65433	131.81454	191.21245	169.24336	132.62821	241.65999	288.85285	0
379	-262.00174	191.21245	452.40052	34.98781	-358.0148	322.21332	151.34262	205.85851	181.44841	108.21811	224.57292	279.08881	0
380	-279.08881	174.12538	452.40052	52.07488	-365.33783	312.44928	156.22464	213.18154	188.77144	81.367	207.48585	269.32477	0
381	-279.08881	174.12538	452.40052	52.07488	-365.33783	312.44928	156.22464	215.62255	193.65346	64.27993	192.83979	264.44275	0
382	-269.32477	179.0074	447.5185	44.75185	-358.0148	312.44928	151.34262	218.06356	198.53548	49.63387	183.07575	257.11972	0
383	-264.44275	181.44841	445.07749	39.86983	-355.57379	312.44928	146.4606	218.06356	203.4175	37.42882	170.8707	247.35568	0
384	-259.56073	183.88942	442.63648	37.42882	-350.69177	312.44928	139.13757	218.06356	203.4175	32.5468	161.10666	237.59164	0
385	-252.2377	191.21245	442.63648	30.10579	-348.25076	317.3313	136.69656	218.06356	203.4175	27.66478	148.90161	222.94558	0
386	-242.47366	196.09447	437.75446	22.78276	-340.92773	317.3313	134.25555	215.62255	203.4175	20.34175	134.25555	205.85851	0
387	-242.47366	188.77144	430.43143	25.22377	-336.04571	310.00827	131.81454	213.18154	198.53548	15.45973	117.16848	186.33043	0
388	-249.79669	176.56639	425.54941	34.98781	-338.48672	300.24423	126.93252	205.85851	191.21245	8.1367	102.52242	169.24336	0
389	-247.35568	169.24336	415.78537	37.42882	-331.16369	292.9212	122.0505	196.09447	183.88942	5.69569	92.75838	154.5973	0
390	-235.15063	166.80235	401.13931	32.5468	-318.95864	283.15716	114.72747	188.77144	174.12538	3.25468	85.43535	144.83326	0
391	-222.94558	159.47932	381.61123	30.10579	-301.87157	270.95211	107.40444	176.56639	164.36134	-2.44101	75.67131	135.06922	0
392	-210.74053	152.15629	362.08315	27.66478	-287.22551	256.30605	100.08141	166.80235	154.5973	-12.20505	68.34828	127.74619	0
393	-198.53548	149.71528	347.43709	22.78276	-272.57945	248.98302	97.6404	159.47932	147.27427	-17.08707	65.90727	122.86417	0
394	-188.77144	144.83326	332.79103	20.34175	-260.3744	239.21898	87.87636	147.27427	135.06922	-26.85111	58.58424	113.10013	0
395	-186.33043	127.74619	313.26295	27.66478	-250.61036	219.6909	73.2303	130.1872	117.98215	-36.61515	46.37919	103.33609	0
396	-181.44841	117.98215	298.61689	30.10579	-240.84632	207.48585	63.46626	115.54114	103.33609	-41.49717	41.49717	96.01306	0
397	-174.12538	113.10013	286.41184	30.10579	-231.08228	200.16282	53.70222	105.7771	93.57205	-39.05616	39.05616	93.57205	0
398	-161.92033	117.98215	279.08881	20.34175	-221.31824	197.72181	48.8202	98.45407	88.69003	-31.73313	41.49717	96.01306	0
399	-152.15629	115.54114	266.88376	17.90074	-209.11319	190.39878	39.05616	88.69003	81.367	-29.29212	41.49717	93.57205	0
400	-139.95124	110.65912	249.79669	13.01872	-194.46713	180.63474	36.61515	81.367	76.48498	-24.4101	41.49717	93.57205	0
401	-125.30518	125.30518	249.79669	0	-187.1441	187.95777	41.49717	86.24902	81.367	-14.64606	51.26121	96.01306	0
402	-98.45407	144.83326	242.47366	-24.4101	-170.05703	192.83979	51.26121	91.13104	88.69003	-7.32303	58.58424	100.89508	0
403	-76.48498	157.03831	232.70962	-41.49717	-155.41097	195.2808	56.14323	93.57205	93.57205	-4.88202	61.02525	100.89508	0
404	-71.60296	149.71528	220.50457	-39.05616	-145.64693	185.51676	56.14323	91.13104	88.69003	-14.64606	53.70222	91.13104	0
405	-74.04397	144.83326	218.06356	-36.61515	-145.64693	180.63474	56.14323	88.69003	86.24902	-19.52808	48.8202	83.80801	0
406	-74.04397	144.83326	218.06356	-36.61515	-145.64693	180.63474	58.58424	88.69003	86.24902	-19.52808	46.37919	81.367	0
407	-76.48498	137.51023	213.18154	-31.73313	-145.64693	175.75272	56.14323	88.69003	83.80801	-24.4101	41.49717	76.48498	0
408	-83.80801	120.42316	203.4175	-19.52808	-143.20592	161.10666	51.26121	81.367	74.04397	-26.85111	34.17414	69.16195	0
409	-105.7771	100.89508	205.85851	0	-155.41097	153.78363	46.37919	76.48498	69.16195	-29.29212	29.29212	64.27993	0
410	-120.42316	83.80801	203.4175	17.90074	-162.734	144.01959	43.93818	74.04397	64.27993	-31.73313	26.85111	56.9569	0
411	-132.62821	71.60296	203.4175	30.10579	-167.61602	136.69656	41.49717	69.16195	59.39791	-34.17414	21.96909	54.51589	0
412	-144.83326	56.9569	200.97649	42.31084	-172.49804	129.37353	39.05616	66.72094	54.51589	-36.61515	19.52808	49.63387	0
413	-152.15629	49.63387	200.97649	49.63387	-177.38006	124.49151	39.05616	64.27993	52.07488	-39.05616	17.08707	44.75185	0
414	-147.27427	49.63387	196.09447	47.19286	-172.49804	122.0505	39.05616	64.27993	49.63387	-39.05616	14.64606	44.75185	0
415	-139.95124	56.9569	196.09447	39.86983	-167.61602	126.93252	43.93818	66.72094	49.63387	-39.05616	14.64606	42.31084	0
416	-117.98215	69.16195	186.33043	22.78276	-152.96996	126.93252	48.8202	71.60296	49.63387	-39.05616	17.08707	44.75185	0
417	-105.7771	78.92599	183.88942	13.01872	-145.64693	131.81454	51.26121	76.48498	52.07488	-39.05616	17.08707	44.75185	0
418	-100.89508	81.367	181.44841	8.1367	-140.76491	131.81454	53.70222	78.92599	52.07488	-39.05616	17.08707	44.75185	0
419	-93.57205	91.13104	183.88942	0	-138.3239	136.69656	56.14323	81.367	52.07488	-36.61515	19.52808	44.75185	0
420	-93.57205	98.45407	191.21245	-2.44101	-143.20592	144.01959	63.46626	88.69003	54.51589	-34.17414	24.4101	47.19286	0
421	-91.13104	103.33609	193.65346	-7.32303	-143.20592	148.90161	65.90727	91.13104	56.9569	-31.73313	24.4101	47.19286	0
422	-100.89508	96.01306	196.09447	0	-148.08794	146.4606	65.90727	91.13104	54.51589	-34.17414	21.96909	42.31084	0
423	-117.98215	88.69003	205.85851	13.01872	-162.734	146.4606	65.90727	91.13104	54.51589	-36.61515	19.52808	37.42882	0
424	-125.30518	91.13104	215.62255	15.45973	-170.05703	153.78363	68.34828	93.57205	56.9569	-36.61515	19.52808	37.42882	0
425	-135.06922	83.80801	218.06356	25.22377	-177.38006	151.34262	68.34828	93.57205	54.51589	-39.05616	17.08707	32.5468	0
426	-127.74619	86.24902	213.18154	20.34175	-170.05703	148.90161	68.34828	96.01306	54.51589	-41.49717	14.64606	30.10579	-1500	QRS-0
427	-117.98215	96.01306	213.18154	10.57771	-165.17501	153.78363	70.78929	98.45407	59.39791	-41.49717	14.64606	30.10579	0
428	-115.54114	98.45407	213.18154	8.1367	-165.17501	156.22464	73.2303	100.89508	61.83892	-36.61515	17.08707	27.66478	0
429	-117.98215	100.89508	218.06356	8.1367	-167.61602	158.66565	78.11232	103.33609	64.27993	-36.61515	17.08707	25.22377	0
430	-120.42316	100.89508	220.50457	8.1367	-170.05703	161.10666	80.55333	103.33609	64.27993	-36.61515	12.20505	20.34175	0
431	-115.54114	108.21811	222.94558	3.25468	-170.05703	165.98868	82.99434	108.21811	66.72094	-36.61515	12.20505	17.90074	0
432	-105.7771	120.42316	225.38659	-7.32303	-165.17501	173.31171	90.31737	113.10013	71.60296	-31.73313	14.64606	20.34175	0
433	-122.86417	122.86417	244.91467	0	-184.70309	183.07575	95.19939	120.42316	74.04397	-31.73313	17.08707	22.78276	0
434	-132.62821	130.1872	262.00174	0	-196.90814	195.2808	102.52242	125.30518	78.92599	-29.29212	17.08707	27.66478	0
435	-127.74619	144.83326	271.76578	-9.76404	-199.34915	207.48585	109.84545	135.06922	86.24902	-26.85111	21.96909	32.5468	0
436	-120.42316	161.92033	281.52982	-21.96909	-201.79016	222.13191	122.0505	144.83326	96.01306	-24.4101	29.29212	39.86983	0
437	-117.98215	176.56639	293.73487	-29.29212	-206.67218	234.33696	131.81454	157.03831	105.7771	-21.96909	31.73313	44.75185	0
438	-117.98215	181.44841	298.61689	-31.73313	-209.11319	239.21898	141.57858	164.36134	110.65912	-21.96909	31.73313	44.75185	0
439	-115.54114	186.33043	301.0579	-36.61515	-209.11319	244.101	148.90161	171.68437	117.98215	-21.96909	31.73313	42.31084	0
440	-110.65912	188.77144	298.61689	-39.05616	-204.23117	244.101	151.34262	174.12538	122.86417	-24.4101	26.85111	34.98781	0
441	-110.65912	191.21245	301.0579	-41.49717	-206.67218	246.54201	156.22464	176.56639	125.30518	-21.96909	24.4101	30.10579	0
442	-117.98215	186.33043	303.49891	-34.17414	-211.5542	244.101	158.66565	179.0074	127.74619	-17.08707	24.4101	25.22377	0
443	-130.1872	179.0074	308.38093	-24.4101	-218.87723	244.101	158.66565	174.12538	125.30518	-14.64606	19.52808	20.34175	0
444	-137.51023	174.12538	310.82194	-19.52808	-223.75925	241.65999	158.66565	171.68437	122.86417	-9.76404	17.08707	17.90074	0
445	-142.39225	179.0074	320.58598	-19.52808	-231.08228	248.98302	165.98868	176.56639	127.74619	0	21.96909	20.34175	0
446	-139.95124	183.88942	323.02699	-21.96909	-231.08228	253.86504	168.42969	179.0074	127.74619	5.69569	24.4101	22.78276	0
447	-132.62821	191.21245	323.02699	-29.29212	-228.64127	256.30605	173.31171	179.0074	130.1872	10.57771	26.85111	25.22377	0
448	-127.74619	191.21245	318.14497	-31.73313	-223.75925	253.86504	175.75272	181.44841	130.1872	10.57771	29.29212	25.22377	0
449	-115.54114	203.4175	318.14497	-43.93818	-216.43622	261.18807	183.07575	186.33043	135.06922	10.57771	29.29212	27.66478	0
450	-98.45407	222.94558	320.58598	-63.46626	-209.11319	270.95211	195.2808	196.09447	142.39225	20.34175	39.05616	34.98781	0
451	-81.367	235.15063	315.70396	-78.11232	-199.34915	275.83413	200.16282	198.53548	144.83326	22.78276	41.49717	37.42882	0
452	-69.16195	244.91467	313.26295	-87.87636	-192.02612	278.27514	205.04484	200.97649	147.27427	25.22377	41.49717	37.42882	0
453	-64.27993	249.79669	313.26295	-92.75838	-189.58511	280.71615	209.92686	200.97649	149.71528	30.10579	46.37919	39.86983	0
454	-64.27993	249.79669	313.26295	-92.75838	-189.58511	280.71615	212.36787	203.4175	149.71528	32.5468	48.8202	37.42882	0
455	-54.51589	254.67871	308.38093	-100.08141	-182.26208	280.71615	214.80888	203.4175	147.27427	34.98781	51.26121	34.98781	0
456	-52.07488	244.91467	296.17588	-97.6404	-174.93905	270.95211	209.92686	193.65346	139.95124	30.10579	48.8202	30.10579	0
457	-59.39791	218.06356	276.6478	-80.55333	-167.61602	246.54201	200.16282	181.44841	125.30518	20.34175	39.05616	17.90074	0
458	-66.72094	193.65346	259.56073	-63.46626	-162.734	227.01393	190.39878	169.24336	113.10013	13.01872	34.17414	8.1367	0
459	-66.72094	176.56639	242.47366	-56.14323	-155.41097	209.92686	183.07575	159.47932	103.33609	13.01872	31.73313	5.69569	0
460	-59.39791	164.36134	222.94558	-53.70222	-140.76491	192.83979	175.75272	149.71528	93.57205	10.57771	26.85111	-2.44101	0
461	-49.63387	157.03831	205.85851	-53.70222	-128.55986	180.63474	173.31171	144.83326	86.24902	13.01872	26.85111	-2.44101	0
462	-39.86983	149.71528	188.77144	-56.14323	-113.9138	168.42969	168.42969	139.95124	81.367	13.01872	26.85111	-2.44101	0
463	-32.5468	147.27427	179.0074	-58.58424	-106.59077	163.54767	168.42969	137.51023	78.92599	17.90074	29.29212	-2.44101	0
464	-25.22377	147.27427	171.68437	-61.02525	-99.26774	158.66565	165.98868	132.62821	71.60296	17.90074	29.29212	-2.44101	0
465	-17.90074	135.06922	152.15629	-58.58424	-84.62168	144.01959	161.10666	125.30518	64.27993	15.45973	26.85111	-2.44101	0
466	-13.01872	127.74619	139.95124	-58.58424	-77.29865	134.25555	156.22464	117.98215	56.9569	15.45973	24.4101	-4.88202	0
467	-3.25468	117.98215	120.42316	-58.58424	-62.65259	119.60949	148.90161	110.65912	49.63387	15.45973	24.4101	-7.32303	0
468	2.44101	100.89508	98.45407	-51.26121	-48.00653	100.08141	141.57858	98.45407	37.42882	13.01872	19.52808	-14.64606	0
469	-5.69569	74.04397	78.92599	-34.17414	-43.12451	75.67131	126.93252	83.80801	22.78276	5.69569	12.20505	-24.4101	0
470	-10.57771	49.63387	59.39791	-19.52808	-35.80148	53.70222	117.16848	71.60296	10.57771	0	1.62734	-31.73313	0
471	-8.1367	34.98781	42.31084	-14.64606	-26.03744	39.05616	104.96343	61.83892	0.81367	0	1.62734	-36.61515	0
472	-3.25468	20.34175	22.78276	-9.76404	-13.83239	21.96909	92.75838	52.07488	-11.39138	-2.44101	-3.25468	-43.93818	0
473	-3.25468	5.69569	8.1367	-2.44101	-6.50936	7.32303	82.99434	42.31084	-21.96909	-7.32303	-8.1367	-51.26121	0
474	0	-2.44101	-2.44101	0	-0.81367	-0.81367	73.2303	34.98781	-29.29212	-12.20505	-13.01872	-56.14323	0
475	21.96909	0	-21.96909	-12.20505	21.15542	-10.57771	70.78929	32.5468	-34.17414	-12.20505	-13.01872	-56.14323	0
476	51.26121	8.1367	-43.93818	-29.29212	48.00653	-17.90074	68.34828	27.66478	-36.61515	-12.20505	-13.01872	-56.14323	0
477	70.78929	10.57771	-61.02525	-41.49717	65.0936	-25.22377	65.90727	25.22377	-39.05616	-12.20505	-13.01872	-58.58424	0
478	70.78929	0	-70.78929	-36.61515	69.97562	-34.98781	58.58424	17.90074	-46.37919	-17.08707	-20.34175	-65.90727	0
479	65.90727	-21.96909	-87.87636	-21.96909	74.85764	-54.51589	48.8202	8.1367	-56.14323	-24.4101	-30.10579	-75.67131	0
480	70.78929	-36.61515	-107.40444	-17.08707	87.06269	-71.60296	39.05616	-2.44101	-65.90727	-29.29212	-37.42882	-82.99434	0
481	68.34828	-51.26121	-119.60949	-9.76404	91.94471	-83.80801	29.29212	-12.20505	-75.67131	-34.17414	-44.75185	-87.87636	0
482	61.02525	-61.02525	-122.0505	0	89.5037	-91.13104	21.96909	-17.08707	-82.99434	-34.17414	-47.19286	-90.31737	0
483	63.46626	-63.46626	-126.93252	0	94.38572	-93.57205	14.64606	-21.96909	-85.43535	-36.61515	-47.19286	-90.31737	0
484	75.67131	-58.58424	-134.25555	-9.76404	104.14976	-96.01306	12.20505	-21.96909	-85.43535	-31.73313	-47.19286	-85.43535	0
485	90.31737	-48.8202	-139.13757	-21.96909	113.9138	-93.57205	7.32303	-19.52808	-85.43535	-29.29212	-39.86983	-80.55333	0
486	100.08141	-43.93818	-144.01959	-29.29212	121.23683	-93.57205	7.32303	-19.52808	-85.43535	-26.85111	-37.42882	-78.11232	0
487	92.75838	-51.26121	-144.01959	-21.96909	116.35481	-96.01306	-0.81367	-21.96909	-85.43535	-26.85111	-37.42882	-80.55333	0
488	90.31737	-63.46626	-153.78363	-14.64606	121.23683	-108.21811	-5.69569	-26.85111	-90.31737	-31.73313	-42.31084	-85.43535	0
489	82.99434	-80.55333	-163.54767	-2.44101	121.23683	-120.42316	-15.45973	-36.61515	-100.08141	-39.05616	-49.63387	-90.31737	0
490	65.90727	-107.40444	-173.31171	20.34175	118.79582	-139.95124	-27.66478	-46.37919	-109.84545	-48.8202	-56.9569	-97.6404	0
491	46.37919	-131.81454	-178.19373	42.31084	111.47279	-154.5973	-37.42882	-56.14323	-119.60949	-58.58424	-64.27993	-104.96343	0
492	39.05616	-146.4606	-185.51676	52.07488	111.47279	-164.36134	-44.75185	-63.46626	-124.49151	-65.90727	-71.60296	-109.84545	0
493	34.17414	-151.34262	-185.51676	56.9569	109.03178	-166.80235	-49.63387	-65.90727	-126.93252	-73.2303	-74.04397	-112.28646	0
494	39.05616	-146.4606	-185.51676	52.07488	111.47279	-164.36134	-47.19286	-65.90727	-124.49151	-73.2303	-71.60296	-112.28646	0
495	51.26121	-139.13757	-190.39878	42.31084	118.79582	-164.36134	-47.19286	-63.46626	-122.0505	-73.2303	-69.16195	-109.84545	0
496	68.34828	-124.49151	-192.83979	27.66478	128.55986	-157.03831	-42.31084	-61.02525	-117.16848	-70.78929	-66.72094	-107.40444	0
497	82.99434	-112.28646	-195.2808	13.01872	138.3239	-152.15629	-42.31084	-58.58424	-114.72747	-70.78929	-64.27993	-107.40444	0
498	90.31737	-107.40444	-197.72181	8.1367	143.20592	-152.15629	-39.86983	-58.58424	-112.28646	-68.34828	-64.27993	-104.96343	0
499	82.99434	-114.72747	-197.72181	15.45973	138.3239	-154.5973	-42.31084	-61.02525	-114.72747	-68.34828	-64.27993	-104.96343	0
500	78.11232	-126.93252	-205.04484	22.78276	140.76491	-164.36134	-49.63387	-68.34828	-122.0505	-73.2303	-69.16195	-109.84545	0
501	73.2303	-134.25555	-207.48585	30.10579	138.3239	-169.24336	-52.07488	-73.2303	-124.49151	-75.67131	-74.04397	-112.28646	0
502	53.70222	-153.78363	-207.48585	49.63387	128.55986	-179.0074	-59.39791	-80.55333	-134.25555	-80.55333	-78.92599	-119.60949	0
503	31.73313	-173.31171	-205.04484	69.16195	116.35481	-188.77144	-64.27993	-87.87636	-139.13757	-85.43535	-83.80801	-124.49151	0
504	26.85111	-178.19373	-205.04484	74.04397	113.9138	-191.21245	-66.72094	-87.87636	-141.57858	-87.87636	-83.80801	-124.49151	0
505	29.29212	-183.07575	-212.36787	76.48498	118.79582	-196.09447	-71.60296	-95.19939	-146.4606	-90.31737	-88.69003	-129.37353	0
506	31.73313	-183.07575	-214.80888	74.04397	121.23683	-198.53548	-71.60296	-95.19939	-146.4606	-87.87636	-88.69003	-129.37353	0
507	36.61515	-180.63474	-217.24989	71.60296	126.11885	-198.53548	-69.16195	-92.75838	-144.01959	-82.99434	-86.24902	-126.93252	0
508	51.26121	-170.8707	-222.13191	59.39791	135.88289	-196.09447	-69.16195	-90.31737	-144.01959	-78.11232	-83.80801	-124.49151	0
509	68.34828	-158.66565	-227.01393	44.75185	145.64693	-191.21245	-64.27993	-87.87636	-139.13757	-73.2303	-76.48498	-119.60949	0
510	70.78929	-153.78363	-224.57292	39.86983	145.64693	-188.77144	-64.27993	-85.43535	-136.69656	-68.34828	-74.04397	-117.16848	0
511	63.46626	-156.22464	-219.6909	44.75185	140.76491	-186.33043	-61.83892	-82.99434	-134.25555	-68.34828	-74.04397	-114.72747	0
512	56.14323	-156.22464	-212.36787	49.63387	133.44188	-183.88942	-61.83892	-80.55333	-131.81454	-70.78929	-71.60296	-112.28646	0
513	53.70222	-158.66565	-212.36787	52.07488	131.00087	-183.88942	-64.27993	-82.99434	-134.25555	-75.67131	-74.04397	-112.28646	0
514	46.37919	-161.10666	-207.48585	56.9569	126.11885	-183.88942	-64.27993	-82.99434	-134.25555	-80.55333	-74.04397	-112.28646	0
515	31.73313	-170.8707	-202.60383	69.16195	116.35481	-186.33043	-66.72094	-85.43535	-134.25555	-85.43535	-78.92599	-112.28646	0
516	21.96909	-173.31171	-195.2808	74.04397	106.59077	-183.88942	-66.72094	-85.43535	-131.81454	-85.43535	-78.92599	-112.28646	0
517	24.4101	-170.8707	-195.2808	71.60296	109.03178	-181.44841	-66.72094	-85.43535	-131.81454	-85.43535	-78.92599	-112.28646	0
518	43.93818	-158.66565	-202.60383	56.9569	121.23683	-179.0074	-66.72094	-85.43535	-129.37353	-87.87636	-78.92599	-112.28646	0
519	58.58424	-148.90161	-207.48585	44.75185	131.00087	-176.56639	-64.27993	-82.99434	-126.93252	-85.43535	-78.92599	-112.28646	0
520	61.02525	-144.01959	-205.04484	39.86983	131.00087	-174.12538	-61.83892	-82.99434	-124.49151	-85.43535	-78.92599	-114.72747	0
521	65.90727	-136.69656	-202.60383	34.98781	133.44188	-169.24336	-59.39791	-78.11232	-122.0505	-82.99434	-78.92599	-114.72747	0
522	70.78929	-134.25555	-205.04484	30.10579	135.88289	-169.24336	-59.39791	-78.11232	-119.60949	-82.99434	-78.92599	-112.28646	0
523	80.55333	-131.81454	-212.36787	25.22377	145.64693	-171.68437	-59.39791	-78.11232	-119.60949	-85.43535	-78.92599	-112.28646	0
524	61.02525	-141.57858	-202.60383	39.86983	131.00087	-171.68437	-59.39791	-78.11232	-119.60949	-82.99434	-78.92599	-109.84545	0
525	39.05616	-151.34262	-190.39878	54.51589	113.9138	-169.24336	-59.39791	-80.55333	-119.60949	-78.11232	-76.48498	-107.40444	0
526	29.29212	-153.78363	-183.07575	61.83892	104.14976	-166.80235	-59.39791	-80.55333	-119.60949	-75.67131	-71.60296	-102.52242	0
527	24.4101	-161.10666	-185.51676	66.72094	104.14976	-171.68437	-61.83892	-85.43535	-119.60949	-78.11232	-71.60296	-100.08141	0
528	19.52808	-168.42969	-187.95777	74.04397	101.70875	-176.56639	-64.27993	-90.31737	-122.0505	-80.55333	-71.60296	-102.52242	0
529	7.32303	-175.75272	-183.07575	83.80801	94.38572	-179.0074	-69.16195	-95.19939	-126.93252	-80.55333	-74.04397	-104.96343	0
530	7.32303	-173.31171	-180.63474	81.367	91.94471	-176.56639	-69.16195	-95.19939	-124.49151	-80.55333	-74.04397	-104.96343	0
531	14.64606	-168.42969	-183.07575	76.48498	96.82673	-174.12538	-69.16195	-92.75838	-122.0505	-82.99434	-76.48498	-104.96343	0
532	14.64606	-168.42969	-183.07575	76.48498	96.82673	-174.12538	-69.16195	-92.75838	-122.0505	-85.43535	-78.92599	-109.84545	0
533	9.76404	-170.8707	-180.63474	78.92599	94.38572	-174.12538	-66.72094	-92.75838	-122.0505	-87.87636	-81.367	-112.28646	0
534	7.32303	-170.8707	-178.19373	81.367	91.94471	-174.12538	-64.27993	-90.31737	-119.60949	-87.87636	-81.367	-114.72747	0
535	26.85111	-158.66565	-185.51676	64.27993	104.14976	-171.68437	-61.83892	-85.43535	-114.72747	-82.99434	-78.92599	-114.72747	0
536	41.49717	-148.90161	-190.39878	52.07488	113.9138	-169.24336	-56.9569	-82.99434	-109.84545	-80.55333	-78.92599	-114.72747	0
537	51.26121	-141.57858	-192.83979	44.75185	121.23683	-166.80235	-52.07488	-78.11232	-107.40444	-78.11232	-76.48498	-112.28646	0
538	61.02525	-126.93252	-187.95777	32.5468	123.67784	-157.03831	-44.75185	-68.34828	-100.08141	-73.2303	-71.60296	-107.40444	0
539	75.67131	-109.84545	-185.51676	15.45973	128.55986	-147.27427	-37.42882	-63.46626	-92.75838	-68.34828	-66.72094	-102.52242	0
540	95.19939	-82.99434	-178.19373	-7.32303	135.88289	-130.1872	-27.66478	-53.70222	-82.99434	-63.46626	-59.39791	-92.75838	0
541	104.96343	-63.46626	-168.42969	-21.96909	135.88289	-115.54114	-17.90074	-43.93818	-73.2303	-58.58424	-54.51589	-85.43535	0
542	104.96343	-58.58424	-163.54767	-24.4101	133.44188	-110.65912	-13.01872	-36.61515	-68.34828	-58.58424	-52.07488	-80.55333	0
543	100.08141	-51.26121	-151.34262	-24.4101	123.67784	-100.89508	-5.69569	-31.73313	-63.46626	-53.70222	-47.19286	-75.67131	0
544	100.08141	-43.93818	-144.01959	-29.29212	121.23683	-93.57205	-0.81367	-26.85111	-61.02525	-43.93818	-42.31084	-70.78929	0
545	92.75838	-41.49717	-134.25555	-26.85111	111.47279	-86.24902	2.44101	-26.85111	-58.58424	-36.61515	-39.86983	-70.78929	0
546	85.43535	-48.8202	-134.25555	-19.52808	109.03178	-91.13104	-0.81367	-24.4101	-61.02525	-31.73313	-39.86983	-70.78929	0
547	78.11232	-53.70222	-131.81454	-12.20505	104.14976	-91.13104	-0.81367	-26.85111	-63.46626	-29.29212	-39.86983	-73.2303	0
548	78.11232	-51.26121	-129.37353	-14.64606	101.70875	-88.69003	-0.81367	-26.85111	-63.46626	-21.96909	-37.42882	-73.2303	0
549	82.99434	-48.8202	-131.81454	-17.08707	106.59077	-88.69003	-0.81367	-26.85111	-65.90727	-21.96909	-37.42882	-73.2303	0
550	90.31737	-41.49717	-131.81454	-24.4101	109.03178	-86.24902	-0.81367	-26.85111	-65.90727	-21.96909	-32.5468	-70.78929	0
551	95.19939	-39.05616	-134.25555	-29.29212	113.9138	-86.24902	-0.81367	-26.85111	-68.34828	-26.85111	-32.5468	-70.78929	0
552	102.52242	-29.29212	-131.81454	-36.61515	116.35481	-78.92599	-0.81367	-24.4101	-65.90727	-26.85111	-32.5468	-68.34828	0
553	112.28646	-21.96909	-134.25555	-46.37919	121.23683	-76.48498	2.44101	-19.52808	-65.90727	-26.85111	-30.10579	-65.90727	0
554	114.72747	-19.52808	-134.25555	-48.8202	123.67784	-76.48498	4.88202	-19.52808	-63.46626	-26.85111	-30.10579	-63.46626	0
555	114.72747	-14.64606	-129.37353	-51.26121	121.23683	-71.60296	9.76404	-17.08707	-63.46626	-24.4101	-25.22377	-58.58424	0
556	112.28646	-12.20505	-124.49151	-51.26121	116.35481	-66.72094	12.20505	-12.20505	-61.02525	-17.08707	-20.34175	-53.70222	0
557	122.0505	-2.44101	-124.49151	-61.02525	121.23683	-61.83892	14.64606	-9.76404	-58.58424	-9.76404	-15.45973	-51.26121	0
558	124.49151	0	-124.49151	-63.46626	123.67784	-61.83892	17.08707	-4.88202	-56.14323	-2.44101	-10.57771	-48.8202	0
559	117.16848	0	-117.16848	-58.58424	116.35481	-56.9569	17.08707	-4.88202	-56.14323	0	-8.1367	-46.37919	0
560	107.40444	0	-107.40444	-53.70222	106.59077	-52.07488	14.64606	-4.88202	-56.14323	0	-5.69569	-46.37919	0
561	102.52242	0	-102.52242	-51.26121	101.70875	-49.63387	12.20505	-4.88202	-58.58424	0	-3.25468	-46.37919	0
562	100.08141	-2.44101	-102.52242	-48.8202	99.26774	-52.07488	4.88202	-9.76404	-61.02525	-2.44101	-8.1367	-51.26121	0
563	95.19939	-7.32303	-102.52242	-43.93818	96.82673	-54.51589	-3.25468	-17.08707	-65.90727	-4.88202	-10.57771	-53.70222	0
564	87.87636	-14.64606	-102.52242	-36.61515	94.38572	-56.9569	-10.57771	-24.4101	-70.78929	-4.88202	-10.57771	-56.14323	0
565	85.43535	-17.08707	-102.52242	-34.17414	91.94471	-59.39791	-22.78276	-31.73313	-78.11232	-2.44101	-10.57771	-56.14323	0
566	92.75838	-14.64606	-107.40444	-39.05616	99.26774	-59.39791	-30.10579	-39.05616	-82.99434	0	-5.69569	-51.26121	0
567	92.75838	-19.52808	-112.28646	-36.61515	101.70875	-64.27993	-39.86983	-46.37919	-87.87636	0	-3.25468	-48.8202	0
568	92.75838	-24.4101	-117.16848	-34.17414	104.14976	-69.16195	-47.19286	-53.70222	-95.19939	5.69569	1.62734	-46.37919	0
569	85.43535	-26.85111	-112.28646	-29.29212	96.82673	-69.16195	-49.63387	-58.58424	-97.6404	10.57771	4.88202	-39.05616	0
570	87.87636	-31.73313	-119.60949	-29.29212	101.70875	-74.04397	-54.51589	-63.46626	-102.52242	10.57771	7.32303	-39.05616	0
571	92.75838	-34.17414	-126.93252	-29.29212	109.03178	-78.92599	-61.83892	-68.34828	-107.40444	10.57771	7.32303	-36.61515	0
572	97.6404	-29.29212	-126.93252	-34.17414	111.47279	-76.48498	-61.83892	-70.78929	-109.84545	15.45973	12.20505	-29.29212	0
573	109.84545	-17.08707	-126.93252	-46.37919	116.35481	-71.60296	-64.27993	-70.78929	-109.84545	22.78276	19.52808	-21.96909	0
574	126.93252	-2.44101	-129.37353	-63.46626	126.11885	-64.27993	-64.27993	-70.78929	-109.84545	27.66478	24.4101	-14.64606	0
575	141.57858	3.25468	-139.13757	-73.2303	140.76491	-66.72094	-66.72094	-73.2303	-109.84545	27.66478	26.85111	-12.20505	0
576	151.34262	3.25468	-148.90161	-78.11232	150.52895	-71.60296	-71.60296	-78.11232	-112.28646	27.66478	29.29212	-12.20505	0
577	163.54767	5.69569	-158.66565	-85.43535	160.29299	-76.48498	-71.60296	-78.11232	-112.28646	27.66478	29.29212	-9.76404	0
578	168.42969	3.25468	-165.98868	-85.43535	167.61602	-81.367	-71.60296	-80.55333	-117.16848	25.22377	29.29212	-14.64606	0
579	168.42969	-4.88202	-173.31171	-82.99434	170.05703	-88.69003	-76.48498	-85.43535	-119.60949	20.34175	21.96909	-21.96909	0
580	151.34262	-29.29212	-180.63474	-61.02525	165.17501	-103.33609	-81.367	-90.31737	-126.93252	17.90074	14.64606	-31.73313	0
581	139.13757	-48.8202	-187.95777	-46.37919	162.734	-117.98215	-83.80801	-95.19939	-131.81454	17.90074	7.32303	-41.49717	0
582	129.37353	-58.58424	-187.95777	-36.61515	157.85198	-122.86417	-81.367	-92.75838	-129.37353	17.90074	4.88202	-48.8202	0
583	107.40444	-73.2303	-180.63474	-17.08707	143.20592	-125.30518	-81.367	-92.75838	-129.37353	17.90074	-0.81367	-53.70222	0
584	90.31737	-87.87636	-178.19373	-2.44101	133.44188	-132.62821	-81.367	-90.31737	-126.93252	17.90074	-5.69569	-61.02525	0
585	85.43535	-90.31737	-175.75272	0	128.55986	-132.62821	-76.48498	-82.99434	-122.0505	15.45973	-5.69569	-61.02525	0
586	82.99434	-90.31737	-173.31171	3.25468	126.11885	-130.1872	-69.16195	-75.67131	-112.28646	13.01872	-8.1367	-61.02525	0
587	87.87636	-82.99434	-170.8707	-2.44101	128.55986	-125.30518	-56.9569	-65.90727	-102.52242	8.1367	-8.1367	-61.02525	0
588	90.31737	-80.55333	-170.8707	-4.88202	128.55986	-125.30518	-49.63387	-58.58424	-95.19939	0	-13.01872	-61.02525	0
589	97.6404	-75.67131	-173.31171	-12.20505	133.44188	-122.86417	-44.75185	-53.70222	-90.31737	-2.44101	-15.45973	-61.02525	0
590	107.40444	-65.90727	-173.31171	-21.96909	138.3239	-117.98215	-34.98781	-43.93818	-80.55333	-4.88202	-15.45973	-61.02525	0
591	109.84545	-65.90727	-175.75272	-21.96909	140.76491	-120.42316	-30.10579	-41.49717	-75.67131	-7.32303	-17.90074	-63.46626	0
592	100.08141	-78.11232	-178.19373	-12.20505	138.3239	-127.74619	-30.10579	-41.49717	-78.11232	-14.64606	-27.66478	-70.78929	0
593	87.87636	-90.31737	-178.19373	0	131.00087	-132.62821	-32.5468	-43.93818	-80.55333	-21.96909	-32.5468	-78.11232	0
594	80.55333	-97.6404	-178.19373	8.1367	128.55986	-137.51023	-34.98781	-46.37919	-80.55333	-24.4101	-37.42882	-80.55333	0
595	70.78929	-104.96343	-175.75272	15.45973	121.23683	-139.95124	-37.42882	-46.37919	-80.55333	-26.85111	-42.31084	-85.43535	0
596	65.90727	-114.72747	-180.63474	22.78276	121.23683	-147.27427	-42.31084	-48.8202	-82.99434	-31.73313	-47.19286	-87.87636	0
597	58.58424	-126.93252	-185.51676	32.5468	121.23683	-154.5973	-44.75185	-51.26121	-85.43535	-36.61515	-49.63387	-92.75838	0
598	58.58424	-129.37353	-187.95777	34.98781	121.23683	-157.03831	-44.75185	-48.8202	-85.43535	-36.61515	-52.07488	-92.75838	0
599	61.02525	-124.49151	-185.51676	30.10579	121.23683	-154.5973	-42.31084	-43.93818	-80.55333	-34.17414	-49.63387	-85.43535	0
600	75.67131	-114.72747	-190.39878	17.90074	131.00087	-152.15629	-37.42882	-41.49717	-78.11232	-31.73313	-47.19286	-82.99434	0
601	80.55333	-109.84545	-190.39878	13.01872	133.44188	-149.71528	-34.98781	-39.05616	-75.67131	-31.73313	-44.75185	-82.99434	0
602	78.11232	-109.84545	-187.95777	15.45973	131.00087	-147.27427	-34.98781	-36.61515	-73.2303	-31.73313	-44.75185	-80.55333	0
603	78.11232	-109.84545	-187.95777	15.45973	131.00087	-147.27427	-32.5468	-34.17414	-73.2303	-34.17414	-47.19286	-80.55333	0
604	78.11232	-109.84545	-187.95777	15.45973	131.00087	-147.27427	-32.5468	-34.17414	-73.2303	-34.17414	-47.19286	-82.99434	0
605	80.55333	-109.84545	-190.39878	13.01872	133.44188	-149.71528	-32.5468	-34.17414	-73.2303	-36.61515	-49.63387	-85.43535	0
606	85.43535	-107.40444	-192.83979	10.57771	138.3239	-149.71528	-30.10579	-34.17414	-70.78929	-36.61515	-49.63387	-85.43535	0
607	90.31737	-102.52242	-192.83979	5.69569	140.76491	-147.27427	-25.22377	-29.29212	-65.90727	-34.17414	-47.19286	-82.99434	0
608	102.52242	-92.75838	-195.2808	-4.88202	148.08794	-142.39225	-22.78276	-24.4101	-61.02525	-31.73313	-42.31084	-78.11232	0
609	102.52242	-92.75838	-195.2808	-4.88202	148.08794	-142.39225	-22.78276	-24.4101	-61.02525	-31.73313	-42.31084	-78.11232	0
610	102.52242	-95.19939	-197.72181	-4.88202	148.08794	-144.83326	-22.78276	-24.4101	-61.02525	-34.17414	-44.75185	-78.11232	0
611	97.6404	-100.08141	-197.72181	0	145.64693	-147.27427	-22.78276	-29.29212	-63.46626	-36.61515	-44.75185	-80.55333	0
612	85.43535	-109.84545	-195.2808	10.57771	138.3239	-152.15629	-27.66478	-34.17414	-68.34828	-41.49717	-49.63387	-82.99434	0
613	61.02525	-134.25555	-195.2808	34.98781	126.11885	-164.36134	-34.98781	-41.49717	-78.11232	-51.26121	-56.9569	-92.75838	0
614	31.73313	-156.22464	-187.95777	61.83892	109.03178	-171.68437	-42.31084	-51.26121	-85.43535	-61.02525	-66.72094	-97.6404	0
615	19.52808	-165.98868	-185.51676	71.60296	101.70875	-174.12538	-47.19286	-56.14323	-90.31737	-65.90727	-71.60296	-102.52242	0
616	7.32303	-175.75272	-183.07575	83.80801	94.38572	-179.0074	-47.19286	-56.14323	-90.31737	-65.90727	-74.04397	-102.52242	0
617	-3.25468	-185.51676	-183.07575	93.57205	89.5037	-183.88942	-47.19286	-56.14323	-87.87636	-68.34828	-74.04397	-102.52242	0
618	2.44101	-180.63474	-183.07575	88.69003	91.94471	-181.44841	-44.75185	-51.26121	-82.99434	-65.90727	-74.04397	-100.08141	0
619	17.08707	-163.54767	-180.63474	71.60296	96.82673	-171.68437	-37.42882	-43.93818	-75.67131	-58.58424	-69.16195	-95.19939	0
620	31.73313	-146.4606	-178.19373	56.9569	104.14976	-161.92033	-32.5468	-36.61515	-70.78929	-56.14323	-66.72094	-92.75838	0
621	34.17414	-141.57858	-175.75272	52.07488	104.14976	-157.03831	-32.5468	-36.61515	-68.34828	-58.58424	-64.27993	-92.75838	0
622	36.61515	-136.69656	-173.31171	49.63387	104.14976	-154.5973	-30.10579	-34.17414	-65.90727	-61.02525	-64.27993	-92.75838	0
623	34.17414	-136.69656	-170.8707	49.63387	101.70875	-152.15629	-30.10579	-36.61515	-65.90727	-65.90727	-66.72094	-92.75838	0
624	31.73313	-139.13757	-170.8707	52.07488	99.26774	-154.5973	-34.98781	-41.49717	-68.34828	-68.34828	-66.72094	-92.75838	0
625	19.52808	-148.90161	-168.42969	64.27993	91.94471	-157.03831	-39.86983	-46.37919	-73.2303	-70.78929	-66.72094	-92.75838	0
626	4.88202	-161.10666	-165.98868	76.48498	84.62168	-161.92033	-44.75185	-53.70222	-80.55333	-70.78929	-69.16195	-92.75838	0
627	4.88202	-165.98868	-170.8707	78.92599	87.06269	-166.80235	-44.75185	-53.70222	-80.55333	-65.90727	-66.72094	-87.87636	0
628	14.64606	-158.66565	-173.31171	71.60296	91.94471	-164.36134	-44.75185	-53.70222	-78.11232	-56.14323	-59.39791	-80.55333	0
629	31.73313	-141.57858	-173.31171	54.51589	101.70875	-157.03831	-37.42882	-46.37919	-73.2303	-46.37919	-52.07488	-70.78929	0
630	39.05616	-126.93252	-165.98868	42.31084	101.70875	-144.83326	-32.5468	-41.49717	-68.34828	-39.05616	-44.75185	-65.90727	0
631	39.05616	-122.0505	-161.10666	39.86983	99.26774	-139.95124	-27.66478	-36.61515	-63.46626	-34.17414	-42.31084	-63.46626	0
632	43.93818	-119.60949	-163.54767	37.42882	101.70875	-139.95124	-25.22377	-36.61515	-61.02525	-36.61515	-44.75185	-65.90727	0
633	46.37919	-119.60949	-165.98868	34.98781	104.14976	-142.39225	-27.66478	-36.61515	-61.02525	-43.93818	-49.63387	-75.67131	0
634	31.73313	-131.81454	-163.54767	49.63387	96.82673	-147.27427	-30.10579	-41.49717	-65.90727	-51.26121	-59.39791	-85.43535	0
635	19.52808	-146.4606	-165.98868	61.83892	91.94471	-154.5973	-34.98781	-46.37919	-70.78929	-61.02525	-66.72094	-95.19939	0
636	9.76404	-151.34262	-161.10666	69.16195	84.62168	-154.5973	-37.42882	-48.8202	-70.78929	-65.90727	-71.60296	-100.08141	0
637	9.76404	-153.78363	-163.54767	71.60296	84.62168	-157.03831	-37.42882	-48.8202	-70.78929	-68.34828	-71.60296	-102.52242	0
638	14.64606	-151.34262	-165.98868	66.72094	89.5037	-157.03831	-37.42882	-48.8202	-70.78929	-68.34828	-71.60296	-102.52242	0
639	17.08707	-144.01959	-161.10666	61.83892	87.06269	-152.15629	-30.10579	-43.93818	-65.90727	-63.46626	-66.72094	-95.19939	0
640	21.96909	-134.25555	-156.22464	54.51589	87.06269	-144.83326	-25.22377	-39.05616	-61.02525	-58.58424	-61.83892	-87.87636	0
641	26.85111	-126.93252	-153.78363	49.63387	89.5037	-139.95124	-17.90074	-34.17414	-56.14323	-58.58424	-61.83892	-85.43535	0
642	21.96909	-129.37353	-151.34262	52.07488	84.62168	-139.95124	-15.45973	-34.17414	-56.14323	-63.46626	-64.27993	-85.43535	0
643	29.29212	-126.93252	-156.22464	47.19286	91.94471	-139.95124	-5.69569	-26.85111	-53.70222	-65.90727	-66.72094	-85.43535	0
644	29.29212	-126.93252	-156.22464	47.19286	91.94471	-139.95124	2.44101	-21.96909	-48.8202	-70.78929	-71.60296	-87.87636	0
645	29.29212	-129.37353	-158.66565	49.63387	91.94471	-142.39225	12.20505	-14.64606	-46.37919	-73.2303	-74.04397	-92.75838	0
646	36.61515	-126.93252	-163.54767	44.75185	99.26774	-144.83326	19.52808	-12.20505	-46.37919	-75.67131	-78.92599	-97.6404	0
647	43.93818	-129.37353	-173.31171	42.31084	106.59077	-149.71528	26.85111	-9.76404	-46.37919	-75.67131	-83.80801	-104.96343	0
648	56.14323	-134.25555	-190.39878	37.42882	121.23683	-161.92033	24.4101	-17.08707	-53.70222	-73.2303	-88.69003	-114.72747	0
649	63.46626	-141.57858	-205.04484	37.42882	133.44188	-171.68437	17.08707	-29.29212	-65.90727	-68.34828	-91.13104	-122.0505	0
650	78.11232	-146.4606	-224.57292	32.5468	150.52895	-183.88942	2.44101	-48.8202	-85.43535	-56.14323	-93.57205	-131.81454	0
651	107.40444	-141.57858	-248.98302	15.45973	177.38006	-193.65346	-20.34175	-75.67131	-112.28646	-36.61515	-93.57205	-141.57858	0
652	144.01959	-134.25555	-278.27514	-4.88202	209.11319	-205.85851	-54.51589	-112.28646	-144.01959	-9.76404	-88.69003	-148.90161	0
653	190.39878	-117.16848	-307.56726	-36.61515	248.16935	-210.74053	-91.13104	-151.34262	-178.19373	30.10579	-74.04397	-151.34262	0
654	261.18807	-73.2303	-334.41837	-95.19939	296.98955	-203.4175	-130.1872	-187.95777	-212.36787	86.24902	-49.63387	-141.57858	0
655	336.85938	-17.08707	-353.94645	-161.10666	343.36874	-183.88942	-179.0074	-229.45494	-246.54201	157.03831	-13.01872	-124.49151	0
656	419.85372	42.31084	-378.35655	-231.89595	399.51197	-166.80235	-230.26861	-275.83413	-283.15716	237.59164	29.29212	-102.52242	0
657	507.73008	110.65912	-397.88463	-310.00827	453.21419	-142.39225	-291.29386	-324.65433	-319.77231	323.02699	78.11232	-78.11232	0
658	583.40139	176.56639	-407.64867	-380.79756	494.71136	-115.54114	-349.8781	-368.59251	-351.50544	408.46234	131.81454	-46.37919	0
659	641.98563	240.03265	-402.76665	-441.82281	521.56247	-81.367	-401.13931	-405.20766	-375.91554	484.13365	183.07575	-12.20505	0
660	661.51371	279.08881	-383.23857	-471.11493	521.56247	-52.07488	-447.5185	-434.49978	-393.00261	542.71789	227.01393	20.34175	-1250	T-0
661	649.30866	301.0579	-349.06443	-475.99695	499.59338	-22.78276	-479.25163	-451.58685	-397.88463	581.77405	263.62908	52.07488	0
662	620.01654	318.14497	-302.68524	-468.67392	460.53722	9.76404	-493.89769	-451.58685	-388.12059	598.86112	295.36221	86.24902	0
663	558.99129	327.90901	-231.89595	-444.26382	394.62995	48.8202	-489.01567	-429.61776	-356.38746	596.42011	322.21332	122.86417	0
664	471.11493	325.468	-146.4606	-397.88463	309.1946	90.31737	-459.72355	-388.12059	-307.56726	572.01001	339.30039	159.47932	0
665	361.26948	320.58598	-41.49717	-341.7414	201.79016	141.57858	-410.90335	-327.09534	-244.101	532.95385	351.50544	196.09447	0
666	241.65999	308.38093	66.72094	-275.83413	87.06269	187.95777	-352.31911	-256.30605	-170.8707	479.25163	356.38746	227.8276	0
667	141.57858	301.0579	159.47932	-222.13191	-8.95037	231.89595	-288.85285	-187.95777	-100.08141	420.66739	353.94645	252.2377	0
668	58.58424	301.0579	242.47366	-180.63474	-91.94471	273.39312	-218.06356	-114.72747	-29.29212	364.52416	349.06443	274.20679	0
669	-15.45973	296.17588	310.82194	-141.57858	-162.734	302.68524	-149.71528	-46.37919	32.5468	313.26295	339.30039	286.41184	0
670	-88.69003	281.52982	369.40618	-97.6404	-228.64127	324.65433	-83.80801	10.57771	81.367	264.44275	324.65433	291.29386	0
671	-149.71528	254.67871	403.58032	-53.70222	-277.46147	329.53635	-30.10579	52.07488	115.54114	218.06356	300.24423	283.97083	0
672	-196.09447	227.8276	423.1084	-17.08707	-309.1946	324.65433	12.20505	83.80801	139.95124	181.44841	278.27514	271.76578	0
673	-222.94558	210.74053	432.87244	5.69569	-328.72268	322.21332	56.14323	115.54114	159.47932	154.5973	256.30605	259.56073	0
674	-254.67871	196.09447	449.95951	27.66478	-353.13278	322.21332	95.19939	144.83326	181.44841	132.62821	239.21898	247.35568	0
675	-281.52982	183.88942	464.60557	47.19286	-372.66086	324.65433	124.49151	169.24336	200.97649	110.65912	222.13191	235.15063	0
676	-293.73487	171.68437	464.60557	59.39791	-379.98389	317.3313	141.57858	183.88942	213.18154	86.24902	205.04484	222.94558	0
677	-288.85285	176.56639	464.60557	54.51589	-377.54288	319.77231	151.34262	193.65346	225.38659	69.16195	192.83979	215.62255	0
678	-269.32477	188.77144	457.28254	39.86983	-362.89682	322.21332	153.78363	203.4175	235.15063	56.9569	183.07575	210.74053	0
679	-257.11972	196.09447	452.40052	30.10579	-355.57379	324.65433	151.34262	203.4175	242.47366	42.31084	173.31171	203.4175	0
680	-247.35568	203.4175	449.95951	20.34175	-348.25076	327.09534	146.4606	205.85851	244.91467	32.5468	165.98868	198.53548	0
681	-235.15063	210.74053	445.07749	10.57771	-340.92773	327.09534	141.57858	200.97649	244.91467	25.22377	156.22464	193.65346	0
682	-227.8276	218.06356	445.07749	3.25468	-336.04571	331.97736	139.13757	200.97649	247.35568	22.78276	151.34262	186.33043	0
683	-225.38659	222.94558	447.5185	0	-336.04571	334.41837	139.13757	200.97649	249.79669	20.34175	144.01959	181.44841	0
684	-220.50457	225.38659	445.07749	-2.44101	-333.6047	334.41837	139.13757	198.53548	247.35568	15.45973	134.25555	169.24336	0
685	-215.62255	225.38659	440.19547	-4.88202	-328.72268	331.97736	136.69656	193.65346	242.47366	13.01872	124.49151	157.03831	0
686	-205.85851	222.94558	427.99042	-9.76404	-316.51763	324.65433	129.37353	186.33043	235.15063	8.1367	114.72747	144.83326	0
687	-193.65346	222.94558	415.78537	-14.64606	-304.31258	319.77231	122.0505	176.56639	227.8276	5.69569	107.40444	135.06922	0
688	-188.77144	210.74053	398.6983	-12.20505	-294.54854	305.12625	109.84545	164.36134	215.62255	0	97.6404	122.86417	0
689	-176.56639	203.4175	379.17022	-14.64606	-277.46147	290.48019	100.08141	152.15629	203.4175	-4.88202	87.87636	110.65912	0
690	-174.12538	191.21245	364.52416	-9.76404	-270.13844	278.27514	90.31737	139.95124	191.21245	-9.76404	80.55333	100.89508	0
691	-166.80235	186.33043	352.31911	-9.76404	-260.3744	268.5111	80.55333	130.1872	179.0074	-12.20505	73.2303	96.01306	0
692	-149.71528	186.33043	335.23204	-19.52808	-243.28733	261.18807	70.78929	120.42316	169.24336	-14.64606	70.78929	96.01306	0
693	-132.62821	188.77144	320.58598	-29.29212	-226.20026	253.86504	65.90727	110.65912	161.92033	-17.08707	68.34828	93.57205	0
694	-120.42316	181.44841	301.0579	-31.73313	-211.5542	241.65999	53.70222	100.89508	149.71528	-19.52808	63.46626	86.24902	0
695	-115.54114	164.36134	279.08881	-24.4101	-196.90814	222.13191	41.49717	86.24902	135.06922	-26.85111	56.14323	76.48498	0
696	-115.54114	149.71528	264.44275	-17.08707	-189.58511	207.48585	26.85111	71.60296	122.86417	-31.73313	48.8202	66.72094	0
697	-115.54114	135.06922	249.79669	-9.76404	-182.26208	192.83979	17.08707	59.39791	110.65912	-34.17414	41.49717	61.83892	0
698	-120.42316	120.42316	240.03265	0	-179.82107	180.63474	9.76404	52.07488	103.33609	-34.17414	36.61515	56.9569	0
699	-122.86417	113.10013	235.15063	3.25468	-179.82107	173.31171	4.88202	47.19286	98.45407	-34.17414	34.17414	54.51589	0
700	-127.74619	115.54114	242.47366	5.69569	-184.70309	178.19373	7.32303	47.19286	98.45407	-29.29212	36.61515	56.9569	0
701	-127.74619	122.86417	249.79669	0	-189.58511	185.51676	9.76404	49.63387	98.45407	-24.4101	39.05616	59.39791	0
702	-120.42316	127.74619	247.35568	-4.88202	-184.70309	187.95777	14.64606	54.51589	100.89508	-19.52808	39.05616	64.27993	0
703	-108.21811	135.06922	242.47366	-14.64606	-174.93905	187.95777	21.96909	59.39791	103.33609	-19.52808	41.49717	66.72094	0
704	-93.57205	139.95124	232.70962	-24.4101	-162.734	185.51676	24.4101	59.39791	103.33609	-19.52808	39.05616	66.72094	0
705	-91.13104	142.39225	232.70962	-26.85111	-162.734	187.95777	29.29212	61.83892	105.7771	-19.52808	39.05616	69.16195	0
706	-100.89508	130.1872	230.26861	-14.64606	-165.17501	180.63474	29.29212	59.39791	100.89508	-26.85111	34.17414	66.72094	0
707	-108.21811	115.54114	222.94558	-4.88202	-165.17501	168.42969	24.4101	52.07488	93.57205	-36.61515	29.29212	61.83892	0
708	-113.10013	108.21811	220.50457	0	-167.61602	163.54767	26.85111	52.07488	93.57205	-41.49717	26.85111	61.83892	0
709	-117.98215	108.21811	225.38659	3.25468	-172.49804	165.98868	31.73313	54.51589	93.57205	-43.93818	26.85111	64.27993	0
710	-115.54114	110.65912	225.38659	0	-170.05703	168.42969	34.17414	59.39791	96.01306	-46.37919	29.29212	69.16195	0
711	-115.54114	117.98215	232.70962	-2.44101	-174.93905	175.75272	41.49717	64.27993	100.89508	-41.49717	31.73313	74.04397	0
712	-105.7771	125.30518	230.26861	-9.76404	-167.61602	178.19373	46.37919	69.16195	105.7771	-36.61515	31.73313	74.04397	0
713	-96.01306	137.51023	232.70962	-21.96909	-165.17501	185.51676	51.26121	74.04397	108.21811	-31.73313	34.17414	76.48498	0
714	-91.13104	142.39225	232.70962	-26.85111	-162.734	187.95777	53.70222	78.92599	110.65912	-24.4101	36.61515	76.48498	0
715	-83.80801	142.39225	225.38659	-29.29212	-155.41097	183.07575	53.70222	81.367	113.10013	-19.52808	34.17414	74.04397	0
716	-86.24902	139.95124	225.38659	-26.85111	-155.41097	183.07575	53.70222	83.80801	113.10013	-17.08707	34.17414	71.60296	0
717	-91.13104	130.1872	220.50457	-19.52808	-155.41097	175.75272	56.14323	86.24902	110.65912	-17.08707	29.29212	66.72094	0
718	-98.45407	120.42316	218.06356	-12.20505	-157.85198	168.42969	56.14323	86.24902	108.21811	-21.96909	24.4101	61.83892	0
719	-110.65912	108.21811	218.06356	0	-165.17501	163.54767	56.14323	88.69003	108.21811	-26.85111	19.52808	56.9569	0
720	-117.98215	105.7771	222.94558	5.69569	-170.05703	163.54767	61.02525	91.13104	108.21811	-31.73313	17.08707	54.51589	0
721	-117.98215	110.65912	227.8276	3.25468	-172.49804	168.42969	65.90727	96.01306	113.10013	-31.73313	19.52808	56.9569	0
722	-132.62821	105.7771	237.59164	13.01872	-184.70309	170.8707	68.34828	96.01306	115.54114	-36.61515	17.08707	52.07488	0
723	-157.03831	88.69003	244.91467	32.5468	-201.79016	165.98868	65.90727	91.13104	110.65912	-41.49717	9.76404	47.19286	0
724	-161.92033	83.80801	244.91467	37.42882	-204.23117	163.54767	65.90727	91.13104	113.10013	-46.37919	7.32303	44.75185	0
725	-161.92033	91.13104	252.2377	34.98781	-206.67218	170.8707	73.2303	96.01306	115.54114	-46.37919	7.32303	47.19286	0
726	-159.47932	98.45407	257.11972	30.10579	-209.11319	178.19373	78.11232	98.45407	120.42316	-43.93818	9.76404	49.63387	0
727	-154.5973	108.21811	262.00174	22.78276	-209.11319	185.51676	87.87636	105.7771	127.74619	-39.05616	12.20505	54.51589	0
728	-142.39225	122.86417	264.44275	8.1367	-204.23117	192.83979	97.6404	113.10013	135.06922	-34.17414	17.08707	59.39791	0
729	-120.42316	149.71528	269.32477	-14.64606	-194.46713	209.92686	109.84545	122.86417	147.27427	-26.85111	24.4101	66.72094	0
730	-113.10013	169.24336	281.52982	-29.29212	-196.90814	224.57292	122.0505	132.62821	157.03831	-17.08707	34.17414	76.48498	0
731	-120.42316	179.0074	298.61689	-29.29212	-209.11319	239.21898	129.37353	139.95124	164.36134	-12.20505	36.61515	78.92599	0
732	-120.42316	186.33043	305.93992	-34.17414	-213.99521	246.54201	134.25555	142.39225	171.68437	-12.20505	39.05616	81.367	0
733	-117.98215	196.09447	313.26295	-39.05616	-216.43622	253.86504	139.13757	147.27427	176.56639	-12.20505	39.05616	81.367	0
734	-117.98215	198.53548	315.70396	-41.49717	-216.43622	256.30605	141.57858	149.71528	179.0074	-12.20505	36.61515	81.367	0
735	-125.30518	198.53548	323.02699	-36.61515	-223.75925	261.18807	148.90161	152.15629	183.88942	-12.20505	39.05616	81.367	0
736	-127.74619	205.85851	332.79103	-39.05616	-231.08228	268.5111	153.78363	157.03831	188.77144	-12.20505	39.05616	81.367	0
737	-120.42316	213.18154	332.79103	-46.37919	-226.20026	273.39312	161.10666	161.92033	191.21245	-7.32303	39.05616	81.367	0
738	-115.54114	218.06356	332.79103	-51.26121	-223.75925	275.83413	165.98868	166.80235	196.09447	-4.88202	41.49717	81.367	0
739	-115.54114	220.50457	335.23204	-53.70222	-226.20026	278.27514	170.8707	171.68437	198.53548	0	41.49717	81.367	0
740	-127.74619	220.50457	347.43709	-46.37919	-238.40531	283.15716	173.31171	176.56639	203.4175	0	41.49717	81.367	0
741	-127.74619	230.26861	357.20113	-51.26121	-243.28733	292.9212	180.63474	181.44841	210.74053	8.1367	41.49717	81.367	0
742	-115.54114	242.47366	357.20113	-63.46626	-235.9643	300.24423	185.51676	186.33043	215.62255	13.01872	41.49717	81.367	0
743	-105.7771	254.67871	359.64214	-75.67131	-233.52329	307.56726	192.83979	193.65346	220.50457	13.01872	43.93818	78.92599	0
744	-91.13104	266.88376	357.20113	-87.87636	-223.75925	312.44928	200.16282	198.53548	225.38659	15.45973	43.93818	78.92599	0
745	-76.48498	281.52982	357.20113	-102.52242	-216.43622	319.77231	207.48585	205.85851	230.26861	17.90074	48.8202	81.367	0
746	-61.83892	293.73487	354.76012	-117.16848	-209.11319	324.65433	214.80888	210.74053	235.15063	17.90074	51.26121	86.24902	0
747	-52.07488	298.61689	349.8781	-124.49151	-201.79016	324.65433	217.24989	210.74053	235.15063	17.90074	53.70222	86.24902	0
748	-54.51589	283.97083	337.67305	-114.72747	-196.90814	310.00827	217.24989	208.29952	227.8276	13.01872	51.26121	81.367	0
749	-59.39791	274.20679	332.79103	-107.40444	-196.90814	302.68524	214.80888	205.85851	222.94558	13.01872	48.8202	81.367	0
750	-61.83892	266.88376	327.90901	-102.52242	-194.46713	297.80322	212.36787	200.97649	218.06356	13.01872	46.37919	78.92599	0
751	-69.16195	259.56073	327.90901	-95.19939	-199.34915	292.9212	212.36787	198.53548	215.62255	15.45973	46.37919	78.92599	0
752	-71.60296	252.2377	323.02699	-90.31737	-196.90814	288.03918	212.36787	198.53548	210.74053	22.78276	46.37919	78.92599	0
753	-71.60296	244.91467	315.70396	-87.87636	-194.46713	280.71615	209.92686	191.21245	205.85851	30.10579	43.93818	76.48498	0
754	-69.16195	235.15063	303.49891	-82.99434	-187.1441	268.5111	207.48585	188.77144	198.53548	32.5468	43.93818	74.04397	0
755	-64.27993	227.8276	291.29386	-82.99434	-177.38006	258.74706	205.04484	183.88942	193.65346	37.42882	41.49717	71.60296	0
756	-49.63387	227.8276	276.6478	-90.31737	-162.734	251.42403	205.04484	181.44841	188.77144	42.31084	41.49717	69.16195	0
757	-37.42882	222.94558	259.56073	-92.75838	-148.08794	241.65999	202.60383	176.56639	181.44841	42.31084	39.05616	66.72094	0
758	-39.86983	208.29952	247.35568	-85.43535	-143.20592	227.01393	195.2808	166.80235	171.68437	39.86983	34.17414	61.83892	0
759	-37.42882	200.97649	237.59164	-82.99434	-138.3239	219.6909	190.39878	159.47932	161.92033	37.42882	31.73313	59.39791	0
760	-22.78276	205.85851	227.8276	-92.75838	-126.11885	217.24989	190.39878	157.03831	157.03831	42.31084	39.05616	64.27993	0
761	-8.1367	210.74053	218.06356	-102.52242	-113.9138	214.80888	190.39878	154.5973	152.15629	47.19286	43.93818	71.60296	0
762	2.44101	205.85851	203.4175	-104.96343	-101.70875	205.04484	185.51676	147.27427	142.39225	44.75185	43.93818	71.60296	0
763	4.88202	188.77144	183.88942	-97.6404	-89.5037	187.95777	175.75272	135.06922	130.1872	42.31084	41.49717	66.72094	0
764	7.32303	169.24336	161.92033	-87.87636	-77.29865	165.98868	165.98868	122.86417	117.98215	37.42882	34.17414	59.39791	0
765	12.20505	147.27427	135.06922	-80.55333	-62.65259	141.57858	156.22464	110.65912	103.33609	30.10579	24.4101	47.19286	0
766	4.88202	110.65912	105.7771	-58.58424	-50.44754	109.84545	139.13757	96.01306	86.24902	17.90074	7.32303	27.66478	0
767	-3.25468	74.04397	76.48498	-36.61515	-40.6835	75.67131	126.93252	81.367	71.60296	5.69569	-5.69569	10.57771	0
768	-5.69569	56.9569	61.83892	-26.85111	-33.36047	58.58424	119.60949	71.60296	61.83892	3.25468	-15.45973	-2.44101	0
769	2.44101	52.07488	49.63387	-26.85111	-23.59643	51.26121	114.72747	69.16195	56.9569	3.25468	-17.90074	-2.44101	0
770	4.88202	44.75185	39.86983	-24.4101	-18.71441	43.93818	107.40444	64.27993	52.07488	3.25468	-20.34175	-7.32303	0
771	12.20505	37.42882	25.22377	-24.4101	-6.50936	31.73313	100.08141	56.9569	44.75185	5.69569	-22.78276	-12.20505	0
772	24.4101	39.86983	15.45973	-31.73313	4.06835	29.29212	95.19939	52.07488	42.31084	8.1367	-22.78276	-9.76404	0
773	39.05616	42.31084	2.44101	-41.49717	18.71441	24.4101	87.87636	44.75185	37.42882	5.69569	-22.78276	-7.32303	0
774	51.26121	34.98781	-17.08707	-43.93818	33.36047	9.76404	75.67131	34.98781	27.66478	3.25468	-25.22377	-12.20505	0
775	43.93818	13.01872	-31.73313	-29.29212	38.24249	-8.1367	63.46626	22.78276	13.01872	-4.88202	-32.5468	-17.08707	0
776	36.61515	-12.20505	-48.8202	-12.20505	40.6835	-30.10579	48.8202	8.1367	-1.62734	-14.64606	-44.75185	-26.85111	0
777	36.61515	-29.29212	-65.90727	-4.88202	50.44754	-47.19286	39.05616	-2.44101	-13.83239	-19.52808	-52.07488	-31.73313	0
778	39.05616	-43.93818	-82.99434	0	60.21158	-61.83892	31.73313	-7.32303	-21.96909	-21.96909	-56.9569	-36.61515	0
779	43.93818	-53.70222	-97.6404	3.25468	69.97562	-74.04397	21.96909	-14.64606	-31.73313	-26.85111	-61.83892	-43.93818	0
780	34.17414	-65.90727	-100.08141	15.45973	65.0936	-81.367	19.52808	-19.52808	-34.17414	-24.4101	-64.27993	-43.93818	0
781	29.29212	-78.11232	-107.40444	22.78276	67.53461	-91.13104	9.76404	-26.85111	-43.93818	-29.29212	-69.16195	-51.26121	0
782	26.85111	-85.43535	-112.28646	27.66478	67.53461	-98.45407	2.44101	-31.73313	-48.8202	-29.29212	-71.60296	-53.70222	0
783	24.4101	-90.31737	-114.72747	32.5468	67.53461	-100.89508	-0.81367	-36.61515	-53.70222	-31.73313	-74.04397	-56.14323	0
784	19.52808	-100.08141	-119.60949	39.86983	67.53461	-108.21811	-8.1367	-39.05616	-58.58424	-36.61515	-76.48498	-58.58424	0
785	17.08707	-104.96343	-122.0505	42.31084	67.53461	-113.10013	-13.01872	-41.49717	-61.02525	-41.49717	-78.92599	-58.58424	0
786	26.85111	-104.96343	-131.81454	37.42882	77.29865	-117.98215	-15.45973	-43.93818	-61.02525	-43.93818	-78.92599	-58.58424	0
787	31.73313	-107.40444	-139.13757	37.42882	84.62168	-122.86417	-20.34175	-43.93818	-63.46626	-43.93818	-81.367	-58.58424	0
788	29.29212	-112.28646	-141.57858	39.86983	84.62168	-125.30518	-22.78276	-43.93818	-65.90727	-46.37919	-83.80801	-61.02525	0
789	29.29212	-117.16848	-146.4606	42.31084	87.06269	-130.1872	-27.66478	-46.37919	-68.34828	-46.37919	-86.24902	-61.02525	0
790	34.17414	-114.72747	-148.90161	39.86983	89.5037	-130.1872	-27.66478	-46.37919	-68.34828	-46.37919	-86.24902	-61.02525	0
791	41.49717	-109.84545	-151.34262	32.5468	94.38572	-130.1872	-27.66478	-41.49717	-68.34828	-43.93818	-81.367	-58.58424	0
792	36.61515	-112.28646	-148.90161	37.42882	91.94471	-130.1872	-27.66478	-41.49717	-68.34828	-43.93818	-81.367	-56.14323	0
793	19.52808	-124.49151	-144.01959	52.07488	79.73966	-132.62821	-32.5468	-48.8202	-75.67131	-48.8202	-86.24902	-58.58424	0
794	19.52808	-129.37353	-148.90161	54.51589	82.18067	-137.51023	-32.5468	-48.8202	-78.11232	-56.14323	-86.24902	-61.02525	0
795	29.29212	-122.0505	-151.34262	44.75185	89.5037	-135.06922	-32.5468	-48.8202	-78.11232	-58.58424	-86.24902	-56.14323	0
796	34.17414	-126.93252	-161.10666	44.75185	96.82673	-142.39225	-34.98781	-53.70222	-82.99434	-63.46626	-88.69003	-58.58424	0
797	29.29212	-136.69656	-165.98868	52.07488	96.82673	-149.71528	-37.42882	-56.14323	-87.87636	-68.34828	-91.13104	-61.02525	0
798	17.08707	-153.78363	-170.8707	66.72094	91.94471	-161.92033	-42.31084	-61.02525	-95.19939	-75.67131	-96.01306	-68.34828	0
799	12.20505	-168.42969	-180.63474	76.48498	94.38572	-174.12538	-47.19286	-65.90727	-100.08141	-80.55333	-100.89508	-75.67131	0
800	12.20505	-168.42969	-180.63474	76.48498	94.38572	-174.12538	-49.63387	-68.34828	-100.08141	-80.55333	-105.7771	-80.55333	0
801	7.32303	-168.42969	-175.75272	78.92599	89.5037	-171.68437	-47.19286	-68.34828	-100.08141	-75.67131	-105.7771	-80.55333	0
802	7.32303	-165.98868	-173.31171	78.92599	89.5037	-169.24336	-44.75185	-65.90727	-100.08141	-70.78929	-103.33609	-80.55333	0
803	7.32303	-161.10666	-168.42969	76.48498	87.06269	-164.36134	-42.31084	-63.46626	-97.6404	-65.90727	-100.89508	-78.11232	0
804	7.32303	-153.78363	-161.10666	71.60296	82.18067	-157.03831	-42.31084	-63.46626	-95.19939	-63.46626	-98.45407	-73.2303	0
805	9.76404	-151.34262	-161.10666	69.16195	84.62168	-154.5973	-39.86983	-63.46626	-95.19939	-58.58424	-96.01306	-70.78929	0
806	9.76404	-148.90161	-158.66565	69.16195	82.18067	-152.15629	-39.86983	-63.46626	-95.19939	-58.58424	-96.01306	-65.90727	0
807	9.76404	-151.34262	-161.10666	69.16195	84.62168	-154.5973	-39.86983	-63.46626	-95.19939	-61.02525	-98.45407	-65.90727	0
808	9.76404	-153.78363	-163.54767	71.60296	84.62168	-157.03831	-42.31084	-63.46626	-95.19939	-63.46626	-100.89508	-65.90727	0
809	2.44101	-158.66565	-161.10666	76.48498	79.73966	-159.47932	-42.31084	-63.46626	-97.6404	-65.90727	-103.33609	-68.34828	0
810	2.44101	-158.66565	-161.10666	76.48498	79.73966	-159.47932	-42.31084	-65.90727	-97.6404	-68.34828	-105.7771	-68.34828	0
811	0	-161.10666	-161.10666	78.92599	79.73966	-159.47932	-39.86983	-63.46626	-95.19939	-68.34828	-105.7771	-70.78929	0
812	2.44101	-158.66565	-161.10666	76.48498	79.73966	-159.47932	-34.98781	-61.02525	-90.31737	-68.34828	-105.7771	-70.78929	0
813	0	-158.66565	-158.66565	78.92599	77.29865	-157.03831	-34.98781	-61.02525	-90.31737	-68.34828	-105.7771	-70.78929	0
814	7.32303	-153.78363	-161.10666	71.60296	82.18067	-157.03831	-34.98781	-61.02525	-90.31737	-68.34828	-105.7771	-70.78929	0
815	14.64606	-146.4606	-161.10666	64.27993	87.06269	-152.15629	-34.98781	-58.58424	-85.43535	-68.34828	-103.33609	-70.78929	0
816	24.4101	-136.69656	-161.10666	54.51589	91.94471	-147.27427	-32.5468	-56.14323	-85.43535	-68.34828	-103.33609	-70.78929	0
817	26.85111	-136.69656	-163.54767	54.51589	94.38572	-149.71528	-32.5468	-58.58424	-85.43535	-68.34828	-103.33609	-73.2303	0
818	36.61515	-129.37353	-165.98868	44.75185	99.26774	-147.27427	-30.10579	-56.14323	-85.43535	-68.34828	-103.33609	-73.2303	0
819	53.70222	-112.28646	-165.98868	27.66478	109.03178	-137.51023	-25.22377	-53.70222	-80.55333	-63.46626	-96.01306	-68.34828	0
820	61.02525	-104.96343	-165.98868	20.34175	111.47279	-135.06922	-25.22377	-53.70222	-78.11232	-61.02525	-93.57205	-68.34828	0
821	39.05616	-119.60949	-158.66565	39.86983	96.82673	-137.51023	-27.66478	-56.14323	-80.55333	-65.90727	-98.45407	-68.34828	0
822	29.29212	-126.93252	-156.22464	47.19286	91.94471	-139.95124	-27.66478	-58.58424	-80.55333	-65.90727	-98.45407	-68.34828	0
823	29.29212	-122.0505	-151.34262	44.75185	89.5037	-135.06922	-30.10579	-58.58424	-78.11232	-61.02525	-96.01306	-65.90727	0
824	34.17414	-112.28646	-146.4606	37.42882	89.5037	-127.74619	-27.66478	-56.14323	-75.67131	-56.14323	-91.13104	-61.02525	0
825	31.73313	-114.72747	-146.4606	39.86983	87.06269	-130.1872	-30.10579	-58.58424	-78.11232	-56.14323	-91.13104	-61.02525	0
826	21.96909	-124.49151	-146.4606	49.63387	82.18067	-135.06922	-32.5468	-63.46626	-82.99434	-58.58424	-93.57205	-61.02525	0
827	21.96909	-126.93252	-148.90161	52.07488	84.62168	-137.51023	-34.98781	-65.90727	-82.99434	-58.58424	-93.57205	-58.58424	0
828	26.85111	-122.0505	-148.90161	47.19286	87.06269	-135.06922	-34.98781	-65.90727	-85.43535	-58.58424	-91.13104	-56.14323	0
829	19.52808	-131.81454	-151.34262	54.51589	84.62168	-139.95124	-37.42882	-68.34828	-87.87636	-61.02525	-91.13104	-56.14323	0
830	7.32303	-144.01959	-151.34262	66.72094	77.29865	-147.27427	-42.31084	-73.2303	-92.75838	-65.90727	-96.01306	-63.46626	0
831	7.32303	-144.01959	-151.34262	66.72094	77.29865	-147.27427	-42.31084	-75.67131	-95.19939	-68.34828	-98.45407	-63.46626	0
832	7.32303	-139.13757	-146.4606	64.27993	74.85764	-142.39225	-39.86983	-68.34828	-87.87636	-68.34828	-93.57205	-63.46626	0
833	14.64606	-126.93252	-141.57858	54.51589	77.29865	-132.62821	-32.5468	-61.02525	-80.55333	-68.34828	-91.13104	-61.02525	0
834	29.29212	-109.84545	-139.13757	39.86983	82.18067	-122.86417	-25.22377	-51.26121	-73.2303	-65.90727	-86.24902	-58.58424	0
835	46.37919	-95.19939	-141.57858	22.78276	91.94471	-117.98215	-17.90074	-43.93818	-65.90727	-65.90727	-83.80801	-58.58424	0
836	56.14323	-85.43535	-141.57858	13.01872	96.82673	-113.10013	-13.01872	-39.05616	-61.02525	-63.46626	-83.80801	-61.02525	0
837	58.58424	-75.67131	-134.25555	8.1367	94.38572	-103.33609	-3.25468	-31.73313	-53.70222	-63.46626	-81.367	-61.02525	0
838	53.70222	-70.78929	-124.49151	8.1367	87.06269	-96.01306	2.44101	-24.4101	-46.37919	-61.02525	-78.92599	-58.58424	0
839	58.58424	-63.46626	-122.0505	0	89.5037	-91.13104	7.32303	-21.96909	-41.49717	-56.14323	-78.92599	-58.58424	0
840	56.14323	-56.14323	-112.28646	0	82.18067	-83.80801	14.64606	-17.08707	-36.61515	-48.8202	-74.04397	-56.14323	0
841	53.70222	-48.8202	-102.52242	-2.44101	77.29865	-74.04397	19.52808	-12.20505	-31.73313	-43.93818	-71.60296	-51.26121	0
842	48.8202	-41.49717	-90.31737	-4.88202	67.53461	-64.27993	24.4101	-9.76404	-29.29212	-36.61515	-66.72094	-46.37919	0
843	56.14323	-34.17414	-90.31737	-12.20505	72.41663	-61.83892	26.85111	-7.32303	-26.85111	-31.73313	-59.39791	-41.49717	0
844	63.46626	-34.17414	-97.6404	-14.64606	79.73966	-64.27993	24.4101	-12.20505	-29.29212	-29.29212	-59.39791	-41.49717	0
845	56.14323	-43.93818	-100.08141	-7.32303	77.29865	-71.60296	19.52808	-17.08707	-34.17414	-31.73313	-59.39791	-43.93818	0
846	48.8202	-53.70222	-102.52242	0	74.85764	-76.48498	17.08707	-21.96909	-39.05616	-31.73313	-61.83892	-46.37919	0
847	48.8202	-61.02525	-109.84545	5.69569	77.29865	-83.80801	12.20505	-26.85111	-43.93818	-34.17414	-61.83892	-46.37919	0
848	53.70222	-58.58424	-112.28646	0	82.18067	-83.80801	12.20505	-26.85111	-43.93818	-31.73313	-59.39791	-46.37919	0
849	46.37919	-63.46626	-109.84545	8.1367	77.29865	-86.24902	14.64606	-26.85111	-43.93818	-31.73313	-59.39791	-46.37919	0
850	41.49717	-63.46626	-104.96343	10.57771	72.41663	-83.80801	19.52808	-24.4101	-41.49717	-29.29212	-56.9569	-43.93818	0
851	43.93818	-58.58424	-102.52242	5.69569	72.41663	-78.92599	24.4101	-19.52808	-39.05616	-26.85111	-52.07488	-41.49717	0
852	46.37919	-51.26121	-97.6404	0	69.97562	-74.04397	26.85111	-17.08707	-36.61515	-26.85111	-49.63387	-36.61515	0
853	53.70222	-36.61515	-90.31737	-9.76404	69.97562	-61.83892	31.73313	-12.20505	-29.29212	-21.96909	-42.31084	-31.73313	0
854	58.58424	-26.85111	-85.43535	-17.08707	69.97562	-54.51589	31.73313	-9.76404	-26.85111	-19.52808	-37.42882	-24.4101	0
855	70.78929	-14.64606	-85.43535	-29.29212	77.29865	-49.63387	31.73313	-4.88202	-21.96909	-14.64606	-32.5468	-19.52808	0
856	82.99434	0	-82.99434	-41.49717	82.18067	-39.86983	34.17414	-2.44101	-19.52808	-9.76404	-25.22377	-9.76404	0
857	90.31737	15.45973	-75.67131	-53.70222	82.18067	-30.10579	34.17414	3.25468	-8.95037	-2.44101	-17.90074	-2.44101	0
858	104.96343	30.10579	-75.67131	-68.34828	89.5037	-22.78276	31.73313	5.69569	-4.06835	0	-10.57771	5.69569	0
859	104.96343	30.10579	-75.67131	-68.34828	89.5037	-22.78276	24.4101	3.25468	-1.62734	3.25468	-8.1367	8.1367	0
860	95.19939	17.90074	-78.11232	-56.14323	87.06269	-30.10579	12.20505	-4.88202	-8.95037	0	-10.57771	5.69569	0
861	87.87636	8.1367	-80.55333	-48.8202	84.62168	-34.98781	-3.25468	-14.64606	-16.2734	-2.44101	-15.45973	0.81367	0
862	87.87636	5.69569	-82.99434	-46.37919	84.62168	-37.42882	-15.45973	-24.4101	-19.52808	0	-15.45973	-2.44101	0
863	90.31737	8.1367	-82.99434	-48.8202	87.06269	-37.42882	-22.78276	-29.29212	-19.52808	3.25468	-15.45973	-2.44101	0
864	87.87636	3.25468	-85.43535	-46.37919	87.06269	-39.86983	-30.10579	-34.17414	-24.4101	5.69569	-15.45973	-4.88202	0
865	87.87636	0	-87.87636	-43.93818	87.06269	-42.31084	-34.98781	-39.05616	-26.85111	5.69569	-17.90074	-9.76404	0
866	90.31737	0	-90.31737	-46.37919	89.5037	-44.75185	-34.98781	-39.05616	-26.85111	8.1367	-15.45973	-9.76404	0
867	92.75838	3.25468	-90.31737	-48.8202	91.94471	-42.31084	-34.98781	-41.49717	-26.85111	10.57771	-13.01872	-4.88202	0
868	85.43535	-4.88202	-90.31737	-41.49717	87.06269	-47.19286	-39.86983	-46.37919	-29.29212	8.1367	-13.01872	-4.88202	0
869	73.2303	-21.96909	-95.19939	-26.85111	82.18067	-56.9569	-52.07488	-58.58424	-39.05616	-2.44101	-20.34175	-9.76404	0
870	68.34828	-41.49717	-109.84545	-14.64606	87.06269	-74.04397	-64.27993	-70.78929	-51.26121	-14.64606	-30.10579	-19.52808	0
871	63.46626	-51.26121	-114.72747	-7.32303	87.06269	-81.367	-74.04397	-80.55333	-61.02525	-21.96909	-34.98781	-21.96909	0
872	65.90727	-61.02525	-126.93252	-2.44101	94.38572	-93.57205	-81.367	-87.87636	-68.34828	-26.85111	-37.42882	-21.96909	0
873	63.46626	-73.2303	-136.69656	3.25468	99.26774	-103.33609	-91.13104	-97.6404	-78.11232	-31.73313	-42.31084	-26.85111	0
874	61.02525	-87.87636	-148.90161	13.01872	104.14976	-117.98215	-100.89508	-107.40444	-87.87636	-31.73313	-47.19286	-34.17414	0
875	68.34828	-92.75838	-161.10666	10.57771	113.9138	-125.30518	-105.7771	-107.40444	-92.75838	-26.85111	-49.63387	-34.17414	0
876	73.2303	-92.75838	-165.98868	8.1367	118.79582	-127.74619	-103.33609	-107.40444	-95.19939	-19.52808	-49.63387	-36.61515	0
877	78.11232	-85.43535	-163.54767	3.25468	118.79582	-122.86417	-96.01306	-97.6404	-85.43535	-7.32303	-42.31084	-29.29212	0
878	87.87636	-75.67131	-163.54767	-7.32303	123.67784	-117.98215	-86.24902	-90.31737	-78.11232	-2.44101	-39.86983	-29.29212	0
879	95.19939	-65.90727	-161.10666	-14.64606	126.11885	-113.10013	-76.48498	-78.11232	-68.34828	0	-37.42882	-29.29212	0
880	107.40444	-51.26121	-158.66565	-29.29212	131.00087	-103.33609	-66.72094	-68.34828	-58.58424	0	-37.42882	-29.29212	0
881	107.40444	-41.49717	-148.90161	-34.17414	126.11885	-93.57205	-56.9569	-58.58424	-48.8202	0	-34.98781	-26.85111	0
882	87.87636	-48.8202	-136.69656	-19.52808	111.47279	-91.13104	-52.07488	-53.70222	-41.49717	-4.88202	-39.86983	-29.29212	0
883	65.90727	-68.34828	-134.25555	0	99.26774	-100.89508	-52.07488	-53.70222	-41.49717	-17.08707	-47.19286	-36.61515	0
884	51.26121	-87.87636	-139.13757	17.90074	94.38572	-113.10013	-56.9569	-56.14323	-46.37919	-26.85111	-56.9569	-43.93818	0
885	34.17414	-112.28646	-146.4606	37.42882	89.5037	-127.74619	-61.83892	-63.46626	-53.70222	-41.49717	-69.16195	-53.70222	0
886	7.32303	-139.13757	-146.4606	64.27993	74.85764	-142.39225	-69.16195	-68.34828	-58.58424	-53.70222	-76.48498	-61.02525	0
887	-15.45973	-165.98868	-151.34262	88.69003	67.53461	-159.47932	-71.60296	-70.78929	-63.46626	-63.46626	-83.80801	-65.90727	0
888	-27.66478	-185.51676	-158.66565	105.7771	65.0936	-171.68437	-71.60296	-70.78929	-65.90727	-73.2303	-91.13104	-73.2303	0
889	-22.78276	-187.95777	-165.98868	103.33609	69.97562	-176.56639	-71.60296	-70.78929	-65.90727	-78.11232	-93.57205	-73.2303	0
890	-10.57771	-185.51676	-175.75272	96.01306	82.18067	-181.44841	-69.16195	-68.34828	-63.46626	-78.11232	-93.57205	-75.67131	0
891	-13.01872	-187.95777	-175.75272	98.45407	79.73966	-181.44841	-69.16195	-65.90727	-63.46626	-80.55333	-96.01306	-75.67131	0
892	-3.25468	-180.63474	-178.19373	91.13104	87.06269	-179.0074	-66.72094	-63.46626	-61.02525	-80.55333	-96.01306	-75.67131	0
893	12.20505	-163.54767	-175.75272	74.04397	91.94471	-169.24336	-59.39791	-53.70222	-53.70222	-75.67131	-91.13104	-68.34828	0
894	34.17414	-141.57858	-175.75272	52.07488	104.14976	-157.03831	-49.63387	-43.93818	-46.37919	-68.34828	-83.80801	-63.46626	0
895	46.37919	-129.37353	-175.75272	39.86983	109.03178	-152.15629	-47.19286	-41.49717	-43.93818	-68.34828	-81.367	-61.02525	0
896	46.37919	-134.25555	-180.63474	42.31084	111.47279	-157.03831	-47.19286	-41.49717	-46.37919	-73.2303	-86.24902	-65.90727	0
897	43.93818	-136.69656	-180.63474	44.75185	111.47279	-157.03831	-47.19286	-41.49717	-46.37919	-75.67131	-88.69003	-68.34828	0
898	41.49717	-136.69656	-178.19373	47.19286	109.03178	-157.03831	-42.31084	-36.61515	-43.93818	-75.67131	-88.69003	-68.34828	0
899	34.17414	-146.4606	-180.63474	54.51589	106.59077	-161.92033	-44.75185	-39.05616	-46.37919	-78.11232	-91.13104	-73.2303	0
900	24.4101	-163.54767	-187.95777	69.16195	104.14976	-174.12538	-49.63387	-48.8202	-53.70222	-85.43535	-100.89508	-82.99434	0
901	24.4101	-163.54767	-187.95777	69.16195	104.14976	-174.12538	-49.63387	-48.8202	-53.70222	-85.43535	-103.33609	-85.43535	0
902	24.4101	-151.34262	-175.75272	61.83892	99.26774	-161.92033	-42.31084	-36.61515	-46.37919	-75.67131	-96.01306	-80.55333	0
903	19.52808	-146.4606	-165.98868	61.83892	91.94471	-154.5973	-37.42882	-34.17414	-43.93818	-75.67131	-93.57205	-75.67131	0
904	24.4101	-141.57858	-165.98868	56.9569	94.38572	-152.15629	-34.98781	-29.29212	-41.49717	-73.2303	-88.69003	-70.78929	0
905	34.17414	-129.37353	-163.54767	47.19286	96.82673	-144.83326	-30.10579	-24.4101	-41.49717	-70.78929	-86.24902	-65.90727	0
906	41.49717	-117.16848	-158.66565	37.42882	99.26774	-137.51023	-25.22377	-17.08707	-36.61515	-65.90727	-81.367	-58.58424	0
907	43.93818	-114.72747	-158.66565	34.98781	99.26774	-135.06922	-22.78276	-14.64606	-34.17414	-63.46626	-78.92599	-53.70222	0
908	39.05616	-126.93252	-165.98868	42.31084	101.70875	-144.83326	-27.66478	-19.52808	-41.49717	-70.78929	-81.367	-56.14323	0
909	34.17414	-139.13757	-173.31171	52.07488	101.70875	-154.5973	-34.98781	-24.4101	-46.37919	-78.11232	-88.69003	-61.02525	0
910	24.4101	-148.90161	-173.31171	61.83892	96.82673	-159.47932	-37.42882	-26.85111	-51.26121	-82.99434	-91.13104	-65.90727	0
911	7.32303	-170.8707	-178.19373	81.367	91.94471	-174.12538	-47.19286	-34.17414	-58.58424	-92.75838	-100.89508	-78.11232	0
912	-15.45973	-195.2808	-180.63474	103.33609	82.18067	-188.77144	-54.51589	-41.49717	-65.90727	-97.6404	-108.21811	-87.87636	0
913	-34.98781	-209.92686	-175.75272	120.42316	69.97562	-193.65346	-59.39791	-43.93818	-70.78929	-102.52242	-115.54114	-95.19939	0
914	-34.98781	-205.04484	-170.8707	117.98215	67.53461	-188.77144	-56.9569	-41.49717	-65.90727	-97.6404	-115.54114	-97.6404	0
915	-20.34175	-190.39878	-170.8707	103.33609	74.85764	-181.44841	-49.63387	-34.17414	-61.02525	-92.75838	-113.10013	-97.6404	0
916	-10.57771	-178.19373	-168.42969	93.57205	77.29865	-174.12538	-44.75185	-26.85111	-56.14323	-82.99434	-108.21811	-95.19939	0
917	-8.1367	-170.8707	-163.54767	88.69003	77.29865	-166.80235	-42.31084	-24.4101	-53.70222	-78.11232	-105.7771	-92.75838	0
918	2.44101	-156.22464	-158.66565	76.48498	79.73966	-157.03831	-34.98781	-17.08707	-48.8202	-68.34828	-98.45407	-85.43535	0
919	17.08707	-141.57858	-158.66565	61.83892	87.06269	-149.71528	-30.10579	-9.76404	-41.49717	-63.46626	-93.57205	-80.55333	0
920	24.4101	-136.69656	-161.10666	54.51589	91.94471	-147.27427	-27.66478	-9.76404	-41.49717	-61.02525	-91.13104	-78.11232	0
921	12.20505	-146.4606	-158.66565	66.72094	84.62168	-152.15629	-30.10579	-12.20505	-43.93818	-65.90727	-91.13104	-75.67131	0
922	7.32303	-156.22464	-163.54767	74.04397	84.62168	-159.47932	-34.98781	-17.08707	-48.8202	-70.78929	-93.57205	-78.11232	0
923	4.88202	-158.66565	-163.54767	76.48498	82.18067	-159.47932	-34.98781	-19.52808	-51.26121	-73.2303	-93.57205	-75.67131	0
924	9.76404	-153.78363	-163.54767	71.60296	84.62168	-157.03831	-30.10579	-14.64606	-46.37919	-70.78929	-91.13104	-70.78929	0
925	9.76404	-153.78363	-163.54767	71.60296	84.62168	-157.03831	-30.10579	-17.08707	-48.8202	-70.78929	-91.13104	-68.34828	0
926	2.44101	-156.22464	-158.66565	76.48498	79.73966	-157.03831	-32.5468	-17.08707	-51.26121	-73.2303	-88.69003	-68.34828	0
927	2.44101	-156.22464	-158.66565	76.48498	79.73966	-157.03831	-32.5468	-17.08707	-53.70222	-73.2303	-88.69003	-68.34828	0
928	-3.25468	-156.22464	-153.78363	78.92599	74.85764	-154.5973	-32.5468	-17.08707	-53.70222	-73.2303	-88.69003	-68.34828	0
929	-10.57771	-161.10666	-151.34262	83.80801	69.97562	-157.03831	-32.5468	-17.08707	-53.70222	-73.2303	-91.13104	-70.78929	0
930	-15.45973	-163.54767	-148.90161	88.69003	65.0936	-157.03831	-32.5468	-17.08707	-53.70222	-75.67131	-91.13104	-75.67131	0
931	-20.34175	-165.98868	-146.4606	91.13104	62.65259	-157.03831	-32.5468	-17.08707	-53.70222	-78.11232	-96.01306	-78.11232	0
932	-22.78276	-161.10666	-139.13757	91.13104	57.77057	-149.71528	-25.22377	-9.76404	-48.8202	-78.11232	-96.01306	-78.11232	0
933	-15.45973	-153.78363	-139.13757	83.80801	60.21158	-147.27427	-15.45973	-4.88202	-43.93818	-75.67131	-91.13104	-75.67131	0
934	-13.01872	-151.34262	-139.13757	81.367	62.65259	-144.83326	-10.57771	-2.44101	-39.05616	-75.67131	-91.13104	-75.67131	0
935	-3.25468	-141.57858	-139.13757	71.60296	67.53461	-139.95124	-3.25468	0.81367	-36.61515	-75.67131	-88.69003	-73.2303	0
936	9.76404	-124.49151	-134.25555	56.9569	69.97562	-127.74619	7.32303	10.57771	-31.73313	-68.34828	-81.367	-65.90727	0
937	19.52808	-119.60949	-139.13757	49.63387	77.29865	-127.74619	9.76404	13.01872	-31.73313	-70.78929	-81.367	-63.46626	0
938	24.4101	-119.60949	-144.01959	47.19286	82.18067	-130.1872	12.20505	10.57771	-34.17414	-75.67131	-86.24902	-68.34828	0
939	21.96909	-131.81454	-153.78363	54.51589	87.06269	-142.39225	14.64606	10.57771	-39.05616	-82.99434	-91.13104	-73.2303	0
940	7.32303	-148.90161	-156.22464	69.16195	79.73966	-152.15629	19.52808	10.57771	-41.49717	-90.31737	-98.45407	-78.11232	0
941	-3.25468	-156.22464	-153.78363	78.92599	74.85764	-154.5973	26.85111	13.01872	-41.49717	-92.75838	-100.89508	-82.99434	0
942	-3.25468	-161.10666	-158.66565	81.367	77.29865	-159.47932	31.73313	15.45973	-41.49717	-92.75838	-105.7771	-87.87636	0
943	0	-163.54767	-163.54767	81.367	79.73966	-161.92033	36.61515	15.45973	-41.49717	-92.75838	-110.65912	-95.19939	0
944	14.64606	-161.10666	-175.75272	71.60296	94.38572	-166.80235	36.61515	15.45973	-43.93818	-85.43535	-113.10013	-100.08141	0
945	36.61515	-153.78363	-190.39878	56.9569	111.47279	-171.68437	36.61515	10.57771	-51.26121	-75.67131	-113.10013	-102.52242	0
946	75.67131	-139.13757	-214.80888	30.10579	143.20592	-176.56639	29.29212	0.81367	-61.02525	-61.02525	-113.10013	-109.84545	0
947	129.37353	-114.72747	-244.101	-7.32303	184.70309	-179.0074	12.20505	-14.64606	-78.11232	-36.61515	-108.21811	-114.72747	0
948	183.07575	-92.75838	-275.83413	-46.37919	228.64127	-183.88942	-13.01872	-43.93818	-104.96343	-7.32303	-98.45407	-117.16848	0
949	229.45494	-73.2303	-302.68524	-78.11232	265.25642	-186.33043	-49.63387	-80.55333	-141.57858	27.66478	-86.24902	-117.16848	0
950	278.27514	-48.8202	-327.09534	-114.72747	301.87157	-186.33043	-93.57205	-122.0505	-180.63474	76.48498	-66.72094	-114.72747	0
951	346.62342	-12.20505	-358.82847	-168.42969	350.69177	-183.88942	-144.83326	-170.8707	-222.13191	137.51023	-37.42882	-107.40444	0
952	414.9717	34.98781	-380.79756	-224.57292	397.07096	-171.68437	-203.4175	-222.13191	-263.62908	210.74053	-0.81367	-90.31737	0
953	478.43796	83.80801	-395.44362	-280.71615	436.12712	-154.5973	-269.32477	-275.83413	-307.56726	291.29386	43.93818	-65.90727	0
954	539.46321	137.51023	-402.76665	-339.30039	470.30126	-132.62821	-332.79103	-324.65433	-344.18241	374.2882	92.75838	-36.61515	0
955	600.48846	198.53548	-402.76665	-400.32564	502.03439	-100.89508	-386.49325	-361.26948	-368.59251	454.84153	144.01959	-2.44101	0
956	641.98563	254.67871	-388.12059	-449.14584	514.23944	-66.72094	-425.54941	-385.67958	-383.23857	525.63082	195.2808	34.98781	0
957	654.19068	291.29386	-363.71049	-473.55594	509.35742	-34.98781	-457.28254	-400.32564	-385.67958	572.01001	236.77797	69.16195	0
958	612.69351	305.93992	-307.56726	-458.90988	460.53722	-0.81367	-471.9286	-395.44362	-373.47453	598.86112	273.39312	103.33609	0
959	546.78624	305.93992	-241.65999	-427.17675	394.62995	34.17414	-469.48759	-378.35655	-346.62342	596.42011	297.80322	135.06922	0
960	451.58685	293.73487	-158.66565	-373.47453	304.31258	68.34828	-452.40052	-344.18241	-307.56726	567.12799	310.00827	164.36134	0
961	334.41837	276.6478	-58.58424	-305.12625	196.90814	109.84545	-410.90335	-290.48019	-248.98302	518.30779	317.3313	193.65346	0
962	214.80888	264.44275	49.63387	-239.21898	82.18067	158.66565	-352.31911	-219.6909	-178.19373	462.16456	319.77231	222.94558	0
963	109.84545	266.88376	157.03831	-187.95777	-23.59643	212.36787	-281.52982	-141.57858	-100.08141	408.46234	322.21332	252.2377	0
964	21.96909	274.20679	252.2377	-148.90161	-116.35481	263.62908	-208.29952	-63.46626	-21.96909	359.64214	324.65433	276.6478	0
965	-44.75185	276.6478	320.58598	-117.16848	-182.26208	297.80322	-137.51023	3.25468	39.86983	310.82194	317.3313	291.29386	0
966	-98.45407	276.6478	374.2882	-90.31737	-235.9643	324.65433	-69.16195	66.72094	98.45407	269.32477	307.56726	301.0579	0
967	-135.06922	283.97083	418.22638	-75.67131	-277.46147	351.50544	-5.69569	125.30518	144.83326	237.59164	297.80322	305.93992	0
968	-157.03831	281.52982	437.75446	-63.46626	-296.98955	358.82847	43.93818	166.80235	179.0074	210.74053	285.59817	301.0579	0
969	-196.09447	257.11972	452.40052	-31.73313	-323.84066	353.94645	82.99434	196.09447	198.53548	181.44841	266.07009	291.29386	0
970	-237.59164	222.94558	459.72355	5.69569	-348.25076	341.7414	112.28646	218.06356	210.74053	147.27427	241.65999	276.6478	0
971	-269.32477	196.09447	464.60557	34.98781	-367.77884	329.53635	136.69656	235.15063	222.94558	117.98215	219.6909	264.44275	0
972	-296.17588	176.56639	471.9286	59.39791	-384.86591	324.65433	153.78363	249.79669	232.70962	91.13104	202.60383	252.2377	0
973	-308.38093	164.36134	471.9286	71.60296	-389.74793	317.3313	163.54767	259.56073	240.03265	69.16195	185.51676	240.03265	0
