samplenr	I	II	III	aVR	aVL	aVF	V1	V2	V3	V4	V5	V6	measurement
0	-25.22377	-36.61515	-11.39138	29.29212	-8.95037	-24.4101	13.83239	-73.2303	-180.63474	-69.97562	-89.5037	-47.19286	0
1	-25.22377	-36.61515	-11.39138	29.29212	-8.95037	-24.4101	11.39138	-73.2303	-180.63474	-72.41663	-89.5037	-47.19286	0
2	-22.78276	-36.61515	-13.83239	29.29212	-6.50936	-26.85111	6.50936	-75.67131	-180.63474	-77.29865	-91.94471	-49.63387	0
3	-22.78276	-48.8202	-26.85111	34.17414	0.81367	-39.05616	4.06835	-80.55333	-185.51676	-82.18067	-96.82673	-56.9569	0
4	-22.78276	-56.14323	-34.17414	39.05616	3.25468	-46.37919	4.06835	-85.43535	-187.95777	-82.18067	-99.26774	-64.27993	0
5	-22.78276	-58.58424	-36.61515	39.05616	5.69569	-48.8202	6.50936	-85.43535	-187.95777	-82.18067	-101.70875	-66.72094	0
6	-27.66478	-58.58424	-31.73313	41.49717	0.81367	-46.37919	6.50936	-85.43535	-190.39878	-82.18067	-101.70875	-71.60296	0
7	-34.98781	-56.14323	-21.15542	43.93818	-8.95037	-39.05616	8.95037	-85.43535	-192.83979	-82.18067	-101.70875	-71.60296	0
8	-30.10579	-48.8202	-18.71441	39.05616	-6.50936	-34.17414	11.39138	-85.43535	-192.83979	-77.29865	-101.70875	-71.60296	0
9	-25.22377	-43.93818	-18.71441	34.17414	-4.06835	-31.73313	11.39138	-80.55333	-190.39878	-72.41663	-96.82673	-64.27993	0
10	-22.78276	-31.73313	-8.95037	26.85111	-8.95037	-21.15542	11.39138	-78.11232	-190.39878	-72.41663	-96.82673	-61.83892	0
11	-22.78276	-26.85111	-4.06835	24.4101	-11.39138	-16.2734	8.95037	-73.2303	-190.39878	-74.85764	-99.26774	-59.39791	0
12	-17.90074	-26.85111	-8.95037	21.96909	-6.50936	-18.71441	6.50936	-75.67131	-190.39878	-74.85764	-101.70875	-61.83892	0
13	-13.01872	-34.17414	-21.15542	21.96909	3.25468	-29.29212	8.95037	-78.11232	-190.39878	-74.85764	-104.14976	-64.27993	0
14	-17.90074	-39.05616	-21.15542	26.85111	0.81367	-31.73313	6.50936	-82.99434	-197.72181	-77.29865	-109.03178	-74.04397	0
15	-25.22377	-41.49717	-16.2734	31.73313	-6.50936	-29.29212	4.06835	-87.87636	-200.16282	-79.73966	-116.35481	-78.92599	0
16	-27.66478	-39.05616	-11.39138	31.73313	-8.95037	-26.85111	4.06835	-90.31737	-205.04484	-82.18067	-118.79582	-81.367	0
17	-27.66478	-39.05616	-11.39138	31.73313	-8.95037	-26.85111	6.50936	-90.31737	-207.48585	-77.29865	-118.79582	-81.367	0
18	-27.66478	-41.49717	-13.83239	34.17414	-8.95037	-29.29212	6.50936	-90.31737	-207.48585	-72.41663	-116.35481	-78.92599	0
19	-22.78276	-41.49717	-18.71441	31.73313	-4.06835	-31.73313	4.06835	-90.31737	-205.04484	-67.53461	-113.9138	-76.48498	0
20	-17.90074	-43.93818	-26.85111	29.29212	3.25468	-36.61515	1.62734	-82.99434	-200.16282	-65.0936	-111.47279	-71.60296	0
21	-10.57771	-46.37919	-36.61515	26.85111	10.57771	-41.49717	1.62734	-78.11232	-195.2808	-62.65259	-106.59077	-66.72094	0
22	-15.45973	-56.14323	-41.49717	34.17414	10.57771	-48.8202	6.50936	-75.67131	-192.83979	-60.21158	-106.59077	-66.72094	0
23	-22.78276	-65.90727	-43.93818	43.93818	8.1367	-56.14323	8.95037	-73.2303	-190.39878	-57.77057	-106.59077	-66.72094	0
24	-27.66478	-70.78929	-43.93818	48.8202	5.69569	-58.58424	13.83239	-70.78929	-185.51676	-57.77057	-106.59077	-66.72094	0
25	-32.5468	-68.34828	-36.61515	48.8202	0.81367	-53.70222	19.52808	-68.34828	-183.07575	-52.88855	-104.14976	-64.27993	0
26	-39.86983	-61.02525	-21.15542	48.8202	-11.39138	-41.49717	26.85111	-61.02525	-183.07575	-50.44754	-99.26774	-61.83892	0
27	-44.75185	-56.14323	-11.39138	48.8202	-18.71441	-34.17414	29.29212	-61.02525	-183.07575	-50.44754	-99.26774	-64.27993	0
28	-39.86983	-48.8202	-8.95037	43.93818	-16.2734	-29.29212	29.29212	-61.02525	-180.63474	-48.00653	-96.82673	-64.27993	0
29	-37.42882	-39.05616	-1.62734	36.61515	-18.71441	-21.15542	29.29212	-56.14323	-178.19373	-48.00653	-94.38572	-61.83892	0
30	-32.5468	-29.29212	3.25468	29.29212	-18.71441	-13.83239	29.29212	-53.70222	-178.19373	-48.00653	-96.82673	-64.27993	0
31	-27.66478	-24.4101	3.25468	24.4101	-16.2734	-11.39138	26.85111	-53.70222	-178.19373	-55.32956	-99.26774	-66.72094	0
32	-22.78276	-31.73313	-8.95037	26.85111	-8.95037	-21.15542	24.4101	-56.14323	-178.19373	-60.21158	-101.70875	-69.16195	0
33	-15.45973	-34.17414	-18.71441	24.4101	0.81367	-26.85111	26.85111	-58.58424	-178.19373	-62.65259	-106.59077	-71.60296	0
34	-3.25468	-31.73313	-29.29212	17.08707	10.57771	-31.73313	29.29212	-61.02525	-183.07575	-67.53461	-111.47279	-76.48498	0
35	2.44101	-29.29212	-31.73313	11.39138	16.2734	-29.29212	31.73313	-63.46626	-185.51676	-69.97562	-113.9138	-78.92599	0
36	12.20505	-24.4101	-36.61515	6.50936	23.59643	-29.29212	31.73313	-65.90727	-187.95777	-72.41663	-116.35481	-81.367	0
37	19.52808	-24.4101	-43.93818	1.62734	30.91946	-34.17414	31.73313	-65.90727	-190.39878	-77.29865	-116.35481	-81.367	0
38	19.52808	-24.4101	-43.93818	1.62734	30.91946	-34.17414	34.17414	-63.46626	-190.39878	-74.85764	-116.35481	-81.367	0
39	12.20505	-16.2734	-29.29212	1.62734	21.15542	-21.15542	39.05616	-58.58424	-185.51676	-72.41663	-111.47279	-74.04397	0
40	2.44101	-13.83239	-16.2734	6.50936	8.1367	-13.83239	41.49717	-53.70222	-178.19373	-67.53461	-104.14976	-69.16195	0
41	-3.25468	-18.71441	-16.2734	11.39138	5.69569	-18.71441	46.37919	-46.37919	-168.42969	-62.65259	-94.38572	-59.39791	0
42	-13.01872	-24.4101	-11.39138	17.08707	-1.62734	-18.71441	51.26121	-41.49717	-161.10666	-60.21158	-89.5037	-52.07488	0
43	-22.78276	-24.4101	-1.62734	21.96909	-11.39138	-13.83239	56.14323	-39.05616	-153.78363	-55.32956	-84.62168	-49.63387	0
44	-34.98781	-21.15542	13.01872	26.85111	-23.59643	-4.06835	61.02525	-34.17414	-146.4606	-50.44754	-82.18067	-44.75185	0
45	-42.31084	-13.83239	27.66478	26.85111	-35.80148	5.69569	63.46626	-31.73313	-141.57858	-48.00653	-79.73966	-42.31084	0
46	-44.75185	-11.39138	32.5468	26.85111	-38.24249	10.57771	61.02525	-24.4101	-141.57858	-48.00653	-79.73966	-44.75185	0
47	-44.75185	-1.62734	42.31084	21.96909	-43.12451	20.34175	61.02525	-19.52808	-136.69656	-48.00653	-77.29865	-44.75185	0
48	-39.86983	8.1367	47.19286	14.64606	-43.12451	27.66478	58.58424	-14.64606	-131.81454	-42.31084	-72.41663	-44.75185	0
49	-27.66478	13.01872	39.86983	6.50936	-33.36047	25.22377	51.26121	-7.32303	-122.0505	-32.5468	-67.53461	-42.31084	0
50	-15.45973	17.90074	32.5468	-0.81367	-23.59643	25.22377	41.49717	-2.44101	-117.16848	-30.10579	-65.0936	-39.86983	0
51	2.44101	22.78276	20.34175	-13.01872	-8.95037	22.78276	29.29212	-2.44101	-112.28646	-30.10579	-62.65259	-39.86983	0
52	26.85111	25.22377	-1.62734	-25.22377	13.83239	13.01872	19.52808	-4.88202	-107.40444	-27.66478	-60.21158	-34.98781	0
53	39.05616	25.22377	-13.83239	-32.5468	26.03744	5.69569	11.39138	-14.64606	-107.40444	-27.66478	-57.77057	-30.10579	0
54	43.93818	20.34175	-24.4101	-32.5468	33.36047	-1.62734	4.06835	-21.96909	-107.40444	-27.66478	-55.32956	-27.66478	0
55	46.37919	8.1367	-39.05616	-27.66478	43.12451	-13.83239	-3.25468	-34.17414	-112.28646	-27.66478	-57.77057	-27.66478	0
56	48.8202	3.25468	-46.37919	-25.22377	48.00653	-21.15542	-5.69569	-41.49717	-114.72747	-27.66478	-55.32956	-24.4101	0
57	48.8202	-1.62734	-51.26121	-22.78276	50.44754	-26.85111	-8.1367	-46.37919	-117.16848	-25.22377	-50.44754	-19.52808	0
58	41.49717	-6.50936	-48.8202	-17.90074	45.56552	-26.85111	-8.1367	-48.8202	-117.16848	-20.34175	-45.56552	-14.64606	0
59	31.73313	-4.06835	-36.61515	-13.01872	33.36047	-18.71441	-10.57771	-48.8202	-117.16848	-20.34175	-45.56552	-14.64606	0
60	26.85111	3.25468	-24.4101	-15.45973	26.03744	-8.95037	-17.90074	-51.26121	-119.60949	-25.22377	-50.44754	-19.52808	0
61	21.96909	0.81367	-21.15542	-10.57771	21.15542	-8.95037	-17.90074	-48.8202	-119.60949	-27.66478	-50.44754	-21.96909	0
62	17.08707	-1.62734	-18.71441	-8.1367	18.71441	-8.95037	-17.90074	-51.26121	-119.60949	-30.10579	-52.88855	-27.66478	0
63	17.08707	-1.62734	-18.71441	-8.1367	18.71441	-8.95037	-13.01872	-51.26121	-119.60949	-30.10579	-52.88855	-27.66478	0
64	19.52808	-4.06835	-24.4101	-8.1367	21.15542	-13.83239	-5.69569	-51.26121	-124.49151	-30.10579	-55.32956	-27.66478	0
65	19.52808	-8.95037	-29.29212	-5.69569	23.59643	-18.71441	-0.81367	-51.26121	-122.0505	-25.22377	-55.32956	-27.66478	0
66	19.52808	-29.29212	-48.8202	4.06835	33.36047	-39.05616	4.06835	-41.49717	-117.16848	-20.34175	-50.44754	-21.96909	0
67	24.4101	-39.05616	-63.46626	6.50936	43.12451	-51.26121	4.06835	-36.61515	-114.72747	-17.90074	-48.00653	-17.08707	0
68	24.4101	-39.05616	-63.46626	6.50936	43.12451	-51.26121	4.06835	-34.17414	-112.28646	-13.01872	-43.12451	-12.20505	0
69	19.52808	-43.93818	-63.46626	11.39138	40.6835	-53.70222	1.62734	-29.29212	-109.84545	-8.1367	-40.6835	-7.32303	0
70	17.08707	-41.49717	-58.58424	11.39138	35.80148	-48.8202	-5.69569	-29.29212	-107.40444	-8.1367	-40.6835	-7.32303	0
71	21.96909	-41.49717	-63.46626	8.95037	40.6835	-51.26121	-8.1367	-26.85111	-104.96343	-8.1367	-40.6835	-9.76404	0
72	21.96909	-39.05616	-61.02525	8.95037	40.6835	-48.8202	-10.57771	-31.73313	-107.40444	-13.01872	-43.12451	-17.08707	0
73	14.64606	-29.29212	-43.93818	6.50936	28.47845	-36.61515	-10.57771	-39.05616	-114.72747	-15.45973	-48.00653	-27.66478	0
74	12.20505	-21.15542	-34.17414	4.06835	23.59643	-26.85111	-3.25468	-41.49717	-114.72747	-13.01872	-50.44754	-30.10579	0
75	17.08707	-13.83239	-31.73313	-0.81367	23.59643	-21.15542	4.06835	-41.49717	-117.16848	-13.01872	-52.88855	-32.5468	0
76	17.08707	-16.2734	-34.17414	-0.81367	26.03744	-24.4101	8.95037	-41.49717	-122.0505	-15.45973	-57.77057	-37.42882	0
77	7.32303	-24.4101	-31.73313	8.95037	18.71441	-26.85111	8.95037	-46.37919	-129.37353	-20.34175	-65.0936	-44.75185	0
78	-5.69569	-34.17414	-29.29212	19.52808	10.57771	-31.73313	11.39138	-48.8202	-136.69656	-27.66478	-72.41663	-49.63387	0
79	-13.01872	-41.49717	-29.29212	26.85111	5.69569	-36.61515	13.83239	-48.8202	-141.57858	-30.10579	-74.85764	-52.07488	0
80	-15.45973	-53.70222	-39.05616	34.17414	10.57771	-46.37919	13.83239	-48.8202	-146.4606	-37.42882	-82.18067	-54.51589	0
81	-22.78276	-65.90727	-43.93818	43.93818	8.1367	-56.14323	8.95037	-53.70222	-153.78363	-44.75185	-89.5037	-61.83892	0
82	-32.5468	-75.67131	-43.93818	53.70222	3.25468	-61.02525	8.95037	-56.14323	-156.22464	-50.44754	-94.38572	-66.72094	0
83	-39.86983	-85.43535	-46.37919	61.02525	0.81367	-65.90727	11.39138	-63.46626	-158.66565	-52.88855	-94.38572	-71.60296	0
84	-39.86983	-82.99434	-43.93818	61.02525	0.81367	-63.46626	8.95037	-68.34828	-163.54767	-55.32956	-101.70875	-76.48498	0
85	-39.86983	-82.99434	-43.93818	61.02525	0.81367	-63.46626	6.50936	-73.2303	-165.98868	-55.32956	-104.14976	-81.367	0
86	-42.31084	-85.43535	-43.93818	63.46626	-1.62734	-65.90727	4.06835	-75.67131	-168.42969	-57.77057	-106.59077	-83.80801	0
87	-49.63387	-80.55333	-31.73313	63.46626	-11.39138	-56.14323	1.62734	-75.67131	-168.42969	-57.77057	-106.59077	-83.80801	0
88	-56.9569	-78.11232	-21.15542	65.90727	-18.71441	-51.26121	-3.25468	-80.55333	-170.8707	-55.32956	-106.59077	-86.24902	0
89	-61.83892	-75.67131	-13.83239	68.34828	-26.03744	-46.37919	-5.69569	-80.55333	-173.31171	-52.88855	-106.59077	-86.24902	0
90	-61.83892	-75.67131	-13.83239	68.34828	-26.03744	-46.37919	-5.69569	-75.67131	-170.8707	-50.44754	-106.59077	-83.80801	0
91	-61.83892	-73.2303	-11.39138	65.90727	-26.03744	-43.93818	-3.25468	-68.34828	-165.98868	-50.44754	-104.14976	-81.367	0
92	-56.9569	-68.34828	-11.39138	61.02525	-23.59643	-41.49717	-0.81367	-65.90727	-163.54767	-48.00653	-101.70875	-78.92599	0
93	-49.63387	-65.90727	-16.2734	56.14323	-18.71441	-41.49717	4.06835	-63.46626	-161.10666	-48.00653	-101.70875	-81.367	0
94	-42.31084	-68.34828	-26.85111	53.70222	-8.95037	-48.8202	6.50936	-63.46626	-163.54767	-48.00653	-101.70875	-83.80801	0
95	-32.5468	-68.34828	-36.61515	48.8202	0.81367	-53.70222	8.95037	-63.46626	-163.54767	-48.00653	-104.14976	-86.24902	0
96	-17.90074	-68.34828	-51.26121	41.49717	16.2734	-61.02525	8.95037	-63.46626	-163.54767	-44.75185	-101.70875	-86.24902	0
97	-8.1367	-63.46626	-56.14323	34.17414	23.59643	-61.02525	8.95037	-63.46626	-163.54767	-42.31084	-101.70875	-88.69003	0
98	-8.1367	-63.46626	-56.14323	34.17414	23.59643	-61.02525	11.39138	-61.02525	-158.66565	-34.98781	-96.82673	-83.80801	0
99	-8.1367	-61.02525	-53.70222	34.17414	21.15542	-58.58424	11.39138	-56.14323	-156.22464	-30.10579	-91.94471	-78.92599	0
100	-17.90074	-58.58424	-41.49717	36.61515	10.57771	-51.26121	13.83239	-51.26121	-151.34262	-25.22377	-89.5037	-71.60296	1000	P+0
101	-25.22377	-63.46626	-39.05616	43.93818	5.69569	-51.26121	13.83239	-46.37919	-146.4606	-22.78276	-87.06269	-66.72094	0
102	-30.10579	-53.70222	-24.4101	41.49717	-4.06835	-39.05616	17.08707	-46.37919	-144.01959	-25.22377	-87.06269	-66.72094	0
103	-37.42882	-51.26121	-13.83239	43.93818	-13.83239	-34.17414	19.52808	-48.8202	-144.01959	-25.22377	-87.06269	-66.72094	0
104	-42.31084	-58.58424	-16.2734	48.8202	-13.83239	-39.05616	21.96909	-48.8202	-148.90161	-25.22377	-89.5037	-69.16195	0
105	-49.63387	-68.34828	-18.71441	58.58424	-16.2734	-43.93818	17.08707	-53.70222	-153.78363	-30.10579	-94.38572	-74.04397	0
106	-47.19286	-68.34828	-21.15542	56.14323	-13.83239	-46.37919	13.83239	-58.58424	-161.10666	-37.42882	-101.70875	-81.367	0
107	-34.98781	-58.58424	-24.4101	46.37919	-6.50936	-41.49717	6.50936	-65.90727	-170.8707	-48.00653	-109.03178	-91.13104	0
108	-32.5468	-48.8202	-16.2734	39.05616	-8.95037	-34.17414	1.62734	-70.78929	-175.75272	-48.00653	-111.47279	-93.57205	0
109	-42.31084	-43.93818	-1.62734	41.49717	-21.15542	-24.4101	-3.25468	-73.2303	-178.19373	-50.44754	-111.47279	-93.57205	0
110	-49.63387	-41.49717	8.1367	43.93818	-30.91946	-16.2734	-5.69569	-73.2303	-175.75272	-52.88855	-111.47279	-93.57205	0
111	-49.63387	-41.49717	8.1367	43.93818	-30.91946	-16.2734	-5.69569	-70.78929	-170.8707	-52.88855	-109.03178	-88.69003	0
112	-52.07488	-41.49717	10.57771	46.37919	-33.36047	-16.2734	-8.1367	-70.78929	-170.8707	-55.32956	-109.03178	-86.24902	0
113	-54.51589	-56.14323	-1.62734	53.70222	-28.47845	-29.29212	1.62734	-65.90727	-161.10666	-48.00653	-99.26774	-76.48498	0
114	-56.9569	-70.78929	-13.83239	63.46626	-23.59643	-43.93818	11.39138	-61.02525	-151.34262	-42.31084	-94.38572	-74.04397	0
115	-49.63387	-90.31737	-41.49717	68.34828	-6.50936	-65.90727	13.83239	-61.02525	-148.90161	-37.42882	-91.94471	-74.04397	0
116	-37.42882	-100.08141	-63.46626	68.34828	10.57771	-82.99434	13.83239	-58.58424	-148.90161	-37.42882	-89.5037	-74.04397	0
117	-25.22377	-95.19939	-70.78929	58.58424	21.15542	-82.99434	19.52808	-58.58424	-146.4606	-37.42882	-87.06269	-71.60296	0
118	-20.34175	-87.87636	-68.34828	53.70222	23.59643	-78.11232	21.96909	-56.14323	-144.01959	-34.98781	-84.62168	-66.72094	0
119	-22.78276	-82.99434	-61.02525	51.26121	18.71441	-73.2303	19.52808	-56.14323	-141.57858	-37.42882	-84.62168	-64.27993	0
120	-22.78276	-75.67131	-53.70222	48.8202	13.83239	-65.90727	13.83239	-56.14323	-144.01959	-42.31084	-89.5037	-66.72094	0
121	-22.78276	-70.78929	-48.8202	46.37919	10.57771	-61.02525	13.83239	-46.37919	-144.01959	-48.00653	-91.94471	-69.16195	0
122	-25.22377	-70.78929	-46.37919	46.37919	8.1367	-58.58424	24.4101	-31.73313	-136.69656	-50.44754	-94.38572	-74.04397	0
123	-30.10579	-80.55333	-51.26121	53.70222	8.1367	-65.90727	36.61515	-14.64606	-134.25555	-57.77057	-101.70875	-81.367	0
124	-30.10579	-97.6404	-68.34828	63.46626	18.71441	-82.99434	51.26121	7.32303	-131.81454	-69.97562	-116.35481	-98.45407	0
125	-30.10579	-112.28646	-82.99434	70.78929	26.03744	-97.6404	68.34828	26.85111	-131.81454	-84.62168	-133.44188	-115.54114	0
126	-30.10579	-122.0505	-92.75838	75.67131	30.91946	-107.40444	80.55333	39.05616	-134.25555	-101.70875	-152.96996	-130.1872	0
127	-30.10579	-122.0505	-92.75838	75.67131	30.91946	-107.40444	85.43535	39.05616	-139.13757	-118.79582	-170.05703	-144.83326	0
128	-30.10579	-109.84545	-80.55333	68.34828	23.59643	-95.19939	82.99434	29.29212	-139.13757	-126.11885	-182.26208	-147.27427	0
129	-25.22377	-80.55333	-56.14323	51.26121	13.83239	-68.34828	70.78929	-4.88202	-139.13757	-118.79582	-177.38006	-137.51023	0
130	-20.34175	-34.17414	-13.83239	26.85111	-4.06835	-24.4101	39.05616	-73.2303	-139.13757	-91.94471	-155.41097	-110.65912	0
131	-5.69569	25.22377	30.10579	-10.57771	-18.71441	27.66478	-0.81367	-173.31171	-129.37353	-30.10579	-96.82673	-52.07488	0
132	17.08707	113.10013	96.01306	-64.27993	-40.6835	105.7771	-64.27993	-305.12625	-97.6404	84.62168	6.50936	39.05616	0
133	46.37919	225.38659	179.0074	-135.06922	-67.53461	203.4175	-144.83326	-458.90988	-39.05616	260.3744	162.734	173.31171	0
134	85.43535	354.76012	269.32477	-220.50457	-91.94471	313.26295	-244.91467	-634.6626	37.42882	482.50631	360.45581	336.85938	0
135	129.37353	491.45668	362.08315	-310.82194	-116.35481	427.99042	-359.64214	-829.9434	125.30518	741.25337	582.58772	517.49412	0
136	178.19373	640.35829	462.16456	-408.46234	-143.20592	552.48193	-479.25163	-1022.78319	213.18154	1019.52851	816.92468	703.01088	0
137	222.13191	794.14192	572.01001	-508.54375	-174.93905	684.29647	-593.9791	-1198.53591	296.17588	1310.0087	1056.14366	890.96865	0
138	246.54201	935.7205	689.17849	-591.53809	-221.31824	813.67	-703.82455	-1354.76055	352.31911	1578.5198	1268.51153	1056.95733	0
139	253.86504	1060.21201	806.34697	-657.44536	-277.46147	933.27949	-791.70091	-1476.81105	374.2882	1792.51501	1427.17718	1181.44884	0
140	244.101	1143.20635	899.10535	-694.06051	-328.72268	1021.15585	-852.72616	-1562.2464	352.31911	1946.29864	1527.25859	1259.56116	0
141	219.6909	1179.8215	960.1306	-698.94253	-370.21985	1069.97605	-877.13626	-1603.74357	298.61689	2039.05702	1568.75576	1293.7353	0
142	183.07575	1160.29342	977.21767	-672.09142	-397.07096	1069.97605	-872.25424	-1593.97953	225.38659	2056.14409	1551.66869	1276.64823	0
143	148.90161	1082.1811	933.27949	-615.94819	-392.18894	1008.9508	-842.96212	-1537.8363	139.95124	1990.23682	1466.23334	1208.29995	0
144	112.28646	952.80757	840.52111	-532.95385	-365.33783	896.66434	-789.2599	-1432.87287	52.07488	1841.33521	1317.33173	1091.13147	0
145	92.75838	786.81889	694.06051	-440.19547	-301.87157	740.4397	-718.47061	-1291.29429	-12.20505	1633.84936	1129.37396	939.78885	0
146	75.67131	593.9791	518.30779	-335.23204	-221.31824	557.36395	-628.15324	-1117.98258	-68.34828	1380.79799	917.00609	771.35916	0
147	56.14323	413.34436	357.20113	-235.15063	-150.52895	386.49325	-525.63082	-932.46582	-117.16848	1087.87679	685.11014	585.8424	0
148	36.61515	252.2377	215.62255	-144.83326	-89.5037	235.15063	-413.34436	-749.39007	-156.22464	787.63256	455.6552	405.20766	0
149	17.08707	125.30518	108.21811	-71.60296	-45.56552	117.98215	-303.49891	-578.51937	-185.51676	519.12146	253.05137	244.101	0
150	-0.81367	39.86983	39.86983	-20.34175	-21.15542	39.86983	-208.29952	-429.61776	-195.2808	304.31258	96.82673	114.72747	0
151	-15.45973	-8.95037	5.69569	11.39138	-11.39138	-1.62734	-122.86417	-297.80322	-190.39878	152.96996	-8.1367	24.4101	0
152	-27.66478	-31.73313	-4.06835	29.29212	-13.83239	-18.71441	-47.19286	-190.39878	-178.19373	50.44754	-74.85764	-37.42882	0
153	-32.5468	-46.37919	-13.83239	39.05616	-11.39138	-31.73313	11.39138	-104.96343	-156.22464	1.62734	-104.14976	-71.60296	0
154	-32.5468	-53.70222	-21.15542	41.49717	-6.50936	-39.05616	41.49717	-39.05616	-122.0505	-0.81367	-106.59077	-81.367	0
155	-25.22377	-56.14323	-31.73313	39.05616	0.81367	-43.93818	53.70222	12.20505	-82.99434	11.39138	-94.38572	-81.367	0
156	-17.90074	-56.14323	-39.05616	36.61515	8.1367	-48.8202	61.02525	54.51589	-41.49717	30.91946	-77.29865	-74.04397	0
157	-15.45973	-68.34828	-53.70222	41.49717	18.71441	-61.02525	65.90727	78.92599	-17.08707	40.6835	-69.97562	-71.60296	0
158	-15.45973	-78.11232	-63.46626	46.37919	23.59643	-70.78929	65.90727	91.13104	-2.44101	40.6835	-69.97562	-74.04397	0
159	-17.90074	-75.67131	-58.58424	46.37919	18.71441	-68.34828	63.46626	98.45407	10.57771	43.12451	-65.0936	-71.60296	0
160	-17.90074	-70.78929	-53.70222	43.93818	16.2734	-63.46626	58.58424	100.89508	17.90074	35.80148	-67.53461	-71.60296	0
161	-15.45973	-70.78929	-56.14323	41.49717	18.71441	-63.46626	56.14323	105.7771	25.22377	26.03744	-67.53461	-71.60296	0
162	-20.34175	-68.34828	-48.8202	43.93818	13.83239	-58.58424	61.02525	105.7771	32.5468	18.71441	-69.97562	-69.16195	0
163	-22.78276	-65.90727	-43.93818	43.93818	8.1367	-56.14323	63.46626	108.21811	37.42882	11.39138	-69.97562	-71.60296	0
164	-25.22377	-63.46626	-39.05616	43.93818	5.69569	-51.26121	70.78929	113.10013	42.31084	6.50936	-72.41663	-71.60296	0
165	-25.22377	-63.46626	-39.05616	43.93818	5.69569	-51.26121	75.67131	115.54114	44.75185	-0.81367	-74.85764	-76.48498	0
166	-20.34175	-61.02525	-41.49717	39.05616	8.1367	-51.26121	75.67131	115.54114	42.31084	-10.57771	-79.73966	-83.80801	0
167	-20.34175	-51.26121	-31.73313	34.17414	3.25468	-41.49717	75.67131	117.98215	42.31084	-15.45973	-79.73966	-86.24902	0
168	-22.78276	-51.26121	-29.29212	36.61515	0.81367	-41.49717	75.67131	122.86417	47.19286	-17.90074	-77.29865	-86.24902	0
169	-20.34175	-53.70222	-34.17414	36.61515	5.69569	-43.93818	75.67131	125.30518	49.63387	-22.78276	-77.29865	-83.80801	0
170	-10.57771	-48.8202	-39.05616	29.29212	13.83239	-43.93818	70.78929	125.30518	49.63387	-32.5468	-77.29865	-86.24902	0
171	-3.25468	-48.8202	-46.37919	24.4101	21.15542	-48.8202	68.34828	127.74619	49.63387	-39.86983	-77.29865	-86.24902	0
172	-3.25468	-53.70222	-51.26121	26.85111	23.59643	-53.70222	70.78929	132.62821	52.07488	-48.00653	-77.29865	-83.80801	0
173	-8.1367	-68.34828	-61.02525	36.61515	26.03744	-65.90727	78.11232	132.62821	56.9569	-48.00653	-74.85764	-81.367	0
174	-13.01872	-80.55333	-68.34828	46.37919	26.03744	-75.67131	80.55333	132.62821	54.51589	-55.32956	-77.29865	-83.80801	0
175	-13.01872	-82.99434	-70.78929	46.37919	28.47845	-78.11232	78.11232	130.1872	49.63387	-62.65259	-79.73966	-86.24902	0
176	-13.01872	-90.31737	-78.11232	51.26121	30.91946	-85.43535	80.55333	132.62821	49.63387	-65.0936	-79.73966	-86.24902	0
177	-17.90074	-95.19939	-78.11232	56.14323	28.47845	-87.87636	80.55333	135.06922	52.07488	-67.53461	-74.85764	-81.367	0
178	-17.90074	-97.6404	-80.55333	56.14323	30.91946	-90.31737	82.99434	139.95124	54.51589	-67.53461	-67.53461	-76.48498	0
179	-13.01872	-100.08141	-87.87636	56.14323	35.80148	-95.19939	78.11232	142.39225	54.51589	-67.53461	-65.0936	-76.48498	0
180	-0.81367	-87.87636	-87.87636	43.93818	43.12451	-87.87636	73.2303	144.83326	56.9569	-69.97562	-65.0936	-76.48498	0
181	2.44101	-85.43535	-87.87636	41.49717	43.12451	-85.43535	73.2303	152.15629	64.27993	-69.97562	-57.77057	-76.48498	0
182	-0.81367	-85.43535	-85.43535	41.49717	40.6835	-85.43535	75.67131	154.5973	66.72094	-72.41663	-57.77057	-78.92599	0
183	-0.81367	-85.43535	-85.43535	41.49717	40.6835	-85.43535	78.11232	152.15629	66.72094	-72.41663	-57.77057	-81.367	0
184	-3.25468	-87.87636	-85.43535	43.93818	40.6835	-87.87636	80.55333	152.15629	71.60296	-69.97562	-55.32956	-81.367	0
185	-5.69569	-90.31737	-85.43535	46.37919	38.24249	-87.87636	82.99434	152.15629	74.04397	-69.97562	-55.32956	-81.367	0
186	-13.01872	-95.19939	-82.99434	53.70222	33.36047	-90.31737	87.87636	157.03831	78.92599	-67.53461	-52.88855	-78.92599	0
187	-15.45973	-95.19939	-80.55333	53.70222	30.91946	-87.87636	92.75838	164.36134	86.24902	-62.65259	-45.56552	-74.04397	0
188	-8.1367	-90.31737	-82.99434	48.8202	35.80148	-87.87636	92.75838	166.80235	91.13104	-60.21158	-40.6835	-69.16195	0
189	-0.81367	-85.43535	-85.43535	41.49717	40.6835	-85.43535	97.6404	176.56639	100.89508	-55.32956	-35.80148	-64.27993	0
190	12.20505	-80.55333	-92.75838	34.17414	50.44754	-85.43535	97.6404	181.44841	103.33609	-55.32956	-32.5468	-64.27993	0
191	21.96909	-65.90727	-87.87636	21.96909	52.88855	-75.67131	90.31737	181.44841	103.33609	-60.21158	-32.5468	-69.16195	0
192	26.85111	-58.58424	-85.43535	14.64606	55.32956	-70.78929	87.87636	181.44841	108.21811	-60.21158	-32.5468	-71.60296	0
193	24.4101	-58.58424	-82.99434	17.08707	52.88855	-70.78929	87.87636	179.0074	113.10013	-60.21158	-35.80148	-76.48498	0
194	19.52808	-61.02525	-80.55333	19.52808	48.00653	-70.78929	87.87636	179.0074	115.54114	-60.21158	-35.80148	-78.92599	0
195	14.64606	-65.90727	-80.55333	24.4101	45.56552	-73.2303	85.43535	176.56639	115.54114	-62.65259	-40.6835	-83.80801	0
196	9.76404	-73.2303	-82.99434	31.73313	45.56552	-78.11232	82.99434	176.56639	117.98215	-65.0936	-45.56552	-86.24902	0
197	4.88202	-80.55333	-85.43535	36.61515	43.12451	-82.99434	82.99434	179.0074	122.86417	-65.0936	-45.56552	-81.367	0
198	-0.81367	-95.19939	-95.19939	46.37919	45.56552	-95.19939	82.99434	181.44841	130.1872	-62.65259	-43.12451	-78.92599	0
199	2.44101	-97.6404	-100.08141	46.37919	50.44754	-97.6404	78.11232	183.88942	130.1872	-60.21158	-43.12451	-76.48498	0
200	-0.81367	-107.40444	-107.40444	53.70222	52.88855	-107.40444	73.2303	186.33043	135.06922	-62.65259	-43.12451	-76.48498	0
201	-8.1367	-109.84545	-102.52242	58.58424	45.56552	-107.40444	70.78929	193.65346	142.39225	-62.65259	-40.6835	-74.04397	0
202	-15.45973	-109.84545	-95.19939	61.02525	38.24249	-102.52242	70.78929	196.09447	149.71528	-62.65259	-38.24249	-69.16195	0
203	-17.90074	-109.84545	-92.75838	63.46626	35.80148	-102.52242	75.67131	198.53548	157.03831	-60.21158	-35.80148	-66.72094	0
204	-20.34175	-109.84545	-90.31737	63.46626	33.36047	-100.08141	82.99434	200.97649	161.92033	-60.21158	-35.80148	-64.27993	0
205	-20.34175	-102.52242	-82.99434	61.02525	30.91946	-92.75838	87.87636	205.85851	166.80235	-60.21158	-35.80148	-61.83892	0
206	-10.57771	-87.87636	-78.11232	48.8202	33.36047	-82.99434	90.31737	210.74053	174.12538	-60.21158	-35.80148	-56.9569	0
207	-0.81367	-75.67131	-75.67131	36.61515	35.80148	-75.67131	97.6404	215.62255	181.44841	-57.77057	-30.10579	-49.63387	0
208	14.64606	-65.90727	-80.55333	24.4101	45.56552	-73.2303	100.08141	222.94558	188.77144	-55.32956	-25.22377	-42.31084	0
209	21.96909	-63.46626	-85.43535	19.52808	52.88855	-73.2303	100.08141	227.8276	191.21245	-57.77057	-22.78276	-39.86983	0
210	26.85111	-63.46626	-90.31737	17.08707	57.77057	-75.67131	100.08141	235.15063	198.53548	-60.21158	-22.78276	-37.42882	0
211	29.29212	-65.90727	-95.19939	17.08707	60.21158	-80.55333	97.6404	237.59164	205.85851	-65.0936	-20.34175	-37.42882	0
212	26.85111	-68.34828	-95.19939	19.52808	60.21158	-80.55333	97.6404	237.59164	210.74053	-65.0936	-20.34175	-37.42882	0
213	24.4101	-65.90727	-90.31737	19.52808	55.32956	-78.11232	97.6404	235.15063	215.62255	-69.97562	-22.78276	-42.31084	0
214	24.4101	-65.90727	-90.31737	19.52808	55.32956	-78.11232	92.75838	230.26861	215.62255	-77.29865	-30.10579	-49.63387	0
215	29.29212	-56.14323	-85.43535	11.39138	55.32956	-70.78929	87.87636	227.8276	218.06356	-79.73966	-32.5468	-52.07488	0
216	31.73313	-46.37919	-78.11232	6.50936	52.88855	-61.02525	85.43535	227.8276	222.94558	-82.18067	-32.5468	-54.51589	0
217	29.29212	-43.93818	-73.2303	6.50936	50.44754	-58.58424	82.99434	232.70962	227.8276	-79.73966	-32.5468	-54.51589	0
218	26.85111	-48.8202	-75.67131	11.39138	50.44754	-61.02525	82.99434	237.59164	235.15063	-74.85764	-27.66478	-52.07488	0
219	17.08707	-70.78929	-87.87636	26.85111	50.44754	-78.11232	80.55333	247.35568	244.91467	-72.41663	-20.34175	-44.75185	0
220	9.76404	-90.31737	-100.08141	39.05616	52.88855	-95.19939	80.55333	257.11972	254.67871	-67.53461	-15.45973	-39.86983	0
221	2.44101	-104.96343	-107.40444	51.26121	52.88855	-104.96343	82.99434	264.44275	269.32477	-62.65259	-8.1367	-32.5468	0
222	2.44101	-112.28646	-114.72747	53.70222	57.77057	-112.28646	85.43535	269.32477	279.08881	-60.21158	-3.25468	-30.10579	0
223	7.32303	-117.16848	-124.49151	53.70222	65.0936	-119.60949	90.31737	276.6478	291.29386	-55.32956	1.62734	-27.66478	0
224	19.52808	-107.40444	-126.93252	43.93818	72.41663	-117.16848	92.75838	279.08881	301.0579	-50.44754	4.06835	-24.4101	0
225	36.61515	-90.31737	-126.93252	26.85111	79.73966	-107.40444	92.75838	281.52982	308.38093	-48.00653	4.06835	-24.4101	0
226	43.93818	-70.78929	-114.72747	11.39138	77.29865	-92.75838	92.75838	286.41184	315.70396	-44.75185	4.06835	-27.66478	0
227	41.49717	-65.90727	-107.40444	11.39138	72.41663	-85.43535	97.6404	293.73487	325.468	-37.42882	13.83239	-24.4101	0
228	39.05616	-68.34828	-107.40444	14.64606	72.41663	-87.87636	100.08141	303.49891	337.67305	-25.22377	23.59643	-21.96909	0
229	34.17414	-73.2303	-107.40444	19.52808	69.97562	-90.31737	97.6404	310.82194	347.43709	-17.90074	28.47845	-21.96909	0
230	24.4101	-82.99434	-107.40444	29.29212	65.0936	-95.19939	92.75838	315.70396	354.76012	-17.90074	30.91946	-24.4101	0
231	19.52808	-95.19939	-114.72747	36.61515	65.0936	-104.96343	90.31737	325.468	364.52416	-15.45973	35.80148	-24.4101	0
232	21.96909	-104.96343	-126.93252	41.49717	72.41663	-114.72747	90.31737	327.90901	374.2882	-15.45973	35.80148	-24.4101	0
233	34.17414	-100.08141	-134.25555	31.73313	82.18067	-117.16848	85.43535	325.468	379.17022	-15.45973	38.24249	-24.4101	0
234	41.49717	-85.43535	-126.93252	21.96909	82.18067	-104.96343	82.99434	325.468	384.05224	-15.45973	33.36047	-27.66478	0
235	39.05616	-78.11232	-117.16848	19.52808	77.29865	-97.6404	80.55333	325.468	391.37527	-13.01872	33.36047	-24.4101	0
236	41.49717	-61.02525	-102.52242	8.95037	69.97562	-80.55333	75.67131	325.468	396.25729	-13.01872	35.80148	-21.96909	0
237	41.49717	-51.26121	-92.75838	4.06835	65.0936	-70.78929	70.78929	325.468	406.02133	-13.01872	38.24249	-21.96909	0
238	39.05616	-43.93818	-82.99434	1.62734	60.21158	-63.46626	65.90727	330.35002	415.78537	-5.69569	45.56552	-19.52808	0
239	39.05616	-41.49717	-80.55333	1.62734	57.77057	-61.02525	65.90727	340.11406	432.87244	6.50936	57.77057	-9.76404	0
240	39.05616	-41.49717	-80.55333	1.62734	57.77057	-61.02525	68.34828	354.76012	452.40052	21.15542	72.41663	0	0
241	41.49717	-36.61515	-78.11232	-3.25468	57.77057	-56.14323	65.90727	364.52416	462.16456	26.03744	79.73966	4.88202	0
242	46.37919	-39.05616	-85.43535	-3.25468	65.0936	-61.02525	65.90727	369.40618	479.25163	35.80148	87.06269	7.32303	0
243	51.26121	-41.49717	-92.75838	-5.69569	69.97562	-65.90727	70.78929	376.72921	493.89769	48.00653	99.26774	17.08707	0
244	63.46626	-36.61515	-100.08141	-13.01872	79.73966	-68.34828	75.67131	384.05224	508.54375	60.21158	106.59077	26.85111	0
245	65.90727	-31.73313	-97.6404	-17.90074	79.73966	-63.46626	75.67131	388.93426	515.86678	67.53461	113.9138	31.73313	0
246	65.90727	-31.73313	-97.6404	-17.90074	79.73966	-63.46626	70.78929	388.93426	520.7488	67.53461	113.9138	36.61515	0
247	68.34828	-34.17414	-102.52242	-17.90074	84.62168	-68.34828	63.46626	384.05224	523.18981	69.97562	116.35481	39.05616	0
248	70.78929	-31.73313	-102.52242	-20.34175	84.62168	-65.90727	53.70222	384.05224	530.51284	77.29865	121.23683	48.8202	0
249	75.67131	-26.85111	-102.52242	-25.22377	87.06269	-63.46626	41.49717	381.61123	532.95385	79.73966	128.55986	56.14323	0
250	78.11232	-16.2734	-95.19939	-30.10579	87.06269	-56.14323	29.29212	376.72921	532.95385	79.73966	131.00087	58.58424	0
251	80.55333	-6.50936	-87.87636	-37.42882	84.62168	-46.37919	19.52808	376.72921	537.83587	82.18067	138.3239	63.46626	0
252	80.55333	3.25468	-78.11232	-42.31084	79.73966	-36.61515	11.39138	371.84719	540.27688	82.18067	143.20592	65.90727	0
253	78.11232	8.1367	-70.78929	-42.31084	74.85764	-31.73313	8.95037	369.40618	542.71789	89.5037	152.96996	70.78929	0
254	80.55333	20.34175	-61.02525	-49.63387	69.97562	-18.71441	8.95037	369.40618	547.59991	96.82673	160.29299	78.11232	0
255	82.99434	32.5468	-51.26121	-56.9569	67.53461	-8.95037	6.50936	364.52416	550.04092	104.14976	167.61602	85.43535	0
256	80.55333	39.86983	-41.49717	-59.39791	60.21158	0.81367	1.62734	364.52416	550.04092	109.03178	177.38006	95.19939	0
257	80.55333	47.19286	-34.17414	-64.27993	57.77057	8.1367	-3.25468	362.08315	552.48193	116.35481	184.70309	107.40444	0
258	90.31737	59.39791	-31.73313	-74.04397	60.21158	15.45973	-13.01872	354.76012	550.04092	121.23683	192.02612	114.72747	0
259	104.96343	76.48498	-29.29212	-91.13104	67.53461	25.22377	-22.78276	344.99608	542.71789	123.67784	194.46713	122.0505	0
260	112.28646	91.13104	-21.15542	-100.89508	67.53461	34.98781	-34.98781	337.67305	535.39486	123.67784	196.90814	126.93252	0
261	114.72747	98.45407	-16.2734	-105.7771	65.0936	42.31084	-39.86983	332.79103	530.51284	123.67784	204.23117	134.25555	0
262	114.72747	115.54114	0.81367	-115.54114	57.77057	59.39791	-42.31084	325.468	528.07183	126.11885	209.11319	141.57858	0
263	114.72747	130.1872	15.45973	-122.86417	50.44754	74.04397	-44.75185	318.14497	520.7488	128.55986	216.43622	146.4606	0
264	107.40444	139.95124	32.5468	-122.86417	38.24249	86.24902	-47.19286	305.93992	513.42577	128.55986	218.87723	151.34262	0
265	102.52242	142.39225	39.86983	-122.86417	30.91946	91.13104	-49.63387	298.61689	506.10274	131.00087	223.75925	158.66565	0
266	92.75838	139.95124	47.19286	-115.54114	23.59643	93.57205	-54.51589	291.29386	498.77971	131.00087	226.20026	165.98868	0
267	85.43535	142.39225	56.9569	-113.10013	13.83239	100.89508	-64.27993	276.6478	484.13365	128.55986	226.20026	170.8707	0
268	87.87636	147.27427	59.39791	-117.98215	13.83239	103.33609	-71.60296	262.00174	467.04658	126.11885	228.64127	173.31171	0
269	87.87636	139.95124	52.07488	-113.10013	18.71441	96.01306	-78.92599	249.79669	447.5185	121.23683	231.08228	178.19373	0
270	85.43535	142.39225	56.9569	-113.10013	13.83239	100.89508	-83.80801	240.03265	425.54941	116.35481	228.64127	180.63474	0
271	85.43535	144.83326	59.39791	-115.54114	13.83239	103.33609	-86.24902	230.26861	408.46234	113.9138	228.64127	183.07575	0
272	82.99434	152.15629	69.16195	-117.98215	5.69569	110.65912	-88.69003	215.62255	386.49325	106.59077	223.75925	180.63474	0
273	78.11232	157.03831	78.92599	-117.98215	-1.62734	117.98215	-86.24902	198.53548	362.08315	101.70875	221.31824	178.19373	0
274	75.67131	161.92033	86.24902	-117.98215	-6.50936	125.30518	-78.92599	186.33043	340.11406	94.38572	213.99521	173.31171	0
275	70.78929	169.24336	98.45407	-120.42316	-13.83239	135.06922	-74.04397	174.12538	315.70396	89.5037	204.23117	168.42969	0
276	65.90727	174.12538	108.21811	-120.42316	-21.15542	142.39225	-66.72094	164.36134	296.17588	84.62168	199.34915	165.98868	0
277	53.70222	166.80235	113.10013	-110.65912	-30.91946	139.95124	-61.83892	152.15629	276.6478	77.29865	189.58511	158.66565	0
278	43.93818	152.15629	108.21811	-98.45407	-33.36047	130.1872	-54.51589	144.83326	254.67871	74.85764	184.70309	153.78363	0
279	43.93818	144.83326	100.89508	-93.57205	-28.47845	122.86417	-47.19286	139.95124	237.59164	72.41663	182.26208	148.90161	0
280	43.93818	139.95124	96.01306	-91.13104	-26.03744	117.98215	-44.75185	137.51023	220.50457	65.0936	174.93905	141.57858	0
281	41.49717	132.62821	91.13104	-86.24902	-26.03744	113.10013	-44.75185	130.1872	200.97649	55.32956	167.61602	129.37353	0
282	41.49717	122.86417	81.367	-81.367	-21.15542	103.33609	-44.75185	122.86417	183.88942	45.56552	157.85198	117.16848	0
283	41.49717	110.65912	69.16195	-76.48498	-13.83239	91.13104	-42.31084	113.10013	166.80235	35.80148	148.08794	104.96343	0
284	46.37919	108.21811	61.83892	-76.48498	-8.95037	86.24902	-37.42882	103.33609	149.71528	26.03744	135.88289	92.75838	0
285	43.93818	108.21811	64.27993	-76.48498	-11.39138	86.24902	-32.5468	93.57205	130.1872	16.2734	123.67784	80.55333	0
286	36.61515	96.01306	59.39791	-66.72094	-11.39138	78.92599	-27.66478	86.24902	113.10013	4.06835	109.03178	70.78929	1500	QRS+0
287	24.4101	76.48498	52.07488	-49.63387	-13.83239	64.27993	-20.34175	83.80801	100.89508	-0.81367	101.70875	63.46626	0
288	19.52808	61.83892	42.31084	-39.86983	-11.39138	52.07488	-13.01872	78.92599	86.24902	-10.57771	91.94471	56.14323	0
289	14.64606	54.51589	39.86983	-34.98781	-13.83239	47.19286	-10.57771	74.04397	66.72094	-22.78276	77.29865	46.37919	0
290	9.76404	47.19286	37.42882	-27.66478	-13.83239	42.31084	-3.25468	71.60296	52.07488	-37.42882	67.53461	36.61515	0
291	4.88202	37.42882	32.5468	-20.34175	-13.83239	34.98781	1.62734	69.16195	37.42882	-50.44754	57.77057	24.4101	0
292	-0.81367	27.66478	27.66478	-13.01872	-13.83239	27.66478	8.95037	66.72094	25.22377	-62.65259	48.00653	14.64606	0
293	-0.81367	15.45973	15.45973	-8.1367	-8.95037	15.45973	13.83239	59.39791	13.01872	-72.41663	38.24249	4.88202	0
294	-0.81367	17.90074	17.90074	-8.1367	-8.95037	17.90074	17.08707	49.63387	0	-84.62168	23.59643	-9.76404	0
295	-10.57771	10.57771	20.34175	-0.81367	-16.2734	15.45973	21.96909	44.75185	-4.88202	-91.94471	13.83239	-17.08707	0
296	-15.45973	5.69569	20.34175	4.06835	-18.71441	13.01872	26.85111	44.75185	-12.20505	-99.26774	6.50936	-21.96909	0
297	-22.78276	3.25468	25.22377	8.95037	-23.59643	13.01872	26.85111	39.05616	-19.52808	-106.59077	1.62734	-27.66478	0
298	-20.34175	3.25468	22.78276	8.95037	-21.15542	13.01872	24.4101	36.61515	-24.4101	-109.03178	-3.25468	-27.66478	0
299	-17.90074	3.25468	20.34175	6.50936	-18.71441	10.57771	21.96909	34.17414	-31.73313	-116.35481	-8.1367	-32.5468	0
300	-20.34175	3.25468	22.78276	8.95037	-21.15542	13.01872	17.08707	31.73313	-39.05616	-121.23683	-13.01872	-34.98781	0
301	-17.90074	-1.62734	15.45973	8.95037	-16.2734	5.69569	17.08707	31.73313	-46.37919	-128.55986	-15.45973	-39.86983	0
302	-15.45973	-8.95037	5.69569	11.39138	-11.39138	-1.62734	17.08707	26.85111	-51.26121	-133.44188	-20.34175	-42.31084	0
303	-13.01872	-24.4101	-11.39138	17.08707	-1.62734	-18.71441	21.96909	24.4101	-53.70222	-135.88289	-22.78276	-44.75185	0
304	-13.01872	-29.29212	-16.2734	19.52808	0.81367	-24.4101	26.85111	19.52808	-58.58424	-138.3239	-27.66478	-49.63387	0
305	-13.01872	-29.29212	-16.2734	19.52808	0.81367	-24.4101	26.85111	14.64606	-63.46626	-143.20592	-35.80148	-56.9569	0
306	-17.90074	-26.85111	-8.95037	21.96909	-6.50936	-18.71441	26.85111	7.32303	-70.78929	-152.96996	-43.12451	-64.27993	0
307	-17.90074	-29.29212	-11.39138	21.96909	-4.06835	-21.15542	26.85111	2.44101	-75.67131	-157.85198	-50.44754	-69.16195	0
308	-15.45973	-26.85111	-11.39138	19.52808	-4.06835	-18.71441	26.85111	-2.44101	-80.55333	-160.29299	-55.32956	-74.04397	0
309	-8.1367	-24.4101	-16.2734	14.64606	3.25468	-21.15542	21.96909	-4.88202	-82.99434	-165.17501	-57.77057	-74.04397	0
310	-0.81367	-18.71441	-18.71441	8.95037	8.1367	-18.71441	17.08707	-4.88202	-85.43535	-170.05703	-60.21158	-76.48498	0
311	-5.69569	-24.4101	-18.71441	14.64606	5.69569	-21.15542	17.08707	0	-85.43535	-170.05703	-57.77057	-71.60296	0
312	-5.69569	-26.85111	-21.15542	14.64606	5.69569	-24.4101	19.52808	0	-85.43535	-172.49804	-55.32956	-69.16195	0
313	-0.81367	-31.73313	-31.73313	14.64606	13.83239	-31.73313	24.4101	0	-85.43535	-167.61602	-52.88855	-64.27993	0
314	-3.25468	-41.49717	-39.05616	21.96909	16.2734	-41.49717	24.4101	0	-85.43535	-165.17501	-52.88855	-61.83892	0
315	-15.45973	-48.8202	-34.17414	31.73313	8.1367	-41.49717	24.4101	0	-82.99434	-165.17501	-52.88855	-61.83892	0
316	-32.5468	-51.26121	-18.71441	41.49717	-8.95037	-36.61515	21.96909	0	-82.99434	-165.17501	-55.32956	-64.27993	0
317	-34.98781	-48.8202	-13.83239	41.49717	-11.39138	-31.73313	21.96909	-2.44101	-85.43535	-167.61602	-60.21158	-69.16195	0
318	-30.10579	-41.49717	-11.39138	34.17414	-11.39138	-26.85111	13.83239	-7.32303	-87.87636	-167.61602	-62.65259	-69.16195	0
319	-30.10579	-36.61515	-6.50936	31.73313	-13.83239	-21.15542	11.39138	-7.32303	-87.87636	-167.61602	-62.65259	-71.60296	0
320	-34.98781	-34.17414	0.81367	34.17414	-18.71441	-16.2734	11.39138	-7.32303	-82.99434	-167.61602	-62.65259	-69.16195	0
321	-32.5468	-39.05616	-6.50936	34.17414	-13.83239	-24.4101	11.39138	-2.44101	-82.99434	-167.61602	-62.65259	-66.72094	0
322	-25.22377	-43.93818	-18.71441	34.17414	-4.06835	-31.73313	13.83239	-2.44101	-80.55333	-167.61602	-62.65259	-61.83892	0
323	-20.34175	-43.93818	-24.4101	31.73313	0.81367	-34.17414	17.08707	-4.88202	-80.55333	-167.61602	-62.65259	-61.83892	0
324	-25.22377	-46.37919	-21.15542	34.17414	-4.06835	-34.17414	21.96909	-4.88202	-78.11232	-165.17501	-62.65259	-61.83892	0
325	-27.66478	-53.70222	-26.85111	39.05616	-1.62734	-41.49717	26.85111	-2.44101	-78.11232	-162.734	-62.65259	-61.83892	0
326	-27.66478	-56.14323	-29.29212	41.49717	-1.62734	-43.93818	26.85111	-2.44101	-78.11232	-162.734	-65.0936	-61.83892	0
327	-22.78276	-51.26121	-29.29212	36.61515	0.81367	-41.49717	24.4101	-7.32303	-80.55333	-167.61602	-67.53461	-66.72094	0
328	-20.34175	-43.93818	-24.4101	31.73313	0.81367	-34.17414	17.08707	-12.20505	-85.43535	-170.05703	-74.85764	-71.60296	0
329	-13.01872	-41.49717	-29.29212	26.85111	5.69569	-36.61515	13.83239	-14.64606	-87.87636	-172.49804	-77.29865	-74.04397	0
330	-5.69569	-39.05616	-34.17414	21.96909	13.83239	-36.61515	11.39138	-12.20505	-87.87636	-172.49804	-77.29865	-69.16195	0
331	-10.57771	-41.49717	-31.73313	24.4101	8.1367	-36.61515	11.39138	-9.76404	-85.43535	-170.05703	-74.85764	-66.72094	0
332	-13.01872	-41.49717	-29.29212	26.85111	5.69569	-36.61515	13.83239	-7.32303	-80.55333	-170.05703	-72.41663	-64.27993	0
333	-13.01872	-39.05616	-26.85111	24.4101	5.69569	-34.17414	13.83239	-7.32303	-78.11232	-170.05703	-72.41663	-64.27993	0
334	-15.45973	-39.05616	-24.4101	26.85111	3.25468	-31.73313	19.52808	-2.44101	-75.67131	-167.61602	-72.41663	-64.27993	0
335	-20.34175	-29.29212	-8.95037	24.4101	-6.50936	-18.71441	26.85111	2.44101	-68.34828	-165.17501	-72.41663	-64.27993	0
336	-27.66478	-24.4101	3.25468	24.4101	-16.2734	-11.39138	31.73313	4.88202	-63.46626	-162.734	-72.41663	-64.27993	0
337	-32.5468	-18.71441	13.01872	24.4101	-23.59643	-4.06835	34.17414	4.88202	-63.46626	-160.29299	-69.97562	-64.27993	0
338	-32.5468	-18.71441	13.01872	24.4101	-23.59643	-4.06835	34.17414	4.88202	-63.46626	-157.85198	-69.97562	-64.27993	0
339	-32.5468	-24.4101	8.1367	26.85111	-21.15542	-8.95037	31.73313	7.32303	-58.58424	-152.96996	-65.0936	-59.39791	0
340	-34.98781	-29.29212	5.69569	31.73313	-21.15542	-11.39138	26.85111	9.76404	-56.14323	-150.52895	-62.65259	-54.51589	0
341	-39.86983	-36.61515	3.25468	36.61515	-23.59643	-16.2734	21.96909	9.76404	-56.14323	-150.52895	-62.65259	-52.07488	0
342	-42.31084	-48.8202	-6.50936	43.93818	-18.71441	-29.29212	19.52808	9.76404	-56.14323	-150.52895	-62.65259	-52.07488	0
343	-42.31084	-65.90727	-24.4101	53.70222	-11.39138	-46.37919	19.52808	9.76404	-56.14323	-152.96996	-67.53461	-54.51589	0
344	-39.86983	-68.34828	-29.29212	53.70222	-6.50936	-48.8202	21.96909	7.32303	-56.14323	-155.41097	-74.85764	-59.39791	0
345	-37.42882	-63.46626	-26.85111	48.8202	-6.50936	-46.37919	26.85111	2.44101	-56.14323	-157.85198	-82.18067	-66.72094	0
346	-34.98781	-63.46626	-29.29212	48.8202	-4.06835	-46.37919	31.73313	2.44101	-56.14323	-160.29299	-87.06269	-69.16195	0
347	-25.22377	-53.70222	-29.29212	39.05616	0.81367	-41.49717	39.05616	2.44101	-53.70222	-160.29299	-89.5037	-69.16195	0
348	-15.45973	-48.8202	-34.17414	31.73313	8.1367	-41.49717	39.05616	2.44101	-53.70222	-157.85198	-89.5037	-66.72094	0
349	-10.57771	-41.49717	-31.73313	24.4101	8.1367	-36.61515	34.17414	2.44101	-53.70222	-155.41097	-91.94471	-64.27993	0
350	-10.57771	-36.61515	-26.85111	21.96909	5.69569	-31.73313	26.85111	2.44101	-56.14323	-157.85198	-91.94471	-64.27993	0
351	-13.01872	-36.61515	-24.4101	24.4101	3.25468	-31.73313	24.4101	7.32303	-53.70222	-155.41097	-91.94471	-61.83892	0
352	-13.01872	-29.29212	-16.2734	19.52808	0.81367	-24.4101	19.52808	7.32303	-56.14323	-157.85198	-91.94471	-61.83892	0
353	-13.01872	-26.85111	-13.83239	19.52808	-1.62734	-21.15542	17.08707	2.44101	-56.14323	-157.85198	-94.38572	-64.27993	0
354	-20.34175	-26.85111	-6.50936	21.96909	-8.95037	-16.2734	21.96909	2.44101	-51.26121	-157.85198	-94.38572	-66.72094	0
355	-32.5468	-26.85111	5.69569	29.29212	-21.15542	-11.39138	31.73313	2.44101	-48.8202	-152.96996	-94.38572	-66.72094	0
356	-42.31084	-26.85111	15.45973	34.17414	-30.91946	-6.50936	39.05616	2.44101	-43.93818	-148.08794	-94.38572	-66.72094	0
357	-47.19286	-26.85111	20.34175	36.61515	-35.80148	-4.06835	39.05616	0	-43.93818	-145.64693	-94.38572	-66.72094	0
358	-49.63387	-34.17414	15.45973	41.49717	-33.36047	-8.95037	39.05616	2.44101	-41.49717	-140.76491	-91.94471	-64.27993	0
359	-56.9569	-46.37919	10.57771	51.26121	-35.80148	-18.71441	43.93818	7.32303	-34.17414	-133.44188	-87.06269	-54.51589	0
360	-61.83892	-48.8202	13.01872	53.70222	-38.24249	-18.71441	46.37919	12.20505	-29.29212	-126.11885	-82.18067	-49.63387	0
361	-49.63387	-48.8202	0.81367	48.8202	-26.03744	-24.4101	41.49717	14.64606	-26.85111	-126.11885	-79.73966	-44.75185	0
362	-34.98781	-46.37919	-11.39138	39.05616	-13.83239	-29.29212	34.17414	12.20505	-26.85111	-126.11885	-82.18067	-44.75185	0
363	-25.22377	-46.37919	-21.15542	34.17414	-4.06835	-34.17414	31.73313	7.32303	-29.29212	-126.11885	-87.06269	-47.19286	0
364	-15.45973	-43.93818	-29.29212	29.29212	5.69569	-36.61515	31.73313	2.44101	-31.73313	-128.55986	-91.94471	-52.07488	-1500	QRS-0
365	-5.69569	-36.61515	-31.73313	19.52808	10.57771	-34.17414	31.73313	-4.88202	-36.61515	-131.00087	-101.70875	-59.39791	0
366	-15.45973	-34.17414	-18.71441	24.4101	0.81367	-26.85111	29.29212	-14.64606	-46.37919	-138.3239	-109.03178	-69.16195	0
367	-27.66478	-46.37919	-18.71441	36.61515	-6.50936	-34.17414	29.29212	-21.96909	-53.70222	-138.3239	-116.35481	-74.04397	0
368	-34.98781	-53.70222	-18.71441	43.93818	-8.95037	-36.61515	29.29212	-24.4101	-56.14323	-138.3239	-116.35481	-76.48498	0
369	-37.42882	-46.37919	-8.95037	41.49717	-16.2734	-29.29212	34.17414	-19.52808	-53.70222	-133.44188	-111.47279	-69.16195	0
370	-37.42882	-41.49717	-4.06835	39.05616	-18.71441	-24.4101	36.61515	-9.76404	-43.93818	-123.67784	-101.70875	-56.9569	0
371	-37.42882	-36.61515	0.81367	36.61515	-21.15542	-18.71441	36.61515	-2.44101	-39.05616	-116.35481	-91.94471	-47.19286	0
372	-30.10579	-34.17414	-4.06835	31.73313	-13.83239	-18.71441	39.05616	2.44101	-31.73313	-109.03178	-84.62168	-39.86983	0
373	-17.90074	-31.73313	-13.83239	24.4101	-4.06835	-24.4101	39.05616	7.32303	-26.85111	-104.14976	-82.18067	-32.5468	0
374	-15.45973	-24.4101	-8.95037	19.52808	-4.06835	-16.2734	41.49717	7.32303	-24.4101	-101.70875	-79.73966	-32.5468	0
375	-17.90074	-24.4101	-6.50936	19.52808	-6.50936	-16.2734	48.8202	4.88202	-24.4101	-96.82673	-82.18067	-30.10579	0
376	-20.34175	-24.4101	-4.06835	21.96909	-8.95037	-13.83239	48.8202	0	-34.17414	-99.26774	-87.06269	-34.98781	0
377	-30.10579	-24.4101	5.69569	26.85111	-18.71441	-8.95037	46.37919	-9.76404	-43.93818	-101.70875	-94.38572	-42.31084	0
378	-42.31084	-24.4101	17.90074	31.73313	-30.91946	-4.06835	46.37919	-12.20505	-48.8202	-101.70875	-96.82673	-42.31084	0
379	-49.63387	-24.4101	25.22377	36.61515	-38.24249	0.81367	41.49717	-14.64606	-56.14323	-101.70875	-99.26774	-39.86983	0
380	-49.63387	-24.4101	25.22377	36.61515	-38.24249	0.81367	36.61515	-19.52808	-58.58424	-101.70875	-96.82673	-34.98781	0
381	-47.19286	-24.4101	22.78276	34.17414	-35.80148	-1.62734	29.29212	-19.52808	-61.02525	-101.70875	-94.38572	-34.98781	0
382	-44.75185	-26.85111	17.90074	34.17414	-33.36047	-4.06835	21.96909	-19.52808	-61.02525	-99.26774	-91.94471	-30.10579	0
383	-49.63387	-29.29212	20.34175	39.05616	-35.80148	-4.06835	21.96909	-17.08707	-56.14323	-94.38572	-87.06269	-27.66478	0
384	-49.63387	-31.73313	17.90074	39.05616	-35.80148	-6.50936	21.96909	-17.08707	-56.14323	-94.38572	-87.06269	-34.98781	0
385	-39.86983	-34.17414	5.69569	36.61515	-23.59643	-13.83239	24.4101	-21.96909	-58.58424	-94.38572	-89.5037	-42.31084	0
386	-30.10579	-26.85111	3.25468	26.85111	-18.71441	-11.39138	26.85111	-24.4101	-63.46626	-94.38572	-91.94471	-49.63387	0
387	-27.66478	-26.85111	0.81367	26.85111	-16.2734	-13.83239	31.73313	-24.4101	-63.46626	-91.94471	-91.94471	-49.63387	0
388	-27.66478	-26.85111	0.81367	26.85111	-16.2734	-13.83239	36.61515	-21.96909	-63.46626	-89.5037	-91.94471	-44.75185	0
389	-20.34175	-21.15542	-1.62734	19.52808	-8.95037	-11.39138	36.61515	-24.4101	-68.34828	-89.5037	-91.94471	-44.75185	0
390	-17.90074	-8.95037	8.1367	11.39138	-13.83239	-1.62734	34.17414	-29.29212	-75.67131	-89.5037	-91.94471	-42.31084	0
391	-17.90074	-1.62734	15.45973	8.95037	-16.2734	5.69569	29.29212	-31.73313	-80.55333	-89.5037	-91.94471	-37.42882	0
392	-20.34175	3.25468	22.78276	8.95037	-21.15542	13.01872	24.4101	-31.73313	-82.99434	-87.06269	-89.5037	-32.5468	0
393	-22.78276	3.25468	25.22377	8.95037	-23.59643	13.01872	19.52808	-34.17414	-87.87636	-89.5037	-89.5037	-32.5468	0
394	-27.66478	3.25468	30.10579	11.39138	-28.47845	15.45973	13.83239	-36.61515	-95.19939	-89.5037	-89.5037	-37.42882	0
395	-27.66478	3.25468	30.10579	11.39138	-28.47845	15.45973	17.08707	-41.49717	-97.6404	-87.06269	-89.5037	-37.42882	0
396	-27.66478	-4.06835	22.78276	14.64606	-26.03744	8.1367	19.52808	-43.93818	-97.6404	-79.73966	-84.62168	-37.42882	0
397	-22.78276	-8.95037	13.01872	14.64606	-18.71441	0.81367	21.96909	-46.37919	-100.08141	-74.85764	-84.62168	-37.42882	0
398	-27.66478	-8.95037	17.90074	17.08707	-23.59643	3.25468	21.96909	-46.37919	-102.52242	-69.97562	-82.18067	-37.42882	0
399	-25.22377	0.81367	25.22377	11.39138	-26.03744	13.01872	21.96909	-46.37919	-102.52242	-67.53461	-77.29865	-37.42882	0
400	-25.22377	13.01872	37.42882	6.50936	-30.91946	25.22377	21.96909	-48.8202	-104.96343	-62.65259	-74.85764	-37.42882	0
401	-22.78276	20.34175	42.31084	1.62734	-33.36047	30.10579	17.08707	-51.26121	-109.84545	-62.65259	-74.85764	-37.42882	0
402	-22.78276	20.34175	42.31084	1.62734	-33.36047	30.10579	13.83239	-51.26121	-112.28646	-60.21158	-74.85764	-37.42882	0
403	-25.22377	17.90074	42.31084	4.06835	-33.36047	30.10579	13.83239	-46.37919	-112.28646	-57.77057	-69.97562	-37.42882	0
404	-25.22377	5.69569	30.10579	8.95037	-28.47845	17.90074	13.83239	-41.49717	-109.84545	-55.32956	-67.53461	-34.98781	0
405	-25.22377	-6.50936	17.90074	14.64606	-21.15542	5.69569	19.52808	-41.49717	-109.84545	-52.88855	-67.53461	-37.42882	0
406	-22.78276	-18.71441	3.25468	19.52808	-13.83239	-8.95037	24.4101	-43.93818	-112.28646	-48.00653	-62.65259	-37.42882	0
407	-17.90074	-24.4101	-6.50936	19.52808	-6.50936	-16.2734	24.4101	-46.37919	-114.72747	-48.00653	-65.0936	-39.86983	0
408	-17.90074	-24.4101	-6.50936	19.52808	-6.50936	-16.2734	26.85111	-48.8202	-119.60949	-44.75185	-65.0936	-39.86983	0
409	-22.78276	-24.4101	-1.62734	21.96909	-11.39138	-13.83239	21.96909	-51.26121	-124.49151	-44.75185	-69.97562	-44.75185	0
410	-17.90074	-13.83239	3.25468	14.64606	-11.39138	-6.50936	17.08707	-61.02525	-134.25555	-48.00653	-74.85764	-49.63387	0
411	-10.57771	-6.50936	3.25468	8.95037	-6.50936	-1.62734	11.39138	-61.02525	-136.69656	-48.00653	-74.85764	-52.07488	0
412	-3.25468	0.81367	3.25468	1.62734	-4.06835	0.81367	6.50936	-61.02525	-136.69656	-48.00653	-74.85764	-52.07488	0
413	-8.1367	3.25468	10.57771	1.62734	-8.95037	5.69569	4.06835	-56.14323	-134.25555	-48.00653	-72.41663	-52.07488	0
414	-13.01872	-4.06835	8.1367	8.95037	-11.39138	0.81367	4.06835	-51.26121	-134.25555	-48.00653	-69.97562	-52.07488	0
415	-13.01872	-4.06835	8.1367	8.95037	-11.39138	0.81367	11.39138	-46.37919	-131.81454	-44.75185	-67.53461	-52.07488	0
416	-15.45973	-6.50936	8.1367	11.39138	-11.39138	0.81367	19.52808	-43.93818	-129.37353	-39.86983	-62.65259	-52.07488	0
417	-17.90074	-13.83239	3.25468	14.64606	-11.39138	-6.50936	24.4101	-43.93818	-129.37353	-34.98781	-62.65259	-52.07488	0
418	-27.66478	-11.39138	15.45973	19.52808	-21.15542	0.81367	24.4101	-43.93818	-131.81454	-34.98781	-65.0936	-54.51589	0
419	-30.10579	-13.83239	15.45973	21.96909	-23.59643	0.81367	24.4101	-43.93818	-136.69656	-37.42882	-67.53461	-54.51589	0
420	-25.22377	-11.39138	13.01872	17.08707	-18.71441	0.81367	24.4101	-46.37919	-139.13757	-39.86983	-67.53461	-54.51589	0
421	-22.78276	-11.39138	10.57771	17.08707	-16.2734	-1.62734	21.96909	-46.37919	-139.13757	-37.42882	-67.53461	-49.63387	0
422	-17.90074	-16.2734	0.81367	17.08707	-8.95037	-8.95037	19.52808	-43.93818	-136.69656	-37.42882	-65.0936	-47.19286	0
423	-17.90074	-18.71441	-1.62734	17.08707	-8.95037	-11.39138	13.83239	-41.49717	-136.69656	-37.42882	-65.0936	-44.75185	0
424	-13.01872	-16.2734	-4.06835	14.64606	-4.06835	-11.39138	13.83239	-39.05616	-136.69656	-37.42882	-65.0936	-47.19286	0
425	-13.01872	-26.85111	-13.83239	19.52808	-1.62734	-21.15542	21.96909	-36.61515	-134.25555	-34.98781	-62.65259	-44.75185	0
426	-17.90074	-36.61515	-18.71441	26.85111	-1.62734	-29.29212	26.85111	-36.61515	-134.25555	-30.10579	-57.77057	-44.75185	0
427	-22.78276	-36.61515	-13.83239	29.29212	-6.50936	-26.85111	24.4101	-41.49717	-136.69656	-32.5468	-62.65259	-49.63387	0
428	-27.66478	-34.17414	-6.50936	29.29212	-11.39138	-21.15542	24.4101	-43.93818	-141.57858	-32.5468	-67.53461	-52.07488	0
429	-34.98781	-26.85111	8.1367	29.29212	-23.59643	-8.95037	24.4101	-48.8202	-146.4606	-34.98781	-69.97562	-56.9569	0
430	-42.31084	-29.29212	13.01872	34.17414	-28.47845	-8.95037	24.4101	-48.8202	-144.01959	-32.5468	-67.53461	-56.9569	0
431	-47.19286	-26.85111	20.34175	36.61515	-35.80148	-4.06835	24.4101	-48.8202	-144.01959	-30.10579	-65.0936	-54.51589	0
432	-42.31084	-18.71441	22.78276	29.29212	-33.36047	0.81367	21.96909	-48.8202	-144.01959	-30.10579	-65.0936	-54.51589	0
433	-32.5468	-18.71441	13.01872	24.4101	-23.59643	-4.06835	19.52808	-48.8202	-144.01959	-32.5468	-65.0936	-52.07488	0
434	-27.66478	-18.71441	8.1367	21.96909	-18.71441	-6.50936	19.52808	-46.37919	-144.01959	-34.98781	-65.0936	-52.07488	0
435	-25.22377	-21.15542	3.25468	21.96909	-13.83239	-8.95037	19.52808	-46.37919	-146.4606	-37.42882	-69.97562	-54.51589	0
436	-20.34175	-24.4101	-4.06835	21.96909	-8.95037	-13.83239	26.85111	-46.37919	-146.4606	-37.42882	-67.53461	-52.07488	0
437	-10.57771	-18.71441	-8.95037	14.64606	-1.62734	-13.83239	26.85111	-48.8202	-151.34262	-37.42882	-72.41663	-54.51589	0
438	-8.1367	-16.2734	-8.95037	11.39138	0.81367	-13.83239	24.4101	-51.26121	-153.78363	-39.86983	-72.41663	-54.51589	0
439	-15.45973	-13.83239	0.81367	14.64606	-8.95037	-6.50936	21.96909	-51.26121	-153.78363	-39.86983	-74.85764	-54.51589	0
440	-22.78276	-8.95037	13.01872	14.64606	-18.71441	0.81367	21.96909	-51.26121	-153.78363	-39.86983	-74.85764	-54.51589	0
441	-25.22377	-8.95037	15.45973	17.08707	-21.15542	3.25468	17.08707	-53.70222	-153.78363	-39.86983	-74.85764	-56.9569	0
442	-30.10579	-16.2734	13.01872	21.96909	-21.15542	-1.62734	8.95037	-58.58424	-156.22464	-42.31084	-79.73966	-59.39791	0
443	-39.86983	-21.15542	17.90074	29.29212	-28.47845	-1.62734	4.06835	-61.02525	-158.66565	-44.75185	-82.18067	-59.39791	0
444	-44.75185	-21.15542	22.78276	31.73313	-33.36047	0.81367	4.06835	-53.70222	-156.22464	-44.75185	-82.18067	-59.39791	0
445	-42.31084	-24.4101	17.90074	31.73313	-30.91946	-4.06835	8.95037	-53.70222	-156.22464	-48.00653	-84.62168	-61.83892	0
446	-34.98781	-24.4101	10.57771	29.29212	-23.59643	-6.50936	13.83239	-58.58424	-156.22464	-48.00653	-87.06269	-64.27993	0
447	-25.22377	-26.85111	-1.62734	24.4101	-13.83239	-13.83239	13.83239	-58.58424	-161.10666	-48.00653	-89.5037	-66.72094	0
448	-13.01872	-24.4101	-11.39138	17.08707	-1.62734	-18.71441	13.83239	-58.58424	-163.54767	-48.00653	-94.38572	-69.16195	0
449	-5.69569	-21.15542	-16.2734	11.39138	5.69569	-18.71441	19.52808	-53.70222	-163.54767	-48.00653	-94.38572	-66.72094	0
450	-5.69569	-26.85111	-21.15542	14.64606	5.69569	-24.4101	19.52808	-56.14323	-165.98868	-48.00653	-94.38572	-66.72094	0
451	-8.1367	-31.73313	-24.4101	19.52808	5.69569	-29.29212	13.83239	-56.14323	-168.42969	-48.00653	-94.38572	-66.72094	0
452	-8.1367	-31.73313	-24.4101	19.52808	5.69569	-29.29212	13.83239	-53.70222	-165.98868	-48.00653	-91.94471	-64.27993	0
453	-15.45973	-34.17414	-18.71441	24.4101	0.81367	-26.85111	11.39138	-51.26121	-163.54767	-50.44754	-91.94471	-61.83892	0
454	-27.66478	-34.17414	-6.50936	29.29212	-11.39138	-21.15542	11.39138	-48.8202	-163.54767	-50.44754	-89.5037	-61.83892	0
455	-32.5468	-34.17414	-1.62734	31.73313	-16.2734	-18.71441	13.83239	-53.70222	-163.54767	-52.88855	-89.5037	-64.27993	0
456	-27.66478	-31.73313	-4.06835	29.29212	-13.83239	-18.71441	17.08707	-53.70222	-163.54767	-50.44754	-89.5037	-64.27993	0
457	-25.22377	-24.4101	0.81367	24.4101	-13.83239	-11.39138	19.52808	-56.14323	-165.98868	-50.44754	-91.94471	-69.16195	0
458	-27.66478	-24.4101	3.25468	24.4101	-16.2734	-11.39138	21.96909	-56.14323	-165.98868	-50.44754	-94.38572	-69.16195	0
459	-30.10579	-24.4101	5.69569	26.85111	-18.71441	-8.95037	21.96909	-56.14323	-170.8707	-55.32956	-94.38572	-71.60296	0
460	-30.10579	-21.15542	8.1367	24.4101	-18.71441	-6.50936	19.52808	-58.58424	-173.31171	-57.77057	-96.82673	-71.60296	0
461	-32.5468	-21.15542	10.57771	26.85111	-21.15542	-6.50936	13.83239	-61.02525	-175.75272	-57.77057	-99.26774	-74.04397	0
462	-39.86983	-24.4101	15.45973	31.73313	-28.47845	-4.06835	11.39138	-63.46626	-178.19373	-62.65259	-101.70875	-76.48498	0
463	-44.75185	-26.85111	17.90074	34.17414	-33.36047	-4.06835	4.06835	-63.46626	-178.19373	-67.53461	-104.14976	-81.367	0
464	-39.86983	-34.17414	5.69569	36.61515	-23.59643	-13.83239	4.06835	-61.02525	-178.19373	-67.53461	-104.14976	-83.80801	0
465	-34.98781	-39.05616	-4.06835	36.61515	-16.2734	-21.15542	4.06835	-63.46626	-180.63474	-67.53461	-106.59077	-86.24902	0
466	-34.98781	-48.8202	-13.83239	41.49717	-11.39138	-31.73313	11.39138	-63.46626	-178.19373	-65.0936	-101.70875	-86.24902	0
467	-32.5468	-51.26121	-18.71441	41.49717	-8.95037	-36.61515	19.52808	-58.58424	-175.75272	-60.21158	-101.70875	-83.80801	0
468	-30.10579	-51.26121	-21.15542	39.05616	-6.50936	-36.61515	26.85111	-53.70222	-173.31171	-57.77057	-96.82673	-78.92599	0
469	-27.66478	-51.26121	-24.4101	39.05616	-4.06835	-39.05616	34.17414	-46.37919	-170.8707	-55.32956	-91.94471	-74.04397	0
470	-27.66478	-48.8202	-21.15542	36.61515	-4.06835	-36.61515	36.61515	-46.37919	-168.42969	-55.32956	-89.5037	-69.16195	0
471	-30.10579	-43.93818	-13.83239	36.61515	-8.95037	-29.29212	36.61515	-43.93818	-165.98868	-52.88855	-87.06269	-66.72094	0
472	-30.10579	-41.49717	-11.39138	34.17414	-11.39138	-26.85111	36.61515	-39.05616	-161.10666	-52.88855	-84.62168	-61.83892	0
473	-30.10579	-31.73313	-1.62734	29.29212	-16.2734	-16.2734	31.73313	-39.05616	-161.10666	-55.32956	-84.62168	-61.83892	0
474	-30.10579	-31.73313	-1.62734	29.29212	-16.2734	-16.2734	29.29212	-36.61515	-158.66565	-55.32956	-84.62168	-61.83892	0
475	-22.78276	-31.73313	-8.95037	26.85111	-8.95037	-21.15542	29.29212	-41.49717	-158.66565	-55.32956	-89.5037	-66.72094	0
476	-25.22377	-36.61515	-11.39138	29.29212	-8.95037	-24.4101	29.29212	-41.49717	-158.66565	-55.32956	-89.5037	-69.16195	0
477	-22.78276	-39.05616	-16.2734	29.29212	-4.06835	-29.29212	29.29212	-46.37919	-161.10666	-55.32956	-94.38572	-74.04397	0
478	-25.22377	-39.05616	-13.83239	31.73313	-6.50936	-26.85111	26.85111	-46.37919	-165.98868	-60.21158	-96.82673	-78.92599	0
479	-32.5468	-41.49717	-8.95037	36.61515	-13.83239	-26.85111	24.4101	-51.26121	-170.8707	-65.0936	-101.70875	-83.80801	0
480	-37.42882	-43.93818	-6.50936	39.05616	-16.2734	-26.85111	24.4101	-51.26121	-173.31171	-67.53461	-104.14976	-86.24902	0
481	-39.86983	-43.93818	-4.06835	41.49717	-18.71441	-24.4101	21.96909	-48.8202	-173.31171	-67.53461	-104.14976	-86.24902	0
482	-37.42882	-43.93818	-6.50936	39.05616	-16.2734	-26.85111	21.96909	-43.93818	-170.8707	-65.0936	-101.70875	-83.80801	0
483	-30.10579	-41.49717	-11.39138	34.17414	-11.39138	-26.85111	21.96909	-41.49717	-168.42969	-65.0936	-104.14976	-83.80801	0
484	-25.22377	-46.37919	-21.15542	34.17414	-4.06835	-34.17414	21.96909	-36.61515	-165.98868	-67.53461	-104.14976	-86.24902	0
485	-25.22377	-51.26121	-26.85111	36.61515	-1.62734	-39.05616	26.85111	-36.61515	-161.10666	-65.0936	-104.14976	-86.24902	0
486	-17.90074	-53.70222	-36.61515	34.17414	8.1367	-46.37919	34.17414	-31.73313	-153.78363	-57.77057	-99.26774	-86.24902	0
487	-10.57771	-46.37919	-36.61515	26.85111	10.57771	-41.49717	39.05616	-29.29212	-153.78363	-55.32956	-99.26774	-86.24902	0
488	-5.69569	-36.61515	-31.73313	19.52808	10.57771	-34.17414	43.93818	-29.29212	-153.78363	-52.88855	-99.26774	-88.69003	0
489	-13.01872	-31.73313	-18.71441	21.96909	0.81367	-26.85111	46.37919	-26.85111	-151.34262	-50.44754	-96.82673	-86.24902	0
490	-25.22377	-26.85111	-1.62734	24.4101	-13.83239	-13.83239	51.26121	-24.4101	-146.4606	-48.00653	-94.38572	-81.367	0
491	-27.66478	-16.2734	10.57771	21.96909	-18.71441	-4.06835	53.70222	-21.96909	-144.01959	-42.31084	-89.5037	-76.48498	0
492	-30.10579	-6.50936	22.78276	17.08707	-26.03744	8.1367	53.70222	-19.52808	-139.13757	-42.31084	-87.06269	-71.60296	0
493	-22.78276	3.25468	25.22377	8.95037	-23.59643	13.01872	61.02525	-14.64606	-134.25555	-39.86983	-82.18067	-64.27993	0
494	-20.34175	8.1367	27.66478	6.50936	-23.59643	17.90074	65.90727	-7.32303	-129.37353	-37.42882	-79.73966	-59.39791	0
495	-20.34175	10.57771	30.10579	4.06835	-26.03744	20.34175	73.2303	-4.88202	-126.93252	-32.5468	-77.29865	-59.39791	0
496	-17.90074	13.01872	30.10579	1.62734	-23.59643	20.34175	78.11232	-4.88202	-124.49151	-30.10579	-74.85764	-59.39791	0
497	-17.90074	10.57771	27.66478	4.06835	-23.59643	17.90074	82.99434	-2.44101	-122.0505	-27.66478	-74.85764	-59.39791	0
498	-15.45973	17.90074	32.5468	-0.81367	-23.59643	25.22377	87.87636	4.88202	-119.60949	-22.78276	-72.41663	-59.39791	0
499	-13.01872	27.66478	39.86983	-8.1367	-26.03744	32.5468	87.87636	7.32303	-114.72747	-22.78276	-72.41663	-59.39791	0
500	-15.45973	34.98781	49.63387	-10.57771	-33.36047	42.31084	78.11232	7.32303	-114.72747	-22.78276	-72.41663	-59.39791	0
501	-20.34175	39.86983	59.39791	-10.57771	-40.6835	49.63387	63.46626	7.32303	-114.72747	-20.34175	-72.41663	-61.83892	0
502	-15.45973	34.98781	49.63387	-10.57771	-33.36047	42.31084	51.26121	7.32303	-104.96343	-17.90074	-67.53461	-61.83892	0
503	-10.57771	30.10579	39.86983	-10.57771	-26.03744	34.98781	36.61515	9.76404	-100.08141	-15.45973	-62.65259	-59.39791	0
504	-3.25468	22.78276	25.22377	-10.57771	-13.83239	22.78276	24.4101	9.76404	-97.6404	-15.45973	-62.65259	-59.39791	0
505	-3.25468	10.57771	13.01872	-3.25468	-8.95037	10.57771	13.83239	2.44101	-97.6404	-13.01872	-62.65259	-59.39791	0
506	-3.25468	-6.50936	-4.06835	4.06835	0.81367	-6.50936	6.50936	-7.32303	-97.6404	-8.1367	-57.77057	-54.51589	0
507	-0.81367	-18.71441	-18.71441	8.95037	8.1367	-18.71441	4.06835	-12.20505	-97.6404	-3.25468	-52.88855	-52.07488	0
508	2.44101	-24.4101	-26.85111	11.39138	13.83239	-24.4101	-0.81367	-14.64606	-100.08141	-0.81367	-52.88855	-47.19286	0
509	4.88202	-18.71441	-24.4101	6.50936	13.83239	-21.15542	-3.25468	-17.08707	-102.52242	-0.81367	-50.44754	-47.19286	0
510	14.64606	-4.06835	-18.71441	-5.69569	16.2734	-11.39138	-3.25468	-21.96909	-102.52242	1.62734	-50.44754	-44.75185	0
511	21.96909	13.01872	-8.95037	-17.90074	16.2734	3.25468	-5.69569	-21.96909	-102.52242	4.06835	-48.00653	-42.31084	0
512	19.52808	22.78276	3.25468	-20.34175	8.1367	13.01872	-8.1367	-24.4101	-102.52242	4.06835	-45.56552	-42.31084	0
513	19.52808	27.66478	8.1367	-22.78276	5.69569	17.90074	-8.1367	-19.52808	-95.19939	6.50936	-43.12451	-39.86983	0
514	26.85111	27.66478	0.81367	-27.66478	13.83239	15.45973	-5.69569	-14.64606	-90.31737	6.50936	-38.24249	-34.98781	0
515	31.73313	22.78276	-8.95037	-27.66478	21.15542	8.1367	-5.69569	-14.64606	-87.87636	8.95037	-38.24249	-34.98781	0
516	36.61515	15.45973	-21.15542	-25.22377	28.47845	-1.62734	-0.81367	-17.08707	-87.87636	8.95037	-38.24249	-34.98781	0
517	34.17414	0.81367	-34.17414	-17.90074	33.36047	-16.2734	4.06835	-14.64606	-87.87636	11.39138	-35.80148	-32.5468	0
518	39.05616	-8.95037	-48.8202	-15.45973	43.12451	-29.29212	8.95037	-9.76404	-87.87636	13.83239	-35.80148	-32.5468	0
519	46.37919	-11.39138	-58.58424	-17.90074	52.88855	-34.17414	6.50936	-7.32303	-90.31737	8.95037	-35.80148	-34.98781	0
520	39.05616	-13.83239	-53.70222	-13.01872	45.56552	-34.17414	4.06835	-9.76404	-92.75838	6.50936	-38.24249	-39.86983	0
521	34.17414	-13.83239	-48.8202	-10.57771	40.6835	-31.73313	1.62734	-7.32303	-92.75838	6.50936	-38.24249	-39.86983	0
522	29.29212	-16.2734	-46.37919	-5.69569	38.24249	-31.73313	1.62734	0	-85.43535	8.95037	-35.80148	-34.98781	0
523	21.96909	-24.4101	-46.37919	1.62734	33.36047	-34.17414	6.50936	7.32303	-80.55333	11.39138	-30.10579	-30.10579	0
524	14.64606	-29.29212	-43.93818	6.50936	28.47845	-36.61515	6.50936	7.32303	-82.99434	8.95037	-30.10579	-30.10579	0
525	4.88202	-31.73313	-36.61515	11.39138	18.71441	-34.17414	8.95037	7.32303	-82.99434	8.95037	-30.10579	-30.10579	0
526	-0.81367	-36.61515	-36.61515	17.08707	16.2734	-36.61515	13.83239	7.32303	-82.99434	8.95037	-30.10579	-32.5468	0
527	-8.1367	-41.49717	-34.17414	24.4101	10.57771	-39.05616	17.08707	7.32303	-87.87636	6.50936	-32.5468	-39.86983	0
528	-17.90074	-46.37919	-29.29212	31.73313	3.25468	-39.05616	17.08707	2.44101	-95.19939	-0.81367	-40.6835	-47.19286	0
529	-20.34175	-46.37919	-26.85111	31.73313	0.81367	-36.61515	17.08707	-2.44101	-102.52242	-8.1367	-48.00653	-54.51589	0
530	-17.90074	-43.93818	-26.85111	29.29212	3.25468	-36.61515	19.52808	-4.88202	-104.96343	-13.01872	-52.88855	-59.39791	0
531	-22.78276	-58.58424	-36.61515	39.05616	5.69569	-48.8202	24.4101	-4.88202	-104.96343	-13.01872	-52.88855	-61.83892	0
532	-25.22377	-68.34828	-43.93818	46.37919	8.1367	-56.14323	24.4101	-4.88202	-109.84545	-17.90074	-55.32956	-64.27993	0
533	-27.66478	-75.67131	-48.8202	51.26121	8.1367	-63.46626	24.4101	-4.88202	-112.28646	-22.78276	-57.77057	-66.72094	0
534	-32.5468	-78.11232	-46.37919	53.70222	5.69569	-63.46626	24.4101	-4.88202	-112.28646	-25.22377	-57.77057	-66.72094	0
535	-32.5468	-73.2303	-41.49717	51.26121	3.25468	-58.58424	26.85111	-7.32303	-117.16848	-27.66478	-62.65259	-71.60296	0
536	-34.98781	-68.34828	-34.17414	51.26121	-1.62734	-51.26121	21.96909	-14.64606	-124.49151	-30.10579	-65.0936	-78.92599	0
537	-34.98781	-58.58424	-24.4101	46.37919	-6.50936	-41.49717	19.52808	-19.52808	-131.81454	-34.98781	-72.41663	-86.24902	0
538	-34.98781	-53.70222	-18.71441	43.93818	-8.95037	-36.61515	13.83239	-21.96909	-136.69656	-39.86983	-77.29865	-91.13104	0
539	-34.98781	-53.70222	-18.71441	43.93818	-8.95037	-36.61515	13.83239	-21.96909	-139.13757	-39.86983	-77.29865	-91.13104	0
540	-34.98781	-58.58424	-24.4101	46.37919	-6.50936	-41.49717	17.08707	-21.96909	-139.13757	-39.86983	-77.29865	-91.13104	0
541	-34.98781	-68.34828	-34.17414	51.26121	-1.62734	-51.26121	13.83239	-19.52808	-136.69656	-37.42882	-77.29865	-88.69003	0
542	-37.42882	-78.11232	-41.49717	56.14323	0.81367	-61.02525	13.83239	-14.64606	-131.81454	-32.5468	-72.41663	-81.367	0
543	-39.86983	-87.87636	-48.8202	63.46626	3.25468	-68.34828	19.52808	-4.88202	-124.49151	-27.66478	-67.53461	-74.04397	0
544	-37.42882	-90.31737	-53.70222	63.46626	5.69569	-73.2303	24.4101	0	-119.60949	-27.66478	-65.0936	-69.16195	0
545	-30.10579	-92.75838	-63.46626	61.02525	16.2734	-78.11232	29.29212	0	-117.16848	-22.78276	-62.65259	-69.16195	0
546	-22.78276	-92.75838	-70.78929	56.14323	23.59643	-82.99434	29.29212	-2.44101	-117.16848	-22.78276	-65.0936	-69.16195	0
547	-17.90074	-85.43535	-68.34828	51.26121	23.59643	-78.11232	29.29212	-7.32303	-122.0505	-22.78276	-67.53461	-74.04397	0
548	-20.34175	-80.55333	-61.02525	48.8202	18.71441	-70.78929	29.29212	-7.32303	-124.49151	-25.22377	-69.97562	-76.48498	0
549	-27.66478	-73.2303	-46.37919	48.8202	8.1367	-61.02525	26.85111	-12.20505	-129.37353	-25.22377	-72.41663	-78.92599	0
550	-37.42882	-73.2303	-36.61515	53.70222	-1.62734	-56.14323	21.96909	-14.64606	-129.37353	-25.22377	-72.41663	-78.92599	0
551	-44.75185	-68.34828	-24.4101	56.14323	-11.39138	-46.37919	19.52808	-14.64606	-129.37353	-22.78276	-69.97562	-78.92599	0
552	-47.19286	-68.34828	-21.15542	56.14323	-13.83239	-46.37919	19.52808	-9.76404	-126.93252	-17.90074	-65.0936	-71.60296	0
553	-49.63387	-61.02525	-11.39138	53.70222	-21.15542	-36.61515	21.96909	-4.88202	-122.0505	-13.01872	-60.21158	-66.72094	0
554	-54.51589	-53.70222	0.81367	53.70222	-28.47845	-26.85111	26.85111	0	-119.60949	-13.01872	-57.77057	-66.72094	0
555	-52.07488	-51.26121	0.81367	51.26121	-28.47845	-26.85111	26.85111	-2.44101	-119.60949	-13.01872	-60.21158	-66.72094	0
556	-47.19286	-56.14323	-8.95037	51.26121	-21.15542	-34.17414	29.29212	-4.88202	-124.49151	-15.45973	-62.65259	-71.60296	0
557	-42.31084	-58.58424	-16.2734	48.8202	-13.83239	-39.05616	31.73313	-4.88202	-124.49151	-15.45973	-65.0936	-74.04397	0
558	-37.42882	-58.58424	-21.15542	46.37919	-8.95037	-41.49717	31.73313	-7.32303	-129.37353	-17.90074	-67.53461	-76.48498	0
559	-37.42882	-61.02525	-24.4101	48.8202	-8.95037	-43.93818	34.17414	-9.76404	-131.81454	-17.90074	-67.53461	-76.48498	0
560	-32.5468	-68.34828	-36.61515	48.8202	0.81367	-53.70222	34.17414	-9.76404	-131.81454	-15.45973	-65.0936	-74.04397	0
561	-22.78276	-73.2303	-51.26121	46.37919	13.83239	-63.46626	34.17414	-9.76404	-131.81454	-10.57771	-60.21158	-71.60296	0
562	-15.45973	-78.11232	-63.46626	46.37919	23.59643	-70.78929	34.17414	-7.32303	-129.37353	-5.69569	-55.32956	-66.72094	0
563	-10.57771	-75.67131	-65.90727	41.49717	26.03744	-70.78929	29.29212	-4.88202	-126.93252	-5.69569	-52.88855	-64.27993	0
564	-15.45973	-75.67131	-61.02525	43.93818	21.15542	-68.34828	26.85111	-7.32303	-129.37353	-10.57771	-55.32956	-66.72094	0
565	-15.45973	-73.2303	-58.58424	43.93818	21.15542	-65.90727	24.4101	-12.20505	-131.81454	-10.57771	-60.21158	-69.16195	0
566	-20.34175	-70.78929	-51.26121	43.93818	13.83239	-61.02525	24.4101	-14.64606	-131.81454	-10.57771	-60.21158	-71.60296	0
567	-30.10579	-73.2303	-43.93818	51.26121	5.69569	-58.58424	21.96909	-17.08707	-134.25555	-13.01872	-62.65259	-76.48498	0
568	-39.86983	-75.67131	-36.61515	56.14323	-4.06835	-56.14323	21.96909	-17.08707	-134.25555	-13.01872	-62.65259	-76.48498	0
569	-47.19286	-80.55333	-34.17414	63.46626	-8.95037	-58.58424	21.96909	-14.64606	-134.25555	-13.01872	-62.65259	-76.48498	0
570	-47.19286	-80.55333	-34.17414	63.46626	-8.95037	-58.58424	21.96909	-17.08707	-134.25555	-10.57771	-65.0936	-76.48498	0
571	-49.63387	-80.55333	-31.73313	63.46626	-11.39138	-56.14323	17.08707	-17.08707	-134.25555	-10.57771	-62.65259	-76.48498	0
572	-54.51589	-80.55333	-26.85111	65.90727	-16.2734	-53.70222	13.83239	-14.64606	-131.81454	-10.57771	-60.21158	-74.04397	0
573	-54.51589	-80.55333	-26.85111	65.90727	-16.2734	-53.70222	13.83239	-9.76404	-131.81454	-10.57771	-60.21158	-74.04397	0
574	-54.51589	-78.11232	-24.4101	65.90727	-16.2734	-51.26121	13.83239	0	-129.37353	-17.90074	-65.0936	-74.04397	0
575	-49.63387	-82.99434	-34.17414	65.90727	-8.95037	-58.58424	21.96909	12.20505	-126.93252	-22.78276	-69.97562	-78.92599	0
576	-47.19286	-90.31737	-43.93818	68.34828	-4.06835	-68.34828	36.61515	31.73313	-122.0505	-30.10579	-77.29865	-91.13104	0
577	-47.19286	-102.52242	-56.14323	73.2303	3.25468	-80.55333	58.58424	54.51589	-114.72747	-39.86983	-87.06269	-100.89508	0
578	-44.75185	-117.16848	-73.2303	80.55333	13.83239	-95.19939	75.67131	74.04397	-117.16848	-55.32956	-104.14976	-115.54114	0
579	-39.86983	-126.93252	-87.87636	82.99434	23.59643	-107.40444	87.87636	83.80801	-119.60949	-72.41663	-123.67784	-132.62821	0
580	-37.42882	-126.93252	-90.31737	80.55333	26.03744	-109.84545	97.6404	83.80801	-119.60949	-84.62168	-135.88289	-139.95124	0
581	-37.42882	-112.28646	-75.67131	73.2303	18.71441	-95.19939	95.19939	64.27993	-117.16848	-84.62168	-140.76491	-142.39225	0
582	-34.98781	-70.78929	-36.61515	51.26121	-1.62734	-53.70222	78.11232	19.52808	-117.16848	-69.97562	-131.00087	-125.30518	0
583	-27.66478	-18.71441	8.1367	21.96909	-18.71441	-6.50936	46.37919	-53.70222	-112.28646	-25.22377	-91.94471	-81.367	0
584	-10.57771	52.07488	61.83892	-20.34175	-35.80148	56.9569	-3.25468	-158.66565	-97.6404	57.77057	-20.34175	-14.64606	0
585	14.64606	157.03831	142.39225	-86.24902	-65.0936	149.71528	-74.04397	-292.9212	-63.46626	196.90814	96.82673	90.31737	0
586	53.70222	288.85285	235.15063	-171.68437	-91.94471	262.00174	-171.68437	-449.14584	-9.76404	387.30692	260.3744	227.01393	0
587	100.08141	425.54941	325.468	-262.00174	-113.9138	376.72921	-283.97083	-627.33957	54.51589	621.64388	460.53722	393.00261	0
588	156.22464	576.89203	420.66739	-366.96517	-133.44188	498.77971	-403.58032	-805.5333	127.74619	890.15498	685.11014	571.19634	0
589	200.16282	737.99869	537.83587	-469.48759	-170.05703	637.91728	-523.18981	-983.72703	193.65346	1173.31214	917.00609	756.7131	0
590	234.33696	901.54636	667.2094	-567.12799	-216.43622	784.37788	-637.91728	-1152.15672	235.15063	1446.70526	1139.138	930.02481	0
591	251.42403	1043.12494	791.70091	-647.68132	-270.13844	918.63343	-737.99869	-1296.17631	244.91467	1687.55158	1322.21375	1076.48541	0
592	246.54201	1150.52938	903.98737	-698.94253	-328.72268	1028.47888	-811.22899	-1413.34479	218.06356	1875.50935	1451.58728	1181.44884	0
593	229.45494	1228.6417	999.18676	-728.23465	-384.86591	1113.91423	-850.28515	-1491.45711	154.5973	2000.00086	1522.37657	1235.15106	0
594	192.83979	1250.61079	1057.771	-720.91162	-433.68611	1155.4114	-857.60818	-1523.19024	69.16195	2063.46712	1537.02263	1247.35611	0
595	151.34262	1211.55463	1060.21201	-681.85546	-455.6552	1135.88332	-835.63909	-1508.54418	-19.52808	2051.26207	1490.64344	1208.29995	0
596	117.16848	1116.35524	999.18676	-615.94819	-441.00914	1057.771	-796.58293	-1447.51893	-107.40444	1953.62167	1378.35698	1113.10056	0
597	78.11232	967.45363	889.34131	-523.18981	-406.835	928.39747	-730.67566	-1337.67348	-173.31171	1782.75097	1214.80931	981.28602	0
598	51.26121	784.37788	733.11667	-418.22638	-340.92773	759.96778	-655.00435	-1188.77187	-214.80888	1563.87374	1021.96952	825.06138	0
599	29.29212	586.65607	557.36395	-308.38093	-265.25642	572.01001	-564.68698	-1010.57814	-236.77797	1297.80365	809.60165	654.19068	0
600	9.76404	391.37527	381.61123	-200.97649	-187.1441	386.49325	-459.72355	-822.62037	-246.54201	1002.44144	582.58772	473.55594	0
601	-10.57771	220.50457	230.26861	-105.7771	-121.23683	225.38659	-357.20113	-646.86765	-256.30605	704.63822	367.77884	302.68524	0
602	-32.5468	86.24902	117.98215	-27.66478	-74.85764	100.89508	-257.11972	-485.76099	-256.30605	448.33217	189.58511	161.10666	0
603	-44.75185	-4.06835	39.86983	24.4101	-43.12451	17.90074	-169.24336	-346.62342	-244.101	255.49238	57.77057	53.70222	0
604	-56.9569	-53.70222	3.25468	53.70222	-30.91946	-26.85111	-88.69003	-224.57292	-224.57292	118.79582	-25.22377	-19.52808	0
605	-61.83892	-80.55333	-18.71441	70.78929	-23.59643	-51.26121	-17.90074	-129.37353	-202.60383	33.36047	-74.85764	-64.27993	0
606	-61.83892	-92.75838	-31.73313	75.67131	-16.2734	-63.46626	31.73313	-56.14323	-173.31171	1.62734	-91.94471	-86.24902	0
607	-56.9569	-87.87636	-31.73313	70.78929	-13.83239	-61.02525	61.02525	7.32303	-131.81454	6.50936	-82.18067	-86.24902	0
608	-47.19286	-78.11232	-31.73313	61.02525	-8.95037	-56.14323	78.11232	56.9569	-85.43535	26.03744	-65.0936	-76.48498	0
609	-37.42882	-75.67131	-39.05616	56.14323	-1.62734	-58.58424	85.43535	96.01306	-43.93818	45.56552	-48.00653	-69.16195	0
610	-25.22377	-73.2303	-48.8202	48.8202	10.57771	-61.02525	92.75838	122.86417	-9.76404	57.77057	-35.80148	-61.83892	0
611	-15.45973	-75.67131	-61.02525	43.93818	21.15542	-68.34828	92.75838	139.95124	13.01872	67.53461	-25.22377	-56.9569	0
612	-13.01872	-68.34828	-56.14323	39.05616	21.15542	-63.46626	87.87636	147.27427	30.10579	67.53461	-20.34175	-54.51589	0
613	-8.1367	-65.90727	-58.58424	36.61515	23.59643	-63.46626	78.11232	144.83326	42.31084	65.0936	-20.34175	-54.51589	0
614	-8.1367	-70.78929	-63.46626	39.05616	26.03744	-68.34828	73.2303	139.95124	47.19286	57.77057	-22.78276	-59.39791	0
615	-10.57771	-75.67131	-65.90727	41.49717	26.03744	-70.78929	70.78929	135.06922	49.63387	52.88855	-27.66478	-64.27993	0
616	-17.90074	-78.11232	-61.02525	46.37919	21.15542	-70.78929	75.67131	135.06922	52.07488	45.56552	-30.10579	-69.16195	0
617	-22.78276	-78.11232	-56.14323	48.8202	16.2734	-68.34828	78.11232	132.62821	52.07488	38.24249	-35.80148	-76.48498	0
618	-30.10579	-85.43535	-56.14323	56.14323	10.57771	-70.78929	82.99434	135.06922	54.51589	35.80148	-35.80148	-76.48498	0
619	-37.42882	-95.19939	-58.58424	65.90727	8.1367	-78.11232	87.87636	135.06922	54.51589	28.47845	-40.6835	-78.92599	0
620	-42.31084	-97.6404	-56.14323	68.34828	5.69569	-78.11232	87.87636	137.51023	54.51589	26.03744	-40.6835	-78.92599	0
621	-39.86983	-97.6404	-58.58424	68.34828	8.1367	-78.11232	87.87636	137.51023	54.51589	26.03744	-38.24249	-76.48498	0
622	-27.66478	-90.31737	-63.46626	58.58424	16.2734	-78.11232	87.87636	142.39225	56.9569	23.59643	-38.24249	-74.04397	0
623	-22.78276	-85.43535	-63.46626	53.70222	18.71441	-75.67131	87.87636	149.71528	59.39791	23.59643	-35.80148	-66.72094	0
624	-17.90074	-85.43535	-68.34828	51.26121	23.59643	-78.11232	82.99434	152.15629	56.9569	18.71441	-32.5468	-66.72094	0
625	-10.57771	-85.43535	-75.67131	46.37919	30.91946	-80.55333	82.99434	152.15629	56.9569	16.2734	-35.80148	-69.16195	0
626	-5.69569	-80.55333	-75.67131	41.49717	33.36047	-78.11232	85.43535	154.5973	59.39791	18.71441	-30.10579	-69.16195	0
627	-0.81367	-70.78929	-70.78929	34.17414	33.36047	-70.78929	85.43535	154.5973	59.39791	16.2734	-32.5468	-74.04397	0
628	-0.81367	-65.90727	-65.90727	31.73313	30.91946	-65.90727	80.55333	149.71528	52.07488	8.95037	-35.80148	-78.92599	0
629	-8.1367	-68.34828	-61.02525	36.61515	26.03744	-65.90727	78.11232	144.83326	52.07488	4.06835	-38.24249	-83.80801	0
630	-5.69569	-68.34828	-63.46626	36.61515	28.47845	-65.90727	78.11232	144.83326	52.07488	4.06835	-35.80148	-81.367	0
631	-5.69569	-65.90727	-61.02525	34.17414	26.03744	-63.46626	78.11232	147.27427	59.39791	11.39138	-32.5468	-74.04397	0
632	-5.69569	-63.46626	-58.58424	34.17414	26.03744	-61.02525	78.11232	154.5973	66.72094	13.83239	-25.22377	-66.72094	0
633	-5.69569	-63.46626	-58.58424	34.17414	26.03744	-61.02525	78.11232	159.47932	71.60296	13.83239	-20.34175	-59.39791	0
634	-5.69569	-63.46626	-58.58424	34.17414	26.03744	-61.02525	85.43535	169.24336	78.92599	18.71441	-13.01872	-52.07488	0
635	-3.25468	-65.90727	-63.46626	34.17414	28.47845	-65.90727	92.75838	174.12538	88.69003	23.59643	-8.1367	-47.19286	0
636	-3.25468	-73.2303	-70.78929	36.61515	33.36047	-73.2303	97.6404	174.12538	91.13104	26.03744	-5.69569	-47.19286	0
637	-8.1367	-82.99434	-75.67131	43.93818	33.36047	-80.55333	97.6404	174.12538	93.57205	26.03744	-8.1367	-52.07488	0
638	-10.57771	-95.19939	-85.43535	51.26121	35.80148	-90.31737	100.08141	174.12538	96.01306	26.03744	-8.1367	-56.9569	0
639	-3.25468	-95.19939	-92.75838	48.8202	43.12451	-95.19939	100.08141	171.68437	96.01306	26.03744	-10.57771	-64.27993	0
640	-3.25468	-102.52242	-100.08141	51.26121	48.00653	-102.52242	100.08141	171.68437	98.45407	28.47845	-8.1367	-69.16195	0
641	-5.69569	-109.84545	-104.96343	56.14323	48.00653	-107.40444	95.19939	171.68437	100.89508	30.91946	-8.1367	-71.60296	0
642	-5.69569	-109.84545	-104.96343	56.14323	48.00653	-107.40444	95.19939	176.56639	105.7771	33.36047	-5.69569	-71.60296	0
643	-8.1367	-95.19939	-87.87636	51.26121	38.24249	-92.75838	90.31737	179.0074	110.65912	33.36047	-5.69569	-71.60296	0
644	-8.1367	-85.43535	-78.11232	46.37919	33.36047	-82.99434	87.87636	181.44841	113.10013	30.91946	-5.69569	-71.60296	0
645	-10.57771	-82.99434	-73.2303	46.37919	30.91946	-78.11232	90.31737	183.88942	117.98215	30.91946	-8.1367	-69.16195	0
646	-10.57771	-78.11232	-68.34828	43.93818	28.47845	-73.2303	92.75838	183.88942	125.30518	33.36047	-8.1367	-66.72094	0
647	-10.57771	-75.67131	-65.90727	41.49717	26.03744	-70.78929	95.19939	183.88942	127.74619	33.36047	-10.57771	-66.72094	0
648	-8.1367	-70.78929	-63.46626	39.05616	26.03744	-68.34828	95.19939	181.44841	130.1872	30.91946	-13.01872	-66.72094	0
649	-5.69569	-65.90727	-61.02525	34.17414	26.03744	-63.46626	95.19939	181.44841	132.62821	28.47845	-15.45973	-64.27993	0
650	-5.69569	-63.46626	-58.58424	34.17414	26.03744	-61.02525	92.75838	181.44841	137.51023	26.03744	-15.45973	-61.83892	0
651	-0.81367	-58.58424	-58.58424	29.29212	28.47845	-58.58424	87.87636	183.88942	139.95124	26.03744	-13.01872	-56.9569	0
652	2.44101	-51.26121	-53.70222	24.4101	26.03744	-51.26121	78.11232	183.88942	142.39225	21.15542	-13.01872	-56.9569	0
653	4.88202	-51.26121	-56.14323	21.96909	28.47845	-53.70222	70.78929	186.33043	147.27427	18.71441	-13.01872	-54.51589	0
654	9.76404	-53.70222	-63.46626	21.96909	35.80148	-58.58424	68.34828	191.21245	152.15629	13.83239	-13.01872	-52.07488	-1250	T-0
655	14.64606	-61.02525	-75.67131	21.96909	43.12451	-68.34828	73.2303	193.65346	161.92033	18.71441	-10.57771	-44.75185	0
656	14.64606	-63.46626	-78.11232	24.4101	45.56552	-70.78929	80.55333	198.53548	171.68437	23.59643	-5.69569	-39.86983	0
657	14.64606	-68.34828	-82.99434	26.85111	48.00653	-75.67131	85.43535	200.97649	176.56639	23.59643	-3.25468	-37.42882	0
658	12.20505	-80.55333	-92.75838	34.17414	50.44754	-85.43535	92.75838	208.29952	186.33043	26.03744	1.62734	-32.5468	0
659	7.32303	-87.87636	-95.19939	39.05616	50.44754	-90.31737	97.6404	215.62255	193.65346	26.03744	6.50936	-27.66478	0
660	4.88202	-87.87636	-92.75838	41.49717	48.00653	-90.31737	100.08141	220.50457	198.53548	26.03744	11.39138	-21.96909	0
661	-0.81367	-92.75838	-92.75838	46.37919	45.56552	-92.75838	97.6404	222.94558	203.4175	26.03744	11.39138	-19.52808	0
662	-3.25468	-97.6404	-95.19939	48.8202	45.56552	-97.6404	92.75838	225.38659	205.85851	21.15542	11.39138	-19.52808	0
663	-8.1367	-109.84545	-102.52242	58.58424	45.56552	-107.40444	87.87636	227.8276	208.29952	16.2734	11.39138	-17.08707	0
664	-5.69569	-107.40444	-102.52242	56.14323	48.00653	-104.96343	85.43535	232.70962	215.62255	11.39138	11.39138	-14.64606	0
665	-5.69569	-104.96343	-100.08141	53.70222	45.56552	-102.52242	85.43535	232.70962	222.94558	11.39138	11.39138	-12.20505	0
666	-0.81367	-100.08141	-100.08141	48.8202	48.00653	-100.08141	85.43535	232.70962	227.8276	11.39138	11.39138	-14.64606	0
667	9.76404	-92.75838	-102.52242	41.49717	55.32956	-97.6404	85.43535	232.70962	230.26861	11.39138	8.95037	-17.08707	0
668	21.96909	-82.99434	-104.96343	29.29212	62.65259	-92.75838	82.99434	232.70962	235.15063	8.95037	6.50936	-19.52808	0
669	29.29212	-65.90727	-95.19939	17.08707	60.21158	-80.55333	85.43535	237.59164	242.47366	11.39138	8.95037	-19.52808	0
670	31.73313	-56.14323	-87.87636	11.39138	57.77057	-70.78929	85.43535	237.59164	247.35568	13.83239	11.39138	-17.08707	0
671	31.73313	-56.14323	-87.87636	11.39138	57.77057	-70.78929	82.99434	242.47366	252.2377	13.83239	13.83239	-14.64606	0
672	29.29212	-56.14323	-85.43535	11.39138	55.32956	-70.78929	80.55333	247.35568	257.11972	13.83239	16.2734	-14.64606	0
673	26.85111	-61.02525	-87.87636	17.08707	55.32956	-73.2303	80.55333	252.2377	269.32477	16.2734	18.71441	-7.32303	0
674	24.4101	-70.78929	-95.19939	21.96909	57.77057	-82.99434	85.43535	264.44275	283.97083	23.59643	28.47845	0	0
675	29.29212	-80.55333	-109.84545	24.4101	67.53461	-95.19939	90.31737	269.32477	296.17588	30.91946	33.36047	4.88202	0
676	34.17414	-90.31737	-124.49151	26.85111	77.29865	-107.40444	95.19939	274.20679	308.38093	38.24249	38.24249	7.32303	0
677	41.49717	-90.31737	-131.81454	24.4101	84.62168	-109.84545	97.6404	276.6478	315.70396	40.6835	40.6835	7.32303	0
678	48.8202	-85.43535	-134.25555	17.08707	89.5037	-109.84545	97.6404	281.52982	325.468	45.56552	43.12451	7.32303	0
679	56.14323	-87.87636	-144.01959	14.64606	99.26774	-114.72747	97.6404	283.97083	332.79103	50.44754	48.00653	9.76404	0
680	53.70222	-82.99434	-136.69656	14.64606	94.38572	-109.84545	92.75838	286.41184	337.67305	52.88855	50.44754	9.76404	0
681	46.37919	-80.55333	-126.93252	17.08707	84.62168	-102.52242	85.43535	288.85285	342.55507	55.32956	52.88855	9.76404	0
682	34.17414	-80.55333	-114.72747	21.96909	72.41663	-97.6404	80.55333	293.73487	349.8781	60.21158	55.32956	12.20505	0
683	31.73313	-82.99434	-114.72747	24.4101	72.41663	-97.6404	73.2303	296.17588	359.64214	60.21158	60.21158	14.64606	0
684	26.85111	-90.31737	-117.16848	31.73313	69.97562	-102.52242	70.78929	301.0579	369.40618	62.65259	62.65259	14.64606	0
685	24.4101	-92.75838	-117.16848	34.17414	69.97562	-104.96343	70.78929	303.49891	379.17022	67.53461	65.0936	14.64606	0
686	26.85111	-90.31737	-117.16848	31.73313	69.97562	-102.52242	70.78929	305.93992	388.93426	72.41663	69.97562	9.76404	0
687	29.29212	-90.31737	-119.60949	29.29212	72.41663	-104.96343	73.2303	310.82194	398.6983	77.29865	72.41663	9.76404	0
688	36.61515	-85.43535	-122.0505	24.4101	77.29865	-102.52242	73.2303	315.70396	406.02133	79.73966	74.85764	9.76404	0
689	43.93818	-75.67131	-119.60949	14.64606	79.73966	-97.6404	73.2303	318.14497	413.34436	84.62168	77.29865	12.20505	0
690	46.37919	-65.90727	-112.28646	8.95037	77.29865	-87.87636	70.78929	320.58598	420.66739	87.06269	79.73966	17.08707	0
691	56.14323	-51.26121	-107.40444	-3.25468	79.73966	-78.11232	65.90727	323.02699	427.99042	91.94471	84.62168	21.96909	0
692	65.90727	-36.61515	-102.52242	-15.45973	82.18067	-68.34828	61.02525	327.90901	440.19547	99.26774	91.94471	29.29212	0
693	68.34828	-24.4101	-92.75838	-22.78276	79.73966	-58.58424	53.70222	332.79103	449.95951	101.70875	96.82673	34.17414	0
694	73.2303	-24.4101	-97.6404	-25.22377	84.62168	-61.02525	46.37919	335.23204	462.16456	104.14976	101.70875	36.61515	0
695	80.55333	-24.4101	-104.96343	-27.66478	91.94471	-63.46626	41.49717	335.23204	474.36961	113.9138	106.59077	39.05616	0
696	82.99434	-24.4101	-107.40444	-30.10579	94.38572	-65.90727	39.05616	337.67305	489.01567	121.23683	116.35481	41.49717	0
697	87.87636	-13.83239	-102.52242	-37.42882	94.38572	-58.58424	39.05616	340.11406	503.66173	131.00087	123.67784	46.37919	0
698	85.43535	-8.95037	-95.19939	-37.42882	89.5037	-51.26121	39.05616	347.43709	515.86678	140.76491	133.44188	56.14323	0
699	80.55333	-16.2734	-97.6404	-32.5468	89.5037	-56.14323	41.49717	357.20113	530.51284	150.52895	145.64693	68.34828	0
700	80.55333	-11.39138	-92.75838	-34.98781	87.06269	-51.26121	46.37919	362.08315	542.71789	160.29299	157.85198	80.55333	0
701	78.11232	0.81367	-78.11232	-39.86983	77.29865	-39.05616	41.49717	364.52416	547.59991	167.61602	167.61602	90.31737	0
702	75.67131	8.1367	-68.34828	-42.31084	72.41663	-29.29212	31.73313	364.52416	550.04092	170.05703	172.49804	97.6404	0
703	78.11232	10.57771	-68.34828	-44.75185	72.41663	-29.29212	21.96909	362.08315	552.48193	170.05703	174.93905	102.52242	0
704	87.87636	8.1367	-80.55333	-47.19286	84.62168	-36.61515	11.39138	359.64214	552.48193	170.05703	179.82107	104.96343	0
705	92.75838	13.01872	-80.55333	-52.07488	87.06269	-34.17414	4.06835	349.8781	554.92294	172.49804	182.26208	107.40444	0
706	97.6404	22.78276	-75.67131	-59.39791	87.06269	-26.85111	-0.81367	342.55507	554.92294	177.38006	187.1441	109.84545	0
707	100.08141	30.10579	-70.78929	-64.27993	84.62168	-18.71441	-5.69569	335.23204	554.92294	184.70309	192.02612	114.72747	0
708	107.40444	39.86983	-68.34828	-74.04397	87.06269	-13.83239	-10.57771	327.90901	557.36395	189.58511	199.34915	124.49151	0
709	112.28646	49.63387	-63.46626	-81.367	87.06269	-6.50936	-10.57771	327.90901	559.80496	196.90814	211.5542	136.69656	0
710	109.84545	61.83892	-48.8202	-86.24902	79.73966	8.1367	-13.01872	327.90901	559.80496	204.23117	221.31824	148.90161	0
711	100.08141	71.60296	-29.29212	-86.24902	65.0936	22.78276	-20.34175	320.58598	557.36395	209.11319	228.64127	156.22464	0
712	100.08141	86.24902	-13.83239	-93.57205	57.77057	37.42882	-30.10579	315.70396	552.48193	209.11319	233.52329	165.98868	0
713	97.6404	98.45407	0.81367	-98.45407	48.00653	49.63387	-42.31084	308.38093	545.1589	204.23117	235.9643	170.8707	0
714	97.6404	103.33609	5.69569	-100.89508	45.56552	54.51589	-49.63387	303.49891	542.71789	204.23117	238.40531	178.19373	0
715	95.19939	115.54114	20.34175	-105.7771	38.24249	69.16195	-52.07488	296.17588	540.27688	209.11319	243.28733	185.51676	0
716	95.19939	125.30518	30.10579	-110.65912	33.36047	78.92599	-54.51589	286.41184	535.39486	209.11319	245.72834	190.39878	0
717	97.6404	137.51023	39.86983	-117.98215	28.47845	88.69003	-61.83892	274.20679	528.07183	209.11319	245.72834	192.83979	0
718	97.6404	147.27427	49.63387	-122.86417	23.59643	98.45407	-66.72094	262.00174	515.86678	206.67218	245.72834	192.83979	0
719	102.52242	159.47932	56.9569	-130.1872	23.59643	108.21811	-74.04397	252.2377	501.22072	204.23117	245.72834	195.2808	0
720	107.40444	179.0074	71.60296	-142.39225	18.71441	125.30518	-78.92599	240.03265	479.25163	199.34915	245.72834	200.16282	0
721	109.84545	191.21245	81.367	-149.71528	13.83239	137.51023	-86.24902	227.8276	457.28254	194.46713	245.72834	200.16282	0
722	109.84545	191.21245	81.367	-149.71528	13.83239	137.51023	-93.57205	213.18154	435.31345	184.70309	243.28733	202.60383	0
723	109.84545	191.21245	81.367	-149.71528	13.83239	137.51023	-100.89508	203.4175	415.78537	177.38006	240.84632	202.60383	0
724	102.52242	188.77144	86.24902	-144.83326	8.1367	137.51023	-100.89508	193.65346	396.25729	172.49804	240.84632	205.04484	0
725	95.19939	181.44841	86.24902	-137.51023	3.25468	135.06922	-93.57205	183.88942	381.61123	170.05703	238.40531	207.48585	0
726	85.43535	164.36134	78.92599	-125.30518	3.25468	122.86417	-83.80801	176.56639	366.96517	170.05703	238.40531	207.48585	0
727	78.11232	147.27427	69.16195	-113.10013	3.25468	108.21811	-76.48498	166.80235	349.8781	165.17501	233.52329	207.48585	0
728	78.11232	142.39225	64.27993	-110.65912	5.69569	103.33609	-66.72094	159.47932	330.35002	160.29299	228.64127	207.48585	0
729	75.67131	144.83326	69.16195	-110.65912	3.25468	108.21811	-59.39791	154.5973	310.82194	155.41097	228.64127	207.48585	0
730	75.67131	144.83326	69.16195	-110.65912	3.25468	108.21811	-56.9569	144.83326	288.85285	148.08794	223.75925	200.16282	0
731	78.11232	147.27427	69.16195	-113.10013	3.25468	108.21811	-56.9569	130.1872	262.00174	135.88289	211.5542	185.51676	0
732	80.55333	142.39225	61.83892	-110.65912	8.1367	103.33609	-59.39791	120.42316	237.59164	121.23683	199.34915	168.42969	0
733	75.67131	137.51023	61.83892	-105.7771	5.69569	100.89508	-59.39791	115.54114	218.06356	111.47279	189.58511	156.22464	0
734	70.78929	135.06922	64.27993	-103.33609	3.25468	100.89508	-56.9569	108.21811	196.09447	94.38572	177.38006	141.57858	0
735	56.14323	117.98215	61.83892	-86.24902	-4.06835	91.13104	-49.63387	100.89508	179.0074	82.18067	160.29299	126.93252	0
736	46.37919	105.7771	59.39791	-76.48498	-6.50936	83.80801	-39.86983	93.57205	161.92033	69.97562	148.08794	112.28646	0
737	36.61515	93.57205	56.9569	-64.27993	-11.39138	76.48498	-30.10579	86.24902	144.83326	57.77057	133.44188	102.52242	0
738	21.96909	81.367	59.39791	-52.07488	-18.71441	71.60296	-20.34175	83.80801	130.1872	48.00653	123.67784	97.6404	0
739	17.08707	76.48498	59.39791	-47.19286	-21.15542	69.16195	-15.45973	78.92599	115.54114	35.80148	111.47279	90.31737	0
740	17.08707	76.48498	59.39791	-47.19286	-21.15542	69.16195	-10.57771	74.04397	98.45407	23.59643	101.70875	80.55333	0
741	19.52808	76.48498	56.9569	-47.19286	-18.71441	66.72094	-5.69569	66.72094	78.92599	11.39138	91.94471	70.78929	0
742	24.4101	74.04397	49.63387	-49.63387	-13.83239	61.83892	-10.57771	59.39791	59.39791	-3.25468	77.29865	56.14323	0
743	26.85111	74.04397	47.19286	-49.63387	-11.39138	61.83892	-13.01872	54.51589	42.31084	-17.90074	65.0936	43.93818	0
744	31.73313	74.04397	42.31084	-52.07488	-6.50936	59.39791	-8.1367	54.51589	32.5468	-30.10579	55.32956	34.17414	0
745	34.17414	66.72094	32.5468	-49.63387	0.81367	49.63387	-3.25468	47.19286	20.34175	-39.86983	45.56552	21.96909	0
746	26.85111	47.19286	20.34175	-37.42882	3.25468	34.98781	4.06835	39.05616	10.57771	-48.00653	35.80148	12.20505	0
747	14.64606	30.10579	15.45973	-22.78276	-1.62734	22.78276	11.39138	36.61515	3.25468	-50.44754	28.47845	4.88202	0
748	9.76404	22.78276	13.01872	-15.45973	-1.62734	17.90074	17.08707	36.61515	0	-55.32956	21.15542	0	0
749	-0.81367	15.45973	15.45973	-8.1367	-8.95037	15.45973	24.4101	34.17414	-4.88202	-60.21158	18.71441	-4.88202	0
750	-3.25468	3.25468	5.69569	-0.81367	-4.06835	3.25468	26.85111	31.73313	-14.64606	-65.0936	13.83239	-7.32303	0
751	-10.57771	-11.39138	-1.62734	11.39138	-4.06835	-6.50936	26.85111	31.73313	-21.96909	-69.97562	11.39138	-7.32303	0
752	-15.45973	-13.83239	0.81367	14.64606	-8.95037	-6.50936	19.52808	26.85111	-31.73313	-79.73966	4.06835	-14.64606	0
753	-13.01872	-13.83239	-1.62734	11.39138	-6.50936	-8.95037	11.39138	19.52808	-41.49717	-91.94471	-5.69569	-24.4101	0
754	-8.1367	-16.2734	-8.95037	11.39138	0.81367	-13.83239	4.06835	12.20505	-51.26121	-101.70875	-13.01872	-32.5468	0
755	-8.1367	-24.4101	-16.2734	14.64606	3.25468	-21.15542	4.06835	7.32303	-56.14323	-106.59077	-20.34175	-39.86983	0
756	-8.1367	-34.17414	-26.85111	19.52808	8.1367	-31.73313	6.50936	4.88202	-56.14323	-106.59077	-22.78276	-42.31084	0
757	-10.57771	-34.17414	-24.4101	21.96909	5.69569	-29.29212	8.95037	2.44101	-58.58424	-111.47279	-30.10579	-49.63387	0
758	-3.25468	-26.85111	-24.4101	14.64606	8.1367	-26.85111	11.39138	-2.44101	-63.46626	-116.35481	-35.80148	-52.07488	0
759	2.44101	-24.4101	-26.85111	11.39138	13.83239	-24.4101	13.83239	-2.44101	-63.46626	-116.35481	-38.24249	-52.07488	0
760	4.88202	-24.4101	-29.29212	8.95037	16.2734	-26.85111	19.52808	0	-65.90727	-118.79582	-38.24249	-49.63387	0
761	2.44101	-21.15542	-24.4101	8.95037	13.83239	-21.15542	21.96909	0	-68.34828	-118.79582	-38.24249	-44.75185	0
762	2.44101	-18.71441	-21.15542	8.95037	10.57771	-18.71441	21.96909	0	-70.78929	-121.23683	-38.24249	-44.75185	0
763	-0.81367	-24.4101	-24.4101	11.39138	10.57771	-24.4101	19.52808	0	-73.2303	-126.11885	-40.6835	-44.75185	0
764	-0.81367	-29.29212	-29.29212	14.64606	13.83239	-29.29212	17.08707	-2.44101	-73.2303	-131.00087	-43.12451	-44.75185	0
765	-8.1367	-39.05616	-31.73313	21.96909	10.57771	-36.61515	17.08707	-7.32303	-78.11232	-133.44188	-48.00653	-49.63387	0
766	-15.45973	-41.49717	-26.85111	26.85111	3.25468	-34.17414	13.83239	-14.64606	-80.55333	-135.88289	-52.88855	-56.9569	0
767	-22.78276	-51.26121	-29.29212	36.61515	0.81367	-41.49717	13.83239	-19.52808	-85.43535	-140.76491	-57.77057	-61.83892	0
768	-27.66478	-56.14323	-29.29212	41.49717	-1.62734	-43.93818	8.95037	-26.85111	-90.31737	-143.20592	-65.0936	-66.72094	0
769	-30.10579	-53.70222	-24.4101	41.49717	-4.06835	-39.05616	4.06835	-31.73313	-92.75838	-145.64693	-67.53461	-66.72094	0
770	-32.5468	-43.93818	-11.39138	36.61515	-11.39138	-29.29212	-0.81367	-36.61515	-95.19939	-145.64693	-67.53461	-69.16195	0
771	-32.5468	-34.17414	-1.62734	31.73313	-16.2734	-18.71441	-0.81367	-34.17414	-97.6404	-143.20592	-65.0936	-66.72094	0
772	-30.10579	-31.73313	-1.62734	29.29212	-16.2734	-16.2734	-0.81367	-29.29212	-92.75838	-138.3239	-60.21158	-61.83892	0
773	-22.78276	-29.29212	-6.50936	24.4101	-8.95037	-18.71441	-0.81367	-24.4101	-87.87636	-135.88289	-55.32956	-56.9569	0
774	-17.90074	-24.4101	-6.50936	19.52808	-6.50936	-16.2734	-0.81367	-17.08707	-82.99434	-135.88289	-55.32956	-56.9569	0
775	-15.45973	-31.73313	-16.2734	21.96909	-1.62734	-24.4101	4.06835	-17.08707	-80.55333	-133.44188	-55.32956	-56.9569	0
776	-10.57771	-39.05616	-29.29212	24.4101	8.1367	-34.17414	8.95037	-14.64606	-78.11232	-131.00087	-55.32956	-56.9569	0
777	-8.1367	-46.37919	-39.05616	26.85111	13.83239	-43.93818	13.83239	-14.64606	-75.67131	-131.00087	-57.77057	-54.51589	0
778	-8.1367	-48.8202	-41.49717	26.85111	16.2734	-46.37919	13.83239	-17.08707	-78.11232	-135.88289	-62.65259	-54.51589	0
779	-3.25468	-46.37919	-43.93818	24.4101	18.71441	-46.37919	11.39138	-19.52808	-78.11232	-140.76491	-65.0936	-54.51589	0
780	-0.81367	-51.26121	-51.26121	24.4101	23.59643	-51.26121	8.95037	-24.4101	-80.55333	-143.20592	-65.0936	-54.51589	0
781	2.44101	-51.26121	-53.70222	24.4101	26.03744	-51.26121	6.50936	-24.4101	-82.99434	-143.20592	-62.65259	-52.07488	0
782	-0.81367	-43.93818	-43.93818	21.96909	21.15542	-43.93818	4.06835	-24.4101	-82.99434	-143.20592	-62.65259	-52.07488	0
783	-3.25468	-43.93818	-41.49717	21.96909	18.71441	-43.93818	1.62734	-24.4101	-82.99434	-143.20592	-62.65259	-54.51589	0
784	-5.69569	-43.93818	-39.05616	24.4101	16.2734	-41.49717	1.62734	-19.52808	-80.55333	-143.20592	-62.65259	-61.83892	0
785	-5.69569	-46.37919	-41.49717	24.4101	16.2734	-43.93818	6.50936	-17.08707	-78.11232	-140.76491	-65.0936	-64.27993	0
786	-5.69569	-43.93818	-39.05616	24.4101	16.2734	-41.49717	11.39138	-17.08707	-73.2303	-140.76491	-67.53461	-66.72094	0
787	-10.57771	-41.49717	-31.73313	24.4101	8.1367	-36.61515	11.39138	-17.08707	-73.2303	-145.64693	-74.85764	-71.60296	0
788	-15.45973	-39.05616	-24.4101	26.85111	3.25468	-31.73313	11.39138	-17.08707	-75.67131	-150.52895	-82.18067	-74.04397	0
789	-13.01872	-41.49717	-29.29212	26.85111	5.69569	-36.61515	13.83239	-17.08707	-75.67131	-155.41097	-84.62168	-74.04397	0
790	-13.01872	-46.37919	-34.17414	29.29212	8.1367	-41.49717	13.83239	-14.64606	-73.2303	-152.96996	-82.18067	-64.27993	0
791	-15.45973	-46.37919	-31.73313	29.29212	5.69569	-39.05616	13.83239	-12.20505	-70.78929	-150.52895	-77.29865	-54.51589	0
792	-15.45973	-43.93818	-29.29212	29.29212	5.69569	-36.61515	11.39138	-12.20505	-68.34828	-150.52895	-72.41663	-47.19286	0
793	-17.90074	-36.61515	-18.71441	26.85111	-1.62734	-29.29212	8.95037	-9.76404	-65.90727	-150.52895	-69.97562	-44.75185	0
794	-20.34175	-31.73313	-11.39138	24.4101	-6.50936	-21.15542	8.95037	-9.76404	-63.46626	-148.08794	-67.53461	-42.31084	0
795	-27.66478	-34.17414	-6.50936	29.29212	-11.39138	-21.15542	11.39138	-9.76404	-58.58424	-143.20592	-65.0936	-42.31084	0
796	-27.66478	-31.73313	-4.06835	29.29212	-13.83239	-18.71441	11.39138	-12.20505	-58.58424	-143.20592	-69.97562	-47.19286	0
797	-17.90074	-26.85111	-8.95037	21.96909	-6.50936	-18.71441	8.95037	-14.64606	-61.02525	-148.08794	-77.29865	-54.51589	0
798	-17.90074	-36.61515	-18.71441	26.85111	-1.62734	-29.29212	8.95037	-14.64606	-61.02525	-150.52895	-82.18067	-59.39791	0
799	-17.90074	-43.93818	-26.85111	29.29212	3.25468	-36.61515	13.83239	-12.20505	-61.02525	-150.52895	-84.62168	-64.27993	0
800	-15.45973	-43.93818	-29.29212	29.29212	5.69569	-36.61515	17.08707	-12.20505	-63.46626	-150.52895	-84.62168	-66.72094	0
801	-10.57771	-36.61515	-26.85111	21.96909	5.69569	-31.73313	19.52808	-12.20505	-63.46626	-148.08794	-87.06269	-66.72094	0
802	-8.1367	-34.17414	-26.85111	19.52808	8.1367	-31.73313	17.08707	-12.20505	-65.90727	-152.96996	-89.5037	-66.72094	0
803	-13.01872	-39.05616	-26.85111	24.4101	5.69569	-34.17414	13.83239	-7.32303	-65.90727	-152.96996	-91.94471	-64.27993	0
804	-17.90074	-41.49717	-24.4101	29.29212	0.81367	-34.17414	13.83239	-4.88202	-63.46626	-150.52895	-91.94471	-61.83892	0
805	-13.01872	-39.05616	-26.85111	24.4101	5.69569	-34.17414	13.83239	-7.32303	-63.46626	-148.08794	-91.94471	-61.83892	0
806	-10.57771	-43.93818	-34.17414	26.85111	10.57771	-39.05616	13.83239	-7.32303	-63.46626	-145.64693	-91.94471	-61.83892	0
807	-10.57771	-46.37919	-36.61515	26.85111	10.57771	-41.49717	13.83239	-4.88202	-63.46626	-145.64693	-91.94471	-59.39791	0
808	-15.45973	-53.70222	-39.05616	34.17414	10.57771	-46.37919	13.83239	-2.44101	-61.02525	-145.64693	-91.94471	-54.51589	0
809	-17.90074	-56.14323	-39.05616	36.61515	8.1367	-48.8202	17.08707	-2.44101	-56.14323	-140.76491	-89.5037	-49.63387	0
810	-17.90074	-46.37919	-29.29212	31.73313	3.25468	-39.05616	17.08707	-2.44101	-56.14323	-138.3239	-87.06269	-47.19286	0
811	-20.34175	-36.61515	-16.2734	26.85111	-4.06835	-26.85111	19.52808	-2.44101	-56.14323	-135.88289	-87.06269	-42.31084	0
812	-25.22377	-34.17414	-8.95037	29.29212	-8.95037	-21.15542	21.96909	2.44101	-53.70222	-135.88289	-84.62168	-39.86983	0
813	-27.66478	-29.29212	-1.62734	26.85111	-13.83239	-16.2734	21.96909	4.88202	-46.37919	-133.44188	-84.62168	-37.42882	0
814	-30.10579	-24.4101	5.69569	26.85111	-18.71441	-8.95037	21.96909	7.32303	-46.37919	-133.44188	-84.62168	-34.98781	0
815	-27.66478	-18.71441	8.1367	21.96909	-18.71441	-6.50936	21.96909	4.88202	-46.37919	-133.44188	-84.62168	-39.86983	0
816	-30.10579	-18.71441	10.57771	24.4101	-21.15542	-4.06835	19.52808	0	-48.8202	-133.44188	-89.5037	-44.75185	0
817	-34.98781	-24.4101	10.57771	29.29212	-23.59643	-6.50936	13.83239	-4.88202	-53.70222	-140.76491	-96.82673	-49.63387	0
818	-37.42882	-26.85111	10.57771	31.73313	-26.03744	-8.95037	11.39138	-9.76404	-58.58424	-145.64693	-104.14976	-56.9569	0
819	-44.75185	-31.73313	13.01872	36.61515	-30.91946	-8.95037	11.39138	-17.08707	-63.46626	-148.08794	-106.59077	-56.9569	0
820	-44.75185	-39.05616	5.69569	41.49717	-26.03744	-16.2734	13.83239	-21.96909	-63.46626	-148.08794	-109.03178	-56.9569	0
821	-42.31084	-36.61515	5.69569	39.05616	-26.03744	-16.2734	13.83239	-24.4101	-63.46626	-145.64693	-109.03178	-54.51589	0
822	-32.5468	-34.17414	-1.62734	31.73313	-16.2734	-18.71441	13.83239	-24.4101	-63.46626	-145.64693	-109.03178	-49.63387	0
823	-25.22377	-31.73313	-6.50936	26.85111	-11.39138	-18.71441	13.83239	-21.96909	-65.90727	-145.64693	-109.03178	-44.75185	0
824	-15.45973	-24.4101	-8.95037	19.52808	-4.06835	-16.2734	13.83239	-19.52808	-63.46626	-143.20592	-106.59077	-39.86983	0
825	-3.25468	-21.15542	-18.71441	11.39138	8.1367	-21.15542	19.52808	-14.64606	-61.02525	-138.3239	-104.14976	-34.98781	0
826	-3.25468	-18.71441	-16.2734	11.39138	5.69569	-18.71441	24.4101	-12.20505	-56.14323	-135.88289	-99.26774	-32.5468	0
827	-3.25468	-21.15542	-18.71441	11.39138	8.1367	-21.15542	24.4101	-9.76404	-56.14323	-133.44188	-99.26774	-30.10579	0
828	-5.69569	-21.15542	-16.2734	11.39138	5.69569	-18.71441	24.4101	-9.76404	-58.58424	-133.44188	-101.70875	-30.10579	0
829	-8.1367	-24.4101	-16.2734	14.64606	3.25468	-21.15542	24.4101	-12.20505	-61.02525	-135.88289	-101.70875	-32.5468	0
830	-17.90074	-24.4101	-6.50936	19.52808	-6.50936	-16.2734	24.4101	-19.52808	-63.46626	-135.88289	-104.14976	-34.98781	0
831	-32.5468	-21.15542	10.57771	26.85111	-21.15542	-6.50936	21.96909	-24.4101	-65.90727	-131.00087	-106.59077	-34.98781	0
832	-37.42882	-13.83239	22.78276	24.4101	-30.91946	3.25468	17.08707	-24.4101	-68.34828	-131.00087	-106.59077	-32.5468	0
833	-34.98781	-6.50936	27.66478	19.52808	-30.91946	10.57771	11.39138	-29.29212	-70.78929	-133.44188	-109.03178	-32.5468	0
834	-32.5468	-8.95037	22.78276	19.52808	-28.47845	5.69569	11.39138	-29.29212	-70.78929	-128.55986	-101.70875	-27.66478	0
835	-34.98781	-1.62734	32.5468	17.08707	-33.36047	15.45973	8.95037	-31.73313	-70.78929	-123.67784	-96.82673	-27.66478	0
836	-32.5468	-4.06835	27.66478	17.08707	-30.91946	10.57771	6.50936	-29.29212	-65.90727	-116.35481	-91.94471	-21.96909	0
837	-30.10579	-11.39138	17.90074	19.52808	-23.59643	3.25468	6.50936	-24.4101	-61.02525	-111.47279	-87.06269	-17.08707	0
838	-30.10579	-18.71441	10.57771	24.4101	-21.15542	-4.06835	4.06835	-24.4101	-63.46626	-113.9138	-89.5037	-19.52808	0
839	-30.10579	-21.15542	8.1367	24.4101	-18.71441	-6.50936	1.62734	-29.29212	-68.34828	-118.79582	-94.38572	-24.4101	0
840	-30.10579	-13.83239	15.45973	21.96909	-23.59643	0.81367	-0.81367	-36.61515	-75.67131	-123.67784	-99.26774	-27.66478	0
841	-27.66478	-8.95037	17.90074	17.08707	-23.59643	3.25468	1.62734	-36.61515	-80.55333	-123.67784	-101.70875	-27.66478	0
842	-22.78276	-4.06835	17.90074	11.39138	-21.15542	5.69569	4.06835	-36.61515	-82.99434	-123.67784	-101.70875	-27.66478	0
843	-15.45973	3.25468	17.90074	6.50936	-16.2734	10.57771	6.50936	-39.05616	-85.43535	-121.23683	-99.26774	-21.96909	0
844	-3.25468	8.1367	10.57771	-3.25468	-6.50936	8.1367	6.50936	-39.05616	-85.43535	-118.79582	-94.38572	-19.52808	0
845	-0.81367	10.57771	10.57771	-5.69569	-6.50936	10.57771	6.50936	-39.05616	-85.43535	-109.03178	-87.06269	-14.64606	0
846	4.88202	3.25468	-1.62734	-3.25468	3.25468	0.81367	8.95037	-34.17414	-82.99434	-99.26774	-79.73966	-7.32303	0
847	7.32303	-4.06835	-11.39138	-0.81367	8.1367	-6.50936	6.50936	-34.17414	-82.99434	-94.38572	-77.29865	-4.88202	0
848	2.44101	-8.95037	-11.39138	4.06835	5.69569	-8.95037	1.62734	-39.05616	-87.87636	-94.38572	-77.29865	-9.76404	0
849	-3.25468	-13.83239	-11.39138	8.95037	3.25468	-13.83239	-0.81367	-46.37919	-95.19939	-96.82673	-82.18067	-17.08707	0
850	-15.45973	-24.4101	-8.95037	19.52808	-4.06835	-16.2734	-3.25468	-53.70222	-102.52242	-99.26774	-87.06269	-21.96909	0
851	-25.22377	-29.29212	-4.06835	26.85111	-11.39138	-16.2734	-3.25468	-61.02525	-107.40444	-101.70875	-91.94471	-27.66478	0
852	-32.5468	-29.29212	3.25468	29.29212	-18.71441	-13.83239	-0.81367	-61.02525	-109.84545	-101.70875	-91.94471	-27.66478	0
853	-34.98781	-26.85111	8.1367	29.29212	-23.59643	-8.95037	4.06835	-61.02525	-112.28646	-101.70875	-91.94471	-27.66478	0
854	-39.86983	-26.85111	13.01872	31.73313	-28.47845	-6.50936	6.50936	-63.46626	-112.28646	-99.26774	-89.5037	-24.4101	0
855	-44.75185	-21.15542	22.78276	31.73313	-33.36047	0.81367	6.50936	-58.58424	-112.28646	-94.38572	-82.18067	-19.52808	0
856	-47.19286	-8.95037	37.42882	26.85111	-43.12451	13.01872	4.06835	-58.58424	-114.72747	-94.38572	-82.18067	-17.08707	0
857	-44.75185	-1.62734	42.31084	21.96909	-43.12451	20.34175	-0.81367	-58.58424	-119.60949	-94.38572	-79.73966	-17.08707	0
858	-39.86983	0.81367	39.86983	19.52808	-40.6835	20.34175	-0.81367	-56.14323	-122.0505	-94.38572	-77.29865	-17.08707	0
859	-34.98781	-6.50936	27.66478	19.52808	-30.91946	10.57771	1.62734	-56.14323	-122.0505	-91.94471	-77.29865	-17.08707	0
860	-34.98781	-13.83239	20.34175	24.4101	-28.47845	3.25468	4.06835	-61.02525	-124.49151	-91.94471	-77.29865	-19.52808	0
861	-27.66478	-16.2734	10.57771	21.96909	-18.71441	-4.06835	8.95037	-61.02525	-126.93252	-91.94471	-79.73966	-24.4101	0
862	-15.45973	-16.2734	-1.62734	14.64606	-6.50936	-8.95037	11.39138	-61.02525	-129.37353	-91.94471	-79.73966	-24.4101	0
863	-3.25468	-16.2734	-13.83239	8.95037	5.69569	-16.2734	13.83239	-61.02525	-129.37353	-87.06269	-77.29865	-24.4101	0
864	-0.81367	-18.71441	-18.71441	8.95037	8.1367	-18.71441	13.83239	-65.90727	-134.25555	-87.06269	-79.73966	-27.66478	0
865	-0.81367	-18.71441	-18.71441	8.95037	8.1367	-18.71441	6.50936	-70.78929	-141.57858	-89.5037	-82.18067	-32.5468	0
866	2.44101	-8.95037	-11.39138	4.06835	5.69569	-8.95037	-0.81367	-73.2303	-146.4606	-89.5037	-84.62168	-37.42882	0
867	-0.81367	-8.95037	-8.95037	4.06835	3.25468	-8.95037	-5.69569	-73.2303	-148.90161	-89.5037	-84.62168	-39.86983	0
868	-13.01872	-11.39138	0.81367	11.39138	-6.50936	-6.50936	-5.69569	-70.78929	-148.90161	-87.06269	-82.18067	-39.86983	0
869	-17.90074	-18.71441	-1.62734	17.08707	-8.95037	-11.39138	-3.25468	-70.78929	-148.90161	-82.18067	-79.73966	-37.42882	0
870	-22.78276	-24.4101	-1.62734	21.96909	-11.39138	-13.83239	-0.81367	-73.2303	-148.90161	-82.18067	-79.73966	-39.86983	0
871	-32.5468	-24.4101	8.1367	26.85111	-21.15542	-8.95037	-0.81367	-73.2303	-151.34262	-84.62168	-82.18067	-42.31084	0
872	-42.31084	-24.4101	17.90074	31.73313	-30.91946	-4.06835	1.62734	-73.2303	-151.34262	-84.62168	-82.18067	-44.75185	0
873	-39.86983	-18.71441	20.34175	29.29212	-30.91946	0.81367	4.06835	-73.2303	-151.34262	-84.62168	-82.18067	-44.75185	0
874	-27.66478	-4.06835	22.78276	14.64606	-26.03744	8.1367	-0.81367	-78.11232	-156.22464	-84.62168	-84.62168	-44.75185	0
875	-20.34175	0.81367	20.34175	8.95037	-21.15542	10.57771	-5.69569	-80.55333	-161.10666	-87.06269	-84.62168	-47.19286	0
876	-10.57771	5.69569	15.45973	1.62734	-13.83239	10.57771	-10.57771	-80.55333	-163.54767	-89.5037	-87.06269	-47.19286	0
877	-3.25468	15.45973	17.90074	-5.69569	-11.39138	15.45973	-10.57771	-75.67131	-161.10666	-84.62168	-84.62168	-44.75185	0
878	-3.25468	17.90074	20.34175	-8.1367	-11.39138	17.90074	-0.81367	-68.34828	-153.78363	-79.73966	-79.73966	-39.86983	0
879	-8.1367	5.69569	13.01872	1.62734	-11.39138	8.1367	4.06835	-68.34828	-151.34262	-77.29865	-77.29865	-39.86983	0
880	-17.90074	-13.83239	3.25468	14.64606	-11.39138	-6.50936	11.39138	-65.90727	-148.90161	-72.41663	-74.85764	-39.86983	0
881	-27.66478	-24.4101	3.25468	24.4101	-16.2734	-11.39138	13.83239	-65.90727	-146.4606	-72.41663	-77.29865	-39.86983	0
882	-42.31084	-26.85111	15.45973	34.17414	-30.91946	-6.50936	19.52808	-65.90727	-146.4606	-72.41663	-77.29865	-42.31084	0
883	-49.63387	-31.73313	17.90074	39.05616	-35.80148	-6.50936	24.4101	-65.90727	-146.4606	-72.41663	-77.29865	-39.86983	0
884	-49.63387	-36.61515	13.01872	41.49717	-33.36047	-11.39138	19.52808	-70.78929	-148.90161	-72.41663	-79.73966	-42.31084	0
885	-44.75185	-31.73313	13.01872	36.61515	-30.91946	-8.95037	11.39138	-73.2303	-153.78363	-77.29865	-82.18067	-42.31084	0
886	-42.31084	-18.71441	22.78276	29.29212	-33.36047	0.81367	4.06835	-75.67131	-158.66565	-79.73966	-84.62168	-42.31084	0
887	-37.42882	-18.71441	17.90074	26.85111	-28.47845	-1.62734	-0.81367	-75.67131	-158.66565	-82.18067	-87.06269	-37.42882	0
888	-32.5468	-18.71441	13.01872	24.4101	-23.59643	-4.06835	-3.25468	-78.11232	-163.54767	-89.5037	-91.94471	-39.86983	0
889	-25.22377	-21.15542	3.25468	21.96909	-13.83239	-8.95037	-5.69569	-85.43535	-168.42969	-94.38572	-96.82673	-44.75185	0
890	-22.78276	-24.4101	-1.62734	21.96909	-11.39138	-13.83239	-5.69569	-90.31737	-175.75272	-99.26774	-101.70875	-49.63387	0
891	-22.78276	-29.29212	-6.50936	24.4101	-8.95037	-18.71441	1.62734	-90.31737	-178.19373	-99.26774	-104.14976	-54.51589	0
892	-25.22377	-31.73313	-6.50936	26.85111	-11.39138	-18.71441	6.50936	-92.75838	-178.19373	-101.70875	-106.59077	-54.51589	0
893	-25.22377	-29.29212	-4.06835	26.85111	-11.39138	-16.2734	11.39138	-90.31737	-178.19373	-101.70875	-104.14976	-54.51589	0
894	-25.22377	-26.85111	-1.62734	24.4101	-13.83239	-13.83239	13.83239	-90.31737	-175.75272	-96.82673	-99.26774	-49.63387	0
895	-22.78276	-24.4101	-1.62734	21.96909	-11.39138	-13.83239	13.83239	-85.43535	-175.75272	-91.94471	-96.82673	-47.19286	0
896	-22.78276	-11.39138	10.57771	17.08707	-16.2734	-1.62734	13.83239	-82.99434	-173.31171	-91.94471	-94.38572	-44.75185	0
897	-20.34175	-4.06835	15.45973	11.39138	-18.71441	5.69569	8.95037	-80.55333	-170.8707	-89.5037	-91.94471	-44.75185	0
898	-13.01872	3.25468	15.45973	4.06835	-13.83239	8.1367	1.62734	-82.99434	-175.75272	-91.94471	-96.82673	-47.19286	0
899	-8.1367	0.81367	8.1367	4.06835	-8.95037	3.25468	-3.25468	-92.75838	-183.07575	-96.82673	-104.14976	-56.9569	0
900	-10.57771	0.81367	10.57771	4.06835	-11.39138	5.69569	-0.81367	-95.19939	-183.07575	-96.82673	-106.59077	-59.39791	0
901	-17.90074	0.81367	17.90074	8.95037	-18.71441	8.1367	-0.81367	-97.6404	-185.51676	-96.82673	-111.47279	-59.39791	0
902	-27.66478	-8.95037	17.90074	17.08707	-23.59643	3.25468	-0.81367	-100.08141	-187.95777	-101.70875	-111.47279	-61.83892	0
903	-34.98781	-21.15542	13.01872	26.85111	-23.59643	-4.06835	-0.81367	-100.08141	-187.95777	-101.70875	-111.47279	-59.39791	0
904	-39.86983	-36.61515	3.25468	36.61515	-23.59643	-16.2734	1.62734	-95.19939	-183.07575	-96.82673	-106.59077	-54.51589	0
905	-49.63387	-53.70222	-4.06835	51.26121	-23.59643	-29.29212	6.50936	-85.43535	-175.75272	-87.06269	-94.38572	-42.31084	0
906	-56.9569	-68.34828	-11.39138	61.02525	-23.59643	-41.49717	6.50936	-80.55333	-175.75272	-84.62168	-91.94471	-39.86983	0
907	-59.39791	-80.55333	-21.15542	68.34828	-21.15542	-51.26121	1.62734	-80.55333	-178.19373	-87.06269	-89.5037	-39.86983	0
908	-54.51589	-80.55333	-26.85111	65.90727	-16.2734	-53.70222	4.06835	-80.55333	-178.19373	-89.5037	-87.06269	-39.86983	0
909	-44.75185	-78.11232	-34.17414	61.02525	-6.50936	-56.14323	6.50936	-82.99434	-178.19373	-87.06269	-87.06269	-37.42882	0
910	-42.31084	-68.34828	-26.85111	53.70222	-8.95037	-48.8202	11.39138	-85.43535	-178.19373	-87.06269	-89.5037	-42.31084	0
911	-37.42882	-56.14323	-18.71441	46.37919	-11.39138	-39.05616	13.83239	-87.87636	-180.63474	-89.5037	-94.38572	-47.19286	0
912	-32.5468	-39.05616	-6.50936	34.17414	-13.83239	-24.4101	13.83239	-90.31737	-183.07575	-94.38572	-101.70875	-52.07488	0
913	-20.34175	-24.4101	-4.06835	21.96909	-8.95037	-13.83239	17.08707	-87.87636	-183.07575	-94.38572	-101.70875	-52.07488	0
914	-15.45973	-21.15542	-6.50936	17.08707	-4.06835	-13.83239	19.52808	-85.43535	-183.07575	-91.94471	-101.70875	-52.07488	0
915	-17.90074	-16.2734	0.81367	17.08707	-8.95037	-8.95037	19.52808	-85.43535	-185.51676	-91.94471	-101.70875	-52.07488	0
916	-22.78276	-11.39138	10.57771	17.08707	-16.2734	-1.62734	13.83239	-85.43535	-187.95777	-91.94471	-104.14976	-56.9569	0
917	-22.78276	-6.50936	15.45973	14.64606	-18.71441	3.25468	11.39138	-85.43535	-192.83979	-94.38572	-104.14976	-59.39791	0
918	-22.78276	-11.39138	10.57771	17.08707	-16.2734	-1.62734	8.95037	-87.87636	-195.2808	-99.26774	-106.59077	-64.27993	0
919	-27.66478	-24.4101	3.25468	24.4101	-16.2734	-11.39138	8.95037	-92.75838	-197.72181	-101.70875	-109.03178	-69.16195	0
920	-34.98781	-29.29212	5.69569	31.73313	-21.15542	-11.39138	8.95037	-97.6404	-200.16282	-106.59077	-113.9138	-74.04397	0
921	-39.86983	-34.17414	5.69569	36.61515	-23.59643	-13.83239	8.95037	-102.52242	-200.16282	-109.03178	-118.79582	-76.48498	0
922	-42.31084	-43.93818	-1.62734	41.49717	-21.15542	-24.4101	11.39138	-102.52242	-200.16282	-111.47279	-118.79582	-74.04397	0
923	-44.75185	-51.26121	-6.50936	46.37919	-21.15542	-29.29212	13.83239	-97.6404	-195.2808	-111.47279	-118.79582	-69.16195	0
924	-47.19286	-53.70222	-6.50936	48.8202	-21.15542	-31.73313	17.08707	-95.19939	-192.83979	-106.59077	-113.9138	-64.27993	0
925	-47.19286	-46.37919	0.81367	46.37919	-26.03744	-24.4101	17.08707	-95.19939	-190.39878	-104.14976	-109.03178	-61.83892	0
926	-47.19286	-36.61515	10.57771	41.49717	-30.91946	-13.83239	13.83239	-92.75838	-190.39878	-104.14976	-106.59077	-59.39791	0
927	-44.75185	-34.17414	10.57771	39.05616	-28.47845	-11.39138	11.39138	-87.87636	-187.95777	-104.14976	-106.59077	-59.39791	0
928	-42.31084	-31.73313	10.57771	36.61515	-28.47845	-11.39138	8.95037	-87.87636	-187.95777	-104.14976	-106.59077	-61.83892	0
929	-39.86983	-31.73313	8.1367	34.17414	-26.03744	-11.39138	8.95037	-90.31737	-192.83979	-109.03178	-109.03178	-66.72094	0
930	-39.86983	-34.17414	5.69569	36.61515	-23.59643	-13.83239	6.50936	-95.19939	-195.2808	-113.9138	-113.9138	-74.04397	0
931	-42.31084	-34.17414	8.1367	36.61515	-26.03744	-13.83239	6.50936	-97.6404	-197.72181	-113.9138	-121.23683	-81.367	0
932	-37.42882	-39.05616	-1.62734	36.61515	-18.71441	-21.15542	11.39138	-97.6404	-197.72181	-116.35481	-123.67784	-81.367	0
933	-34.98781	-43.93818	-8.95037	39.05616	-13.83239	-26.85111	13.83239	-92.75838	-195.2808	-113.9138	-123.67784	-83.80801	0
934	-30.10579	-39.05616	-8.95037	34.17414	-11.39138	-24.4101	19.52808	-92.75838	-195.2808	-113.9138	-123.67784	-83.80801	0
935	-17.90074	-36.61515	-18.71441	26.85111	-1.62734	-29.29212	19.52808	-92.75838	-195.2808	-111.47279	-123.67784	-83.80801	0
936	-8.1367	-29.29212	-21.15542	17.08707	5.69569	-26.85111	19.52808	-87.87636	-195.2808	-111.47279	-126.11885	-83.80801	0
937	2.44101	-29.29212	-31.73313	11.39138	16.2734	-29.29212	21.96909	-82.99434	-192.83979	-109.03178	-121.23683	-76.48498	0
938	2.44101	-31.73313	-34.17414	14.64606	16.2734	-31.73313	21.96909	-80.55333	-192.83979	-111.47279	-121.23683	-76.48498	0
939	-0.81367	-31.73313	-31.73313	14.64606	13.83239	-31.73313	19.52808	-82.99434	-192.83979	-116.35481	-123.67784	-78.92599	0
940	-0.81367	-31.73313	-31.73313	14.64606	13.83239	-31.73313	21.96909	-85.43535	-192.83979	-116.35481	-123.67784	-81.367	0
941	-3.25468	-34.17414	-31.73313	17.08707	13.83239	-34.17414	24.4101	-85.43535	-192.83979	-116.35481	-126.11885	-83.80801	0
942	-15.45973	-34.17414	-18.71441	24.4101	0.81367	-26.85111	29.29212	-82.99434	-187.95777	-113.9138	-126.11885	-83.80801	0
943	-30.10579	-31.73313	-1.62734	29.29212	-16.2734	-16.2734	34.17414	-80.55333	-183.07575	-111.47279	-123.67784	-81.367	0
944	-39.86983	-29.29212	10.57771	34.17414	-26.03744	-8.95037	36.61515	-78.11232	-178.19373	-104.14976	-121.23683	-78.92599	0
945	-47.19286	-29.29212	17.90074	36.61515	-33.36047	-6.50936	41.49717	-75.67131	-175.75272	-99.26774	-116.35481	-74.04397	0
946	-47.19286	-21.15542	25.22377	34.17414	-35.80148	0.81367	43.93818	-68.34828	-173.31171	-91.94471	-109.03178	-69.16195	0
947	-44.75185	-11.39138	32.5468	26.85111	-38.24249	10.57771	48.8202	-61.02525	-165.98868	-84.62168	-101.70875	-61.83892	0
948	-47.19286	0.81367	47.19286	21.96909	-48.00653	22.78276	53.70222	-53.70222	-158.66565	-82.18067	-96.82673	-59.39791	0
949	-42.31084	3.25468	44.75185	19.52808	-43.12451	22.78276	61.02525	-48.8202	-153.78363	-77.29865	-94.38572	-56.9569	0
950	-30.10579	5.69569	34.98781	11.39138	-33.36047	20.34175	68.34828	-43.93818	-146.4606	-72.41663	-87.06269	-54.51589	0
951	-20.34175	15.45973	34.98781	1.62734	-28.47845	25.22377	73.2303	-41.49717	-141.57858	-69.97562	-87.06269	-54.51589	0
952	-15.45973	25.22377	39.86983	-5.69569	-28.47845	32.5468	73.2303	-36.61515	-134.25555	-69.97562	-89.5037	-54.51589	0
953	-8.1367	34.98781	42.31084	-13.01872	-26.03744	37.42882	73.2303	-29.29212	-126.93252	-67.53461	-87.06269	-49.63387	0
954	-5.69569	37.42882	42.31084	-15.45973	-23.59643	39.86983	68.34828	-26.85111	-124.49151	-65.0936	-84.62168	-49.63387	0
955	-3.25468	42.31084	44.75185	-20.34175	-23.59643	42.31084	56.14323	-26.85111	-122.0505	-62.65259	-82.18067	-47.19286	0
956	-5.69569	44.75185	49.63387	-20.34175	-28.47845	47.19286	39.05616	-29.29212	-122.0505	-62.65259	-82.18067	-47.19286	0
957	-3.25468	37.42882	39.86983	-17.90074	-21.15542	37.42882	21.96909	-29.29212	-119.60949	-62.65259	-77.29865	-44.75185	0
958	2.44101	25.22377	22.78276	-13.01872	-11.39138	25.22377	11.39138	-29.29212	-117.16848	-60.21158	-72.41663	-42.31084	0
959	7.32303	15.45973	8.1367	-10.57771	-1.62734	13.01872	4.06835	-34.17414	-114.72747	-57.77057	-69.97562	-39.86983	0
960	12.20505	5.69569	-6.50936	-8.1367	8.1367	0.81367	-3.25468	-43.93818	-117.16848	-57.77057	-69.97562	-39.86983	0
961	17.08707	-11.39138	-29.29212	-3.25468	23.59643	-18.71441	-5.69569	-51.26121	-117.16848	-57.77057	-72.41663	-39.86983	0
962	21.96909	-18.71441	-41.49717	-0.81367	30.91946	-29.29212	-8.1367	-58.58424	-122.0505	-60.21158	-74.85764	-39.86983	0
963	24.4101	-21.15542	-46.37919	-0.81367	35.80148	-34.17414	-13.01872	-65.90727	-124.49151	-60.21158	-74.85764	-39.86983	0
964	17.08707	-16.2734	-34.17414	-0.81367	26.03744	-24.4101	-15.45973	-73.2303	-124.49151	-60.21158	-74.85764	-37.42882	0
965	9.76404	-11.39138	-21.15542	1.62734	16.2734	-16.2734	-20.34175	-75.67131	-126.93252	-57.77057	-72.41663	-37.42882	0
966	2.44101	-13.83239	-16.2734	6.50936	8.1367	-13.83239	-22.78276	-73.2303	-124.49151	-55.32956	-69.97562	-32.5468	0
967	4.88202	-6.50936	-11.39138	1.62734	8.1367	-8.95037	-22.78276	-68.34828	-122.0505	-52.88855	-62.65259	-30.10579	0
968	12.20505	0.81367	-11.39138	-5.69569	10.57771	-4.06835	-20.34175	-58.58424	-114.72747	-48.00653	-55.32956	-24.4101	0
969	14.64606	5.69569	-8.95037	-10.57771	10.57771	-1.62734	-13.01872	-56.14323	-109.84545	-48.00653	-50.44754	-24.4101	0
970	17.08707	8.1367	-8.95037	-13.01872	13.83239	0.81367	-8.1367	-53.70222	-107.40444	-44.75185	-50.44754	-27.66478	0
971	24.4101	8.1367	-16.2734	-15.45973	21.15542	-4.06835	-3.25468	-48.8202	-104.96343	-44.75185	-50.44754	-27.66478	0
972	29.29212	5.69569	-24.4101	-17.90074	26.03744	-8.95037	1.62734	-48.8202	-102.52242	-44.75185	-50.44754	-27.66478	0
973	31.73313	0.81367	-31.73313	-15.45973	30.91946	-13.83239	1.62734	-48.8202	-102.52242	-44.75185	-52.88855	-27.66478	0
974	19.52808	-16.2734	-36.61515	-0.81367	28.47845	-26.85111	1.62734	-48.8202	-104.96343	-48.00653	-52.88855	-27.66478	0
975	17.08707	-26.85111	-43.93818	4.06835	28.47845	-34.17414	6.50936	-43.93818	-102.52242	-39.86983	-48.00653	-21.96909	0
976	21.96909	-31.73313	-53.70222	4.06835	35.80148	-41.49717	8.95037	-39.05616	-100.08141	-34.98781	-43.12451	-17.08707	0
977	26.85111	-34.17414	-61.02525	4.06835	43.12451	-46.37919	8.95037	-36.61515	-97.6404	-32.5468	-38.24249	-14.64606	0
978	29.29212	-39.05616	-68.34828	4.06835	48.00653	-53.70222	8.95037	-36.61515	-100.08141	-34.98781	-40.6835	-17.08707	0
979	34.17414	-46.37919	-80.55333	6.50936	55.32956	-63.46626	6.50936	-43.93818	-107.40444	-39.86983	-48.00653	-27.66478	0
980	46.37919	-46.37919	-92.75838	-0.81367	67.53461	-68.34828	4.06835	-53.70222	-117.16848	-48.00653	-57.77057	-39.86983	0
981	48.8202	-51.26121	-100.08141	1.62734	72.41663	-75.67131	4.06835	-61.02525	-126.93252	-55.32956	-72.41663	-52.07488	0
982	26.85111	-58.58424	-85.43535	14.64606	55.32956	-70.78929	1.62734	-65.90727	-136.69656	-65.0936	-84.62168	-61.83892	0
983	4.88202	-61.02525	-65.90727	26.85111	33.36047	-63.46626	1.62734	-70.78929	-148.90161	-74.85764	-96.82673	-69.16195	0
984	-15.45973	-68.34828	-53.70222	41.49717	18.71441	-61.02525	1.62734	-75.67131	-156.22464	-77.29865	-101.70875	-71.60296	0
985	-34.98781	-65.90727	-31.73313	48.8202	-4.06835	-48.8202	1.62734	-75.67131	-161.10666	-77.29865	-101.70875	-69.16195	0
986	-61.83892	-65.90727	-4.06835	63.46626	-30.91946	-36.61515	4.06835	-70.78929	-161.10666	-74.85764	-94.38572	-61.83892	0
987	-83.80801	-68.34828	15.45973	75.67131	-50.44754	-26.85111	8.95037	-63.46626	-158.66565	-72.41663	-87.06269	-54.51589	0
988	-86.24902	-61.02525	25.22377	73.2303	-57.77057	-18.71441	8.95037	-63.46626	-158.66565	-72.41663	-84.62168	-54.51589	0
989	-81.367	-70.78929	10.57771	75.67131	-48.00653	-31.73313	8.95037	-65.90727	-163.54767	-69.97562	-84.62168	-59.39791	0
990	-76.48498	-78.11232	-1.62734	75.67131	-38.24249	-41.49717	13.83239	-68.34828	-163.54767	-67.53461	-84.62168	-61.83892	0
991	-69.16195	-80.55333	-11.39138	73.2303	-30.91946	-46.37919	13.83239	-68.34828	-161.10666	-62.65259	-84.62168	-66.72094	0
