samplenr	I	II	III	aVR	aVL	aVF	V1	V2	V3	V4	V5	V6	measurement
0	-3.25468	-52.07488	-48.8202	26.03744	21.96909	-50.44754	283.15716	301.0579	183.07575	134.25555	68.34828	-1.62734	0
1	-8.1367	-56.9569	-48.8202	30.91946	19.52808	-52.88855	278.27514	298.61689	180.63474	129.37353	65.90727	-1.62734	0
2	-13.01872	-61.83892	-48.8202	35.80148	17.08707	-55.32956	270.95211	288.85285	170.8707	124.49151	61.02525	-4.06835	0
3	-10.57771	-59.39791	-48.8202	33.36047	19.52808	-55.32956	261.18807	281.52982	165.98868	122.0505	61.02525	-4.06835	0
4	-10.57771	-59.39791	-48.8202	33.36047	19.52808	-55.32956	253.86504	271.76578	161.10666	119.60949	56.14323	-4.06835	0
5	-8.1367	-56.9569	-48.8202	30.91946	19.52808	-52.88855	244.101	262.00174	156.22464	114.72747	53.70222	-6.50936	0
6	-5.69569	-52.07488	-46.37919	28.47845	19.52808	-50.44754	236.77797	254.67871	153.78363	112.28646	53.70222	-8.95037	0
7	2.44101	-42.31084	-43.93818	18.71441	21.96909	-43.12451	234.33696	254.67871	151.34262	112.28646	53.70222	-8.95037	0
8	7.32303	-34.98781	-41.49717	13.83239	24.4101	-38.24249	229.45494	254.67871	146.4606	107.40444	51.26121	-8.95037	0
9	4.88202	-34.98781	-39.05616	13.83239	21.96909	-35.80148	222.13191	249.79669	141.57858	102.52242	46.37919	-13.83239	0
10	4.88202	-34.98781	-39.05616	13.83239	21.96909	-35.80148	214.80888	249.79669	136.69656	97.6404	43.93818	-16.2734	0
11	2.44101	-30.10579	-31.73313	13.83239	17.08707	-30.91946	207.48585	249.79669	129.37353	95.19939	43.93818	-16.2734	0
12	4.88202	-22.78276	-26.85111	8.95037	14.64606	-23.59643	202.60383	247.35568	124.49151	92.75838	41.49717	-16.2734	0
13	9.76404	-15.45973	-24.4101	0.81367	17.08707	-18.71441	195.2808	244.91467	119.60949	90.31737	41.49717	-16.2734	0
14	9.76404	-10.57771	-19.52808	0.81367	14.64606	-13.83239	187.95777	240.03265	114.72747	90.31737	41.49717	-18.71441	0
15	9.76404	-8.1367	-17.08707	-1.62734	12.20505	-11.39138	180.63474	235.15063	112.28646	85.43535	41.49717	-21.15542	0
16	7.32303	-13.01872	-19.52808	0.81367	12.20505	-16.2734	173.31171	230.26861	104.96343	82.99434	39.05616	-23.59643	0
17	9.76404	-13.01872	-21.96909	0.81367	14.64606	-16.2734	170.8707	230.26861	100.08141	80.55333	39.05616	-26.03744	0
18	12.20505	-15.45973	-26.85111	0.81367	19.52808	-21.15542	168.42969	230.26861	95.19939	75.67131	34.17414	-30.91946	0
19	9.76404	-25.22377	-34.17414	6.50936	21.96909	-28.47845	163.54767	230.26861	90.31737	70.78929	29.29212	-35.80148	0
20	9.76404	-30.10579	-39.05616	8.95037	24.4101	-33.36047	158.66565	230.26861	82.99434	65.90727	26.85111	-40.6835	0
21	14.64606	-32.5468	-46.37919	8.95037	29.29212	-38.24249	156.22464	230.26861	80.55333	63.46626	21.96909	-43.12451	0
22	21.96909	-27.66478	-48.8202	0.81367	34.17414	-38.24249	153.78363	230.26861	75.67131	63.46626	21.96909	-43.12451	0
23	29.29212	-22.78276	-51.26121	-4.06835	39.05616	-35.80148	151.34262	227.8276	75.67131	63.46626	24.4101	-43.12451	0
24	29.29212	-27.66478	-56.14323	-1.62734	41.49717	-40.6835	146.4606	220.50457	75.67131	65.90727	24.4101	-43.12451	0
25	29.29212	-34.98781	-63.46626	0.81367	46.37919	-48.00653	144.01959	210.74053	75.67131	68.34828	26.85111	-40.6835	0
26	21.96909	-44.75185	-65.90727	11.39138	43.93818	-55.32956	141.57858	203.4175	75.67131	68.34828	26.85111	-38.24249	0
27	14.64606	-56.9569	-70.78929	21.15542	41.49717	-62.65259	141.57858	198.53548	75.67131	68.34828	26.85111	-38.24249	0
28	9.76404	-69.16195	-78.11232	28.47845	43.93818	-72.41663	144.01959	193.65346	73.2303	68.34828	29.29212	-38.24249	0
29	-3.25468	-83.80801	-80.55333	43.12451	39.05616	-82.18067	144.01959	188.77144	73.2303	68.34828	29.29212	-38.24249	0
30	-3.25468	-91.13104	-87.87636	45.56552	41.49717	-89.5037	144.01959	186.33043	73.2303	68.34828	29.29212	-38.24249	0
31	-5.69569	-96.01306	-90.31737	50.44754	41.49717	-94.38572	139.13757	183.88942	70.78929	65.90727	26.85111	-40.6835	0
32	-8.1367	-105.7771	-97.6404	55.32956	43.93818	-101.70875	134.25555	174.12538	63.46626	63.46626	24.4101	-43.12451	0
33	-8.1367	-108.21811	-100.08141	57.77057	46.37919	-104.14976	129.37353	166.80235	63.46626	63.46626	24.4101	-43.12451	0
34	-5.69569	-110.65912	-104.96343	57.77057	48.8202	-109.03178	126.93252	157.03831	63.46626	63.46626	26.85111	-43.12451	0
35	-5.69569	-115.54114	-109.84545	60.21158	51.26121	-113.9138	122.0505	149.71528	61.02525	61.02525	26.85111	-45.56552	0
36	-8.1367	-125.30518	-117.16848	65.0936	53.70222	-121.23683	114.72747	139.95124	56.14323	58.58424	24.4101	-48.00653	0
37	-13.01872	-132.62821	-119.60949	72.41663	53.70222	-126.11885	114.72747	137.51023	53.70222	56.14323	21.96909	-50.44754	0
38	-15.45973	-135.06922	-119.60949	74.85764	51.26121	-128.55986	114.72747	137.51023	51.26121	56.14323	19.52808	-50.44754	0
39	-15.45973	-132.62821	-117.16848	72.41663	51.26121	-126.11885	114.72747	139.95124	51.26121	56.14323	19.52808	-52.88855	0
40	-17.90074	-137.51023	-119.60949	77.29865	51.26121	-128.55986	112.28646	142.39225	48.8202	51.26121	17.08707	-55.32956	0
41	-17.90074	-135.06922	-117.16848	74.85764	48.8202	-126.11885	109.84545	144.83326	46.37919	51.26121	14.64606	-55.32956	0
42	-17.90074	-135.06922	-117.16848	74.85764	48.8202	-126.11885	107.40444	139.95124	43.93818	51.26121	14.64606	-57.77057	0
43	-22.78276	-135.06922	-112.28646	77.29865	43.93818	-123.67784	100.08141	135.06922	41.49717	48.8202	14.64606	-57.77057	0
44	-27.66478	-137.51023	-109.84545	82.18067	41.49717	-123.67784	95.19939	125.30518	39.05616	46.37919	12.20505	-57.77057	0
45	-32.5468	-142.39225	-109.84545	87.06269	39.05616	-126.11885	90.31737	115.54114	39.05616	46.37919	12.20505	-60.21158	0
46	-30.10579	-142.39225	-112.28646	84.62168	41.49717	-128.55986	90.31737	113.10013	36.61515	46.37919	12.20505	-57.77057	0
47	-25.22377	-142.39225	-117.16848	82.18067	46.37919	-131.00087	92.75838	113.10013	39.05616	46.37919	14.64606	-55.32956	0
48	-25.22377	-144.83326	-119.60949	84.62168	46.37919	-133.44188	95.19939	113.10013	39.05616	46.37919	14.64606	-55.32956	0
49	-22.78276	-144.83326	-122.0505	82.18067	48.8202	-133.44188	100.08141	117.98215	41.49717	48.8202	14.64606	-52.88855	0
50	-17.90074	-142.39225	-124.49151	79.73966	53.70222	-133.44188	102.52242	122.86417	43.93818	51.26121	17.08707	-50.44754	0
51	-13.01872	-137.51023	-124.49151	74.85764	56.14323	-131.00087	104.96343	125.30518	46.37919	53.70222	19.52808	-50.44754	0
52	-10.57771	-137.51023	-126.93252	72.41663	58.58424	-133.44188	102.52242	125.30518	46.37919	53.70222	21.96909	-50.44754	0
53	-15.45973	-139.95124	-124.49151	77.29865	53.70222	-133.44188	100.08141	120.42316	46.37919	53.70222	24.4101	-50.44754	0
54	-17.90074	-144.83326	-126.93252	79.73966	53.70222	-135.88289	95.19939	113.10013	46.37919	53.70222	24.4101	-50.44754	0
55	-17.90074	-147.27427	-129.37353	82.18067	56.14323	-138.3239	92.75838	105.7771	46.37919	53.70222	24.4101	-50.44754	0
56	-20.34175	-149.71528	-129.37353	84.62168	53.70222	-140.76491	90.31737	100.89508	46.37919	53.70222	26.85111	-50.44754	0
57	-20.34175	-149.71528	-129.37353	84.62168	53.70222	-140.76491	92.75838	98.45407	46.37919	53.70222	29.29212	-50.44754	0
58	-25.22377	-152.15629	-126.93252	87.06269	51.26121	-140.76491	95.19939	98.45407	46.37919	53.70222	29.29212	-50.44754	0
59	-37.42882	-159.47932	-122.0505	96.82673	41.49717	-140.76491	92.75838	98.45407	46.37919	51.26121	26.85111	-52.88855	0
60	-39.86983	-159.47932	-119.60949	99.26774	39.05616	-140.76491	92.75838	98.45407	43.93818	48.8202	26.85111	-52.88855	0
61	-34.98781	-149.71528	-114.72747	91.94471	39.05616	-133.44188	92.75838	103.33609	43.93818	48.8202	26.85111	-50.44754	0
62	-34.98781	-152.15629	-117.16848	91.94471	41.49717	-135.88289	92.75838	100.89508	41.49717	46.37919	26.85111	-50.44754	0
63	-42.31084	-154.5973	-112.28646	96.82673	34.17414	-133.44188	87.87636	96.01306	39.05616	46.37919	26.85111	-50.44754	0
64	-39.86983	-149.71528	-109.84545	94.38572	34.17414	-131.00087	82.99434	88.69003	36.61515	43.93818	24.4101	-50.44754	0
65	-27.66478	-142.39225	-114.72747	84.62168	43.93818	-128.55986	80.55333	86.24902	39.05616	46.37919	26.85111	-48.00653	0
66	-13.01872	-130.1872	-117.16848	69.97562	51.26121	-123.67784	87.87636	88.69003	43.93818	53.70222	31.73313	-40.6835	0
67	-15.45973	-130.1872	-114.72747	72.41663	48.8202	-123.67784	90.31737	88.69003	46.37919	56.14323	34.17414	-38.24249	0
68	-13.01872	-127.74619	-114.72747	69.97562	51.26121	-121.23683	95.19939	91.13104	51.26121	56.14323	39.05616	-35.80148	0
69	-8.1367	-122.86417	-114.72747	65.0936	53.70222	-118.79582	100.08141	96.01306	56.14323	58.58424	41.49717	-33.36047	0
70	-5.69569	-122.86417	-117.16848	62.65259	56.14323	-121.23683	102.52242	100.89508	58.58424	61.02525	43.93818	-30.91946	0
71	-3.25468	-120.42316	-117.16848	60.21158	56.14323	-118.79582	104.96343	103.33609	61.02525	61.02525	43.93818	-28.47845	0
72	-5.69569	-125.30518	-119.60949	65.0936	56.14323	-123.67784	102.52242	103.33609	56.14323	58.58424	43.93818	-30.91946	0
73	-8.1367	-127.74619	-119.60949	67.53461	56.14323	-123.67784	95.19939	98.45407	53.70222	56.14323	39.05616	-30.91946	0
74	-10.57771	-130.1872	-119.60949	69.97562	53.70222	-126.11885	92.75838	93.57205	51.26121	53.70222	36.61515	-33.36047	0
75	-10.57771	-132.62821	-122.0505	69.97562	56.14323	-128.55986	87.87636	93.57205	51.26121	53.70222	36.61515	-33.36047	0
76	-5.69569	-125.30518	-119.60949	65.0936	56.14323	-123.67784	87.87636	96.01306	53.70222	53.70222	36.61515	-30.91946	0
77	-8.1367	-120.42316	-112.28646	62.65259	51.26121	-116.35481	97.6404	108.21811	56.14323	53.70222	36.61515	-30.91946	0
78	-13.01872	-117.98215	-104.96343	65.0936	46.37919	-111.47279	107.40444	130.1872	61.02525	53.70222	36.61515	-30.91946	0
79	-13.01872	-110.65912	-97.6404	60.21158	41.49717	-104.14976	124.49151	159.47932	70.78929	58.58424	36.61515	-28.47845	0
80	-13.01872	-105.7771	-92.75838	57.77057	39.05616	-99.26774	136.69656	200.97649	75.67131	58.58424	36.61515	-28.47845	0
81	-13.01872	-96.01306	-82.99434	52.88855	34.17414	-89.5037	144.01959	254.67871	78.11232	56.14323	31.73313	-33.36047	0
82	-5.69569	-91.13104	-85.43535	48.00653	39.05616	-89.5037	141.57858	315.70396	73.2303	48.8202	24.4101	-40.6835	0
83	4.88202	-81.367	-85.43535	38.24249	43.93818	-82.18067	124.49151	381.61123	58.58424	39.05616	14.64606	-50.44754	0
84	21.96909	-69.16195	-90.31737	23.59643	56.14323	-79.73966	92.75838	447.5185	39.05616	19.52808	-2.44101	-62.65259	0
85	46.37919	-52.07488	-97.6404	0.81367	70.78929	-74.85764	45.56552	513.42577	8.95037	-5.69569	-20.34175	-79.73966	0
86	65.90727	-42.31084	-107.40444	-11.39138	85.43535	-74.85764	-20.34175	579.33304	-34.98781	-42.31084	-47.19286	-101.70875	0
87	95.19939	-22.78276	-117.16848	-35.80148	104.96343	-69.97562	-91.13104	645.24031	-86.24902	-78.92599	-76.48498	-126.11885	0
88	129.37353	-0.81367	-129.37353	-65.0936	129.37353	-65.0936	-164.36134	711.14758	-137.51023	-117.98215	-103.33609	-145.64693	0
89	163.54767	29.29212	-134.25555	-96.82673	148.90161	-52.88855	-249.79669	777.05485	-198.53548	-164.36134	-137.51023	-170.05703	0
90	202.60383	65.90727	-136.69656	-133.44188	170.8707	-35.80148	-354.76012	838.0801	-271.76578	-218.06356	-176.56639	-199.34915	0
91	241.65999	112.28646	-129.37353	-177.38006	185.51676	-8.95037	-479.25163	882.01828	-359.64214	-281.52982	-218.06356	-228.64127	0
92	283.15716	175.75272	-107.40444	-228.64127	195.2808	35.80148	-611.06617	901.54636	-452.40052	-347.43709	-262.00174	-257.93339	0
93	327.09534	244.101	-82.99434	-284.7845	205.04484	82.18067	-752.64475	894.22333	-547.59991	-410.90335	-301.0579	-282.34349	0
94	353.94645	302.68524	-51.26121	-328.72268	202.60383	126.11885	-896.66434	845.40313	-645.24031	-476.81062	-342.55507	-306.75359	0
95	375.91554	361.26948	-14.64606	-367.77884	195.2808	174.93905	-1038.24292	750.20374	-740.4397	-540.27688	-379.17022	-328.72268	0
96	388.12059	410.08968	22.78276	-399.51197	183.07575	216.43622	-1157.85241	611.06617	-820.99303	-591.53809	-408.46234	-343.36874	0
97	388.12059	441.82281	54.51589	-414.15803	168.42969	248.16935	-1238.40574	447.5185	-879.57727	-628.15324	-425.54941	-348.25076	0
98	373.47453	446.70483	74.04397	-409.27601	151.34262	260.3744	-1287.22594	264.44275	-918.63343	-647.68132	-435.31345	-348.25076	0
99	344.18241	422.29473	78.92599	-382.4249	134.25555	250.61036	-1304.31301	59.39791	-935.7205	-652.56334	-435.31345	-343.36874	0
100	300.24423	385.67958	86.24902	-343.36874	107.40444	235.9643	-1289.66695	-153.78363	-930.83848	-637.91728	-420.66739	-326.28167	1000	P+0
101	253.86504	339.30039	86.24902	-296.98955	85.43535	213.99521	-1250.61079	-358.82847	-906.42838	-613.50718	-398.6983	-304.31258	0
102	200.16282	278.27514	78.92599	-238.40531	61.02525	179.82107	-1196.90857	-537.0222	-872.25424	-579.33304	-376.72921	-282.34349	0
103	146.4606	219.6909	74.04397	-182.26208	36.61515	148.08794	-1135.88332	-683.4828	-833.19808	-545.1589	-352.31911	-262.81541	0
104	102.52242	170.8707	69.16195	-135.88289	17.08707	121.23683	-1067.53504	-803.09229	-781.93687	-506.10274	-325.468	-238.40531	0
105	70.78929	141.57858	71.60296	-106.59077	0	106.59077	-991.86373	-881.20461	-723.35263	-462.16456	-291.29386	-209.11319	0
106	53.70222	117.16848	64.27993	-84.62168	-5.69569	91.94471	-913.75141	-903.1737	-664.76839	-420.66739	-264.44275	-187.1441	0
107	39.05616	92.75838	54.51589	-65.0936	-8.1367	74.85764	-835.63909	-888.52764	-611.06617	-386.49325	-242.47366	-170.05703	0
108	36.61515	78.11232	42.31084	-57.77057	-3.25468	60.21158	-759.96778	-844.58946	-557.36395	-352.31911	-220.50457	-155.41097	0
109	39.05616	65.90727	27.66478	-52.88855	7.32303	48.00653	-681.85546	-786.00522	-501.22072	-315.70396	-196.09447	-135.88289	0
110	39.05616	53.70222	15.45973	-45.56552	12.20505	35.80148	-606.18415	-717.65694	-445.07749	-279.08881	-171.68437	-118.79582	0
111	36.61515	34.17414	-2.44101	-35.80148	19.52808	16.2734	-535.39486	-646.86765	-396.25729	-249.79669	-154.5973	-109.03178	0
112	31.73313	17.08707	-14.64606	-23.59643	24.4101	0.81367	-474.36961	-580.96038	-354.76012	-222.94558	-139.95124	-101.70875	0
113	31.73313	9.76404	-21.96909	-21.15542	26.85111	-6.50936	-418.22638	-524.81715	-315.70396	-200.97649	-125.30518	-94.38572	0
114	24.4101	7.32303	-17.08707	-16.2734	21.96909	-4.06835	-366.96517	-473.55594	-276.6478	-179.0074	-113.10013	-87.06269	0
115	19.52808	7.32303	-12.20505	-13.83239	17.08707	-1.62734	-323.02699	-434.49978	-244.91467	-161.92033	-103.33609	-79.73966	0
116	12.20505	7.32303	-4.88202	-8.95037	9.76404	0.81367	-283.97083	-400.32564	-215.62255	-144.83326	-91.13104	-72.41663	0
117	7.32303	14.64606	8.1367	-11.39138	0	11.39138	-247.35568	-375.91554	-188.77144	-127.74619	-81.367	-62.65259	0
118	0	19.52808	20.34175	-8.95037	-10.57771	21.15542	-218.06356	-358.82847	-169.24336	-115.54114	-71.60296	-55.32956	0
119	-5.69569	24.4101	30.10579	-8.95037	-17.90074	26.03744	-196.09447	-349.06443	-149.71528	-105.7771	-61.83892	-45.56552	0
120	-8.1367	31.73313	39.86983	-11.39138	-22.78276	35.80148	-179.0074	-344.18241	-135.06922	-96.01306	-54.51589	-38.24249	0
121	-13.01872	36.61515	49.63387	-11.39138	-30.10579	43.12451	-164.36134	-344.18241	-122.86417	-86.24902	-47.19286	-28.47845	0
122	-13.01872	39.05616	52.07488	-13.83239	-32.5468	45.56552	-154.5973	-344.18241	-115.54114	-81.367	-39.86983	-21.15542	0
123	-13.01872	46.37919	59.39791	-16.2734	-34.98781	52.88855	-147.27427	-344.18241	-108.21811	-74.04397	-34.98781	-16.2734	0
124	-8.1367	53.70222	61.83892	-23.59643	-34.98781	57.77057	-142.39225	-346.62342	-98.45407	-69.16195	-27.66478	-8.95037	0
125	-5.69569	56.14323	61.83892	-26.03744	-32.5468	57.77057	-132.62821	-346.62342	-88.69003	-61.83892	-20.34175	-1.62734	0
126	-5.69569	56.14323	61.83892	-26.03744	-32.5468	57.77057	-125.30518	-346.62342	-78.92599	-54.51589	-15.45973	1.62734	0
127	-5.69569	53.70222	59.39791	-23.59643	-32.5468	55.32956	-117.98215	-344.18241	-76.48498	-52.07488	-13.01872	6.50936	0
128	-8.1367	53.70222	61.83892	-23.59643	-34.98781	57.77057	-108.21811	-341.7414	-71.60296	-49.63387	-10.57771	8.95037	0
129	-13.01872	51.26121	64.27993	-18.71441	-37.42882	57.77057	-100.89508	-336.85938	-66.72094	-49.63387	-8.1367	13.83239	0
130	-20.34175	48.8202	69.16195	-13.83239	-44.75185	57.77057	-98.45407	-331.97736	-64.27993	-49.63387	-8.1367	16.2734	0
131	-27.66478	48.8202	76.48498	-11.39138	-52.07488	62.65259	-96.01306	-329.53635	-64.27993	-49.63387	-8.1367	16.2734	0
132	-30.10579	53.70222	83.80801	-11.39138	-56.9569	67.53461	-96.01306	-329.53635	-66.72094	-49.63387	-8.1367	16.2734	0
133	-30.10579	63.46626	93.57205	-16.2734	-61.83892	77.29865	-93.57205	-329.53635	-64.27993	-49.63387	-5.69569	18.71441	0
134	-30.10579	68.34828	98.45407	-18.71441	-64.27993	82.18067	-93.57205	-329.53635	-61.83892	-47.19286	-5.69569	21.15542	0
135	-30.10579	68.34828	98.45407	-18.71441	-64.27993	82.18067	-91.13104	-329.53635	-54.51589	-44.75185	-2.44101	26.03744	0
136	-32.5468	65.90727	98.45407	-16.2734	-64.27993	82.18067	-86.24902	-329.53635	-49.63387	-42.31084	2.44101	28.47845	0
137	-32.5468	61.02525	93.57205	-13.83239	-61.83892	77.29865	-81.367	-329.53635	-47.19286	-39.86983	2.44101	30.91946	0
138	-32.5468	56.14323	88.69003	-11.39138	-59.39791	72.41663	-74.04397	-324.65433	-42.31084	-39.86983	7.32303	33.36047	0
139	-42.31084	43.93818	86.24902	-1.62734	-64.27993	65.0936	-71.60296	-324.65433	-39.86983	-39.86983	7.32303	33.36047	0
140	-54.51589	29.29212	83.80801	11.39138	-69.16195	55.32956	-69.16195	-322.21332	-39.86983	-39.86983	4.88202	33.36047	0
141	-71.60296	12.20505	83.80801	28.47845	-76.48498	48.00653	-71.60296	-324.65433	-44.75185	-44.75185	2.44101	28.47845	0
142	-81.367	2.44101	83.80801	38.24249	-81.367	43.12451	-74.04397	-324.65433	-49.63387	-49.63387	0	28.47845	0
143	-78.92599	4.88202	83.80801	35.80148	-81.367	43.12451	-74.04397	-324.65433	-49.63387	-47.19286	4.88202	30.91946	0
144	-74.04397	12.20505	86.24902	30.91946	-78.92599	48.00653	-74.04397	-327.09534	-47.19286	-44.75185	7.32303	35.80148	0
145	-69.16195	19.52808	88.69003	23.59643	-78.92599	52.88855	-71.60296	-327.09534	-42.31084	-42.31084	12.20505	40.6835	0
146	-59.39791	29.29212	88.69003	13.83239	-74.04397	57.77057	-66.72094	-324.65433	-37.42882	-37.42882	17.08707	45.56552	0
147	-44.75185	46.37919	91.13104	-1.62734	-66.72094	67.53461	-56.9569	-319.77231	-30.10579	-32.5468	21.96909	50.44754	0
148	-25.22377	68.34828	93.57205	-21.15542	-59.39791	79.73966	-47.19286	-307.56726	-20.34175	-22.78276	31.73313	60.21158	0
149	-15.45973	75.67131	91.13104	-30.91946	-52.07488	82.18067	-37.42882	-300.24423	-10.57771	-17.90074	36.61515	65.0936	0
150	-15.45973	78.11232	93.57205	-30.91946	-54.51589	84.62168	-34.98781	-295.36221	-10.57771	-15.45973	39.05616	65.0936	0
151	-15.45973	80.55333	96.01306	-33.36047	-54.51589	87.06269	-30.10579	-292.9212	-8.1367	-13.01872	41.49717	65.0936	0
152	-15.45973	80.55333	96.01306	-33.36047	-54.51589	87.06269	-30.10579	-292.9212	-8.1367	-10.57771	41.49717	65.0936	0
153	-17.90074	80.55333	98.45407	-30.91946	-56.9569	89.5037	-30.10579	-292.9212	-10.57771	-10.57771	43.93818	65.0936	0
154	-17.90074	80.55333	98.45407	-30.91946	-56.9569	89.5037	-32.5468	-297.80322	-10.57771	-10.57771	41.49717	62.65259	0
155	-22.78276	78.11232	100.89508	-28.47845	-61.83892	89.5037	-39.86983	-305.12625	-13.01872	-13.01872	39.05616	60.21158	0
156	-30.10579	73.2303	103.33609	-21.15542	-66.72094	87.06269	-39.86983	-310.00827	-13.01872	-13.01872	36.61515	57.77057	0
157	-32.5468	70.78929	103.33609	-18.71441	-66.72094	87.06269	-39.86983	-314.89029	-15.45973	-15.45973	34.17414	57.77057	0
158	-34.98781	70.78929	105.7771	-18.71441	-69.16195	87.06269	-39.86983	-314.89029	-17.90074	-15.45973	31.73313	55.32956	0
159	-34.98781	73.2303	108.21811	-18.71441	-71.60296	89.5037	-39.86983	-312.44928	-15.45973	-17.90074	31.73313	55.32956	0
160	-34.98781	75.67131	110.65912	-21.15542	-71.60296	91.94471	-39.86983	-310.00827	-15.45973	-17.90074	31.73313	55.32956	0
161	-32.5468	80.55333	113.10013	-23.59643	-71.60296	96.82673	-39.86983	-307.56726	-13.01872	-17.90074	31.73313	57.77057	0
162	-32.5468	85.43535	117.98215	-26.03744	-74.04397	101.70875	-39.86983	-310.00827	-15.45973	-17.90074	34.17414	57.77057	0
163	-34.98781	85.43535	120.42316	-26.03744	-76.48498	101.70875	-44.75185	-314.89029	-17.90074	-20.34175	34.17414	55.32956	0
164	-37.42882	85.43535	122.86417	-23.59643	-78.92599	104.14976	-47.19286	-319.77231	-17.90074	-20.34175	36.61515	55.32956	0
165	-37.42882	85.43535	122.86417	-23.59643	-78.92599	104.14976	-49.63387	-327.09534	-17.90074	-20.34175	36.61515	57.77057	0
166	-37.42882	85.43535	122.86417	-23.59643	-78.92599	104.14976	-52.07488	-331.97736	-17.90074	-17.90074	39.05616	57.77057	0
167	-47.19286	78.11232	125.30518	-16.2734	-86.24902	101.70875	-54.51589	-336.85938	-20.34175	-17.90074	36.61515	55.32956	0
168	-52.07488	78.11232	130.1872	-13.83239	-91.13104	104.14976	-54.51589	-336.85938	-20.34175	-17.90074	36.61515	55.32956	0
169	-52.07488	82.99434	135.06922	-16.2734	-93.57205	109.03178	-54.51589	-334.41837	-20.34175	-17.90074	36.61515	55.32956	0
170	-49.63387	90.31737	139.95124	-21.15542	-93.57205	113.9138	-54.51589	-331.97736	-22.78276	-17.90074	36.61515	55.32956	0
171	-52.07488	92.75838	144.83326	-21.15542	-98.45407	118.79582	-56.9569	-331.97736	-25.22377	-22.78276	31.73313	52.88855	0
172	-49.63387	97.6404	147.27427	-23.59643	-98.45407	121.23683	-59.39791	-334.41837	-32.5468	-25.22377	31.73313	52.88855	0
173	-47.19286	104.96343	152.15629	-28.47845	-98.45407	128.55986	-61.83892	-336.85938	-34.98781	-25.22377	31.73313	52.88855	0
174	-39.86983	117.16848	157.03831	-38.24249	-98.45407	135.88289	-64.27993	-339.30039	-34.98781	-25.22377	34.17414	55.32956	0
175	-37.42882	122.0505	159.47932	-43.12451	-98.45407	140.76491	-66.72094	-341.7414	-34.98781	-25.22377	34.17414	55.32956	0
176	-34.98781	124.49151	159.47932	-45.56552	-96.01306	140.76491	-66.72094	-341.7414	-32.5468	-25.22377	36.61515	57.77057	0
177	-32.5468	124.49151	157.03831	-45.56552	-93.57205	140.76491	-64.27993	-341.7414	-30.10579	-25.22377	39.05616	57.77057	0
178	-27.66478	126.93252	154.5973	-50.44754	-91.13104	140.76491	-64.27993	-339.30039	-30.10579	-22.78276	39.05616	57.77057	0
179	-27.66478	126.93252	154.5973	-50.44754	-91.13104	140.76491	-61.83892	-334.41837	-27.66478	-22.78276	39.05616	57.77057	0
180	-30.10579	126.93252	157.03831	-48.00653	-93.57205	140.76491	-61.83892	-331.97736	-30.10579	-25.22377	39.05616	57.77057	0
181	-32.5468	131.81454	164.36134	-50.44754	-98.45407	148.08794	-66.72094	-331.97736	-32.5468	-30.10579	36.61515	52.88855	0
182	-34.98781	131.81454	166.80235	-48.00653	-100.89508	148.08794	-69.16195	-334.41837	-39.86983	-32.5468	34.17414	50.44754	0
183	-30.10579	136.69656	166.80235	-52.88855	-98.45407	150.52895	-74.04397	-334.41837	-42.31084	-34.98781	34.17414	50.44754	0
184	-30.10579	141.57858	171.68437	-55.32956	-100.89508	155.41097	-78.92599	-339.30039	-44.75185	-37.42882	31.73313	50.44754	0
185	-37.42882	136.69656	174.12538	-50.44754	-105.7771	155.41097	-83.80801	-346.62342	-49.63387	-42.31084	29.29212	48.00653	0
186	-34.98781	141.57858	176.56639	-52.88855	-105.7771	157.85198	-88.69003	-346.62342	-52.07488	-42.31084	26.85111	45.56552	0
187	-27.66478	146.4606	174.12538	-60.21158	-100.89508	160.29299	-83.80801	-341.7414	-54.51589	-42.31084	26.85111	50.44754	0
188	-27.66478	146.4606	174.12538	-60.21158	-100.89508	160.29299	-83.80801	-336.85938	-54.51589	-42.31084	29.29212	50.44754	0
189	-25.22377	151.34262	176.56639	-62.65259	-100.89508	162.734	-78.92599	-329.53635	-54.51589	-42.31084	31.73313	52.88855	0
190	-25.22377	156.22464	181.44841	-65.0936	-103.33609	167.61602	-78.92599	-322.21332	-54.51589	-44.75185	31.73313	52.88855	0
191	-20.34175	165.98868	186.33043	-72.41663	-103.33609	174.93905	-76.48498	-314.89029	-54.51589	-42.31084	34.17414	57.77057	0
192	-13.01872	175.75272	188.77144	-82.18067	-100.89508	182.26208	-69.16195	-305.12625	-49.63387	-37.42882	41.49717	62.65259	0
193	-13.01872	180.63474	193.65346	-84.62168	-103.33609	187.1441	-69.16195	-300.24423	-47.19286	-32.5468	46.37919	65.0936	0
194	-13.01872	185.51676	198.53548	-87.06269	-105.7771	192.02612	-69.16195	-297.80322	-44.75185	-32.5468	46.37919	67.53461	0
195	-10.57771	187.95777	198.53548	-89.5037	-103.33609	192.02612	-71.60296	-297.80322	-42.31084	-30.10579	48.8202	67.53461	0
196	-13.01872	185.51676	198.53548	-87.06269	-105.7771	192.02612	-69.16195	-290.48019	-39.86983	-27.66478	51.26121	69.97562	0
197	-13.01872	185.51676	198.53548	-87.06269	-105.7771	192.02612	-64.27993	-283.15716	-37.42882	-25.22377	51.26121	72.41663	0
198	-10.57771	190.39878	200.97649	-89.5037	-105.7771	194.46713	-61.83892	-270.95211	-34.98781	-25.22377	51.26121	74.85764	0
199	-8.1367	195.2808	203.4175	-94.38572	-105.7771	199.34915	-59.39791	-261.18807	-32.5468	-27.66478	48.8202	72.41663	0
200	-8.1367	200.16282	208.29952	-96.82673	-108.21811	204.23117	-54.51589	-246.54201	-32.5468	-27.66478	46.37919	72.41663	0
201	-3.25468	207.48585	210.74053	-101.70875	-105.7771	209.11319	-49.63387	-231.89595	-30.10579	-27.66478	48.8202	72.41663	0
202	2.44101	217.24989	215.62255	-109.03178	-105.7771	216.43622	-44.75185	-217.24989	-27.66478	-25.22377	48.8202	74.85764	0
203	2.44101	222.13191	220.50457	-111.47279	-108.21811	221.31824	-42.31084	-205.04484	-27.66478	-25.22377	48.8202	74.85764	0
204	4.88202	222.13191	218.06356	-113.9138	-105.7771	221.31824	-42.31084	-192.83979	-25.22377	-25.22377	51.26121	74.85764	0
205	7.32303	217.24989	210.74053	-111.47279	-100.89508	213.99521	-39.86983	-183.07575	-22.78276	-22.78276	53.70222	74.85764	0
206	9.76404	209.92686	200.97649	-109.03178	-96.01306	206.67218	-34.98781	-168.42969	-17.90074	-17.90074	56.14323	79.73966	0
207	9.76404	205.04484	196.09447	-106.59077	-93.57205	201.79016	-30.10579	-153.78363	-17.90074	-13.01872	58.58424	79.73966	0
208	4.88202	192.83979	188.77144	-99.26774	-91.13104	192.02612	-27.66478	-136.69656	-17.90074	-13.01872	61.02525	79.73966	0
209	2.44101	183.07575	181.44841	-91.94471	-88.69003	182.26208	-22.78276	-122.0505	-15.45973	-10.57771	61.02525	79.73966	0
210	2.44101	183.07575	181.44841	-91.94471	-88.69003	182.26208	-17.90074	-102.52242	-15.45973	-5.69569	63.46626	82.18067	0
211	4.88202	187.95777	183.88942	-96.82673	-88.69003	187.1441	-13.01872	-82.99434	-15.45973	-3.25468	65.90727	82.18067	0
212	7.32303	192.83979	186.33043	-99.26774	-88.69003	189.58511	-8.1367	-65.90727	-15.45973	-3.25468	65.90727	79.73966	0
213	4.88202	195.2808	191.21245	-99.26774	-93.57205	194.46713	-5.69569	-51.26121	-15.45973	-3.25468	63.46626	77.29865	0
214	4.88202	192.83979	188.77144	-99.26774	-91.13104	192.02612	-0.81367	-39.05616	-13.01872	-0.81367	63.46626	74.85764	0
215	7.32303	192.83979	186.33043	-99.26774	-88.69003	189.58511	1.62734	-29.29212	-8.1367	1.62734	63.46626	74.85764	0
216	14.64606	192.83979	179.0074	-104.14976	-81.367	187.1441	8.95037	-14.64606	-0.81367	4.06835	68.34828	74.85764	0
217	14.64606	187.95777	174.12538	-101.70875	-78.92599	182.26208	16.2734	-2.44101	4.06835	7.32303	68.34828	74.85764	0
218	17.08707	183.07575	166.80235	-99.26774	-74.04397	174.93905	26.03744	13.01872	13.83239	14.64606	73.2303	77.29865	0
219	17.08707	173.31171	157.03831	-94.38572	-69.16195	165.17501	35.80148	30.10579	23.59643	19.52808	75.67131	79.73966	0
220	17.08707	168.42969	152.15629	-91.94471	-66.72094	160.29299	45.56552	49.63387	26.03744	24.4101	80.55333	84.62168	0
221	17.08707	163.54767	147.27427	-89.5037	-64.27993	155.41097	56.14323	69.16195	34.17414	31.73313	85.43535	87.06269	0
222	17.08707	161.10666	144.83326	-89.5037	-64.27993	152.96996	65.90727	88.69003	39.05616	34.17414	87.87636	87.06269	0
223	19.52808	161.10666	142.39225	-89.5037	-61.83892	152.96996	73.2303	108.21811	43.93818	41.49717	92.75838	91.94471	0
224	21.96909	156.22464	135.06922	-89.5037	-56.9569	145.64693	82.99434	117.98215	51.26121	46.37919	100.08141	94.38572	0
225	21.96909	151.34262	130.1872	-87.06269	-54.51589	140.76491	87.87636	125.30518	53.70222	51.26121	102.52242	94.38572	0
226	21.96909	144.01959	122.86417	-82.18067	-49.63387	133.44188	92.75838	135.06922	58.58424	56.14323	104.96343	94.38572	0
227	24.4101	141.57858	117.98215	-82.18067	-47.19286	131.00087	97.6404	142.39225	65.90727	61.02525	109.84545	94.38572	0
228	26.85111	136.69656	110.65912	-82.18067	-42.31084	123.67784	104.96343	154.5973	70.78929	65.90727	112.28646	94.38572	0
229	26.85111	131.81454	105.7771	-79.73966	-39.86983	118.79582	114.72747	166.80235	80.55333	73.2303	117.16848	96.82673	0
230	21.96909	119.60949	98.45407	-69.97562	-37.42882	109.03178	122.0505	176.56639	85.43535	78.11232	119.60949	96.82673	0
231	17.08707	109.84545	93.57205	-62.65259	-37.42882	101.70875	131.81454	193.65346	92.75838	82.99434	122.0505	99.26774	0
232	14.64606	102.52242	88.69003	-57.77057	-37.42882	96.82673	141.57858	210.74053	100.08141	90.31737	126.93252	101.70875	0
233	14.64606	92.75838	78.92599	-52.88855	-32.5468	87.06269	151.34262	225.38659	107.40444	95.19939	131.81454	106.59077	0
234	9.76404	80.55333	71.60296	-45.56552	-30.10579	77.29865	158.66565	227.8276	114.72747	100.08141	136.69656	109.03178	0
235	0	61.02525	61.83892	-30.91946	-30.10579	62.65259	158.66565	227.8276	117.16848	100.08141	136.69656	109.03178	0
236	-3.25468	51.26121	54.51589	-23.59643	-27.66478	52.88855	163.54767	230.26861	122.0505	104.96343	141.57858	113.9138	0
237	-3.25468	41.49717	44.75185	-18.71441	-22.78276	43.12451	165.98868	232.70962	124.49151	109.84545	146.4606	116.35481	0
238	-8.1367	26.85111	34.98781	-8.95037	-20.34175	30.91946	165.98868	232.70962	124.49151	109.84545	146.4606	118.79582	0
239	-13.01872	14.64606	27.66478	-1.62734	-20.34175	21.15542	165.98868	230.26861	126.93252	112.28646	146.4606	118.79582	0
240	-17.90074	7.32303	25.22377	4.06835	-20.34175	16.2734	165.98868	230.26861	126.93252	112.28646	146.4606	121.23683	0
241	-15.45973	4.88202	20.34175	4.06835	-17.90074	11.39138	170.8707	235.15063	126.93252	117.16848	151.34262	123.67784	0
242	-10.57771	4.88202	15.45973	0.81367	-13.01872	8.95037	178.19373	242.47366	131.81454	122.0505	153.78363	126.11885	0
243	-8.1367	-0.81367	8.1367	4.06835	-8.1367	4.06835	180.63474	244.91467	134.25555	124.49151	156.22464	126.11885	0
244	-3.25468	-0.81367	2.44101	0.81367	-3.25468	0.81367	183.07575	240.03265	136.69656	126.93252	158.66565	126.11885	0
245	-3.25468	2.44101	5.69569	0.81367	-3.25468	4.06835	185.51676	232.70962	141.57858	131.81454	161.10666	128.55986	0
246	-3.25468	-5.69569	-2.44101	4.06835	0	-4.06835	187.95777	227.8276	144.01959	134.25555	161.10666	131.00087	0
247	-8.1367	-20.34175	-12.20505	13.83239	2.44101	-16.2734	187.95777	220.50457	144.01959	134.25555	161.10666	128.55986	0
248	-8.1367	-27.66478	-19.52808	16.2734	4.88202	-23.59643	187.95777	215.62255	144.01959	134.25555	161.10666	128.55986	0
249	-10.57771	-34.98781	-24.4101	21.15542	7.32303	-30.91946	185.51676	210.74053	146.4606	131.81454	158.66565	123.67784	0
250	-22.78276	-54.51589	-31.73313	38.24249	4.88202	-43.12451	183.07575	205.85851	141.57858	129.37353	153.78363	118.79582	0
251	-32.5468	-69.16195	-36.61515	50.44754	2.44101	-52.88855	183.07575	203.4175	139.13757	126.93252	151.34262	113.9138	0
252	-30.10579	-71.60296	-41.49717	50.44754	4.88202	-57.77057	183.07575	203.4175	139.13757	129.37353	151.34262	113.9138	0
253	-22.78276	-64.27993	-41.49717	43.12451	9.76404	-52.88855	185.51676	203.4175	139.13757	129.37353	153.78363	113.9138	0
254	-15.45973	-59.39791	-43.93818	35.80148	14.64606	-52.88855	185.51676	198.53548	139.13757	131.81454	153.78363	113.9138	0
255	-22.78276	-66.72094	-43.93818	43.12451	9.76404	-55.32956	180.63474	186.33043	139.13757	131.81454	151.34262	113.9138	0
256	-17.90074	-64.27993	-46.37919	40.6835	14.64606	-55.32956	180.63474	181.44841	141.57858	134.25555	153.78363	116.35481	0
257	-8.1367	-52.07488	-43.93818	28.47845	17.08707	-48.00653	183.07575	176.56639	144.01959	136.69656	158.66565	123.67784	0
258	-8.1367	-52.07488	-43.93818	28.47845	17.08707	-48.00653	183.07575	171.68437	144.01959	136.69656	158.66565	123.67784	0
259	-10.57771	-64.27993	-53.70222	35.80148	21.96909	-60.21158	180.63474	166.80235	144.01959	136.69656	158.66565	123.67784	0
260	-10.57771	-71.60296	-61.02525	40.6835	24.4101	-67.53461	180.63474	164.36134	144.01959	139.13757	158.66565	126.11885	0
261	-5.69569	-71.60296	-65.90727	38.24249	29.29212	-69.97562	183.07575	166.80235	144.01959	139.13757	158.66565	126.11885	0
262	-5.69569	-74.04397	-68.34828	38.24249	31.73313	-72.41663	185.51676	166.80235	144.01959	141.57858	161.10666	128.55986	0
263	-10.57771	-83.80801	-73.2303	45.56552	31.73313	-79.73966	180.63474	164.36134	136.69656	139.13757	156.22464	126.11885	0
264	-15.45973	-88.69003	-73.2303	50.44754	29.29212	-82.18067	175.75272	154.5973	136.69656	136.69656	153.78363	123.67784	0
265	-15.45973	-88.69003	-73.2303	50.44754	29.29212	-82.18067	173.31171	147.27427	134.25555	134.25555	151.34262	121.23683	0
266	-15.45973	-83.80801	-68.34828	48.00653	26.85111	-77.29865	168.42969	142.39225	131.81454	131.81454	148.90161	118.79582	0
267	-22.78276	-88.69003	-65.90727	55.32956	21.96909	-77.29865	163.54767	135.06922	126.93252	126.93252	144.01959	116.35481	0
268	-27.66478	-96.01306	-68.34828	60.21158	19.52808	-82.18067	161.10666	130.1872	124.49151	124.49151	141.57858	113.9138	0
269	-27.66478	-96.01306	-68.34828	60.21158	19.52808	-82.18067	161.10666	130.1872	124.49151	122.0505	139.13757	111.47279	0
270	-30.10579	-98.45407	-68.34828	62.65259	19.52808	-84.62168	161.10666	130.1872	124.49151	122.0505	139.13757	109.03178	0
271	-30.10579	-100.89508	-70.78929	65.0936	19.52808	-87.06269	161.10666	137.51023	124.49151	122.0505	136.69656	109.03178	0
272	-30.10579	-100.89508	-70.78929	65.0936	19.52808	-87.06269	163.54767	142.39225	122.0505	122.0505	136.69656	109.03178	0
273	-34.98781	-105.7771	-70.78929	69.97562	17.08707	-89.5037	161.10666	142.39225	119.60949	122.0505	134.25555	104.14976	0
274	-34.98781	-105.7771	-70.78929	69.97562	17.08707	-89.5037	161.10666	139.95124	119.60949	122.0505	131.81454	104.14976	0
275	-30.10579	-105.7771	-75.67131	67.53461	21.96909	-91.94471	161.10666	137.51023	122.0505	124.49151	131.81454	104.14976	0
276	-27.66478	-108.21811	-80.55333	67.53461	26.85111	-94.38572	161.10666	137.51023	122.0505	126.93252	131.81454	106.59077	0
277	-27.66478	-108.21811	-80.55333	67.53461	26.85111	-94.38572	161.10666	132.62821	122.0505	126.93252	131.81454	106.59077	0
278	-30.10579	-113.10013	-82.99434	69.97562	26.85111	-99.26774	158.66565	130.1872	122.0505	126.93252	131.81454	106.59077	0
279	-25.22377	-113.10013	-87.87636	67.53461	31.73313	-101.70875	158.66565	130.1872	122.0505	126.93252	134.25555	111.47279	0
280	-20.34175	-108.21811	-87.87636	62.65259	34.17414	-99.26774	161.10666	135.06922	124.49151	129.37353	139.13757	116.35481	0
281	-22.78276	-108.21811	-85.43535	65.0936	31.73313	-96.82673	161.10666	139.95124	122.0505	129.37353	141.57858	118.79582	0
282	-25.22377	-105.7771	-80.55333	65.0936	26.85111	-94.38572	161.10666	142.39225	119.60949	129.37353	144.01959	121.23683	0
283	-20.34175	-103.33609	-82.99434	60.21158	31.73313	-94.38572	163.54767	144.83326	122.0505	129.37353	146.4606	123.67784	0
284	-20.34175	-105.7771	-85.43535	62.65259	31.73313	-96.82673	163.54767	142.39225	122.0505	129.37353	146.4606	123.67784	0
285	-22.78276	-108.21811	-85.43535	65.0936	31.73313	-96.82673	163.54767	139.95124	124.49151	129.37353	148.90161	123.67784	0
286	-25.22377	-108.21811	-82.99434	65.0936	29.29212	-96.82673	163.54767	139.95124	126.93252	131.81454	148.90161	123.67784	0
287	-22.78276	-108.21811	-85.43535	65.0936	31.73313	-96.82673	163.54767	137.51023	124.49151	129.37353	146.4606	121.23683	0
288	-22.78276	-108.21811	-85.43535	65.0936	31.73313	-96.82673	161.10666	137.51023	122.0505	129.37353	144.01959	121.23683	0
289	-22.78276	-103.33609	-80.55333	62.65259	29.29212	-91.94471	158.66565	135.06922	122.0505	126.93252	141.57858	116.35481	0
290	-25.22377	-100.89508	-75.67131	62.65259	24.4101	-89.5037	158.66565	139.95124	119.60949	126.93252	139.13757	116.35481	0
291	-22.78276	-96.01306	-73.2303	57.77057	24.4101	-84.62168	158.66565	147.27427	117.16848	124.49151	136.69656	113.9138	0
292	-17.90074	-91.13104	-73.2303	52.88855	26.85111	-82.18067	161.10666	152.15629	114.72747	124.49151	136.69656	113.9138	1500	QRS+0
293	-20.34175	-93.57205	-73.2303	55.32956	26.85111	-84.62168	163.54767	159.47932	114.72747	124.49151	136.69656	113.9138	0
294	-22.78276	-96.01306	-73.2303	57.77057	24.4101	-84.62168	165.98868	159.47932	119.60949	126.93252	139.13757	116.35481	0
295	-22.78276	-98.45407	-75.67131	60.21158	26.85111	-87.06269	168.42969	164.36134	126.93252	131.81454	144.01959	121.23683	0
296	-22.78276	-103.33609	-80.55333	62.65259	29.29212	-91.94471	168.42969	166.80235	129.37353	136.69656	148.90161	123.67784	0
297	-20.34175	-105.7771	-85.43535	62.65259	31.73313	-96.82673	170.8707	169.24336	134.25555	139.13757	153.78363	126.11885	0
298	-20.34175	-110.65912	-90.31737	65.0936	34.17414	-101.70875	173.31171	171.68437	134.25555	141.57858	153.78363	128.55986	0
299	-22.78276	-113.10013	-90.31737	67.53461	34.17414	-101.70875	170.8707	174.12538	136.69656	141.57858	153.78363	128.55986	0
300	-20.34175	-108.21811	-87.87636	62.65259	34.17414	-99.26774	173.31171	179.0074	136.69656	139.13757	153.78363	128.55986	0
301	-20.34175	-105.7771	-85.43535	62.65259	31.73313	-96.82673	173.31171	183.88942	131.81454	136.69656	148.90161	123.67784	0
302	-25.22377	-105.7771	-80.55333	65.0936	26.85111	-94.38572	173.31171	186.33043	126.93252	134.25555	144.01959	121.23683	0
303	-27.66478	-105.7771	-78.11232	65.0936	24.4101	-91.94471	170.8707	188.77144	122.0505	131.81454	139.13757	118.79582	0
304	-30.10579	-110.65912	-80.55333	69.97562	24.4101	-96.82673	168.42969	186.33043	119.60949	129.37353	136.69656	113.9138	0
305	-34.98781	-117.98215	-82.99434	74.85764	24.4101	-101.70875	165.98868	181.44841	119.60949	126.93252	134.25555	111.47279	0
306	-34.98781	-120.42316	-85.43535	77.29865	24.4101	-104.14976	163.54767	181.44841	117.16848	126.93252	134.25555	109.03178	0
307	-34.98781	-120.42316	-85.43535	77.29865	24.4101	-104.14976	163.54767	183.88942	117.16848	126.93252	134.25555	109.03178	0
308	-30.10579	-120.42316	-90.31737	74.85764	29.29212	-106.59077	163.54767	186.33043	117.16848	126.93252	134.25555	109.03178	0
309	-25.22377	-117.98215	-92.75838	69.97562	34.17414	-106.59077	163.54767	186.33043	117.16848	126.93252	134.25555	109.03178	0
310	-20.34175	-108.21811	-87.87636	62.65259	34.17414	-99.26774	165.98868	191.21245	119.60949	129.37353	136.69656	109.03178	0
311	-15.45973	-100.89508	-85.43535	57.77057	34.17414	-94.38572	168.42969	200.97649	119.60949	131.81454	136.69656	109.03178	0
312	-13.01872	-98.45407	-85.43535	55.32956	36.61515	-91.94471	173.31171	208.29952	119.60949	131.81454	136.69656	106.59077	0
313	-13.01872	-98.45407	-85.43535	55.32956	36.61515	-91.94471	173.31171	210.74053	119.60949	131.81454	136.69656	106.59077	0
314	-13.01872	-100.89508	-87.87636	55.32956	36.61515	-94.38572	175.75272	208.29952	119.60949	131.81454	136.69656	106.59077	0
315	-13.01872	-103.33609	-90.31737	57.77057	39.05616	-96.82673	173.31171	205.85851	119.60949	131.81454	139.13757	106.59077	0
316	-25.22377	-115.54114	-90.31737	69.97562	31.73313	-104.14976	170.8707	200.97649	117.16848	131.81454	136.69656	104.14976	0
317	-39.86983	-132.62821	-92.75838	84.62168	26.85111	-113.9138	165.98868	196.09447	114.72747	129.37353	136.69656	104.14976	0
318	-39.86983	-135.06922	-95.19939	87.06269	26.85111	-116.35481	165.98868	198.53548	117.16848	131.81454	141.57858	106.59077	0
319	-32.5468	-127.74619	-95.19939	79.73966	31.73313	-111.47279	168.42969	198.53548	122.0505	134.25555	144.01959	111.47279	0
320	-32.5468	-127.74619	-95.19939	79.73966	31.73313	-111.47279	173.31171	203.4175	122.0505	136.69656	144.01959	111.47279	0
321	-32.5468	-130.1872	-97.6404	79.73966	31.73313	-113.9138	178.19373	213.18154	124.49151	139.13757	144.01959	111.47279	0
322	-22.78276	-125.30518	-102.52242	72.41663	39.05616	-113.9138	185.51676	222.94558	129.37353	144.01959	146.4606	111.47279	0
323	-5.69569	-108.21811	-102.52242	55.32956	48.8202	-106.59077	190.39878	232.70962	131.81454	148.90161	148.90161	111.47279	0
324	2.44101	-100.89508	-102.52242	48.00653	51.26121	-101.70875	192.83979	232.70962	134.25555	148.90161	148.90161	111.47279	0
325	0	-105.7771	-104.96343	52.88855	51.26121	-104.14976	190.39878	227.8276	134.25555	148.90161	146.4606	109.03178	0
326	0	-105.7771	-104.96343	52.88855	51.26121	-104.14976	190.39878	225.38659	136.69656	148.90161	146.4606	109.03178	0
327	0	-105.7771	-104.96343	52.88855	51.26121	-104.14976	190.39878	220.50457	136.69656	148.90161	146.4606	111.47279	0
328	-3.25468	-108.21811	-104.96343	55.32956	51.26121	-106.59077	190.39878	220.50457	139.13757	148.90161	146.4606	113.9138	0
329	-8.1367	-110.65912	-102.52242	57.77057	46.37919	-106.59077	190.39878	218.06356	141.57858	153.78363	151.34262	116.35481	0
330	-15.45973	-110.65912	-95.19939	62.65259	39.05616	-104.14976	190.39878	218.06356	141.57858	153.78363	151.34262	118.79582	0
331	-15.45973	-110.65912	-95.19939	62.65259	39.05616	-104.14976	192.83979	222.94558	141.57858	156.22464	153.78363	123.67784	0
332	-17.90074	-113.10013	-95.19939	65.0936	39.05616	-104.14976	195.2808	227.8276	141.57858	156.22464	153.78363	123.67784	0
333	-17.90074	-115.54114	-97.6404	65.0936	39.05616	-106.59077	192.83979	230.26861	139.13757	153.78363	153.78363	123.67784	0
334	-25.22377	-125.30518	-100.08141	74.85764	36.61515	-113.9138	187.95777	222.94558	134.25555	151.34262	148.90161	121.23683	0
335	-34.98781	-135.06922	-100.08141	84.62168	31.73313	-118.79582	180.63474	210.74053	129.37353	144.01959	144.01959	113.9138	0
336	-37.42882	-139.95124	-102.52242	87.06269	31.73313	-121.23683	173.31171	203.4175	124.49151	141.57858	139.13757	111.47279	0
337	-32.5468	-137.51023	-104.96343	84.62168	36.61515	-121.23683	173.31171	198.53548	122.0505	141.57858	136.69656	111.47279	0
338	-30.10579	-137.51023	-107.40444	82.18067	39.05616	-123.67784	170.8707	196.09447	122.0505	139.13757	134.25555	109.03178	0
339	-32.5468	-137.51023	-104.96343	84.62168	36.61515	-121.23683	168.42969	193.65346	119.60949	139.13757	131.81454	106.59077	0
340	-30.10579	-135.06922	-104.96343	82.18067	36.61515	-121.23683	168.42969	193.65346	119.60949	136.69656	129.37353	104.14976	0
341	-20.34175	-122.86417	-102.52242	69.97562	41.49717	-113.9138	173.31171	198.53548	119.60949	136.69656	129.37353	106.59077	0
342	-13.01872	-115.54114	-102.52242	62.65259	43.93818	-109.03178	180.63474	205.85851	122.0505	139.13757	129.37353	106.59077	0
343	-8.1367	-113.10013	-104.96343	60.21158	48.8202	-109.03178	185.51676	213.18154	124.49151	141.57858	129.37353	111.47279	0
344	-8.1367	-110.65912	-102.52242	57.77057	46.37919	-106.59077	185.51676	213.18154	129.37353	141.57858	129.37353	111.47279	0
345	-8.1367	-103.33609	-95.19939	55.32956	43.93818	-99.26774	190.39878	210.74053	134.25555	144.01959	131.81454	113.9138	0
346	-10.57771	-98.45407	-87.87636	52.88855	39.05616	-94.38572	195.2808	208.29952	139.13757	146.4606	134.25555	116.35481	0
347	-8.1367	-91.13104	-82.99434	48.00653	36.61515	-87.06269	200.16282	208.29952	146.4606	151.34262	136.69656	121.23683	0
348	-5.69569	-86.24902	-80.55333	45.56552	36.61515	-84.62168	202.60383	208.29952	151.34262	153.78363	139.13757	126.11885	0
349	-5.69569	-81.367	-75.67131	43.12451	34.17414	-79.73966	207.48585	208.29952	158.66565	156.22464	144.01959	128.55986	0
350	-10.57771	-81.367	-70.78929	45.56552	29.29212	-77.29865	209.92686	205.85851	158.66565	156.22464	144.01959	128.55986	0
351	-8.1367	-76.48498	-68.34828	40.6835	29.29212	-72.41663	217.24989	210.74053	158.66565	156.22464	144.01959	128.55986	0
352	-8.1367	-76.48498	-68.34828	40.6835	29.29212	-72.41663	222.13191	215.62255	158.66565	156.22464	144.01959	128.55986	0
353	-8.1367	-76.48498	-68.34828	40.6835	29.29212	-72.41663	224.57292	220.50457	158.66565	153.78363	144.01959	128.55986	0
354	-13.01872	-76.48498	-63.46626	43.12451	24.4101	-69.97562	224.57292	220.50457	158.66565	153.78363	144.01959	128.55986	0
355	-13.01872	-71.60296	-58.58424	40.6835	21.96909	-65.0936	229.45494	218.06356	163.54767	158.66565	148.90161	131.00087	0
356	-10.57771	-69.16195	-58.58424	38.24249	24.4101	-65.0936	231.89595	218.06356	165.98868	163.54767	153.78363	133.44188	0
357	-13.01872	-69.16195	-56.14323	40.6835	21.96909	-62.65259	231.89595	213.18154	168.42969	165.98868	158.66565	135.88289	0
358	-15.45973	-66.72094	-51.26121	40.6835	17.08707	-60.21158	231.89595	208.29952	170.8707	168.42969	161.10666	135.88289	0
359	-13.01872	-61.83892	-48.8202	35.80148	17.08707	-55.32956	234.33696	200.97649	175.75272	175.75272	165.98868	140.76491	0
360	-13.01872	-56.9569	-43.93818	33.36047	14.64606	-50.44754	239.21898	198.53548	178.19373	178.19373	168.42969	140.76491	0
361	-15.45973	-56.9569	-41.49717	35.80148	12.20505	-50.44754	239.21898	196.09447	175.75272	178.19373	165.98868	140.76491	0
362	-20.34175	-61.83892	-41.49717	40.6835	9.76404	-52.88855	241.65999	191.21245	175.75272	175.75272	161.10666	138.3239	0
363	-22.78276	-59.39791	-36.61515	40.6835	7.32303	-48.00653	241.65999	191.21245	173.31171	173.31171	158.66565	135.88289	0
364	-17.90074	-54.51589	-36.61515	35.80148	9.76404	-45.56552	241.65999	188.77144	170.8707	173.31171	156.22464	135.88289	0
365	-13.01872	-49.63387	-36.61515	30.91946	12.20505	-43.12451	239.21898	183.88942	168.42969	170.8707	156.22464	135.88289	0
366	-8.1367	-44.75185	-36.61515	26.03744	14.64606	-40.6835	234.33696	183.88942	168.42969	170.8707	156.22464	135.88289	0
367	-3.25468	-39.86983	-36.61515	21.15542	17.08707	-38.24249	231.89595	181.44841	168.42969	170.8707	156.22464	138.3239	0
368	0	-39.86983	-39.05616	18.71441	19.52808	-38.24249	227.01393	176.56639	170.8707	170.8707	156.22464	138.3239	0
369	9.76404	-39.86983	-48.8202	13.83239	29.29212	-43.12451	222.13191	174.12538	168.42969	170.8707	156.22464	138.3239	0
370	17.08707	-34.98781	-51.26121	8.95037	34.17414	-43.12451	219.6909	174.12538	168.42969	170.8707	156.22464	140.76491	0
371	24.4101	-32.5468	-56.14323	4.06835	39.05616	-43.12451	217.24989	176.56639	165.98868	168.42969	153.78363	140.76491	0
372	24.4101	-34.98781	-58.58424	4.06835	41.49717	-45.56552	207.48585	176.56639	156.22464	161.10666	148.90161	138.3239	0
373	19.52808	-37.42882	-56.14323	8.95037	36.61515	-45.56552	200.16282	176.56639	146.4606	153.78363	146.4606	135.88289	0
374	17.08707	-32.5468	-48.8202	6.50936	31.73313	-40.6835	192.83979	174.12538	141.57858	148.90161	144.01959	133.44188	0
375	17.08707	-25.22377	-41.49717	4.06835	29.29212	-33.36047	185.51676	174.12538	134.25555	144.01959	141.57858	131.00087	0
376	17.08707	-15.45973	-31.73313	-1.62734	24.4101	-23.59643	175.75272	169.24336	126.93252	136.69656	136.69656	128.55986	0
377	7.32303	-15.45973	-21.96909	4.06835	14.64606	-18.71441	163.54767	164.36134	117.16848	129.37353	129.37353	121.23683	0
378	0	-15.45973	-14.64606	6.50936	7.32303	-13.83239	156.22464	159.47932	112.28646	124.49151	124.49151	116.35481	0
379	4.88202	-8.1367	-12.20505	0.81367	7.32303	-8.95037	148.90161	154.5973	107.40444	122.0505	119.60949	113.9138	0
380	12.20505	-3.25468	-14.64606	-4.06835	12.20505	-8.95037	146.4606	154.5973	104.96343	117.16848	117.16848	111.47279	0
381	14.64606	-3.25468	-17.08707	-6.50936	14.64606	-8.95037	141.57858	154.5973	97.6404	112.28646	112.28646	109.03178	0
382	12.20505	-10.57771	-21.96909	-1.62734	17.08707	-16.2734	136.69656	154.5973	92.75838	109.84545	107.40444	104.14976	0
383	12.20505	-20.34175	-31.73313	4.06835	21.96909	-26.03744	136.69656	157.03831	87.87636	104.96343	104.96343	104.14976	0
384	14.64606	-27.66478	-41.49717	6.50936	26.85111	-33.36047	131.81454	157.03831	82.99434	102.52242	102.52242	101.70875	-1500	QRS-0
385	12.20505	-39.86983	-51.26121	13.83239	31.73313	-45.56552	129.37353	154.5973	80.55333	102.52242	100.08141	99.26774	0
386	7.32303	-49.63387	-56.14323	21.15542	31.73313	-52.88855	124.49151	149.71528	75.67131	97.6404	95.19939	96.82673	0
387	4.88202	-52.07488	-56.14323	23.59643	29.29212	-52.88855	119.60949	144.83326	73.2303	97.6404	95.19939	94.38572	0
388	4.88202	-59.39791	-63.46626	26.03744	34.17414	-60.21158	114.72747	139.95124	73.2303	97.6404	95.19939	94.38572	0
389	4.88202	-59.39791	-63.46626	26.03744	34.17414	-60.21158	112.28646	132.62821	73.2303	100.08141	95.19939	91.94471	0
390	4.88202	-59.39791	-63.46626	26.03744	34.17414	-60.21158	114.72747	130.1872	75.67131	102.52242	95.19939	91.94471	0
391	4.88202	-59.39791	-63.46626	26.03744	34.17414	-60.21158	117.16848	130.1872	78.11232	104.96343	95.19939	91.94471	0
392	2.44101	-61.83892	-63.46626	28.47845	31.73313	-62.65259	119.60949	130.1872	80.55333	107.40444	95.19939	91.94471	0
393	-3.25468	-69.16195	-65.90727	35.80148	31.73313	-67.53461	119.60949	127.74619	80.55333	107.40444	95.19939	91.94471	0
394	-8.1367	-76.48498	-68.34828	40.6835	29.29212	-72.41663	119.60949	122.86417	78.11232	107.40444	95.19939	91.94471	0
395	-10.57771	-86.24902	-75.67131	48.00653	31.73313	-82.18067	114.72747	113.10013	73.2303	104.96343	92.75838	89.5037	0
396	-15.45973	-93.57205	-78.11232	52.88855	31.73313	-87.06269	109.84545	105.7771	68.34828	100.08141	87.87636	87.06269	0
397	-17.90074	-100.89508	-82.99434	57.77057	31.73313	-91.94471	102.52242	98.45407	63.46626	95.19939	82.99434	82.18067	0
398	-15.45973	-110.65912	-95.19939	62.65259	39.05616	-104.14976	92.75838	91.13104	58.58424	90.31737	78.11232	77.29865	0
399	-13.01872	-115.54114	-102.52242	62.65259	43.93818	-109.03178	85.43535	83.80801	51.26121	85.43535	73.2303	72.41663	0
400	-10.57771	-117.98215	-107.40444	62.65259	48.8202	-113.9138	82.99434	78.92599	48.8202	80.55333	68.34828	65.0936	0
401	-10.57771	-117.98215	-107.40444	62.65259	48.8202	-113.9138	80.55333	78.92599	43.93818	78.11232	63.46626	62.65259	0
402	-8.1367	-117.98215	-109.84545	62.65259	51.26121	-113.9138	80.55333	83.80801	41.49717	75.67131	61.02525	57.77057	0
403	-5.69569	-115.54114	-109.84545	60.21158	51.26121	-113.9138	78.11232	86.24902	36.61515	70.78929	58.58424	55.32956	0
404	-3.25468	-108.21811	-104.96343	55.32956	51.26121	-106.59077	75.67131	86.24902	34.17414	70.78929	56.14323	52.88855	0
405	-5.69569	-108.21811	-102.52242	55.32956	48.8202	-106.59077	73.2303	81.367	31.73313	68.34828	51.26121	50.44754	0
406	-20.34175	-117.98215	-97.6404	67.53461	39.05616	-109.03178	68.34828	76.48498	26.03744	61.02525	46.37919	43.12451	0
407	-32.5468	-125.30518	-92.75838	77.29865	29.29212	-109.03178	61.02525	69.16195	23.59643	58.58424	43.93818	40.6835	0
408	-32.5468	-130.1872	-97.6404	79.73966	31.73313	-113.9138	61.02525	66.72094	26.03744	58.58424	43.93818	43.12451	0
409	-30.10579	-132.62821	-102.52242	79.73966	36.61515	-118.79582	61.02525	61.83892	29.29212	63.46626	46.37919	48.00653	0
410	-25.22377	-135.06922	-109.84545	79.73966	41.49717	-123.67784	65.90727	61.83892	34.17414	68.34828	51.26121	52.88855	0
411	-20.34175	-135.06922	-114.72747	77.29865	46.37919	-126.11885	70.78929	64.27993	39.05616	70.78929	58.58424	60.21158	0
412	-13.01872	-132.62821	-119.60949	72.41663	53.70222	-126.11885	75.67131	69.16195	46.37919	78.11232	65.90727	69.97562	0
413	-3.25468	-130.1872	-126.93252	65.0936	61.02525	-128.55986	82.99434	76.48498	51.26121	82.99434	73.2303	77.29865	0
414	-3.25468	-127.74619	-124.49151	65.0936	61.02525	-126.11885	85.43535	76.48498	51.26121	85.43535	73.2303	77.29865	0
415	0	-122.86417	-122.0505	60.21158	61.02525	-121.23683	87.87636	76.48498	53.70222	85.43535	75.67131	79.73966	0
416	0	-115.54114	-114.72747	57.77057	56.14323	-113.9138	85.43535	74.04397	51.26121	85.43535	73.2303	77.29865	0
417	-3.25468	-113.10013	-109.84545	57.77057	53.70222	-111.47279	80.55333	69.16195	48.8202	82.99434	68.34828	72.41663	0
418	-5.69569	-113.10013	-107.40444	57.77057	51.26121	-111.47279	73.2303	64.27993	43.93818	78.11232	61.02525	67.53461	0
419	-3.25468	-108.21811	-104.96343	55.32956	51.26121	-106.59077	73.2303	59.39791	43.93818	78.11232	61.02525	67.53461	0
420	-3.25468	-103.33609	-100.08141	52.88855	48.8202	-101.70875	73.2303	59.39791	43.93818	78.11232	61.02525	67.53461	0
421	-3.25468	-105.7771	-102.52242	52.88855	48.8202	-104.14976	73.2303	59.39791	43.93818	75.67131	58.58424	67.53461	0
422	-5.69569	-110.65912	-104.96343	57.77057	48.8202	-109.03178	73.2303	61.83892	43.93818	75.67131	58.58424	67.53461	0
423	-10.57771	-117.98215	-107.40444	62.65259	48.8202	-113.9138	75.67131	64.27993	41.49717	73.2303	56.14323	67.53461	0
424	-13.01872	-122.86417	-109.84545	67.53461	48.8202	-116.35481	75.67131	64.27993	41.49717	73.2303	56.14323	67.53461	0
425	-15.45973	-125.30518	-109.84545	69.97562	46.37919	-118.79582	78.11232	61.83892	43.93818	73.2303	56.14323	67.53461	0
426	-17.90074	-127.74619	-109.84545	72.41663	46.37919	-118.79582	73.2303	56.9569	41.49717	73.2303	53.70222	65.0936	0
427	-20.34175	-127.74619	-107.40444	72.41663	43.93818	-118.79582	68.34828	52.07488	41.49717	70.78929	51.26121	62.65259	0
428	-22.78276	-125.30518	-102.52242	72.41663	39.05616	-113.9138	65.90727	47.19286	39.05616	70.78929	51.26121	62.65259	0
429	-20.34175	-122.86417	-102.52242	69.97562	41.49717	-113.9138	63.46626	42.31084	39.05616	70.78929	51.26121	62.65259	0
430	-15.45973	-117.98215	-102.52242	65.0936	43.93818	-111.47279	61.02525	39.86983	36.61515	70.78929	51.26121	62.65259	0
431	-15.45973	-115.54114	-100.08141	65.0936	41.49717	-109.03178	61.02525	39.86983	34.17414	70.78929	51.26121	62.65259	0
432	-10.57771	-108.21811	-97.6404	57.77057	43.93818	-104.14976	61.02525	44.75185	31.73313	68.34828	51.26121	62.65259	0
433	-3.25468	-103.33609	-100.08141	52.88855	48.8202	-101.70875	63.46626	49.63387	31.73313	68.34828	46.37919	60.21158	0
434	-3.25468	-100.89508	-97.6404	50.44754	46.37919	-99.26774	65.90727	52.07488	34.17414	65.90727	46.37919	57.77057	0
435	-3.25468	-105.7771	-102.52242	52.88855	48.8202	-104.14976	68.34828	52.07488	36.61515	65.90727	43.93818	55.32956	0
436	-3.25468	-110.65912	-107.40444	55.32956	51.26121	-109.03178	68.34828	54.51589	39.05616	65.90727	41.49717	52.88855	0
437	-5.69569	-115.54114	-109.84545	60.21158	51.26121	-113.9138	68.34828	54.51589	41.49717	65.90727	41.49717	50.44754	0
438	-10.57771	-125.30518	-114.72747	67.53461	51.26121	-121.23683	68.34828	54.51589	41.49717	65.90727	39.05616	48.00653	0
439	-13.01872	-130.1872	-117.16848	69.97562	51.26121	-123.67784	68.34828	54.51589	46.37919	65.90727	39.05616	48.00653	0
440	-17.90074	-130.1872	-112.28646	72.41663	46.37919	-121.23683	70.78929	61.83892	46.37919	68.34828	39.05616	48.00653	0
441	-17.90074	-125.30518	-107.40444	69.97562	43.93818	-116.35481	80.55333	81.367	48.8202	68.34828	39.05616	48.00653	0
442	-17.90074	-115.54114	-97.6404	65.0936	39.05616	-106.59077	90.31737	105.7771	53.70222	70.78929	41.49717	48.00653	0
443	-20.34175	-105.7771	-85.43535	62.65259	31.73313	-96.82673	100.08141	135.06922	58.58424	70.78929	41.49717	48.00653	0
444	-15.45973	-96.01306	-80.55333	55.32956	31.73313	-89.5037	107.40444	176.56639	58.58424	70.78929	39.05616	45.56552	0
445	-5.69569	-86.24902	-80.55333	45.56552	36.61515	-84.62168	109.84545	222.94558	56.14323	63.46626	34.17414	40.6835	0
446	2.44101	-81.367	-82.99434	38.24249	41.49717	-82.18067	100.08141	276.6478	46.37919	53.70222	26.85111	28.47845	0
447	17.08707	-76.48498	-92.75838	28.47845	53.70222	-84.62168	78.11232	327.90901	29.29212	36.61515	14.64606	13.83239	0
448	36.61515	-69.16195	-104.96343	16.2734	70.78929	-87.06269	40.6835	376.72921	6.50936	12.20505	-2.44101	-1.62734	0
449	61.02525	-59.39791	-119.60949	-1.62734	90.31737	-89.5037	-10.57771	425.54941	-30.10579	-13.01872	-20.34175	-21.15542	0
450	85.43535	-47.19286	-131.81454	-18.71441	107.40444	-89.5037	-71.60296	469.48759	-74.04397	-47.19286	-44.75185	-43.12451	0
451	109.84545	-30.10579	-139.13757	-40.6835	124.49151	-84.62168	-135.06922	515.86678	-117.98215	-81.367	-71.60296	-65.0936	0
452	141.57858	-0.81367	-141.57858	-69.97562	141.57858	-69.97562	-200.97649	564.68698	-161.92033	-115.54114	-96.01306	-82.18067	0
453	185.51676	46.37919	-139.13757	-116.35481	163.54767	-45.56552	-271.76578	615.94819	-213.18154	-154.5973	-122.86417	-101.70875	0
454	229.45494	97.6404	-131.81454	-162.734	180.63474	-16.2734	-366.96517	647.68132	-281.52982	-203.4175	-157.03831	-126.11885	0
455	270.95211	158.66565	-112.28646	-213.99521	192.83979	23.59643	-476.81062	659.88637	-357.20113	-257.11972	-193.65346	-152.96996	0
456	312.44928	229.45494	-82.99434	-270.13844	197.72181	74.85764	-596.42011	647.68132	-440.19547	-315.70396	-235.15063	-177.38006	0
457	353.94645	305.12625	-48.8202	-328.72268	202.60383	128.55986	-725.79364	608.62516	-530.51284	-376.72921	-274.20679	-201.79016	0
458	378.35655	371.03352	-7.32303	-375.10187	192.83979	182.26208	-862.4902	525.63082	-623.27122	-440.19547	-313.26295	-228.64127	0
459	378.35655	417.41271	39.86983	-397.07096	170.8707	228.64127	-996.74575	393.81628	-716.0296	-503.66173	-354.76012	-253.05137	0
460	375.91554	456.46887	81.367	-416.59904	148.90161	270.13844	-1106.5912	240.03265	-794.14192	-552.48193	-384.05224	-270.13844	0
461	358.82847	471.11493	113.10013	-414.15803	124.49151	292.10753	-1179.8215	81.367	-847.84414	-581.77405	-401.13931	-277.46147	0
462	329.53635	456.46887	127.74619	-392.18894	102.52242	292.10753	-1218.87766	-82.99434	-879.57727	-596.42011	-408.46234	-279.90248	0
463	288.03918	417.41271	130.1872	-353.13278	80.55333	275.02046	-1228.6417	-256.30605	-891.78232	-593.9791	-403.58032	-270.13844	0
464	239.21898	368.59251	130.1872	-304.31258	56.14323	250.61036	-1206.67261	-427.17675	-879.57727	-576.89203	-388.93426	-253.05137	0
465	197.72181	314.89029	117.98215	-255.49238	41.49717	216.43622	-1162.73443	-573.63735	-850.28515	-550.04092	-364.52416	-228.64127	0
466	146.4606	246.54201	100.89508	-196.90814	24.4101	174.93905	-1106.5912	-693.24684	-813.67	-515.86678	-340.11406	-206.67218	0
467	104.96343	190.39878	86.24902	-148.08794	9.76404	138.3239	-1048.00696	-788.44623	-772.17283	-481.69264	-318.14497	-184.70309	0
468	73.2303	148.90161	76.48498	-111.47279	0	113.9138	-986.98171	-859.23552	-728.23465	-447.5185	-293.73487	-165.17501	0
469	51.26121	122.0505	71.60296	-87.06269	-10.57771	96.82673	-923.51545	-898.29168	-681.85546	-413.34436	-271.76578	-148.08794	0
470	39.05616	97.6404	59.39791	-67.53461	-10.57771	79.73966	-860.04919	-893.40966	-637.91728	-384.05224	-254.67871	-138.3239	0
471	31.73313	78.11232	47.19286	-55.32956	-8.1367	62.65259	-794.14192	-856.79451	-598.86112	-357.20113	-240.03265	-131.00087	0
472	29.29212	63.46626	34.98781	-45.56552	-3.25468	50.44754	-730.67566	-805.5333	-557.36395	-335.23204	-230.26861	-123.67784	0
473	29.29212	51.26121	22.78276	-40.6835	4.88202	38.24249	-667.2094	-746.94906	-515.86678	-308.38093	-215.62255	-116.35481	0
474	24.4101	31.73313	8.1367	-28.47845	9.76404	21.15542	-601.30213	-685.92381	-469.48759	-281.52982	-198.53548	-109.03178	0
475	21.96909	12.20505	-9.76404	-16.2734	17.08707	0.81367	-537.83587	-622.45755	-425.54941	-252.2377	-181.44841	-99.26774	0
476	21.96909	-3.25468	-24.4101	-8.95037	21.96909	-13.83239	-481.69264	-566.31432	-384.05224	-230.26861	-169.24336	-91.94471	0
477	19.52808	-17.90074	-36.61515	-1.62734	26.85111	-26.03744	-430.43143	-515.05311	-342.55507	-205.85851	-152.15629	-82.18067	0
478	17.08707	-25.22377	-41.49717	4.06835	29.29212	-33.36047	-376.72921	-466.23291	-298.61689	-179.0074	-135.06922	-72.41663	0
479	17.08707	-25.22377	-41.49717	4.06835	29.29212	-33.36047	-327.90901	-427.17675	-262.00174	-157.03831	-117.98215	-62.65259	0
480	12.20505	-22.78276	-34.17414	4.06835	21.96909	-28.47845	-286.41184	-395.44362	-230.26861	-137.51023	-103.33609	-52.88855	0
481	9.76404	-15.45973	-24.4101	0.81367	17.08707	-18.71441	-252.2377	-368.59251	-203.4175	-120.42316	-88.69003	-45.56552	0
482	4.88202	-10.57771	-14.64606	0.81367	9.76404	-11.39138	-222.94558	-349.06443	-181.44841	-105.7771	-76.48498	-35.80148	0
483	0	2.44101	2.44101	-1.62734	0	4.06835	-198.53548	-336.85938	-164.36134	-93.57205	-69.16195	-30.91946	0
484	-3.25468	19.52808	22.78276	-8.95037	-13.01872	21.15542	-181.44841	-334.41837	-149.71528	-86.24902	-61.83892	-23.59643	0
485	-5.69569	29.29212	34.98781	-11.39138	-20.34175	30.91946	-169.24336	-336.85938	-139.95124	-78.92599	-56.9569	-18.71441	0
486	-10.57771	34.17414	44.75185	-11.39138	-27.66478	38.24249	-161.92033	-341.7414	-132.62821	-74.04397	-54.51589	-16.2734	0
487	-10.57771	41.49717	52.07488	-16.2734	-30.10579	45.56552	-154.5973	-344.18241	-122.86417	-69.16195	-52.07488	-11.39138	0
488	-10.57771	46.37919	56.9569	-18.71441	-32.5468	50.44754	-147.27427	-344.18241	-115.54114	-64.27993	-47.19286	-6.50936	0
489	-10.57771	48.8202	59.39791	-18.71441	-34.98781	52.88855	-137.51023	-346.62342	-103.33609	-59.39791	-44.75185	-1.62734	0
490	-13.01872	48.8202	61.83892	-18.71441	-37.42882	55.32956	-127.74619	-346.62342	-96.01306	-54.51589	-39.86983	1.62734	0
491	-15.45973	46.37919	61.83892	-16.2734	-37.42882	52.88855	-120.42316	-344.18241	-91.13104	-52.07488	-37.42882	1.62734	0
492	-20.34175	41.49717	61.83892	-11.39138	-39.86983	50.44754	-115.54114	-339.30039	-88.69003	-52.07488	-37.42882	4.06835	0
493	-34.98781	29.29212	64.27993	0.81367	-49.63387	45.56552	-113.10013	-336.85938	-86.24902	-52.07488	-37.42882	4.06835	0
494	-44.75185	19.52808	64.27993	11.39138	-54.51589	40.6835	-108.21811	-336.85938	-83.80801	-52.07488	-37.42882	4.06835	0
495	-47.19286	21.96909	69.16195	11.39138	-56.9569	45.56552	-108.21811	-334.41837	-81.367	-49.63387	-34.98781	4.06835	0
496	-47.19286	29.29212	76.48498	8.95037	-61.83892	52.88855	-108.21811	-334.41837	-81.367	-49.63387	-32.5468	4.06835	0
497	-42.31084	34.17414	76.48498	4.06835	-59.39791	55.32956	-108.21811	-331.97736	-78.92599	-47.19286	-30.10579	8.95037	0
498	-32.5468	48.8202	81.367	-8.95037	-56.9569	65.0936	-103.33609	-327.09534	-71.60296	-42.31084	-25.22377	13.83239	0
499	-15.45973	65.90727	81.367	-26.03744	-47.19286	72.41663	-96.01306	-324.65433	-61.83892	-34.98781	-17.90074	21.15542	0
500	-3.25468	82.99434	86.24902	-40.6835	-44.75185	84.62168	-91.13104	-322.21332	-54.51589	-30.10579	-10.57771	26.03744	0
501	-3.25468	85.43535	88.69003	-40.6835	-44.75185	87.06269	-88.69003	-319.77231	-52.07488	-30.10579	-10.57771	26.03744	0
502	-3.25468	82.99434	86.24902	-40.6835	-44.75185	84.62168	-83.80801	-317.3313	-49.63387	-27.66478	-10.57771	26.03744	0
503	-5.69569	80.55333	86.24902	-38.24249	-44.75185	82.18067	-78.92599	-312.44928	-44.75185	-25.22377	-8.1367	28.47845	0
504	-10.57771	78.11232	88.69003	-33.36047	-49.63387	82.18067	-74.04397	-310.00827	-39.86983	-25.22377	-8.1367	28.47845	0
505	-15.45973	73.2303	88.69003	-28.47845	-52.07488	79.73966	-71.60296	-312.44928	-37.42882	-25.22377	-8.1367	28.47845	0
506	-17.90074	73.2303	91.13104	-28.47845	-54.51589	82.18067	-71.60296	-314.89029	-37.42882	-25.22377	-8.1367	26.03744	0
507	-17.90074	75.67131	93.57205	-28.47845	-54.51589	84.62168	-74.04397	-317.3313	-39.86983	-27.66478	-10.57771	26.03744	0
508	-17.90074	78.11232	96.01306	-30.91946	-56.9569	87.06269	-76.48498	-324.65433	-39.86983	-30.10579	-15.45973	26.03744	0
509	-22.78276	78.11232	100.89508	-28.47845	-61.83892	89.5037	-81.367	-329.53635	-42.31084	-32.5468	-17.90074	21.15542	0
510	-25.22377	78.11232	103.33609	-26.03744	-64.27993	89.5037	-83.80801	-331.97736	-44.75185	-34.98781	-22.78276	18.71441	0
511	-25.22377	80.55333	105.7771	-28.47845	-64.27993	91.94471	-83.80801	-329.53635	-44.75185	-34.98781	-22.78276	18.71441	0
512	-30.10579	75.67131	105.7771	-23.59643	-66.72094	89.5037	-81.367	-327.09534	-47.19286	-34.98781	-25.22377	18.71441	0
513	-37.42882	73.2303	110.65912	-18.71441	-74.04397	91.94471	-78.92599	-324.65433	-47.19286	-37.42882	-25.22377	18.71441	0
514	-44.75185	73.2303	117.98215	-13.83239	-81.367	94.38572	-74.04397	-322.21332	-44.75185	-34.98781	-22.78276	21.15542	0
515	-39.86983	78.11232	117.98215	-18.71441	-78.92599	96.82673	-69.16195	-319.77231	-39.86983	-30.10579	-17.90074	23.59643	0
516	-34.98781	78.11232	113.10013	-21.15542	-74.04397	94.38572	-64.27993	-319.77231	-37.42882	-27.66478	-13.01872	28.47845	0
517	-34.98781	78.11232	113.10013	-21.15542	-74.04397	94.38572	-64.27993	-322.21332	-30.10579	-25.22377	-10.57771	30.91946	0
518	-34.98781	80.55333	115.54114	-23.59643	-74.04397	96.82673	-64.27993	-327.09534	-27.66478	-25.22377	-10.57771	30.91946	0
519	-34.98781	78.11232	113.10013	-21.15542	-74.04397	94.38572	-64.27993	-329.53635	-25.22377	-25.22377	-10.57771	28.47845	0
520	-37.42882	75.67131	113.10013	-18.71441	-74.04397	94.38572	-64.27993	-334.41837	-25.22377	-25.22377	-10.57771	23.59643	0
521	-34.98781	73.2303	108.21811	-18.71441	-71.60296	89.5037	-64.27993	-334.41837	-27.66478	-27.66478	-10.57771	21.15542	0
522	-39.86983	70.78929	110.65912	-16.2734	-74.04397	89.5037	-66.72094	-334.41837	-32.5468	-30.10579	-13.01872	16.2734	0
523	-39.86983	75.67131	115.54114	-18.71441	-76.48498	94.38572	-69.16195	-331.97736	-34.98781	-34.98781	-15.45973	11.39138	0
524	-42.31084	82.99434	125.30518	-21.15542	-83.80801	104.14976	-69.16195	-331.97736	-37.42882	-34.98781	-15.45973	11.39138	0
525	-44.75185	82.99434	127.74619	-18.71441	-86.24902	104.14976	-71.60296	-331.97736	-39.86983	-37.42882	-15.45973	8.95037	0
526	-39.86983	85.43535	125.30518	-23.59643	-81.367	104.14976	-71.60296	-336.85938	-42.31084	-39.86983	-15.45973	8.95037	0
527	-47.19286	82.99434	130.1872	-18.71441	-88.69003	106.59077	-76.48498	-339.30039	-42.31084	-39.86983	-13.01872	8.95037	0
528	-49.63387	80.55333	130.1872	-16.2734	-88.69003	104.14976	-76.48498	-344.18241	-39.86983	-39.86983	-10.57771	11.39138	0
529	-49.63387	78.11232	127.74619	-13.83239	-88.69003	101.70875	-78.92599	-349.06443	-39.86983	-39.86983	-8.1367	11.39138	0
530	-49.63387	75.67131	125.30518	-13.83239	-86.24902	99.26774	-78.92599	-351.50544	-37.42882	-39.86983	-5.69569	13.83239	0
531	-47.19286	75.67131	122.86417	-13.83239	-83.80801	99.26774	-78.92599	-353.94645	-37.42882	-39.86983	-5.69569	13.83239	0
532	-47.19286	78.11232	125.30518	-16.2734	-86.24902	101.70875	-78.92599	-353.94645	-39.86983	-42.31084	-5.69569	13.83239	0
533	-49.63387	85.43535	135.06922	-18.71441	-91.13104	109.03178	-81.367	-353.94645	-42.31084	-44.75185	-5.69569	11.39138	0
534	-42.31084	100.08141	142.39225	-28.47845	-91.13104	121.23683	-81.367	-353.94645	-47.19286	-47.19286	-10.57771	8.95037	0
535	-39.86983	104.96343	144.83326	-33.36047	-91.13104	123.67784	-86.24902	-361.26948	-49.63387	-52.07488	-15.45973	4.06835	0
536	-44.75185	104.96343	149.71528	-30.91946	-96.01306	126.11885	-88.69003	-366.1515	-54.51589	-56.9569	-20.34175	-1.62734	0
537	-52.07488	100.08141	152.15629	-23.59643	-100.89508	126.11885	-93.57205	-371.03352	-59.39791	-61.83892	-25.22377	-1.62734	0
538	-54.51589	102.52242	157.03831	-23.59643	-105.7771	128.55986	-98.45407	-375.91554	-59.39791	-64.27993	-25.22377	-4.06835	0
539	-44.75185	107.40444	152.15629	-30.91946	-98.45407	128.55986	-98.45407	-375.91554	-56.9569	-64.27993	-25.22377	-4.06835	0
540	-42.31084	107.40444	149.71528	-33.36047	-96.01306	128.55986	-98.45407	-378.35655	-54.51589	-61.83892	-20.34175	-4.06835	0
541	-44.75185	102.52242	147.27427	-28.47845	-96.01306	123.67784	-93.57205	-375.91554	-49.63387	-59.39791	-17.90074	-1.62734	0
542	-47.19286	104.96343	152.15629	-28.47845	-98.45407	128.55986	-91.13104	-375.91554	-49.63387	-56.9569	-17.90074	-1.62734	0
543	-37.42882	119.60949	157.03831	-40.6835	-96.01306	138.3239	-86.24902	-368.59251	-44.75185	-54.51589	-10.57771	-1.62734	0
544	-32.5468	129.37353	161.92033	-48.00653	-96.01306	145.64693	-83.80801	-363.71049	-42.31084	-54.51589	-10.57771	1.62734	0
545	-27.66478	139.13757	166.80235	-55.32956	-96.01306	152.96996	-83.80801	-361.26948	-42.31084	-54.51589	-10.57771	4.06835	0
546	-25.22377	146.4606	171.68437	-60.21158	-98.45407	157.85198	-83.80801	-358.82847	-44.75185	-56.9569	-13.01872	4.06835	0
547	-17.90074	161.10666	179.0074	-72.41663	-98.45407	170.05703	-86.24902	-356.38746	-44.75185	-59.39791	-13.01872	4.06835	0
548	-8.1367	170.8707	179.0074	-82.18067	-93.57205	174.93905	-91.13104	-356.38746	-47.19286	-61.83892	-15.45973	6.50936	0
549	-10.57771	168.42969	179.0074	-79.73966	-93.57205	172.49804	-96.01306	-358.82847	-49.63387	-66.72094	-20.34175	4.06835	0
550	-15.45973	165.98868	181.44841	-74.85764	-98.45407	172.49804	-103.33609	-363.71049	-56.9569	-74.04397	-27.66478	-1.62734	0
551	-22.78276	161.10666	183.88942	-69.97562	-103.33609	172.49804	-105.7771	-363.71049	-61.83892	-78.92599	-32.5468	-1.62734	0
552	-27.66478	158.66565	186.33043	-65.0936	-105.7771	172.49804	-108.21811	-361.26948	-66.72094	-81.367	-34.98781	-4.06835	0
553	-32.5468	158.66565	191.21245	-62.65259	-110.65912	174.93905	-108.21811	-356.38746	-69.16195	-86.24902	-39.86983	-6.50936	0
554	-34.98781	163.54767	198.53548	-65.0936	-115.54114	179.82107	-108.21811	-353.94645	-71.60296	-91.13104	-42.31084	-8.95037	0
555	-30.10579	170.8707	200.97649	-69.97562	-115.54114	184.70309	-110.65912	-351.50544	-74.04397	-96.01306	-47.19286	-11.39138	0
556	-25.22377	175.75272	200.97649	-74.85764	-113.10013	187.1441	-110.65912	-346.62342	-74.04397	-96.01306	-47.19286	-11.39138	0
557	-13.01872	187.95777	200.97649	-87.06269	-105.7771	194.46713	-105.7771	-336.85938	-66.72094	-91.13104	-42.31084	-8.95037	0
558	-3.25468	197.72181	200.97649	-96.82673	-100.89508	199.34915	-103.33609	-329.53635	-61.83892	-88.69003	-42.31084	-6.50936	0
559	0	200.16282	200.97649	-99.26774	-100.89508	201.79016	-100.89508	-324.65433	-56.9569	-86.24902	-37.42882	-4.06835	0
560	2.44101	200.16282	198.53548	-101.70875	-98.45407	199.34915	-96.01306	-319.77231	-54.51589	-81.367	-34.98781	-1.62734	0
561	2.44101	195.2808	193.65346	-99.26774	-96.01306	194.46713	-91.13104	-310.00827	-49.63387	-81.367	-32.5468	4.06835	0
562	2.44101	195.2808	193.65346	-99.26774	-96.01306	194.46713	-86.24902	-302.68524	-52.07488	-81.367	-32.5468	4.06835	0
563	4.88202	202.60383	198.53548	-104.14976	-96.01306	201.79016	-86.24902	-290.48019	-52.07488	-81.367	-34.98781	4.06835	0
564	2.44101	200.16282	198.53548	-101.70875	-98.45407	199.34915	-78.92599	-280.71615	-52.07488	-81.367	-34.98781	4.06835	0
565	2.44101	200.16282	198.53548	-101.70875	-98.45407	199.34915	-78.92599	-270.95211	-54.51589	-86.24902	-39.86983	1.62734	0
566	2.44101	200.16282	198.53548	-101.70875	-98.45407	199.34915	-78.92599	-261.18807	-56.9569	-88.69003	-44.75185	-4.06835	0
567	0	202.60383	203.4175	-101.70875	-100.89508	204.23117	-78.92599	-248.98302	-56.9569	-88.69003	-49.63387	-6.50936	0
568	-3.25468	207.48585	210.74053	-101.70875	-105.7771	209.11319	-76.48498	-236.77797	-49.63387	-86.24902	-49.63387	-6.50936	0
569	2.44101	212.36787	210.74053	-106.59077	-103.33609	211.5542	-76.48498	-229.45494	-47.19286	-86.24902	-49.63387	-8.95037	0
570	4.88202	212.36787	208.29952	-109.03178	-100.89508	211.5542	-74.04397	-219.6909	-47.19286	-86.24902	-49.63387	-11.39138	0
571	0	207.48585	208.29952	-104.14976	-103.33609	209.11319	-71.60296	-205.04484	-47.19286	-88.69003	-52.07488	-11.39138	0
572	0	209.92686	210.74053	-104.14976	-105.7771	211.5542	-69.16195	-190.39878	-44.75185	-88.69003	-47.19286	-11.39138	0
573	0	209.92686	210.74053	-104.14976	-105.7771	211.5542	-61.83892	-170.8707	-42.31084	-86.24902	-44.75185	-8.95037	0
574	9.76404	214.80888	205.85851	-111.47279	-98.45407	211.5542	-52.07488	-151.34262	-39.86983	-86.24902	-39.86983	-6.50936	0
575	14.64606	212.36787	198.53548	-113.9138	-91.13104	206.67218	-44.75185	-131.81454	-37.42882	-81.367	-37.42882	-4.06835	0
576	12.20505	207.48585	196.09447	-109.03178	-91.13104	201.79016	-37.42882	-112.28646	-30.10579	-78.92599	-34.98781	-4.06835	0
577	12.20505	207.48585	196.09447	-109.03178	-91.13104	201.79016	-30.10579	-92.75838	-22.78276	-74.04397	-34.98781	-1.62734	0
578	9.76404	197.72181	188.77144	-104.14976	-88.69003	194.46713	-27.66478	-80.55333	-15.45973	-71.60296	-32.5468	-1.62734	0
579	2.44101	185.51676	183.88942	-94.38572	-91.13104	184.70309	-25.22377	-70.78929	-10.57771	-69.16195	-32.5468	-4.06835	0
580	-3.25468	175.75272	179.0074	-87.06269	-91.13104	177.38006	-20.34175	-61.02525	-8.1367	-69.16195	-34.98781	-4.06835	0
581	-8.1367	163.54767	171.68437	-77.29865	-88.69003	167.61602	-17.90074	-48.8202	-5.69569	-69.16195	-37.42882	-6.50936	0
582	-5.69569	161.10666	166.80235	-77.29865	-86.24902	162.734	-10.57771	-36.61515	1.62734	-64.27993	-34.98781	-6.50936	0
583	-3.25468	158.66565	161.92033	-77.29865	-81.367	160.29299	-3.25468	-17.08707	8.95037	-59.39791	-34.98781	-4.06835	0
584	0	158.66565	159.47932	-79.73966	-78.92599	160.29299	11.39138	2.44101	13.83239	-54.51589	-30.10579	-1.62734	0
585	4.88202	158.66565	154.5973	-82.18067	-74.04397	157.85198	23.59643	20.34175	21.15542	-52.07488	-30.10579	1.62734	0
586	9.76404	158.66565	149.71528	-84.62168	-69.16195	155.41097	30.91946	39.86983	26.03744	-47.19286	-27.66478	1.62734	0
587	21.96909	168.42969	147.27427	-94.38572	-61.83892	157.85198	43.12451	59.39791	36.61515	-42.31084	-22.78276	6.50936	0
588	31.73313	170.8707	139.95124	-101.70875	-54.51589	155.41097	50.44754	76.48498	43.93818	-37.42882	-17.90074	6.50936	0
589	31.73313	168.42969	137.51023	-99.26774	-52.07488	152.96996	53.70222	86.24902	48.8202	-34.98781	-15.45973	6.50936	0
590	29.29212	161.10666	132.62821	-94.38572	-52.07488	148.08794	53.70222	96.01306	48.8202	-34.98781	-15.45973	6.50936	0
591	26.85111	158.66565	132.62821	-91.94471	-52.07488	145.64693	58.58424	105.7771	51.26121	-30.10579	-15.45973	6.50936	0
592	24.4101	153.78363	130.1872	-89.5037	-52.07488	143.20592	65.90727	115.54114	56.14323	-27.66478	-13.01872	8.95037	0
593	14.64606	139.13757	125.30518	-77.29865	-54.51589	133.44188	73.2303	130.1872	63.46626	-25.22377	-10.57771	8.95037	0
594	7.32303	124.49151	117.98215	-65.0936	-54.51589	121.23683	85.43535	142.39225	68.34828	-22.78276	-8.1367	8.95037	0
595	4.88202	114.72747	110.65912	-60.21158	-52.07488	113.9138	95.19939	157.03831	73.2303	-17.90074	-8.1367	11.39138	0
596	2.44101	102.52242	100.89508	-52.88855	-49.63387	101.70875	107.40444	171.68437	82.99434	-13.01872	-5.69569	13.83239	0
597	2.44101	87.87636	86.24902	-45.56552	-42.31084	87.06269	114.72747	186.33043	95.19939	-8.1367	0	16.2734	0
598	7.32303	82.99434	76.48498	-45.56552	-34.98781	79.73966	122.0505	196.09447	102.52242	-3.25468	4.88202	21.15542	0
599	14.64606	80.55333	66.72094	-48.00653	-25.22377	74.85764	126.93252	203.4175	109.84545	4.06835	9.76404	26.03744	0
600	19.52808	80.55333	61.83892	-50.44754	-20.34175	72.41663	131.81454	208.29952	114.72747	9.76404	14.64606	30.91946	0
601	19.52808	78.11232	59.39791	-48.00653	-20.34175	69.97562	136.69656	213.18154	122.0505	14.64606	19.52808	33.36047	0
602	17.08707	68.34828	52.07488	-43.12451	-17.90074	60.21158	139.13757	215.62255	124.49151	17.08707	19.52808	33.36047	0
603	19.52808	68.34828	49.63387	-43.12451	-15.45973	60.21158	141.57858	222.94558	126.93252	19.52808	19.52808	33.36047	0
604	21.96909	65.90727	44.75185	-43.12451	-10.57771	55.32956	148.90161	227.8276	131.81454	21.96909	19.52808	30.91946	0
605	19.52808	58.58424	39.86983	-38.24249	-10.57771	50.44754	153.78363	232.70962	131.81454	21.96909	19.52808	28.47845	0
606	19.52808	51.26121	32.5468	-35.80148	-5.69569	43.12451	156.22464	235.15063	134.25555	21.96909	19.52808	26.03744	0
607	9.76404	39.05616	30.10579	-23.59643	-10.57771	35.80148	153.78363	235.15063	136.69656	21.96909	17.08707	23.59643	0
608	0	24.4101	25.22377	-11.39138	-13.01872	26.03744	151.34262	230.26861	134.25555	19.52808	14.64606	23.59643	0
609	-3.25468	12.20505	15.45973	-4.06835	-8.1367	13.83239	148.90161	220.50457	134.25555	19.52808	14.64606	21.15542	0
610	-17.90074	-8.1367	10.57771	11.39138	-15.45973	0.81367	146.4606	210.74053	131.81454	17.08707	12.20505	18.71441	0
611	-20.34175	-22.78276	-2.44101	21.15542	-10.57771	-13.83239	146.4606	205.85851	134.25555	17.08707	12.20505	21.15542	0
612	-22.78276	-30.10579	-7.32303	26.03744	-8.1367	-18.71441	148.90161	200.97649	136.69656	19.52808	14.64606	21.15542	0
613	-22.78276	-39.86983	-17.08707	30.91946	-3.25468	-28.47845	148.90161	200.97649	139.13757	21.96909	14.64606	23.59643	0
614	-15.45973	-39.86983	-24.4101	26.03744	4.88202	-33.36047	156.22464	200.97649	141.57858	24.4101	17.08707	26.03744	0
615	-15.45973	-39.86983	-24.4101	26.03744	4.88202	-33.36047	156.22464	198.53548	139.13757	24.4101	17.08707	26.03744	0
616	-8.1367	-37.42882	-29.29212	21.15542	9.76404	-33.36047	156.22464	196.09447	139.13757	24.4101	14.64606	26.03744	0
617	-8.1367	-37.42882	-29.29212	21.15542	9.76404	-33.36047	153.78363	193.65346	139.13757	21.96909	12.20505	23.59643	0
618	-20.34175	-47.19286	-26.85111	33.36047	2.44101	-38.24249	146.4606	183.88942	131.81454	17.08707	4.88202	16.2734	0
619	-22.78276	-47.19286	-24.4101	33.36047	0	-35.80148	139.13757	171.68437	129.37353	17.08707	4.88202	13.83239	0
620	-30.10579	-52.07488	-21.96909	40.6835	-5.69569	-38.24249	134.25555	161.92033	124.49151	14.64606	0	8.95037	0
621	-32.5468	-56.9569	-24.4101	43.12451	-5.69569	-40.6835	134.25555	154.5973	126.93252	14.64606	0	8.95037	0
622	-30.10579	-56.9569	-26.85111	43.12451	-3.25468	-43.12451	136.69656	152.15629	131.81454	19.52808	4.88202	8.95037	0
623	-25.22377	-56.9569	-31.73313	40.6835	2.44101	-45.56552	141.57858	152.15629	139.13757	24.4101	7.32303	11.39138	0
624	-17.90074	-54.51589	-36.61515	35.80148	9.76404	-45.56552	151.34262	157.03831	144.01959	26.85111	12.20505	16.2734	0
625	-15.45973	-56.9569	-41.49717	35.80148	12.20505	-50.44754	156.22464	159.47932	148.90161	29.29212	17.08707	18.71441	0
626	-10.57771	-61.83892	-51.26121	35.80148	19.52808	-57.77057	161.10666	164.36134	151.34262	29.29212	21.96909	21.15542	0
627	-8.1367	-64.27993	-56.14323	35.80148	24.4101	-60.21158	163.54767	166.80235	153.78363	31.73313	24.4101	21.15542	0
628	-5.69569	-64.27993	-58.58424	33.36047	26.85111	-62.65259	158.66565	161.92033	153.78363	31.73313	26.85111	21.15542	0
629	-8.1367	-71.60296	-63.46626	38.24249	26.85111	-67.53461	153.78363	154.5973	151.34262	29.29212	26.85111	21.15542	0
630	-13.01872	-74.04397	-61.02525	43.12451	24.4101	-67.53461	146.4606	147.27427	146.4606	26.85111	26.85111	21.15542	0
631	-17.90074	-74.04397	-56.14323	45.56552	19.52808	-65.0936	144.01959	142.39225	146.4606	26.85111	31.73313	21.15542	0
632	-15.45973	-74.04397	-58.58424	43.12451	21.96909	-67.53461	144.01959	137.51023	144.01959	26.85111	31.73313	21.15542	0
633	-13.01872	-74.04397	-61.02525	43.12451	24.4101	-67.53461	139.13757	137.51023	144.01959	24.4101	31.73313	16.2734	0
634	-13.01872	-74.04397	-61.02525	43.12451	24.4101	-67.53461	144.01959	137.51023	141.57858	24.4101	31.73313	16.2734	0
635	-15.45973	-78.92599	-63.46626	45.56552	24.4101	-72.41663	146.4606	139.95124	141.57858	24.4101	31.73313	13.83239	0
636	-15.45973	-81.367	-65.90727	48.00653	24.4101	-74.85764	148.90161	144.83326	144.01959	24.4101	34.17414	13.83239	0
637	-13.01872	-81.367	-68.34828	45.56552	26.85111	-74.85764	148.90161	147.27427	144.01959	24.4101	36.61515	13.83239	0
638	-10.57771	-86.24902	-75.67131	48.00653	31.73313	-82.18067	144.01959	142.39225	144.01959	21.96909	36.61515	13.83239	0
639	-13.01872	-88.69003	-75.67131	50.44754	31.73313	-82.18067	139.13757	137.51023	141.57858	21.96909	39.05616	13.83239	0
640	-15.45973	-91.13104	-75.67131	52.88855	29.29212	-84.62168	136.69656	130.1872	139.13757	21.96909	41.49717	13.83239	0
641	-15.45973	-86.24902	-70.78929	50.44754	26.85111	-79.73966	134.25555	127.74619	139.13757	21.96909	41.49717	13.83239	0
642	-10.57771	-83.80801	-73.2303	45.56552	31.73313	-79.73966	131.81454	125.30518	136.69656	21.96909	41.49717	16.2734	0
643	-5.69569	-83.80801	-78.11232	43.12451	36.61515	-82.18067	131.81454	127.74619	136.69656	21.96909	41.49717	16.2734	0
644	-5.69569	-81.367	-75.67131	43.12451	34.17414	-79.73966	136.69656	130.1872	136.69656	21.96909	41.49717	13.83239	0
645	-13.01872	-81.367	-68.34828	45.56552	26.85111	-74.85764	139.13757	132.62821	136.69656	21.96909	39.05616	11.39138	0
646	-15.45973	-86.24902	-70.78929	50.44754	26.85111	-79.73966	141.57858	137.51023	136.69656	21.96909	36.61515	8.95037	0
647	-15.45973	-91.13104	-75.67131	52.88855	29.29212	-84.62168	141.57858	139.95124	139.13757	21.96909	36.61515	8.95037	0
648	-22.78276	-93.57205	-70.78929	57.77057	24.4101	-82.18067	139.13757	137.51023	141.57858	21.96909	36.61515	6.50936	0
649	-25.22377	-96.01306	-70.78929	60.21158	21.96909	-84.62168	134.25555	132.62821	139.13757	21.96909	34.17414	4.06835	0
650	-25.22377	-96.01306	-70.78929	60.21158	21.96909	-84.62168	129.37353	125.30518	134.25555	19.52808	31.73313	1.62734	0
651	-25.22377	-96.01306	-70.78929	60.21158	21.96909	-84.62168	124.49151	122.86417	131.81454	14.64606	26.85111	-1.62734	0
652	-30.10579	-103.33609	-73.2303	65.0936	21.96909	-89.5037	122.0505	117.98215	124.49151	9.76404	21.96909	-6.50936	0
653	-32.5468	-103.33609	-70.78929	67.53461	19.52808	-87.06269	122.0505	120.42316	122.0505	7.32303	17.08707	-11.39138	0
654	-27.66478	-96.01306	-68.34828	60.21158	19.52808	-82.18067	126.93252	127.74619	122.0505	7.32303	17.08707	-11.39138	0
655	-20.34175	-91.13104	-70.78929	55.32956	24.4101	-82.18067	131.81454	135.06922	122.0505	7.32303	19.52808	-8.95037	0
656	-20.34175	-88.69003	-68.34828	52.88855	24.4101	-79.73966	136.69656	144.83326	129.37353	12.20505	24.4101	-6.50936	0
657	-20.34175	-88.69003	-68.34828	52.88855	24.4101	-79.73966	139.13757	152.15629	134.25555	14.64606	29.29212	-1.62734	0
658	-17.90074	-88.69003	-70.78929	52.88855	26.85111	-79.73966	139.13757	154.5973	136.69656	17.08707	31.73313	-1.62734	0
659	-10.57771	-86.24902	-75.67131	48.00653	31.73313	-82.18067	141.57858	157.03831	136.69656	21.96909	36.61515	4.06835	0
660	-13.01872	-93.57205	-80.55333	52.88855	34.17414	-87.06269	139.13757	157.03831	139.13757	24.4101	36.61515	4.06835	0
661	-15.45973	-98.45407	-82.99434	55.32956	34.17414	-91.94471	139.13757	157.03831	139.13757	24.4101	36.61515	6.50936	0
662	-17.90074	-103.33609	-85.43535	60.21158	34.17414	-94.38572	136.69656	154.5973	136.69656	21.96909	31.73313	1.62734	0
663	-22.78276	-110.65912	-87.87636	65.0936	31.73313	-99.26774	134.25555	157.03831	131.81454	19.52808	26.85111	-1.62734	0
664	-32.5468	-117.98215	-85.43535	74.85764	26.85111	-101.70875	136.69656	159.47932	126.93252	14.64606	21.96909	-1.62734	0
665	-34.98781	-120.42316	-85.43535	77.29865	24.4101	-104.14976	136.69656	164.36134	124.49151	12.20505	17.08707	-4.06835	0
666	-32.5468	-115.54114	-82.99434	72.41663	24.4101	-99.26774	139.13757	169.24336	124.49151	12.20505	17.08707	-6.50936	0
667	-27.66478	-110.65912	-82.99434	67.53461	26.85111	-96.82673	136.69656	174.12538	124.49151	9.76404	14.64606	-8.95037	0
668	-27.66478	-110.65912	-82.99434	67.53461	26.85111	-96.82673	134.25555	176.56639	124.49151	9.76404	12.20505	-8.95037	0
669	-27.66478	-108.21811	-80.55333	67.53461	26.85111	-94.38572	131.81454	176.56639	124.49151	9.76404	12.20505	-11.39138	0
670	-20.34175	-98.45407	-78.11232	57.77057	29.29212	-89.5037	134.25555	181.44841	129.37353	14.64606	14.64606	-8.95037	0
671	-8.1367	-88.69003	-80.55333	48.00653	36.61515	-84.62168	139.13757	188.77144	134.25555	19.52808	17.08707	-4.06835	0
672	-8.1367	-86.24902	-78.11232	45.56552	34.17414	-82.18067	139.13757	193.65346	136.69656	19.52808	17.08707	-4.06835	0
673	-15.45973	-96.01306	-80.55333	55.32956	31.73313	-89.5037	139.13757	200.97649	136.69656	19.52808	14.64606	-8.95037	0
674	-22.78276	-105.7771	-82.99434	62.65259	29.29212	-94.38572	141.57858	205.85851	131.81454	17.08707	12.20505	-11.39138	0
675	-27.66478	-113.10013	-85.43535	69.97562	29.29212	-99.26774	141.57858	210.74053	126.93252	12.20505	7.32303	-13.83239	0
676	-34.98781	-120.42316	-85.43535	77.29865	24.4101	-104.14976	139.13757	213.18154	122.0505	7.32303	0	-21.15542	-1250	T-0
677	-30.10579	-115.54114	-85.43535	72.41663	26.85111	-101.70875	139.13757	220.50457	122.0505	7.32303	0	-21.15542	0
678	-30.10579	-110.65912	-80.55333	69.97562	24.4101	-96.82673	136.69656	220.50457	126.93252	7.32303	0	-21.15542	0
679	-25.22377	-103.33609	-78.11232	62.65259	26.85111	-91.94471	136.69656	220.50457	126.93252	7.32303	0	-21.15542	0
680	-15.45973	-91.13104	-75.67131	52.88855	29.29212	-84.62168	139.13757	220.50457	131.81454	12.20505	4.88202	-16.2734	0
681	-8.1367	-81.367	-73.2303	43.12451	31.73313	-77.29865	144.01959	225.38659	139.13757	19.52808	9.76404	-13.83239	0
682	-3.25468	-74.04397	-70.78929	38.24249	34.17414	-72.41663	148.90161	227.8276	144.01959	26.85111	14.64606	-11.39138	0
683	0	-74.04397	-73.2303	35.80148	36.61515	-72.41663	151.34262	235.15063	148.90161	29.29212	14.64606	-11.39138	0
684	-3.25468	-78.92599	-75.67131	40.6835	36.61515	-77.29865	158.66565	240.03265	146.4606	29.29212	14.64606	-13.83239	0
685	-5.69569	-88.69003	-82.99434	45.56552	39.05616	-87.06269	161.10666	244.91467	146.4606	29.29212	14.64606	-13.83239	0
686	-10.57771	-98.45407	-87.87636	52.88855	39.05616	-94.38572	163.54767	249.79669	146.4606	29.29212	14.64606	-13.83239	0
687	-10.57771	-100.89508	-90.31737	55.32956	39.05616	-96.82673	161.10666	254.67871	146.4606	26.85111	12.20505	-16.2734	0
688	-10.57771	-100.89508	-90.31737	55.32956	39.05616	-96.82673	158.66565	254.67871	146.4606	26.85111	12.20505	-13.83239	0
689	-8.1367	-98.45407	-90.31737	52.88855	41.49717	-94.38572	158.66565	252.2377	146.4606	26.85111	14.64606	-11.39138	0
690	-8.1367	-96.01306	-87.87636	50.44754	39.05616	-91.94471	156.22464	252.2377	146.4606	29.29212	14.64606	-8.95037	0
691	-5.69569	-93.57205	-87.87636	48.00653	41.49717	-91.94471	156.22464	249.79669	146.4606	26.85111	14.64606	-8.95037	0
692	-5.69569	-93.57205	-87.87636	48.00653	41.49717	-91.94471	151.34262	249.79669	141.57858	21.96909	9.76404	-11.39138	0
693	-3.25468	-91.13104	-87.87636	45.56552	41.49717	-89.5037	151.34262	252.2377	141.57858	21.96909	9.76404	-11.39138	0
694	-5.69569	-91.13104	-85.43535	48.00653	39.05616	-89.5037	156.22464	257.11972	141.57858	21.96909	4.88202	-16.2734	0
695	-5.69569	-91.13104	-85.43535	48.00653	39.05616	-89.5037	156.22464	262.00174	139.13757	19.52808	2.44101	-18.71441	0
696	-8.1367	-91.13104	-82.99434	48.00653	36.61515	-87.06269	156.22464	266.88376	139.13757	19.52808	0	-21.15542	0
697	-13.01872	-98.45407	-85.43535	55.32956	36.61515	-91.94471	156.22464	271.76578	139.13757	19.52808	0	-21.15542	0
698	-13.01872	-100.89508	-87.87636	55.32956	36.61515	-94.38572	156.22464	271.76578	141.57858	21.96909	0	-21.15542	0
699	-15.45973	-108.21811	-92.75838	60.21158	39.05616	-101.70875	153.78363	266.88376	141.57858	21.96909	0	-21.15542	0
700	-20.34175	-115.54114	-95.19939	67.53461	36.61515	-106.59077	151.34262	262.00174	141.57858	21.96909	-2.44101	-21.15542	0
701	-20.34175	-115.54114	-95.19939	67.53461	36.61515	-106.59077	151.34262	262.00174	141.57858	24.4101	0	-18.71441	0
702	-17.90074	-115.54114	-97.6404	65.0936	39.05616	-106.59077	151.34262	262.00174	144.01959	26.85111	4.88202	-16.2734	0
703	-15.45973	-110.65912	-95.19939	62.65259	39.05616	-104.14976	151.34262	262.00174	146.4606	26.85111	4.88202	-16.2734	0
704	-15.45973	-103.33609	-87.87636	57.77057	36.61515	-96.82673	156.22464	262.00174	144.01959	24.4101	4.88202	-16.2734	0
705	-10.57771	-98.45407	-87.87636	52.88855	39.05616	-94.38572	158.66565	264.44275	141.57858	24.4101	4.88202	-16.2734	0
706	-3.25468	-86.24902	-82.99434	43.12451	39.05616	-84.62168	165.98868	271.76578	146.4606	26.85111	7.32303	-11.39138	0
707	-3.25468	-78.92599	-75.67131	40.6835	36.61515	-77.29865	165.98868	274.20679	148.90161	26.85111	7.32303	-11.39138	0
708	-5.69569	-76.48498	-70.78929	40.6835	31.73313	-74.85764	163.54767	269.32477	148.90161	24.4101	2.44101	-16.2734	0
709	-10.57771	-76.48498	-65.90727	43.12451	26.85111	-72.41663	161.10666	262.00174	148.90161	24.4101	0	-16.2734	0
710	-10.57771	-74.04397	-63.46626	40.6835	26.85111	-69.97562	161.10666	257.11972	151.34262	21.96909	0	-18.71441	0
711	-10.57771	-69.16195	-58.58424	38.24249	24.4101	-65.0936	165.98868	254.67871	153.78363	24.4101	0	-18.71441	0
712	-10.57771	-64.27993	-53.70222	35.80148	21.96909	-60.21158	168.42969	249.79669	158.66565	24.4101	0	-16.2734	0
713	-10.57771	-61.83892	-51.26121	35.80148	19.52808	-57.77057	173.31171	247.35568	158.66565	26.85111	2.44101	-16.2734	0
714	-10.57771	-56.9569	-46.37919	33.36047	17.08707	-52.88855	180.63474	249.79669	161.10666	26.85111	4.88202	-13.83239	0
715	-5.69569	-47.19286	-41.49717	26.03744	17.08707	-45.56552	190.39878	257.11972	165.98868	31.73313	9.76404	-11.39138	0
716	0	-34.98781	-34.17414	16.2734	17.08707	-33.36047	202.60383	264.44275	173.31171	36.61515	12.20505	-6.50936	0
717	2.44101	-27.66478	-29.29212	11.39138	14.64606	-28.47845	209.92686	266.88376	178.19373	39.05616	14.64606	-6.50936	0
718	4.88202	-25.22377	-29.29212	8.95037	17.08707	-26.03744	214.80888	264.44275	183.07575	43.93818	17.08707	-6.50936	0
719	4.88202	-25.22377	-29.29212	8.95037	17.08707	-26.03744	219.6909	262.00174	187.95777	46.37919	19.52808	-4.06835	0
720	4.88202	-22.78276	-26.85111	8.95037	14.64606	-23.59643	224.57292	259.56073	190.39878	51.26121	21.96909	-4.06835	0
721	4.88202	-22.78276	-26.85111	8.95037	14.64606	-23.59643	227.01393	254.67871	197.72181	53.70222	24.4101	-4.06835	0
722	4.88202	-22.78276	-26.85111	8.95037	14.64606	-23.59643	229.45494	247.35568	200.16282	56.14323	26.85111	-4.06835	0
723	0	-22.78276	-21.96909	11.39138	9.76404	-21.15542	229.45494	240.03265	202.60383	58.58424	29.29212	-1.62734	0
724	-8.1367	-25.22377	-17.08707	16.2734	4.88202	-21.15542	234.33696	235.15063	202.60383	58.58424	29.29212	-1.62734	0
725	-13.01872	-30.10579	-17.08707	21.15542	2.44101	-23.59643	236.77797	232.70962	202.60383	61.02525	29.29212	-1.62734	0
726	-15.45973	-27.66478	-12.20505	21.15542	-3.25468	-21.15542	236.77797	232.70962	202.60383	61.02525	29.29212	1.62734	0
727	-15.45973	-25.22377	-9.76404	18.71441	-3.25468	-18.71441	234.33696	230.26861	202.60383	63.46626	29.29212	4.06835	0
728	-17.90074	-25.22377	-7.32303	21.15542	-5.69569	-16.2734	227.01393	222.94558	200.16282	61.02525	26.85111	1.62734	0
729	-20.34175	-22.78276	-2.44101	21.15542	-10.57771	-13.83239	219.6909	213.18154	192.83979	56.14323	24.4101	-1.62734	0
730	-20.34175	-20.34175	0	18.71441	-10.57771	-11.39138	209.92686	205.85851	185.51676	51.26121	19.52808	-4.06835	0
731	-15.45973	-20.34175	-4.88202	16.2734	-5.69569	-13.83239	200.16282	196.09447	180.63474	46.37919	17.08707	-6.50936	0
732	-10.57771	-13.01872	-2.44101	11.39138	-5.69569	-8.95037	190.39878	186.33043	175.75272	41.49717	12.20505	-11.39138	0
733	-5.69569	-10.57771	-4.88202	6.50936	0	-8.95037	183.07575	179.0074	170.8707	36.61515	12.20505	-11.39138	0
734	-3.25468	-13.01872	-9.76404	6.50936	2.44101	-11.39138	178.19373	174.12538	163.54767	31.73313	7.32303	-16.2734	0
735	-5.69569	-20.34175	-14.64606	11.39138	4.88202	-18.71441	168.42969	171.68437	156.22464	26.85111	4.88202	-21.15542	0
736	-8.1367	-25.22377	-17.08707	16.2734	4.88202	-21.15542	163.54767	171.68437	151.34262	24.4101	2.44101	-23.59643	0
737	-3.25468	-17.90074	-14.64606	8.95037	4.88202	-16.2734	158.66565	174.12538	148.90161	21.96909	4.88202	-18.71441	0
738	-3.25468	-13.01872	-9.76404	6.50936	2.44101	-11.39138	153.78363	174.12538	144.01959	21.96909	4.88202	-18.71441	0
739	2.44101	-5.69569	-7.32303	0.81367	4.88202	-6.50936	146.4606	171.68437	136.69656	19.52808	2.44101	-18.71441	0
740	2.44101	-0.81367	-2.44101	-1.62734	2.44101	-1.62734	139.13757	171.68437	129.37353	14.64606	0	-18.71441	0
741	7.32303	12.20505	5.69569	-8.95037	2.44101	8.95037	131.81454	169.24336	124.49151	14.64606	0	-18.71441	0
742	14.64606	24.4101	10.57771	-18.71441	2.44101	18.71441	129.37353	166.80235	124.49151	14.64606	0	-18.71441	0
743	21.96909	31.73313	10.57771	-26.03744	7.32303	21.15542	122.0505	166.80235	119.60949	9.76404	-5.69569	-23.59643	0
744	26.85111	34.17414	8.1367	-30.91946	9.76404	21.15542	122.0505	166.80235	114.72747	4.06835	-8.1367	-28.47845	0
745	24.4101	29.29212	5.69569	-26.03744	9.76404	18.71441	119.60949	169.24336	107.40444	4.06835	-10.57771	-33.36047	0
746	19.52808	17.08707	-2.44101	-18.71441	12.20505	8.95037	114.72747	171.68437	104.96343	-0.81367	-15.45973	-38.24249	0
747	17.08707	4.88202	-12.20505	-11.39138	14.64606	-4.06835	112.28646	171.68437	100.08141	-3.25468	-17.90074	-43.12451	0
748	14.64606	-8.1367	-21.96909	-4.06835	17.08707	-13.83239	109.84545	169.24336	95.19939	-5.69569	-22.78276	-45.56552	0
749	14.64606	-15.45973	-29.29212	0.81367	21.96909	-21.15542	109.84545	166.80235	95.19939	-5.69569	-22.78276	-45.56552	0
750	12.20505	-20.34175	-31.73313	4.06835	21.96909	-26.03744	107.40444	164.36134	92.75838	-0.81367	-22.78276	-45.56552	0
751	7.32303	-25.22377	-31.73313	8.95037	19.52808	-28.47845	102.52242	159.47932	92.75838	-0.81367	-22.78276	-48.00653	0
752	4.88202	-30.10579	-34.17414	11.39138	19.52808	-30.91946	100.08141	152.15629	92.75838	-0.81367	-22.78276	-50.44754	0
753	-3.25468	-34.98781	-31.73313	18.71441	14.64606	-33.36047	97.6404	144.83326	92.75838	-0.81367	-22.78276	-50.44754	0
754	-3.25468	-39.86983	-36.61515	21.15542	17.08707	-38.24249	97.6404	137.51023	90.31737	-0.81367	-22.78276	-50.44754	0
755	-10.57771	-52.07488	-41.49717	30.91946	14.64606	-48.00653	95.19939	132.62821	85.43535	-3.25468	-27.66478	-50.44754	0
756	-17.90074	-61.83892	-43.93818	38.24249	12.20505	-52.88855	92.75838	130.1872	85.43535	-5.69569	-27.66478	-52.88855	0
757	-17.90074	-66.72094	-48.8202	40.6835	14.64606	-57.77057	90.31737	125.30518	82.99434	-8.1367	-30.10579	-52.88855	0
758	-15.45973	-71.60296	-56.14323	43.12451	19.52808	-65.0936	85.43535	117.98215	78.11232	-10.57771	-30.10579	-55.32956	0
759	-13.01872	-74.04397	-61.02525	43.12451	24.4101	-67.53461	82.99434	113.10013	75.67131	-10.57771	-30.10579	-55.32956	0
760	-8.1367	-74.04397	-65.90727	40.6835	29.29212	-69.97562	80.55333	108.21811	70.78929	-8.1367	-30.10579	-55.32956	0
761	-5.69569	-74.04397	-68.34828	38.24249	31.73313	-72.41663	78.11232	100.89508	70.78929	-5.69569	-30.10579	-55.32956	0
762	-5.69569	-76.48498	-70.78929	40.6835	31.73313	-74.85764	73.2303	93.57205	68.34828	-5.69569	-30.10579	-55.32956	0
763	-8.1367	-83.80801	-75.67131	45.56552	34.17414	-79.73966	68.34828	86.24902	63.46626	-5.69569	-32.5468	-57.77057	0
764	-15.45973	-98.45407	-82.99434	55.32956	34.17414	-91.94471	68.34828	81.367	61.02525	-8.1367	-34.98781	-60.21158	0
765	-25.22377	-110.65912	-85.43535	67.53461	29.29212	-99.26774	65.90727	78.92599	56.14323	-13.01872	-39.86983	-62.65259	0
766	-27.66478	-115.54114	-87.87636	69.97562	29.29212	-101.70875	65.90727	83.80801	56.14323	-13.01872	-42.31084	-65.0936	0
767	-22.78276	-113.10013	-90.31737	67.53461	34.17414	-101.70875	65.90727	86.24902	56.14323	-13.01872	-42.31084	-65.0936	0
768	-13.01872	-105.7771	-92.75838	57.77057	39.05616	-99.26774	68.34828	88.69003	58.58424	-10.57771	-39.86983	-62.65259	0
769	-10.57771	-105.7771	-95.19939	57.77057	41.49717	-101.70875	65.90727	83.80801	58.58424	-10.57771	-39.86983	-62.65259	0
770	-5.69569	-103.33609	-97.6404	52.88855	46.37919	-101.70875	65.90727	81.367	58.58424	-8.1367	-37.42882	-60.21158	0
771	-3.25468	-93.57205	-90.31737	48.00653	43.93818	-91.94471	65.90727	76.48498	58.58424	-5.69569	-34.98781	-55.32956	0
772	0	-93.57205	-92.75838	45.56552	46.37919	-91.94471	63.46626	71.60296	58.58424	-3.25468	-32.5468	-52.88855	0
773	-3.25468	-96.01306	-92.75838	48.00653	43.93818	-94.38572	58.58424	64.27993	56.14323	-3.25468	-32.5468	-52.88855	0
774	-10.57771	-100.89508	-90.31737	55.32956	39.05616	-96.82673	58.58424	59.39791	53.70222	-5.69569	-34.98781	-55.32956	0
775	-15.45973	-105.7771	-90.31737	60.21158	36.61515	-99.26774	58.58424	59.39791	48.8202	-5.69569	-37.42882	-57.77057	0
776	-17.90074	-105.7771	-87.87636	60.21158	34.17414	-96.82673	56.14323	61.83892	48.8202	-8.1367	-39.86983	-60.21158	0
777	-17.90074	-105.7771	-87.87636	60.21158	34.17414	-96.82673	56.14323	61.83892	46.37919	-8.1367	-39.86983	-62.65259	0
778	-15.45973	-105.7771	-90.31737	60.21158	36.61515	-99.26774	56.14323	59.39791	43.93818	-10.57771	-42.31084	-65.0936	0
779	-15.45973	-113.10013	-97.6404	62.65259	41.49717	-106.59077	53.70222	54.51589	41.49717	-10.57771	-42.31084	-65.0936	0
780	-20.34175	-115.54114	-95.19939	67.53461	36.61515	-106.59077	50.44754	52.07488	41.49717	-10.57771	-42.31084	-67.53461	0
781	-20.34175	-113.10013	-92.75838	65.0936	36.61515	-104.14976	50.44754	47.19286	41.49717	-8.1367	-42.31084	-67.53461	0
782	-22.78276	-113.10013	-90.31737	67.53461	34.17414	-101.70875	50.44754	39.86983	43.93818	-5.69569	-37.42882	-65.0936	0
783	-22.78276	-113.10013	-90.31737	67.53461	34.17414	-101.70875	50.44754	34.98781	43.93818	-0.81367	-34.98781	-60.21158	0
784	-27.66478	-113.10013	-85.43535	69.97562	29.29212	-99.26774	56.14323	34.98781	48.8202	1.62734	-32.5468	-57.77057	0
785	-30.10579	-108.21811	-78.11232	67.53461	24.4101	-94.38572	61.02525	39.86983	48.8202	4.06835	-30.10579	-55.32956	0
786	-30.10579	-108.21811	-78.11232	67.53461	24.4101	-94.38572	63.46626	42.31084	51.26121	4.06835	-30.10579	-55.32956	0
787	-32.5468	-108.21811	-75.67131	69.97562	21.96909	-91.94471	63.46626	42.31084	51.26121	1.62734	-30.10579	-55.32956	0
788	-32.5468	-113.10013	-80.55333	72.41663	24.4101	-96.82673	63.46626	42.31084	48.8202	1.62734	-30.10579	-57.77057	0
789	-37.42882	-117.98215	-80.55333	77.29865	21.96909	-99.26774	61.02525	39.86983	46.37919	1.62734	-32.5468	-57.77057	0
790	-37.42882	-117.98215	-80.55333	77.29865	21.96909	-99.26774	58.58424	37.42882	43.93818	1.62734	-32.5468	-60.21158	0
791	-32.5468	-117.98215	-85.43535	74.85764	26.85111	-101.70875	53.70222	32.5468	41.49717	-0.81367	-34.98781	-60.21158	0
792	-30.10579	-115.54114	-85.43535	72.41663	26.85111	-101.70875	53.70222	30.10579	43.93818	1.62734	-32.5468	-60.21158	0
793	-25.22377	-113.10013	-87.87636	67.53461	31.73313	-101.70875	53.70222	30.10579	46.37919	4.06835	-30.10579	-60.21158	0
794	-25.22377	-113.10013	-87.87636	67.53461	31.73313	-101.70875	56.14323	27.66478	46.37919	4.06835	-30.10579	-60.21158	0
795	-25.22377	-115.54114	-90.31737	69.97562	31.73313	-104.14976	58.58424	32.5468	46.37919	7.32303	-30.10579	-57.77057	0
796	-25.22377	-117.98215	-92.75838	69.97562	34.17414	-106.59077	58.58424	34.98781	46.37919	7.32303	-30.10579	-57.77057	0
797	-25.22377	-122.86417	-97.6404	72.41663	36.61515	-111.47279	58.58424	34.98781	43.93818	4.06835	-32.5468	-60.21158	0
798	-25.22377	-122.86417	-97.6404	72.41663	36.61515	-111.47279	56.14323	34.98781	41.49717	4.06835	-32.5468	-60.21158	0
799	-22.78276	-120.42316	-97.6404	69.97562	36.61515	-109.03178	53.70222	32.5468	41.49717	4.06835	-32.5468	-60.21158	0
800	-17.90074	-117.98215	-100.08141	67.53461	41.49717	-109.03178	50.44754	32.5468	39.05616	4.06835	-34.98781	-62.65259	0
801	-17.90074	-115.54114	-97.6404	65.0936	39.05616	-106.59077	50.44754	32.5468	39.05616	4.06835	-34.98781	-62.65259	0
802	-13.01872	-110.65912	-97.6404	60.21158	41.49717	-104.14976	50.44754	30.10579	39.05616	4.06835	-34.98781	-62.65259	0
803	-13.01872	-105.7771	-92.75838	57.77057	39.05616	-99.26774	50.44754	32.5468	41.49717	7.32303	-32.5468	-60.21158	0
804	-13.01872	-103.33609	-90.31737	57.77057	39.05616	-96.82673	61.02525	47.19286	46.37919	9.76404	-30.10579	-60.21158	0
805	-17.90074	-100.89508	-82.99434	57.77057	31.73313	-91.94471	70.78929	69.16195	51.26121	12.20505	-30.10579	-60.21158	0
806	-20.34175	-98.45407	-78.11232	57.77057	29.29212	-89.5037	87.87636	100.89508	61.02525	17.08707	-27.66478	-57.77057	0
807	-20.34175	-91.13104	-70.78929	55.32956	24.4101	-82.18067	97.6404	137.51023	65.90727	17.08707	-27.66478	-60.21158	0
808	-17.90074	-86.24902	-68.34828	50.44754	24.4101	-77.29865	102.52242	179.0074	65.90727	17.08707	-32.5468	-67.53461	0
809	-13.01872	-81.367	-68.34828	45.56552	26.85111	-74.85764	97.6404	230.26861	61.02525	9.76404	-39.86983	-74.85764	0
810	0	-71.60296	-70.78929	35.80148	34.17414	-69.97562	82.99434	283.97083	46.37919	1.62734	-52.07488	-84.62168	0
811	14.64606	-61.83892	-75.67131	23.59643	43.93818	-67.53461	50.44754	337.67305	26.03744	-17.90074	-69.16195	-99.26774	0
812	31.73313	-52.07488	-82.99434	8.95037	56.14323	-67.53461	4.06835	386.49325	-8.1367	-44.75185	-91.13104	-118.79582	0
813	56.14323	-34.98781	-90.31737	-11.39138	73.2303	-62.65259	-54.51589	440.19547	-49.63387	-76.48498	-115.54114	-140.76491	0
814	85.43535	-10.57771	-95.19939	-38.24249	90.31737	-52.88855	-117.98215	496.3387	-96.01306	-108.21811	-139.95124	-160.29299	0
815	119.60949	17.08707	-102.52242	-67.53461	112.28646	-43.12451	-186.33043	552.48193	-147.27427	-144.83326	-166.80235	-182.26208	0
816	148.90161	46.37919	-102.52242	-96.82673	126.93252	-28.47845	-264.44275	608.62516	-203.4175	-188.77144	-200.97649	-209.11319	0
817	183.07575	85.43535	-97.6404	-133.44188	141.57858	-6.50936	-359.64214	659.88637	-269.32477	-240.03265	-237.59164	-238.40531	0
818	219.6909	136.69656	-82.99434	-177.38006	151.34262	28.47845	-469.48759	691.6195	-344.99608	-293.73487	-274.20679	-265.25642	0
819	256.30605	187.95777	-68.34828	-221.31824	163.54767	60.21158	-589.09708	698.94253	-430.43143	-352.31911	-313.26295	-294.54854	0
820	288.03918	251.42403	-36.61515	-270.13844	163.54767	109.03178	-720.91162	679.41445	-520.7488	-413.34436	-354.76012	-321.39965	0
821	322.21332	319.77231	-2.44101	-321.39965	163.54767	160.29299	-857.60818	620.83021	-611.06617	-474.36961	-391.37527	-345.80975	0
822	344.18241	383.23857	39.86983	-362.89682	153.78363	211.5542	-991.86373	518.30779	-701.38354	-530.51284	-423.1084	-365.33783	0
823	353.94645	434.49978	81.367	-394.62995	136.69656	257.93339	-1111.47322	379.17022	-781.93687	-579.33304	-449.95951	-377.54288	0
824	353.94645	463.7919	110.65912	-409.27601	122.0505	287.22551	-1199.34958	218.06356	-847.84414	-615.94819	-469.48759	-382.4249	0
825	349.06443	480.87897	132.62821	-414.15803	109.84545	306.75359	-1253.0518	54.51589	-889.34131	-633.03526	-474.36961	-379.98389	0
826	327.09534	468.67392	142.39225	-397.07096	92.75838	306.75359	-1275.02089	-114.72747	-908.86939	-635.47627	-471.9286	-370.21985	0
827	283.15716	427.17675	144.83326	-355.57379	70.78929	287.22551	-1267.69786	-300.24423	-908.86939	-625.71223	-459.72355	-355.57379	0
828	229.45494	371.03352	142.39225	-299.43056	43.93818	257.93339	-1238.40574	-475.99695	-896.66434	-606.18415	-445.07749	-338.48672	0
829	185.51676	312.44928	127.74619	-248.16935	29.29212	221.31824	-1187.14453	-620.01654	-864.93121	-574.45102	-420.66739	-318.95864	0
830	139.13757	251.42403	113.10013	-194.46713	14.64606	182.26208	-1128.56029	-737.18502	-828.31606	-540.27688	-398.6983	-299.43056	0
831	92.75838	190.39878	98.45407	-140.76491	-3.25468	145.64693	-1069.97605	-832.38441	-789.2599	-508.54375	-379.17022	-282.34349	0
832	56.14323	144.01959	88.69003	-99.26774	-15.45973	116.35481	-1006.50979	-900.73269	-742.88071	-474.36961	-354.76012	-265.25642	0
833	29.29212	107.40444	78.92599	-67.53461	-25.22377	94.38572	-938.16151	-922.70178	-691.6195	-440.19547	-332.79103	-250.61036	0
834	14.64606	78.11232	64.27993	-45.56552	-25.22377	72.41663	-864.93121	-898.29168	-642.7993	-406.02133	-313.26295	-235.9643	0
835	9.76404	56.14323	47.19286	-33.36047	-17.90074	52.88855	-794.14192	-849.47148	-591.53809	-374.2882	-293.73487	-223.75925	0
836	9.76404	39.05616	30.10579	-23.59643	-10.57771	35.80148	-720.91162	-790.88724	-540.27688	-342.55507	-276.6478	-211.5542	0
837	9.76404	24.4101	15.45973	-16.2734	-3.25468	21.15542	-650.12233	-727.42098	-489.01567	-308.38093	-257.11972	-201.79016	0
838	14.64606	7.32303	-7.32303	-11.39138	12.20505	0.81367	-579.33304	-659.0727	-437.75446	-276.6478	-235.15063	-189.58511	0
839	17.08707	-5.69569	-21.96909	-6.50936	19.52808	-13.83239	-513.42577	-590.72442	-391.37527	-247.35568	-218.06356	-179.82107	0
840	17.08707	-15.45973	-31.73313	-1.62734	24.4101	-23.59643	-457.28254	-537.0222	-354.76012	-222.94558	-205.85851	-174.93905	0
841	9.76404	-25.22377	-34.17414	6.50936	21.96909	-28.47845	-408.46234	-493.08402	-318.14497	-200.97649	-196.09447	-170.05703	0
842	7.32303	-27.66478	-34.17414	8.95037	19.52808	-30.91946	-359.64214	-454.02786	-283.97083	-179.0074	-181.44841	-160.29299	0
843	0	-22.78276	-21.96909	11.39138	9.76404	-21.15542	-318.14497	-419.85372	-252.2377	-159.47932	-169.24336	-152.96996	0
844	-8.1367	-20.34175	-12.20505	13.83239	2.44101	-16.2734	-283.97083	-397.88463	-225.38659	-144.83326	-157.03831	-143.20592	0
845	-15.45973	-15.45973	0	13.83239	-8.1367	-8.95037	-254.67871	-380.79756	-208.29952	-132.62821	-147.27427	-135.88289	0
846	-20.34175	-8.1367	13.01872	13.83239	-17.90074	0.81367	-230.26861	-371.03352	-188.77144	-120.42316	-137.51023	-128.55986	0
847	-17.90074	4.88202	22.78276	6.50936	-20.34175	13.83239	-210.74053	-366.1515	-171.68437	-108.21811	-127.74619	-116.35481	0
848	-25.22377	9.76404	34.98781	6.50936	-30.10579	21.15542	-198.53548	-368.59251	-159.47932	-103.33609	-120.42316	-111.47279	0
849	-30.10579	14.64606	44.75185	6.50936	-37.42882	28.47845	-188.77144	-373.47453	-152.15629	-96.01306	-113.10013	-104.14976	0
850	-30.10579	19.52808	49.63387	4.06835	-39.86983	33.36047	-179.0074	-373.47453	-142.39225	-88.69003	-105.7771	-96.82673	0
851	-30.10579	24.4101	54.51589	0.81367	-42.31084	38.24249	-171.68437	-373.47453	-135.06922	-81.367	-100.89508	-91.94471	0
852	-32.5468	24.4101	56.9569	4.06835	-44.75185	40.6835	-164.36134	-375.91554	-125.30518	-74.04397	-96.01306	-87.06269	0
853	-34.98781	26.85111	61.83892	4.06835	-47.19286	43.12451	-157.03831	-375.91554	-117.98215	-69.16195	-91.13104	-82.18067	0
854	-32.5468	31.73313	64.27993	0.81367	-47.19286	48.00653	-147.27427	-371.03352	-110.65912	-61.83892	-86.24902	-77.29865	0
855	-25.22377	41.49717	66.72094	-8.95037	-44.75185	52.88855	-137.51023	-363.71049	-103.33609	-56.9569	-81.367	-72.41663	0
856	-25.22377	43.93818	69.16195	-8.95037	-47.19286	55.32956	-130.1872	-356.38746	-98.45407	-56.9569	-78.92599	-72.41663	0
857	-25.22377	43.93818	69.16195	-8.95037	-47.19286	55.32956	-125.30518	-351.50544	-93.57205	-52.07488	-76.48498	-69.97562	0
858	-22.78276	51.26121	74.04397	-13.83239	-47.19286	62.65259	-120.42316	-349.06443	-91.13104	-49.63387	-76.48498	-69.97562	0
859	-20.34175	56.14323	76.48498	-18.71441	-47.19286	65.0936	-120.42316	-349.06443	-88.69003	-49.63387	-76.48498	-67.53461	0
860	-22.78276	56.14323	78.92599	-16.2734	-49.63387	67.53461	-117.98215	-351.50544	-88.69003	-47.19286	-74.04397	-67.53461	0
861	-25.22377	56.14323	81.367	-16.2734	-52.07488	67.53461	-120.42316	-356.38746	-88.69003	-47.19286	-74.04397	-67.53461	0
862	-30.10579	51.26121	81.367	-11.39138	-54.51589	65.0936	-120.42316	-363.71049	-88.69003	-47.19286	-71.60296	-65.0936	0
863	-32.5468	51.26121	83.80801	-8.95037	-56.9569	67.53461	-120.42316	-366.1515	-86.24902	-42.31084	-71.60296	-62.65259	0
864	-32.5468	53.70222	86.24902	-11.39138	-59.39791	69.97562	-115.54114	-368.59251	-83.80801	-42.31084	-69.16195	-60.21158	0
865	-34.98781	53.70222	88.69003	-8.95037	-61.83892	69.97562	-113.10013	-366.1515	-83.80801	-42.31084	-69.16195	-60.21158	0
866	-37.42882	53.70222	91.13104	-8.95037	-64.27993	72.41663	-108.21811	-361.26948	-81.367	-39.86983	-66.72094	-57.77057	0
867	-42.31084	51.26121	93.57205	-4.06835	-66.72094	72.41663	-105.7771	-361.26948	-81.367	-42.31084	-66.72094	-57.77057	0
868	-47.19286	48.8202	96.01306	-1.62734	-71.60296	72.41663	-105.7771	-361.26948	-81.367	-42.31084	-66.72094	-57.77057	0
869	-47.19286	48.8202	96.01306	-1.62734	-71.60296	72.41663	-103.33609	-361.26948	-78.92599	-39.86983	-64.27993	-55.32956	0
870	-49.63387	48.8202	98.45407	0.81367	-74.04397	72.41663	-103.33609	-361.26948	-78.92599	-39.86983	-61.83892	-52.88855	0
871	-49.63387	46.37919	96.01306	0.81367	-71.60296	69.97562	-103.33609	-363.71049	-78.92599	-37.42882	-59.39791	-50.44754	0
872	-59.39791	36.61515	96.01306	11.39138	-76.48498	65.0936	-103.33609	-373.47453	-76.48498	-37.42882	-56.9569	-50.44754	0
873	-56.9569	39.05616	96.01306	8.95037	-76.48498	67.53461	-103.33609	-375.91554	-74.04397	-34.98781	-54.51589	-48.00653	0
874	-47.19286	46.37919	93.57205	0.81367	-69.16195	69.97562	-96.01306	-373.47453	-69.16195	-27.66478	-49.63387	-43.12451	0
875	-44.75185	48.8202	93.57205	-1.62734	-69.16195	69.97562	-88.69003	-368.59251	-66.72094	-25.22377	-47.19286	-40.6835	0
876	-39.86983	51.26121	91.13104	-6.50936	-64.27993	69.97562	-86.24902	-363.71049	-64.27993	-25.22377	-47.19286	-40.6835	0
877	-37.42882	56.14323	93.57205	-8.95037	-64.27993	74.85764	-83.80801	-358.82847	-64.27993	-22.78276	-47.19286	-40.6835	0
878	-34.98781	61.02525	96.01306	-13.83239	-64.27993	77.29865	-83.80801	-358.82847	-64.27993	-22.78276	-47.19286	-40.6835	0
879	-27.66478	73.2303	100.89508	-23.59643	-64.27993	87.06269	-81.367	-358.82847	-61.83892	-20.34175	-44.75185	-38.24249	0
880	-34.98781	70.78929	105.7771	-18.71441	-69.16195	87.06269	-86.24902	-361.26948	-69.16195	-22.78276	-44.75185	-38.24249	0
881	-37.42882	70.78929	108.21811	-16.2734	-71.60296	89.5037	-88.69003	-368.59251	-69.16195	-22.78276	-47.19286	-38.24249	0
882	-37.42882	70.78929	108.21811	-16.2734	-71.60296	89.5037	-88.69003	-373.47453	-69.16195	-20.34175	-44.75185	-38.24249	0
883	-39.86983	73.2303	113.10013	-16.2734	-76.48498	91.94471	-93.57205	-380.79756	-69.16195	-20.34175	-44.75185	-38.24249	0
884	-42.31084	70.78929	113.10013	-13.83239	-76.48498	91.94471	-91.13104	-383.23857	-69.16195	-20.34175	-44.75185	-38.24249	0
885	-39.86983	70.78929	110.65912	-16.2734	-74.04397	89.5037	-91.13104	-380.79756	-71.60296	-20.34175	-44.75185	-38.24249	0
886	-44.75185	68.34828	113.10013	-11.39138	-78.92599	89.5037	-88.69003	-378.35655	-71.60296	-20.34175	-44.75185	-38.24249	0
887	-49.63387	68.34828	117.98215	-8.95037	-83.80801	91.94471	-86.24902	-378.35655	-71.60296	-20.34175	-44.75185	-38.24249	0
888	-52.07488	68.34828	120.42316	-8.95037	-86.24902	94.38572	-88.69003	-378.35655	-71.60296	-22.78276	-42.31084	-38.24249	0
889	-54.51589	68.34828	122.86417	-6.50936	-88.69003	94.38572	-88.69003	-383.23857	-74.04397	-22.78276	-42.31084	-40.6835	0
890	-54.51589	65.90727	120.42316	-6.50936	-86.24902	91.94471	-91.13104	-385.67958	-76.48498	-25.22377	-44.75185	-40.6835	0
891	-56.9569	65.90727	122.86417	-4.06835	-88.69003	94.38572	-96.01306	-390.5616	-76.48498	-25.22377	-44.75185	-43.12451	0
892	-59.39791	68.34828	127.74619	-4.06835	-93.57205	96.82673	-98.45407	-397.88463	-76.48498	-25.22377	-44.75185	-43.12451	0
893	-64.27993	65.90727	130.1872	-1.62734	-96.01306	96.82673	-105.7771	-407.64867	-81.367	-27.66478	-47.19286	-48.00653	0
894	-64.27993	68.34828	132.62821	-1.62734	-98.45407	99.26774	-105.7771	-410.08968	-81.367	-27.66478	-49.63387	-48.00653	0
895	-59.39791	73.2303	132.62821	-6.50936	-96.01306	101.70875	-105.7771	-407.64867	-83.80801	-27.66478	-49.63387	-48.00653	0
896	-54.51589	80.55333	135.06922	-13.83239	-93.57205	106.59077	-100.89508	-400.32564	-78.92599	-25.22377	-44.75185	-48.00653	0
897	-49.63387	85.43535	135.06922	-18.71441	-91.13104	109.03178	-98.45407	-397.88463	-78.92599	-25.22377	-42.31084	-45.56552	0
898	-49.63387	87.87636	137.51023	-18.71441	-93.57205	111.47279	-98.45407	-397.88463	-76.48498	-22.78276	-42.31084	-45.56552	0
899	-42.31084	92.75838	135.06922	-26.03744	-88.69003	113.9138	-98.45407	-397.88463	-76.48498	-22.78276	-39.86983	-43.12451	0
900	-34.98781	100.08141	135.06922	-33.36047	-83.80801	116.35481	-96.01306	-397.88463	-78.92599	-22.78276	-37.42882	-40.6835	0
901	-32.5468	107.40444	139.95124	-38.24249	-86.24902	123.67784	-100.89508	-402.76665	-78.92599	-22.78276	-37.42882	-40.6835	0
902	-34.98781	109.84545	144.83326	-38.24249	-88.69003	126.11885	-105.7771	-410.08968	-81.367	-25.22377	-39.86983	-40.6835	0
903	-39.86983	107.40444	147.27427	-33.36047	-93.57205	126.11885	-110.65912	-417.41271	-83.80801	-25.22377	-42.31084	-43.12451	0
904	-42.31084	109.84545	152.15629	-33.36047	-96.01306	131.00087	-110.65912	-419.85372	-86.24902	-27.66478	-42.31084	-43.12451	0
905	-37.42882	117.16848	154.5973	-40.6835	-96.01306	135.88289	-108.21811	-414.9717	-86.24902	-27.66478	-39.86983	-40.6835	0
906	-32.5468	124.49151	157.03831	-45.56552	-93.57205	140.76491	-103.33609	-407.64867	-83.80801	-25.22377	-39.86983	-38.24249	0
907	-37.42882	122.0505	159.47932	-43.12451	-98.45407	140.76491	-105.7771	-407.64867	-86.24902	-27.66478	-42.31084	-40.6835	0
908	-42.31084	117.16848	159.47932	-38.24249	-100.89508	138.3239	-108.21811	-410.08968	-88.69003	-32.5468	-44.75185	-43.12451	0
909	-42.31084	124.49151	166.80235	-40.6835	-103.33609	145.64693	-108.21811	-410.08968	-91.13104	-32.5468	-44.75185	-40.6835	0
910	-34.98781	131.81454	166.80235	-48.00653	-100.89508	148.08794	-110.65912	-410.08968	-93.57205	-32.5468	-44.75185	-40.6835	0
911	-37.42882	136.69656	174.12538	-50.44754	-105.7771	155.41097	-117.98215	-414.9717	-98.45407	-34.98781	-47.19286	-43.12451	0
912	-39.86983	136.69656	176.56639	-48.00653	-108.21811	155.41097	-122.86417	-422.29473	-100.89508	-37.42882	-49.63387	-43.12451	0
913	-37.42882	141.57858	179.0074	-52.88855	-108.21811	160.29299	-125.30518	-424.73574	-100.89508	-37.42882	-52.07488	-43.12451	0
914	-25.22377	158.66565	183.88942	-67.53461	-103.33609	170.05703	-117.98215	-417.41271	-98.45407	-34.98781	-47.19286	-40.6835	0
915	-20.34175	163.54767	183.88942	-72.41663	-100.89508	172.49804	-117.98215	-412.53069	-100.89508	-34.98781	-47.19286	-40.6835	0
916	-20.34175	163.54767	183.88942	-72.41663	-100.89508	172.49804	-115.54114	-402.76665	-98.45407	-34.98781	-49.63387	-40.6835	0
917	-17.90074	168.42969	186.33043	-74.85764	-100.89508	177.38006	-113.10013	-393.00261	-98.45407	-34.98781	-49.63387	-38.24249	0
918	-10.57771	173.31171	183.88942	-82.18067	-96.01306	177.38006	-110.65912	-385.67958	-98.45407	-32.5468	-49.63387	-35.80148	0
919	-8.1367	178.19373	186.33043	-84.62168	-96.01306	182.26208	-108.21811	-380.79756	-98.45407	-32.5468	-49.63387	-35.80148	0
920	-10.57771	178.19373	188.77144	-84.62168	-98.45407	182.26208	-110.65912	-375.91554	-100.89508	-32.5468	-49.63387	-35.80148	0
921	-13.01872	178.19373	191.21245	-82.18067	-100.89508	184.70309	-113.10013	-375.91554	-103.33609	-34.98781	-52.07488	-38.24249	0
922	-13.01872	180.63474	193.65346	-84.62168	-103.33609	187.1441	-115.54114	-373.47453	-103.33609	-37.42882	-52.07488	-38.24249	0
923	-13.01872	185.51676	198.53548	-87.06269	-105.7771	192.02612	-115.54114	-371.03352	-103.33609	-37.42882	-52.07488	-38.24249	0
924	-13.01872	187.95777	200.97649	-87.06269	-105.7771	194.46713	-110.65912	-363.71049	-103.33609	-37.42882	-52.07488	-35.80148	0
925	-17.90074	187.95777	205.85851	-84.62168	-110.65912	196.90814	-110.65912	-353.94645	-105.7771	-39.86983	-52.07488	-35.80148	0
926	-20.34175	187.95777	208.29952	-84.62168	-113.10013	196.90814	-105.7771	-339.30039	-103.33609	-39.86983	-54.51589	-35.80148	0
927	-20.34175	187.95777	208.29952	-84.62168	-113.10013	196.90814	-103.33609	-329.53635	-103.33609	-42.31084	-54.51589	-38.24249	0
928	-20.34175	187.95777	208.29952	-84.62168	-113.10013	196.90814	-100.89508	-319.77231	-103.33609	-42.31084	-54.51589	-38.24249	0
929	-22.78276	187.95777	210.74053	-82.18067	-115.54114	199.34915	-96.01306	-307.56726	-100.89508	-42.31084	-54.51589	-38.24249	0
930	-25.22377	187.95777	213.18154	-82.18067	-117.98215	199.34915	-96.01306	-297.80322	-100.89508	-42.31084	-54.51589	-38.24249	0
931	-22.78276	187.95777	210.74053	-82.18067	-115.54114	199.34915	-96.01306	-290.48019	-100.89508	-42.31084	-54.51589	-38.24249	0
932	-15.45973	192.83979	208.29952	-89.5037	-110.65912	199.34915	-91.13104	-278.27514	-93.57205	-37.42882	-52.07488	-35.80148	0
933	-8.1367	200.16282	208.29952	-96.82673	-108.21811	204.23117	-83.80801	-263.62908	-88.69003	-34.98781	-47.19286	-33.36047	0
934	-8.1367	200.16282	208.29952	-96.82673	-108.21811	204.23117	-78.92599	-246.54201	-86.24902	-32.5468	-47.19286	-33.36047	0
935	-8.1367	197.72181	205.85851	-94.38572	-105.7771	201.79016	-69.16195	-227.01393	-81.367	-30.10579	-47.19286	-33.36047	0
936	-3.25468	200.16282	203.4175	-99.26774	-103.33609	201.79016	-61.83892	-202.60383	-74.04397	-25.22377	-42.31084	-28.47845	0
937	-3.25468	195.2808	198.53548	-96.82673	-100.89508	196.90814	-54.51589	-180.63474	-69.16195	-20.34175	-42.31084	-26.03744	0
938	-8.1367	187.95777	196.09447	-89.5037	-100.89508	192.02612	-52.07488	-165.98868	-69.16195	-20.34175	-42.31084	-26.03744	0
939	-13.01872	180.63474	193.65346	-84.62168	-103.33609	187.1441	-47.19286	-153.78363	-66.72094	-15.45973	-42.31084	-26.03744	0
940	-13.01872	178.19373	191.21245	-82.18067	-100.89508	184.70309	-39.86983	-141.57858	-64.27993	-10.57771	-37.42882	-21.15542	0
941	-3.25468	185.51676	188.77144	-91.94471	-96.01306	187.1441	-32.5468	-129.37353	-54.51589	-3.25468	-30.10579	-13.83239	0
942	0	185.51676	186.33043	-91.94471	-93.57205	187.1441	-27.66478	-119.60949	-52.07488	-0.81367	-25.22377	-11.39138	0
943	7.32303	187.95777	181.44841	-96.82673	-86.24902	184.70309	-22.78276	-104.96343	-47.19286	1.62734	-22.78276	-11.39138	0
944	12.20505	187.95777	176.56639	-99.26774	-81.367	182.26208	-10.57771	-87.87636	-39.86983	4.06835	-20.34175	-6.50936	0
945	9.76404	183.07575	174.12538	-96.82673	-81.367	179.82107	-0.81367	-65.90727	-34.98781	7.32303	-17.90074	-6.50936	0
946	14.64606	183.07575	169.24336	-99.26774	-76.48498	177.38006	11.39138	-39.05616	-22.78276	12.20505	-13.01872	-4.06835	0
947	14.64606	178.19373	164.36134	-96.82673	-74.04397	172.49804	18.71441	-19.52808	-17.90074	14.64606	-13.01872	-4.06835	0
948	9.76404	168.42969	159.47932	-89.5037	-74.04397	165.17501	21.15542	-7.32303	-15.45973	19.52808	-13.01872	-4.06835	0
949	7.32303	158.66565	152.15629	-82.18067	-71.60296	155.41097	28.47845	4.88202	-10.57771	24.4101	-10.57771	-1.62734	0
950	7.32303	156.22464	149.71528	-82.18067	-71.60296	152.96996	35.80148	13.01872	-3.25468	29.29212	-5.69569	1.62734	0
951	12.20505	156.22464	144.83326	-84.62168	-66.72094	150.52895	40.6835	20.34175	4.06835	34.17414	-2.44101	4.06835	0
952	9.76404	148.90161	139.95124	-79.73966	-64.27993	145.64693	45.56552	22.78276	8.95037	34.17414	-2.44101	6.50936	0
953	2.44101	139.13757	137.51023	-69.97562	-66.72094	138.3239	50.44754	32.5468	13.83239	36.61515	0	8.95037	0
954	2.44101	131.81454	130.1872	-67.53461	-64.27993	131.00087	65.90727	49.63387	21.15542	39.05616	4.88202	11.39138	0
955	2.44101	124.49151	122.86417	-62.65259	-59.39791	123.67784	78.11232	69.16195	26.03744	41.49717	7.32303	13.83239	0
956	-3.25468	112.28646	115.54114	-55.32956	-59.39791	113.9138	87.87636	91.13104	34.17414	43.93818	7.32303	13.83239	0
957	-3.25468	102.52242	105.7771	-50.44754	-54.51589	104.14976	97.6404	110.65912	41.49717	51.26121	12.20505	13.83239	0
958	-3.25468	100.08141	103.33609	-48.00653	-52.07488	101.70875	107.40444	125.30518	46.37919	56.14323	17.08707	16.2734	0
959	2.44101	95.19939	93.57205	-48.00653	-44.75185	94.38572	112.28646	135.06922	53.70222	63.46626	19.52808	18.71441	0
960	2.44101	87.87636	86.24902	-45.56552	-42.31084	87.06269	117.16848	139.95124	58.58424	70.78929	24.4101	21.15542	0
961	-3.25468	73.2303	76.48498	-35.80148	-39.86983	74.85764	119.60949	139.95124	63.46626	73.2303	26.85111	23.59643	0
962	-3.25468	61.02525	64.27993	-28.47845	-32.5468	62.65259	124.49151	139.95124	70.78929	75.67131	29.29212	28.47845	0
963	-8.1367	48.8202	56.9569	-21.15542	-32.5468	52.88855	129.37353	144.83326	73.2303	78.11232	31.73313	30.91946	0
964	-13.01872	34.17414	47.19286	-11.39138	-30.10579	40.6835	136.69656	154.5973	78.11232	78.11232	34.17414	33.36047	0
965	-17.90074	17.08707	34.98781	0.81367	-25.22377	26.03744	144.01959	169.24336	80.55333	78.11232	34.17414	33.36047	0
966	-22.78276	7.32303	30.10579	6.50936	-25.22377	18.71441	148.90161	183.88942	85.43535	80.55333	34.17414	33.36047	0
967	-20.34175	-0.81367	20.34175	8.95037	-20.34175	8.95037	153.78363	193.65346	90.31737	82.99434	36.61515	33.36047	0
968	-15.45973	-0.81367	15.45973	6.50936	-15.45973	6.50936	158.66565	200.97649	90.31737	87.87636	36.61515	35.80148	0
969	-20.34175	-10.57771	10.57771	13.83239	-15.45973	-1.62734	158.66565	198.53548	92.75838	92.75838	39.05616	35.80148	0
970	-17.90074	-13.01872	5.69569	13.83239	-13.01872	-4.06835	156.22464	193.65346	92.75838	95.19939	41.49717	35.80148	0
971	-17.90074	-15.45973	2.44101	16.2734	-10.57771	-6.50936	153.78363	183.88942	95.19939	95.19939	41.49717	38.24249	0
972	-17.90074	-22.78276	-4.88202	18.71441	-8.1367	-13.83239	153.78363	174.12538	97.6404	97.6404	43.93818	38.24249	0
973	-17.90074	-30.10579	-12.20505	23.59643	-3.25468	-21.15542	156.22464	169.24336	100.08141	97.6404	46.37919	40.6835	0
974	-17.90074	-34.98781	-17.08707	26.03744	0	-26.03744	161.10666	169.24336	102.52242	97.6404	48.8202	40.6835	0
975	-13.01872	-37.42882	-24.4101	23.59643	4.88202	-30.91946	165.98868	174.12538	104.96343	97.6404	51.26121	43.12451	0
976	-13.01872	-37.42882	-24.4101	23.59643	4.88202	-30.91946	168.42969	181.44841	107.40444	97.6404	51.26121	43.12451	0
977	-17.90074	-49.63387	-31.73313	33.36047	7.32303	-40.6835	168.42969	183.88942	109.84545	100.08141	51.26121	43.12451	0
978	-17.90074	-56.9569	-39.05616	35.80148	9.76404	-48.00653	168.42969	186.33043	109.84545	104.96343	53.70222	43.12451	0
979	-22.78276	-61.83892	-39.05616	40.6835	7.32303	-50.44754	165.98868	176.56639	109.84545	107.40444	51.26121	43.12451	0
980	-32.5468	-74.04397	-41.49717	52.88855	4.88202	-57.77057	158.66565	164.36134	104.96343	104.96343	48.8202	40.6835	0
981	-37.42882	-81.367	-43.93818	57.77057	2.44101	-62.65259	153.78363	149.71528	102.52242	102.52242	46.37919	38.24249	0
982	-37.42882	-88.69003	-51.26121	62.65259	7.32303	-69.97562	151.34262	137.51023	102.52242	100.08141	46.37919	38.24249	0
983	-37.42882	-88.69003	-51.26121	62.65259	7.32303	-69.97562	148.90161	130.1872	102.52242	100.08141	46.37919	40.6835	0
984	-34.98781	-91.13104	-56.14323	62.65259	9.76404	-74.85764	153.78363	127.74619	102.52242	95.19939	46.37919	40.6835	0
985	-32.5468	-88.69003	-56.14323	60.21158	12.20505	-72.41663	156.22464	132.62821	102.52242	95.19939	46.37919	40.6835	0
986	-27.66478	-88.69003	-61.02525	57.77057	17.08707	-74.85764	158.66565	142.39225	104.96343	95.19939	46.37919	40.6835	0
987	-25.22377	-93.57205	-68.34828	57.77057	21.96909	-82.18067	158.66565	144.83326	104.96343	95.19939	46.37919	40.6835	0
