samplenr	I	II	III	aVR	aVL	aVF	V1	V2	V3	V4	V5	V6	measurement
0	37.42882	4.06835	-34.17414	-20.34175	34.98781	-14.64606	-11.39138	32.5468	41.49717	33.36047	48.8202	41.49717	0
1	34.98781	4.06835	-31.73313	-20.34175	32.5468	-14.64606	-11.39138	32.5468	39.05616	35.80148	51.26121	43.93818	0
2	30.10579	4.06835	-26.85111	-17.90074	27.66478	-12.20505	-11.39138	32.5468	39.05616	40.6835	51.26121	46.37919	0
3	27.66478	6.50936	-21.96909	-17.90074	25.22377	-7.32303	-11.39138	32.5468	39.05616	43.12451	51.26121	48.8202	0
4	27.66478	8.95037	-19.52808	-17.90074	22.78276	-4.88202	-11.39138	34.98781	39.05616	45.56552	51.26121	48.8202	0
5	27.66478	8.95037	-19.52808	-17.90074	22.78276	-4.88202	-11.39138	34.98781	39.05616	45.56552	51.26121	48.8202	0
6	27.66478	8.95037	-19.52808	-17.90074	22.78276	-4.88202	-11.39138	37.42882	43.93818	43.12451	48.8202	46.37919	0
7	30.10579	8.95037	-21.96909	-20.34175	25.22377	-7.32303	-8.95037	37.42882	48.8202	43.12451	48.8202	46.37919	0
8	32.5468	8.95037	-24.4101	-20.34175	27.66478	-7.32303	-8.95037	39.86983	48.8202	45.56552	48.8202	46.37919	0
9	37.42882	11.39138	-26.85111	-25.22377	32.5468	-7.32303	-8.95037	39.86983	48.8202	48.00653	53.70222	46.37919	0
10	37.42882	13.83239	-24.4101	-25.22377	30.10579	-4.88202	-8.95037	39.86983	48.8202	50.44754	56.14323	48.8202	0
11	37.42882	13.83239	-24.4101	-25.22377	30.10579	-4.88202	-8.95037	37.42882	46.37919	50.44754	58.58424	53.70222	0
12	34.98781	13.83239	-21.96909	-25.22377	27.66478	-4.88202	-8.95037	37.42882	46.37919	55.32956	61.02525	56.14323	0
13	32.5468	13.83239	-19.52808	-22.78276	25.22377	-2.44101	-8.95037	37.42882	46.37919	57.77057	63.46626	58.58424	0
14	30.10579	13.83239	-17.08707	-22.78276	22.78276	-2.44101	-8.95037	37.42882	46.37919	57.77057	63.46626	58.58424	0
15	30.10579	13.83239	-17.08707	-22.78276	22.78276	-2.44101	-11.39138	37.42882	48.8202	55.32956	61.02525	56.14323	0
16	27.66478	11.39138	-17.08707	-20.34175	22.78276	-2.44101	-11.39138	39.86983	51.26121	50.44754	61.02525	53.70222	0
17	27.66478	8.95037	-19.52808	-17.90074	22.78276	-4.88202	-11.39138	39.86983	53.70222	48.00653	61.02525	51.26121	0
18	30.10579	8.95037	-21.96909	-20.34175	25.22377	-7.32303	-8.95037	39.86983	56.14323	50.44754	61.02525	51.26121	0
19	32.5468	11.39138	-21.96909	-22.78276	27.66478	-4.88202	-6.50936	42.31084	56.14323	52.88855	65.90727	53.70222	0
20	37.42882	16.2734	-21.96909	-27.66478	30.10579	-2.44101	-4.06835	42.31084	56.14323	55.32956	68.34828	56.14323	0
21	37.42882	21.15542	-17.08707	-30.10579	27.66478	3.25468	-1.62734	44.75185	56.14323	60.21158	73.2303	61.02525	0
22	37.42882	26.03744	-12.20505	-32.5468	25.22377	8.1367	0.81367	47.19286	61.02525	67.53461	78.11232	65.90727	0
23	37.42882	30.91946	-7.32303	-34.98781	22.78276	13.01872	3.25468	49.63387	63.46626	74.85764	80.55333	70.78929	0
24	34.98781	35.80148	0	-34.98781	17.90074	17.90074	5.69569	52.07488	65.90727	77.29865	80.55333	70.78929	0
25	34.98781	40.6835	5.69569	-37.42882	15.45973	22.78276	8.95037	56.9569	73.2303	77.29865	80.55333	70.78929	0
26	34.98781	45.56552	10.57771	-39.86983	13.01872	27.66478	13.83239	59.39791	80.55333	77.29865	82.99434	70.78929	0
27	37.42882	50.44754	13.01872	-44.75185	13.01872	32.5468	18.71441	64.27993	85.43535	77.29865	82.99434	70.78929	0
28	39.86983	52.88855	13.01872	-47.19286	13.01872	32.5468	23.59643	66.72094	90.31737	82.18067	87.87636	73.2303	0
29	44.75185	57.77057	13.01872	-52.07488	15.45973	34.98781	28.47845	69.16195	92.75838	84.62168	92.75838	78.11232	0
30	44.75185	62.65259	17.90074	-54.51589	13.01872	39.86983	30.91946	71.60296	95.19939	89.5037	97.6404	80.55333	0
31	47.19286	65.0936	17.90074	-56.9569	15.45973	42.31084	33.36047	74.04397	97.6404	94.38572	102.52242	85.43535	0
32	44.75185	65.0936	20.34175	-54.51589	13.01872	42.31084	33.36047	76.48498	97.6404	99.26774	104.96343	90.31737	0
33	44.75185	67.53461	22.78276	-56.9569	10.57771	44.75185	33.36047	78.92599	100.08141	104.14976	109.84545	92.75838	0
34	44.75185	67.53461	22.78276	-56.9569	10.57771	44.75185	33.36047	81.367	102.52242	106.59077	112.28646	95.19939	0
35	47.19286	67.53461	20.34175	-56.9569	13.01872	44.75185	33.36047	81.367	107.40444	104.14976	112.28646	95.19939	0
36	52.07488	67.53461	15.45973	-59.39791	17.90074	42.31084	30.91946	86.24902	112.28646	104.14976	112.28646	92.75838	0
37	56.9569	67.53461	10.57771	-61.83892	22.78276	39.86983	28.47845	88.69003	114.72747	101.70875	112.28646	92.75838	0
38	59.39791	67.53461	8.1367	-64.27993	25.22377	37.42882	26.03744	88.69003	117.16848	101.70875	114.72747	95.19939	0
39	64.27993	65.0936	0	-64.27993	32.5468	32.5468	23.59643	88.69003	114.72747	104.14976	117.16848	97.6404	0
40	66.72094	65.0936	-2.44101	-66.72094	34.98781	32.5468	18.71441	88.69003	114.72747	106.59077	119.60949	100.08141	0
41	66.72094	65.0936	-2.44101	-66.72094	34.98781	32.5468	11.39138	86.24902	112.28646	111.47279	124.49151	104.96343	0
42	71.60296	69.97562	-2.44101	-71.60296	37.42882	34.98781	5.69569	86.24902	112.28646	116.35481	129.37353	112.28646	0
43	71.60296	72.41663	0	-71.60296	34.98781	37.42882	0.81367	86.24902	112.28646	121.23683	134.25555	119.60949	0
44	76.48498	77.29865	0	-76.48498	37.42882	39.86983	-6.50936	83.80801	109.84545	121.23683	134.25555	122.0505	0
45	78.92599	79.73966	0	-78.92599	39.86983	39.86983	-16.2734	78.92599	109.84545	118.79582	136.69656	122.0505	0
46	81.367	82.18067	0	-81.367	39.86983	42.31084	-26.03744	71.60296	109.84545	113.9138	136.69656	122.0505	0
47	81.367	79.73966	-2.44101	-81.367	42.31084	39.86983	-33.36047	64.27993	104.96343	106.59077	131.81454	119.60949	0
48	81.367	74.85764	-7.32303	-78.92599	44.75185	34.98781	-38.24249	54.51589	100.08141	101.70875	126.93252	117.16848	0
49	78.92599	69.97562	-9.76404	-74.04397	44.75185	30.10579	-43.12451	44.75185	92.75838	96.82673	124.49151	114.72747	0
50	74.04397	67.53461	-7.32303	-71.60296	39.86983	30.10579	-43.12451	39.86983	85.43535	91.94471	122.0505	112.28646	0
51	71.60296	65.0936	-7.32303	-69.16195	39.86983	30.10579	-43.12451	37.42882	80.55333	91.94471	122.0505	112.28646	0
52	66.72094	60.21158	-7.32303	-64.27993	37.42882	27.66478	-38.24249	37.42882	80.55333	91.94471	122.0505	114.72747	0
53	69.16195	60.21158	-9.76404	-64.27993	39.86983	25.22377	-35.80148	39.86983	80.55333	96.82673	126.93252	117.16848	0
54	69.16195	60.21158	-9.76404	-64.27993	39.86983	25.22377	-33.36047	44.75185	80.55333	96.82673	126.93252	117.16848	0
55	76.48498	57.77057	-19.52808	-66.72094	47.19286	20.34175	-33.36047	47.19286	85.43535	91.94471	126.93252	117.16848	0
56	81.367	55.32956	-26.85111	-69.16195	54.51589	15.45973	-30.91946	49.63387	87.87636	89.5037	124.49151	114.72747	0
57	86.24902	50.44754	-36.61515	-69.16195	61.83892	8.1367	-30.91946	49.63387	87.87636	84.62168	122.0505	114.72747	0
58	93.57205	48.00653	-46.37919	-71.60296	69.16195	0.81367	-33.36047	47.19286	87.87636	84.62168	122.0505	112.28646	0
59	93.57205	45.56552	-48.8202	-69.16195	71.60296	-2.44101	-33.36047	47.19286	82.99434	82.18067	122.0505	112.28646	0
60	91.13104	43.12451	-48.8202	-66.72094	69.16195	-2.44101	-30.91946	44.75185	80.55333	82.18067	119.60949	112.28646	0
61	86.24902	40.6835	-46.37919	-64.27993	66.72094	-2.44101	-30.91946	42.31084	75.67131	82.18067	119.60949	112.28646	0
62	78.92599	38.24249	-41.49717	-59.39791	59.39791	-2.44101	-30.91946	39.86983	73.2303	82.18067	119.60949	112.28646	0
63	66.72094	33.36047	-34.17414	-49.63387	49.63387	0.81367	-30.91946	37.42882	70.78929	79.73966	114.72747	112.28646	0
64	56.9569	28.47845	-29.29212	-42.31084	42.31084	0.81367	-28.47845	37.42882	68.34828	77.29865	112.28646	107.40444	0
65	47.19286	21.15542	-26.85111	-34.98781	37.42882	-2.44101	-28.47845	37.42882	65.90727	72.41663	107.40444	100.08141	0
66	37.42882	16.2734	-21.96909	-27.66478	30.10579	-2.44101	-26.03744	37.42882	65.90727	65.0936	100.08141	92.75838	0
67	30.10579	11.39138	-19.52808	-20.34175	25.22377	-4.88202	-21.15542	37.42882	65.90727	60.21158	95.19939	85.43535	0
68	22.78276	6.50936	-17.08707	-15.45973	20.34175	-4.88202	-18.71441	37.42882	65.90727	60.21158	90.31737	80.55333	0
69	15.45973	4.06835	-12.20505	-10.57771	13.01872	-4.88202	-13.83239	37.42882	63.46626	60.21158	87.87636	78.11232	0
70	10.57771	1.62734	-9.76404	-5.69569	10.57771	-4.88202	-11.39138	37.42882	61.02525	57.77057	87.87636	75.67131	0
71	3.25468	-0.81367	-4.88202	-0.81367	3.25468	-2.44101	-8.95037	34.98781	58.58424	57.77057	85.43535	73.2303	0
72	-4.06835	-3.25468	0	4.06835	-1.62734	-2.44101	-6.50936	34.98781	56.14323	57.77057	82.99434	70.78929	0
73	-9.76404	-6.50936	2.44101	6.50936	-7.32303	-2.44101	-6.50936	34.98781	53.70222	57.77057	82.99434	70.78929	0
74	-9.76404	-6.50936	2.44101	6.50936	-7.32303	-2.44101	-8.95037	34.98781	51.26121	55.32956	78.11232	68.34828	0
75	-9.76404	-6.50936	2.44101	6.50936	-7.32303	-2.44101	-8.95037	32.5468	51.26121	50.44754	75.67131	63.46626	0
76	-9.76404	-6.50936	2.44101	6.50936	-7.32303	-2.44101	-8.95037	32.5468	51.26121	43.12451	70.78929	58.58424	0
77	-9.76404	-8.95037	0	6.50936	-7.32303	-4.88202	-11.39138	32.5468	51.26121	40.6835	70.78929	58.58424	0
78	-6.50936	-8.95037	-2.44101	6.50936	-4.06835	-4.88202	-11.39138	30.10579	51.26121	38.24249	68.34828	56.14323	0
79	-4.06835	-8.95037	-4.88202	6.50936	-1.62734	-7.32303	-11.39138	30.10579	48.8202	38.24249	68.34828	56.14323	0
80	-1.62734	-8.95037	-7.32303	4.06835	0.81367	-7.32303	-11.39138	27.66478	46.37919	38.24249	68.34828	53.70222	0
81	-6.50936	-11.39138	-4.88202	6.50936	-1.62734	-7.32303	-11.39138	25.22377	41.49717	38.24249	68.34828	53.70222	0
82	-9.76404	-13.83239	-4.88202	9.76404	-4.06835	-9.76404	-8.95037	25.22377	41.49717	38.24249	68.34828	53.70222	0
83	-12.20505	-13.83239	-2.44101	12.20505	-7.32303	-9.76404	-6.50936	25.22377	41.49717	40.6835	68.34828	56.14323	0
84	-14.64606	-16.2734	-2.44101	14.64606	-7.32303	-9.76404	-6.50936	27.66478	36.61515	35.80148	63.46626	53.70222	0
85	-14.64606	-16.2734	-2.44101	14.64606	-7.32303	-9.76404	-6.50936	27.66478	36.61515	33.36047	61.02525	48.8202	0
86	-14.64606	-18.71441	-4.88202	14.64606	-7.32303	-12.20505	-6.50936	27.66478	39.05616	28.47845	58.58424	46.37919	0
87	-12.20505	-18.71441	-7.32303	14.64606	-4.06835	-14.64606	-8.95037	27.66478	41.49717	26.03744	56.14323	46.37919	0
88	-9.76404	-18.71441	-9.76404	12.20505	-1.62734	-14.64606	-8.95037	27.66478	39.05616	23.59643	53.70222	43.93818	0
89	-9.76404	-21.15542	-12.20505	14.64606	0.81367	-17.08707	-8.95037	27.66478	39.05616	23.59643	53.70222	41.49717	0
90	-9.76404	-21.15542	-12.20505	14.64606	0.81367	-17.08707	-8.95037	27.66478	39.05616	23.59643	53.70222	41.49717	0
91	-9.76404	-21.15542	-12.20505	14.64606	0.81367	-17.08707	-6.50936	25.22377	36.61515	26.03744	53.70222	41.49717	0
92	-12.20505	-21.15542	-9.76404	14.64606	-1.62734	-17.08707	-6.50936	25.22377	36.61515	26.03744	53.70222	41.49717	0
93	-14.64606	-23.59643	-9.76404	17.08707	-4.06835	-17.08707	-6.50936	27.66478	34.17414	26.03744	53.70222	43.93818	0
94	-17.08707	-23.59643	-7.32303	19.52808	-7.32303	-17.08707	-4.06835	27.66478	34.17414	23.59643	53.70222	41.49717	0
95	-17.08707	-23.59643	-7.32303	19.52808	-7.32303	-17.08707	-4.06835	27.66478	34.17414	21.15542	51.26121	39.05616	0
96	-17.08707	-23.59643	-7.32303	19.52808	-7.32303	-17.08707	-4.06835	27.66478	34.17414	13.83239	48.8202	34.17414	0
97	-12.20505	-23.59643	-12.20505	17.08707	-1.62734	-19.52808	-6.50936	27.66478	34.17414	11.39138	46.37919	31.73313	0
98	-9.76404	-23.59643	-14.64606	14.64606	0.81367	-19.52808	-6.50936	25.22377	34.17414	11.39138	43.93818	31.73313	0
99	-9.76404	-23.59643	-14.64606	14.64606	0.81367	-19.52808	-6.50936	21.96909	31.73313	11.39138	43.93818	31.73313	0
100	-6.50936	-21.15542	-14.64606	12.20505	3.25468	-17.08707	-4.06835	21.96909	29.29212	11.39138	43.93818	31.73313	1000	P+0
101	-9.76404	-23.59643	-14.64606	14.64606	0.81367	-19.52808	-4.06835	21.96909	26.85111	11.39138	43.93818	31.73313	0
102	-12.20505	-28.47845	-17.08707	19.52808	0.81367	-24.4101	-4.06835	21.96909	24.4101	11.39138	43.93818	31.73313	0
103	-12.20505	-35.80148	-24.4101	21.96909	5.69569	-31.73313	-6.50936	21.96909	19.52808	8.95037	41.49717	31.73313	0
104	-9.76404	-45.56552	-36.61515	26.85111	13.01872	-41.49717	-11.39138	21.96909	14.64606	-0.81367	34.17414	26.85111	0
105	3.25468	-57.77057	-61.02525	26.85111	30.10579	-58.58424	-16.2734	21.96909	6.50936	-15.45973	21.96909	17.08707	0
106	17.90074	-77.29865	-95.19939	29.29212	54.51589	-85.43535	-21.15542	27.66478	1.62734	-33.36047	9.76404	4.88202	0
107	44.75185	-101.70875	-146.4606	26.85111	93.57205	-124.49151	-23.59643	37.42882	1.62734	-52.88855	-4.88202	-7.32303	0
108	74.04397	-126.11885	-200.16282	24.4101	135.06922	-163.54767	-26.03744	59.39791	1.62734	-67.53461	-14.64606	-17.08707	0
109	115.54114	-155.41097	-270.95211	19.52808	191.21245	-212.36787	-28.47845	86.24902	4.06835	-79.73966	-21.96909	-22.78276	0
110	159.47932	-182.26208	-341.7414	9.76404	249.79669	-261.18807	-33.36047	120.42316	17.08707	-79.73966	-14.64606	-22.78276	0
111	205.85851	-209.11319	-414.9717	1.62734	308.38093	-312.44928	-45.56552	157.03831	39.05616	-65.0936	4.88202	-7.32303	0
112	259.56073	-223.75925	-483.31998	-17.90074	369.40618	-353.94645	-62.65259	193.65346	75.67131	-30.91946	46.37919	21.96909	0
113	323.02699	-231.08228	-554.10927	-47.19286	437.75446	-393.00261	-91.94471	222.94558	117.16848	18.71441	107.40444	65.90727	0
114	398.6983	-228.64127	-627.33957	-86.24902	510.98476	-427.17675	-126.11885	252.2377	173.31171	87.06269	190.39878	129.37353	0
115	481.69264	-211.5542	-693.24684	-135.06922	586.65607	-451.58685	-170.05703	264.44275	231.89595	170.05703	288.03918	202.60383	0
116	569.569	-182.26208	-751.83108	-193.65346	659.88637	-466.23291	-226.20026	257.11972	290.48019	262.81541	400.32564	288.03918	0
117	657.44536	-140.76491	-798.21027	-259.56073	725.79364	-468.67392	-289.66652	232.70962	344.18241	370.21985	529.69917	388.12059	0
118	733.11667	-84.62168	-817.73835	-325.468	774.61384	-451.58685	-353.13278	191.21245	393.00261	492.27035	666.39573	495.52503	0
119	784.37788	-18.71441	-803.09229	-384.05224	791.70091	-410.08968	-406.835	147.27427	441.82281	626.5259	812.85633	605.37048	0
120	801.46495	55.32956	-746.94906	-427.99042	774.61384	-346.62342	-450.77318	88.69003	483.31998	765.66347	959.31693	712.77492	0
121	777.05485	135.88289	-641.98563	-457.28254	708.70657	-253.86504	-477.62429	14.64606	507.73008	895.037	1088.69046	807.97431	0
122	698.94253	226.20026	-473.55594	-462.16456	586.65607	-124.49151	-482.50631	-70.78929	512.6121	1004.88245	1186.33086	878.7636	0
123	572.01001	316.51763	-256.30605	-445.07749	413.34436	30.10579	-462.97823	-163.54767	497.96604	1085.43578	1240.03308	920.26077	0
124	410.90335	397.07096	-14.64606	-403.58032	213.18154	191.21245	-433.68611	-275.83413	446.70483	1114.7279	1240.03308	917.81976	0
125	235.15063	465.41924	230.26861	-349.8781	3.25468	347.43709	-404.39399	-412.53069	349.06443	1078.11275	1176.56682	868.99956	0
126	59.39791	519.12146	459.72355	-288.85285	-200.16282	489.01567	-382.4249	-566.31432	207.48585	975.59033	1056.95733	786.00522	0
127	-97.6404	553.2956	650.12233	-227.8276	-373.47453	601.30213	-370.21985	-720.09795	31.73313	809.60165	886.08663	676.15977	0
128	-227.01393	565.50065	791.70091	-169.24336	-510.17109	676.97344	-370.21985	-861.67653	-154.5973	611.87984	693.24684	551.66826	0
129	-312.44928	558.17762	869.81323	-122.86417	-590.72442	713.58859	-382.4249	-978.84501	-337.67305	394.62995	490.64301	422.29473	0
130	-363.71049	533.76752	896.66434	-86.24902	-629.78058	713.58859	-399.51197	-1056.95733	-498.77971	182.26208	295.36221	297.80322	0
131	-383.23857	497.15237	879.57727	-56.9569	-632.22159	686.73748	-416.59904	-1088.69046	-613.50718	-3.25468	124.49151	190.39878	0
132	-383.23857	453.21419	835.63909	-34.98781	-610.2525	642.7993	-426.36308	-1076.48541	-679.41445	-143.20592	-12.20505	102.52242	0
133	-368.59251	404.39399	772.17283	-17.90074	-571.19634	586.65607	-428.80409	-1027.66521	-701.38354	-243.28733	-113.10013	31.73313	0
134	-344.18241	358.0148	701.38354	-8.1367	-522.37614	528.07183	-426.36308	-954.43491	-684.29647	-299.43056	-183.88942	-20.34175	0
135	-314.89029	316.51763	630.59425	-0.81367	-473.55594	471.9286	-409.27601	-864.11754	-637.91728	-323.84066	-222.94558	-52.07488	0
136	-285.59817	277.46147	562.24597	4.06835	-424.73574	418.22638	-382.4249	-766.47714	-574.45102	-321.39965	-237.59164	-71.60296	0
137	-258.74706	248.16935	506.10274	4.06835	-383.23857	376.72921	-343.36874	-666.39573	-503.66173	-309.1946	-235.15063	-81.367	0
138	-234.33696	221.31824	454.84153	6.50936	-344.18241	337.67305	-299.43056	-571.19634	-437.75446	-287.22551	-225.38659	-83.80801	0
139	-212.36787	196.90814	408.46234	6.50936	-310.00827	301.0579	-253.05137	-480.87897	-374.2882	-260.3744	-210.74053	-83.80801	0
140	-197.72181	172.49804	369.40618	12.20505	-283.15716	269.32477	-206.67218	-400.32564	-315.70396	-233.52329	-191.21245	-83.80801	0
141	-185.51676	150.52895	335.23204	17.08707	-261.18807	242.47366	-165.17501	-329.53635	-264.44275	-206.67218	-174.12538	-81.367	0
142	-173.31171	128.55986	301.0579	21.96909	-236.77797	213.18154	-131.00087	-268.5111	-220.50457	-182.26208	-159.47932	-78.92599	0
143	-163.54767	111.47279	274.20679	24.4101	-219.6909	191.21245	-101.70875	-217.24989	-183.88942	-162.734	-144.83326	-74.04397	0
144	-153.78363	94.38572	247.35568	29.29212	-200.16282	169.24336	-79.73966	-178.19373	-157.03831	-148.08794	-132.62821	-74.04397	0
145	-144.01959	79.73966	222.94558	31.73313	-183.07575	149.71528	-62.65259	-144.01959	-130.1872	-135.88289	-122.86417	-74.04397	0
146	-131.81454	67.53461	198.53548	31.73313	-165.98868	132.62821	-45.56552	-114.72747	-108.21811	-126.11885	-115.54114	-74.04397	0
147	-119.60949	55.32956	174.12538	31.73313	-146.4606	113.10013	-33.36047	-90.31737	-86.24902	-113.9138	-105.7771	-71.60296	0
148	-107.40444	43.12451	149.71528	31.73313	-129.37353	96.01306	-23.59643	-70.78929	-69.16195	-101.70875	-93.57205	-69.16195	0
149	-95.19939	33.36047	127.74619	29.29212	-112.28646	78.92599	-11.39138	-51.26121	-54.51589	-89.5037	-83.80801	-64.27993	0
150	-85.43535	21.15542	105.7771	31.73313	-95.19939	61.83892	0.81367	-31.73313	-39.86983	-74.85764	-69.16195	-59.39791	0
151	-78.11232	13.83239	91.13104	31.73313	-85.43535	52.07488	8.95037	-14.64606	-25.22377	-60.21158	-59.39791	-52.07488	0
152	-70.78929	8.95037	78.92599	29.29212	-75.67131	42.31084	18.71441	2.44101	-13.01872	-45.56552	-47.19286	-42.31084	0
153	-65.90727	6.50936	71.60296	29.29212	-68.34828	37.42882	26.03744	14.64606	-3.25468	-30.91946	-37.42882	-34.98781	0
154	-63.46626	4.06835	66.72094	29.29212	-65.90727	34.98781	33.36047	27.66478	6.50936	-23.59643	-32.5468	-32.5468	0
155	-58.58424	4.06835	61.83892	26.85111	-61.02525	32.5468	38.24249	37.42882	14.64606	-17.90074	-26.85111	-32.5468	0
156	-56.14323	4.06835	59.39791	24.4101	-58.58424	30.10579	43.12451	44.75185	26.85111	-13.01872	-21.96909	-32.5468	0
157	-51.26121	6.50936	56.9569	21.96909	-53.70222	30.10579	43.12451	49.63387	34.17414	-10.57771	-19.52808	-32.5468	0
158	-46.37919	6.50936	52.07488	19.52808	-48.8202	27.66478	43.12451	52.07488	39.05616	-5.69569	-19.52808	-32.5468	0
159	-43.93818	8.95037	52.07488	17.08707	-48.8202	30.10579	43.12451	52.07488	39.05616	-3.25468	-17.08707	-32.5468	0
160	-43.93818	11.39138	54.51589	14.64606	-48.8202	32.5468	43.12451	52.07488	39.05616	1.62734	-17.08707	-32.5468	0
161	-46.37919	13.83239	59.39791	14.64606	-53.70222	34.98781	43.12451	52.07488	39.05616	4.06835	-14.64606	-30.10579	0
162	-51.26121	16.2734	66.72094	17.08707	-58.58424	39.86983	43.12451	52.07488	39.05616	8.95037	-12.20505	-27.66478	0
163	-51.26121	18.71441	69.16195	14.64606	-61.02525	42.31084	43.12451	52.07488	41.49717	16.2734	-12.20505	-22.78276	0
164	-56.14323	21.15542	76.48498	17.08707	-65.90727	47.19286	43.12451	54.51589	41.49717	16.2734	-9.76404	-22.78276	0
165	-56.14323	23.59643	78.92599	14.64606	-68.34828	49.63387	43.12451	56.9569	43.93818	18.71441	-7.32303	-22.78276	0
166	-56.14323	26.03744	81.367	14.64606	-68.34828	52.07488	43.12451	56.9569	48.8202	16.2734	-7.32303	-25.22377	0
167	-53.70222	28.47845	81.367	12.20505	-68.34828	54.51589	43.12451	59.39791	53.70222	18.71441	-4.88202	-25.22377	0
168	-53.70222	30.91946	83.80801	9.76404	-68.34828	56.9569	45.56552	61.83892	56.14323	21.15542	-4.88202	-22.78276	0
169	-51.26121	30.91946	81.367	9.76404	-65.90727	54.51589	45.56552	61.83892	58.58424	23.59643	-2.44101	-22.78276	0
170	-51.26121	33.36047	83.80801	6.50936	-68.34828	56.9569	48.00653	61.83892	58.58424	28.47845	-2.44101	-20.34175	0
171	-53.70222	33.36047	86.24902	9.76404	-70.78929	59.39791	50.44754	61.83892	58.58424	30.91946	0	-20.34175	0
172	-56.14323	35.80148	91.13104	9.76404	-73.2303	61.83892	50.44754	61.83892	58.58424	35.80148	2.44101	-14.64606	0
173	-58.58424	35.80148	93.57205	9.76404	-75.67131	64.27993	52.88855	64.27993	58.58424	40.6835	2.44101	-12.20505	0
174	-63.46626	35.80148	98.45407	12.20505	-80.55333	66.72094	52.88855	64.27993	58.58424	40.6835	2.44101	-12.20505	0
175	-65.90727	35.80148	100.89508	14.64606	-82.99434	66.72094	52.88855	64.27993	61.02525	40.6835	2.44101	-14.64606	0
176	-65.90727	35.80148	100.89508	14.64606	-82.99434	66.72094	50.44754	66.72094	63.46626	40.6835	2.44101	-20.34175	0
177	-63.46626	38.24249	100.89508	12.20505	-82.99434	69.16195	50.44754	66.72094	68.34828	40.6835	2.44101	-20.34175	0
178	-61.02525	38.24249	98.45407	9.76404	-80.55333	66.72094	50.44754	66.72094	70.78929	40.6835	2.44101	-20.34175	0
179	-61.02525	40.6835	100.89508	9.76404	-80.55333	69.16195	50.44754	66.72094	68.34828	43.12451	2.44101	-20.34175	0
180	-61.02525	40.6835	100.89508	9.76404	-80.55333	69.16195	50.44754	64.27993	65.90727	45.56552	4.88202	-20.34175	0
181	-63.46626	43.12451	105.7771	9.76404	-85.43535	74.04397	52.88855	64.27993	63.46626	48.00653	7.32303	-17.08707	0
182	-65.90727	45.56552	110.65912	9.76404	-87.87636	76.48498	52.88855	64.27993	63.46626	52.88855	9.76404	-12.20505	0
183	-68.34828	45.56552	113.10013	9.76404	-90.31737	78.92599	52.88855	66.72094	63.46626	55.32956	9.76404	-9.76404	0
184	-70.78929	45.56552	115.54114	12.20505	-92.75838	78.92599	52.88855	66.72094	61.02525	55.32956	9.76404	-9.76404	0
185	-70.78929	48.00653	117.98215	9.76404	-95.19939	81.367	52.88855	66.72094	63.46626	52.88855	9.76404	-9.76404	0
186	-73.2303	48.00653	120.42316	12.20505	-97.6404	83.80801	55.32956	69.16195	68.34828	50.44754	9.76404	-12.20505	0
187	-68.34828	50.44754	117.98215	6.50936	-92.75838	83.80801	55.32956	69.16195	73.2303	48.00653	9.76404	-12.20505	0
188	-68.34828	50.44754	117.98215	6.50936	-92.75838	83.80801	55.32956	69.16195	75.67131	48.00653	9.76404	-12.20505	0
189	-68.34828	50.44754	117.98215	6.50936	-92.75838	83.80801	55.32956	69.16195	73.2303	50.44754	9.76404	-12.20505	0
190	-68.34828	50.44754	117.98215	6.50936	-92.75838	83.80801	55.32956	69.16195	70.78929	52.88855	12.20505	-12.20505	0
191	-68.34828	50.44754	117.98215	6.50936	-92.75838	83.80801	55.32956	69.16195	68.34828	55.32956	14.64606	-9.76404	0
192	-70.78929	50.44754	120.42316	9.76404	-95.19939	83.80801	57.77057	69.16195	68.34828	60.21158	14.64606	-7.32303	0
193	-73.2303	52.88855	125.30518	9.76404	-100.08141	88.69003	57.77057	69.16195	68.34828	62.65259	17.08707	-7.32303	0
194	-78.11232	52.88855	130.1872	12.20505	-104.96343	91.13104	57.77057	69.16195	65.90727	62.65259	17.08707	-7.32303	0
195	-78.11232	52.88855	130.1872	12.20505	-104.96343	91.13104	57.77057	69.16195	68.34828	60.21158	17.08707	-9.76404	0
196	-78.11232	52.88855	130.1872	12.20505	-104.96343	91.13104	57.77057	69.16195	70.78929	57.77057	14.64606	-12.20505	0
197	-78.11232	52.88855	130.1872	12.20505	-104.96343	91.13104	57.77057	69.16195	75.67131	55.32956	14.64606	-14.64606	0
198	-78.11232	52.88855	130.1872	12.20505	-104.96343	91.13104	57.77057	69.16195	75.67131	55.32956	14.64606	-12.20505	0
199	-78.11232	52.88855	130.1872	12.20505	-104.96343	91.13104	57.77057	69.16195	73.2303	55.32956	14.64606	-9.76404	0
200	-78.11232	52.88855	130.1872	12.20505	-104.96343	91.13104	57.77057	66.72094	73.2303	57.77057	14.64606	-9.76404	0
201	-78.11232	52.88855	130.1872	12.20505	-104.96343	91.13104	60.21158	66.72094	70.78929	60.21158	17.08707	-4.88202	0
202	-82.99434	52.88855	135.06922	14.64606	-109.84545	93.57205	60.21158	66.72094	68.34828	62.65259	17.08707	0	0
203	-82.99434	52.88855	135.06922	14.64606	-109.84545	93.57205	60.21158	69.16195	68.34828	65.0936	19.52808	2.44101	0
204	-85.43535	55.32956	139.95124	14.64606	-112.28646	96.01306	60.21158	71.60296	65.90727	65.0936	19.52808	2.44101	0
205	-85.43535	57.77057	142.39225	12.20505	-114.72747	98.45407	60.21158	71.60296	68.34828	62.65259	17.08707	0	0
206	-82.99434	57.77057	139.95124	12.20505	-112.28646	98.45407	62.65259	74.04397	70.78929	62.65259	17.08707	-2.44101	0
207	-80.55333	55.32956	135.06922	12.20505	-107.40444	93.57205	62.65259	74.04397	73.2303	60.21158	17.08707	-7.32303	0
208	-78.11232	55.32956	132.62821	9.76404	-104.96343	93.57205	62.65259	76.48498	75.67131	60.21158	14.64606	-7.32303	0
209	-78.11232	55.32956	132.62821	9.76404	-104.96343	93.57205	62.65259	76.48498	73.2303	60.21158	17.08707	-7.32303	0
210	-78.11232	55.32956	132.62821	9.76404	-104.96343	93.57205	62.65259	76.48498	70.78929	60.21158	17.08707	-7.32303	0
211	-78.11232	55.32956	132.62821	9.76404	-104.96343	93.57205	65.0936	76.48498	65.90727	62.65259	17.08707	-7.32303	0
212	-78.11232	57.77057	135.06922	9.76404	-107.40444	96.01306	65.0936	76.48498	65.90727	65.0936	19.52808	-7.32303	0
213	-80.55333	57.77057	137.51023	9.76404	-109.84545	96.01306	65.0936	76.48498	63.46626	65.0936	19.52808	-4.88202	0
214	-80.55333	57.77057	137.51023	9.76404	-109.84545	96.01306	65.0936	76.48498	61.02525	62.65259	17.08707	-7.32303	0
215	-80.55333	57.77057	137.51023	9.76404	-109.84545	96.01306	65.0936	76.48498	61.02525	57.77057	14.64606	-9.76404	0
216	-80.55333	57.77057	137.51023	9.76404	-109.84545	96.01306	65.0936	78.92599	63.46626	52.88855	12.20505	-14.64606	0
217	-80.55333	57.77057	137.51023	9.76404	-109.84545	96.01306	65.0936	78.92599	65.90727	48.00653	9.76404	-20.34175	0
218	-80.55333	55.32956	135.06922	12.20505	-107.40444	93.57205	65.0936	78.92599	65.90727	48.00653	9.76404	-20.34175	0
219	-80.55333	55.32956	135.06922	12.20505	-107.40444	93.57205	65.0936	78.92599	65.90727	45.56552	9.76404	-20.34175	0
220	-80.55333	52.88855	132.62821	12.20505	-107.40444	91.13104	65.0936	76.48498	63.46626	45.56552	7.32303	-22.78276	0
221	-82.99434	52.88855	135.06922	14.64606	-109.84545	93.57205	65.0936	76.48498	58.58424	43.12451	7.32303	-22.78276	0
222	-85.43535	52.88855	137.51023	14.64606	-112.28646	93.57205	65.0936	78.92599	58.58424	45.56552	7.32303	-20.34175	0
223	-87.87636	50.44754	137.51023	17.08707	-112.28646	93.57205	67.53461	78.92599	58.58424	45.56552	4.88202	-20.34175	0
224	-87.87636	50.44754	137.51023	17.08707	-112.28646	93.57205	67.53461	81.367	56.14323	45.56552	2.44101	-20.34175	0
225	-87.87636	48.00653	135.06922	19.52808	-112.28646	91.13104	69.97562	83.80801	56.14323	40.6835	-2.44101	-22.78276	0
226	-85.43535	48.00653	132.62821	17.08707	-109.84545	88.69003	72.41663	86.24902	58.58424	35.80148	-4.88202	-27.66478	0
227	-80.55333	48.00653	127.74619	14.64606	-104.96343	86.24902	74.85764	88.69003	61.02525	33.36047	-7.32303	-32.5468	0
228	-78.11232	48.00653	125.30518	14.64606	-102.52242	86.24902	74.85764	91.13104	61.02525	33.36047	-9.76404	-34.98781	0
229	-78.11232	43.12451	120.42316	17.08707	-100.08141	81.367	77.29865	91.13104	61.02525	30.91946	-9.76404	-37.42882	0
230	-78.11232	43.12451	120.42316	17.08707	-100.08141	81.367	79.73966	91.13104	56.14323	28.47845	-14.64606	-39.86983	0
231	-80.55333	40.6835	120.42316	19.52808	-100.08141	78.92599	79.73966	93.57205	53.70222	28.47845	-14.64606	-39.86983	0
232	-85.43535	38.24249	122.86417	21.96909	-104.96343	78.92599	82.18067	93.57205	48.8202	28.47845	-17.08707	-39.86983	0
233	-87.87636	35.80148	122.86417	24.4101	-104.96343	78.92599	82.18067	93.57205	46.37919	28.47845	-21.96909	-42.31084	0
234	-92.75838	30.91946	122.86417	29.29212	-107.40444	76.48498	84.62168	96.01306	43.93818	26.03744	-26.85111	-44.75185	0
235	-92.75838	28.47845	120.42316	31.73313	-107.40444	74.04397	87.06269	96.01306	43.93818	18.71441	-32.5468	-52.07488	0
236	-92.75838	23.59643	115.54114	34.17414	-104.96343	69.16195	87.06269	96.01306	43.93818	11.39138	-37.42882	-61.83892	0
237	-92.75838	18.71441	110.65912	36.61515	-102.52242	64.27993	89.5037	98.45407	43.93818	4.06835	-42.31084	-66.72094	0
238	-90.31737	16.2734	105.7771	36.61515	-97.6404	59.39791	91.94471	98.45407	41.49717	-0.81367	-47.19286	-71.60296	0
239	-90.31737	13.83239	103.33609	36.61515	-97.6404	56.9569	94.38572	98.45407	39.05616	-5.69569	-52.07488	-76.48498	0
240	-90.31737	11.39138	100.89508	39.05616	-95.19939	54.51589	96.82673	98.45407	31.73313	-10.57771	-56.9569	-78.92599	0
241	-92.75838	6.50936	98.45407	41.49717	-95.19939	52.07488	99.26774	96.01306	26.85111	-15.45973	-61.83892	-81.367	0
242	-95.19939	4.06835	98.45407	43.93818	-97.6404	49.63387	101.70875	96.01306	21.96909	-17.90074	-66.72094	-83.80801	0
243	-97.6404	-0.81367	96.01306	48.8202	-97.6404	47.19286	104.14976	96.01306	17.08707	-23.59643	-71.60296	-86.24902	0
244	-102.52242	-6.50936	96.01306	53.70222	-100.08141	44.75185	104.14976	96.01306	9.76404	-28.47845	-81.367	-93.57205	0
245	-102.52242	-11.39138	91.13104	56.14323	-97.6404	39.86983	104.14976	96.01306	6.50936	-38.24249	-91.13104	-103.33609	0
246	-102.52242	-18.71441	83.80801	58.58424	-95.19939	32.5468	106.59077	93.57205	4.06835	-48.00653	-100.89508	-113.10013	0
247	-102.52242	-23.59643	78.92599	61.02525	-92.75838	27.66478	106.59077	93.57205	1.62734	-57.77057	-108.21811	-120.42316	0
248	-100.08141	-28.47845	71.60296	63.46626	-87.87636	20.34175	109.03178	91.13104	-0.81367	-67.53461	-117.98215	-127.74619	0
249	-97.6404	-35.80148	61.83892	65.90727	-80.55333	13.01872	111.47279	88.69003	-10.57771	-74.85764	-125.30518	-135.06922	0
250	-97.6404	-40.6835	56.9569	68.34828	-78.11232	8.1367	111.47279	86.24902	-17.90074	-84.62168	-132.62821	-139.95124	0
251	-102.52242	-45.56552	56.9569	73.2303	-80.55333	5.69569	113.9138	81.367	-27.66478	-91.94471	-142.39225	-147.27427	0
252	-104.96343	-52.88855	52.07488	78.11232	-80.55333	-2.44101	113.9138	76.48498	-37.42882	-99.26774	-149.71528	-152.15629	0
253	-107.40444	-57.77057	49.63387	80.55333	-80.55333	-4.88202	113.9138	74.04397	-44.75185	-106.59077	-159.47932	-157.03831	0
254	-109.84545	-65.0936	44.75185	85.43535	-78.11232	-12.20505	113.9138	69.16195	-54.51589	-118.79582	-171.68437	-164.36134	0
255	-112.28646	-72.41663	39.86983	90.31737	-78.11232	-17.08707	113.9138	64.27993	-61.83892	-133.44188	-186.33043	-176.56639	0
256	-112.28646	-79.73966	32.5468	95.19939	-73.2303	-24.4101	113.9138	59.39791	-69.16195	-148.08794	-198.53548	-188.77144	0
257	-107.40444	-87.06269	20.34175	95.19939	-65.90727	-34.17414	113.9138	56.9569	-74.04397	-160.29299	-213.18154	-198.53548	0
258	-107.40444	-91.94471	15.45973	97.6404	-63.46626	-39.05616	113.9138	49.63387	-83.80801	-170.05703	-225.38659	-208.29952	0
259	-104.96343	-101.70875	2.44101	102.52242	-56.14323	-51.26121	113.9138	44.75185	-93.57205	-179.82107	-235.15063	-218.06356	0
260	-107.40444	-109.03178	-2.44101	107.40444	-53.70222	-56.14323	111.47279	34.98781	-105.7771	-192.02612	-247.35568	-227.8276	0
261	-109.84545	-116.35481	-7.32303	112.28646	-53.70222	-63.46626	109.03178	27.66478	-117.98215	-201.79016	-259.56073	-232.70962	0
262	-109.84545	-121.23683	-12.20505	114.72747	-51.26121	-68.34828	109.03178	21.96909	-130.1872	-211.5542	-269.32477	-240.03265	0
263	-112.28646	-128.55986	-17.08707	119.60949	-48.8202	-73.2303	106.59077	12.20505	-142.39225	-221.31824	-281.52982	-247.35568	0
264	-114.72747	-138.3239	-24.4101	124.49151	-46.37919	-82.99434	104.14976	4.88202	-154.5973	-233.52329	-296.17588	-254.67871	1500	QRS+0
265	-112.28646	-145.64693	-34.17414	126.93252	-41.49717	-90.31737	101.70875	-2.44101	-164.36134	-253.05137	-310.82194	-266.88376	0
266	-112.28646	-152.96996	-41.49717	131.81454	-36.61515	-97.6404	99.26774	-9.76404	-174.12538	-270.13844	-325.468	-279.08881	0
267	-107.40444	-160.29299	-53.70222	131.81454	-29.29212	-107.40444	96.82673	-17.08707	-181.44841	-284.7845	-337.67305	-291.29386	0
268	-104.96343	-170.05703	-65.90727	136.69656	-21.96909	-119.60949	94.38572	-24.4101	-191.21245	-299.43056	-349.8781	-301.0579	0
269	-100.08141	-174.93905	-75.67131	136.69656	-14.64606	-126.93252	91.94471	-34.17414	-203.4175	-311.63561	-362.08315	-310.82194	0
270	-100.08141	-182.26208	-82.99434	139.13757	-9.76404	-134.25555	87.06269	-43.93818	-218.06356	-323.84066	-371.84719	-318.14497	0
271	-100.08141	-189.58511	-90.31737	144.01959	-7.32303	-141.57858	84.62168	-56.14323	-230.26861	-336.04571	-381.61123	-325.468	0
272	-100.08141	-194.46713	-95.19939	146.4606	-4.06835	-146.4606	79.73966	-65.90727	-242.47366	-343.36874	-388.93426	-330.35002	0
273	-102.52242	-201.79016	-100.08141	151.34262	-1.62734	-151.34262	74.85764	-73.2303	-254.67871	-353.13278	-398.6983	-335.23204	0
274	-102.52242	-206.67218	-104.96343	153.78363	0.81367	-156.22464	69.97562	-82.99434	-266.88376	-365.33783	-410.90335	-340.11406	0
275	-97.6404	-213.99521	-117.16848	153.78363	8.1367	-165.98868	67.53461	-90.31737	-274.20679	-377.54288	-420.66739	-349.8781	0
276	-95.19939	-218.87723	-124.49151	156.22464	13.01872	-173.31171	62.65259	-97.6404	-279.08881	-389.74793	-430.43143	-359.64214	0
277	-85.43535	-223.75925	-139.13757	153.78363	25.22377	-183.07575	60.21158	-102.52242	-283.97083	-401.95298	-440.19547	-364.52416	0
278	-78.11232	-228.64127	-151.34262	151.34262	34.98781	-190.39878	55.32956	-109.84545	-288.85285	-409.27601	-447.5185	-369.40618	0
279	-73.2303	-231.08228	-158.66565	151.34262	42.31084	-195.2808	50.44754	-114.72747	-298.61689	-416.59904	-452.40052	-371.84719	0
280	-65.90727	-233.52329	-168.42969	148.90161	49.63387	-202.60383	48.00653	-122.0505	-305.93992	-421.48106	-454.84153	-374.2882	0
281	-63.46626	-238.40531	-175.75272	148.90161	54.51589	-207.48585	40.6835	-129.37353	-313.26295	-426.36308	-457.28254	-374.2882	0
282	-63.46626	-240.84632	-178.19373	151.34262	56.9569	-209.92686	35.80148	-134.25555	-318.14497	-428.80409	-459.72355	-374.2882	0
283	-61.02525	-243.28733	-183.07575	151.34262	59.39791	-214.80888	30.91946	-139.13757	-323.02699	-428.80409	-459.72355	-371.84719	0
284	-58.58424	-245.72834	-187.95777	151.34262	64.27993	-217.24989	23.59643	-144.01959	-327.90901	-433.68611	-462.16456	-371.84719	0
285	-53.70222	-245.72834	-192.83979	148.90161	69.16195	-219.6909	18.71441	-146.4606	-327.90901	-436.12712	-464.60557	-374.2882	0
286	-48.8202	-248.16935	-200.16282	146.4606	74.04397	-224.57292	13.83239	-146.4606	-323.02699	-441.00914	-464.60557	-374.2882	0
287	-41.49717	-248.16935	-207.48585	144.01959	81.367	-229.45494	11.39138	-146.4606	-318.14497	-441.00914	-462.16456	-374.2882	0
288	-31.73313	-245.72834	-214.80888	136.69656	91.13104	-231.89595	8.95037	-144.01959	-315.70396	-441.00914	-459.72355	-369.40618	0
289	-24.4101	-240.84632	-217.24989	131.81454	96.01306	-229.45494	5.69569	-141.57858	-313.26295	-433.68611	-452.40052	-364.52416	0
290	-19.52808	-238.40531	-219.6909	126.93252	98.45407	-229.45494	5.69569	-141.57858	-310.82194	-428.80409	-445.07749	-357.20113	0
291	-17.08707	-235.9643	-219.6909	124.49151	100.89508	-229.45494	0.81367	-141.57858	-310.82194	-423.92207	-435.31345	-347.43709	0
292	-17.08707	-231.08228	-214.80888	122.0505	98.45407	-224.57292	-1.62734	-141.57858	-305.93992	-414.15803	-425.54941	-337.67305	0
293	-14.64606	-228.64127	-214.80888	119.60949	98.45407	-222.13191	-4.06835	-141.57858	-301.0579	-406.835	-418.22638	-327.90901	0
294	-12.20505	-226.20026	-214.80888	117.16848	100.89508	-222.13191	-8.95037	-136.69656	-298.61689	-399.51197	-408.46234	-320.58598	0
295	-9.76404	-221.31824	-212.36787	114.72747	100.89508	-217.24989	-11.39138	-134.25555	-288.85285	-394.62995	-401.13931	-313.26295	0
296	-6.50936	-218.87723	-212.36787	112.28646	100.89508	-214.80888	-13.83239	-129.37353	-279.08881	-387.30692	-391.37527	-308.38093	0
297	0.81367	-211.5542	-212.36787	104.96343	105.7771	-212.36787	-16.2734	-124.49151	-264.44275	-379.98389	-379.17022	-298.61689	0
298	5.69569	-204.23117	-209.92686	97.6404	105.7771	-207.48585	-18.71441	-119.60949	-254.67871	-367.77884	-366.96517	-288.85285	0
299	10.57771	-196.90814	-207.48585	92.75838	108.21811	-202.60383	-18.71441	-114.72747	-244.91467	-355.57379	-352.31911	-279.08881	0
300	15.45973	-189.58511	-205.04484	85.43535	108.21811	-197.72181	-21.15542	-109.84545	-237.59164	-340.92773	-337.67305	-266.88376	0
301	15.45973	-182.26208	-197.72181	82.99434	105.7771	-190.39878	-21.15542	-104.96343	-230.26861	-326.28167	-323.02699	-252.2377	0
302	15.45973	-172.49804	-187.95777	78.11232	100.89508	-180.63474	-23.59643	-102.52242	-220.50457	-309.1946	-308.38093	-237.59164	0
303	17.90074	-162.734	-180.63474	70.78929	98.45407	-170.8707	-23.59643	-97.6404	-213.18154	-292.10753	-291.29386	-222.94558	0
304	17.90074	-155.41097	-173.31171	68.34828	93.57205	-163.54767	-26.03744	-92.75838	-203.4175	-279.90248	-276.6478	-210.74053	0
305	17.90074	-148.08794	-165.98868	63.46626	91.13104	-156.22464	-26.03744	-87.87636	-193.65346	-267.69743	-264.44275	-203.4175	0
306	20.34175	-140.76491	-161.10666	58.58424	88.69003	-151.34262	-28.47845	-82.99434	-181.44841	-257.93339	-252.2377	-193.65346	0
307	22.78276	-135.88289	-158.66565	56.14323	88.69003	-146.4606	-28.47845	-78.11232	-166.80235	-245.72834	-240.03265	-183.88942	0
308	25.22377	-128.55986	-153.78363	51.26121	88.69003	-141.57858	-28.47845	-73.2303	-157.03831	-233.52329	-227.8276	-171.68437	0
309	25.22377	-121.23683	-146.4606	46.37919	83.80801	-134.25555	-28.47845	-68.34828	-149.71528	-221.31824	-213.18154	-159.47932	0
310	25.22377	-116.35481	-141.57858	43.93818	81.367	-129.37353	-28.47845	-65.90727	-142.39225	-206.67218	-200.97649	-149.71528	0
311	25.22377	-109.03178	-134.25555	41.49717	78.92599	-122.0505	-26.03744	-63.46626	-135.06922	-194.46713	-186.33043	-137.51023	0
312	22.78276	-104.14976	-126.93252	39.05616	74.04397	-114.72747	-26.03744	-58.58424	-130.1872	-182.26208	-174.12538	-125.30518	0
313	22.78276	-96.82673	-119.60949	36.61515	69.16195	-107.40444	-26.03744	-56.14323	-122.86417	-170.05703	-159.47932	-115.54114	0
314	20.34175	-94.38572	-114.72747	36.61515	66.72094	-104.96343	-26.03744	-51.26121	-115.54114	-157.85198	-149.71528	-105.7771	0
315	20.34175	-89.5037	-109.84545	34.17414	64.27993	-100.08141	-23.59643	-48.8202	-108.21811	-150.52895	-137.51023	-98.45407	0
316	20.34175	-84.62168	-104.96343	31.73313	61.83892	-95.19939	-23.59643	-41.49717	-98.45407	-140.76491	-127.74619	-91.13104	0
317	22.78276	-82.18067	-104.96343	29.29212	61.83892	-92.75838	-21.15542	-36.61515	-86.24902	-133.44188	-117.98215	-83.80801	0
318	22.78276	-79.73966	-102.52242	26.85111	61.83892	-90.31737	-21.15542	-31.73313	-78.92599	-121.23683	-105.7771	-76.48498	0
319	20.34175	-77.29865	-97.6404	26.85111	56.9569	-87.87636	-18.71441	-26.85111	-71.60296	-111.47279	-98.45407	-69.16195	0
320	20.34175	-74.85764	-95.19939	26.85111	56.9569	-85.43535	-18.71441	-24.4101	-66.72094	-101.70875	-91.13104	-61.83892	0
321	17.90074	-69.97562	-87.87636	24.4101	52.07488	-78.11232	-16.2734	-24.4101	-64.27993	-94.38572	-83.80801	-56.9569	0
322	17.90074	-65.0936	-82.99434	21.96909	49.63387	-73.2303	-16.2734	-21.96909	-56.9569	-84.62168	-76.48498	-52.07488	0
323	17.90074	-62.65259	-80.55333	21.96909	47.19286	-70.78929	-13.83239	-21.96909	-52.07488	-77.29865	-69.16195	-49.63387	0
324	17.90074	-57.77057	-75.67131	19.52808	44.75185	-65.90727	-13.83239	-21.96909	-47.19286	-67.53461	-61.83892	-44.75185	0
325	22.78276	-52.88855	-75.67131	14.64606	47.19286	-63.46626	-11.39138	-19.52808	-39.86983	-62.65259	-54.51589	-42.31084	0
326	22.78276	-48.00653	-70.78929	12.20505	44.75185	-58.58424	-11.39138	-17.08707	-34.98781	-55.32956	-47.19286	-39.86983	0
327	22.78276	-45.56552	-68.34828	9.76404	44.75185	-56.14323	-8.95037	-14.64606	-27.66478	-48.00653	-39.86983	-34.98781	0
328	22.78276	-43.12451	-65.90727	9.76404	42.31084	-53.70222	-6.50936	-9.76404	-25.22377	-40.6835	-32.5468	-27.66478	0
329	20.34175	-43.12451	-63.46626	9.76404	39.86983	-53.70222	-6.50936	-7.32303	-22.78276	-33.36047	-26.85111	-22.78276	0
330	17.90074	-40.6835	-58.58424	9.76404	37.42882	-48.8202	-6.50936	-4.88202	-20.34175	-28.47845	-21.96909	-20.34175	0
331	15.45973	-38.24249	-53.70222	9.76404	32.5468	-46.37919	-6.50936	-2.44101	-17.90074	-26.03744	-21.96909	-20.34175	0
332	13.01872	-38.24249	-51.26121	12.20505	30.10579	-43.93818	-6.50936	-2.44101	-13.01872	-23.59643	-17.08707	-17.08707	0
333	13.01872	-35.80148	-48.8202	9.76404	30.10579	-41.49717	-6.50936	0	-5.69569	-17.90074	-14.64606	-14.64606	0
334	13.01872	-33.36047	-46.37919	9.76404	27.66478	-39.05616	-6.50936	2.44101	-3.25468	-15.45973	-9.76404	-12.20505	0
335	15.45973	-30.91946	-46.37919	6.50936	30.10579	-39.05616	-6.50936	4.88202	1.62734	-13.01872	-7.32303	-12.20505	0
336	15.45973	-28.47845	-43.93818	6.50936	27.66478	-36.61515	-4.06835	4.88202	4.06835	-13.01872	-4.88202	-12.20505	0
337	15.45973	-26.03744	-41.49717	4.06835	27.66478	-34.17414	-4.06835	7.32303	6.50936	-8.1367	0	-7.32303	0
338	15.45973	-26.03744	-41.49717	4.06835	27.66478	-34.17414	-1.62734	9.76404	9.76404	-0.81367	4.88202	-2.44101	0
339	13.01872	-23.59643	-36.61515	4.06835	22.78276	-29.29212	-1.62734	14.64606	9.76404	4.06835	7.32303	0	0
340	10.57771	-23.59643	-34.17414	6.50936	20.34175	-29.29212	-1.62734	14.64606	9.76404	6.50936	9.76404	2.44101	0
341	8.1367	-23.59643	-31.73313	6.50936	17.90074	-26.85111	-1.62734	17.08707	9.76404	6.50936	9.76404	0	0
342	5.69569	-23.59643	-29.29212	6.50936	15.45973	-26.85111	0.81367	17.08707	14.64606	8.95037	9.76404	0	0
343	5.69569	-21.15542	-26.85111	6.50936	15.45973	-24.4101	0.81367	17.08707	19.52808	11.39138	9.76404	0	0
344	5.69569	-21.15542	-26.85111	6.50936	15.45973	-24.4101	3.25468	19.52808	21.96909	13.83239	12.20505	0	0
345	8.1367	-18.71441	-26.85111	4.06835	15.45973	-21.96909	5.69569	21.96909	24.4101	13.83239	12.20505	0	0
346	8.1367	-18.71441	-26.85111	4.06835	15.45973	-21.96909	5.69569	21.96909	26.85111	13.83239	12.20505	-2.44101	0
347	8.1367	-16.2734	-24.4101	4.06835	15.45973	-19.52808	8.95037	21.96909	29.29212	16.2734	14.64606	0	0
348	8.1367	-13.83239	-21.96909	1.62734	13.01872	-17.08707	8.95037	25.22377	31.73313	21.15542	17.08707	2.44101	0
349	8.1367	-13.83239	-21.96909	1.62734	13.01872	-17.08707	8.95037	27.66478	31.73313	23.59643	19.52808	7.32303	0
350	5.69569	-13.83239	-19.52808	4.06835	10.57771	-17.08707	8.95037	30.10579	29.29212	26.03744	19.52808	4.88202	0
351	5.69569	-13.83239	-19.52808	4.06835	10.57771	-17.08707	8.95037	32.5468	29.29212	26.03744	19.52808	4.88202	0
352	5.69569	-13.83239	-19.52808	4.06835	10.57771	-17.08707	8.95037	34.98781	34.17414	28.47845	19.52808	4.88202	0
353	5.69569	-13.83239	-19.52808	4.06835	10.57771	-17.08707	8.95037	34.98781	39.05616	28.47845	19.52808	4.88202	0
354	5.69569	-13.83239	-19.52808	4.06835	10.57771	-17.08707	8.95037	37.42882	39.05616	28.47845	19.52808	2.44101	0
355	8.1367	-13.83239	-21.96909	1.62734	13.01872	-17.08707	8.95037	37.42882	39.05616	26.03744	17.08707	0	0
356	8.1367	-13.83239	-21.96909	1.62734	13.01872	-17.08707	8.95037	37.42882	41.49717	23.59643	17.08707	-2.44101	-1500	QRS-0
357	8.1367	-16.2734	-24.4101	4.06835	15.45973	-19.52808	8.95037	39.86983	43.93818	23.59643	17.08707	0	0
358	8.1367	-16.2734	-24.4101	4.06835	15.45973	-19.52808	8.95037	39.86983	43.93818	23.59643	19.52808	0	0
359	8.1367	-16.2734	-24.4101	4.06835	15.45973	-19.52808	8.95037	42.31084	41.49717	26.03744	19.52808	2.44101	0
360	8.1367	-18.71441	-26.85111	4.06835	15.45973	-21.96909	8.95037	44.75185	39.05616	26.03744	17.08707	4.88202	0
361	8.1367	-21.15542	-29.29212	6.50936	17.90074	-24.4101	5.69569	47.19286	41.49717	21.15542	17.08707	4.88202	0
362	5.69569	-26.03744	-31.73313	9.76404	17.90074	-29.29212	5.69569	47.19286	43.93818	21.15542	17.08707	4.88202	0
363	8.1367	-26.03744	-34.17414	6.50936	20.34175	-29.29212	3.25468	47.19286	46.37919	21.15542	17.08707	4.88202	0
364	13.01872	-26.03744	-39.05616	6.50936	25.22377	-31.73313	0.81367	47.19286	48.8202	21.15542	17.08707	7.32303	0
365	15.45973	-26.03744	-41.49717	4.06835	27.66478	-34.17414	0.81367	49.63387	48.8202	18.71441	17.08707	7.32303	0
366	15.45973	-23.59643	-39.05616	4.06835	25.22377	-31.73313	0.81367	49.63387	51.26121	18.71441	17.08707	7.32303	0
367	15.45973	-23.59643	-39.05616	4.06835	25.22377	-31.73313	-1.62734	49.63387	53.70222	18.71441	14.64606	9.76404	0
368	15.45973	-23.59643	-39.05616	4.06835	25.22377	-31.73313	-1.62734	52.07488	53.70222	18.71441	14.64606	9.76404	0
369	15.45973	-21.15542	-36.61515	1.62734	25.22377	-29.29212	-4.06835	52.07488	51.26121	18.71441	14.64606	12.20505	0
370	15.45973	-21.15542	-36.61515	1.62734	25.22377	-29.29212	-6.50936	52.07488	48.8202	18.71441	9.76404	9.76404	0
371	15.45973	-23.59643	-39.05616	4.06835	25.22377	-31.73313	-8.95037	52.07488	48.8202	13.83239	7.32303	7.32303	0
372	17.90074	-23.59643	-41.49717	1.62734	27.66478	-31.73313	-11.39138	49.63387	51.26121	13.83239	4.88202	4.88202	0
373	20.34175	-21.15542	-41.49717	-0.81367	30.10579	-31.73313	-13.83239	47.19286	53.70222	11.39138	4.88202	4.88202	0
374	22.78276	-21.15542	-43.93818	-0.81367	32.5468	-31.73313	-13.83239	44.75185	53.70222	11.39138	4.88202	4.88202	0
375	27.66478	-16.2734	-43.93818	-5.69569	34.98781	-29.29212	-13.83239	44.75185	53.70222	13.83239	4.88202	9.76404	0
376	25.22377	-16.2734	-41.49717	-5.69569	32.5468	-29.29212	-16.2734	44.75185	51.26121	13.83239	7.32303	12.20505	0
377	22.78276	-13.83239	-36.61515	-5.69569	27.66478	-24.4101	-16.2734	44.75185	51.26121	13.83239	7.32303	14.64606	0
378	17.90074	-13.83239	-31.73313	-3.25468	22.78276	-21.96909	-18.71441	47.19286	48.8202	16.2734	9.76404	19.52808	0
379	15.45973	-11.39138	-26.85111	-3.25468	20.34175	-19.52808	-21.15542	52.07488	43.93818	16.2734	9.76404	24.4101	0
380	15.45973	-11.39138	-26.85111	-3.25468	20.34175	-19.52808	-23.59643	54.51589	43.93818	16.2734	9.76404	24.4101	0
381	15.45973	-11.39138	-26.85111	-3.25468	20.34175	-19.52808	-26.03744	54.51589	41.49717	11.39138	4.88202	21.96909	0
382	15.45973	-13.83239	-29.29212	-0.81367	20.34175	-21.96909	-28.47845	52.07488	39.05616	6.50936	2.44101	19.52808	0
383	17.90074	-13.83239	-31.73313	-3.25468	22.78276	-21.96909	-30.91946	52.07488	41.49717	4.06835	2.44101	19.52808	0
384	20.34175	-11.39138	-31.73313	-5.69569	25.22377	-21.96909	-33.36047	47.19286	39.05616	4.06835	2.44101	19.52808	0
385	20.34175	-11.39138	-31.73313	-5.69569	25.22377	-21.96909	-35.80148	44.75185	36.61515	1.62734	2.44101	19.52808	0
386	17.90074	-11.39138	-29.29212	-3.25468	22.78276	-19.52808	-35.80148	39.86983	31.73313	1.62734	2.44101	19.52808	0
387	15.45973	-8.95037	-24.4101	-3.25468	17.90074	-17.08707	-38.24249	37.42882	29.29212	4.06835	4.88202	21.96909	0
388	15.45973	-6.50936	-21.96909	-5.69569	17.90074	-14.64606	-40.6835	37.42882	26.85111	6.50936	7.32303	26.85111	0
389	13.01872	-6.50936	-19.52808	-3.25468	15.45973	-12.20505	-43.12451	37.42882	26.85111	8.95037	7.32303	29.29212	0
390	15.45973	-6.50936	-21.96909	-5.69569	17.90074	-14.64606	-45.56552	37.42882	26.85111	8.95037	7.32303	29.29212	0
391	15.45973	-3.25468	-19.52808	-5.69569	17.90074	-12.20505	-45.56552	37.42882	26.85111	4.06835	4.88202	26.85111	0
392	20.34175	-3.25468	-24.4101	-8.1367	22.78276	-14.64606	-45.56552	37.42882	29.29212	-0.81367	4.88202	24.4101	0
393	27.66478	-0.81367	-29.29212	-13.01872	27.66478	-14.64606	-48.00653	37.42882	34.17414	-0.81367	4.88202	21.96909	0
394	30.10579	1.62734	-29.29212	-15.45973	30.10579	-14.64606	-50.44754	34.98781	34.17414	-0.81367	4.88202	21.96909	0
395	32.5468	1.62734	-31.73313	-17.90074	32.5468	-14.64606	-50.44754	34.98781	31.73313	-0.81367	7.32303	24.4101	0
396	32.5468	1.62734	-31.73313	-17.90074	32.5468	-14.64606	-50.44754	32.5468	31.73313	1.62734	9.76404	26.85111	0
397	27.66478	4.06835	-24.4101	-15.45973	25.22377	-9.76404	-50.44754	32.5468	29.29212	6.50936	14.64606	29.29212	0
398	25.22377	4.06835	-21.96909	-15.45973	22.78276	-9.76404	-50.44754	32.5468	26.85111	8.95037	17.08707	29.29212	0
399	20.34175	4.06835	-17.08707	-13.01872	17.90074	-7.32303	-52.88855	32.5468	24.4101	11.39138	19.52808	31.73313	0
400	17.90074	1.62734	-17.08707	-10.57771	17.90074	-7.32303	-52.88855	32.5468	24.4101	11.39138	19.52808	34.17414	0
401	17.90074	1.62734	-17.08707	-10.57771	17.90074	-7.32303	-55.32956	32.5468	24.4101	8.95037	17.08707	31.73313	0
402	22.78276	1.62734	-21.96909	-13.01872	22.78276	-9.76404	-60.21158	30.10579	26.85111	6.50936	17.08707	29.29212	0
403	22.78276	-0.81367	-24.4101	-10.57771	22.78276	-12.20505	-60.21158	27.66478	29.29212	4.06835	17.08707	26.85111	0
404	27.66478	-0.81367	-29.29212	-13.01872	27.66478	-14.64606	-62.65259	27.66478	29.29212	4.06835	17.08707	29.29212	0
405	27.66478	-0.81367	-29.29212	-13.01872	27.66478	-14.64606	-62.65259	27.66478	26.85111	6.50936	19.52808	29.29212	0
406	30.10579	1.62734	-29.29212	-15.45973	30.10579	-14.64606	-62.65259	25.22377	26.85111	11.39138	24.4101	31.73313	0
407	30.10579	4.06835	-26.85111	-17.90074	27.66478	-12.20505	-62.65259	25.22377	24.4101	13.83239	26.85111	36.61515	0
408	27.66478	4.06835	-24.4101	-15.45973	25.22377	-9.76404	-62.65259	25.22377	21.96909	18.71441	29.29212	36.61515	0
409	25.22377	4.06835	-21.96909	-15.45973	22.78276	-9.76404	-65.0936	27.66478	21.96909	21.15542	29.29212	39.05616	0
410	25.22377	6.50936	-19.52808	-15.45973	22.78276	-7.32303	-67.53461	30.10579	21.96909	21.15542	29.29212	39.05616	0
411	25.22377	6.50936	-19.52808	-15.45973	22.78276	-7.32303	-67.53461	30.10579	21.96909	18.71441	29.29212	36.61515	0
412	30.10579	8.95037	-21.96909	-20.34175	25.22377	-7.32303	-69.97562	30.10579	26.85111	16.2734	26.85111	34.17414	0
413	32.5468	8.95037	-24.4101	-20.34175	27.66478	-7.32303	-72.41663	30.10579	29.29212	13.83239	26.85111	31.73313	0
414	32.5468	6.50936	-26.85111	-20.34175	30.10579	-9.76404	-72.41663	27.66478	29.29212	13.83239	26.85111	31.73313	0
415	34.98781	8.95037	-26.85111	-22.78276	30.10579	-9.76404	-72.41663	27.66478	29.29212	16.2734	29.29212	31.73313	0
416	32.5468	8.95037	-24.4101	-20.34175	27.66478	-7.32303	-72.41663	25.22377	29.29212	16.2734	31.73313	31.73313	0
417	32.5468	8.95037	-24.4101	-20.34175	27.66478	-7.32303	-74.85764	25.22377	26.85111	21.15542	34.17414	36.61515	0
418	27.66478	8.95037	-19.52808	-17.90074	22.78276	-4.88202	-74.85764	25.22377	24.4101	23.59643	39.05616	39.05616	0
419	25.22377	8.95037	-17.08707	-17.90074	20.34175	-4.88202	-74.85764	25.22377	24.4101	26.03744	39.05616	43.93818	0
420	22.78276	8.95037	-14.64606	-15.45973	17.90074	-2.44101	-77.29865	27.66478	24.4101	26.03744	41.49717	43.93818	0
421	22.78276	8.95037	-14.64606	-15.45973	17.90074	-2.44101	-79.73966	27.66478	24.4101	23.59643	41.49717	41.49717	0
422	25.22377	6.50936	-19.52808	-15.45973	22.78276	-7.32303	-79.73966	27.66478	24.4101	21.15542	39.05616	39.05616	0
423	27.66478	6.50936	-21.96909	-17.90074	25.22377	-7.32303	-82.18067	25.22377	29.29212	18.71441	39.05616	39.05616	0
424	30.10579	6.50936	-24.4101	-17.90074	27.66478	-9.76404	-82.18067	25.22377	29.29212	18.71441	39.05616	39.05616	0
425	30.10579	8.95037	-21.96909	-20.34175	25.22377	-7.32303	-82.18067	21.96909	26.85111	18.71441	39.05616	36.61515	0
426	32.5468	11.39138	-21.96909	-22.78276	27.66478	-4.88202	-84.62168	21.96909	26.85111	21.15542	39.05616	34.17414	0
427	30.10579	11.39138	-19.52808	-20.34175	25.22377	-4.88202	-84.62168	21.96909	24.4101	23.59643	41.49717	34.17414	0
428	30.10579	13.83239	-17.08707	-22.78276	22.78276	-2.44101	-84.62168	21.96909	24.4101	26.03744	43.93818	36.61515	0
429	27.66478	16.2734	-12.20505	-22.78276	20.34175	3.25468	-84.62168	21.96909	24.4101	28.47845	43.93818	39.05616	0
430	27.66478	16.2734	-12.20505	-22.78276	20.34175	3.25468	-87.06269	21.96909	21.96909	30.91946	43.93818	39.05616	0
431	27.66478	16.2734	-12.20505	-22.78276	20.34175	3.25468	-89.5037	25.22377	24.4101	26.03744	43.93818	36.61515	0
432	32.5468	16.2734	-17.08707	-25.22377	25.22377	0.81367	-89.5037	25.22377	26.85111	23.59643	43.93818	36.61515	0
433	34.98781	16.2734	-19.52808	-25.22377	27.66478	-2.44101	-91.94471	25.22377	31.73313	21.15542	43.93818	34.17414	0
434	34.98781	13.83239	-21.96909	-25.22377	27.66478	-4.88202	-94.38572	25.22377	31.73313	18.71441	46.37919	36.61515	0
435	34.98781	11.39138	-24.4101	-22.78276	30.10579	-7.32303	-94.38572	21.96909	31.73313	18.71441	46.37919	36.61515	0
436	34.98781	11.39138	-24.4101	-22.78276	30.10579	-7.32303	-94.38572	21.96909	29.29212	18.71441	48.8202	36.61515	0
437	30.10579	11.39138	-19.52808	-20.34175	25.22377	-4.88202	-96.82673	21.96909	26.85111	18.71441	48.8202	39.05616	0
438	25.22377	11.39138	-14.64606	-17.90074	20.34175	-2.44101	-96.82673	21.96909	26.85111	21.15542	53.70222	41.49717	0
439	22.78276	8.95037	-14.64606	-15.45973	17.90074	-2.44101	-96.82673	21.96909	26.85111	21.15542	53.70222	43.93818	0
440	22.78276	11.39138	-12.20505	-17.90074	17.90074	0.81367	-96.82673	25.22377	24.4101	23.59643	53.70222	46.37919	0
441	30.10579	16.2734	-14.64606	-22.78276	22.78276	0.81367	-96.82673	27.66478	29.29212	23.59643	53.70222	43.93818	0
442	32.5468	18.71441	-14.64606	-25.22377	22.78276	3.25468	-99.26774	30.10579	31.73313	21.15542	53.70222	43.93818	0
443	37.42882	21.15542	-17.08707	-30.10579	27.66478	3.25468	-99.26774	30.10579	36.61515	18.71441	53.70222	43.93818	0
444	42.31084	26.03744	-17.08707	-34.98781	30.10579	5.69569	-99.26774	30.10579	36.61515	21.15542	56.14323	43.93818	0
445	47.19286	26.03744	-21.96909	-37.42882	34.98781	3.25468	-99.26774	30.10579	36.61515	23.59643	61.02525	48.8202	0
446	44.75185	26.03744	-19.52808	-34.98781	32.5468	3.25468	-99.26774	30.10579	36.61515	23.59643	63.46626	48.8202	0
447	42.31084	26.03744	-17.08707	-34.98781	30.10579	5.69569	-99.26774	30.10579	36.61515	26.03744	65.90727	53.70222	0
448	37.42882	26.03744	-12.20505	-32.5468	25.22377	8.1367	-99.26774	30.10579	34.17414	28.47845	70.78929	56.14323	0
449	34.98781	23.59643	-12.20505	-30.10579	22.78276	5.69569	-101.70875	30.10579	31.73313	28.47845	70.78929	56.14323	0
450	32.5468	21.15542	-12.20505	-27.66478	22.78276	5.69569	-101.70875	32.5468	31.73313	28.47845	70.78929	56.14323	0
451	32.5468	18.71441	-14.64606	-25.22377	22.78276	3.25468	-104.14976	34.98781	34.17414	26.03744	68.34828	51.26121	0
452	32.5468	18.71441	-14.64606	-25.22377	22.78276	3.25468	-106.59077	34.98781	36.61515	23.59643	65.90727	46.37919	0
453	34.98781	18.71441	-17.08707	-27.66478	25.22377	0.81367	-106.59077	34.98781	41.49717	21.15542	63.46626	43.93818	0
454	37.42882	21.15542	-17.08707	-30.10579	27.66478	3.25468	-106.59077	34.98781	41.49717	21.15542	63.46626	43.93818	0
455	42.31084	23.59643	-19.52808	-32.5468	30.10579	3.25468	-109.03178	32.5468	41.49717	23.59643	65.90727	46.37919	0
456	42.31084	26.03744	-17.08707	-34.98781	30.10579	5.69569	-109.03178	30.10579	39.05616	23.59643	68.34828	51.26121	0
457	39.86983	28.47845	-12.20505	-34.98781	25.22377	8.1367	-109.03178	30.10579	36.61515	26.03744	68.34828	56.14323	0
458	39.86983	30.91946	-9.76404	-34.98781	25.22377	10.57771	-111.47279	30.10579	34.17414	26.03744	75.67131	61.02525	0
459	39.86983	33.36047	-7.32303	-37.42882	22.78276	13.01872	-111.47279	32.5468	34.17414	28.47845	75.67131	63.46626	0
460	39.86983	33.36047	-7.32303	-37.42882	22.78276	13.01872	-113.9138	32.5468	34.17414	28.47845	75.67131	65.90727	0
461	37.42882	30.91946	-7.32303	-34.98781	22.78276	13.01872	-113.9138	34.98781	36.61515	26.03744	73.2303	63.46626	0
462	37.42882	30.91946	-7.32303	-34.98781	22.78276	13.01872	-116.35481	34.98781	39.05616	21.15542	70.78929	61.02525	0
463	39.86983	30.91946	-9.76404	-34.98781	25.22377	10.57771	-116.35481	34.98781	43.93818	18.71441	70.78929	58.58424	0
464	42.31084	33.36047	-9.76404	-37.42882	25.22377	13.01872	-113.9138	34.98781	46.37919	21.15542	73.2303	61.02525	0
465	42.31084	35.80148	-7.32303	-39.86983	25.22377	15.45973	-111.47279	37.42882	46.37919	23.59643	75.67131	63.46626	0
466	42.31084	38.24249	-4.88202	-39.86983	22.78276	17.90074	-109.03178	37.42882	46.37919	26.03744	78.11232	65.90727	0
467	39.86983	43.12451	2.44101	-42.31084	17.90074	22.78276	-104.14976	39.86983	48.8202	30.91946	82.99434	70.78929	0
468	37.42882	48.00653	10.57771	-42.31084	13.01872	30.10579	-101.70875	42.31084	51.26121	38.24249	90.31737	75.67131	0
469	37.42882	55.32956	17.90074	-47.19286	10.57771	37.42882	-96.82673	47.19286	53.70222	45.56552	92.75838	82.99434	0
470	37.42882	60.21158	22.78276	-49.63387	8.1367	42.31084	-91.94471	52.07488	58.58424	48.00653	95.19939	85.43535	0
471	37.42882	65.0936	27.66478	-52.07488	5.69569	47.19286	-87.06269	56.9569	65.90727	50.44754	95.19939	82.99434	0
472	44.75185	72.41663	27.66478	-59.39791	8.1367	49.63387	-84.62168	61.83892	73.2303	52.88855	95.19939	82.99434	0
473	49.63387	77.29865	27.66478	-64.27993	10.57771	52.07488	-82.18067	66.72094	78.11232	52.88855	97.6404	80.55333	0
474	56.9569	84.62168	27.66478	-71.60296	15.45973	56.9569	-79.73966	71.60296	82.99434	57.77057	102.52242	82.99434	0
475	61.83892	89.5037	27.66478	-76.48498	17.90074	59.39791	-77.29865	74.04397	85.43535	62.65259	107.40444	85.43535	0
476	64.27993	94.38572	30.10579	-78.92599	17.90074	61.83892	-74.85764	76.48498	85.43535	67.53461	112.28646	87.87636	0
477	64.27993	94.38572	30.10579	-78.92599	17.90074	61.83892	-74.85764	78.92599	87.87636	74.85764	117.16848	95.19939	0
478	61.83892	94.38572	32.5468	-78.92599	15.45973	64.27993	-74.85764	81.367	87.87636	79.73966	122.0505	100.08141	0
479	61.83892	94.38572	32.5468	-78.92599	15.45973	64.27993	-74.85764	83.80801	90.31737	84.62168	124.49151	102.52242	0
480	61.83892	94.38572	32.5468	-78.92599	15.45973	64.27993	-77.29865	88.69003	95.19939	87.06269	126.93252	104.96343	0
481	61.83892	94.38572	32.5468	-78.92599	15.45973	64.27993	-77.29865	88.69003	97.6404	87.06269	124.49151	102.52242	0
482	66.72094	89.5037	22.78276	-78.92599	22.78276	56.9569	-82.18067	91.13104	100.08141	84.62168	122.0505	100.08141	0
483	69.16195	89.5037	20.34175	-78.92599	25.22377	54.51589	-84.62168	91.13104	104.96343	82.18067	119.60949	100.08141	0
484	76.48498	89.5037	13.01872	-83.80801	32.5468	52.07488	-89.5037	91.13104	104.96343	82.18067	119.60949	100.08141	0
485	81.367	89.5037	8.1367	-86.24902	37.42882	49.63387	-94.38572	91.13104	102.52242	82.18067	124.49151	104.96343	0
486	86.24902	89.5037	2.44101	-88.69003	42.31084	47.19286	-96.82673	88.69003	100.08141	82.18067	129.37353	109.84545	0
487	88.69003	94.38572	5.69569	-91.13104	42.31084	49.63387	-104.14976	88.69003	100.08141	87.06269	131.81454	114.72747	0
488	91.13104	99.26774	8.1367	-96.01306	42.31084	54.51589	-111.47279	88.69003	97.6404	91.94471	139.13757	122.0505	0
489	93.57205	104.14976	10.57771	-98.45407	42.31084	56.9569	-118.79582	86.24902	97.6404	94.38572	141.57858	126.93252	0
490	96.01306	106.59077	10.57771	-100.89508	42.31084	59.39791	-126.11885	83.80801	97.6404	94.38572	141.57858	126.93252	0
491	93.57205	106.59077	13.01872	-100.89508	39.86983	59.39791	-138.3239	76.48498	92.75838	87.06269	139.13757	122.0505	0
492	93.57205	101.70875	8.1367	-98.45407	42.31084	54.51589	-145.64693	69.16195	87.87636	77.29865	131.81454	117.16848	0
493	88.69003	94.38572	5.69569	-91.13104	42.31084	49.63387	-152.96996	61.83892	82.99434	67.53461	126.93252	112.28646	0
494	86.24902	89.5037	2.44101	-88.69003	42.31084	47.19286	-155.41097	54.51589	78.11232	62.65259	124.49151	109.84545	0
495	86.24902	87.06269	0	-86.24902	42.31084	44.75185	-155.41097	49.63387	73.2303	62.65259	124.49151	109.84545	0
496	86.24902	87.06269	0	-86.24902	42.31084	44.75185	-155.41097	47.19286	70.78929	62.65259	124.49151	109.84545	0
497	86.24902	87.06269	0	-86.24902	42.31084	44.75185	-150.52895	47.19286	68.34828	67.53461	129.37353	117.16848	0
498	91.13104	87.06269	-4.88202	-88.69003	47.19286	42.31084	-148.08794	49.63387	68.34828	69.97562	136.69656	122.0505	0
499	96.01306	84.62168	-12.20505	-91.13104	54.51589	37.42882	-145.64693	52.07488	68.34828	74.85764	139.13757	126.93252	0
500	103.33609	84.62168	-19.52808	-93.57205	61.83892	32.5468	-140.76491	56.9569	68.34828	77.29865	141.57858	129.37353	0
501	105.7771	77.29865	-29.29212	-91.13104	66.72094	25.22377	-140.76491	56.9569	68.34828	72.41663	136.69656	124.49151	0
502	110.65912	74.85764	-36.61515	-93.57205	74.04397	20.34175	-140.76491	56.9569	68.34828	65.0936	131.81454	119.60949	0
503	110.65912	69.97562	-41.49717	-91.13104	76.48498	15.45973	-140.76491	56.9569	68.34828	60.21158	126.93252	112.28646	0
504	113.10013	67.53461	-46.37919	-91.13104	78.92599	10.57771	-140.76491	56.9569	65.90727	55.32956	122.0505	109.84545	0
505	113.10013	65.0936	-48.8202	-88.69003	81.367	8.1367	-138.3239	54.51589	61.02525	52.88855	122.0505	107.40444	0
506	105.7771	62.65259	-43.93818	-83.80801	74.04397	10.57771	-138.3239	52.07488	56.14323	50.44754	117.16848	107.40444	0
507	98.45407	60.21158	-39.05616	-78.92599	69.16195	10.57771	-138.3239	47.19286	48.8202	48.00653	117.16848	107.40444	0
508	88.69003	57.77057	-31.73313	-74.04397	59.39791	13.01872	-138.3239	47.19286	43.93818	43.12451	117.16848	107.40444	0
509	78.92599	52.88855	-26.85111	-66.72094	52.07488	13.01872	-135.88289	47.19286	41.49717	43.12451	114.72747	109.84545	0
510	69.16195	48.00653	-21.96909	-59.39791	44.75185	13.01872	-133.44188	47.19286	39.05616	40.6835	112.28646	107.40444	0
511	56.9569	40.6835	-17.08707	-49.63387	37.42882	13.01872	-131.00087	47.19286	41.49717	35.80148	107.40444	100.08141	0
512	47.19286	35.80148	-12.20505	-42.31084	30.10579	13.01872	-128.55986	49.63387	43.93818	30.91946	100.08141	90.31737	0
513	42.31084	33.36047	-9.76404	-37.42882	25.22377	13.01872	-123.67784	49.63387	46.37919	26.03744	95.19939	80.55333	0
514	37.42882	30.91946	-7.32303	-34.98781	22.78276	13.01872	-118.79582	52.07488	46.37919	26.03744	92.75838	75.67131	0
515	32.5468	28.47845	-4.88202	-30.10579	17.90074	13.01872	-116.35481	52.07488	43.93818	26.03744	87.87636	70.78929	0
516	27.66478	26.03744	-2.44101	-27.66478	15.45973	13.01872	-113.9138	49.63387	39.05616	23.59643	82.99434	68.34828	0
517	22.78276	23.59643	0	-22.78276	10.57771	13.01872	-111.47279	47.19286	34.17414	21.15542	80.55333	68.34828	0
518	17.90074	21.15542	2.44101	-20.34175	8.1367	13.01872	-111.47279	44.75185	29.29212	18.71441	80.55333	68.34828	0
519	13.01872	18.71441	5.69569	-15.45973	3.25468	13.01872	-111.47279	42.31084	24.4101	18.71441	78.11232	68.34828	0
520	8.1367	16.2734	8.1367	-13.01872	0.81367	13.01872	-111.47279	42.31084	21.96909	13.83239	75.67131	68.34828	0
521	8.1367	13.83239	5.69569	-10.57771	0.81367	10.57771	-113.9138	39.86983	19.52808	8.95037	70.78929	63.46626	0
522	5.69569	11.39138	5.69569	-8.1367	0.81367	8.1367	-113.9138	39.86983	19.52808	4.06835	68.34828	61.02525	0
523	8.1367	11.39138	2.44101	-10.57771	3.25468	8.1367	-116.35481	39.86983	19.52808	-0.81367	68.34828	58.58424	0
524	13.01872	11.39138	-2.44101	-13.01872	8.1367	5.69569	-116.35481	39.86983	19.52808	-0.81367	65.90727	58.58424	0
525	15.45973	13.83239	-2.44101	-15.45973	8.1367	5.69569	-116.35481	37.42882	14.64606	-0.81367	65.90727	58.58424	0
526	15.45973	13.83239	-2.44101	-15.45973	8.1367	5.69569	-116.35481	34.98781	12.20505	-0.81367	65.90727	56.14323	0
527	15.45973	16.2734	0	-15.45973	8.1367	8.1367	-116.35481	32.5468	9.76404	-0.81367	63.46626	58.58424	0
528	13.01872	16.2734	2.44101	-15.45973	5.69569	10.57771	-116.35481	32.5468	6.50936	1.62734	65.90727	58.58424	0
529	10.57771	16.2734	5.69569	-13.01872	3.25468	10.57771	-116.35481	32.5468	6.50936	1.62734	63.46626	58.58424	0
530	8.1367	13.83239	5.69569	-10.57771	0.81367	10.57771	-116.35481	32.5468	6.50936	-0.81367	58.58424	58.58424	0
531	8.1367	13.83239	5.69569	-10.57771	0.81367	10.57771	-116.35481	32.5468	6.50936	-5.69569	53.70222	53.70222	0
532	10.57771	13.83239	2.44101	-13.01872	3.25468	8.1367	-116.35481	34.98781	6.50936	-8.1367	53.70222	51.26121	0
533	10.57771	8.95037	-2.44101	-10.57771	5.69569	3.25468	-116.35481	34.98781	12.20505	-10.57771	51.26121	46.37919	0
534	8.1367	4.06835	-4.88202	-5.69569	5.69569	0.81367	-116.35481	34.98781	12.20505	-10.57771	51.26121	46.37919	0
535	8.1367	1.62734	-7.32303	-5.69569	8.1367	-2.44101	-116.35481	32.5468	6.50936	-13.01872	48.8202	43.93818	0
536	8.1367	1.62734	-7.32303	-5.69569	8.1367	-2.44101	-113.9138	30.10579	4.06835	-15.45973	48.8202	41.49717	0
537	0.81367	-3.25468	-4.88202	1.62734	3.25468	-4.88202	-113.9138	25.22377	-0.81367	-15.45973	46.37919	41.49717	0
538	-4.06835	-3.25468	0	4.06835	-1.62734	-2.44101	-113.9138	21.96909	-5.69569	-15.45973	46.37919	41.49717	0
539	-6.50936	-6.50936	0	6.50936	-4.06835	-2.44101	-113.9138	21.96909	-10.57771	-17.90074	41.49717	39.05616	0
540	-6.50936	-3.25468	2.44101	4.06835	-4.06835	0.81367	-113.9138	21.96909	-15.45973	-23.59643	39.05616	39.05616	0
541	-4.06835	1.62734	5.69569	1.62734	-4.06835	3.25468	-111.47279	25.22377	-13.01872	-26.03744	36.61515	36.61515	0
542	0.81367	1.62734	0	-0.81367	0.81367	0.81367	-109.03178	27.66478	-10.57771	-28.47845	31.73313	34.17414	0
543	5.69569	4.06835	-2.44101	-5.69569	3.25468	0.81367	-106.59077	30.10579	-8.1367	-30.91946	29.29212	31.73313	0
544	5.69569	4.06835	-2.44101	-5.69569	3.25468	0.81367	-104.14976	32.5468	-8.1367	-30.91946	29.29212	31.73313	0
545	10.57771	4.06835	-7.32303	-8.1367	8.1367	-2.44101	-104.14976	32.5468	-8.1367	-28.47845	29.29212	31.73313	0
546	10.57771	1.62734	-9.76404	-5.69569	10.57771	-4.88202	-101.70875	30.10579	-13.01872	-28.47845	26.85111	31.73313	0
547	10.57771	-3.25468	-14.64606	-3.25468	13.01872	-9.76404	-99.26774	27.66478	-15.45973	-28.47845	26.85111	34.17414	0
548	10.57771	-6.50936	-17.08707	-3.25468	13.01872	-12.20505	-99.26774	27.66478	-17.90074	-28.47845	26.85111	34.17414	0
549	10.57771	-13.83239	-24.4101	1.62734	15.45973	-19.52808	-106.59077	27.66478	-22.78276	-30.91946	21.96909	34.17414	0
550	20.34175	-26.03744	-46.37919	1.62734	32.5468	-36.61515	-111.47279	27.66478	-30.10579	-40.6835	14.64606	29.29212	0
551	34.98781	-43.12451	-78.11232	4.06835	54.51589	-61.02525	-118.79582	30.10579	-37.42882	-60.21158	0	19.52808	0
552	49.63387	-67.53461	-117.16848	6.50936	81.367	-92.75838	-123.67784	37.42882	-44.75185	-79.73966	-14.64606	7.32303	0
553	74.04397	-96.82673	-170.8707	9.76404	120.42316	-134.25555	-126.11885	54.51589	-47.19286	-101.70875	-32.5468	-9.76404	0
554	105.7771	-128.55986	-234.33696	9.76404	169.24336	-180.63474	-131.00087	78.92599	-49.63387	-121.23683	-44.75185	-20.34175	0
555	142.39225	-162.734	-305.12625	9.76404	222.94558	-234.33696	-133.44188	108.21811	-49.63387	-135.88289	-54.51589	-32.5468	0
556	188.77144	-192.02612	-380.79756	1.62734	283.97083	-285.59817	-140.76491	139.95124	-34.98781	-138.3239	-49.63387	-32.5468	0
557	240.03265	-213.99521	-454.02786	-13.01872	344.99608	-334.41837	-155.41097	176.56639	-13.01872	-121.23683	-29.29212	-20.34175	0
558	301.0579	-226.20026	-527.25816	-37.42882	413.34436	-375.91554	-177.38006	205.85851	14.64606	-89.5037	9.76404	7.32303	0
559	374.2882	-228.64127	-602.92947	-74.04397	486.57466	-414.9717	-206.67218	232.70962	58.58424	-40.6835	70.78929	53.70222	0
560	457.28254	-218.87723	-676.15977	-120.42316	564.68698	-446.70483	-243.28733	257.11972	109.84545	21.15542	146.4606	112.28646	0
561	545.1589	-196.90814	-742.06704	-174.12538	642.7993	-468.67392	-292.10753	259.56073	161.10666	96.82673	234.33696	183.07575	0
562	637.91728	-162.734	-800.65128	-237.59164	718.47061	-480.87897	-348.25076	244.91467	209.92686	182.26208	339.30039	266.07009	0
563	723.35263	-116.35481	-839.70744	-303.49891	779.49586	-478.43796	-409.27601	210.74053	253.86504	279.90248	456.46887	358.82847	0
564	789.2599	-62.65259	-851.91249	-364.52416	818.55202	-456.46887	-462.97823	166.80235	295.36221	394.62995	588.28341	461.35089	0
565	828.31606	4.06835	-825.06138	-415.78537	825.87505	-410.08968	-506.91641	117.98215	334.41837	521.56247	727.42098	568.75533	0
566	825.87505	79.73966	-746.94906	-452.40052	786.81889	-334.41837	-541.09055	49.63387	363.71049	648.49499	864.11754	671.27775	0
567	774.61384	162.734	-612.69351	-469.48759	694.06051	-224.57292	-553.2956	-29.29212	378.35655	768.10448	983.72703	761.59512	0
568	669.65041	253.05137	-417.41271	-462.16456	542.71789	-82.99434	-541.09055	-109.84545	380.79756	875.50892	1076.48541	829.9434	0
569	523.18981	340.92773	-183.07575	-432.87244	352.31911	78.92599	-509.35742	-202.60383	363.71049	953.62124	1130.18763	868.99956	0
570	349.8781	423.92207	74.04397	-386.49325	137.51023	249.79669	-472.74227	-310.00827	310.00827	978.03134	1125.30561	866.55855	0
571	169.24336	494.71136	325.468	-332.79103	-78.11232	410.90335	-441.00914	-441.82281	209.92686	934.09316	1061.83935	825.06138	0
572	-1.62734	548.41358	550.04092	-274.20679	-275.83413	550.04092	-419.04005	-590.72442	65.90727	824.24771	944.67087	749.39007	0
573	-146.4606	580.14671	725.79364	-218.06356	-436.94079	652.56334	-411.71702	-732.303	-98.45407	665.58206	788.44623	646.86765	0
574	-256.30605	592.35176	847.84414	-169.24336	-551.66826	718.47061	-419.04005	-861.67653	-274.20679	477.62429	607.81149	532.14018	0
575	-329.53635	577.7057	906.42838	-125.30518	-617.57553	740.4397	-438.56813	-966.63996	-447.5185	272.57945	414.9717	407.64867	0
576	-371.03352	545.97257	916.19242	-88.69003	-644.42664	730.67566	-462.97823	-1034.98824	-593.9791	77.29865	234.33696	290.48019	0
577	-380.79756	504.4754	884.45929	-61.83892	-632.22159	694.06051	-484.94732	-1056.95733	-694.06051	-82.18067	82.99434	192.83979	0
578	-373.47453	455.6552	828.31606	-42.31084	-600.48846	640.35829	-499.59338	-1037.42925	-747.76273	-201.79016	-37.42882	112.28646	0
579	-356.38746	406.835	762.40879	-25.22377	-558.99129	584.21506	-504.4754	-983.72703	-755.08576	-277.46147	-127.74619	48.8202	0
580	-329.53635	362.89682	691.6195	-17.90074	-510.17109	525.63082	-499.59338	-908.05572	-728.23465	-316.51763	-183.88942	2.44101	0
581	-300.24423	321.39965	620.83021	-10.57771	-461.35089	469.48759	-477.62429	-812.85633	-676.97344	-328.72268	-213.18154	-27.66478	0
582	-268.5111	289.66652	557.36395	-10.57771	-412.53069	423.1084	-443.45015	-712.77492	-611.06617	-318.95864	-225.38659	-44.75185	0
583	-244.101	260.3744	503.66173	-8.1367	-373.47453	381.61123	-399.51197	-610.2525	-540.27688	-299.43056	-222.94558	-59.39791	0
584	-222.13191	233.52329	454.84153	-5.69569	-339.30039	342.55507	-350.69177	-512.6121	-471.9286	-270.13844	-215.62255	-66.72094	0
585	-202.60383	209.11319	410.90335	-3.25468	-307.56726	308.38093	-301.87157	-422.29473	-408.46234	-240.84632	-203.4175	-74.04397	0
586	-190.39878	184.70309	374.2882	1.62734	-283.15716	279.08881	-255.49238	-344.18241	-354.76012	-211.5542	-191.21245	-74.04397	0
587	-180.63474	162.734	342.55507	6.50936	-261.18807	252.2377	-216.43622	-278.27514	-310.82194	-187.1441	-176.56639	-71.60296	0
588	-170.8707	140.76491	310.82194	14.64606	-241.65999	225.38659	-182.26208	-222.13191	-271.76578	-162.734	-157.03831	-66.72094	0
589	-156.22464	126.11885	281.52982	14.64606	-219.6909	203.4175	-152.96996	-175.75272	-240.03265	-145.64693	-139.95124	-59.39791	0
590	-144.01959	111.47279	254.67871	14.64606	-200.16282	181.44841	-128.55986	-139.13757	-213.18154	-131.00087	-125.30518	-52.07488	0
591	-131.81454	99.26774	230.26861	14.64606	-180.63474	164.36134	-109.03178	-107.40444	-186.33043	-121.23683	-115.54114	-49.63387	0
592	-117.16848	89.5037	205.85851	12.20505	-161.10666	147.27427	-94.38572	-80.55333	-164.36134	-111.47279	-105.7771	-47.19286	0
593	-102.52242	77.29865	179.0074	12.20505	-141.57858	127.74619	-79.73966	-56.14323	-144.83326	-104.14976	-93.57205	-47.19286	0
594	-87.87636	65.0936	152.15629	9.76404	-119.60949	108.21811	-67.53461	-31.73313	-130.1872	-94.38572	-83.80801	-42.31084	0
595	-78.11232	48.00653	125.30518	14.64606	-102.52242	86.24902	-55.32956	-12.20505	-117.98215	-84.62168	-74.04397	-37.42882	0
596	-70.78929	35.80148	105.7771	17.08707	-87.87636	69.16195	-43.12451	7.32303	-103.33609	-69.97562	-61.83892	-30.10579	0
597	-63.46626	26.03744	88.69003	17.08707	-75.67131	56.9569	-33.36047	21.96909	-93.57205	-57.77057	-52.07488	-22.78276	0
598	-61.02525	16.2734	76.48498	21.96909	-68.34828	44.75185	-26.03744	37.42882	-83.80801	-45.56552	-39.86983	-17.08707	0
599	-58.58424	11.39138	69.16195	21.96909	-63.46626	39.86983	-16.2734	49.63387	-71.60296	-33.36047	-32.5468	-12.20505	0
600	-58.58424	8.95037	66.72094	24.4101	-63.46626	37.42882	-8.95037	61.83892	-59.39791	-23.59643	-29.29212	-9.76404	0
601	-53.70222	11.39138	64.27993	19.52808	-58.58424	37.42882	-1.62734	69.16195	-49.63387	-17.90074	-29.29212	-9.76404	0
602	-51.26121	13.83239	64.27993	17.08707	-58.58424	37.42882	3.25468	74.04397	-42.31084	-15.45973	-29.29212	-12.20505	0
603	-48.8202	16.2734	64.27993	14.64606	-56.14323	39.86983	5.69569	78.92599	-34.98781	-13.01872	-32.5468	-14.64606	0
604	-46.37919	21.15542	66.72094	12.20505	-56.14323	42.31084	8.95037	81.367	-32.5468	-13.01872	-32.5468	-14.64606	0
605	-43.93818	21.15542	64.27993	9.76404	-53.70222	42.31084	11.39138	81.367	-34.98781	-13.01872	-32.5468	-14.64606	0
606	-43.93818	23.59643	66.72094	9.76404	-56.14323	44.75185	13.83239	78.92599	-37.42882	-13.01872	-32.5468	-14.64606	0
607	-43.93818	26.03744	69.16195	6.50936	-56.14323	47.19286	16.2734	78.92599	-39.86983	-8.1367	-32.5468	-14.64606	0
608	-43.93818	30.91946	74.04397	6.50936	-58.58424	52.07488	16.2734	76.48498	-39.86983	-3.25468	-32.5468	-14.64606	0
609	-46.37919	33.36047	78.92599	6.50936	-63.46626	54.51589	16.2734	76.48498	-42.31084	-3.25468	-34.98781	-14.64606	0
610	-48.8202	33.36047	81.367	6.50936	-65.90727	56.9569	16.2734	76.48498	-42.31084	-0.81367	-34.98781	-17.08707	0
611	-48.8202	38.24249	86.24902	4.06835	-68.34828	61.83892	18.71441	81.367	-37.42882	-0.81367	-32.5468	-14.64606	0
612	-46.37919	38.24249	83.80801	4.06835	-65.90727	59.39791	23.59643	83.80801	-32.5468	-0.81367	-29.29212	-9.76404	0
613	-43.93818	38.24249	81.367	1.62734	-63.46626	59.39791	28.47845	88.69003	-27.66478	-0.81367	-21.96909	-2.44101	0
614	-41.49717	33.36047	74.04397	4.06835	-58.58424	52.07488	33.36047	91.13104	-25.22377	1.62734	-14.64606	4.88202	0
615	-39.05616	30.91946	69.16195	4.06835	-53.70222	49.63387	43.12451	96.01306	-25.22377	6.50936	-4.88202	17.08707	0
616	-39.05616	28.47845	66.72094	4.06835	-53.70222	47.19286	50.44754	96.01306	-25.22377	11.39138	4.88202	26.85111	0
617	-41.49717	28.47845	69.16195	6.50936	-56.14323	47.19286	57.77057	93.57205	-25.22377	16.2734	9.76404	34.17414	0
618	-46.37919	30.91946	76.48498	6.50936	-61.02525	52.07488	62.65259	91.13104	-25.22377	21.15542	9.76404	34.17414	0
619	-51.26121	35.80148	86.24902	6.50936	-68.34828	59.39791	65.0936	88.69003	-27.66478	26.03744	9.76404	31.73313	0
620	-51.26121	43.12451	93.57205	4.06835	-73.2303	66.72094	65.0936	88.69003	-25.22377	30.91946	7.32303	26.85111	0
621	-51.26121	50.44754	100.89508	-0.81367	-75.67131	74.04397	65.0936	88.69003	-22.78276	30.91946	2.44101	19.52808	0
622	-51.26121	55.32956	105.7771	-3.25468	-78.11232	78.92599	67.53461	88.69003	-20.34175	30.91946	-2.44101	14.64606	0
623	-46.37919	57.77057	103.33609	-5.69569	-75.67131	78.92599	69.97562	91.13104	-17.90074	30.91946	-4.88202	9.76404	0
624	-46.37919	57.77057	103.33609	-5.69569	-75.67131	78.92599	72.41663	91.13104	-17.90074	33.36047	-7.32303	9.76404	0
625	-46.37919	55.32956	100.89508	-5.69569	-73.2303	76.48498	72.41663	91.13104	-20.34175	38.24249	-7.32303	12.20505	0
626	-46.37919	52.88855	98.45407	-3.25468	-73.2303	74.04397	74.85764	86.24902	-22.78276	40.6835	-2.44101	14.64606	0
627	-53.70222	50.44754	103.33609	1.62734	-78.11232	76.48498	77.29865	83.80801	-27.66478	45.56552	-2.44101	17.08707	0
628	-56.14323	48.00653	103.33609	4.06835	-80.55333	74.04397	82.18067	83.80801	-30.10579	48.00653	0	21.96909	0
629	-58.58424	45.56552	103.33609	6.50936	-80.55333	74.04397	82.18067	81.367	-30.10579	50.44754	0	21.96909	0
630	-63.46626	43.12451	105.7771	9.76404	-85.43535	74.04397	84.62168	81.367	-32.5468	52.88855	-2.44101	21.96909	0
631	-65.90727	43.12451	108.21811	9.76404	-87.87636	74.04397	87.06269	83.80801	-30.10579	52.88855	-4.88202	17.08707	0
632	-65.90727	43.12451	108.21811	9.76404	-87.87636	74.04397	89.5037	86.24902	-22.78276	55.32956	-4.88202	12.20505	0
633	-63.46626	45.56552	108.21811	6.50936	-85.43535	76.48498	91.94471	91.13104	-15.45973	60.21158	-4.88202	9.76404	0
634	-61.02525	48.00653	108.21811	6.50936	-85.43535	76.48498	94.38572	91.13104	-10.57771	69.97562	-2.44101	7.32303	0
635	-61.02525	50.44754	110.65912	4.06835	-85.43535	78.92599	94.38572	91.13104	-10.57771	74.85764	0	7.32303	0
636	-63.46626	52.88855	115.54114	4.06835	-90.31737	83.80801	94.38572	91.13104	-10.57771	82.18067	4.88202	12.20505	0
637	-68.34828	52.88855	120.42316	6.50936	-95.19939	86.24902	91.94471	88.69003	-13.01872	87.06269	7.32303	17.08707	0
638	-68.34828	55.32956	122.86417	6.50936	-95.19939	88.69003	91.94471	86.24902	-17.90074	89.5037	14.64606	21.96909	0
639	-70.78929	52.88855	122.86417	6.50936	-97.6404	86.24902	94.38572	83.80801	-25.22377	89.5037	14.64606	29.29212	0
640	-75.67131	50.44754	125.30518	12.20505	-100.08141	86.24902	94.38572	83.80801	-27.66478	89.5037	17.08707	36.61515	0
641	-75.67131	45.56552	120.42316	14.64606	-97.6404	81.367	94.38572	86.24902	-27.66478	87.06269	17.08707	36.61515	0
642	-75.67131	43.12451	117.98215	14.64606	-97.6404	78.92599	99.26774	88.69003	-22.78276	84.62168	12.20505	36.61515	0
643	-73.2303	43.12451	115.54114	14.64606	-95.19939	78.92599	104.14976	91.13104	-17.90074	84.62168	9.76404	36.61515	0
644	-70.78929	43.12451	113.10013	12.20505	-92.75838	76.48498	109.03178	91.13104	-17.90074	87.06269	7.32303	34.17414	0
645	-70.78929	43.12451	113.10013	12.20505	-92.75838	76.48498	113.9138	91.13104	-20.34175	89.5037	4.88202	31.73313	0
646	-70.78929	45.56552	115.54114	12.20505	-92.75838	78.92599	116.35481	88.69003	-22.78276	89.5037	2.44101	31.73313	0
647	-73.2303	50.44754	122.86417	9.76404	-97.6404	86.24902	118.79582	86.24902	-27.66478	91.94471	0	31.73313	0
648	-75.67131	52.88855	127.74619	9.76404	-102.52242	88.69003	118.79582	83.80801	-32.5468	94.38572	0	29.29212	0
649	-80.55333	52.88855	132.62821	12.20505	-107.40444	91.13104	118.79582	83.80801	-32.5468	96.82673	-2.44101	26.85111	0
650	-80.55333	57.77057	137.51023	9.76404	-109.84545	96.01306	121.23683	83.80801	-32.5468	99.26774	-4.88202	24.4101	0
651	-80.55333	60.21158	139.95124	9.76404	-109.84545	98.45407	121.23683	86.24902	-30.10579	96.82673	-9.76404	17.08707	0
652	-78.11232	62.65259	139.95124	6.50936	-109.84545	100.89508	123.67784	86.24902	-27.66478	96.82673	-12.20505	12.20505	0
653	-78.11232	65.0936	142.39225	6.50936	-109.84545	103.33609	126.11885	88.69003	-25.22377	96.82673	-12.20505	12.20505	0
654	-75.67131	65.0936	139.95124	4.06835	-107.40444	100.89508	128.55986	91.13104	-25.22377	96.82673	-9.76404	12.20505	0
655	-70.78929	65.0936	135.06922	1.62734	-102.52242	98.45407	131.00087	91.13104	-25.22377	99.26774	-4.88202	14.64606	0
656	-73.2303	62.65259	135.06922	4.06835	-104.96343	98.45407	131.00087	88.69003	-30.10579	104.14976	0	17.08707	0
657	-78.11232	57.77057	135.06922	9.76404	-107.40444	96.01306	133.44188	88.69003	-32.5468	106.59077	4.88202	21.96909	0
658	-80.55333	52.88855	132.62821	12.20505	-107.40444	91.13104	135.88289	88.69003	-34.98781	109.03178	12.20505	26.85111	0
659	-85.43535	48.00653	132.62821	17.08707	-109.84545	88.69003	138.3239	88.69003	-34.98781	111.47279	12.20505	29.29212	0
660	-85.43535	45.56552	130.1872	19.52808	-107.40444	86.24902	140.76491	91.13104	-37.42882	111.47279	12.20505	29.29212	0
661	-85.43535	45.56552	130.1872	19.52808	-107.40444	86.24902	143.20592	93.57205	-32.5468	104.14976	9.76404	26.85111	0
662	-85.43535	45.56552	130.1872	19.52808	-107.40444	86.24902	145.64693	96.01306	-30.10579	99.26774	7.32303	26.85111	0
663	-80.55333	48.00653	127.74619	14.64606	-104.96343	86.24902	150.52895	98.45407	-27.66478	94.38572	7.32303	24.4101	0
664	-75.67131	48.00653	122.86417	12.20505	-100.08141	83.80801	155.41097	100.89508	-27.66478	94.38572	7.32303	24.4101	0
665	-75.67131	48.00653	122.86417	12.20505	-100.08141	83.80801	157.85198	103.33609	-30.10579	91.94471	7.32303	26.85111	0
666	-75.67131	45.56552	120.42316	14.64606	-97.6404	81.367	160.29299	100.89508	-34.98781	89.5037	4.88202	24.4101	0
667	-80.55333	45.56552	125.30518	17.08707	-102.52242	83.80801	165.17501	98.45407	-39.86983	89.5037	0	21.96909	0
668	-85.43535	43.12451	127.74619	19.52808	-107.40444	83.80801	167.61602	98.45407	-44.75185	89.5037	-2.44101	17.08707	0
669	-90.31737	40.6835	130.1872	24.4101	-109.84545	83.80801	170.05703	96.01306	-47.19286	89.5037	-7.32303	14.64606	0
670	-92.75838	38.24249	130.1872	26.85111	-112.28646	83.80801	170.05703	98.45407	-47.19286	89.5037	-12.20505	4.88202	0
671	-92.75838	38.24249	130.1872	26.85111	-112.28646	83.80801	172.49804	100.89508	-44.75185	84.62168	-19.52808	-4.88202	0
672	-92.75838	38.24249	130.1872	26.85111	-112.28646	83.80801	177.38006	103.33609	-44.75185	79.73966	-26.85111	-14.64606	0
673	-87.87636	38.24249	125.30518	24.4101	-107.40444	81.367	179.82107	105.7771	-39.86983	74.85764	-29.29212	-20.34175	0
674	-85.43535	38.24249	122.86417	21.96909	-104.96343	78.92599	184.70309	105.7771	-37.42882	72.41663	-32.5468	-25.22377	0
675	-82.99434	35.80148	117.98215	21.96909	-100.08141	76.48498	187.1441	105.7771	-42.31084	69.97562	-32.5468	-30.10579	0
676	-82.99434	35.80148	117.98215	21.96909	-100.08141	76.48498	192.02612	103.33609	-47.19286	65.0936	-34.98781	-32.5468	0
677	-85.43535	30.91946	115.54114	26.85111	-100.08141	71.60296	196.90814	103.33609	-52.07488	60.21158	-34.98781	-32.5468	0
678	-85.43535	26.03744	110.65912	29.29212	-97.6404	66.72094	196.90814	103.33609	-56.9569	60.21158	-34.98781	-30.10579	0
679	-92.75838	21.15542	113.10013	34.17414	-102.52242	66.72094	199.34915	103.33609	-56.9569	60.21158	-34.98781	-27.66478	0
680	-95.19939	16.2734	110.65912	39.05616	-102.52242	61.83892	199.34915	105.7771	-61.83892	55.32956	-39.86983	-30.10579	0
681	-95.19939	13.83239	108.21811	39.05616	-102.52242	59.39791	204.23117	108.21811	-59.39791	48.00653	-44.75185	-34.98781	0
682	-92.75838	13.83239	105.7771	39.05616	-100.08141	59.39791	204.23117	110.65912	-54.51589	43.12451	-52.07488	-39.86983	0
683	-92.75838	13.83239	105.7771	39.05616	-100.08141	59.39791	209.11319	113.10013	-52.07488	35.80148	-56.9569	-47.19286	0
684	-92.75838	13.83239	105.7771	39.05616	-100.08141	59.39791	211.5542	115.54114	-52.07488	33.36047	-59.39791	-47.19286	0
685	-90.31737	13.83239	103.33609	36.61515	-97.6404	56.9569	213.99521	115.54114	-56.9569	30.91946	-61.83892	-52.07488	0
686	-92.75838	13.83239	105.7771	39.05616	-100.08141	59.39791	218.87723	110.65912	-61.83892	28.47845	-64.27993	-54.51589	0
687	-97.6404	8.95037	105.7771	43.93818	-102.52242	56.9569	218.87723	110.65912	-66.72094	28.47845	-69.16195	-54.51589	0
688	-102.52242	1.62734	103.33609	48.8202	-102.52242	52.07488	221.31824	105.7771	-74.04397	26.03744	-69.16195	-56.9569	0
689	-107.40444	-6.50936	100.89508	56.14323	-104.96343	47.19286	226.20026	100.89508	-81.367	21.15542	-78.92599	-64.27993	0
690	-109.84545	-16.2734	93.57205	61.02525	-102.52242	37.42882	228.64127	98.45407	-86.24902	13.83239	-93.57205	-74.04397	0
691	-109.84545	-21.15542	88.69003	63.46626	-100.08141	32.5468	233.52329	98.45407	-91.13104	-0.81367	-110.65912	-93.57205	0
692	-109.84545	-26.03744	83.80801	65.90727	-97.6404	27.66478	233.52329	98.45407	-93.57205	-13.01872	-127.74619	-108.21811	0
693	-107.40444	-28.47845	78.92599	65.90727	-95.19939	25.22377	235.9643	96.01306	-96.01306	-23.59643	-142.39225	-120.42316	0
694	-107.40444	-33.36047	74.04397	68.34828	-92.75838	20.34175	240.84632	96.01306	-100.89508	-33.36047	-152.15629	-127.74619	0
695	-107.40444	-35.80148	71.60296	70.78929	-90.31737	17.90074	243.28733	96.01306	-108.21811	-38.24249	-157.03831	-127.74619	0
696	-107.40444	-45.56552	61.83892	75.67131	-85.43535	8.1367	245.72834	91.13104	-113.10013	-40.6835	-161.92033	-132.62821	0
697	-117.16848	-55.32956	61.83892	85.43535	-90.31737	3.25468	250.61036	86.24902	-117.98215	-40.6835	-166.80235	-135.06922	0
698	-119.60949	-62.65259	56.9569	90.31737	-90.31737	-4.88202	253.05137	81.367	-125.30518	-38.24249	-171.68437	-137.51023	0
699	-122.0505	-72.41663	49.63387	95.19939	-87.87636	-12.20505	253.05137	76.48498	-132.62821	-48.00653	-181.44841	-142.39225	0
700	-124.49151	-79.73966	44.75185	100.08141	-85.43535	-19.52808	255.49238	74.04397	-142.39225	-60.21158	-193.65346	-149.71528	0
701	-122.0505	-84.62168	37.42882	102.52242	-80.55333	-24.4101	255.49238	71.60296	-147.27427	-72.41663	-205.85851	-161.92033	0
702	-119.60949	-91.94471	27.66478	104.96343	-75.67131	-34.17414	255.49238	66.72094	-152.15629	-87.06269	-215.62255	-171.68437	0
703	-117.16848	-96.82673	20.34175	104.96343	-70.78929	-39.05616	255.49238	66.72094	-157.03831	-101.70875	-222.94558	-179.0074	0
704	-114.72747	-106.59077	8.1367	109.84545	-63.46626	-51.26121	253.05137	61.83892	-164.36134	-113.9138	-235.15063	-188.77144	0
705	-117.16848	-116.35481	0	114.72747	-61.02525	-58.58424	253.05137	54.51589	-171.68437	-123.67784	-252.2377	-203.4175	0
706	-119.60949	-123.67784	-4.88202	119.60949	-58.58424	-65.90727	253.05137	44.75185	-183.88942	-131.00087	-271.76578	-220.50457	0
707	-124.49151	-128.55986	-4.88202	124.49151	-61.02525	-68.34828	250.61036	34.98781	-193.65346	-140.76491	-288.85285	-230.26861	0
708	-124.49151	-133.44188	-9.76404	126.93252	-58.58424	-73.2303	248.16935	25.22377	-205.85851	-150.52895	-301.0579	-237.59164	-1250	T-0
709	-126.93252	-140.76491	-14.64606	131.81454	-58.58424	-78.11232	248.16935	19.52808	-215.62255	-160.29299	-313.26295	-242.47366	0
710	-126.93252	-145.64693	-19.52808	134.25555	-56.14323	-82.99434	248.16935	14.64606	-220.50457	-167.61602	-323.02699	-249.79669	0
711	-126.93252	-155.41097	-29.29212	139.13757	-51.26121	-92.75838	248.16935	9.76404	-222.94558	-177.38006	-327.90901	-249.79669	0
712	-119.60949	-165.17501	-46.37919	141.57858	-39.05616	-107.40444	245.72834	7.32303	-227.8276	-187.1441	-330.35002	-249.79669	0
713	-114.72747	-174.93905	-61.02525	144.01959	-29.29212	-119.60949	245.72834	4.88202	-232.70962	-196.90814	-335.23204	-254.67871	0
714	-114.72747	-189.58511	-75.67131	151.34262	-21.96909	-134.25555	245.72834	-2.44101	-242.47366	-211.5542	-344.99608	-264.44275	0
715	-114.72747	-199.34915	-85.43535	156.22464	-17.08707	-144.01959	243.28733	-12.20505	-254.67871	-223.75925	-359.64214	-276.6478	0
716	-114.72747	-204.23117	-90.31737	158.66565	-14.64606	-148.90161	238.40531	-21.96909	-269.32477	-238.40531	-371.84719	-291.29386	0
717	-114.72747	-211.5542	-97.6404	161.10666	-9.76404	-156.22464	235.9643	-34.17414	-286.41184	-253.05137	-386.49325	-301.0579	0
718	-119.60949	-216.43622	-97.6404	165.98868	-12.20505	-158.66565	235.9643	-43.93818	-298.61689	-267.69743	-401.13931	-313.26295	0
719	-122.0505	-226.20026	-104.96343	173.31171	-9.76404	-165.98868	235.9643	-53.70222	-310.82194	-279.90248	-415.78537	-320.58598	0
720	-117.16848	-233.52329	-117.16848	173.31171	-1.62734	-175.75272	235.9643	-61.02525	-318.14497	-289.66652	-427.99042	-327.90901	0
721	-112.28646	-235.9643	-124.49151	173.31171	5.69569	-180.63474	233.52329	-68.34828	-320.58598	-301.87157	-442.63648	-335.23204	0
722	-109.84545	-243.28733	-134.25555	175.75272	10.57771	-190.39878	233.52329	-75.67131	-323.02699	-314.07662	-457.28254	-347.43709	0
723	-104.96343	-245.72834	-141.57858	173.31171	17.90074	-195.2808	231.08228	-80.55333	-323.02699	-326.28167	-469.48759	-359.64214	0
724	-100.08141	-245.72834	-146.4606	170.8707	22.78276	-197.72181	231.08228	-87.87636	-330.35002	-336.04571	-479.25163	-366.96517	0
725	-92.75838	-245.72834	-153.78363	168.42969	30.10579	-200.16282	228.64127	-95.19939	-337.67305	-343.36874	-481.69264	-371.84719	0
726	-90.31737	-250.61036	-161.10666	168.42969	34.98781	-207.48585	223.75925	-102.52242	-344.99608	-348.25076	-484.13365	-371.84719	0
727	-95.19939	-257.93339	-163.54767	175.75272	32.5468	-212.36787	223.75925	-109.84545	-349.8781	-348.25076	-484.13365	-371.84719	0
728	-97.6404	-262.81541	-165.98868	178.19373	32.5468	-214.80888	223.75925	-112.28646	-352.31911	-343.36874	-479.25163	-371.84719	0
729	-92.75838	-265.25642	-173.31171	178.19373	39.86983	-219.6909	221.31824	-114.72747	-352.31911	-336.04571	-474.36961	-364.52416	0
730	-90.31737	-272.57945	-183.07575	180.63474	44.75185	-229.45494	218.87723	-114.72747	-349.8781	-336.04571	-469.48759	-354.76012	0
731	-82.99434	-277.46147	-195.2808	178.19373	54.51589	-236.77797	218.87723	-114.72747	-344.99608	-336.04571	-467.04658	-347.43709	0
732	-73.2303	-279.90248	-207.48585	175.75272	66.72094	-244.101	218.87723	-112.28646	-330.35002	-331.16369	-462.16456	-344.99608	0
733	-61.02525	-277.46147	-217.24989	168.42969	76.48498	-248.98302	218.87723	-109.84545	-318.14497	-326.28167	-457.28254	-342.55507	0
734	-51.26121	-270.13844	-219.6909	158.66565	83.80801	-246.54201	218.87723	-109.84545	-313.26295	-321.39965	-452.40052	-335.23204	0
735	-43.93818	-262.81541	-219.6909	151.34262	86.24902	-241.65999	221.31824	-109.84545	-313.26295	-321.39965	-449.95951	-332.79103	0
736	-39.05616	-255.49238	-217.24989	146.4606	88.69003	-236.77797	221.31824	-114.72747	-313.26295	-321.39965	-447.5185	-330.35002	0
737	-39.05616	-248.16935	-209.92686	141.57858	83.80801	-229.45494	221.31824	-114.72747	-308.38093	-314.07662	-445.07749	-325.468	0
738	-43.93818	-243.28733	-200.16282	141.57858	76.48498	-222.13191	221.31824	-114.72747	-305.93992	-304.31258	-442.63648	-320.58598	0
739	-46.37919	-243.28733	-197.72181	144.01959	74.04397	-222.13191	221.31824	-117.16848	-301.0579	-299.43056	-440.19547	-320.58598	0
740	-46.37919	-240.84632	-195.2808	141.57858	74.04397	-219.6909	221.31824	-114.72747	-291.29386	-289.66652	-437.75446	-320.58598	0
741	-46.37919	-240.84632	-195.2808	141.57858	74.04397	-219.6909	226.20026	-109.84545	-279.08881	-287.22551	-435.31345	-323.02699	0
742	-41.49717	-240.84632	-200.16282	139.13757	78.92599	-222.13191	228.64127	-107.40444	-269.32477	-287.22551	-430.43143	-320.58598	0
743	-39.05616	-238.40531	-200.16282	136.69656	78.92599	-219.6909	228.64127	-102.52242	-257.11972	-282.34349	-420.66739	-313.26295	0
744	-31.73313	-233.52329	-202.60383	131.81454	83.80801	-219.6909	228.64127	-100.08141	-247.35568	-277.46147	-408.46234	-298.61689	0
745	-26.85111	-226.20026	-200.16282	124.49151	86.24902	-214.80888	228.64127	-97.6404	-240.03265	-267.69743	-393.81628	-283.97083	0
746	-29.29212	-218.87723	-190.39878	122.0505	78.92599	-205.04484	228.64127	-95.19939	-235.15063	-257.93339	-379.17022	-264.44275	0
747	-29.29212	-213.99521	-185.51676	119.60949	76.48498	-200.16282	223.75925	-90.31737	-222.94558	-240.84632	-362.08315	-242.47366	0
748	-26.85111	-206.67218	-180.63474	114.72747	76.48498	-195.2808	223.75925	-85.43535	-210.74053	-218.87723	-342.55507	-225.38659	0
749	-26.85111	-199.34915	-173.31171	112.28646	71.60296	-187.95777	223.75925	-80.55333	-196.09447	-201.79016	-330.35002	-215.62255	0
750	-26.85111	-196.90814	-170.8707	109.84545	71.60296	-185.51676	223.75925	-75.67131	-181.44841	-192.02612	-318.14497	-208.29952	0
751	-24.4101	-194.46713	-170.8707	107.40444	71.60296	-183.07575	226.20026	-68.34828	-161.92033	-182.26208	-305.93992	-203.4175	0
752	-19.52808	-192.02612	-173.31171	104.96343	76.48498	-183.07575	231.08228	-63.46626	-144.83326	-174.93905	-293.73487	-196.09447	0
753	-12.20505	-187.1441	-175.75272	97.6404	81.367	-183.07575	233.52329	-61.02525	-132.62821	-167.61602	-281.52982	-188.77144	0
754	-9.76404	-182.26208	-173.31171	95.19939	81.367	-178.19373	238.40531	-58.58424	-122.86417	-157.85198	-266.88376	-179.0074	0
755	-6.50936	-174.93905	-168.42969	90.31737	78.92599	-170.8707	243.28733	-56.14323	-110.65912	-138.3239	-249.79669	-166.80235	0
756	-9.76404	-167.61602	-158.66565	87.87636	74.04397	-163.54767	248.16935	-53.70222	-98.45407	-118.79582	-232.70962	-154.5973	0
757	-9.76404	-160.29299	-151.34262	82.99434	69.16195	-156.22464	250.61036	-51.26121	-88.69003	-101.70875	-218.06356	-142.39225	0
758	-14.64606	-152.96996	-139.13757	82.99434	61.83892	-146.4606	253.05137	-46.37919	-81.367	-84.62168	-200.97649	-130.1872	0
759	-17.08707	-145.64693	-129.37353	80.55333	54.51589	-139.13757	253.05137	-43.93818	-66.72094	-72.41663	-188.77144	-122.86417	0
760	-19.52808	-143.20592	-124.49151	80.55333	52.07488	-134.25555	255.49238	-36.61515	-52.07488	-65.0936	-179.0074	-117.98215	0
761	-21.96909	-140.76491	-119.60949	80.55333	47.19286	-131.81454	255.49238	-31.73313	-32.5468	-57.77057	-166.80235	-113.10013	0
762	-19.52808	-138.3239	-119.60949	78.11232	49.63387	-129.37353	257.93339	-24.4101	-15.45973	-48.00653	-154.5973	-103.33609	0
763	-14.64606	-133.44188	-119.60949	73.2303	52.07488	-126.93252	260.3744	-21.96909	-3.25468	-40.6835	-139.95124	-96.01306	0
764	-9.76404	-123.67784	-114.72747	65.90727	52.07488	-119.60949	260.3744	-19.52808	4.06835	-33.36047	-127.74619	-88.69003	0
765	-9.76404	-116.35481	-107.40444	61.02525	47.19286	-112.28646	260.3744	-19.52808	6.50936	-30.91946	-115.54114	-81.367	0
766	-14.64606	-111.47279	-97.6404	61.02525	39.86983	-104.96343	262.81541	-17.08707	6.50936	-23.59643	-100.89508	-69.16195	0
767	-19.52808	-111.47279	-92.75838	63.46626	34.98781	-102.52242	265.25642	-17.08707	6.50936	-13.01872	-86.24902	-54.51589	0
768	-21.96909	-109.03178	-87.87636	63.46626	32.5468	-100.08141	265.25642	-17.08707	4.06835	-10.57771	-74.04397	-44.75185	0
769	-24.4101	-111.47279	-87.87636	65.90727	30.10579	-100.08141	265.25642	-14.64606	12.20505	-5.69569	-66.72094	-39.86983	0
770	-24.4101	-116.35481	-92.75838	68.34828	32.5468	-104.96343	272.57945	-7.32303	24.4101	-0.81367	-66.72094	-37.42882	0
771	-26.85111	-118.79582	-92.75838	70.78929	32.5468	-107.40444	277.46147	-4.88202	39.05616	1.62734	-69.16195	-42.31084	0
772	-24.4101	-118.79582	-95.19939	70.78929	34.98781	-107.40444	277.46147	0	53.70222	6.50936	-69.16195	-44.75185	0
773	-17.08707	-113.9138	-97.6404	63.46626	39.86983	-107.40444	279.90248	2.44101	68.34828	8.95037	-69.16195	-47.19286	0
774	-17.08707	-109.03178	-92.75838	61.02525	37.42882	-102.52242	279.90248	2.44101	75.67131	16.2734	-69.16195	-49.63387	0
775	-17.08707	-101.70875	-85.43535	58.58424	32.5468	-95.19939	282.34349	0	75.67131	18.71441	-69.16195	-49.63387	0
776	-24.4101	-96.82673	-73.2303	58.58424	22.78276	-85.43535	282.34349	-4.88202	73.2303	23.59643	-64.27993	-44.75185	0
777	-29.29212	-91.94471	-63.46626	58.58424	15.45973	-78.11232	279.90248	-4.88202	70.78929	30.91946	-56.9569	-37.42882	0
778	-36.61515	-89.5037	-53.70222	61.02525	8.1367	-73.2303	279.90248	-4.88202	70.78929	40.6835	-49.63387	-30.10579	0
779	-39.05616	-84.62168	-46.37919	61.02525	3.25468	-65.90727	279.90248	-2.44101	78.11232	48.00653	-44.75185	-25.22377	0
780	-39.05616	-82.18067	-43.93818	58.58424	0.81367	-63.46626	282.34349	2.44101	85.43535	48.00653	-44.75185	-25.22377	0
781	-36.61515	-82.18067	-46.37919	58.58424	3.25468	-65.90727	284.7845	7.32303	97.6404	48.00653	-37.42882	-25.22377	0
782	-36.61515	-82.18067	-46.37919	58.58424	3.25468	-65.90727	287.22551	12.20505	109.84545	50.44754	-32.5468	-22.78276	0
783	-31.73313	-79.73966	-48.8202	53.70222	8.1367	-65.90727	287.22551	12.20505	122.0505	55.32956	-26.85111	-22.78276	0
784	-29.29212	-77.29865	-48.8202	51.26121	8.1367	-63.46626	289.66652	14.64606	126.93252	57.77057	-21.96909	-22.78276	0
785	-29.29212	-77.29865	-48.8202	51.26121	8.1367	-63.46626	292.10753	14.64606	126.93252	60.21158	-19.52808	-22.78276	0
786	-36.61515	-82.18067	-46.37919	58.58424	3.25468	-65.90727	292.10753	12.20505	126.93252	65.0936	-12.20505	-20.34175	0
787	-43.93818	-82.18067	-39.05616	61.02525	-4.06835	-61.02525	292.10753	12.20505	122.0505	69.97562	-4.88202	-14.64606	0
788	-48.8202	-82.18067	-34.17414	63.46626	-9.76404	-58.58424	292.10753	12.20505	119.60949	74.85764	0	-7.32303	0
789	-48.8202	-84.62168	-36.61515	65.90727	-7.32303	-61.02525	289.66652	12.20505	126.93252	79.73966	4.88202	-2.44101	0
790	-51.26121	-87.06269	-36.61515	68.34828	-9.76404	-63.46626	289.66652	17.08707	134.25555	77.29865	4.88202	-2.44101	0
791	-46.37919	-89.5037	-43.93818	65.90727	-1.62734	-68.34828	289.66652	21.96909	146.4606	77.29865	4.88202	-2.44101	0
792	-39.05616	-87.06269	-48.8202	61.02525	3.25468	-68.34828	289.66652	25.22377	158.66565	74.85764	7.32303	-4.88202	0
793	-31.73313	-87.06269	-56.14323	58.58424	10.57771	-73.2303	289.66652	27.66478	168.42969	74.85764	7.32303	-4.88202	0
794	-29.29212	-84.62168	-56.14323	56.14323	13.01872	-70.78929	292.10753	30.10579	178.19373	82.18067	9.76404	-4.88202	0
795	-29.29212	-84.62168	-56.14323	56.14323	13.01872	-70.78929	294.54854	30.10579	180.63474	84.62168	9.76404	-4.88202	0
796	-34.17414	-84.62168	-51.26121	58.58424	8.1367	-68.34828	294.54854	27.66478	180.63474	89.5037	9.76404	-2.44101	0
797	-39.05616	-84.62168	-46.37919	61.02525	3.25468	-65.90727	294.54854	27.66478	175.75272	94.38572	12.20505	2.44101	0
798	-46.37919	-87.06269	-41.49717	65.90727	-4.06835	-65.90727	294.54854	27.66478	173.31171	96.82673	12.20505	4.88202	0
799	-51.26121	-87.06269	-36.61515	68.34828	-9.76404	-63.46626	294.54854	27.66478	178.19373	96.82673	9.76404	2.44101	0
800	-48.8202	-87.06269	-39.05616	65.90727	-7.32303	-63.46626	294.54854	30.10579	180.63474	91.94471	4.88202	-4.88202	0
801	-48.8202	-87.06269	-39.05616	65.90727	-7.32303	-63.46626	294.54854	30.10579	187.95777	82.18067	-4.88202	-17.08707	0
802	-43.93818	-87.06269	-43.93818	63.46626	-1.62734	-65.90727	292.10753	32.5468	195.2808	77.29865	-9.76404	-22.78276	0
803	-36.61515	-87.06269	-51.26121	61.02525	5.69569	-70.78929	292.10753	32.5468	205.04484	72.41663	-9.76404	-30.10579	0
804	-34.17414	-87.06269	-53.70222	58.58424	8.1367	-70.78929	292.10753	34.98781	209.92686	72.41663	-9.76404	-30.10579	0
805	-29.29212	-87.06269	-58.58424	56.14323	13.01872	-73.2303	292.10753	32.5468	207.48585	72.41663	-7.32303	-25.22377	0
806	-31.73313	-91.94471	-61.02525	61.02525	13.01872	-78.11232	292.10753	32.5468	205.04484	72.41663	-4.88202	-20.34175	0
807	-36.61515	-94.38572	-58.58424	63.46626	10.57771	-78.11232	289.66652	30.10579	200.16282	74.85764	-2.44101	-14.64606	0
808	-41.49717	-99.26774	-58.58424	68.34828	8.1367	-80.55333	287.22551	30.10579	197.72181	77.29865	2.44101	-4.88202	0
809	-41.49717	-99.26774	-58.58424	68.34828	8.1367	-80.55333	287.22551	32.5468	202.60383	77.29865	2.44101	-2.44101	0
810	-39.05616	-99.26774	-61.02525	68.34828	10.57771	-80.55333	284.7845	34.98781	207.48585	77.29865	0	-2.44101	0
811	-39.05616	-99.26774	-61.02525	68.34828	10.57771	-80.55333	282.34349	37.42882	219.6909	72.41663	-2.44101	-7.32303	0
812	-31.73313	-96.82673	-65.90727	63.46626	15.45973	-82.99434	279.90248	37.42882	227.01393	67.53461	-7.32303	-12.20505	0
813	-26.85111	-91.94471	-65.90727	58.58424	17.90074	-80.55333	279.90248	37.42882	234.33696	65.0936	-7.32303	-12.20505	0
814	-21.96909	-89.5037	-68.34828	53.70222	22.78276	-80.55333	277.46147	37.42882	239.21898	65.0936	-7.32303	-14.64606	0
815	-19.52808	-84.62168	-65.90727	51.26121	22.78276	-75.67131	275.02046	37.42882	239.21898	65.0936	-4.88202	-17.08707	0
816	-21.96909	-84.62168	-63.46626	51.26121	20.34175	-75.67131	275.02046	32.5468	234.33696	67.53461	-2.44101	-14.64606	0
817	-24.4101	-84.62168	-61.02525	53.70222	17.90074	-73.2303	275.02046	30.10579	229.45494	67.53461	0	-14.64606	0
818	-29.29212	-84.62168	-56.14323	56.14323	13.01872	-70.78929	272.57945	27.66478	224.57292	69.97562	2.44101	-9.76404	0
819	-31.73313	-87.06269	-56.14323	58.58424	10.57771	-73.2303	272.57945	25.22377	227.01393	72.41663	4.88202	-9.76404	0
820	-31.73313	-87.06269	-56.14323	58.58424	10.57771	-73.2303	272.57945	27.66478	229.45494	69.97562	4.88202	-12.20505	0
821	-31.73313	-87.06269	-56.14323	58.58424	10.57771	-73.2303	270.13844	30.10579	236.77797	67.53461	4.88202	-12.20505	0
822	-26.85111	-87.06269	-61.02525	56.14323	15.45973	-75.67131	270.13844	30.10579	239.21898	67.53461	4.88202	-14.64606	0
823	-24.4101	-87.06269	-63.46626	53.70222	17.90074	-75.67131	267.69743	30.10579	244.101	67.53461	2.44101	-14.64606	0
824	-21.96909	-87.06269	-65.90727	53.70222	20.34175	-78.11232	265.25642	30.10579	246.54201	67.53461	2.44101	-14.64606	0
825	-21.96909	-84.62168	-63.46626	51.26121	20.34175	-75.67131	262.81541	30.10579	244.101	69.97562	2.44101	-14.64606	0
826	-24.4101	-82.18067	-58.58424	51.26121	15.45973	-70.78929	260.3744	25.22377	239.21898	69.97562	4.88202	-12.20505	0
827	-26.85111	-79.73966	-53.70222	51.26121	13.01872	-68.34828	255.49238	21.96909	236.77797	72.41663	4.88202	-7.32303	0
828	-26.85111	-77.29865	-51.26121	51.26121	10.57771	-65.90727	253.05137	21.96909	234.33696	74.85764	4.88202	-4.88202	0
829	-29.29212	-77.29865	-48.8202	51.26121	8.1367	-63.46626	248.16935	21.96909	236.77797	74.85764	7.32303	-4.88202	0
830	-31.73313	-77.29865	-46.37919	53.70222	5.69569	-63.46626	245.72834	21.96909	241.65999	69.97562	2.44101	-4.88202	0
831	-31.73313	-77.29865	-46.37919	53.70222	5.69569	-63.46626	243.28733	19.52808	244.101	65.0936	2.44101	-7.32303	0
832	-26.85111	-74.85764	-48.8202	48.8202	10.57771	-63.46626	243.28733	17.08707	246.54201	65.0936	2.44101	-9.76404	0
833	-24.4101	-74.85764	-51.26121	48.8202	13.01872	-63.46626	240.84632	17.08707	248.98302	62.65259	2.44101	-12.20505	0
834	-24.4101	-74.85764	-51.26121	48.8202	13.01872	-63.46626	238.40531	14.64606	248.98302	62.65259	2.44101	-12.20505	0
835	-24.4101	-74.85764	-51.26121	48.8202	13.01872	-63.46626	235.9643	12.20505	246.54201	62.65259	4.88202	-9.76404	0
836	-24.4101	-72.41663	-48.8202	46.37919	10.57771	-61.02525	235.9643	12.20505	244.101	67.53461	9.76404	-4.88202	0
837	-26.85111	-67.53461	-41.49717	46.37919	5.69569	-56.14323	235.9643	9.76404	239.21898	69.97562	12.20505	-2.44101	0
838	-26.85111	-65.0936	-39.05616	43.93818	5.69569	-53.70222	233.52329	9.76404	234.33696	72.41663	12.20505	0	0
839	-24.4101	-62.65259	-39.05616	41.49717	5.69569	-51.26121	233.52329	9.76404	234.33696	72.41663	12.20505	0	0
840	-21.96909	-60.21158	-39.05616	39.05616	8.1367	-51.26121	231.08228	9.76404	234.33696	67.53461	9.76404	-2.44101	0
841	-21.96909	-60.21158	-39.05616	39.05616	8.1367	-51.26121	231.08228	12.20505	236.77797	65.0936	9.76404	-4.88202	0
842	-17.08707	-57.77057	-41.49717	36.61515	10.57771	-51.26121	228.64127	12.20505	236.77797	62.65259	7.32303	-7.32303	0
843	-12.20505	-57.77057	-46.37919	34.17414	15.45973	-53.70222	226.20026	9.76404	234.33696	62.65259	7.32303	-7.32303	0
844	-12.20505	-57.77057	-46.37919	34.17414	15.45973	-53.70222	223.75925	9.76404	234.33696	65.0936	9.76404	-4.88202	0
845	-12.20505	-55.32956	-43.93818	31.73313	15.45973	-51.26121	221.31824	7.32303	231.89595	65.0936	12.20505	-2.44101	0
846	-17.08707	-55.32956	-39.05616	34.17414	10.57771	-48.8202	218.87723	7.32303	227.01393	69.97562	12.20505	0	0
847	-19.52808	-55.32956	-36.61515	36.61515	8.1367	-46.37919	216.43622	7.32303	222.13191	72.41663	14.64606	2.44101	0
848	-21.96909	-55.32956	-34.17414	36.61515	5.69569	-46.37919	211.5542	7.32303	217.24989	77.29865	14.64606	4.88202	0
849	-21.96909	-55.32956	-34.17414	36.61515	5.69569	-46.37919	209.11319	7.32303	217.24989	77.29865	14.64606	2.44101	0
850	-21.96909	-55.32956	-34.17414	36.61515	5.69569	-46.37919	206.67218	7.32303	217.24989	72.41663	12.20505	2.44101	0
851	-19.52808	-55.32956	-36.61515	36.61515	8.1367	-46.37919	204.23117	7.32303	219.6909	69.97562	12.20505	2.44101	0
852	-14.64606	-55.32956	-41.49717	34.17414	13.01872	-48.8202	204.23117	7.32303	219.6909	67.53461	14.64606	2.44101	0
853	-12.20505	-55.32956	-43.93818	31.73313	15.45973	-51.26121	201.79016	7.32303	219.6909	67.53461	17.08707	7.32303	0
854	-9.76404	-55.32956	-46.37919	31.73313	17.90074	-51.26121	199.34915	7.32303	219.6909	67.53461	19.52808	9.76404	0
855	-9.76404	-55.32956	-46.37919	31.73313	17.90074	-51.26121	196.90814	4.88202	217.24989	67.53461	19.52808	12.20505	0
856	-9.76404	-55.32956	-46.37919	31.73313	17.90074	-51.26121	196.90814	4.88202	214.80888	69.97562	19.52808	14.64606	0
857	-9.76404	-55.32956	-46.37919	31.73313	17.90074	-51.26121	192.02612	7.32303	209.92686	72.41663	21.96909	17.08707	0
858	-9.76404	-52.88855	-43.93818	29.29212	15.45973	-48.8202	189.58511	7.32303	207.48585	72.41663	19.52808	17.08707	0
859	-9.76404	-48.00653	-39.05616	26.85111	13.01872	-43.93818	187.1441	7.32303	207.48585	72.41663	17.08707	14.64606	0
860	-9.76404	-43.12451	-34.17414	24.4101	10.57771	-39.05616	184.70309	7.32303	207.48585	67.53461	12.20505	12.20505	0
861	-9.76404	-38.24249	-29.29212	21.96909	8.1367	-34.17414	182.26208	9.76404	209.92686	62.65259	12.20505	9.76404	0
862	-1.62734	-35.80148	-34.17414	17.08707	15.45973	-34.17414	179.82107	9.76404	212.36787	60.21158	9.76404	9.76404	0
863	0.81367	-35.80148	-36.61515	17.08707	17.90074	-36.61515	177.38006	9.76404	212.36787	57.77057	9.76404	9.76404	0
864	3.25468	-35.80148	-39.05616	14.64606	20.34175	-36.61515	172.49804	9.76404	209.92686	55.32956	12.20505	12.20505	0
865	3.25468	-35.80148	-39.05616	14.64606	20.34175	-36.61515	170.05703	7.32303	207.48585	55.32956	12.20505	14.64606	0
866	3.25468	-35.80148	-39.05616	14.64606	20.34175	-36.61515	167.61602	7.32303	202.60383	55.32956	17.08707	19.52808	0
867	0.81367	-33.36047	-34.17414	14.64606	15.45973	-34.17414	165.17501	9.76404	197.72181	55.32956	19.52808	24.4101	0
868	0.81367	-33.36047	-34.17414	14.64606	15.45973	-34.17414	162.734	12.20505	195.2808	55.32956	19.52808	26.85111	0
869	-1.62734	-33.36047	-31.73313	17.08707	13.01872	-31.73313	160.29299	12.20505	195.2808	52.88855	19.52808	24.4101	0
870	0.81367	-30.91946	-31.73313	14.64606	15.45973	-31.73313	157.85198	14.64606	195.2808	45.56552	17.08707	24.4101	0
871	3.25468	-30.91946	-34.17414	12.20505	17.90074	-31.73313	155.41097	17.08707	197.72181	43.12451	17.08707	21.96909	0
872	8.1367	-28.47845	-36.61515	9.76404	20.34175	-31.73313	152.96996	17.08707	200.16282	40.6835	17.08707	21.96909	0
873	10.57771	-28.47845	-39.05616	6.50936	22.78276	-34.17414	150.52895	17.08707	200.16282	40.6835	19.52808	21.96909	0
874	13.01872	-28.47845	-41.49717	6.50936	25.22377	-34.17414	148.08794	17.08707	200.16282	40.6835	19.52808	21.96909	0
875	15.45973	-26.03744	-41.49717	4.06835	27.66478	-34.17414	145.64693	14.64606	195.2808	45.56552	21.96909	24.4101	0
876	13.01872	-23.59643	-36.61515	4.06835	22.78276	-29.29212	140.76491	14.64606	190.39878	48.00653	24.4101	29.29212	0
877	10.57771	-23.59643	-34.17414	6.50936	20.34175	-29.29212	138.3239	14.64606	183.07575	50.44754	26.85111	31.73313	0
878	8.1367	-21.15542	-29.29212	6.50936	17.90074	-24.4101	133.44188	14.64606	180.63474	55.32956	26.85111	31.73313	0
879	8.1367	-18.71441	-26.85111	4.06835	15.45973	-21.96909	131.00087	14.64606	178.19373	55.32956	26.85111	29.29212	0
880	10.57771	-16.2734	-26.85111	1.62734	17.90074	-21.96909	128.55986	14.64606	178.19373	52.88855	24.4101	29.29212	0
881	13.01872	-13.83239	-26.85111	-0.81367	17.90074	-19.52808	126.11885	17.08707	180.63474	50.44754	24.4101	24.4101	0
882	17.90074	-11.39138	-29.29212	-3.25468	22.78276	-19.52808	121.23683	17.08707	183.07575	48.00653	24.4101	24.4101	0
883	22.78276	-8.95037	-31.73313	-8.1367	25.22377	-19.52808	121.23683	17.08707	183.07575	48.00653	24.4101	24.4101	0
884	25.22377	-6.50936	-31.73313	-10.57771	27.66478	-19.52808	118.79582	17.08707	183.07575	50.44754	26.85111	26.85111	0
885	27.66478	-6.50936	-34.17414	-10.57771	30.10579	-19.52808	116.35481	17.08707	178.19373	52.88855	31.73313	29.29212	0
886	25.22377	-6.50936	-31.73313	-10.57771	27.66478	-19.52808	113.9138	17.08707	173.31171	55.32956	34.17414	31.73313	0
887	22.78276	-6.50936	-29.29212	-8.1367	25.22377	-17.08707	111.47279	17.08707	168.42969	55.32956	36.61515	36.61515	0
888	20.34175	-6.50936	-26.85111	-8.1367	22.78276	-17.08707	109.03178	17.08707	163.54767	57.77057	39.05616	41.49717	0
889	20.34175	-6.50936	-26.85111	-8.1367	22.78276	-17.08707	104.14976	17.08707	163.54767	57.77057	39.05616	41.49717	0
890	22.78276	-6.50936	-29.29212	-8.1367	25.22377	-17.08707	101.70875	19.52808	163.54767	55.32956	39.05616	41.49717	0
891	22.78276	-6.50936	-29.29212	-8.1367	25.22377	-17.08707	99.26774	21.96909	168.42969	55.32956	39.05616	39.05616	0
892	27.66478	-3.25468	-31.73313	-13.01872	30.10579	-17.08707	99.26774	21.96909	170.8707	52.88855	41.49717	41.49717	0
893	34.98781	1.62734	-34.17414	-17.90074	34.98781	-17.08707	99.26774	25.22377	170.8707	55.32956	46.37919	41.49717	0
894	39.86983	6.50936	-34.17414	-22.78276	37.42882	-14.64606	99.26774	27.66478	173.31171	60.21158	48.8202	46.37919	0
895	42.31084	11.39138	-31.73313	-27.66478	37.42882	-9.76404	99.26774	27.66478	173.31171	62.65259	53.70222	51.26121	0
896	42.31084	18.71441	-24.4101	-30.10579	32.5468	-2.44101	99.26774	30.10579	170.8707	67.53461	58.58424	56.14323	0
897	42.31084	26.03744	-17.08707	-34.98781	30.10579	5.69569	96.82673	32.5468	168.42969	72.41663	63.46626	58.58424	0
898	39.86983	33.36047	-7.32303	-37.42882	22.78276	13.01872	96.82673	37.42882	168.42969	77.29865	65.90727	63.46626	0
899	39.86983	38.24249	-2.44101	-39.86983	20.34175	17.90074	96.82673	39.86983	170.8707	77.29865	68.34828	63.46626	0
900	37.42882	43.12451	5.69569	-39.86983	15.45973	25.22377	96.82673	42.31084	173.31171	72.41663	65.90727	63.46626	0
901	39.86983	48.00653	8.1367	-44.75185	15.45973	27.66478	96.82673	47.19286	178.19373	72.41663	68.34828	63.46626	0
902	44.75185	55.32956	10.57771	-49.63387	17.90074	32.5468	101.70875	49.63387	180.63474	69.97562	70.78929	65.90727	0
903	49.63387	60.21158	10.57771	-54.51589	20.34175	34.98781	101.70875	52.07488	183.07575	72.41663	75.67131	68.34828	0
904	54.51589	65.0936	10.57771	-59.39791	22.78276	37.42882	101.70875	54.51589	185.51676	74.85764	78.11232	70.78929	0
905	56.9569	67.53461	10.57771	-61.83892	22.78276	39.86983	101.70875	54.51589	185.51676	79.73966	82.99434	73.2303	0
906	56.9569	72.41663	15.45973	-64.27993	20.34175	44.75185	101.70875	56.9569	183.07575	84.62168	87.87636	78.11232	0
907	56.9569	74.85764	17.90074	-66.72094	20.34175	47.19286	99.26774	61.83892	180.63474	87.06269	92.75838	80.55333	0
908	56.9569	74.85764	17.90074	-66.72094	20.34175	47.19286	96.82673	64.27993	178.19373	89.5037	95.19939	85.43535	0
909	56.9569	74.85764	17.90074	-66.72094	20.34175	47.19286	94.38572	66.72094	180.63474	89.5037	95.19939	85.43535	0
910	61.83892	77.29865	15.45973	-69.16195	22.78276	47.19286	89.5037	71.60296	185.51676	89.5037	95.19939	85.43535	0
911	66.72094	79.73966	13.01872	-74.04397	27.66478	47.19286	84.62168	74.04397	190.39878	89.5037	100.08141	85.43535	0
912	74.04397	82.18067	8.1367	-78.92599	32.5468	44.75185	79.73966	78.92599	195.2808	89.5037	104.96343	87.87636	0
913	81.367	82.18067	0	-81.367	39.86983	42.31084	74.85764	78.92599	195.2808	89.5037	107.40444	90.31737	0
914	88.69003	84.62168	-4.88202	-86.24902	47.19286	39.86983	67.53461	78.92599	195.2808	91.94471	112.28646	95.19939	0
915	93.57205	87.06269	-7.32303	-91.13104	49.63387	39.86983	57.77057	78.92599	192.83979	91.94471	119.60949	102.52242	0
916	93.57205	87.06269	-7.32303	-91.13104	49.63387	39.86983	48.00653	78.92599	190.39878	91.94471	126.93252	109.84545	0
917	96.01306	94.38572	-2.44101	-96.01306	49.63387	47.19286	38.24249	78.92599	185.51676	94.38572	134.25555	117.16848	0
918	98.45407	99.26774	0	-98.45407	49.63387	49.63387	28.47845	78.92599	185.51676	94.38572	139.13757	124.49151	0
919	100.89508	106.59077	5.69569	-103.33609	47.19286	56.9569	16.2734	74.04397	183.07575	94.38572	141.57858	124.49151	0
920	105.7771	111.47279	5.69569	-108.21811	49.63387	59.39791	5.69569	69.16195	180.63474	87.06269	136.69656	122.0505	0
921	105.7771	113.9138	8.1367	-110.65912	49.63387	61.83892	-6.50936	61.83892	175.75272	79.73966	134.25555	117.16848	0
922	108.21811	116.35481	8.1367	-113.10013	49.63387	61.83892	-16.2734	54.51589	170.8707	74.85764	129.37353	112.28646	0
923	110.65912	113.9138	2.44101	-113.10013	54.51589	59.39791	-26.03744	44.75185	163.54767	69.97562	124.49151	107.40444	0
924	108.21811	109.03178	0	-108.21811	54.51589	54.51589	-35.80148	37.42882	156.22464	65.0936	119.60949	102.52242	0
925	105.7771	104.14976	-2.44101	-105.7771	54.51589	52.07488	-38.24249	32.5468	148.90161	62.65259	117.16848	102.52242	0
926	100.89508	101.70875	0	-100.89508	49.63387	52.07488	-40.6835	32.5468	141.57858	62.65259	119.60949	102.52242	0
927	98.45407	101.70875	2.44101	-100.89508	47.19286	52.07488	-40.6835	34.98781	136.69656	67.53461	124.49151	107.40444	0
928	98.45407	99.26774	0	-98.45407	49.63387	49.63387	-40.6835	37.42882	136.69656	69.97562	129.37353	109.84545	0
929	103.33609	94.38572	-9.76404	-98.45407	56.9569	42.31084	-40.6835	39.86983	136.69656	69.97562	129.37353	109.84545	0
930	108.21811	91.94471	-17.08707	-100.89508	61.83892	37.42882	-40.6835	42.31084	136.69656	65.0936	129.37353	107.40444	0
931	113.10013	89.5037	-24.4101	-100.89508	69.16195	32.5468	-43.12451	44.75185	136.69656	62.65259	129.37353	104.96343	0
932	117.98215	87.06269	-31.73313	-103.33609	74.04397	27.66478	-45.56552	47.19286	136.69656	60.21158	129.37353	104.96343	0
933	120.42316	84.62168	-36.61515	-103.33609	78.92599	25.22377	-48.00653	47.19286	134.25555	57.77057	131.81454	107.40444	0
934	125.30518	82.18067	-43.93818	-103.33609	83.80801	20.34175	-52.88855	44.75185	131.81454	55.32956	134.25555	107.40444	0
935	122.86417	79.73966	-43.93818	-100.89508	83.80801	17.90074	-55.32956	42.31084	126.93252	55.32956	134.25555	109.84545	0
936	117.98215	77.29865	-41.49717	-98.45407	78.92599	17.90074	-55.32956	42.31084	122.0505	57.77057	136.69656	112.28646	0
937	108.21811	72.41663	-36.61515	-91.13104	71.60296	17.90074	-57.77057	42.31084	114.72747	57.77057	136.69656	112.28646	0
938	96.01306	67.53461	-29.29212	-81.367	61.83892	20.34175	-57.77057	42.31084	109.84545	57.77057	134.25555	109.84545	0
939	86.24902	62.65259	-24.4101	-74.04397	54.51589	20.34175	-57.77057	42.31084	107.40444	55.32956	129.37353	102.52242	0
940	76.48498	57.77057	-19.52808	-66.72094	47.19286	20.34175	-57.77057	42.31084	104.96343	50.44754	119.60949	95.19939	0
941	66.72094	50.44754	-17.08707	-59.39791	42.31084	17.90074	-55.32956	42.31084	104.96343	43.12451	114.72747	85.43535	0
942	61.83892	45.56552	-17.08707	-54.51589	39.86983	15.45973	-55.32956	42.31084	104.96343	40.6835	109.84545	78.11232	0
943	54.51589	43.12451	-12.20505	-49.63387	32.5468	15.45973	-52.88855	42.31084	102.52242	38.24249	107.40444	73.2303	0
944	49.63387	40.6835	-9.76404	-44.75185	30.10579	15.45973	-50.44754	39.86983	100.08141	38.24249	104.96343	70.78929	0
945	49.63387	40.6835	-9.76404	-44.75185	30.10579	15.45973	-50.44754	39.86983	95.19939	38.24249	102.52242	68.34828	0
946	44.75185	43.12451	-2.44101	-44.75185	22.78276	20.34175	-50.44754	37.42882	90.31737	40.6835	102.52242	68.34828	0
947	39.86983	43.12451	2.44101	-42.31084	17.90074	22.78276	-52.88855	37.42882	85.43535	40.6835	104.96343	68.34828	0
948	37.42882	43.12451	5.69569	-39.86983	15.45973	25.22377	-52.88855	37.42882	80.55333	40.6835	100.08141	65.90727	0
949	34.98781	43.12451	8.1367	-39.86983	13.01872	25.22377	-57.77057	37.42882	78.11232	35.80148	97.6404	61.02525	0
950	37.42882	43.12451	5.69569	-39.86983	15.45973	25.22377	-60.21158	37.42882	78.11232	30.91946	92.75838	56.14323	0
951	37.42882	43.12451	5.69569	-39.86983	15.45973	25.22377	-62.65259	37.42882	75.67131	23.59643	90.31737	51.26121	0
952	37.42882	40.6835	2.44101	-39.86983	17.90074	22.78276	-65.0936	34.98781	75.67131	21.15542	90.31737	51.26121	0
953	42.31084	38.24249	-4.88202	-39.86983	22.78276	17.90074	-65.0936	32.5468	70.78929	18.71441	87.87636	51.26121	0
954	44.75185	40.6835	-4.88202	-42.31084	25.22377	17.90074	-67.53461	32.5468	70.78929	18.71441	87.87636	51.26121	0
955	44.75185	40.6835	-4.88202	-42.31084	25.22377	17.90074	-67.53461	32.5468	68.34828	23.59643	90.31737	51.26121	0
956	42.31084	40.6835	-2.44101	-42.31084	22.78276	20.34175	-67.53461	32.5468	63.46626	26.03744	90.31737	53.70222	0
957	37.42882	38.24249	0	-37.42882	17.90074	20.34175	-67.53461	32.5468	58.58424	26.03744	92.75838	53.70222	0
958	32.5468	35.80148	2.44101	-34.98781	15.45973	20.34175	-67.53461	32.5468	56.14323	28.47845	90.31737	53.70222	0
959	30.10579	35.80148	5.69569	-32.5468	13.01872	20.34175	-69.97562	32.5468	56.14323	28.47845	87.87636	48.8202	0
960	30.10579	35.80148	5.69569	-32.5468	13.01872	20.34175	-69.97562	34.98781	56.14323	23.59643	82.99434	43.93818	0
961	32.5468	35.80148	2.44101	-34.98781	15.45973	20.34175	-69.97562	37.42882	56.14323	21.15542	82.99434	41.49717	0
962	34.98781	35.80148	0	-34.98781	17.90074	17.90074	-72.41663	37.42882	56.14323	18.71441	82.99434	39.05616	0
963	39.86983	35.80148	-4.88202	-37.42882	22.78276	15.45973	-72.41663	34.98781	56.14323	16.2734	82.99434	39.05616	0
964	42.31084	35.80148	-7.32303	-39.86983	25.22377	15.45973	-72.41663	34.98781	56.14323	18.71441	82.99434	41.49717	0
965	42.31084	35.80148	-7.32303	-39.86983	25.22377	15.45973	-72.41663	34.98781	53.70222	18.71441	82.99434	43.93818	0
966	37.42882	35.80148	-2.44101	-37.42882	20.34175	17.90074	-72.41663	32.5468	48.8202	18.71441	82.99434	43.93818	0
967	32.5468	30.91946	-2.44101	-32.5468	17.90074	15.45973	-74.85764	32.5468	43.93818	18.71441	80.55333	43.93818	0
968	25.22377	28.47845	2.44101	-27.66478	10.57771	15.45973	-74.85764	32.5468	41.49717	18.71441	75.67131	41.49717	0
969	22.78276	28.47845	5.69569	-25.22377	8.1367	17.90074	-77.29865	32.5468	39.05616	13.83239	70.78929	34.17414	0
970	20.34175	28.47845	8.1367	-25.22377	5.69569	17.90074	-77.29865	32.5468	39.05616	4.06835	63.46626	29.29212	0
971	20.34175	28.47845	8.1367	-25.22377	5.69569	17.90074	-77.29865	32.5468	36.61515	-0.81367	61.02525	24.4101	0
972	25.22377	28.47845	2.44101	-27.66478	10.57771	15.45973	-79.73966	32.5468	36.61515	-5.69569	61.02525	21.96909	0
973	25.22377	28.47845	2.44101	-27.66478	10.57771	15.45973	-79.73966	32.5468	36.61515	-5.69569	63.46626	21.96909	0
974	27.66478	28.47845	0	-27.66478	13.01872	15.45973	-79.73966	32.5468	36.61515	-3.25468	68.34828	24.4101	0
975	32.5468	28.47845	-4.88202	-30.10579	17.90074	13.01872	-79.73966	34.98781	36.61515	-0.81367	73.2303	29.29212	0
976	32.5468	26.03744	-7.32303	-30.10579	20.34175	10.57771	-79.73966	37.42882	34.17414	1.62734	78.11232	34.17414	0
977	30.10579	21.15542	-9.76404	-25.22377	20.34175	5.69569	-79.73966	37.42882	29.29212	4.06835	78.11232	36.61515	0
978	30.10579	13.83239	-17.08707	-22.78276	22.78276	-2.44101	-82.18067	39.86983	24.4101	-0.81367	75.67131	36.61515	0
979	37.42882	-0.81367	-39.05616	-17.90074	37.42882	-19.52808	-87.06269	39.86983	19.52808	-13.01872	65.90727	29.29212	0
980	49.63387	-16.2734	-65.90727	-17.90074	56.9569	-41.49717	-94.38572	44.75185	12.20505	-28.47845	48.8202	17.08707	0
981	69.16195	-38.24249	-107.40444	-15.45973	86.24902	-73.2303	-96.82673	54.51589	6.50936	-50.44754	34.17414	4.88202	0
982	91.13104	-65.0936	-156.22464	-13.01872	122.86417	-109.84545	-99.26774	71.60296	6.50936	-69.97562	19.52808	-9.76404	0
983	117.98215	-99.26774	-217.24989	-10.57771	166.80235	-158.66565	-101.70875	96.01306	6.50936	-84.62168	7.32303	-20.34175	0
984	152.15629	-135.88289	-288.03918	-8.1367	218.06356	-212.36787	-104.14976	130.1872	14.64606	-94.38572	2.44101	-25.22377	0
985	196.09447	-165.17501	-361.26948	-15.45973	276.6478	-263.62908	-106.59077	171.68437	34.17414	-91.94471	12.20505	-20.34175	0
986	242.47366	-189.58511	-432.05877	-27.66478	335.23204	-310.00827	-118.79582	215.62255	61.02525	-69.97562	41.49717	-2.44101	0
987	296.17588	-206.67218	-502.84806	-44.75185	398.6983	-353.94645	-138.3239	252.2377	97.6404	-33.36047	87.87636	31.73313	0
988	362.08315	-216.43622	-578.51937	-74.04397	469.48759	-397.88463	-167.61602	281.52982	141.57858	18.71441	153.78363	80.55333	0
989	440.19547	-211.5542	-651.74967	-115.54114	545.1589	-432.05877	-201.79016	308.38093	197.72181	91.94471	239.21898	144.01959	0
990	523.18981	-194.46713	-717.65694	-164.36134	618.3892	-456.46887	-245.72834	318.14497	256.30605	174.93905	336.85938	219.6909	0
991	608.62516	-162.734	-771.35916	-222.94558	689.17849	-466.23291	-299.43056	308.38093	312.44928	270.13844	451.58685	307.56726	0
992	691.6195	-118.79582	-810.41532	-286.41184	750.20374	-463.7919	-362.89682	276.6478	358.82847	375.10187	573.63735	402.76665	0
993	757.52677	-67.53461	-825.06138	-344.99608	789.2599	-446.70483	-421.48106	225.38659	395.44362	492.27035	707.8929	505.28907	0
994	801.46495	-6.50936	-807.97431	-398.6983	803.90596	-407.64867	-472.74227	169.24336	429.61776	616.76186	844.58946	607.81149	0
995	806.34697	69.97562	-737.18502	-437.75446	772.17283	-334.41837	-514.23944	98.45407	451.58685	743.69438	978.84501	707.8929	0
996	769.73182	152.96996	-617.57553	-462.16456	694.06051	-231.89595	-536.20853	7.32303	451.58685	858.42185	1088.69046	790.88724	0
997	679.41445	243.28733	-436.94079	-462.16456	557.36395	-97.6404	-533.76752	-87.87636	436.94079	951.18023	1164.36177	844.58946	0
998	545.1589	333.6047	-212.36787	-440.19547	379.17022	61.83892	-511.79843	-195.2808	402.76665	1014.64649	1198.53591	868.99956	0
999	381.61123	419.04005	37.42882	-401.13931	171.68437	227.8276	-480.0653	-317.3313	336.85938	1024.41053	1171.6848	847.03047	0
1000	205.85851	492.27035	286.41184	-349.8781	-41.49717	388.93426	-448.33217	-456.46887	229.45494	970.70831	1086.24945	786.00522	0
1001	37.42882	548.41358	510.98476	-293.73487	-236.77797	530.51284	-426.36308	-612.69351	80.55333	848.65781	949.55289	693.24684	0
1002	-112.28646	585.02873	696.50152	-237.59164	-405.20766	640.35829	-414.15803	-766.47714	-98.45407	672.90509	771.35916	580.96038	0
1003	-227.01393	599.67479	825.87505	-186.33043	-527.25816	711.14758	-421.48106	-908.05572	-288.85285	467.86025	578.51937	458.90988	0
1004	-302.68524	592.35176	894.22333	-144.83326	-598.04745	742.88071	-443.45015	-1025.2242	-469.48759	250.61036	383.23857	334.41837	0
1005	-346.62342	567.94166	913.75141	-110.65912	-629.78058	740.4397	-467.86025	-1105.77753	-623.27122	43.12451	202.60383	222.13191	0
1006	-363.71049	528.8855	891.78232	-83.80801	-627.33957	708.70657	-494.71136	-1139.95167	-737.99869	-131.00087	48.8202	126.93252	0
