samplenr	I	II	III	aVR	aVL	aVF	V1	V2	V3	V4	V5	V6	measurement
0	13.01872	85.43535	72.41663	-48.8202	-29.29212	78.92599	12.20505	-7.32303	-10.57771	7.32303	18.71441	28.47845	0
1	13.01872	85.43535	72.41663	-48.8202	-29.29212	78.92599	12.20505	-7.32303	-10.57771	7.32303	18.71441	28.47845	0
2	27.66478	90.31737	62.65259	-58.58424	-17.08707	76.48498	8.95037	-7.32303	-13.01872	7.32303	21.15542	28.47845	0
3	32.5468	85.43535	52.88855	-58.58424	-9.76404	69.16195	6.50936	-14.64606	-20.34175	2.44101	18.71441	28.47845	0
4	34.98781	78.11232	43.12451	-56.14323	-4.88202	61.83892	-0.81367	-24.4101	-27.66478	2.44101	13.01872	23.59643	0
5	42.31084	78.11232	35.80148	-61.02525	3.25468	56.9569	-5.69569	-26.85111	-27.66478	2.44101	13.01872	21.15542	0
6	42.31084	73.2303	30.91946	-58.58424	5.69569	52.07488	-10.57771	-31.73313	-32.5468	-2.44101	13.01872	16.2734	0
7	34.98781	63.46626	28.47845	-48.8202	3.25468	47.19286	-17.90074	-36.61515	-39.86983	-7.32303	10.57771	16.2734	0
8	34.98781	63.46626	28.47845	-48.8202	3.25468	47.19286	-20.34175	-39.05616	-39.86983	-9.76404	8.1367	13.83239	0
9	37.42882	65.90727	28.47845	-51.26121	5.69569	47.19286	-22.78276	-39.05616	-39.86983	-9.76404	5.69569	13.83239	0
10	39.86983	65.90727	26.03744	-53.70222	8.1367	47.19286	-25.22377	-41.49717	-39.86983	-12.20505	3.25468	13.83239	0
11	44.75185	70.78929	26.03744	-58.58424	10.57771	49.63387	-27.66478	-41.49717	-39.86983	-14.64606	0.81367	13.83239	0
12	52.07488	78.11232	26.03744	-65.90727	13.01872	52.07488	-25.22377	-43.93818	-42.31084	-14.64606	3.25468	16.2734	0
13	52.07488	75.67131	23.59643	-63.46626	15.45973	49.63387	-25.22377	-48.8202	-47.19286	-19.52808	0.81367	16.2734	0
14	52.07488	70.78929	18.71441	-61.02525	17.90074	44.75185	-25.22377	-51.26121	-49.63387	-19.52808	-1.62734	13.83239	0
15	49.63387	68.34828	18.71441	-58.58424	15.45973	44.75185	-22.78276	-51.26121	-49.63387	-19.52808	-1.62734	13.83239	0
16	49.63387	65.90727	16.2734	-58.58424	17.90074	42.31084	-22.78276	-51.26121	-49.63387	-19.52808	0.81367	13.83239	0
17	39.86983	56.14323	16.2734	-48.8202	13.01872	37.42882	-25.22377	-51.26121	-52.07488	-21.96909	-1.62734	11.39138	0
18	30.10579	46.37919	16.2734	-39.05616	8.1367	32.5468	-30.10579	-53.70222	-54.51589	-24.4101	-6.50936	6.50936	0
19	20.34175	36.61515	16.2734	-29.29212	3.25468	27.66478	-32.5468	-58.58424	-56.9569	-29.29212	-13.83239	3.25468	0
20	10.57771	24.4101	13.83239	-17.08707	-2.44101	20.34175	-37.42882	-61.02525	-61.83892	-34.17414	-18.71441	0.81367	0
21	-4.88202	7.32303	11.39138	-2.44101	-7.32303	8.1367	-44.75185	-68.34828	-66.72094	-46.37919	-26.03744	-6.50936	0
22	-17.08707	-5.69569	11.39138	10.57771	-14.64606	3.25468	-47.19286	-75.67131	-74.04397	-53.70222	-33.36047	-13.83239	0
23	-21.96909	-15.45973	6.50936	17.90074	-14.64606	-4.88202	-49.63387	-80.55333	-81.367	-58.58424	-38.24249	-18.71441	0
24	-29.29212	-27.66478	0.81367	27.66478	-17.08707	-14.64606	-54.51589	-87.87636	-86.24902	-63.46626	-43.12451	-26.03744	0
25	-34.17414	-34.98781	-1.62734	32.5468	-17.08707	-19.52808	-54.51589	-90.31737	-91.13104	-68.34828	-45.56552	-30.91946	0
26	-36.61515	-39.86983	-4.06835	37.42882	-17.08707	-21.96909	-56.9569	-92.75838	-91.13104	-70.78929	-48.00653	-38.24249	0
27	-36.61515	-39.86983	-4.06835	37.42882	-17.08707	-21.96909	-56.9569	-92.75838	-93.57205	-70.78929	-48.00653	-40.6835	0
28	-36.61515	-39.86983	-4.06835	37.42882	-17.08707	-21.96909	-59.39791	-90.31737	-91.13104	-70.78929	-50.44754	-40.6835	0
29	-36.61515	-42.31084	-6.50936	37.42882	-17.08707	-24.4101	-59.39791	-90.31737	-91.13104	-70.78929	-52.88855	-43.12451	0
30	-31.73313	-37.42882	-6.50936	32.5468	-14.64606	-21.96909	-59.39791	-87.87636	-91.13104	-70.78929	-52.88855	-43.12451	0
31	-26.85111	-34.98781	-8.95037	30.10579	-9.76404	-21.96909	-59.39791	-87.87636	-88.69003	-70.78929	-52.88855	-43.12451	0
32	-21.96909	-32.5468	-11.39138	25.22377	-7.32303	-21.96909	-59.39791	-87.87636	-88.69003	-70.78929	-50.44754	-43.12451	0
33	-19.52808	-32.5468	-13.83239	25.22377	-4.88202	-24.4101	-56.9569	-87.87636	-88.69003	-70.78929	-50.44754	-43.12451	0
34	-24.4101	-37.42882	-13.83239	30.10579	-7.32303	-26.85111	-56.9569	-87.87636	-91.13104	-73.2303	-52.88855	-43.12451	0
35	-24.4101	-42.31084	-18.71441	32.5468	-4.88202	-31.73313	-59.39791	-90.31737	-91.13104	-73.2303	-52.88855	-45.56552	0
36	-29.29212	-47.19286	-18.71441	37.42882	-7.32303	-34.17414	-59.39791	-90.31737	-93.57205	-73.2303	-52.88855	-48.00653	0
37	-29.29212	-47.19286	-18.71441	37.42882	-7.32303	-34.17414	-61.83892	-90.31737	-93.57205	-73.2303	-52.88855	-48.00653	0
38	-31.73313	-47.19286	-16.2734	37.42882	-9.76404	-31.73313	-61.83892	-87.87636	-88.69003	-73.2303	-55.32956	-48.00653	0
39	-34.17414	-52.07488	-18.71441	42.31084	-9.76404	-36.61515	-61.83892	-87.87636	-88.69003	-73.2303	-55.32956	-48.00653	0
40	-41.49717	-56.9569	-16.2734	47.19286	-14.64606	-36.61515	-64.27993	-87.87636	-88.69003	-75.67131	-55.32956	-48.00653	0
41	-51.26121	-69.16195	-18.71441	59.39791	-17.08707	-43.93818	-69.16195	-87.87636	-91.13104	-80.55333	-57.77057	-52.88855	0
42	-56.14323	-74.04397	-18.71441	64.27993	-19.52808	-46.37919	-69.16195	-92.75838	-93.57205	-80.55333	-60.21158	-52.88855	0
43	-61.02525	-81.367	-21.15542	69.16195	-21.96909	-51.26121	-69.16195	-95.19939	-96.01306	-80.55333	-60.21158	-55.32956	0
44	-65.90727	-86.24902	-21.15542	74.04397	-24.4101	-53.70222	-71.60296	-95.19939	-96.01306	-80.55333	-60.21158	-57.77057	0
45	-70.78929	-91.13104	-21.15542	78.92599	-26.85111	-56.14323	-71.60296	-95.19939	-96.01306	-80.55333	-60.21158	-57.77057	0
46	-70.78929	-93.57205	-23.59643	81.367	-24.4101	-58.58424	-71.60296	-97.6404	-96.01306	-80.55333	-60.21158	-57.77057	0
47	-65.90727	-86.24902	-21.15542	74.04397	-24.4101	-53.70222	-76.48498	-97.6404	-96.01306	-78.11232	-57.77057	-52.88855	0
48	-61.02525	-81.367	-21.15542	69.16195	-21.96909	-51.26121	-78.92599	-97.6404	-93.57205	-73.2303	-55.32956	-50.44754	0
49	-56.14323	-76.48498	-21.15542	64.27993	-19.52808	-48.8202	-83.80801	-100.08141	-96.01306	-68.34828	-48.00653	-43.12451	0
50	-53.70222	-69.16195	-16.2734	59.39791	-19.52808	-43.93818	-78.92599	-87.87636	-83.80801	-73.2303	-40.6835	-33.36047	0
51	-53.70222	-61.83892	-8.95037	56.9569	-24.4101	-36.61515	-91.13104	-92.75838	-76.48498	-63.46626	-38.24249	-23.59643	0
52	-51.26121	-61.83892	-11.39138	54.51589	-21.96909	-36.61515	-88.69003	-104.96343	-76.48498	-53.70222	-26.03744	-16.2734	0
53	-48.8202	-52.07488	-4.06835	49.63387	-24.4101	-29.29212	-115.54114	-129.37353	-93.57205	-46.37919	-1.62734	-13.83239	0
54	-51.26121	-37.42882	13.83239	42.31084	-34.17414	-12.20505	-125.30518	-144.01959	-91.13104	-31.73313	21.15542	21.15542	0
55	-68.34828	-64.27993	4.06835	64.27993	-36.61515	-31.73313	-169.24336	-187.95777	-127.74619	-46.37919	10.57771	-23.59643	0
56	-68.34828	-110.65912	-43.12451	88.69003	-14.64606	-78.11232	-218.06356	-253.86504	-193.65346	-85.43535	-30.91946	-40.6835	0
57	13.01872	-93.57205	-106.59077	39.86983	59.39791	-100.08141	-249.79669	-288.03918	-227.8276	-129.37353	-65.0936	-65.0936	0
58	108.21811	-66.72094	-174.93905	-21.96909	139.95124	-119.60949	-298.61689	-341.7414	-286.41184	-183.07575	-111.47279	-94.38572	0
59	132.62821	-110.65912	-243.28733	-12.20505	186.33043	-175.75272	-342.55507	-422.29473	-381.61123	-295.36221	-189.58511	-128.55986	0
60	157.03831	-137.51023	-294.54854	-9.76404	225.38659	-214.80888	-371.84719	-490.64301	-467.04658	-383.23857	-282.34349	-177.38006	0
61	181.44841	-166.80235	-348.25076	-7.32303	264.44275	-256.30605	-406.02133	-551.66826	-550.04092	-463.7919	-353.13278	-223.75925	0
62	220.50457	-176.56639	-397.07096	-21.96909	308.38093	-285.59817	-425.54941	-607.81149	-615.94819	-529.69917	-399.51197	-255.49238	0
63	279.08881	-171.68437	-450.77318	-53.70222	364.52416	-310.00827	-479.25163	-695.68785	-701.38354	-588.28341	-428.80409	-194.46713	0
64	330.35002	-142.39225	-472.74227	-95.19939	401.13931	-307.56726	-532.95385	-759.15411	-752.64475	-620.01654	-441.00914	-262.81541	0
65	376.72921	-37.42882	-414.15803	-170.8707	393.81628	-224.57292	-557.36395	-788.44623	-759.96778	-593.16543	-387.30692	-187.1441	0
66	442.63648	92.75838	-350.69177	-268.5111	396.25729	-129.37353	-593.9791	-817.73835	-759.96778	-539.46321	-323.84066	-99.26774	0
67	508.54375	100.08141	-409.27601	-305.12625	459.72355	-153.78363	-679.41445	-886.08663	-803.90596	-580.96038	-350.69177	-113.9138	0
68	559.80496	78.11232	-482.50631	-319.77231	520.7488	-202.60383	-740.4397	-922.70178	-845.40313	-632.22159	-414.15803	-350.69177	0
69	493.89769	-159.47932	-653.37701	-168.42969	572.01001	-405.20766	-784.37788	-991.05006	-960.1306	-825.06138	-641.17196	-441.00914	0
70	313.26295	-413.34436	-726.60731	49.63387	518.30779	-568.75533	-818.55202	-1049.6343	-1050.44797	-964.19895	-836.45276	-646.05398	0
71	44.75185	-515.86678	-560.61863	235.15063	301.0579	-537.0222	-791.70091	-1052.07531	-1069.97605	-993.49107	-880.39094	-685.11014	0
72	-224.57292	-418.22638	-194.46713	320.58598	-17.08707	-307.56726	-625.71223	-915.37875	-935.7205	-866.55855	-758.34044	-575.26469	0
73	-407.64867	-379.17022	28.47845	391.37527	-219.6909	-175.75272	-513.42577	-810.41532	-845.40313	-771.35916	-665.58206	-514.23944	0
74	-463.7919	-369.40618	94.38572	415.78537	-280.71615	-139.13757	-449.95951	-749.39007	-781.93687	-720.09795	-621.64388	-494.71136	0
75	-436.94079	-369.40618	67.53461	401.13931	-253.86504	-151.34262	-430.43143	-729.86199	-762.40879	-703.01088	-606.99782	-489.82934	0
76	-397.88463	-376.72921	21.15542	386.49325	-209.92686	-178.19373	-437.75446	-712.77492	-737.99869	-663.95472	-580.14671	-465.41924	0
77	-375.91554	-391.37527	-16.2734	381.61123	-180.63474	-205.04484	-427.99042	-656.63169	-669.65041	-610.2525	-531.32651	-431.2451	0
78	-329.53635	-408.46234	-79.73966	366.96517	-126.93252	-244.101	-430.43143	-595.60644	-601.30213	-546.78624	-482.50631	-401.95298	0
79	-263.62908	-366.96517	-104.14976	313.26295	-80.55333	-236.77797	-381.61123	-507.73008	-513.42577	-480.87897	-414.15803	-348.25076	0
80	-156.22464	-257.11972	-101.70875	205.85851	-29.29212	-180.63474	-301.0579	-385.67958	-393.81628	-368.59251	-328.72268	-262.81541	0
81	-124.49151	-203.4175	-79.73966	161.92033	-24.4101	-141.57858	-237.59164	-292.9212	-301.0579	-288.03918	-253.05137	-204.23117	0
82	-141.57858	-208.29952	-67.53461	174.12538	-39.05616	-139.13757	-169.24336	-207.48585	-213.18154	-212.36787	-189.58511	-157.85198	0
83	-78.11232	-139.95124	-62.65259	108.21811	-9.76404	-102.52242	-110.65912	-134.25555	-142.39225	-136.69656	-111.47279	-106.59077	0
84	-68.34828	-117.98215	-50.44754	91.13104	-9.76404	-85.43535	-66.72094	-78.11232	-88.69003	-85.43535	-74.85764	-74.85764	0
85	-97.6404	-130.1872	-33.36047	113.10013	-34.17414	-82.99434	-49.63387	-53.70222	-56.9569	-70.78929	-57.77057	-77.29865	0
86	-85.43535	-100.89508	-16.2734	91.13104	-36.61515	-58.58424	-25.22377	-17.08707	-27.66478	-26.85111	-35.80148	-57.77057	0
87	-82.99434	-91.13104	-8.95037	86.24902	-39.05616	-51.26121	-0.81367	26.85111	18.71441	2.44101	-11.39138	-43.12451	0
88	-26.85111	-25.22377	0.81367	25.22377	-14.64606	-12.20505	21.96909	69.16195	63.46626	44.75185	28.47845	-6.50936	0
89	-9.76404	-3.25468	6.50936	5.69569	-9.76404	0	31.73313	88.69003	78.11232	49.63387	45.56552	11.39138	0
90	-46.37919	-44.75185	0.81367	44.75185	-24.4101	-21.96909	31.73313	88.69003	85.43535	52.07488	33.36047	13.83239	0
91	-39.05616	-39.86983	-1.62734	37.42882	-19.52808	-21.96909	31.73313	100.89508	97.6404	61.83892	40.6835	0.81367	0
92	-36.61515	-37.42882	-1.62734	34.98781	-19.52808	-19.52808	36.61515	100.89508	95.19939	56.9569	38.24249	3.25468	0
93	-39.05616	-42.31084	-4.06835	39.86983	-19.52808	-24.4101	39.05616	93.57205	90.31737	61.83892	43.12451	3.25468	0
94	-41.49717	-42.31084	-1.62734	39.86983	-21.96909	-21.96909	43.93818	98.45407	95.19939	69.16195	45.56552	3.25468	0
95	-39.05616	-39.86983	-1.62734	37.42882	-19.52808	-21.96909	46.37919	105.7771	102.52242	74.04397	52.88855	6.50936	0
96	-31.73313	-34.98781	-4.06835	32.5468	-14.64606	-19.52808	51.26121	113.10013	109.84545	81.367	57.77057	8.95037	0
97	-29.29212	-30.10579	-1.62734	27.66478	-14.64606	-17.08707	53.70222	117.98215	117.16848	88.69003	62.65259	13.83239	0
98	-24.4101	-22.78276	0.81367	22.78276	-14.64606	-12.20505	58.58424	127.74619	126.93252	96.01306	67.53461	18.71441	0
99	-19.52808	-15.45973	4.06835	15.45973	-12.20505	-7.32303	63.46626	135.06922	134.25555	103.33609	72.41663	23.59643	0
100	-9.76404	-5.69569	4.06835	5.69569	-7.32303	-2.44101	68.34828	142.39225	141.57858	108.21811	79.73966	28.47845	1000	P+0
101	-2.44101	2.44101	4.06835	0	-2.44101	3.25468	73.2303	147.27427	148.90161	113.10013	87.06269	35.80148	0
102	8.1367	9.76404	0.81367	-9.76404	3.25468	5.69569	78.11232	152.15629	153.78363	120.42316	91.94471	38.24249	0
103	13.01872	14.64606	0.81367	-14.64606	5.69569	8.1367	82.99434	154.5973	156.22464	127.74619	96.82673	40.6835	0
104	10.57771	12.20505	0.81367	-12.20505	5.69569	8.1367	85.43535	157.03831	158.66565	130.1872	99.26774	40.6835	0
105	10.57771	9.76404	-1.62734	-9.76404	5.69569	5.69569	87.87636	157.03831	161.10666	132.62821	101.70875	43.12451	0
106	8.1367	7.32303	-1.62734	-7.32303	5.69569	3.25468	90.31737	159.47932	163.54767	135.06922	104.14976	45.56552	0
107	3.25468	4.88202	0.81367	-4.88202	0.81367	3.25468	90.31737	161.92033	168.42969	135.06922	109.03178	48.00653	0
108	-7.32303	-3.25468	4.06835	3.25468	-7.32303	0	90.31737	164.36134	168.42969	137.51023	109.03178	48.00653	0
109	-17.08707	-13.01872	4.06835	13.01872	-12.20505	-4.88202	90.31737	169.24336	170.8707	139.95124	109.03178	48.00653	0
110	-24.4101	-17.90074	6.50936	20.34175	-17.08707	-7.32303	90.31737	171.68437	173.31171	139.95124	111.47279	48.00653	0
111	-21.96909	-15.45973	6.50936	17.90074	-14.64606	-4.88202	95.19939	176.56639	180.63474	144.83326	116.35481	52.88855	0
112	-14.64606	-8.1367	6.50936	10.57771	-12.20505	-2.44101	100.08141	181.44841	185.51676	152.15629	123.67784	57.77057	0
113	-7.32303	-0.81367	6.50936	3.25468	-7.32303	3.25468	104.96343	188.77144	192.83979	159.47932	128.55986	62.65259	0
114	0.81367	4.88202	4.06835	-2.44101	-2.44101	5.69569	109.84545	193.65346	197.72181	166.80235	135.88289	65.0936	0
115	5.69569	12.20505	6.50936	-9.76404	0.81367	10.57771	114.72747	200.97649	205.04484	171.68437	140.76491	69.97562	0
116	10.57771	21.96909	11.39138	-17.08707	0.81367	17.90074	119.60949	205.85851	209.92686	176.56639	143.20592	74.85764	0
117	20.34175	31.73313	11.39138	-26.85111	5.69569	22.78276	122.0505	210.74053	217.24989	181.44841	150.52895	79.73966	0
118	25.22377	39.05616	13.83239	-31.73313	5.69569	27.66478	126.93252	218.06356	224.57292	186.33043	152.96996	82.18067	0
119	25.22377	39.05616	13.83239	-31.73313	5.69569	27.66478	126.93252	222.94558	229.45494	188.77144	152.96996	84.62168	0
120	17.90074	34.17414	16.2734	-26.85111	0.81367	25.22377	126.93252	222.94558	229.45494	188.77144	155.41097	84.62168	0
121	8.1367	24.4101	16.2734	-17.08707	-4.88202	20.34175	124.49151	222.94558	229.45494	186.33043	155.41097	84.62168	0
122	0.81367	17.08707	16.2734	-9.76404	-7.32303	17.90074	124.49151	222.94558	229.45494	186.33043	152.96996	82.18067	0
123	-2.44101	14.64606	16.2734	-7.32303	-9.76404	15.45973	126.93252	222.94558	231.89595	191.21245	155.41097	82.18067	0
124	8.1367	21.96909	13.83239	-14.64606	-2.44101	17.90074	131.81454	230.26861	236.77797	198.53548	162.734	84.62168	0
125	17.90074	29.29212	11.39138	-24.4101	3.25468	20.34175	136.69656	235.15063	244.101	203.4175	167.61602	89.5037	0
126	22.78276	36.61515	13.83239	-29.29212	5.69569	25.22377	139.13757	242.47366	248.98302	205.85851	170.05703	94.38572	0
127	27.66478	46.37919	18.71441	-36.61515	5.69569	32.5468	144.01959	247.35568	256.30605	210.74053	174.93905	99.26774	0
128	37.42882	53.70222	16.2734	-46.37919	10.57771	34.98781	146.4606	254.67871	263.62908	215.62255	179.82107	104.14976	0
129	47.19286	63.46626	16.2734	-56.14323	15.45973	39.86983	151.34262	262.00174	270.95211	222.94558	184.70309	109.03178	0
130	56.9569	75.67131	18.71441	-65.90727	20.34175	47.19286	156.22464	266.88376	275.83413	227.8276	189.58511	116.35481	0
131	69.16195	87.87636	18.71441	-78.11232	25.22377	54.51589	161.10666	274.20679	283.15716	232.70962	194.46713	121.23683	0
132	71.60296	90.31737	18.71441	-80.55333	27.66478	54.51589	163.54767	276.6478	288.03918	237.59164	199.34915	121.23683	0
133	69.16195	87.87636	18.71441	-78.11232	25.22377	54.51589	165.98868	276.6478	288.03918	242.47366	199.34915	121.23683	0
134	66.72094	85.43535	18.71441	-75.67131	25.22377	52.07488	165.98868	281.52982	292.9212	244.91467	204.23117	121.23683	0
135	64.27993	82.99434	18.71441	-73.2303	22.78276	52.07488	165.98868	281.52982	295.36221	247.35568	204.23117	121.23683	0
136	56.9569	75.67131	18.71441	-65.90727	20.34175	47.19286	165.98868	281.52982	295.36221	247.35568	204.23117	121.23683	0
137	49.63387	73.2303	23.59643	-61.02525	13.01872	49.63387	165.98868	283.97083	297.80322	247.35568	204.23117	121.23683	0
138	49.63387	73.2303	23.59643	-61.02525	13.01872	49.63387	165.98868	288.85285	302.68524	249.79669	204.23117	123.67784	0
139	47.19286	70.78929	23.59643	-58.58424	13.01872	47.19286	165.98868	291.29386	305.12625	249.79669	206.67218	126.11885	0
140	42.31084	65.90727	23.59643	-53.70222	10.57771	44.75185	165.98868	293.73487	305.12625	249.79669	206.67218	126.11885	0
141	39.86983	63.46626	23.59643	-51.26121	8.1367	44.75185	165.98868	293.73487	307.56726	249.79669	206.67218	126.11885	0
142	39.86983	61.02525	21.15542	-51.26121	10.57771	42.31084	165.98868	293.73487	307.56726	252.2377	206.67218	123.67784	0
143	42.31084	61.02525	18.71441	-51.26121	13.01872	39.86983	170.8707	296.17588	310.00827	257.11972	209.11319	123.67784	0
144	49.63387	68.34828	18.71441	-58.58424	15.45973	44.75185	173.31171	301.0579	314.89029	264.44275	213.99521	128.55986	0
145	54.51589	73.2303	18.71441	-63.46626	17.90074	47.19286	178.19373	305.93992	319.77231	269.32477	218.87723	131.00087	0
146	54.51589	75.67131	21.15542	-65.90727	17.90074	49.63387	178.19373	310.82194	322.21332	269.32477	218.87723	131.00087	0
147	54.51589	75.67131	21.15542	-65.90727	17.90074	49.63387	178.19373	310.82194	324.65433	269.32477	218.87723	133.44188	0
148	54.51589	78.11232	23.59643	-65.90727	15.45973	52.07488	180.63474	315.70396	329.53635	274.20679	221.31824	138.3239	0
149	52.07488	80.55333	28.47845	-65.90727	13.01872	54.51589	183.07575	320.58598	331.97736	276.6478	223.75925	140.76491	0
150	59.39791	87.87636	28.47845	-73.2303	15.45973	59.39791	185.51676	325.468	334.41837	279.08881	226.20026	145.64693	0
151	61.83892	92.75838	30.91946	-78.11232	15.45973	61.83892	187.95777	327.90901	339.30039	279.08881	231.08228	145.64693	0
152	61.83892	92.75838	30.91946	-78.11232	15.45973	61.83892	187.95777	327.90901	339.30039	281.52982	231.08228	148.08794	0
153	59.39791	87.87636	28.47845	-73.2303	15.45973	59.39791	187.95777	327.90901	336.85938	283.97083	231.08228	145.64693	0
154	54.51589	82.99434	28.47845	-68.34828	13.01872	56.9569	187.95777	323.02699	334.41837	283.97083	231.08228	143.20592	0
155	49.63387	75.67131	26.03744	-63.46626	13.01872	52.07488	185.51676	320.58598	331.97736	281.52982	231.08228	143.20592	0
156	44.75185	70.78929	26.03744	-58.58424	10.57771	49.63387	183.07575	320.58598	331.97736	279.08881	228.64127	143.20592	0
157	47.19286	75.67131	28.47845	-61.02525	10.57771	52.07488	183.07575	318.14497	331.97736	279.08881	228.64127	145.64693	0
158	52.07488	78.11232	26.03744	-65.90727	13.01872	52.07488	183.07575	318.14497	331.97736	279.08881	228.64127	145.64693	0
159	52.07488	78.11232	26.03744	-65.90727	13.01872	52.07488	183.07575	320.58598	331.97736	279.08881	226.20026	145.64693	0
160	56.9569	85.43535	28.47845	-70.78929	15.45973	56.9569	183.07575	318.14497	331.97736	281.52982	228.64127	148.08794	0
161	64.27993	92.75838	28.47845	-78.11232	17.90074	61.83892	183.07575	318.14497	331.97736	281.52982	228.64127	150.52895	0
162	69.16195	97.6404	28.47845	-82.99434	20.34175	64.27993	183.07575	318.14497	329.53635	281.52982	228.64127	150.52895	0
163	81.367	107.40444	26.03744	-95.19939	27.66478	66.72094	187.95777	315.70396	329.53635	283.97083	231.08228	152.96996	0
164	88.69003	117.16848	28.47845	-102.52242	30.10579	74.04397	187.95777	315.70396	329.53635	283.97083	233.52329	155.41097	0
165	96.01306	122.0505	26.03744	-109.84545	34.98781	74.04397	187.95777	315.70396	327.09534	283.97083	233.52329	155.41097	0
166	96.01306	122.0505	26.03744	-109.84545	34.98781	74.04397	185.51676	310.82194	322.21332	279.08881	226.20026	150.52895	0
167	91.13104	117.16848	26.03744	-104.96343	32.5468	71.60296	180.63474	303.49891	314.89029	271.76578	221.31824	148.08794	0
168	88.69003	117.16848	28.47845	-102.52242	30.10579	74.04397	178.19373	298.61689	310.00827	266.88376	213.99521	145.64693	0
169	83.80801	112.28646	28.47845	-97.6404	27.66478	71.60296	173.31171	293.73487	305.12625	259.56073	209.11319	143.20592	0
170	83.80801	112.28646	28.47845	-97.6404	27.66478	71.60296	170.8707	286.41184	297.80322	252.2377	204.23117	140.76491	0
171	86.24902	114.72747	28.47845	-100.08141	30.10579	71.60296	168.42969	281.52982	292.9212	247.35568	201.79016	140.76491	0
172	88.69003	114.72747	26.03744	-102.52242	32.5468	71.60296	165.98868	274.20679	288.03918	242.47366	196.90814	138.3239	0
173	93.57205	114.72747	21.15542	-104.96343	37.42882	69.16195	165.98868	269.32477	280.71615	240.03265	192.02612	135.88289	0
174	96.01306	119.60949	23.59643	-107.40444	37.42882	71.60296	165.98868	264.44275	275.83413	237.59164	192.02612	133.44188	0
175	103.33609	126.93252	23.59643	-114.72747	39.86983	76.48498	165.98868	262.00174	273.39312	235.15063	192.02612	133.44188	0
176	110.65912	136.69656	26.03744	-124.49151	42.31084	81.367	165.98868	257.11972	270.95211	232.70962	189.58511	135.88289	0
177	113.10013	141.57858	28.47845	-126.93252	42.31084	86.24902	161.10666	249.79669	263.62908	225.38659	187.1441	135.88289	0
178	113.10013	141.57858	28.47845	-126.93252	42.31084	86.24902	158.66565	244.91467	258.74706	220.50457	179.82107	133.44188	0
179	110.65912	139.13757	28.47845	-124.49151	42.31084	83.80801	151.34262	237.59164	251.42403	213.18154	174.93905	131.00087	0
180	105.7771	136.69656	30.91946	-122.0505	37.42882	83.80801	146.4606	227.8276	239.21898	205.85851	167.61602	128.55986	0
181	103.33609	134.25555	30.91946	-119.60949	37.42882	83.80801	139.13757	218.06356	231.89595	196.09447	162.734	123.67784	0
182	98.45407	129.37353	30.91946	-114.72747	34.98781	81.367	131.81454	205.85851	219.6909	186.33043	155.41097	118.79582	0
183	93.57205	122.0505	28.47845	-107.40444	32.5468	76.48498	126.93252	193.65346	207.48585	179.0074	148.08794	113.9138	0
184	88.69003	117.16848	28.47845	-102.52242	30.10579	74.04397	119.60949	181.44841	195.2808	169.24336	143.20592	109.03178	0
185	83.80801	114.72747	30.91946	-100.08141	27.66478	74.04397	114.72747	171.68437	185.51676	161.92033	138.3239	104.14976	0
186	78.92599	112.28646	33.36047	-95.19939	22.78276	74.04397	109.84545	159.47932	175.75272	152.15629	131.00087	101.70875	0
187	76.48498	112.28646	35.80148	-95.19939	20.34175	74.04397	104.96343	149.71528	165.98868	144.83326	126.11885	101.70875	0
188	76.48498	109.84545	33.36047	-92.75838	22.78276	71.60296	97.6404	142.39225	158.66565	135.06922	118.79582	96.82673	0
189	71.60296	107.40444	35.80148	-90.31737	17.90074	71.60296	92.75838	132.62821	151.34262	127.74619	111.47279	94.38572	0
190	69.16195	104.96343	35.80148	-87.87636	17.90074	71.60296	85.43535	122.86417	139.13757	117.98215	106.59077	91.94471	0
191	66.72094	102.52242	35.80148	-85.43535	15.45973	69.16195	80.55333	113.10013	131.81454	108.21811	99.26774	87.06269	0
192	61.83892	95.19939	33.36047	-78.11232	15.45973	64.27993	73.2303	103.33609	119.60949	100.89508	91.94471	82.18067	0
193	54.51589	85.43535	30.91946	-70.78929	13.01872	59.39791	68.34828	91.13104	107.40444	93.57205	82.18067	74.85764	0
194	44.75185	73.2303	28.47845	-58.58424	8.1367	52.07488	61.02525	81.367	95.19939	81.367	74.85764	65.0936	0
195	37.42882	63.46626	26.03744	-51.26121	5.69569	44.75185	53.70222	69.16195	85.43535	71.60296	67.53461	57.77057	0
196	30.10579	58.58424	28.47845	-43.93818	0.81367	44.75185	48.8202	61.83892	75.67131	61.83892	60.21158	52.88855	0
197	20.34175	48.8202	28.47845	-34.17414	-4.88202	39.86983	41.49717	49.63387	63.46626	52.07488	52.88855	48.00653	0
198	10.57771	39.05616	28.47845	-24.4101	-9.76404	34.98781	34.17414	41.49717	53.70222	42.31084	43.12451	40.6835	0
199	0.81367	26.85111	26.03744	-14.64606	-12.20505	27.66478	26.85111	31.73313	43.12451	32.5468	33.36047	33.36047	0
200	-12.20505	9.76404	21.15542	0	-17.08707	15.45973	17.08707	19.52808	33.36047	21.96909	23.59643	26.03744	0
201	-21.96909	-0.81367	21.15542	10.57771	-21.96909	10.57771	8.95037	12.20505	23.59643	12.20505	13.01872	21.15542	0
202	-19.52808	-0.81367	18.71441	8.1367	-19.52808	8.1367	8.95037	4.88202	18.71441	9.76404	13.01872	18.71441	0
203	-12.20505	4.88202	16.2734	3.25468	-14.64606	10.57771	8.95037	2.44101	13.83239	9.76404	10.57771	18.71441	0
204	-7.32303	7.32303	13.83239	0	-9.76404	10.57771	8.95037	-2.44101	11.39138	9.76404	10.57771	16.2734	0
205	-2.44101	12.20505	13.83239	-4.88202	-7.32303	13.01872	8.95037	-4.88202	8.95037	7.32303	10.57771	13.83239	0
206	-2.44101	14.64606	16.2734	-7.32303	-9.76404	15.45973	8.95037	-7.32303	6.50936	4.88202	5.69569	13.83239	0
207	-2.44101	14.64606	16.2734	-7.32303	-9.76404	15.45973	8.95037	-12.20505	4.06835	2.44101	5.69569	13.83239	0
208	3.25468	19.52808	16.2734	-12.20505	-7.32303	17.90074	8.95037	-12.20505	4.06835	2.44101	3.25468	13.83239	0
209	10.57771	24.4101	13.83239	-17.08707	-2.44101	20.34175	8.95037	-9.76404	4.06835	0	3.25468	13.83239	0
210	3.25468	19.52808	16.2734	-12.20505	-7.32303	17.90074	4.06835	-17.08707	-3.25468	-4.88202	-1.62734	11.39138	0
211	-4.88202	7.32303	11.39138	-2.44101	-7.32303	8.1367	-0.81367	-21.96909	-8.1367	-9.76404	-6.50936	6.50936	0
212	-12.20505	-0.81367	11.39138	5.69569	-12.20505	5.69569	-3.25468	-26.85111	-13.01872	-12.20505	-8.95037	3.25468	0
213	-19.52808	-5.69569	13.83239	10.57771	-17.08707	3.25468	-5.69569	-29.29212	-17.90074	-14.64606	-11.39138	3.25468	0
214	-19.52808	-5.69569	13.83239	10.57771	-17.08707	3.25468	-5.69569	-29.29212	-17.90074	-12.20505	-8.95037	0.81367	0
215	-19.52808	-5.69569	13.83239	10.57771	-17.08707	3.25468	-3.25468	-29.29212	-17.90074	-12.20505	-8.95037	0.81367	0
216	-19.52808	-5.69569	13.83239	10.57771	-17.08707	3.25468	-0.81367	-29.29212	-17.90074	-9.76404	-8.95037	3.25468	0
217	-19.52808	-5.69569	13.83239	10.57771	-17.08707	3.25468	-0.81367	-29.29212	-17.90074	-9.76404	-8.95037	3.25468	0
218	-17.08707	-0.81367	16.2734	8.1367	-17.08707	8.1367	-0.81367	-24.4101	-15.45973	-7.32303	-6.50936	3.25468	0
219	-17.08707	-0.81367	16.2734	8.1367	-17.08707	8.1367	-0.81367	-21.96909	-13.01872	-7.32303	-6.50936	3.25468	0
220	-19.52808	-0.81367	18.71441	8.1367	-19.52808	8.1367	-0.81367	-24.4101	-17.90074	-7.32303	-6.50936	3.25468	0
221	-21.96909	-5.69569	16.2734	13.01872	-19.52808	5.69569	-3.25468	-26.85111	-17.90074	-12.20505	-8.95037	3.25468	0
222	-24.4101	-10.57771	13.83239	15.45973	-19.52808	0	-5.69569	-31.73313	-22.78276	-12.20505	-11.39138	0.81367	0
223	-26.85111	-15.45973	11.39138	20.34175	-19.52808	-2.44101	-5.69569	-31.73313	-25.22377	-12.20505	-13.83239	-1.62734	0
224	-29.29212	-17.90074	11.39138	22.78276	-21.96909	-4.88202	-5.69569	-31.73313	-27.66478	-12.20505	-13.83239	-4.06835	0
225	-31.73313	-20.34175	11.39138	25.22377	-21.96909	-4.88202	-3.25468	-31.73313	-27.66478	-12.20505	-13.83239	-6.50936	0
226	-31.73313	-17.90074	13.83239	22.78276	-24.4101	-2.44101	-0.81367	-31.73313	-25.22377	-9.76404	-13.83239	-6.50936	0
227	-31.73313	-13.01872	18.71441	20.34175	-26.85111	3.25468	-0.81367	-29.29212	-25.22377	-9.76404	-13.83239	-4.06835	0
228	-31.73313	-13.01872	18.71441	20.34175	-26.85111	3.25468	-0.81367	-29.29212	-22.78276	-9.76404	-13.83239	-1.62734	0
229	-29.29212	-10.57771	18.71441	17.90074	-24.4101	3.25468	-0.81367	-26.85111	-20.34175	-7.32303	-13.83239	-1.62734	0
230	-31.73313	-10.57771	21.15542	20.34175	-26.85111	5.69569	-0.81367	-26.85111	-20.34175	-7.32303	-11.39138	0.81367	0
231	-41.49717	-17.90074	23.59643	27.66478	-34.17414	3.25468	-0.81367	-26.85111	-22.78276	-9.76404	-11.39138	0.81367	0
232	-48.8202	-25.22377	23.59643	34.98781	-36.61515	-2.44101	-3.25468	-31.73313	-22.78276	-9.76404	-11.39138	-1.62734	0
233	-53.70222	-27.66478	26.03744	39.86983	-41.49717	-2.44101	-5.69569	-31.73313	-25.22377	-9.76404	-11.39138	-1.62734	0
234	-58.58424	-34.98781	23.59643	44.75185	-41.49717	-7.32303	-8.1367	-36.61515	-27.66478	-9.76404	-11.39138	-6.50936	0
235	-70.78929	-47.19286	23.59643	56.9569	-48.8202	-12.20505	-10.57771	-39.05616	-30.10579	-12.20505	-13.83239	-8.95037	0
236	-78.11232	-52.07488	26.03744	64.27993	-53.70222	-14.64606	-10.57771	-39.05616	-32.5468	-14.64606	-16.2734	-8.95037	1500	QRS+0
237	-78.11232	-49.63387	28.47845	61.83892	-53.70222	-12.20505	-10.57771	-36.61515	-32.5468	-14.64606	-13.83239	-8.95037	0
238	-73.2303	-44.75185	28.47845	56.9569	-51.26121	-9.76404	-8.1367	-31.73313	-27.66478	-14.64606	-11.39138	-6.50936	0
239	-65.90727	-34.98781	30.91946	49.63387	-48.8202	-2.44101	-3.25468	-26.85111	-25.22377	-12.20505	-8.95037	-4.06835	0
240	-58.58424	-25.22377	33.36047	39.86983	-46.37919	3.25468	-0.81367	-26.85111	-25.22377	-9.76404	-8.95037	-1.62734	0
241	-56.14323	-22.78276	33.36047	37.42882	-46.37919	5.69569	-0.81367	-24.4101	-25.22377	-12.20505	-6.50936	-1.62734	0
242	-53.70222	-17.90074	35.80148	34.98781	-46.37919	8.1367	1.62734	-24.4101	-22.78276	-9.76404	-6.50936	0.81367	0
243	-46.37919	-13.01872	33.36047	27.66478	-41.49717	10.57771	6.50936	-21.96909	-20.34175	-4.88202	-4.06835	3.25468	0
244	-41.49717	-5.69569	35.80148	22.78276	-39.05616	15.45973	6.50936	-17.08707	-20.34175	-4.88202	0.81367	3.25468	0
245	-43.93818	-8.1367	35.80148	25.22377	-41.49717	13.01872	6.50936	-17.08707	-20.34175	-4.88202	0.81367	3.25468	0
246	-53.70222	-15.45973	38.24249	32.5468	-46.37919	10.57771	4.06835	-21.96909	-22.78276	-7.32303	-4.06835	0.81367	0
247	-61.02525	-20.34175	40.6835	39.86983	-51.26121	10.57771	1.62734	-24.4101	-22.78276	-9.76404	-6.50936	-1.62734	0
248	-65.90727	-25.22377	40.6835	44.75185	-53.70222	8.1367	-3.25468	-24.4101	-22.78276	-12.20505	-8.95037	-1.62734	0
249	-70.78929	-27.66478	43.12451	47.19286	-58.58424	8.1367	-3.25468	-21.96909	-22.78276	-12.20505	-11.39138	-1.62734	0
250	-63.46626	-22.78276	40.6835	42.31084	-53.70222	8.1367	-3.25468	-19.52808	-22.78276	-9.76404	-6.50936	0.81367	0
251	-61.02525	-17.90074	43.12451	37.42882	-53.70222	13.01872	-3.25468	-19.52808	-20.34175	-9.76404	-6.50936	0.81367	0
252	-63.46626	-22.78276	40.6835	42.31084	-53.70222	8.1367	-3.25468	-24.4101	-20.34175	-9.76404	-6.50936	0.81367	0
253	-65.90727	-25.22377	40.6835	44.75185	-53.70222	8.1367	-3.25468	-26.85111	-22.78276	-9.76404	-8.95037	-1.62734	0
254	-58.58424	-22.78276	35.80148	39.86983	-48.8202	5.69569	-3.25468	-26.85111	-20.34175	-4.88202	-4.06835	-1.62734	0
255	-56.14323	-17.90074	38.24249	34.98781	-48.8202	10.57771	-3.25468	-26.85111	-20.34175	-4.88202	-1.62734	0.81367	0
256	-58.58424	-20.34175	38.24249	37.42882	-48.8202	8.1367	-0.81367	-26.85111	-20.34175	-4.88202	-4.06835	0.81367	0
257	-58.58424	-15.45973	43.12451	34.98781	-51.26121	13.01872	-0.81367	-26.85111	-20.34175	-4.88202	-1.62734	0.81367	0
258	-56.14323	-13.01872	43.12451	32.5468	-51.26121	15.45973	-0.81367	-24.4101	-20.34175	-4.88202	-1.62734	3.25468	0
259	-58.58424	-13.01872	45.56552	34.98781	-53.70222	15.45973	-0.81367	-24.4101	-17.90074	-4.88202	-4.06835	3.25468	0
260	-58.58424	-10.57771	48.00653	32.5468	-53.70222	17.90074	-0.81367	-24.4101	-20.34175	-4.88202	-4.06835	3.25468	0
261	-51.26121	-3.25468	48.00653	25.22377	-51.26121	22.78276	-0.81367	-24.4101	-17.90074	-4.88202	-1.62734	3.25468	0
262	-46.37919	-0.81367	45.56552	22.78276	-46.37919	22.78276	1.62734	-21.96909	-17.90074	-2.44101	0.81367	3.25468	0
263	-43.93818	2.44101	45.56552	20.34175	-43.93818	22.78276	4.06835	-21.96909	-17.90074	0	0.81367	3.25468	0
264	-41.49717	2.44101	43.12451	17.90074	-41.49717	22.78276	4.06835	-21.96909	-17.90074	2.44101	0.81367	3.25468	0
265	-39.05616	4.88202	43.12451	15.45973	-41.49717	22.78276	6.50936	-19.52808	-15.45973	2.44101	3.25468	3.25468	0
266	-39.05616	7.32303	45.56552	15.45973	-41.49717	25.22377	8.95037	-19.52808	-15.45973	2.44101	0.81367	3.25468	0
267	-43.93818	-0.81367	43.12451	20.34175	-43.93818	20.34175	4.06835	-21.96909	-17.90074	-2.44101	-1.62734	3.25468	0
268	-48.8202	-0.81367	48.00653	22.78276	-48.8202	22.78276	4.06835	-21.96909	-17.90074	-2.44101	-4.06835	0.81367	0
269	-53.70222	-0.81367	52.88855	25.22377	-53.70222	25.22377	4.06835	-19.52808	-17.90074	-2.44101	-4.06835	0.81367	0
270	-61.02525	-5.69569	55.32956	32.5468	-58.58424	25.22377	4.06835	-19.52808	-17.90074	-4.88202	-4.06835	0.81367	0
271	-68.34828	-8.1367	60.21158	37.42882	-65.90727	25.22377	6.50936	-19.52808	-17.90074	-4.88202	-4.06835	0.81367	0
272	-75.67131	-15.45973	60.21158	44.75185	-68.34828	22.78276	6.50936	-19.52808	-20.34175	-4.88202	-4.06835	0.81367	0
273	-78.11232	-13.01872	65.0936	44.75185	-73.2303	25.22377	8.95037	-17.08707	-17.90074	0	-4.06835	3.25468	0
274	-78.11232	-10.57771	67.53461	42.31084	-73.2303	27.66478	14.64606	-12.20505	-13.01872	4.88202	0.81367	3.25468	0
275	-80.55333	-5.69569	74.85764	42.31084	-78.11232	34.98781	19.52808	-9.76404	-10.57771	9.76404	5.69569	8.95037	0
276	-78.11232	2.44101	79.73966	37.42882	-78.11232	39.86983	24.4101	-4.88202	-3.25468	14.64606	10.57771	13.83239	0
277	-70.78929	12.20505	82.18067	27.66478	-75.67131	47.19286	24.4101	-2.44101	-0.81367	17.08707	13.01872	21.15542	0
278	-63.46626	21.96909	84.62168	20.34175	-73.2303	52.07488	26.85111	0	4.06835	21.96909	16.2734	26.03744	0
279	-56.14323	29.29212	84.62168	13.01872	-70.78929	56.9569	29.29212	4.88202	8.95037	25.22377	21.15542	30.91946	0
280	-53.70222	39.05616	91.94471	5.69569	-73.2303	64.27993	34.17414	7.32303	11.39138	30.10579	26.03744	35.80148	0
281	-48.8202	48.8202	96.82673	0	-73.2303	71.60296	36.61515	12.20505	16.2734	34.98781	33.36047	43.12451	0
282	-46.37919	56.14323	101.70875	-4.88202	-73.2303	78.92599	41.49717	14.64606	18.71441	39.86983	38.24249	45.56552	0
283	-41.49717	63.46626	104.14976	-12.20505	-73.2303	83.80801	46.37919	17.08707	23.59643	49.63387	45.56552	50.44754	0
284	-43.93818	65.90727	109.03178	-12.20505	-75.67131	86.24902	51.26121	19.52808	26.03744	54.51589	50.44754	52.88855	0
285	-51.26121	65.90727	116.35481	-7.32303	-82.99434	91.13104	51.26121	21.96909	28.47845	59.39791	55.32956	55.32956	0
286	-51.26121	68.34828	118.79582	-9.76404	-85.43535	93.57205	53.70222	24.4101	28.47845	59.39791	60.21158	60.21158	0
287	-51.26121	73.2303	123.67784	-12.20505	-87.87636	98.45407	51.26121	24.4101	30.91946	61.83892	62.65259	65.0936	0
288	-48.8202	75.67131	123.67784	-14.64606	-85.43535	98.45407	48.8202	24.4101	30.91946	61.83892	62.65259	65.0936	0
289	-39.05616	80.55333	118.79582	-21.96909	-78.11232	98.45407	46.37919	26.85111	33.36047	64.27993	65.0936	69.97562	0
290	-31.73313	85.43535	116.35481	-26.85111	-73.2303	100.89508	43.93818	21.96909	30.91946	61.83892	67.53461	72.41663	0
291	-24.4101	85.43535	109.03178	-31.73313	-65.90727	96.01306	39.05616	19.52808	30.91946	59.39791	67.53461	72.41663	0
292	-17.08707	87.87636	104.14976	-36.61515	-61.02525	96.01306	34.17414	17.08707	26.03744	56.9569	65.0936	72.41663	0
293	-7.32303	90.31737	96.82673	-41.49717	-51.26121	93.57205	34.17414	14.64606	23.59643	54.51589	65.0936	69.97562	0
294	-4.88202	87.87636	91.94471	-41.49717	-48.8202	88.69003	29.29212	12.20505	23.59643	54.51589	62.65259	67.53461	0
295	-2.44101	85.43535	87.06269	-41.49717	-43.93818	86.24902	24.4101	7.32303	18.71441	49.63387	60.21158	65.0936	0
296	-7.32303	80.55333	87.06269	-36.61515	-46.37919	83.80801	21.96909	4.88202	16.2734	42.31084	52.88855	60.21158	0
297	-12.20505	73.2303	84.62168	-31.73313	-48.8202	78.92599	14.64606	-2.44101	11.39138	34.98781	48.00653	57.77057	0
298	-19.52808	61.02525	79.73966	-21.96909	-48.8202	69.16195	8.95037	-4.88202	6.50936	30.10579	40.6835	52.88855	0
299	-24.4101	53.70222	77.29865	-14.64606	-51.26121	64.27993	4.06835	-9.76404	4.06835	25.22377	35.80148	50.44754	0
300	-31.73313	46.37919	77.29865	-7.32303	-53.70222	61.83892	-0.81367	-14.64606	-3.25468	19.52808	30.91946	48.00653	0
301	-34.17414	39.05616	72.41663	-2.44101	-53.70222	54.51589	-3.25468	-17.08707	-3.25468	17.08707	28.47845	48.00653	0
302	-36.61515	34.17414	69.97562	0	-53.70222	52.07488	-5.69569	-19.52808	-5.69569	17.08707	28.47845	45.56552	0
303	-41.49717	26.85111	67.53461	5.69569	-53.70222	47.19286	-5.69569	-21.96909	-8.1367	17.08707	28.47845	43.12451	0
304	-46.37919	21.96909	67.53461	10.57771	-56.14323	44.75185	-3.25468	-21.96909	-8.1367	19.52808	30.91946	40.6835	0
305	-51.26121	21.96909	72.41663	13.01872	-61.02525	47.19286	1.62734	-19.52808	-5.69569	19.52808	30.91946	40.6835	0
306	-58.58424	17.08707	74.85764	20.34175	-65.90727	44.75185	1.62734	-19.52808	-5.69569	19.52808	30.91946	40.6835	0
307	-68.34828	12.20505	79.73966	27.66478	-73.2303	44.75185	1.62734	-21.96909	-5.69569	17.08707	30.91946	38.24249	0
308	-73.2303	7.32303	79.73966	32.5468	-75.67131	42.31084	1.62734	-21.96909	-5.69569	17.08707	30.91946	38.24249	0
309	-75.67131	7.32303	82.18067	32.5468	-78.11232	44.75185	1.62734	-21.96909	-5.69569	17.08707	28.47845	38.24249	0
310	-75.67131	7.32303	82.18067	32.5468	-78.11232	44.75185	1.62734	-21.96909	-8.1367	12.20505	26.03744	35.80148	0
311	-78.11232	4.88202	82.18067	34.98781	-80.55333	42.31084	-3.25468	-24.4101	-10.57771	7.32303	23.59643	30.91946	0
312	-80.55333	-0.81367	79.73966	39.86983	-80.55333	39.86983	-3.25468	-29.29212	-15.45973	2.44101	18.71441	28.47845	0
313	-80.55333	-0.81367	79.73966	39.86983	-80.55333	39.86983	-3.25468	-31.73313	-17.90074	0	13.01872	23.59643	0
314	-82.99434	-5.69569	77.29865	42.31084	-80.55333	34.98781	-5.69569	-31.73313	-20.34175	-4.88202	13.01872	18.71441	0
315	-87.87636	-10.57771	77.29865	47.19286	-82.99434	32.5468	-5.69569	-34.17414	-22.78276	-7.32303	8.1367	13.83239	0
316	-92.75838	-15.45973	77.29865	52.07488	-85.43535	30.10579	-5.69569	-34.17414	-25.22377	-9.76404	3.25468	8.95037	0
317	-104.96343	-27.66478	77.29865	64.27993	-92.75838	25.22377	-10.57771	-39.05616	-30.10579	-14.64606	-1.62734	3.25468	0
318	-114.72747	-37.42882	77.29865	74.04397	-97.6404	20.34175	-15.45973	-41.49717	-30.10579	-19.52808	-6.50936	0.81367	-1500	QRS-0
319	-124.49151	-44.75185	79.73966	83.80801	-102.52242	17.90074	-17.90074	-41.49717	-32.5468	-19.52808	-8.95037	-1.62734	0
320	-134.25555	-54.51589	79.73966	93.57205	-107.40444	13.01872	-20.34175	-43.93818	-34.98781	-21.96909	-11.39138	-4.06835	0
321	-141.57858	-59.39791	82.18067	98.45407	-112.28646	10.57771	-20.34175	-43.93818	-34.98781	-21.96909	-11.39138	-6.50936	0
322	-148.90161	-64.27993	84.62168	105.7771	-117.16848	10.57771	-22.78276	-46.37919	-32.5468	-21.96909	-11.39138	-6.50936	0
323	-153.78363	-69.16195	84.62168	110.65912	-119.60949	8.1367	-22.78276	-46.37919	-32.5468	-21.96909	-11.39138	-8.95037	0
324	-158.66565	-74.04397	84.62168	115.54114	-122.0505	5.69569	-25.22377	-48.8202	-34.98781	-21.96909	-11.39138	-11.39138	0
325	-165.98868	-83.80801	82.18067	122.86417	-124.49151	-2.44101	-27.66478	-51.26121	-34.98781	-21.96909	-16.2734	-13.83239	0
326	-178.19373	-91.13104	87.06269	132.62821	-134.25555	-2.44101	-27.66478	-51.26121	-37.42882	-24.4101	-18.71441	-16.2734	0
327	-180.63474	-93.57205	87.06269	135.06922	-134.25555	-4.88202	-27.66478	-51.26121	-37.42882	-24.4101	-18.71441	-16.2734	0
328	-178.19373	-91.13104	87.06269	132.62821	-134.25555	-2.44101	-25.22377	-48.8202	-37.42882	-21.96909	-16.2734	-16.2734	0
329	-178.19373	-86.24902	91.94471	130.1872	-136.69656	3.25468	-22.78276	-46.37919	-34.98781	-21.96909	-13.83239	-13.83239	0
330	-175.75272	-81.367	94.38572	127.74619	-136.69656	5.69569	-22.78276	-43.93818	-34.98781	-19.52808	-13.83239	-11.39138	0
331	-170.8707	-76.48498	94.38572	122.86417	-134.25555	8.1367	-20.34175	-41.49717	-32.5468	-17.08707	-11.39138	-8.95037	0
332	-163.54767	-69.16195	94.38572	115.54114	-129.37353	13.01872	-17.90074	-36.61515	-27.66478	-12.20505	-8.95037	-6.50936	0
333	-158.66565	-61.83892	96.82673	108.21811	-129.37353	17.90074	-13.01872	-34.17414	-22.78276	-7.32303	-6.50936	-4.06835	0
334	-151.34262	-56.9569	94.38572	103.33609	-124.49151	17.90074	-10.57771	-29.29212	-20.34175	-4.88202	0.81367	-1.62734	0
335	-148.90161	-52.07488	96.82673	98.45407	-124.49151	22.78276	-10.57771	-29.29212	-17.90074	-2.44101	0.81367	0.81367	0
336	-153.78363	-54.51589	99.26774	103.33609	-126.93252	22.78276	-13.01872	-31.73313	-17.90074	0	0.81367	3.25468	0
337	-161.10666	-59.39791	101.70875	108.21811	-131.81454	20.34175	-17.90074	-31.73313	-20.34175	0	3.25468	3.25468	0
338	-168.42969	-64.27993	104.14976	115.54114	-136.69656	20.34175	-17.90074	-39.05616	-27.66478	0	8.1367	6.50936	0
339	-173.31171	-64.27993	109.03178	117.98215	-141.57858	22.78276	-22.78276	-46.37919	-25.22377	-9.76404	-1.62734	16.2734	0
340	-180.63474	-66.72094	113.9138	122.86417	-148.90161	22.78276	-39.86983	-58.58424	-27.66478	-2.44101	5.69569	23.59643	0
341	-222.13191	-105.7771	116.35481	161.92033	-170.8707	5.69569	-71.60296	-82.99434	-37.42882	-7.32303	21.15542	30.91946	0
342	-209.92686	-83.80801	126.11885	144.83326	-168.42969	20.34175	-78.92599	-85.43535	-32.5468	27.66478	45.56552	30.91946	0
343	-156.22464	-20.34175	135.88289	86.24902	-146.4606	56.9569	-78.92599	-80.55333	-17.90074	52.07488	82.18067	26.03744	0
344	-165.98868	-37.42882	128.55986	100.89508	-148.90161	44.75185	-117.98215	-124.49151	-54.51589	30.10579	67.53461	11.39138	0
345	-153.78363	-64.27993	89.5037	108.21811	-122.0505	13.01872	-157.03831	-185.51676	-96.01306	-19.52808	21.15542	-6.50936	0
346	-126.93252	-105.7771	21.15542	115.54114	-75.67131	-43.93818	-213.18154	-256.30605	-186.33043	-90.31737	-77.29865	-30.91946	0
347	-90.31737	-147.27427	-57.77057	117.98215	-17.08707	-102.52242	-266.88376	-334.41837	-274.20679	-173.31171	-106.59077	-65.0936	0
348	-61.02525	-166.80235	-106.59077	113.10013	22.78276	-136.69656	-308.38093	-412.53069	-369.40618	-280.71615	-184.70309	-113.9138	0
349	-7.32303	-152.15629	-145.64693	78.92599	69.16195	-148.90161	-337.67305	-478.43796	-452.40052	-366.1515	-279.90248	-167.61602	0
350	32.5468	-147.27427	-179.82107	56.9569	105.7771	-163.54767	-362.08315	-534.58119	-525.63082	-434.49978	-336.04571	-206.67218	0
351	64.27993	-193.65346	-257.93339	64.27993	159.47932	-224.57292	-379.17022	-576.07836	-579.33304	-485.76099	-358.0148	-155.41097	0
352	149.71528	-152.15629	-301.87157	0	225.38659	-227.01393	-413.34436	-637.10361	-635.47627	-510.17109	-384.86591	-152.96996	0
353	191.21245	-103.33609	-294.54854	-43.93818	242.47366	-197.72181	-452.40052	-678.60078	-667.2094	-524.81715	-375.10187	-152.96996	0
354	232.70962	-3.25468	-235.9643	-114.72747	232.70962	-119.60949	-471.9286	-693.24684	-664.76839	-495.52503	-323.84066	-123.67784	0
355	315.70396	136.69656	-179.82107	-227.01393	247.35568	-21.96909	-484.13365	-712.77492	-637.91728	-454.02786	-255.49238	-40.6835	0
356	427.99042	190.39878	-238.40531	-310.00827	332.79103	-24.4101	-545.1589	-754.27209	-681.85546	-473.55594	-455.6552	-38.24249	0
357	366.96517	41.49717	-326.28167	-205.04484	347.43709	-141.57858	-611.06617	-827.50239	-762.40879	-580.96038	-397.07096	-289.66652	0
358	225.38659	-249.79669	-475.18328	10.57771	349.8781	-361.26948	-659.88637	-898.29168	-889.34131	-781.1232	-638.73095	-453.21419	0
359	110.65912	-396.25729	-506.91641	142.39225	308.38093	-451.58685	-652.56334	-915.37875	-930.83848	-864.11754	-768.10448	-592.35176	0
360	-156.22464	-259.56073	-104.14976	205.85851	-26.85111	-183.07575	-574.45102	-856.79451	-874.69525	-815.29734	-726.60731	-545.97257	0
361	-419.85372	-318.14497	101.70875	366.96517	-261.18807	-109.84545	-454.84153	-754.27209	-774.61384	-712.77492	-621.64388	-465.41924	0
362	-593.16543	-335.23204	257.93339	462.16456	-427.17675	-39.05616	-384.05224	-681.04179	-706.26556	-641.98563	-572.82368	-433.68611	0
363	-695.68785	-408.46234	287.22551	550.04092	-493.08402	-61.02525	-364.52416	-656.63169	-681.85546	-627.33957	-567.94166	-450.77318	0
364	-705.45189	-464.60557	240.84632	584.21506	-473.55594	-112.28646	-374.2882	-656.63169	-684.29647	-632.22159	-580.14671	-470.30126	0
365	-673.71876	-481.69264	192.02612	576.89203	-434.49978	-146.4606	-381.61123	-637.10361	-645.24031	-605.37048	-548.41358	-450.77318	0
366	-595.60644	-442.63648	152.96996	518.30779	-375.91554	-146.4606	-362.08315	-578.51937	-593.9791	-537.0222	-480.0653	-401.95298	0
367	-515.05311	-415.78537	99.26774	464.60557	-307.56726	-158.66565	-332.79103	-515.05311	-518.30779	-468.67392	-419.04005	-358.0148	0
368	-444.26382	-371.84719	72.41663	406.02133	-258.74706	-151.34262	-303.49891	-444.26382	-440.19547	-402.76665	-345.80975	-304.31258	0
369	-349.06443	-276.6478	72.41663	310.82194	-212.36787	-102.52242	-235.15063	-339.30039	-340.11406	-310.00827	-277.46147	-231.08228	0
370	-344.18241	-247.35568	96.82673	293.73487	-222.13191	-75.67131	-169.24336	-246.54201	-244.91467	-229.45494	-206.67218	-174.93905	0
371	-305.12625	-208.29952	96.82673	254.67871	-202.60383	-56.14323	-108.21811	-151.34262	-154.5973	-151.34262	-123.67784	-126.11885	0
372	-214.80888	-120.42316	94.38572	166.80235	-156.22464	-14.64606	-49.63387	-68.34828	-74.04397	-61.02525	-60.21158	-67.53461	0
373	-197.72181	-91.13104	106.59077	142.39225	-153.78363	8.1367	-5.69569	-4.88202	-8.1367	-12.20505	-13.83239	-33.36047	0
374	-229.45494	-108.21811	121.23683	166.80235	-175.75272	5.69569	6.50936	19.52808	16.2734	17.08707	0.81367	-18.71441	0
375	-239.21898	-103.33609	135.88289	169.24336	-187.95777	15.45973	29.29212	49.63387	65.90727	42.31084	23.59643	-4.06835	0
376	-256.30605	-96.01306	160.29299	174.12538	-209.92686	32.5468	51.26121	78.92599	85.43535	66.72094	43.12451	13.83239	0
377	-224.57292	-54.51589	170.05703	137.51023	-197.72181	56.9569	82.99434	117.98215	119.60949	105.7771	74.85764	43.12451	0
378	-236.77797	-44.75185	192.02612	139.95124	-214.80888	74.04397	92.75838	135.06922	139.13757	105.7771	94.38572	52.88855	0
379	-229.45494	-59.39791	170.05703	142.39225	-200.16282	54.51589	90.31737	130.1872	136.69656	103.33609	77.29865	50.44754	0
380	-224.57292	-52.07488	172.49804	137.51023	-200.16282	59.39791	95.19939	152.15629	158.66565	122.86417	96.82673	57.77057	0
381	-219.6909	-47.19286	172.49804	132.62821	-197.72181	61.83892	102.52242	161.92033	168.42969	135.06922	104.14976	62.65259	0
382	-219.6909	-49.63387	170.05703	132.62821	-195.2808	59.39791	104.96343	161.92033	168.42969	137.51023	109.03178	67.53461	0
383	-219.6909	-49.63387	170.05703	132.62821	-195.2808	59.39791	107.40444	169.24336	175.75272	144.83326	113.9138	69.97562	0
384	-219.6909	-49.63387	170.05703	132.62821	-195.2808	59.39791	112.28646	176.56639	183.07575	149.71528	121.23683	72.41663	0
385	-219.6909	-49.63387	170.05703	132.62821	-195.2808	59.39791	114.72747	183.88942	187.95777	154.5973	123.67784	77.29865	0
386	-219.6909	-44.75185	174.93905	130.1872	-197.72181	64.27993	119.60949	188.77144	195.2808	161.92033	126.11885	79.73966	0
387	-219.6909	-42.31084	177.38006	130.1872	-200.16282	66.72094	126.93252	193.65346	200.16282	166.80235	131.00087	84.62168	0
388	-217.24989	-37.42882	179.82107	125.30518	-200.16282	71.60296	131.81454	200.97649	207.48585	174.12538	138.3239	89.5037	0
389	-214.80888	-30.10579	184.70309	120.42316	-200.16282	76.48498	139.13757	208.29952	214.80888	181.44841	145.64693	94.38572	0
390	-214.80888	-27.66478	187.1441	120.42316	-202.60383	78.92599	144.01959	213.18154	219.6909	188.77144	150.52895	96.82673	0
391	-209.92686	-20.34175	189.58511	113.10013	-200.16282	83.80801	148.90161	220.50457	227.01393	196.09447	157.85198	101.70875	0
392	-202.60383	-10.57771	192.02612	105.7771	-197.72181	91.13104	156.22464	227.8276	234.33696	203.4175	162.734	106.59077	0
393	-195.2808	-3.25468	192.02612	98.45407	-195.2808	93.57205	161.10666	232.70962	239.21898	210.74053	167.61602	111.47279	0
394	-190.39878	2.44101	192.02612	93.57205	-190.39878	96.01306	165.98868	240.03265	246.54201	215.62255	174.93905	116.35481	0
395	-187.95777	7.32303	194.46713	88.69003	-190.39878	100.89508	170.8707	244.91467	251.42403	220.50457	177.38006	121.23683	0
396	-185.51676	12.20505	196.90814	86.24902	-190.39878	103.33609	173.31171	249.79669	256.30605	222.94558	179.82107	123.67784	0
397	-190.39878	7.32303	196.90814	91.13104	-192.83979	100.89508	175.75272	249.79669	256.30605	222.94558	179.82107	126.11885	0
398	-187.95777	9.76404	196.90814	88.69003	-192.83979	103.33609	178.19373	254.67871	261.18807	225.38659	184.70309	128.55986	0
399	-183.07575	14.64606	196.90814	83.80801	-190.39878	105.7771	183.07575	259.56073	266.07009	230.26861	189.58511	133.44188	0
400	-183.07575	17.08707	199.34915	81.367	-190.39878	108.21811	183.07575	262.00174	268.5111	235.15063	194.46713	135.88289	0
401	-185.51676	14.64606	199.34915	83.80801	-192.83979	105.7771	185.51676	266.88376	273.39312	240.03265	199.34915	135.88289	0
402	-185.51676	14.64606	199.34915	83.80801	-192.83979	105.7771	187.95777	269.32477	278.27514	244.91467	201.79016	138.3239	0
403	-187.95777	14.64606	201.79016	86.24902	-195.2808	108.21811	187.95777	271.76578	280.71615	249.79669	204.23117	138.3239	0
404	-192.83979	9.76404	201.79016	91.13104	-197.72181	105.7771	187.95777	274.20679	285.59817	252.2377	209.11319	138.3239	0
405	-195.2808	9.76404	204.23117	91.13104	-200.16282	105.7771	190.39878	279.08881	288.03918	257.11972	209.11319	140.76491	0
406	-197.72181	7.32303	204.23117	93.57205	-200.16282	105.7771	190.39878	281.52982	290.48019	259.56073	211.5542	143.20592	0
407	-205.04484	-0.81367	204.23117	100.89508	-205.04484	100.89508	190.39878	281.52982	290.48019	259.56073	211.5542	143.20592	0
408	-202.60383	-0.81367	201.79016	100.89508	-202.60383	100.89508	192.83979	281.52982	292.9212	262.00174	216.43622	145.64693	0
409	-197.72181	7.32303	204.23117	93.57205	-200.16282	105.7771	195.2808	288.85285	297.80322	266.88376	221.31824	150.52895	0
410	-190.39878	14.64606	204.23117	86.24902	-197.72181	108.21811	200.16282	293.73487	300.24423	274.20679	228.64127	155.41097	0
411	-187.95777	17.08707	204.23117	83.80801	-195.2808	110.65912	202.60383	298.61689	305.12625	279.08881	233.52329	157.85198	0
412	-185.51676	21.96909	206.67218	81.367	-195.2808	113.10013	207.48585	301.0579	310.00827	281.52982	235.9643	162.734	0
413	-183.07575	31.73313	213.99521	74.04397	-197.72181	122.86417	209.92686	305.93992	314.89029	288.85285	240.84632	165.17501	0
414	-178.19373	41.49717	218.87723	66.72094	-197.72181	130.1872	217.24989	313.26295	324.65433	293.73487	248.16935	172.49804	0
415	-173.31171	51.26121	223.75925	59.39791	-197.72181	137.51023	222.13191	320.58598	331.97736	298.61689	253.05137	177.38006	0
416	-170.8707	53.70222	223.75925	56.9569	-197.72181	137.51023	224.57292	325.468	336.85938	301.0579	253.05137	179.82107	0
417	-170.8707	58.58424	228.64127	54.51589	-200.16282	142.39225	227.01393	330.35002	341.7414	301.0579	255.49238	182.26208	0
418	-173.31171	56.14323	228.64127	56.9569	-200.16282	142.39225	227.01393	330.35002	344.18241	303.49891	255.49238	182.26208	0
419	-180.63474	51.26121	231.08228	64.27993	-205.04484	139.95124	227.01393	332.79103	346.62342	303.49891	253.05137	182.26208	0
420	-185.51676	48.8202	233.52329	66.72094	-209.92686	139.95124	229.45494	335.23204	346.62342	305.93992	255.49238	182.26208	0
421	-190.39878	41.49717	231.08228	74.04397	-209.92686	135.06922	229.45494	337.67305	349.06443	308.38093	255.49238	182.26208	0
422	-195.2808	36.61515	231.08228	78.92599	-212.36787	132.62821	231.89595	340.11406	351.50544	308.38093	255.49238	179.82107	0
423	-202.60383	29.29212	231.08228	86.24902	-217.24989	130.1872	231.89595	342.55507	353.94645	310.82194	253.05137	177.38006	0
424	-205.04484	29.29212	233.52329	86.24902	-219.6909	130.1872	234.33696	347.43709	358.82847	313.26295	255.49238	177.38006	0
425	-207.48585	29.29212	235.9643	88.69003	-222.13191	132.62821	239.21898	354.76012	363.71049	315.70396	255.49238	179.82107	0
426	-207.48585	34.17414	240.84632	86.24902	-224.57292	137.51023	244.101	359.64214	371.03352	320.58598	257.93339	184.70309	0
427	-200.16282	43.93818	243.28733	76.48498	-222.13191	142.39225	248.98302	366.96517	375.91554	325.468	262.81541	189.58511	0
428	-190.39878	53.70222	243.28733	66.72094	-217.24989	147.27427	253.86504	374.2882	383.23857	330.35002	267.69743	194.46713	0
429	-183.07575	61.02525	243.28733	59.39791	-212.36787	152.15629	258.74706	379.17022	388.12059	335.23204	270.13844	196.90814	0
430	-183.07575	63.46626	245.72834	59.39791	-214.80888	154.5973	258.74706	381.61123	388.12059	340.11406	275.02046	199.34915	0
431	-178.19373	65.90727	243.28733	54.51589	-209.92686	154.5973	261.18807	384.05224	393.00261	342.55507	279.90248	201.79016	0
432	-175.75272	68.34828	243.28733	52.07488	-209.92686	154.5973	263.62908	388.93426	397.88463	347.43709	282.34349	204.23117	0
433	-175.75272	73.2303	248.16935	49.63387	-212.36787	159.47932	268.5111	391.37527	400.32564	354.76012	287.22551	206.67218	0
434	-175.75272	73.2303	248.16935	49.63387	-212.36787	159.47932	270.95211	396.25729	405.20766	357.20113	292.10753	209.11319	0
435	-180.63474	70.78929	250.61036	54.51589	-214.80888	159.47932	273.39312	398.6983	405.20766	359.64214	292.10753	209.11319	0
436	-185.51676	68.34828	253.05137	56.9569	-219.6909	159.47932	273.39312	401.13931	407.64867	359.64214	294.54854	209.11319	0
437	-183.07575	73.2303	255.49238	54.51589	-219.6909	164.36134	278.27514	403.58032	412.53069	364.52416	299.43056	213.99521	0
438	-180.63474	78.11232	257.93339	49.63387	-219.6909	166.80235	280.71615	408.46234	414.9717	366.96517	301.87157	218.87723	0
439	-178.19373	85.43535	262.81541	44.75185	-219.6909	174.12538	283.15716	413.34436	414.9717	371.84719	306.75359	221.31824	0
440	-178.19373	87.87636	265.25642	44.75185	-222.13191	176.56639	285.59817	413.34436	414.9717	374.2882	309.1946	223.75925	0
441	-175.75272	90.31737	265.25642	42.31084	-219.6909	176.56639	285.59817	415.78537	419.85372	376.72921	314.07662	223.75925	0
442	-175.75272	92.75838	267.69743	39.86983	-222.13191	179.0074	285.59817	415.78537	419.85372	376.72921	314.07662	223.75925	0
443	-173.31171	95.19939	267.69743	37.42882	-219.6909	181.44841	285.59817	418.22638	422.29473	381.61123	316.51763	226.20026	0
444	-180.63474	90.31737	270.13844	44.75185	-224.57292	179.0074	285.59817	418.22638	422.29473	381.61123	318.95864	226.20026	0
445	-187.95777	85.43535	272.57945	49.63387	-229.45494	179.0074	283.15716	415.78537	417.41271	376.72921	314.07662	223.75925	0
446	-192.83979	80.55333	272.57945	54.51589	-231.89595	176.56639	280.71615	415.78537	414.9717	374.2882	311.63561	223.75925	0
447	-190.39878	82.99434	272.57945	52.07488	-231.89595	176.56639	280.71615	413.34436	414.9717	369.40618	311.63561	223.75925	0
448	-190.39878	82.99434	272.57945	52.07488	-231.89595	176.56639	280.71615	413.34436	410.08968	369.40618	306.75359	223.75925	0
449	-185.51676	87.87636	272.57945	47.19286	-229.45494	179.0074	280.71615	413.34436	407.64867	366.96517	306.75359	223.75925	0
450	-180.63474	92.75838	272.57945	42.31084	-227.01393	181.44841	283.15716	413.34436	402.76665	366.96517	306.75359	223.75925	0
451	-178.19373	95.19939	272.57945	39.86983	-224.57292	183.88942	285.59817	413.34436	400.32564	364.52416	306.75359	223.75925	0
452	-178.19373	95.19939	272.57945	39.86983	-224.57292	183.88942	283.15716	410.90335	397.88463	362.08315	301.87157	221.31824	0
453	-180.63474	95.19939	275.02046	42.31084	-227.01393	183.88942	280.71615	406.02133	393.00261	359.64214	299.43056	218.87723	0
454	-178.19373	102.52242	279.90248	37.42882	-229.45494	191.21245	283.15716	406.02133	393.00261	359.64214	301.87157	221.31824	0
455	-173.31171	109.84545	282.34349	30.10579	-227.01393	196.09447	283.15716	406.02133	393.00261	357.20113	301.87157	223.75925	0
456	-168.42969	117.16848	284.7845	25.22377	-227.01393	200.97649	283.15716	403.58032	390.5616	357.20113	299.43056	226.20026	0
457	-165.98868	119.60949	284.7845	22.78276	-224.57292	200.97649	283.15716	396.25729	385.67958	352.31911	296.98955	226.20026	0
458	-170.8707	117.16848	287.22551	25.22377	-229.45494	200.97649	278.27514	388.93426	378.35655	347.43709	292.10753	223.75925	0
459	-180.63474	107.40444	287.22551	34.98781	-234.33696	196.09447	270.95211	379.17022	368.59251	337.67305	284.7845	218.87723	0
460	-185.51676	104.96343	289.66652	39.86983	-236.77797	196.09447	266.07009	371.84719	358.82847	332.79103	282.34349	216.43622	0
461	-175.75272	112.28646	287.22551	30.10579	-231.89595	198.53548	266.07009	366.96517	356.38746	332.79103	282.34349	216.43622	0
462	-170.8707	117.16848	287.22551	25.22377	-229.45494	200.97649	263.62908	362.08315	351.50544	327.90901	277.46147	213.99521	0
463	-178.19373	109.84545	287.22551	32.5468	-231.89595	198.53548	258.74706	354.76012	341.7414	320.58598	272.57945	206.67218	0
464	-180.63474	107.40444	287.22551	34.98781	-234.33696	196.09447	253.86504	344.99608	334.41837	313.26295	267.69743	204.23117	0
465	-178.19373	109.84545	287.22551	32.5468	-231.89595	198.53548	248.98302	340.11406	327.09534	308.38093	262.81541	201.79016	0
466	-175.75272	114.72747	289.66652	30.10579	-231.89595	200.97649	246.54201	332.79103	322.21332	301.0579	257.93339	201.79016	0
467	-170.8707	122.0505	292.10753	22.78276	-231.89595	205.85851	244.101	325.468	314.89029	296.17588	255.49238	201.79016	0
468	-163.54767	129.37353	292.10753	15.45973	-227.01393	210.74053	241.65999	320.58598	310.00827	291.29386	250.61036	201.79016	0
469	-165.98868	126.93252	292.10753	17.90074	-229.45494	208.29952	234.33696	310.82194	300.24423	279.08881	243.28733	196.90814	0
470	-175.75272	117.16848	292.10753	27.66478	-234.33696	203.4175	227.01393	296.17588	285.59817	269.32477	235.9643	192.02612	0
471	-180.63474	109.84545	289.66652	34.98781	-234.33696	198.53548	219.6909	286.41184	273.39312	259.56073	228.64127	184.70309	0
472	-187.95777	100.08141	287.22551	42.31084	-236.77797	193.65346	212.36787	274.20679	263.62908	249.79669	218.87723	177.38006	0
473	-195.2808	92.75838	287.22551	49.63387	-241.65999	188.77144	205.04484	264.44275	251.42403	242.47366	209.11319	170.05703	0
474	-197.72181	87.87636	284.7845	54.51589	-241.65999	186.33043	200.16282	257.11972	244.101	232.70962	204.23117	165.17501	0
475	-197.72181	87.87636	284.7845	54.51589	-241.65999	186.33043	197.72181	249.79669	234.33696	225.38659	196.90814	162.734	0
476	-200.16282	82.99434	282.34349	56.9569	-241.65999	181.44841	192.83979	240.03265	224.57292	215.62255	189.58511	157.85198	0
477	-202.60383	80.55333	282.34349	59.39791	-241.65999	181.44841	185.51676	230.26861	214.80888	205.85851	182.26208	155.41097	0
478	-195.2808	85.43535	279.90248	54.51589	-236.77797	181.44841	183.07575	222.94558	207.48585	200.97649	179.82107	155.41097	0
479	-187.95777	92.75838	279.90248	47.19286	-234.33696	186.33043	180.63474	215.62255	200.16282	193.65346	174.93905	155.41097	0
480	-178.19373	102.52242	279.90248	37.42882	-229.45494	191.21245	178.19373	205.85851	190.39878	188.77144	174.93905	152.96996	0
481	-170.8707	104.96343	275.02046	32.5468	-222.13191	188.77144	173.31171	198.53548	183.07575	183.88942	172.49804	150.52895	0
482	-170.8707	104.96343	275.02046	32.5468	-222.13191	188.77144	168.42969	188.77144	175.75272	179.0074	167.61602	148.08794	0
483	-180.63474	95.19939	275.02046	42.31084	-227.01393	183.88942	158.66565	179.0074	165.98868	169.24336	160.29299	143.20592	0
484	-185.51676	87.87636	272.57945	47.19286	-229.45494	179.0074	151.34262	169.24336	156.22464	161.92033	155.41097	135.88289	0
485	-180.63474	92.75838	272.57945	42.31084	-227.01393	181.44841	146.4606	161.92033	148.90161	154.5973	150.52895	135.88289	0
486	-178.19373	92.75838	270.13844	42.31084	-224.57292	181.44841	141.57858	154.5973	141.57858	144.83326	143.20592	131.00087	0
487	-180.63474	85.43535	265.25642	47.19286	-222.13191	174.12538	134.25555	142.39225	131.81454	135.06922	133.44188	123.67784	0
488	-187.95777	73.2303	260.3744	56.9569	-224.57292	166.80235	126.93252	130.1872	119.60949	125.30518	123.67784	116.35481	0
489	-195.2808	61.02525	255.49238	66.72094	-224.57292	157.03831	117.16848	120.42316	107.40444	113.10013	111.47279	106.59077	0
490	-200.16282	51.26121	250.61036	74.04397	-224.57292	149.71528	109.84545	108.21811	92.75838	103.33609	104.14976	99.26774	0
491	-200.16282	43.93818	243.28733	76.48498	-222.13191	142.39225	104.96343	100.89508	85.43535	96.01306	94.38572	91.94471	0
492	-202.60383	36.61515	238.40531	81.367	-219.6909	137.51023	100.08141	93.57205	78.11232	86.24902	87.06269	84.62168	0
493	-209.92686	26.85111	235.9643	91.13104	-222.13191	130.1872	95.19939	88.69003	70.78929	81.367	77.29865	77.29865	0
494	-217.24989	19.52808	235.9643	98.45407	-227.01393	127.74619	90.31737	81.367	63.46626	74.04397	72.41663	69.97562	0
495	-219.6909	17.08707	235.9643	100.89508	-227.01393	125.30518	87.87636	78.92599	61.02525	69.16195	67.53461	67.53461	0
496	-219.6909	14.64606	233.52329	100.89508	-227.01393	122.86417	87.87636	76.48498	56.14323	61.83892	62.65259	65.0936	0
497	-217.24989	14.64606	231.08228	100.89508	-224.57292	122.86417	85.43535	71.60296	53.70222	56.9569	60.21158	62.65259	0
498	-217.24989	12.20505	228.64127	100.89508	-222.13191	120.42316	82.99434	66.72094	48.8202	52.07488	55.32956	57.77057	0
499	-217.24989	9.76404	226.20026	103.33609	-222.13191	117.98215	80.55333	64.27993	43.12451	47.19286	50.44754	55.32956	0
500	-212.36787	9.76404	221.31824	100.89508	-217.24989	115.54114	78.11232	59.39791	38.24249	44.75185	50.44754	50.44754	0
501	-205.04484	12.20505	216.43622	96.01306	-209.92686	113.10013	75.67131	56.9569	35.80148	42.31084	48.00653	48.00653	0
502	-205.04484	7.32303	211.5542	98.45407	-207.48585	108.21811	73.2303	52.07488	33.36047	39.86983	43.12451	43.12451	0
503	-212.36787	2.44101	213.99521	103.33609	-212.36787	108.21811	70.78929	49.63387	30.91946	37.42882	40.6835	38.24249	0
504	-217.24989	-3.25468	213.99521	108.21811	-217.24989	105.7771	68.34828	47.19286	30.91946	34.98781	38.24249	35.80148	0
505	-214.80888	-0.81367	213.99521	105.7771	-214.80888	105.7771	68.34828	47.19286	30.91946	34.98781	38.24249	35.80148	0
506	-209.92686	-0.81367	209.11319	103.33609	-209.92686	103.33609	68.34828	47.19286	30.91946	34.98781	38.24249	35.80148	0
507	-209.92686	-0.81367	209.11319	103.33609	-209.92686	103.33609	68.34828	44.75185	30.91946	32.5468	38.24249	35.80148	0
508	-207.48585	-0.81367	206.67218	103.33609	-207.48585	103.33609	68.34828	44.75185	30.91946	32.5468	38.24249	35.80148	0
509	-205.04484	-0.81367	204.23117	100.89508	-205.04484	100.89508	68.34828	44.75185	28.47845	32.5468	35.80148	35.80148	0
510	-205.04484	-0.81367	204.23117	100.89508	-205.04484	100.89508	65.90727	41.49717	23.59643	32.5468	35.80148	35.80148	0
511	-202.60383	-3.25468	199.34915	100.89508	-202.60383	98.45407	63.46626	41.49717	23.59643	32.5468	35.80148	30.91946	0
512	-195.2808	-5.69569	189.58511	98.45407	-192.83979	91.13104	61.02525	39.05616	21.15542	30.10579	30.91946	28.47845	0
513	-195.2808	-10.57771	184.70309	100.89508	-190.39878	86.24902	56.14323	36.61515	16.2734	27.66478	28.47845	23.59643	0
514	-197.72181	-17.90074	179.82107	105.7771	-190.39878	81.367	51.26121	31.73313	13.83239	25.22377	26.03744	18.71441	0
515	-197.72181	-22.78276	174.93905	108.21811	-187.95777	76.48498	48.8202	31.73313	11.39138	21.96909	21.15542	16.2734	0
516	-192.83979	-25.22377	167.61602	108.21811	-180.63474	71.60296	46.37919	26.85111	11.39138	19.52808	18.71441	16.2734	0
517	-183.07575	-22.78276	160.29299	100.89508	-173.31171	69.16195	41.49717	24.4101	6.50936	14.64606	16.2734	11.39138	0
518	-170.8707	-27.66478	143.20592	98.45407	-158.66565	56.9569	36.61515	19.52808	1.62734	9.76404	10.57771	6.50936	0
519	-200.16282	-47.19286	152.96996	122.86417	-178.19373	52.07488	31.73313	14.64606	-5.69569	2.44101	0.81367	3.25468	0
520	-129.37353	-25.22377	104.14976	76.48498	-117.16848	39.86983	24.4101	7.32303	-15.45973	-4.88202	-4.06835	-4.06835	0
521	-104.96343	-25.22377	79.73966	64.27993	-92.75838	27.66478	17.08707	0	-20.34175	-9.76404	-8.95037	-11.39138	0
522	-75.67131	-20.34175	55.32956	47.19286	-65.90727	17.90074	12.20505	-4.88202	-25.22377	-17.08707	-16.2734	-18.71441	0
523	-46.37919	-17.90074	28.47845	30.10579	-39.05616	5.69569	6.50936	-9.76404	-32.5468	-21.96909	-23.59643	-26.03744	0
524	-17.08707	-15.45973	0.81367	15.45973	-9.76404	-7.32303	-0.81367	-17.08707	-37.42882	-31.73313	-30.91946	-35.80148	0
525	3.25468	-15.45973	-18.71441	5.69569	10.57771	-17.08707	-10.57771	-24.4101	-44.75185	-39.05616	-40.6835	-43.12451	0
526	25.22377	-13.01872	-38.24249	-7.32303	30.10579	-24.4101	-17.90074	-29.29212	-52.07488	-46.37919	-50.44754	-50.44754	0
527	42.31084	-13.01872	-55.32956	-14.64606	47.19286	-34.17414	-22.78276	-39.05616	-59.39791	-56.14323	-55.32956	-55.32956	0
528	59.39791	-13.01872	-72.41663	-24.4101	64.27993	-41.49717	-30.10579	-43.93818	-64.27993	-58.58424	-60.21158	-57.77057	0
529	105.7771	19.52808	-87.06269	-63.46626	96.01306	-34.17414	-34.98781	-48.8202	-69.16195	-65.90727	-67.53461	-62.65259	0
530	74.04397	-22.78276	-96.82673	-26.85111	83.80801	-58.58424	-42.31084	-56.14323	-78.92599	-70.78929	-74.85764	-67.53461	0
531	83.80801	-25.22377	-109.03178	-29.29212	96.01306	-65.90727	-47.19286	-61.02525	-83.80801	-75.67131	-79.73966	-74.85764	0
532	91.13104	-30.10579	-121.23683	-31.73313	105.7771	-75.67131	-52.07488	-63.46626	-86.24902	-78.11232	-82.18067	-77.29865	0
533	93.57205	-32.5468	-126.11885	-31.73313	108.21811	-78.11232	-54.51589	-65.90727	-88.69003	-78.11232	-87.06269	-82.18067	0
534	93.57205	-39.86983	-133.44188	-26.85111	113.10013	-85.43535	-59.39791	-70.78929	-91.13104	-82.99434	-87.06269	-87.06269	0
535	100.89508	-39.86983	-140.76491	-31.73313	120.42316	-90.31737	-59.39791	-70.78929	-93.57205	-82.99434	-91.94471	-87.06269	0
536	115.54114	-30.10579	-145.64693	-43.93818	130.1872	-87.87636	-59.39791	-70.78929	-93.57205	-82.99434	-91.94471	-84.62168	0
537	137.51023	-15.45973	-152.96996	-61.02525	144.83326	-82.99434	-56.9569	-68.34828	-91.13104	-82.99434	-89.5037	-82.18067	0
538	157.03831	-0.81367	-157.85198	-78.11232	157.03831	-78.11232	-56.9569	-68.34828	-91.13104	-82.99434	-89.5037	-79.73966	0
539	169.24336	2.44101	-167.61602	-85.43535	169.24336	-82.99434	-56.9569	-68.34828	-93.57205	-82.99434	-89.5037	-79.73966	0
540	179.0074	7.32303	-172.49804	-92.75838	176.56639	-82.99434	-59.39791	-70.78929	-98.45407	-85.43535	-91.94471	-79.73966	0
541	186.33043	12.20505	-174.93905	-100.08141	181.44841	-80.55333	-59.39791	-70.78929	-98.45407	-85.43535	-89.5037	-79.73966	0
542	193.65346	12.20505	-182.26208	-102.52242	188.77144	-85.43535	-59.39791	-70.78929	-96.01306	-85.43535	-89.5037	-79.73966	0
543	198.53548	14.64606	-184.70309	-107.40444	191.21245	-85.43535	-61.83892	-70.78929	-98.45407	-85.43535	-91.94471	-82.18067	0
544	198.53548	7.32303	-192.02612	-102.52242	196.09447	-92.75838	-64.27993	-73.2303	-98.45407	-90.31737	-96.82673	-84.62168	0
545	188.77144	-0.81367	-189.58511	-95.19939	188.77144	-95.19939	-66.72094	-75.67131	-103.33609	-95.19939	-104.14976	-89.5037	0
546	186.33043	-5.69569	-192.02612	-90.31737	188.77144	-97.6404	-69.16195	-78.11232	-103.33609	-100.08141	-109.03178	-94.38572	0
547	186.33043	-8.1367	-194.46713	-90.31737	188.77144	-100.08141	-69.16195	-78.11232	-105.7771	-104.96343	-111.47279	-94.38572	0
548	186.33043	-13.01872	-199.34915	-87.87636	191.21245	-104.96343	-71.60296	-80.55333	-105.7771	-104.96343	-113.9138	-96.82673	0
549	191.21245	-13.01872	-204.23117	-90.31737	196.09447	-107.40444	-71.60296	-82.99434	-110.65912	-107.40444	-118.79582	-99.26774	0
550	193.65346	-13.01872	-206.67218	-90.31737	198.53548	-109.84545	-74.04397	-85.43535	-115.54114	-109.84545	-121.23683	-101.70875	0
551	196.09447	-15.45973	-211.5542	-90.31737	203.4175	-112.28646	-74.04397	-85.43535	-115.54114	-109.84545	-121.23683	-104.14976	0
552	198.53548	-15.45973	-213.99521	-92.75838	205.85851	-114.72747	-76.48498	-87.87636	-115.54114	-109.84545	-123.67784	-104.14976	0
553	198.53548	-17.90074	-216.43622	-90.31737	205.85851	-117.16848	-76.48498	-90.31737	-117.98215	-107.40444	-123.67784	-106.59077	0
554	193.65346	-22.78276	-216.43622	-85.43535	203.4175	-119.60949	-76.48498	-90.31737	-117.98215	-107.40444	-123.67784	-106.59077	0
555	188.77144	-25.22377	-213.99521	-82.99434	200.97649	-119.60949	-78.92599	-90.31737	-117.98215	-107.40444	-123.67784	-106.59077	0
556	186.33043	-22.78276	-209.11319	-82.99434	196.09447	-114.72747	-78.92599	-92.75838	-117.98215	-107.40444	-123.67784	-104.14976	0
557	188.77144	-17.90074	-206.67218	-85.43535	196.09447	-112.28646	-74.04397	-92.75838	-115.54114	-102.52242	-118.79582	-99.26774	0
558	193.65346	-13.01872	-206.67218	-90.31737	198.53548	-109.84545	-74.04397	-90.31737	-113.10013	-100.08141	-116.35481	-96.82673	0
559	196.09447	-5.69569	-201.79016	-95.19939	198.53548	-102.52242	-69.16195	-87.87636	-113.10013	-97.6404	-111.47279	-91.94471	0
560	200.97649	-0.81367	-201.79016	-100.08141	200.97649	-100.08141	-66.72094	-87.87636	-113.10013	-92.75838	-109.03178	-87.06269	0
561	208.29952	9.76404	-199.34915	-109.84545	203.4175	-95.19939	-61.83892	-82.99434	-108.21811	-90.31737	-104.14976	-84.62168	0
562	215.62255	17.08707	-199.34915	-117.16848	208.29952	-90.31737	-59.39791	-80.55333	-105.7771	-87.87636	-101.70875	-84.62168	-1250	T-0
563	222.94558	26.85111	-196.90814	-124.49151	210.74053	-85.43535	-56.9569	-75.67131	-100.89508	-82.99434	-99.26774	-79.73966	0
564	230.26861	36.61515	-194.46713	-134.25555	213.18154	-78.11232	-52.07488	-70.78929	-96.01306	-80.55333	-94.38572	-77.29865	0
565	232.70962	43.93818	-189.58511	-139.13757	210.74053	-73.2303	-52.07488	-68.34828	-93.57205	-80.55333	-94.38572	-77.29865	0
566	232.70962	46.37919	-187.1441	-139.13757	210.74053	-70.78929	-49.63387	-68.34828	-91.13104	-80.55333	-96.82673	-77.29865	0
567	235.15063	48.8202	-187.1441	-141.57858	210.74053	-68.34828	-47.19286	-68.34828	-91.13104	-80.55333	-96.82673	-77.29865	0
568	232.70962	41.49717	-192.02612	-136.69656	213.18154	-75.67131	-47.19286	-68.34828	-91.13104	-82.99434	-99.26774	-77.29865	0
569	232.70962	43.93818	-189.58511	-139.13757	210.74053	-73.2303	-47.19286	-68.34828	-91.13104	-82.99434	-99.26774	-77.29865	0
570	237.59164	53.70222	-184.70309	-146.4606	210.74053	-65.90727	-42.31084	-63.46626	-91.13104	-78.11232	-94.38572	-72.41663	0
571	244.91467	65.90727	-179.82107	-156.22464	213.18154	-56.14323	-34.98781	-58.58424	-83.80801	-70.78929	-87.06269	-65.0936	0
572	244.91467	70.78929	-174.93905	-158.66565	210.74053	-51.26121	-30.10579	-53.70222	-76.48498	-65.90727	-82.18067	-60.21158	0
573	247.35568	78.11232	-170.05703	-163.54767	208.29952	-46.37919	-25.22377	-46.37919	-71.60296	-61.02525	-74.85764	-55.32956	0
574	247.35568	82.99434	-165.17501	-165.98868	205.85851	-41.49717	-22.78276	-43.93818	-66.72094	-58.58424	-69.97562	-52.88855	0
575	244.91467	85.43535	-160.29299	-165.98868	203.4175	-36.61515	-20.34175	-41.49717	-64.27993	-56.14323	-69.97562	-48.00653	0
576	249.79669	92.75838	-157.85198	-170.8707	203.4175	-31.73313	-20.34175	-39.05616	-64.27993	-56.14323	-67.53461	-43.12451	0
577	257.11972	97.6404	-160.29299	-178.19373	208.29952	-31.73313	-22.78276	-41.49717	-61.83892	-56.14323	-65.0936	-40.6835	0
578	257.11972	95.19939	-162.734	-175.75272	210.74053	-34.17414	-30.10579	-46.37919	-64.27993	-58.58424	-65.0936	-40.6835	0
579	254.67871	87.87636	-167.61602	-170.8707	210.74053	-39.05616	-37.42882	-51.26121	-69.16195	-63.46626	-67.53461	-40.6835	0
580	254.67871	82.99434	-172.49804	-168.42969	213.18154	-43.93818	-42.31084	-58.58424	-76.48498	-65.90727	-69.97562	-43.12451	0
581	259.56073	80.55333	-179.82107	-170.8707	220.50457	-48.8202	-49.63387	-63.46626	-78.92599	-70.78929	-69.97562	-45.56552	0
582	266.88376	80.55333	-187.1441	-173.31171	227.8276	-53.70222	-54.51589	-65.90727	-78.92599	-70.78929	-72.41663	-48.00653	0
583	276.6478	82.99434	-194.46713	-180.63474	235.15063	-56.14323	-56.9569	-68.34828	-81.367	-70.78929	-72.41663	-48.00653	0
584	283.97083	85.43535	-199.34915	-185.51676	242.47366	-56.14323	-56.9569	-68.34828	-81.367	-75.67131	-72.41663	-48.00653	0
585	286.41184	85.43535	-201.79016	-185.51676	244.91467	-58.58424	-59.39791	-68.34828	-81.367	-78.11232	-74.85764	-48.00653	0
586	288.85285	85.43535	-204.23117	-187.95777	247.35568	-58.58424	-59.39791	-73.2303	-83.80801	-80.55333	-79.73966	-48.00653	0
587	288.85285	85.43535	-204.23117	-187.95777	247.35568	-58.58424	-61.83892	-75.67131	-86.24902	-85.43535	-82.18067	-50.44754	0
588	288.85285	80.55333	-209.11319	-185.51676	249.79669	-63.46626	-64.27993	-80.55333	-91.13104	-90.31737	-87.06269	-52.88855	0
589	283.97083	75.67131	-209.11319	-180.63474	247.35568	-65.90727	-66.72094	-82.99434	-93.57205	-95.19939	-91.94471	-55.32956	0
590	279.08881	70.78929	-209.11319	-175.75272	244.91467	-68.34828	-69.16195	-87.87636	-100.89508	-97.6404	-94.38572	-57.77057	0
591	274.20679	63.46626	-211.5542	-168.42969	242.47366	-73.2303	-71.60296	-87.87636	-100.89508	-100.08141	-96.82673	-60.21158	0
592	264.44275	53.70222	-211.5542	-158.66565	237.59164	-78.11232	-71.60296	-90.31737	-100.89508	-100.08141	-101.70875	-65.0936	0
593	257.11972	48.8202	-209.11319	-153.78363	232.70962	-80.55333	-71.60296	-90.31737	-103.33609	-100.08141	-101.70875	-67.53461	0
594	247.35568	41.49717	-206.67218	-144.01959	227.8276	-82.99434	-71.60296	-90.31737	-103.33609	-102.52242	-104.14976	-69.97562	0
595	235.15063	36.61515	-199.34915	-136.69656	218.06356	-80.55333	-69.16195	-90.31737	-103.33609	-104.96343	-106.59077	-69.97562	0
596	218.06356	24.4101	-194.46713	-122.0505	205.85851	-85.43535	-71.60296	-95.19939	-108.21811	-109.84545	-111.47279	-74.85764	0
597	200.97649	9.76404	-192.02612	-104.96343	196.09447	-90.31737	-74.04397	-100.08141	-113.10013	-117.16848	-116.35481	-79.73966	0
598	188.77144	-3.25468	-192.02612	-92.75838	188.77144	-97.6404	-78.92599	-104.96343	-117.98215	-124.49151	-123.67784	-84.62168	0
599	176.56639	-15.45973	-192.02612	-80.55333	183.88942	-102.52242	-83.80801	-109.84545	-127.74619	-131.81454	-133.44188	-91.94471	0
600	166.80235	-27.66478	-194.46713	-70.78929	179.0074	-109.84545	-86.24902	-117.16848	-137.51023	-136.69656	-138.3239	-96.82673	0
601	159.47932	-34.98781	-194.46713	-63.46626	176.56639	-114.72747	-88.69003	-119.60949	-142.39225	-141.57858	-143.20592	-101.70875	0
602	157.03831	-39.86983	-196.90814	-58.58424	176.56639	-117.16848	-93.57205	-122.0505	-144.83326	-146.4606	-145.64693	-106.59077	0
603	164.36134	-39.86983	-204.23117	-63.46626	183.88942	-122.0505	-93.57205	-124.49151	-144.83326	-148.90161	-148.08794	-109.03178	0
604	169.24336	-37.42882	-206.67218	-65.90727	186.33043	-122.0505	-96.01306	-124.49151	-144.83326	-148.90161	-150.52895	-109.03178	0
605	176.56639	-30.10579	-206.67218	-73.2303	191.21245	-117.16848	-96.01306	-122.0505	-144.83326	-148.90161	-150.52895	-111.47279	0
606	179.0074	-27.66478	-206.67218	-75.67131	191.21245	-117.16848	-96.01306	-122.0505	-144.83326	-148.90161	-152.96996	-111.47279	0
607	181.44841	-25.22377	-206.67218	-78.11232	193.65346	-114.72747	-96.01306	-122.0505	-142.39225	-151.34262	-152.96996	-113.9138	0
608	181.44841	-25.22377	-206.67218	-78.11232	193.65346	-114.72747	-96.01306	-122.0505	-142.39225	-151.34262	-157.85198	-113.9138	0
609	181.44841	-25.22377	-206.67218	-78.11232	193.65346	-114.72747	-96.01306	-124.49151	-142.39225	-153.78363	-160.29299	-113.9138	0
610	179.0074	-27.66478	-206.67218	-75.67131	191.21245	-117.16848	-98.45407	-126.93252	-144.83326	-158.66565	-162.734	-116.35481	0
611	169.24336	-32.5468	-201.79016	-68.34828	183.88942	-117.16848	-98.45407	-129.37353	-147.27427	-158.66565	-162.734	-118.79582	0
612	157.03831	-42.31084	-199.34915	-58.58424	176.56639	-119.60949	-100.89508	-131.81454	-147.27427	-161.10666	-167.61602	-121.23683	0
613	147.27427	-49.63387	-196.90814	-48.8202	171.68437	-122.0505	-100.89508	-131.81454	-149.71528	-163.54767	-170.05703	-123.67784	0
614	142.39225	-54.51589	-196.90814	-43.93818	169.24336	-124.49151	-100.89508	-131.81454	-149.71528	-165.98868	-170.05703	-123.67784	0
615	137.51023	-56.9569	-194.46713	-41.49717	164.36134	-124.49151	-100.89508	-129.37353	-147.27427	-165.98868	-170.05703	-123.67784	0
616	132.62821	-59.39791	-192.02612	-36.61515	161.92033	-124.49151	-100.89508	-129.37353	-147.27427	-165.98868	-170.05703	-123.67784	0
617	137.51023	-54.51589	-192.02612	-41.49717	164.36134	-122.0505	-98.45407	-126.93252	-144.83326	-163.54767	-165.17501	-118.79582	0
618	139.95124	-52.07488	-192.02612	-43.93818	164.36134	-122.0505	-96.01306	-124.49151	-142.39225	-161.10666	-165.17501	-118.79582	0
619	139.95124	-52.07488	-192.02612	-43.93818	164.36134	-122.0505	-96.01306	-122.0505	-139.95124	-161.10666	-165.17501	-116.35481	0
620	139.95124	-52.07488	-192.02612	-43.93818	164.36134	-122.0505	-96.01306	-122.0505	-139.95124	-161.10666	-162.734	-116.35481	0
621	139.95124	-49.63387	-189.58511	-46.37919	164.36134	-119.60949	-93.57205	-122.0505	-139.95124	-158.66565	-160.29299	-116.35481	0
622	144.83326	-44.75185	-189.58511	-51.26121	166.80235	-117.16848	-93.57205	-122.0505	-137.51023	-153.78363	-157.85198	-116.35481	0
623	147.27427	-42.31084	-189.58511	-53.70222	166.80235	-114.72747	-93.57205	-119.60949	-137.51023	-151.34262	-157.85198	-113.9138	0
624	144.83326	-42.31084	-187.1441	-51.26121	164.36134	-114.72747	-93.57205	-119.60949	-132.62821	-148.90161	-155.41097	-111.47279	0
625	135.06922	-49.63387	-184.70309	-43.93818	159.47932	-117.16848	-100.89508	-109.84545	-135.06922	-148.90161	-155.41097	-111.47279	0
626	120.42316	-59.39791	-179.82107	-31.73313	149.71528	-119.60949	-88.69003	-109.84545	-117.98215	-148.90161	-152.96996	-109.03178	0
627	110.65912	-64.27993	-174.93905	-24.4101	142.39225	-119.60949	-105.7771	-122.0505	-130.1872	-146.4606	-148.08794	-101.70875	0
628	110.65912	-61.83892	-172.49804	-24.4101	139.95124	-117.16848	-130.1872	-144.01959	-139.95124	-153.78363	-157.85198	-91.94471	0
629	86.24902	-86.24902	-172.49804	0	127.74619	-129.37353	-149.71528	-153.78363	-159.47932	-148.90161	-150.52895	-87.06269	0
630	49.63387	-108.21811	-157.85198	27.66478	103.33609	-131.81454	-169.24336	-187.95777	-161.92033	-136.69656	-133.44188	-84.62168	0
631	78.92599	-74.04397	-152.96996	-2.44101	115.54114	-112.28646	-179.0074	-190.39878	-157.03831	-119.60949	-101.70875	-89.5037	0
632	135.06922	-27.66478	-162.734	-53.70222	147.27427	-95.19939	-193.65346	-222.13191	-179.0074	-122.0505	-96.82673	-101.70875	0
633	157.03831	-42.31084	-199.34915	-58.58424	176.56639	-119.60949	-242.47366	-285.59817	-240.03265	-180.63474	-140.76491	-116.35481	0
634	215.62255	-54.51589	-270.13844	-80.55333	242.47366	-161.10666	-288.85285	-349.06443	-303.49891	-236.77797	-228.64127	-138.3239	0
635	240.03265	-88.69003	-328.72268	-75.67131	283.97083	-207.48585	-335.23204	-410.08968	-371.84719	-314.89029	-243.28733	-167.61602	0
636	279.08881	-96.01306	-375.10187	-92.75838	325.468	-234.33696	-379.17022	-490.64301	-469.48759	-407.64867	-338.48672	-211.5542	0
637	315.70396	-105.7771	-421.48106	-104.96343	366.96517	-263.62908	-398.6983	-546.78624	-547.59991	-485.76099	-404.39399	-250.61036	0
638	357.20113	-100.89508	-458.09621	-129.37353	406.02133	-278.27514	-425.54941	-610.2525	-623.27122	-561.4323	-470.30126	-294.54854	0
639	362.08315	-149.71528	-511.79843	-107.40444	435.31345	-329.53635	-452.40052	-663.95472	-701.38354	-624.89856	-514.23944	-253.05137	0
640	432.87244	-127.74619	-560.61863	-153.78363	496.3387	-344.18241	-496.3387	-742.06704	-772.17283	-676.15977	-553.2956	-250.61036	0
641	467.04658	-83.80801	-550.85459	-192.83979	508.54375	-317.3313	-518.30779	-776.24118	-794.14192	-678.60078	-533.76752	-255.49238	0
642	510.98476	2.44101	-509.35742	-256.30605	510.98476	-253.86504	-535.39486	-798.21027	-799.02394	-654.19068	-487.38833	-221.31824	0
643	542.71789	97.6404	-445.89116	-319.77231	493.89769	-173.31171	-542.71789	-800.65128	-784.37788	-620.01654	-433.68611	-152.96996	0
644	567.12799	104.96343	-462.97823	-336.85938	515.86678	-178.19373	-601.30213	-849.47148	-818.55202	-646.86765	-614.32085	-167.61602	0
645	525.63082	-17.90074	-543.53156	-253.86504	532.95385	-280.71615	-652.56334	-886.08663	-869.81323	-746.94906	-570.38267	-389.74793	0
646	491.45668	-208.29952	-699.7562	-141.57858	593.9791	-454.02786	-659.88637	-917.81976	-947.92555	-895.85067	-785.19155	-531.32651	0
647	371.84719	-362.08315	-733.93034	-4.88202	552.48193	-546.78624	-674.53243	-947.11188	-996.74575	-978.84501	-904.80104	-675.3461	0
648	86.24902	-262.00174	-348.25076	86.24902	215.62255	-305.12625	-606.18415	-895.85067	-943.04353	-930.02481	-858.42185	-633.84893	0
649	-205.04484	-340.11406	-135.88289	271.76578	-36.61515	-239.21898	-510.98476	-815.29734	-874.69525	-849.47148	-787.63256	-575.26469	0
650	-336.85938	-340.11406	-4.06835	337.67305	-168.42969	-173.31171	-445.07749	-773.80017	-828.31606	-805.5333	-751.01741	-558.17762	0
651	-368.59251	-366.96517	0.81367	366.96517	-185.51676	-183.07575	-413.34436	-727.42098	-786.81889	-771.35916	-726.60731	-555.73661	0
652	-363.71049	-427.99042	-65.0936	393.81628	-151.34262	-246.54201	-427.99042	-744.50805	-794.14192	-773.80017	-731.48933	-565.50065	0
653	-322.21332	-435.31345	-113.9138	376.72921	-104.96343	-275.83413	-449.95951	-737.18502	-784.37788	-756.7131	-704.63822	-550.85459	0
654	-285.59817	-430.43143	-145.64693	357.20113	-70.78929	-288.03918	-447.5185	-700.56987	-733.11667	-705.45189	-643.61297	-509.35742	0
655	-214.80888	-393.81628	-179.82107	303.49891	-19.52808	-288.03918	-410.90335	-610.2525	-637.91728	-629.78058	-575.26469	-453.21419	0
656	-139.13757	-371.84719	-233.52329	254.67871	47.19286	-302.68524	-381.61123	-539.46321	-562.24597	-558.99129	-526.44449	-409.27601	0
657	-65.90727	-320.58598	-255.49238	191.21245	93.57205	-288.03918	-330.35002	-456.46887	-476.81062	-483.31998	-460.53722	-350.69177	0
658	-61.02525	-266.88376	-206.67218	161.92033	71.60296	-236.77797	-264.44275	-356.38746	-379.17022	-402.76665	-387.30692	-294.54854	0
659	-19.52808	-225.38659	-206.67218	120.42316	93.57205	-217.24989	-227.8276	-288.03918	-320.58598	-334.41837	-343.36874	-257.93339	0
660	30.10579	-171.68437	-201.79016	69.16195	115.54114	-185.51676	-166.80235	-214.80888	-240.03265	-258.74706	-275.02046	-209.11319	0
661	32.5468	-159.47932	-192.02612	61.83892	110.65912	-175.75272	-117.98215	-144.01959	-166.80235	-197.72181	-223.75925	-167.61602	0
662	96.01306	-76.48498	-172.49804	-9.76404	132.62821	-124.49151	-54.51589	-70.78929	-93.57205	-126.93252	-152.96996	-111.47279	0
663	81.367	-64.27993	-145.64693	-9.76404	113.10013	-104.96343	-25.22377	-34.17414	-52.07488	-92.75838	-128.55986	-87.06269	0
664	74.04397	-47.19286	-121.23683	-14.64606	96.01306	-82.99434	-13.01872	-7.32303	-30.10579	-73.2303	-94.38572	-79.73966	0
665	76.48498	-47.19286	-123.67784	-14.64606	98.45407	-85.43535	-0.81367	26.85111	8.95037	-53.70222	-77.29865	-65.0936	0
666	96.01306	-25.22377	-121.23683	-36.61515	108.21811	-73.2303	21.96909	49.63387	30.91946	-29.29212	-72.41663	-50.44754	0
667	83.80801	-39.86983	-123.67784	-21.96909	103.33609	-80.55333	19.52808	52.07488	38.24249	-29.29212	-69.97562	-43.12451	0
668	88.69003	-34.98781	-123.67784	-26.85111	105.7771	-78.11232	26.85111	64.27993	51.26121	-19.52808	-62.65259	-43.12451	0
669	91.13104	-34.98781	-126.11885	-29.29212	108.21811	-80.55333	26.85111	74.04397	46.37919	-12.20505	-60.21158	-38.24249	0
670	88.69003	-39.86983	-128.55986	-24.4101	108.21811	-82.99434	29.29212	66.72094	51.26121	-9.76404	-55.32956	-35.80148	0
671	83.80801	-42.31084	-126.11885	-21.96909	103.33609	-82.99434	31.73313	71.60296	56.14323	-4.88202	-50.44754	-33.36047	0
672	81.367	-42.31084	-123.67784	-19.52808	100.89508	-82.99434	34.17414	76.48498	63.46626	0	-45.56552	-30.91946	0
673	76.48498	-47.19286	-123.67784	-14.64606	98.45407	-85.43535	36.61515	81.367	68.34828	4.88202	-43.12451	-28.47845	0
674	74.04397	-47.19286	-121.23683	-14.64606	96.01306	-82.99434	39.05616	88.69003	75.67131	12.20505	-38.24249	-23.59643	0
675	76.48498	-44.75185	-121.23683	-17.08707	98.45407	-82.99434	43.93818	98.45407	85.43535	19.52808	-30.91946	-18.71441	0
676	76.48498	-39.86983	-116.35481	-19.52808	96.01306	-78.11232	48.8202	103.33609	90.31737	25.22377	-23.59643	-16.2734	0
677	76.48498	-37.42882	-113.9138	-19.52808	93.57205	-75.67131	51.26121	105.7771	95.19939	30.10579	-18.71441	-11.39138	0
678	86.24902	-22.78276	-109.03178	-31.73313	96.01306	-65.90727	58.58424	115.54114	102.52242	39.86983	-11.39138	-6.50936	0
679	93.57205	-15.45973	-109.03178	-39.05616	100.89508	-61.02525	65.90727	120.42316	109.84545	47.19286	-4.06835	0.81367	0
680	96.01306	-10.57771	-106.59077	-43.93818	100.89508	-58.58424	70.78929	125.30518	114.72747	54.51589	3.25468	3.25468	0
681	96.01306	-5.69569	-101.70875	-46.37919	98.45407	-53.70222	75.67131	130.1872	119.60949	61.83892	10.57771	6.50936	0
682	96.01306	-0.81367	-96.82673	-48.8202	96.01306	-48.8202	78.11232	135.06922	124.49151	66.72094	13.01872	11.39138	0
683	96.01306	2.44101	-94.38572	-48.8202	96.01306	-46.37919	82.99434	137.51023	126.93252	71.60296	16.2734	13.83239	0
684	96.01306	4.88202	-91.94471	-51.26121	93.57205	-43.93818	85.43535	142.39225	134.25555	74.04397	21.15542	18.71441	0
685	103.33609	12.20505	-91.94471	-58.58424	98.45407	-39.05616	92.75838	152.15629	144.01959	81.367	26.03744	23.59643	0
686	105.7771	17.08707	-89.5037	-61.02525	98.45407	-36.61515	95.19939	157.03831	148.90161	83.80801	30.91946	28.47845	0
687	105.7771	17.08707	-89.5037	-61.02525	98.45407	-36.61515	95.19939	159.47932	151.34262	86.24902	33.36047	30.91946	0
688	108.21811	19.52808	-89.5037	-63.46626	98.45407	-34.17414	100.08141	161.92033	153.78363	88.69003	38.24249	35.80148	0
689	113.10013	24.4101	-89.5037	-68.34828	100.89508	-31.73313	102.52242	164.36134	158.66565	93.57205	40.6835	38.24249	0
690	122.86417	31.73313	-91.94471	-78.11232	108.21811	-29.29212	109.84545	169.24336	165.98868	103.33609	48.00653	43.12451	0
691	122.86417	31.73313	-91.94471	-78.11232	108.21811	-29.29212	112.28646	174.12538	170.8707	108.21811	55.32956	45.56552	0
692	122.86417	34.17414	-89.5037	-78.11232	105.7771	-26.85111	114.72747	179.0074	175.75272	113.10013	60.21158	48.00653	0
693	120.42316	36.61515	-84.62168	-78.11232	103.33609	-24.4101	114.72747	181.44841	178.19373	115.54114	62.65259	50.44754	0
694	113.10013	31.73313	-82.18067	-73.2303	98.45407	-24.4101	117.16848	186.33043	185.51676	120.42316	65.0936	52.88855	0
695	110.65912	29.29212	-82.18067	-70.78929	96.01306	-26.85111	122.0505	193.65346	192.83979	125.30518	69.97562	57.77057	0
696	110.65912	36.61515	-74.85764	-73.2303	93.57205	-19.52808	126.93252	200.97649	197.72181	130.1872	77.29865	60.21158	0
697	110.65912	36.61515	-74.85764	-73.2303	93.57205	-19.52808	126.93252	203.4175	200.16282	132.62821	79.73966	62.65259	0
698	103.33609	31.73313	-72.41663	-68.34828	88.69003	-19.52808	126.93252	205.85851	202.60383	132.62821	79.73966	62.65259	0
699	100.89508	31.73313	-69.97562	-65.90727	86.24902	-19.52808	129.37353	208.29952	202.60383	132.62821	82.18067	65.0936	0
700	100.89508	29.29212	-72.41663	-65.90727	86.24902	-21.96909	134.25555	208.29952	205.04484	139.95124	84.62168	67.53461	0
701	100.89508	26.85111	-74.85764	-63.46626	88.69003	-24.4101	136.69656	213.18154	209.92686	144.83326	89.5037	67.53461	0
702	100.89508	31.73313	-69.97562	-65.90727	86.24902	-19.52808	141.57858	218.06356	214.80888	147.27427	94.38572	69.97562	0
703	98.45407	31.73313	-67.53461	-65.90727	83.80801	-17.08707	144.01959	220.50457	219.6909	152.15629	96.82673	72.41663	0
704	93.57205	31.73313	-62.65259	-63.46626	78.92599	-14.64606	146.4606	227.8276	224.57292	154.5973	99.26774	74.85764	0
705	96.01306	36.61515	-60.21158	-65.90727	78.92599	-12.20505	151.34262	237.59164	234.33696	159.47932	101.70875	79.73966	0
706	100.89508	43.93818	-57.77057	-73.2303	78.92599	-7.32303	156.22464	242.47366	241.65999	166.80235	109.03178	84.62168	0
707	108.21811	53.70222	-55.32956	-80.55333	81.367	0	161.10666	247.35568	246.54201	171.68437	111.47279	89.5037	0
708	108.21811	56.14323	-52.88855	-82.99434	81.367	3.25468	161.10666	252.2377	248.98302	174.12538	111.47279	89.5037	0
709	103.33609	53.70222	-50.44754	-78.11232	76.48498	3.25468	163.54767	252.2377	248.98302	174.12538	111.47279	91.94471	0
710	96.01306	43.93818	-52.88855	-70.78929	74.04397	-4.88202	165.98868	249.79669	248.98302	176.56639	113.9138	91.94471	0
711	91.13104	36.61515	-55.32956	-63.46626	74.04397	-9.76404	165.98868	252.2377	248.98302	179.0074	118.79582	89.5037	0
712	88.69003	36.61515	-52.88855	-63.46626	71.60296	-7.32303	165.98868	254.67871	251.42403	181.44841	121.23683	89.5037	0
713	86.24902	39.05616	-48.00653	-63.46626	66.72094	-4.88202	168.42969	257.11972	256.30605	183.88942	123.67784	94.38572	0
714	86.24902	41.49717	-45.56552	-63.46626	66.72094	-2.44101	170.8707	264.44275	261.18807	188.77144	126.11885	96.82673	0
715	86.24902	43.93818	-43.12451	-65.90727	64.27993	0	175.75272	271.76578	268.5111	191.21245	128.55986	101.70875	0
716	88.69003	46.37919	-43.12451	-68.34828	66.72094	3.25468	178.19373	276.6478	273.39312	196.09447	133.44188	104.14976	0
717	91.13104	51.26121	-40.6835	-70.78929	66.72094	5.69569	180.63474	281.52982	278.27514	200.97649	138.3239	106.59077	0
718	93.57205	56.14323	-38.24249	-75.67131	66.72094	10.57771	185.51676	286.41184	280.71615	200.97649	140.76491	111.47279	0
719	93.57205	56.14323	-38.24249	-75.67131	66.72094	10.57771	187.95777	286.41184	283.15716	203.4175	140.76491	111.47279	0
720	93.57205	53.70222	-40.6835	-73.2303	66.72094	8.1367	190.39878	286.41184	283.15716	205.85851	140.76491	111.47279	0
721	91.13104	48.8202	-43.12451	-70.78929	66.72094	3.25468	190.39878	288.85285	285.59817	208.29952	143.20592	111.47279	0
722	81.367	43.93818	-38.24249	-63.46626	59.39791	3.25468	190.39878	291.29386	285.59817	208.29952	143.20592	109.03178	0
723	69.16195	39.05616	-30.91946	-53.70222	49.63387	5.69569	190.39878	291.29386	285.59817	208.29952	140.76491	109.03178	0
724	69.16195	43.93818	-26.03744	-56.14323	47.19286	10.57771	192.83979	296.17588	292.9212	210.74053	140.76491	109.03178	0
725	71.60296	46.37919	-26.03744	-58.58424	49.63387	10.57771	192.83979	301.0579	297.80322	213.18154	140.76491	111.47279	0
726	78.92599	51.26121	-28.47845	-65.90727	54.51589	13.01872	195.2808	303.49891	300.24423	215.62255	145.64693	113.9138	0
727	88.69003	61.02525	-28.47845	-75.67131	59.39791	17.90074	197.72181	305.93992	302.68524	220.50457	148.08794	116.35481	0
728	105.7771	78.11232	-28.47845	-92.75838	66.72094	25.22377	200.16282	310.82194	307.56726	222.94558	150.52895	121.23683	0
729	120.42316	90.31737	-30.91946	-104.96343	76.48498	30.10579	205.04484	310.82194	307.56726	225.38659	152.96996	126.11885	0
730	132.62821	97.6404	-35.80148	-114.72747	83.80801	32.5468	209.92686	313.26295	307.56726	230.26861	157.85198	128.55986	0
731	149.71528	112.28646	-38.24249	-131.81454	93.57205	37.42882	212.36787	315.70396	312.44928	237.59164	165.17501	131.00087	0
732	159.47932	119.60949	-40.6835	-139.13757	100.89508	39.86983	212.36787	315.70396	314.89029	237.59164	167.61602	133.44188	0
733	154.5973	117.16848	-38.24249	-136.69656	96.01306	39.86983	209.92686	313.26295	312.44928	237.59164	167.61602	133.44188	0
734	154.5973	119.60949	-35.80148	-136.69656	96.01306	42.31084	209.92686	315.70396	314.89029	237.59164	167.61602	135.88289	0
735	159.47932	122.0505	-38.24249	-141.57858	98.45407	42.31084	212.36787	320.58598	317.3313	240.03265	167.61602	138.3239	0
736	157.03831	122.0505	-35.80148	-139.13757	96.01306	44.75185	212.36787	318.14497	314.89029	240.03265	167.61602	138.3239	0
737	154.5973	124.49151	-30.91946	-139.13757	93.57205	47.19286	212.36787	315.70396	312.44928	237.59164	167.61602	138.3239	0
738	161.92033	129.37353	-33.36047	-146.4606	98.45407	49.63387	212.36787	313.26295	310.00827	235.15063	167.61602	140.76491	0
739	159.47932	126.93252	-33.36047	-144.01959	96.01306	47.19286	209.92686	305.93992	302.68524	227.8276	165.17501	138.3239	0
740	154.5973	119.60949	-35.80148	-136.69656	96.01306	42.31084	207.48585	298.61689	295.36221	227.8276	162.734	135.88289	0
741	152.15629	117.16848	-35.80148	-134.25555	93.57205	42.31084	207.48585	296.17588	292.9212	225.38659	165.17501	133.44188	0
742	147.27427	117.16848	-30.91946	-131.81454	88.69003	44.75185	202.60383	293.73487	288.03918	222.94558	165.17501	133.44188	0
743	142.39225	122.0505	-21.15542	-131.81454	81.367	52.07488	200.16282	288.85285	283.15716	220.50457	165.17501	133.44188	0
744	139.95124	124.49151	-16.2734	-131.81454	78.92599	54.51589	197.72181	288.85285	280.71615	218.06356	165.17501	133.44188	0
745	137.51023	124.49151	-13.83239	-131.81454	76.48498	56.9569	195.2808	288.85285	278.27514	213.18154	162.734	133.44188	0
746	127.74619	117.16848	-11.39138	-122.0505	69.16195	54.51589	190.39878	281.52982	270.95211	208.29952	160.29299	131.00087	0
747	120.42316	112.28646	-8.95037	-117.16848	64.27993	52.07488	185.51676	274.20679	263.62908	200.97649	155.41097	128.55986	0
748	115.54114	112.28646	-4.06835	-114.72747	59.39791	54.51589	180.63474	266.88376	256.30605	196.09447	150.52895	128.55986	0
749	115.54114	112.28646	-4.06835	-114.72747	59.39791	54.51589	175.75272	257.11972	246.54201	186.33043	145.64693	126.11885	0
750	117.98215	112.28646	-6.50936	-114.72747	61.83892	54.51589	175.75272	247.35568	239.21898	181.44841	143.20592	121.23683	0
751	117.98215	112.28646	-6.50936	-114.72747	61.83892	54.51589	170.8707	242.47366	231.89595	179.0074	140.76491	118.79582	0
752	113.10013	104.96343	-8.95037	-109.84545	61.83892	49.63387	165.98868	230.26861	222.13191	169.24336	135.88289	111.47279	0
753	108.21811	104.96343	-4.06835	-107.40444	56.9569	52.07488	161.10666	222.94558	214.80888	161.92033	131.00087	109.03178	0
754	108.21811	107.40444	-1.62734	-107.40444	54.51589	54.51589	158.66565	218.06356	209.92686	157.03831	126.11885	109.03178	0
755	105.7771	107.40444	0.81367	-107.40444	52.07488	54.51589	153.78363	213.18154	207.48585	149.71528	121.23683	106.59077	0
756	105.7771	107.40444	0.81367	-107.40444	52.07488	54.51589	151.34262	205.85851	197.72181	142.39225	121.23683	104.14976	0
757	108.21811	107.40444	-1.62734	-107.40444	54.51589	54.51589	144.01959	196.09447	187.95777	132.62821	113.9138	99.26774	0
758	108.21811	107.40444	-1.62734	-107.40444	54.51589	54.51589	139.13757	186.33043	178.19373	122.86417	106.59077	96.82673	0
759	108.21811	107.40444	-1.62734	-107.40444	54.51589	54.51589	134.25555	174.12538	165.98868	113.10013	99.26774	91.94471	0
760	108.21811	104.96343	-4.06835	-107.40444	56.9569	52.07488	129.37353	161.92033	151.34262	105.7771	94.38572	87.06269	0
761	108.21811	100.08141	-8.95037	-104.96343	59.39791	47.19286	122.0505	149.71528	141.57858	98.45407	89.5037	82.18067	0
762	100.89508	90.31737	-11.39138	-95.19939	56.9569	39.86983	114.72747	137.51023	129.37353	86.24902	82.18067	72.41663	0
763	98.45407	87.87636	-11.39138	-92.75838	54.51589	39.86983	104.96343	125.30518	117.16848	76.48498	74.85764	67.53461	0
764	96.01306	87.87636	-8.95037	-92.75838	52.07488	39.86983	100.08141	117.98215	109.84545	69.16195	69.97562	65.0936	0
765	93.57205	85.43535	-8.95037	-90.31737	52.07488	39.86983	97.6404	115.54114	104.96343	61.83892	65.0936	62.65259	0
766	93.57205	85.43535	-8.95037	-90.31737	52.07488	39.86983	95.19939	105.7771	97.6404	56.9569	62.65259	62.65259	0
767	91.13104	87.87636	-4.06835	-90.31737	47.19286	42.31084	90.31737	98.45407	90.31737	49.63387	57.77057	60.21158	0
768	86.24902	85.43535	-1.62734	-85.43535	44.75185	42.31084	82.99434	88.69003	78.11232	39.86983	50.44754	57.77057	0
769	83.80801	85.43535	0.81367	-85.43535	42.31084	44.75185	82.99434	78.92599	68.34828	32.5468	45.56552	55.32956	0
770	83.80801	82.99434	-1.62734	-82.99434	42.31084	42.31084	80.55333	71.60296	58.58424	27.66478	43.12451	52.88855	0
771	81.367	80.55333	-1.62734	-80.55333	42.31084	39.86983	75.67131	64.27993	51.26121	25.22377	40.6835	48.00653	0
772	78.92599	78.11232	-1.62734	-78.11232	39.86983	39.86983	73.2303	54.51589	43.12451	19.52808	35.80148	45.56552	0
773	74.04397	78.11232	4.06835	-75.67131	34.98781	42.31084	65.90727	47.19286	35.80148	12.20505	30.91946	40.6835	0
774	71.60296	73.2303	0.81367	-73.2303	34.98781	37.42882	61.02525	41.49717	28.47845	4.88202	26.03744	35.80148	0
775	66.72094	68.34828	0.81367	-68.34828	32.5468	34.98781	56.14323	36.61515	23.59643	-2.44101	21.15542	33.36047	0
776	69.16195	68.34828	-1.62734	-68.34828	34.98781	34.98781	56.14323	31.73313	16.2734	-4.88202	18.71441	30.91946	0
777	71.60296	68.34828	-4.06835	-70.78929	37.42882	32.5468	51.26121	24.4101	11.39138	-12.20505	16.2734	28.47845	0
778	69.16195	68.34828	-1.62734	-68.34828	34.98781	34.98781	48.8202	14.64606	4.06835	-17.08707	13.01872	23.59643	0
779	66.72094	65.90727	-1.62734	-65.90727	34.98781	32.5468	46.37919	7.32303	-5.69569	-26.85111	5.69569	21.15542	0
780	59.39791	56.14323	-4.06835	-58.58424	32.5468	27.66478	43.93818	-2.44101	-15.45973	-31.73313	3.25468	13.83239	0
781	49.63387	43.93818	-6.50936	-46.37919	27.66478	20.34175	39.05616	-9.76404	-22.78276	-36.61515	-1.62734	8.95037	0
782	42.31084	36.61515	-6.50936	-39.05616	25.22377	15.45973	36.61515	-14.64606	-27.66478	-41.49717	-4.06835	3.25468	0
783	34.98781	34.17414	-1.62734	-34.17414	17.90074	17.90074	31.73313	-19.52808	-32.5468	-46.37919	-6.50936	0.81367	0
784	22.78276	21.96909	-1.62734	-21.96909	13.01872	10.57771	26.85111	-24.4101	-37.42882	-51.26121	-13.83239	-1.62734	0
785	10.57771	9.76404	-1.62734	-9.76404	5.69569	5.69569	21.96909	-26.85111	-39.86983	-58.58424	-21.15542	-8.95037	0
786	5.69569	2.44101	-4.06835	-4.88202	5.69569	0	17.08707	-31.73313	-44.75185	-61.02525	-23.59643	-11.39138	0
787	3.25468	2.44101	-1.62734	-2.44101	3.25468	0	14.64606	-34.17414	-47.19286	-63.46626	-26.03744	-11.39138	0
788	5.69569	2.44101	-4.06835	-4.88202	5.69569	0	12.20505	-36.61515	-49.63387	-65.90727	-26.03744	-13.83239	0
789	5.69569	2.44101	-4.06835	-4.88202	5.69569	0	12.20505	-41.49717	-54.51589	-68.34828	-30.91946	-13.83239	0
790	3.25468	-0.81367	-4.06835	-2.44101	3.25468	-2.44101	12.20505	-43.93818	-59.39791	-68.34828	-30.91946	-16.2734	0
791	-2.44101	-5.69569	-4.06835	3.25468	0.81367	-4.88202	12.20505	-46.37919	-61.83892	-68.34828	-30.91946	-21.15542	0
792	-2.44101	-8.1367	-6.50936	3.25468	0.81367	-7.32303	8.95037	-46.37919	-61.83892	-68.34828	-30.91946	-21.15542	0
793	-2.44101	-0.81367	0.81367	0	-2.44101	0	8.95037	-46.37919	-61.83892	-68.34828	-28.47845	-18.71441	0
794	-2.44101	-0.81367	0.81367	0	-2.44101	0	8.95037	-43.93818	-61.83892	-68.34828	-28.47845	-18.71441	0
795	-7.32303	-3.25468	4.06835	3.25468	-7.32303	0	8.95037	-41.49717	-61.83892	-68.34828	-30.91946	-18.71441	0
796	-12.20505	-10.57771	0.81367	10.57771	-7.32303	-4.88202	6.50936	-43.93818	-61.83892	-70.78929	-30.91946	-21.15542	0
797	-14.64606	-15.45973	-1.62734	13.01872	-7.32303	-9.76404	4.06835	-43.93818	-64.27993	-73.2303	-33.36047	-23.59643	0
798	-14.64606	-13.01872	0.81367	13.01872	-9.76404	-7.32303	1.62734	-46.37919	-66.72094	-75.67131	-35.80148	-23.59643	0
799	-14.64606	-13.01872	0.81367	13.01872	-9.76404	-7.32303	1.62734	-48.8202	-69.16195	-80.55333	-38.24249	-26.03744	0
800	-17.08707	-20.34175	-4.06835	17.90074	-7.32303	-12.20505	1.62734	-53.70222	-74.04397	-80.55333	-40.6835	-28.47845	0
801	-19.52808	-27.66478	-8.95037	22.78276	-7.32303	-19.52808	1.62734	-53.70222	-74.04397	-80.55333	-40.6835	-33.36047	0
802	-24.4101	-34.98781	-11.39138	27.66478	-7.32303	-24.4101	-0.81367	-56.14323	-74.04397	-80.55333	-40.6835	-35.80148	0
803	-24.4101	-32.5468	-8.95037	27.66478	-9.76404	-21.96909	-3.25468	-56.14323	-74.04397	-80.55333	-40.6835	-35.80148	0
804	-19.52808	-25.22377	-6.50936	20.34175	-7.32303	-17.08707	-3.25468	-53.70222	-71.60296	-75.67131	-38.24249	-35.80148	0
805	-12.20505	-20.34175	-8.95037	15.45973	-2.44101	-14.64606	-0.81367	-48.8202	-66.72094	-73.2303	-38.24249	-30.91946	0
806	-9.76404	-17.90074	-8.95037	13.01872	-2.44101	-14.64606	-0.81367	-48.8202	-64.27993	-70.78929	-33.36047	-30.91946	0
807	-7.32303	-15.45973	-8.95037	10.57771	0.81367	-12.20505	-0.81367	-48.8202	-64.27993	-70.78929	-33.36047	-30.91946	0
808	-4.88202	-17.90074	-13.83239	10.57771	3.25468	-17.08707	-3.25468	-51.26121	-64.27993	-70.78929	-38.24249	-30.91946	0
809	-2.44101	-17.90074	-16.2734	8.1367	5.69569	-17.08707	-5.69569	-53.70222	-69.16195	-75.67131	-40.6835	-33.36047	0
810	-2.44101	-17.90074	-16.2734	8.1367	5.69569	-17.08707	-5.69569	-56.14323	-71.60296	-73.2303	-40.6835	-33.36047	0
811	5.69569	-17.90074	-23.59643	5.69569	13.01872	-19.52808	-3.25468	-56.14323	-69.16195	-70.78929	-38.24249	-33.36047	0
812	8.1367	-15.45973	-23.59643	3.25468	15.45973	-19.52808	-3.25468	-56.14323	-69.16195	-70.78929	-38.24249	-33.36047	0
813	8.1367	-13.01872	-21.15542	0	13.01872	-17.08707	-3.25468	-56.14323	-69.16195	-70.78929	-38.24249	-33.36047	0
814	13.01872	-8.1367	-21.15542	-2.44101	15.45973	-14.64606	-3.25468	-53.70222	-64.27993	-68.34828	-38.24249	-33.36047	0
815	20.34175	-0.81367	-21.15542	-9.76404	20.34175	-9.76404	-3.25468	-48.8202	-59.39791	-65.90727	-38.24249	-28.47845	0
816	32.5468	4.88202	-28.47845	-19.52808	30.10579	-12.20505	-0.81367	-43.93818	-54.51589	-63.46626	-30.91946	-23.59643	0
817	39.86983	12.20505	-28.47845	-26.85111	34.98781	-7.32303	1.62734	-43.93818	-54.51589	-61.02525	-28.47845	-21.15542	0
818	39.86983	12.20505	-28.47845	-26.85111	34.98781	-7.32303	-0.81367	-43.93818	-54.51589	-61.02525	-28.47845	-21.15542	0
819	42.31084	12.20505	-30.91946	-26.85111	37.42882	-9.76404	-0.81367	-46.37919	-56.9569	-65.90727	-30.91946	-21.15542	0
820	39.86983	7.32303	-33.36047	-24.4101	37.42882	-12.20505	-0.81367	-51.26121	-61.83892	-65.90727	-30.91946	-23.59643	0
821	34.98781	2.44101	-33.36047	-19.52808	34.98781	-14.64606	-3.25468	-51.26121	-61.83892	-63.46626	-28.47845	-23.59643	0
822	30.10579	-3.25468	-33.36047	-14.64606	30.10579	-17.08707	-3.25468	-51.26121	-64.27993	-63.46626	-28.47845	-26.03744	0
823	22.78276	-5.69569	-28.47845	-9.76404	25.22377	-17.08707	-8.1367	-53.70222	-64.27993	-65.90727	-28.47845	-26.03744	0
824	15.45973	-8.1367	-23.59643	-4.88202	17.90074	-14.64606	-8.1367	-51.26121	-64.27993	-65.90727	-30.91946	-26.03744	0
825	15.45973	-8.1367	-23.59643	-4.88202	17.90074	-14.64606	-8.1367	-46.37919	-59.39791	-63.46626	-30.91946	-23.59643	0
826	17.90074	-8.1367	-26.03744	-4.88202	20.34175	-17.08707	-8.1367	-46.37919	-59.39791	-63.46626	-26.03744	-21.15542	0
827	20.34175	-3.25468	-23.59643	-9.76404	20.34175	-12.20505	-5.69569	-46.37919	-56.9569	-58.58424	-26.03744	-18.71441	0
828	22.78276	-3.25468	-26.03744	-9.76404	22.78276	-14.64606	-5.69569	-43.93818	-56.9569	-58.58424	-26.03744	-16.2734	0
829	22.78276	-3.25468	-26.03744	-9.76404	22.78276	-14.64606	-8.1367	-48.8202	-59.39791	-63.46626	-28.47845	-16.2734	0
830	20.34175	-10.57771	-30.91946	-4.88202	25.22377	-19.52808	-8.1367	-53.70222	-64.27993	-63.46626	-30.91946	-21.15542	0
831	17.90074	-17.90074	-35.80148	0	25.22377	-26.85111	-10.57771	-53.70222	-64.27993	-63.46626	-28.47845	-23.59643	0
832	15.45973	-20.34175	-35.80148	0	25.22377	-26.85111	-10.57771	-56.14323	-64.27993	-65.90727	-28.47845	-23.59643	0
833	13.01872	-20.34175	-33.36047	3.25468	22.78276	-26.85111	-13.01872	-56.14323	-66.72094	-65.90727	-28.47845	-23.59643	0
834	10.57771	-17.90074	-28.47845	3.25468	17.90074	-21.96909	-15.45973	-56.14323	-64.27993	-65.90727	-30.91946	-23.59643	0
835	8.1367	-17.90074	-26.03744	3.25468	15.45973	-21.96909	-15.45973	-53.70222	-64.27993	-65.90727	-30.91946	-26.03744	0
836	3.25468	-20.34175	-23.59643	8.1367	13.01872	-21.96909	-15.45973	-53.70222	-64.27993	-68.34828	-30.91946	-26.03744	0
837	3.25468	-20.34175	-23.59643	8.1367	13.01872	-21.96909	-17.90074	-53.70222	-64.27993	-70.78929	-30.91946	-26.03744	0
838	3.25468	-17.90074	-21.15542	5.69569	10.57771	-19.52808	-17.90074	-56.14323	-66.72094	-70.78929	-33.36047	-26.03744	0
839	8.1367	-13.01872	-21.15542	0	13.01872	-17.08707	-17.90074	-58.58424	-69.16195	-73.2303	-35.80148	-26.03744	0
840	10.57771	-13.01872	-23.59643	0	15.45973	-17.08707	-17.90074	-61.02525	-71.60296	-70.78929	-35.80148	-26.03744	0
841	10.57771	-17.90074	-28.47845	3.25468	17.90074	-21.96909	-17.90074	-61.02525	-71.60296	-70.78929	-33.36047	-30.91946	0
842	5.69569	-22.78276	-28.47845	8.1367	15.45973	-24.4101	-17.90074	-63.46626	-74.04397	-70.78929	-33.36047	-30.91946	0
843	5.69569	-22.78276	-28.47845	8.1367	15.45973	-24.4101	-20.34175	-63.46626	-74.04397	-73.2303	-33.36047	-33.36047	0
844	8.1367	-15.45973	-23.59643	3.25468	15.45973	-19.52808	-20.34175	-61.02525	-71.60296	-70.78929	-33.36047	-30.91946	0
845	13.01872	-8.1367	-21.15542	-2.44101	15.45973	-14.64606	-17.90074	-56.14323	-64.27993	-65.90727	-30.91946	-26.03744	0
846	20.34175	-0.81367	-21.15542	-9.76404	20.34175	-9.76404	-13.01872	-51.26121	-61.83892	-61.02525	-26.03744	-21.15542	0
847	25.22377	4.88202	-21.15542	-14.64606	22.78276	-7.32303	-10.57771	-48.8202	-59.39791	-58.58424	-21.15542	-16.2734	0
848	30.10579	12.20505	-18.71441	-21.96909	25.22377	-2.44101	-10.57771	-46.37919	-56.9569	-56.14323	-18.71441	-13.83239	0
849	27.66478	12.20505	-16.2734	-19.52808	22.78276	-2.44101	-8.1367	-48.8202	-56.9569	-56.14323	-18.71441	-11.39138	0
850	27.66478	14.64606	-13.83239	-21.96909	20.34175	0	-5.69569	-48.8202	-59.39791	-53.70222	-16.2734	-8.95037	0
851	27.66478	14.64606	-13.83239	-21.96909	20.34175	0	-3.25468	-46.37919	-56.9569	-48.8202	-8.95037	-8.95037	0
852	27.66478	19.52808	-8.95037	-24.4101	17.90074	5.69569	1.62734	-43.93818	-54.51589	-43.93818	-4.06835	-4.06835	0
853	30.10579	24.4101	-6.50936	-26.85111	17.90074	10.57771	1.62734	-41.49717	-52.07488	-43.93818	-1.62734	-1.62734	0
854	27.66478	29.29212	0.81367	-29.29212	13.01872	15.45973	1.62734	-39.05616	-49.63387	-41.49717	-1.62734	0.81367	0
855	25.22377	29.29212	4.06835	-26.85111	10.57771	17.90074	1.62734	-34.17414	-47.19286	-41.49717	-1.62734	3.25468	0
856	22.78276	29.29212	6.50936	-26.85111	8.1367	17.90074	4.06835	-34.17414	-47.19286	-39.05616	3.25468	3.25468	0
857	20.34175	29.29212	8.95037	-24.4101	5.69569	20.34175	6.50936	-31.73313	-44.75185	-36.61515	5.69569	6.50936	0
858	22.78276	34.17414	11.39138	-29.29212	5.69569	22.78276	8.95037	-29.29212	-42.31084	-36.61515	5.69569	8.95037	0
859	30.10579	46.37919	16.2734	-39.05616	8.1367	32.5468	12.20505	-26.85111	-39.86983	-36.61515	8.1367	13.83239	0
860	42.31084	61.02525	18.71441	-51.26121	13.01872	39.86983	21.96909	-21.96909	-34.98781	-26.85111	13.01872	18.71441	0
861	49.63387	73.2303	23.59643	-61.02525	13.01872	49.63387	29.29212	-17.08707	-27.66478	-19.52808	21.15542	23.59643	0
862	49.63387	78.11232	28.47845	-63.46626	10.57771	54.51589	34.17414	-12.20505	-22.78276	-14.64606	26.03744	28.47845	0
863	49.63387	85.43535	35.80148	-68.34828	8.1367	61.83892	36.61515	-9.76404	-20.34175	-14.64606	28.47845	30.91946	0
864	52.07488	92.75838	40.6835	-73.2303	5.69569	66.72094	36.61515	-7.32303	-17.90074	-12.20505	28.47845	35.80148	0
865	56.9569	97.6404	40.6835	-78.11232	8.1367	69.16195	36.61515	-4.88202	-15.45973	-9.76404	28.47845	38.24249	0
866	59.39791	100.08141	40.6835	-80.55333	10.57771	71.60296	31.73313	-4.88202	-15.45973	-9.76404	30.91946	38.24249	0
867	64.27993	100.08141	35.80148	-82.99434	15.45973	69.16195	26.85111	-9.76404	-15.45973	-9.76404	30.91946	38.24249	0
868	64.27993	92.75838	28.47845	-78.11232	17.90074	61.83892	19.52808	-14.64606	-22.78276	-14.64606	26.03744	38.24249	0
869	61.83892	85.43535	23.59643	-73.2303	20.34175	54.51589	8.95037	-24.4101	-32.5468	-24.4101	21.15542	33.36047	0
870	64.27993	80.55333	16.2734	-73.2303	25.22377	49.63387	6.50936	-31.73313	-37.42882	-24.4101	18.71441	30.91946	0
871	71.60296	80.55333	8.95037	-75.67131	32.5468	44.75185	1.62734	-34.17414	-39.86983	-26.85111	18.71441	28.47845	0
872	71.60296	75.67131	4.06835	-73.2303	34.98781	39.86983	-3.25468	-39.05616	-42.31084	-29.29212	18.71441	26.03744	0
873	69.16195	68.34828	-1.62734	-68.34828	34.98781	34.98781	-10.57771	-43.93818	-49.63387	-34.17414	13.01872	21.15542	0
874	69.16195	68.34828	-1.62734	-68.34828	34.98781	34.98781	-13.01872	-46.37919	-49.63387	-34.17414	13.01872	21.15542	0
875	74.04397	73.2303	-1.62734	-73.2303	37.42882	37.42882	-15.45973	-43.93818	-47.19286	-34.17414	10.57771	21.15542	0
876	81.367	75.67131	-6.50936	-78.11232	44.75185	34.98781	-15.45973	-46.37919	-47.19286	-36.61515	13.01872	23.59643	0
877	86.24902	78.11232	-8.95037	-82.99434	47.19286	34.98781	-15.45973	-46.37919	-47.19286	-36.61515	13.01872	26.03744	0
878	91.13104	82.99434	-8.95037	-87.87636	49.63387	37.42882	-17.90074	-48.8202	-49.63387	-39.05616	13.01872	26.03744	0
879	91.13104	78.11232	-13.83239	-85.43535	52.07488	32.5468	-20.34175	-56.14323	-54.51589	-43.93818	8.1367	23.59643	0
880	91.13104	75.67131	-16.2734	-82.99434	54.51589	30.10579	-22.78276	-61.02525	-59.39791	-43.93818	5.69569	21.15542	0
881	96.01306	75.67131	-21.15542	-85.43535	59.39791	27.66478	-22.78276	-61.02525	-59.39791	-41.49717	10.57771	21.15542	0
882	100.89508	75.67131	-26.03744	-87.87636	64.27993	25.22377	-17.90074	-58.58424	-56.9569	-41.49717	13.01872	21.15542	0
883	96.01306	73.2303	-23.59643	-85.43535	59.39791	25.22377	-20.34175	-58.58424	-59.39791	-43.93818	10.57771	21.15542	0
884	83.80801	65.90727	-18.71441	-75.67131	52.07488	25.22377	-22.78276	-61.02525	-59.39791	-48.8202	5.69569	16.2734	0
885	76.48498	58.58424	-18.71441	-68.34828	47.19286	20.34175	-25.22377	-63.46626	-61.83892	-51.26121	-1.62734	11.39138	0
886	61.83892	41.49717	-21.15542	-51.26121	42.31084	10.57771	-32.5468	-68.34828	-69.16195	-58.58424	-6.50936	6.50936	0
887	52.07488	26.85111	-26.03744	-39.05616	39.86983	0	-37.42882	-73.2303	-74.04397	-65.90727	-13.83239	0.81367	0
888	42.31084	14.64606	-28.47845	-29.29212	34.98781	-7.32303	-42.31084	-78.11232	-78.92599	-73.2303	-21.15542	-4.06835	0
889	30.10579	2.44101	-28.47845	-17.08707	30.10579	-12.20505	-47.19286	-87.87636	-88.69003	-85.43535	-30.91946	-11.39138	0
890	22.78276	-5.69569	-28.47845	-9.76404	25.22377	-17.08707	-49.63387	-95.19939	-96.01306	-90.31737	-38.24249	-18.71441	0
891	17.90074	-17.90074	-35.80148	0	25.22377	-26.85111	-54.51589	-97.6404	-100.89508	-95.19939	-40.6835	-26.03744	0
892	13.01872	-27.66478	-40.6835	5.69569	25.22377	-34.17414	-56.9569	-100.08141	-103.33609	-97.6404	-43.12451	-30.91946	0
893	10.57771	-32.5468	-43.12451	10.57771	25.22377	-36.61515	-61.83892	-102.52242	-105.7771	-100.08141	-45.56552	-35.80148	0
894	5.69569	-34.98781	-40.6835	13.01872	22.78276	-36.61515	-64.27993	-102.52242	-105.7771	-104.96343	-50.44754	-40.6835	0
895	0.81367	-42.31084	-43.12451	20.34175	20.34175	-41.49717	-66.72094	-104.96343	-105.7771	-107.40444	-55.32956	-43.12451	0
896	-7.32303	-52.07488	-45.56552	27.66478	17.90074	-48.8202	-71.60296	-107.40444	-108.21811	-109.84545	-57.77057	-48.00653	0
897	-12.20505	-61.83892	-50.44754	34.98781	17.90074	-56.14323	-74.04397	-109.84545	-110.65912	-112.28646	-60.21158	-52.88855	0
898	-21.96909	-71.60296	-50.44754	44.75185	13.01872	-61.02525	-78.92599	-112.28646	-113.10013	-114.72747	-65.0936	-57.77057	0
899	-21.96909	-71.60296	-50.44754	44.75185	13.01872	-61.02525	-81.367	-114.72747	-115.54114	-119.60949	-67.53461	-57.77057	0
900	-19.52808	-69.16195	-50.44754	42.31084	15.45973	-61.02525	-78.92599	-114.72747	-115.54114	-117.16848	-67.53461	-60.21158	0
901	-19.52808	-71.60296	-52.88855	44.75185	15.45973	-63.46626	-78.92599	-114.72747	-115.54114	-117.16848	-67.53461	-60.21158	0
902	-21.96909	-76.48498	-55.32956	47.19286	15.45973	-65.90727	-81.367	-117.16848	-117.98215	-119.60949	-67.53461	-62.65259	0
903	-26.85111	-81.367	-55.32956	52.07488	13.01872	-68.34828	-83.80801	-117.16848	-117.98215	-119.60949	-67.53461	-62.65259	0
904	-31.73313	-81.367	-50.44754	54.51589	8.1367	-65.90727	-86.24902	-117.16848	-117.98215	-119.60949	-69.97562	-62.65259	0
905	-31.73313	-78.92599	-48.00653	54.51589	8.1367	-63.46626	-83.80801	-114.72747	-115.54114	-117.16848	-69.97562	-62.65259	0
906	-24.4101	-74.04397	-50.44754	47.19286	13.01872	-63.46626	-81.367	-109.84545	-110.65912	-114.72747	-65.0936	-60.21158	0
907	-24.4101	-71.60296	-48.00653	47.19286	10.57771	-61.02525	-78.92599	-109.84545	-108.21811	-112.28646	-62.65259	-57.77057	0
908	-24.4101	-71.60296	-48.00653	47.19286	10.57771	-61.02525	-78.92599	-107.40444	-108.21811	-109.84545	-62.65259	-55.32956	0
909	-21.96909	-69.16195	-48.00653	44.75185	13.01872	-58.58424	-76.48498	-107.40444	-108.21811	-109.84545	-57.77057	-55.32956	0
910	-12.20505	-59.39791	-48.00653	34.98781	17.90074	-53.70222	-71.60296	-104.96343	-103.33609	-104.96343	-55.32956	-52.88855	0
911	-2.44101	-47.19286	-45.56552	22.78276	20.34175	-46.37919	-66.72094	-100.08141	-98.45407	-100.08141	-48.00653	-48.00653	0
912	10.57771	-34.98781	-45.56552	10.57771	27.66478	-39.05616	-61.83892	-95.19939	-91.13104	-92.75838	-40.6835	-40.6835	0
913	17.90074	-25.22377	-43.12451	3.25468	30.10579	-34.17414	-61.83892	-92.75838	-88.69003	-87.87636	-35.80148	-35.80148	0
914	20.34175	-20.34175	-40.6835	0	30.10579	-29.29212	-64.27993	-92.75838	-86.24902	-85.43535	-33.36047	-30.91946	0
915	20.34175	-17.90074	-38.24249	-2.44101	27.66478	-26.85111	-52.07488	-63.46626	-61.83892	-82.99434	-28.47845	-28.47845	0
916	15.45973	-17.90074	-33.36047	0	22.78276	-24.4101	-64.27993	-75.67131	-71.60296	-78.11232	-21.15542	-21.15542	0
917	8.1367	-20.34175	-28.47845	5.69569	17.90074	-24.4101	-96.01306	-100.08141	-88.69003	-87.87636	-11.39138	-11.39138	0
918	-2.44101	-27.66478	-26.03744	13.01872	10.57771	-26.85111	-98.45407	-122.0505	-93.57205	-82.99434	-33.36047	-4.06835	0
919	-48.8202	-74.04397	-26.03744	59.39791	-12.20505	-51.26121	-120.42316	-131.81454	-93.57205	-78.11232	-21.15542	-4.06835	0
920	-26.85111	-39.86983	-13.83239	32.5468	-7.32303	-26.85111	-125.30518	-146.4606	-91.13104	-48.8202	28.47845	-6.50936	0
921	-36.61515	-42.31084	-6.50936	37.42882	-17.08707	-24.4101	-152.15629	-175.75272	-113.10013	-51.26121	43.12451	-13.83239	0
922	-21.96909	-56.9569	-35.80148	37.42882	5.69569	-46.37919	-203.4175	-236.77797	-166.80235	-92.75838	8.1367	-26.03744	0
923	49.63387	-47.19286	-96.82673	-2.44101	71.60296	-70.78929	-244.91467	-292.9212	-225.38659	-139.13757	-77.29865	-45.56552	0
924	105.7771	-71.60296	-177.38006	-17.08707	139.95124	-124.49151	-283.97083	-336.85938	-271.76578	-187.95777	-118.79582	-69.97562	0
925	152.15629	-96.01306	-248.16935	-29.29212	198.53548	-170.8707	-335.23204	-405.20766	-354.76012	-283.15716	-152.96996	-104.14976	0
926	161.92033	-108.21811	-270.13844	-26.85111	215.62255	-187.95777	-369.40618	-478.43796	-442.63648	-373.47453	-240.84632	-143.20592	0
927	196.09447	-130.1872	-326.28167	-34.17414	259.56073	-227.01393	-393.81628	-539.46321	-518.30779	-449.14584	-309.1946	-189.58511	0
928	215.62255	-152.15629	-367.77884	-31.73313	291.29386	-258.74706	-408.46234	-607.81149	-601.30213	-527.25816	-375.10187	-231.08228	0
929	264.44275	-159.47932	-423.92207	-53.70222	342.55507	-290.48019	-462.16456	-676.15977	-674.53243	-590.72442	-419.04005	-255.49238	0
930	332.79103	-122.86417	-455.6552	-104.96343	393.81628	-288.03918	-491.45668	-739.62603	-730.67566	-612.69351	-411.71702	-235.9643	0
931	415.78537	29.29212	-387.30692	-222.13191	401.13931	-178.19373	-496.3387	-744.50805	-718.47061	-573.63735	-345.80975	-148.08794	0
932	454.84153	146.4606	-309.1946	-300.24423	381.61123	-80.55333	-525.63082	-773.80017	-716.0296	-539.46321	-284.7845	-67.53461	0
933	508.54375	190.39878	-318.95864	-349.06443	413.34436	-63.46626	-611.06617	-844.58946	-764.8498	-561.4323	-289.66652	-52.88855	0
934	545.1589	151.34262	-394.62995	-349.06443	469.48759	-122.0505	-679.41445	-883.64562	-794.14192	-593.16543	-511.79843	-91.94471	0
935	493.89769	-81.367	-575.26469	-207.48585	532.95385	-327.09534	-742.88071	-949.55289	-908.86939	-783.56421	-563.05964	-338.48672	0
936	403.58032	-305.93992	-709.52024	-48.8202	554.92294	-507.73008	-779.49586	-1017.90117	-1008.9508	-934.90683	-777.86852	-567.94166	0
937	193.65346	-425.54941	-619.20287	115.54114	406.02133	-522.37614	-779.49586	-1052.07531	-1062.65302	-1005.69612	-865.74488	-660.70004	0
938	-109.84545	-381.61123	-272.57945	244.91467	81.367	-327.09534	-652.56334	-951.9939	-967.45363	-920.26077	-780.30953	-582.58772	0
939	-349.06443	-393.81628	-45.56552	369.40618	-153.78363	-219.6909	-557.36395	-868.99956	-889.34131	-854.3535	-726.60731	-543.53156	0
940	-446.70483	-415.78537	30.91946	430.43143	-239.21898	-192.83979	-501.22072	-829.9434	-852.72616	-805.5333	-682.66913	-531.32651	0
941	-485.76099	-476.81062	8.95037	479.25163	-248.98302	-234.33696	-493.89769	-825.06138	-852.72616	-807.97431	-687.55115	-553.2956	0
942	-466.23291	-493.89769	-28.47845	479.25163	-219.6909	-261.18807	-506.10274	-820.17936	-842.96212	-798.21027	-677.78711	-548.41358	0
943	-339.30039	-393.81628	-55.32956	364.52416	-144.01959	-224.57292	-462.16456	-742.06704	-752.64475	-700.56987	-587.46974	-470.30126	0
944	-288.03918	-381.61123	-94.38572	332.79103	-97.6404	-239.21898	-425.54941	-644.42664	-645.24031	-602.92947	-514.23944	-419.04005	0
945	-256.30605	-391.37527	-135.88289	323.02699	-61.02525	-263.62908	-406.02133	-566.31432	-567.12799	-546.78624	-450.77318	-375.10187	0
946	-217.24989	-359.64214	-143.20592	286.41184	-39.05616	-251.42403	-354.76012	-471.11493	-469.48759	-461.35089	-397.07096	-316.51763	0
947	-207.48585	-320.58598	-113.9138	262.00174	-48.8202	-217.24989	-296.17588	-378.35655	-379.17022	-385.67958	-323.84066	-262.81541	0
948	-148.90161	-244.91467	-96.82673	196.09447	-26.85111	-170.8707	-215.62255	-278.27514	-281.52982	-297.80322	-250.61036	-204.23117	0
949	-122.0505	-205.85851	-84.62168	161.92033	-19.52808	-146.4606	-137.51023	-178.19373	-179.0074	-202.60383	-172.49804	-143.20592	0
950	-63.46626	-130.1872	-67.53461	96.01306	0.81367	-100.08141	-81.367	-114.72747	-117.98215	-134.25555	-99.26774	-94.38572	0
951	-58.58424	-110.65912	-52.88855	83.80801	-4.88202	-82.99434	-49.63387	-68.34828	-71.60296	-95.19939	-65.0936	-65.0936	0
952	-31.73313	-61.83892	-30.91946	44.75185	-2.44101	-46.37919	-20.34175	-31.73313	-34.98781	-61.02525	-40.6835	-43.12451	0
953	-43.93818	-64.27993	-21.15542	52.07488	-12.20505	-43.93818	-3.25468	-9.76404	-8.1367	-36.61515	-21.15542	-35.80148	0
954	-43.93818	-66.72094	-23.59643	54.51589	-12.20505	-46.37919	8.95037	29.29212	30.91946	-4.88202	-6.50936	-23.59643	0
955	5.69569	-17.90074	-23.59643	5.69569	13.01872	-19.52808	21.96909	56.9569	63.46626	12.20505	26.03744	3.25468	0
956	-17.08707	-44.75185	-28.47845	30.10579	5.69569	-36.61515	21.96909	61.83892	65.90727	12.20505	13.01872	6.50936	0
957	-29.29212	-52.07488	-23.59643	39.86983	-4.88202	-39.05616	21.96909	69.16195	73.2303	21.96909	16.2734	3.25468	0
958	-19.52808	-44.75185	-26.03744	30.10579	3.25468	-36.61515	34.17414	71.60296	78.11232	21.96909	26.03744	8.95037	0
959	-17.08707	-39.86983	-23.59643	27.66478	3.25468	-31.73313	41.49717	78.92599	85.43535	34.98781	33.36047	13.83239	0
960	-17.08707	-39.86983	-23.59643	27.66478	3.25468	-31.73313	48.8202	86.24902	92.75838	42.31084	38.24249	16.2734	0
961	-9.76404	-32.5468	-23.59643	20.34175	5.69569	-29.29212	53.70222	96.01306	100.08141	52.07488	48.00653	21.15542	0
962	-2.44101	-27.66478	-26.03744	13.01872	10.57771	-26.85111	61.02525	103.33609	109.84545	59.39791	55.32956	26.03744	0
963	8.1367	-15.45973	-23.59643	3.25468	15.45973	-19.52808	65.90727	115.54114	122.0505	69.16195	62.65259	33.36047	0
964	17.90074	-3.25468	-21.15542	-7.32303	17.90074	-12.20505	73.2303	125.30518	131.81454	76.48498	67.53461	40.6835	0
965	22.78276	2.44101	-21.15542	-12.20505	22.78276	-9.76404	78.11232	132.62821	141.57858	83.80801	72.41663	45.56552	0
966	22.78276	4.88202	-18.71441	-14.64606	20.34175	-7.32303	78.11232	137.51023	144.01959	88.69003	77.29865	45.56552	0
967	20.34175	2.44101	-18.71441	-12.20505	20.34175	-7.32303	82.99434	139.95124	148.90161	91.13104	82.18067	50.44754	0
968	22.78276	2.44101	-21.15542	-12.20505	22.78276	-9.76404	85.43535	144.83326	151.34262	96.01306	87.06269	52.88855	0
969	22.78276	2.44101	-21.15542	-12.20505	22.78276	-9.76404	87.87636	144.83326	151.34262	98.45407	87.06269	52.88855	0
970	20.34175	-0.81367	-21.15542	-9.76404	20.34175	-9.76404	90.31737	144.83326	151.34262	100.89508	89.5037	52.88855	0
971	13.01872	-3.25468	-16.2734	-4.88202	13.01872	-9.76404	90.31737	147.27427	153.78363	105.7771	91.94471	52.88855	0
972	3.25468	-13.01872	-16.2734	3.25468	8.1367	-14.64606	90.31737	147.27427	153.78363	105.7771	94.38572	52.88855	0
973	-4.88202	-20.34175	-16.2734	10.57771	5.69569	-19.52808	87.87636	147.27427	153.78363	105.7771	94.38572	52.88855	0
974	-9.76404	-22.78276	-13.83239	15.45973	0.81367	-19.52808	87.87636	149.71528	156.22464	108.21811	91.94471	55.32956	0
975	-14.64606	-27.66478	-13.83239	20.34175	-2.44101	-21.96909	87.87636	154.5973	161.10666	108.21811	91.94471	55.32956	0
976	-21.96909	-30.10579	-8.95037	25.22377	-7.32303	-19.52808	90.31737	154.5973	163.54767	108.21811	91.94471	57.77057	0
977	-21.96909	-30.10579	-8.95037	25.22377	-7.32303	-19.52808	92.75838	159.47932	168.42969	113.10013	96.82673	62.65259	0
978	-21.96909	-30.10579	-8.95037	25.22377	-7.32303	-19.52808	97.6404	161.92033	170.8707	115.54114	101.70875	65.0936	0
979	-14.64606	-22.78276	-8.95037	17.90074	-4.88202	-17.08707	104.96343	166.80235	175.75272	117.98215	106.59077	69.97562	0
980	-2.44101	-13.01872	-11.39138	5.69569	3.25468	-12.20505	112.28646	171.68437	183.07575	127.74619	111.47279	72.41663	0
981	5.69569	-0.81367	-6.50936	-2.44101	5.69569	-2.44101	119.60949	181.44841	190.39878	137.51023	121.23683	77.29865	0
982	17.90074	7.32303	-11.39138	-12.20505	15.45973	-2.44101	124.49151	188.77144	197.72181	142.39225	128.55986	82.18067	0
983	25.22377	14.64606	-11.39138	-19.52808	17.90074	3.25468	126.93252	196.09447	205.04484	149.71528	135.88289	87.06269	0
