samplenr	I	II	III	aVR	aVL	aVF	V1	V2	V3	V4	V5	V6	measurement
0	-12.20505	-139.13757	-126.93252	74.04397	55.32956	-133.44188	-33.36047	-66.72094	-105.7771	-113.9138	-222.94558	-103.33609	0
1	-12.20505	-136.69656	-124.49151	74.04397	55.32956	-131.00087	-35.80148	-66.72094	-105.7771	-118.79582	-222.94558	-103.33609	0
2	-14.64606	-131.81454	-117.16848	71.60296	50.44754	-123.67784	-35.80148	-64.27993	-103.33609	-123.67784	-220.50457	-108.21811	0
3	-12.20505	-126.93252	-114.72747	69.16195	50.44754	-121.23683	-35.80148	-64.27993	-100.89508	-131.00087	-218.06356	-108.21811	0
4	-12.20505	-126.93252	-114.72747	69.16195	50.44754	-121.23683	-30.91946	-64.27993	-100.89508	-135.88289	-218.06356	-108.21811	0
5	-12.20505	-124.49151	-112.28646	66.72094	48.00653	-118.79582	-23.59643	-61.83892	-98.45407	-138.3239	-215.62255	-108.21811	0
6	-12.20505	-124.49151	-112.28646	66.72094	48.00653	-118.79582	-21.15542	-64.27993	-100.89508	-143.20592	-213.18154	-108.21811	0
7	-12.20505	-124.49151	-112.28646	66.72094	48.00653	-118.79582	-18.71441	-64.27993	-100.89508	-145.64693	-210.74053	-108.21811	0
8	-14.64606	-122.0505	-107.40444	66.72094	45.56552	-113.9138	-13.83239	-66.72094	-100.89508	-140.76491	-208.29952	-108.21811	0
9	-14.64606	-117.16848	-102.52242	64.27993	43.12451	-109.03178	-13.83239	-69.16195	-105.7771	-135.88289	-205.85851	-105.7771	0
10	-17.90074	-112.28646	-95.19939	64.27993	38.24249	-104.14976	-13.83239	-69.16195	-108.21811	-133.44188	-205.85851	-105.7771	0
11	-17.90074	-104.96343	-87.87636	59.39791	33.36047	-96.82673	-18.71441	-71.60296	-113.10013	-131.00087	-203.4175	-108.21811	0
12	-14.64606	-100.08141	-85.43535	56.9569	33.36047	-91.94471	-23.59643	-74.04397	-115.54114	-126.11885	-200.97649	-110.65912	0
13	-12.20505	-97.6404	-85.43535	54.51589	35.80148	-91.94471	-23.59643	-76.48498	-115.54114	-123.67784	-200.97649	-113.10013	0
14	-4.88202	-102.52242	-97.6404	52.07488	45.56552	-99.26774	-26.03744	-78.92599	-115.54114	-121.23683	-200.97649	-115.54114	0
15	-4.88202	-107.40444	-102.52242	54.51589	48.00653	-104.14976	-28.47845	-78.92599	-117.98215	-121.23683	-198.53548	-115.54114	0
16	-2.44101	-112.28646	-109.84545	56.9569	52.88855	-111.47279	-30.91946	-83.80801	-117.98215	-121.23683	-193.65346	-117.98215	0
17	4.88202	-117.16848	-122.0505	54.51589	62.65259	-118.79582	-30.91946	-86.24902	-117.98215	-121.23683	-191.21245	-117.98215	0
18	7.32303	-122.0505	-129.37353	56.9569	67.53461	-126.11885	-33.36047	-86.24902	-110.65912	-121.23683	-186.33043	-113.10013	0
19	7.32303	-122.0505	-129.37353	56.9569	67.53461	-126.11885	-38.24249	-83.80801	-110.65912	-116.35481	-183.88942	-110.65912	0
20	12.20505	-114.72747	-126.93252	49.63387	67.53461	-121.23683	-45.56552	-81.367	-108.21811	-116.35481	-179.0074	-108.21811	0
21	14.64606	-112.28646	-126.93252	47.19286	69.97562	-118.79582	-55.32956	-81.367	-108.21811	-116.35481	-176.56639	-108.21811	0
22	17.08707	-112.28646	-129.37353	47.19286	72.41663	-121.23683	-60.21158	-81.367	-108.21811	-118.79582	-176.56639	-108.21811	0
23	21.96909	-109.84545	-131.81454	42.31084	74.85764	-121.23683	-62.65259	-81.367	-103.33609	-118.79582	-176.56639	-105.7771	0
24	24.4101	-107.40444	-131.81454	39.86983	77.29865	-118.79582	-67.53461	-83.80801	-103.33609	-123.67784	-179.0074	-105.7771	0
25	29.29212	-104.96343	-134.25555	37.42882	79.73966	-118.79582	-69.97562	-86.24902	-108.21811	-128.55986	-179.0074	-105.7771	0
26	36.61515	-104.96343	-141.57858	32.5468	87.06269	-123.67784	-74.85764	-93.57205	-110.65912	-135.88289	-179.0074	-103.33609	0
27	41.49717	-100.08141	-141.57858	27.66478	89.5037	-121.23683	-79.73966	-98.45407	-113.10013	-138.3239	-181.44841	-103.33609	0
28	46.37919	-95.19939	-141.57858	22.78276	91.94471	-118.79582	-87.06269	-103.33609	-113.10013	-143.20592	-183.88942	-98.45407	0
29	48.8202	-87.87636	-136.69656	19.52808	91.94471	-111.47279	-94.38572	-105.7771	-117.98215	-143.20592	-181.44841	-93.57205	0
30	46.37919	-82.99434	-129.37353	17.08707	87.06269	-106.59077	-104.14976	-105.7771	-120.42316	-148.08794	-181.44841	-91.13104	0
31	48.8202	-78.11232	-126.93252	14.64606	87.06269	-101.70875	-113.9138	-108.21811	-125.30518	-150.52895	-181.44841	-91.13104	0
32	51.26121	-75.67131	-126.93252	12.20505	87.06269	-101.70875	-118.79582	-108.21811	-125.30518	-152.96996	-181.44841	-91.13104	0
33	53.70222	-73.2303	-126.93252	9.76404	89.5037	-99.26774	-121.23683	-110.65912	-122.86417	-155.41097	-179.0074	-91.13104	0
34	53.70222	-75.67131	-129.37353	9.76404	89.5037	-101.70875	-118.79582	-110.65912	-122.86417	-155.41097	-179.0074	-91.13104	0
35	53.70222	-80.55333	-134.25555	12.20505	91.94471	-106.59077	-116.35481	-110.65912	-122.86417	-157.85198	-179.0074	-91.13104	0
36	53.70222	-85.43535	-139.13757	14.64606	94.38572	-111.47279	-111.47279	-110.65912	-125.30518	-162.734	-179.0074	-93.57205	0
37	51.26121	-92.75838	-144.01959	19.52808	96.82673	-118.79582	-109.03178	-110.65912	-125.30518	-162.734	-176.56639	-96.01306	0
38	46.37919	-97.6404	-144.01959	25.22377	94.38572	-121.23683	-104.14976	-110.65912	-122.86417	-162.734	-179.0074	-96.01306	0
39	31.73313	-104.96343	-136.69656	34.98781	82.18067	-121.23683	-104.14976	-110.65912	-125.30518	-162.734	-183.88942	-96.01306	0
40	19.52808	-112.28646	-131.81454	44.75185	74.85764	-121.23683	-101.70875	-108.21811	-130.1872	-167.61602	-191.21245	-100.89508	0
41	7.32303	-117.16848	-124.49151	54.51589	65.0936	-121.23683	-104.14976	-108.21811	-132.62821	-172.49804	-198.53548	-105.7771	0
42	0	-124.49151	-124.49151	61.83892	60.21158	-123.67784	-104.14976	-108.21811	-135.06922	-177.38006	-205.85851	-113.10013	0
43	-7.32303	-134.25555	-126.93252	69.16195	57.77057	-131.00087	-104.14976	-108.21811	-135.06922	-179.82107	-215.62255	-120.42316	0
44	-14.64606	-146.4606	-131.81454	78.92599	57.77057	-138.3239	-101.70875	-110.65912	-137.51023	-184.70309	-225.38659	-127.74619	0
45	-17.90074	-156.22464	-139.13757	86.24902	60.21158	-148.08794	-101.70875	-113.10013	-142.39225	-189.58511	-232.70962	-135.06922	0
46	-17.90074	-165.98868	-148.90161	91.13104	65.0936	-157.85198	-101.70875	-117.98215	-144.83326	-192.02612	-232.70962	-142.39225	0
47	-20.34175	-175.75272	-156.22464	96.01306	67.53461	-167.61602	-101.70875	-120.42316	-144.83326	-192.02612	-232.70962	-144.83326	0
48	-22.78276	-185.51676	-163.54767	103.33609	69.97562	-174.93905	-101.70875	-122.86417	-144.83326	-194.46713	-232.70962	-147.27427	0
49	-30.10579	-190.39878	-161.10666	108.21811	65.0936	-177.38006	-99.26774	-122.86417	-149.71528	-194.46713	-232.70962	-147.27427	0
50	-34.98781	-192.83979	-158.66565	113.10013	60.21158	-177.38006	-101.70875	-122.86417	-152.15629	-194.46713	-232.70962	-149.71528	0
51	-37.42882	-195.2808	-158.66565	115.54114	60.21158	-177.38006	-104.14976	-120.42316	-154.5973	-194.46713	-230.26861	-149.71528	0
52	-39.86983	-197.72181	-158.66565	117.98215	57.77057	-179.82107	-104.14976	-120.42316	-154.5973	-196.90814	-232.70962	-154.5973	0
53	-42.31084	-195.2808	-153.78363	117.98215	55.32956	-174.93905	-106.59077	-122.86417	-154.5973	-199.34915	-237.59164	-159.47932	0
54	-42.31084	-197.72181	-156.22464	117.98215	55.32956	-177.38006	-109.03178	-125.30518	-157.03831	-201.79016	-240.03265	-161.92033	0
55	-42.31084	-197.72181	-156.22464	117.98215	55.32956	-177.38006	-106.59077	-127.74619	-159.47932	-201.79016	-242.47366	-164.36134	0
56	-42.31084	-200.16282	-158.66565	120.42316	57.77057	-179.82107	-106.59077	-135.06922	-164.36134	-206.67218	-242.47366	-166.80235	0
57	-42.31084	-202.60383	-161.10666	120.42316	57.77057	-182.26208	-106.59077	-137.51023	-166.80235	-209.11319	-244.91467	-169.24336	0
58	-42.31084	-202.60383	-161.10666	120.42316	57.77057	-182.26208	-111.47279	-142.39225	-166.80235	-209.11319	-247.35568	-166.80235	0
59	-47.19286	-205.04484	-158.66565	125.30518	55.32956	-182.26208	-111.47279	-142.39225	-169.24336	-209.11319	-247.35568	-164.36134	0
60	-54.51589	-205.04484	-151.34262	127.74619	48.00653	-179.82107	-116.35481	-139.95124	-171.68437	-209.11319	-249.79669	-164.36134	0
61	-54.51589	-200.16282	-146.4606	125.30518	45.56552	-174.93905	-121.23683	-137.51023	-174.12538	-211.5542	-252.2377	-164.36134	0
62	-49.63387	-197.72181	-148.90161	122.86417	48.00653	-174.93905	-123.67784	-137.51023	-174.12538	-213.99521	-257.11972	-166.80235	0
63	-49.63387	-197.72181	-148.90161	122.86417	48.00653	-174.93905	-121.23683	-132.62821	-169.24336	-213.99521	-262.00174	-169.24336	0
64	-49.63387	-197.72181	-148.90161	122.86417	48.00653	-174.93905	-116.35481	-127.74619	-166.80235	-213.99521	-262.00174	-169.24336	0
65	-47.19286	-197.72181	-151.34262	120.42316	50.44754	-174.93905	-113.9138	-125.30518	-164.36134	-211.5542	-264.44275	-171.68437	0
66	-42.31084	-197.72181	-156.22464	117.98215	55.32956	-177.38006	-111.47279	-125.30518	-164.36134	-213.99521	-262.00174	-171.68437	0
67	-42.31084	-197.72181	-156.22464	117.98215	55.32956	-177.38006	-111.47279	-127.74619	-164.36134	-216.43622	-262.00174	-174.12538	0
68	-44.75185	-197.72181	-153.78363	120.42316	52.88855	-177.38006	-113.9138	-127.74619	-164.36134	-218.87723	-259.56073	-174.12538	0
69	-52.07488	-197.72181	-146.4606	122.86417	45.56552	-172.49804	-116.35481	-127.74619	-169.24336	-221.31824	-254.67871	-174.12538	0
70	-54.51589	-192.83979	-139.13757	122.86417	40.6835	-167.61602	-121.23683	-130.1872	-171.68437	-221.31824	-254.67871	-174.12538	0
71	-54.51589	-185.51676	-131.81454	117.98215	38.24249	-160.29299	-128.55986	-132.62821	-174.12538	-223.75925	-249.79669	-176.56639	0
72	-54.51589	-183.07575	-129.37353	117.98215	35.80148	-157.85198	-128.55986	-130.1872	-171.68437	-223.75925	-244.91467	-176.56639	0
73	-54.51589	-183.07575	-129.37353	117.98215	35.80148	-157.85198	-126.11885	-130.1872	-166.80235	-223.75925	-240.03265	-176.56639	0
74	-54.51589	-183.07575	-129.37353	117.98215	35.80148	-157.85198	-123.67784	-130.1872	-166.80235	-218.87723	-232.70962	-174.12538	0
75	-52.07488	-183.07575	-131.81454	115.54114	38.24249	-157.85198	-121.23683	-130.1872	-164.36134	-213.99521	-227.8276	-174.12538	0
76	-52.07488	-185.51676	-134.25555	117.98215	40.6835	-160.29299	-118.79582	-130.1872	-164.36134	-213.99521	-218.06356	-171.68437	0
77	-49.63387	-190.39878	-141.57858	117.98215	45.56552	-167.61602	-116.35481	-130.1872	-164.36134	-211.5542	-213.18154	-171.68437	0
78	-52.07488	-195.2808	-144.01959	122.86417	45.56552	-170.05703	-113.9138	-130.1872	-164.36134	-209.11319	-210.74053	-171.68437	0
79	-54.51589	-192.83979	-139.13757	122.86417	40.6835	-167.61602	-116.35481	-130.1872	-171.68437	-209.11319	-208.29952	-171.68437	0
80	-54.51589	-190.39878	-136.69656	120.42316	40.6835	-165.17501	-118.79582	-127.74619	-171.68437	-206.67218	-208.29952	-171.68437	0
81	-54.51589	-187.95777	-134.25555	120.42316	38.24249	-162.734	-123.67784	-125.30518	-171.68437	-204.23117	-208.29952	-169.24336	0
82	-52.07488	-190.39878	-139.13757	120.42316	43.12451	-165.17501	-123.67784	-122.86417	-169.24336	-199.34915	-213.18154	-169.24336	0
83	-52.07488	-190.39878	-139.13757	120.42316	43.12451	-165.17501	-121.23683	-120.42316	-164.36134	-194.46713	-213.18154	-169.24336	0
84	-52.07488	-192.83979	-141.57858	120.42316	43.12451	-167.61602	-118.79582	-120.42316	-161.92033	-189.58511	-215.62255	-166.80235	0
85	-52.07488	-192.83979	-141.57858	120.42316	43.12451	-167.61602	-116.35481	-120.42316	-159.47932	-184.70309	-213.18154	-164.36134	0
86	-52.07488	-192.83979	-141.57858	120.42316	43.12451	-167.61602	-116.35481	-122.86417	-159.47932	-184.70309	-210.74053	-161.92033	0
87	-47.19286	-192.83979	-146.4606	117.98215	48.00653	-170.05703	-116.35481	-122.86417	-161.92033	-182.26208	-210.74053	-159.47932	0
88	-47.19286	-190.39878	-144.01959	117.98215	48.00653	-167.61602	-118.79582	-122.86417	-164.36134	-184.70309	-213.18154	-159.47932	0
89	-47.19286	-187.95777	-141.57858	115.54114	45.56552	-165.17501	-121.23683	-122.86417	-166.80235	-184.70309	-210.74053	-159.47932	0
90	-49.63387	-185.51676	-136.69656	115.54114	43.12451	-162.734	-126.11885	-120.42316	-169.24336	-184.70309	-210.74053	-159.47932	0
91	-49.63387	-183.07575	-134.25555	115.54114	40.6835	-160.29299	-128.55986	-120.42316	-171.68437	-184.70309	-213.18154	-159.47932	0
92	-49.63387	-180.63474	-131.81454	113.10013	40.6835	-157.85198	-128.55986	-117.98215	-171.68437	-187.1441	-215.62255	-159.47932	0
93	-49.63387	-180.63474	-131.81454	113.10013	40.6835	-157.85198	-123.67784	-115.54114	-166.80235	-184.70309	-215.62255	-159.47932	0
94	-49.63387	-183.07575	-134.25555	115.54114	40.6835	-160.29299	-123.67784	-115.54114	-164.36134	-179.82107	-215.62255	-159.47932	0
95	-49.63387	-185.51676	-136.69656	115.54114	43.12451	-162.734	-123.67784	-120.42316	-164.36134	-177.38006	-215.62255	-159.47932	0
96	-47.19286	-183.07575	-136.69656	113.10013	43.12451	-160.29299	-128.55986	-122.86417	-166.80235	-179.82107	-210.74053	-161.92033	0
97	-42.31084	-183.07575	-141.57858	110.65912	48.00653	-162.734	-128.55986	-122.86417	-166.80235	-182.26208	-205.85851	-159.47932	0
98	-39.86983	-183.07575	-144.01959	110.65912	50.44754	-165.17501	-131.00087	-122.86417	-166.80235	-182.26208	-200.97649	-159.47932	0
99	-39.86983	-180.63474	-141.57858	108.21811	50.44754	-162.734	-138.3239	-125.30518	-171.68437	-184.70309	-196.09447	-157.03831	0
100	-44.75185	-178.19373	-134.25555	110.65912	43.12451	-157.85198	-145.64693	-127.74619	-174.12538	-189.58511	-193.65346	-157.03831	1000	P+0
101	-44.75185	-175.75272	-131.81454	108.21811	43.12451	-155.41097	-148.08794	-125.30518	-174.12538	-192.02612	-188.77144	-157.03831	0
102	-42.31084	-170.8707	-129.37353	105.7771	43.12451	-150.52895	-148.08794	-122.86417	-171.68437	-192.02612	-183.88942	-159.47932	0
103	-42.31084	-170.8707	-129.37353	105.7771	43.12451	-150.52895	-145.64693	-122.86417	-164.36134	-189.58511	-181.44841	-159.47932	0
104	-44.75185	-178.19373	-134.25555	110.65912	43.12451	-157.85198	-143.20592	-122.86417	-164.36134	-187.1441	-176.56639	-161.92033	0
105	-47.19286	-183.07575	-136.69656	113.10013	43.12451	-160.29299	-138.3239	-125.30518	-166.80235	-189.58511	-176.56639	-166.80235	0
106	-52.07488	-192.83979	-141.57858	120.42316	43.12451	-167.61602	-128.55986	-125.30518	-174.12538	-196.90814	-179.0074	-171.68437	0
107	-66.72094	-205.04484	-139.13757	135.06922	35.80148	-172.49804	-111.47279	-120.42316	-186.33043	-206.67218	-186.33043	-181.44841	0
108	-83.80801	-219.6909	-136.69656	149.71528	26.03744	-179.82107	-87.06269	-113.10013	-200.97649	-228.64127	-205.85851	-198.53548	0
109	-108.21811	-246.54201	-139.13757	176.56639	13.83239	-194.46713	-62.65259	-108.21811	-230.26861	-257.93339	-235.15063	-222.94558	0
110	-130.1872	-273.39312	-144.01959	200.97649	6.50936	-209.11319	-33.36047	-103.33609	-259.56073	-296.98955	-274.20679	-254.67871	0
111	-152.15629	-305.12625	-153.78363	227.8276	-0.81367	-231.08228	-6.50936	-93.57205	-286.41184	-333.6047	-310.82194	-288.85285	0
112	-166.80235	-336.85938	-170.8707	249.79669	1.62734	-255.49238	27.66478	-69.16195	-293.73487	-358.0148	-342.55507	-323.02699	0
113	-171.68437	-371.03352	-200.16282	269.32477	13.83239	-287.22551	62.65259	-30.10579	-281.52982	-367.77884	-364.52416	-349.8781	0
114	-164.36134	-407.64867	-244.101	283.97083	38.24249	-326.28167	104.14976	29.29212	-242.47366	-353.13278	-371.84719	-366.96517	0
115	-144.83326	-434.49978	-290.48019	288.85285	72.41663	-362.89682	148.08794	117.16848	-171.68437	-311.63561	-357.20113	-371.84719	0
116	-108.21811	-441.82281	-334.41837	274.20679	111.47279	-389.74793	194.46713	227.01393	-64.27993	-233.52329	-313.26295	-357.20113	0
117	-54.51589	-436.94079	-383.23857	244.91467	162.734	-411.71702	240.84632	353.94645	78.11232	-121.23683	-247.35568	-325.468	0
118	17.08707	-417.41271	-434.49978	198.53548	223.75925	-426.36308	275.02046	488.202	251.42403	23.59643	-157.03831	-274.20679	0
119	104.96343	-375.91554	-480.87897	135.06922	292.10753	-428.80409	289.66652	612.69351	444.26382	199.34915	-42.31084	-200.97649	0
120	207.48585	-312.44928	-519.93513	52.07488	362.89682	-416.59904	284.7845	715.21593	654.19068	401.95298	97.6404	-108.21811	0
121	327.09534	-224.57292	-551.66826	-51.26121	438.56813	-387.30692	253.05137	798.21027	873.88158	628.96691	263.62908	7.32303	0
122	456.46887	-109.84545	-566.31432	-173.31171	509.35742	-338.48672	204.23117	864.11754	1113.10056	882.83195	454.02786	144.01959	0
123	590.72442	22.78276	-568.75533	-307.56726	580.14671	-272.57945	118.79582	893.40966	1347.43752	1144.02002	661.51371	300.24423	0
124	724.97997	166.80235	-558.99129	-446.70483	641.17196	-196.90814	-4.06835	883.64562	1557.36438	1395.44405	871.44057	463.7919	0
125	842.14845	323.02699	-519.93513	-583.40139	680.22812	-99.26774	-157.85198	825.06138	1724.9804	1626.52633	1081.36743	632.22159	0
126	915.37875	486.57466	-429.61776	-700.56987	672.90509	28.47845	-316.51763	727.42098	1844.58989	1821.80713	1279.08924	798.21027	0
127	944.67087	650.12233	-295.36221	-798.21027	619.20287	177.38006	-482.50631	607.81149	1917.82019	1978.03177	1457.28297	959.31693	0
128	944.67087	786.81889	-158.66565	-866.55855	550.85459	314.07662	-648.49499	458.90988	1922.70221	2063.46712	1586.6565	1086.24945	0
129	905.61471	886.9003	-19.52808	-895.85067	462.97823	433.68611	-802.27862	285.59817	1842.14888	2048.82106	1634.66303	1164.36177	0
130	832.38441	950.36656	117.98215	-890.96865	358.0148	533.76752	-924.32912	85.43535	1666.39616	1926.77056	1608.62559	1188.77187	0
131	724.97997	974.77666	249.79669	-849.47148	238.40531	611.87984	-1014.64649	-139.95124	1391.3757	1697.31562	1506.10317	1161.92076	0
132	607.81149	962.57161	354.76012	-786.00522	126.11885	658.25903	-1080.55376	-371.84719	1054.51632	1388.12102	1337.67348	1091.13147	0
133	500.40705	918.63343	418.22638	-710.33391	40.6835	668.02307	-1134.25598	-620.83021	661.51371	1017.0875	1120.42359	981.28602	0
134	388.12059	845.40313	457.28254	-617.57553	-35.80148	650.936	-1168.43012	-864.93121	244.101	614.32085	868.99956	842.14845	0
135	283.15716	769.73182	486.57466	-527.25816	-101.70875	628.96691	-1195.28123	-1096.82716	-164.36134	228.64127	629.78058	703.01088	0
136	192.83979	694.06051	501.22072	-444.26382	-155.41097	597.23378	-1212.3683	-1292.10796	-523.18981	-101.70875	419.85372	576.07836	0
137	119.60949	620.83021	501.22072	-371.03352	-192.02612	560.61863	-1217.25032	-1411.71745	-784.37788	-350.69177	248.98302	466.23291	0
138	61.02525	547.59991	486.57466	-305.12625	-213.99521	516.68045	-1200.16325	-1455.65563	-943.04353	-519.12146	117.16848	368.59251	0
139	17.08707	469.48759	452.40052	-244.101	-218.87723	460.53722	-1165.98911	-1436.12755	-1018.71484	-614.32085	21.96909	285.59817	0
140	-9.76404	396.25729	406.02133	-192.83979	-209.11319	401.95298	-1114.7279	-1367.77927	-1026.03787	-655.81802	-47.19286	217.24989	0
141	-22.78276	327.90901	349.8781	-153.78363	-187.1441	338.48672	-1051.26164	-1270.13887	-986.98171	-663.14105	-91.13104	158.66565	0
142	-30.10579	262.00174	291.29386	-117.16848	-160.29299	275.02046	-975.59033	-1155.4114	-918.63343	-646.05398	-120.42316	109.84545	0
143	-34.98781	208.29952	242.47366	-87.87636	-138.3239	223.75925	-890.15498	-1035.80191	-840.52111	-614.32085	-137.51023	70.78929	0
144	-37.42882	166.80235	203.4175	-65.90727	-121.23683	184.70309	-799.83761	-923.51545	-764.8498	-580.14671	-142.39225	41.49717	0
145	-34.98781	152.15629	186.33043	-58.58424	-111.47279	167.61602	-709.52024	-818.55202	-694.06051	-543.53156	-135.06922	24.4101	0
146	-32.5468	144.83326	176.56639	-56.14323	-104.14976	160.29299	-624.08489	-720.91162	-628.15324	-504.4754	-122.86417	14.64606	0
147	-30.10579	144.83326	174.12538	-58.58424	-101.70875	157.85198	-548.41358	-630.59425	-569.569	-467.86025	-105.7771	12.20505	0
148	-34.98781	149.71528	183.88942	-58.58424	-109.03178	165.17501	-475.18328	-545.1589	-513.42577	-431.2451	-88.69003	12.20505	0
149	-44.75185	152.15629	196.09447	-53.70222	-121.23683	172.49804	-406.835	-464.60557	-462.16456	-394.62995	-69.16195	12.20505	0
150	-52.07488	152.15629	203.4175	-51.26121	-128.55986	177.38006	-348.25076	-393.81628	-415.78537	-362.89682	-54.51589	14.64606	0
151	-61.83892	144.83326	205.85851	-41.49717	-133.44188	174.93905	-299.43056	-335.23204	-376.72921	-336.04571	-42.31084	9.76404	0
152	-71.60296	130.1872	200.97649	-29.29212	-135.88289	165.17501	-257.93339	-283.97083	-340.11406	-316.51763	-36.61515	4.88202	0
153	-78.92599	113.10013	191.21245	-17.08707	-135.88289	150.52895	-221.31824	-242.47366	-308.38093	-299.43056	-36.61515	-4.88202	0
154	-81.367	91.13104	171.68437	-4.88202	-126.11885	131.00087	-189.58511	-208.29952	-281.52982	-282.34349	-34.17414	-14.64606	0
155	-81.367	74.04397	154.5973	2.44101	-118.79582	113.9138	-165.17501	-179.0074	-259.56073	-267.69743	-29.29212	-19.52808	0
156	-78.92599	54.51589	132.62821	12.20505	-106.59077	91.94471	-145.64693	-157.03831	-242.47366	-257.93339	-26.85111	-26.85111	0
157	-78.92599	37.42882	115.54114	19.52808	-96.82673	74.85764	-131.00087	-135.06922	-225.38659	-248.16935	-26.85111	-30.10579	0
158	-78.92599	25.22377	103.33609	25.22377	-91.94471	62.65259	-116.35481	-113.10013	-208.29952	-238.40531	-24.4101	-30.10579	0
159	-81.367	20.34175	100.89508	30.10579	-91.94471	60.21158	-104.14976	-91.13104	-196.09447	-226.20026	-19.52808	-32.5468	0
160	-81.367	20.34175	100.89508	30.10579	-91.94471	60.21158	-94.38572	-71.60296	-181.44841	-216.43622	-19.52808	-30.10579	0
161	-83.80801	20.34175	103.33609	30.10579	-94.38572	60.21158	-87.06269	-54.51589	-171.68437	-209.11319	-17.08707	-30.10579	0
162	-86.24902	22.78276	108.21811	30.10579	-96.82673	65.0936	-79.73966	-42.31084	-159.47932	-201.79016	-19.52808	-30.10579	0
163	-88.69003	27.66478	115.54114	30.10579	-101.70875	69.97562	-67.53461	-32.5468	-147.27427	-194.46713	-21.96909	-30.10579	0
164	-86.24902	27.66478	113.10013	27.66478	-99.26774	69.97562	-60.21158	-27.66478	-142.39225	-189.58511	-21.96909	-30.10579	0
165	-83.80801	27.66478	110.65912	27.66478	-96.82673	67.53461	-52.88855	-22.78276	-137.51023	-182.26208	-21.96909	-24.4101	0
166	-83.80801	27.66478	110.65912	27.66478	-96.82673	67.53461	-48.00653	-20.34175	-135.06922	-179.82107	-21.96909	-19.52808	0
167	-81.367	27.66478	108.21811	25.22377	-94.38572	67.53461	-43.12451	-17.90074	-135.06922	-179.82107	-21.96909	-19.52808	0
168	-78.92599	30.10579	108.21811	22.78276	-94.38572	67.53461	-38.24249	-13.01872	-132.62821	-177.38006	-21.96909	-17.08707	0
169	-78.92599	34.98781	113.10013	19.52808	-96.82673	72.41663	-35.80148	-5.69569	-132.62821	-172.49804	-19.52808	-14.64606	0
170	-83.80801	37.42882	120.42316	22.78276	-101.70875	77.29865	-33.36047	1.62734	-130.1872	-167.61602	-17.08707	-9.76404	0
171	-86.24902	42.31084	127.74619	19.52808	-106.59077	84.62168	-30.91946	8.95037	-125.30518	-160.29299	-17.08707	-7.32303	0
172	-88.69003	47.19286	135.06922	19.52808	-111.47279	89.5037	-26.03744	16.2734	-120.42316	-152.96996	-14.64606	-7.32303	0
173	-88.69003	49.63387	137.51023	19.52808	-113.9138	91.94471	-21.15542	18.71441	-113.10013	-140.76491	-9.76404	-4.88202	0
174	-88.69003	47.19286	135.06922	19.52808	-111.47279	89.5037	-11.39138	26.85111	-105.7771	-126.11885	-4.88202	-2.44101	0
175	-91.13104	47.19286	137.51023	19.52808	-113.9138	91.94471	-6.50936	31.73313	-100.89508	-109.03178	4.88202	0	0
176	-88.69003	49.63387	137.51023	19.52808	-113.9138	91.94471	-1.62734	36.61515	-98.45407	-94.38572	12.20505	2.44101	0
177	-86.24902	52.07488	137.51023	17.08707	-111.47279	94.38572	3.25468	39.05616	-96.01306	-82.18067	17.08707	2.44101	0
178	-86.24902	52.07488	137.51023	17.08707	-111.47279	94.38572	5.69569	43.93818	-93.57205	-65.0936	21.96909	4.88202	0
179	-91.13104	54.51589	144.83326	17.08707	-118.79582	99.26774	10.57771	51.26121	-96.01306	-50.44754	24.4101	7.32303	0
180	-96.01306	59.39791	154.5973	17.08707	-126.11885	106.59077	13.01872	58.58424	-93.57205	-37.42882	24.4101	7.32303	0
181	-98.45407	61.83892	159.47932	17.08707	-128.55986	109.03178	13.01872	63.46626	-91.13104	-25.22377	26.85111	9.76404	0
182	-103.33609	64.27993	166.80235	19.52808	-135.88289	113.9138	22.78276	70.78929	-83.80801	-13.01872	29.29212	9.76404	0
183	-103.33609	64.27993	166.80235	19.52808	-135.88289	113.9138	30.10579	78.11232	-74.04397	4.06835	34.17414	12.20505	0
184	-103.33609	64.27993	166.80235	19.52808	-135.88289	113.9138	40.6835	85.43535	-66.72094	16.2734	39.05616	14.64606	0
185	-103.33609	69.16195	171.68437	17.08707	-138.3239	118.79582	50.44754	92.75838	-61.83892	30.91946	48.8202	17.08707	0
186	-100.89508	74.04397	174.12538	12.20505	-138.3239	123.67784	52.88855	97.6404	-59.39791	38.24249	56.14323	17.08707	0
187	-96.01306	81.367	176.56639	7.32303	-135.88289	128.55986	55.32956	102.52242	-59.39791	43.12451	63.46626	19.52808	0
188	-93.57205	88.69003	181.44841	2.44101	-138.3239	133.44188	60.21158	107.40444	-54.51589	50.44754	73.2303	21.96909	0
189	-93.57205	93.57205	186.33043	0	-140.76491	138.3239	62.65259	112.28646	-54.51589	55.32956	80.55333	26.85111	0
190	-98.45407	98.45407	196.09447	0	-148.08794	145.64693	65.0936	117.16848	-52.07488	60.21158	82.99434	29.29212	0
191	-98.45407	103.33609	200.97649	-2.44101	-150.52895	150.52895	67.53461	124.49151	-52.07488	60.21158	90.31737	29.29212	0
192	-98.45407	110.65912	208.29952	-7.32303	-152.96996	157.85198	72.41663	129.37353	-47.19286	62.65259	92.75838	31.73313	0
193	-98.45407	113.10013	210.74053	-7.32303	-155.41097	160.29299	84.62168	139.13757	-34.98781	72.41663	102.52242	36.61515	0
194	-100.89508	110.65912	210.74053	-4.88202	-155.41097	160.29299	99.26774	146.4606	-29.29212	77.29865	114.72747	39.05616	0
195	-100.89508	113.10013	213.18154	-7.32303	-157.85198	162.734	106.59077	151.34262	-24.4101	82.18067	124.49151	41.49717	0
196	-96.01306	120.42316	215.62255	-12.20505	-155.41097	167.61602	113.9138	158.66565	-19.52808	82.18067	136.69656	43.93818	0
197	-91.13104	125.30518	215.62255	-17.08707	-152.96996	170.05703	118.79582	165.98868	-12.20505	82.18067	151.34262	48.8202	0
198	-91.13104	130.1872	220.50457	-19.52808	-155.41097	174.93905	126.11885	175.75272	-7.32303	84.62168	161.10666	53.70222	0
199	-91.13104	135.06922	225.38659	-21.96909	-157.85198	179.82107	133.44188	185.51676	-4.88202	84.62168	170.8707	58.58424	0
200	-93.57205	142.39225	235.15063	-24.4101	-165.17501	187.1441	135.88289	195.2808	0	84.62168	173.31171	63.46626	0
201	-96.01306	149.71528	244.91467	-26.85111	-170.05703	196.90814	140.76491	202.60383	4.88202	82.18067	175.75272	65.90727	0
202	-100.89508	154.5973	254.67871	-26.85111	-177.38006	204.23117	148.08794	212.36787	14.64606	79.73966	175.75272	65.90727	0
203	-105.7771	159.47932	264.44275	-26.85111	-184.70309	211.5542	157.85198	222.13191	21.96909	77.29865	178.19373	70.78929	0
204	-105.7771	166.80235	271.76578	-31.73313	-189.58511	218.87723	170.05703	229.45494	31.73313	74.85764	178.19373	73.2303	0
205	-100.89508	174.12538	274.20679	-36.61515	-187.1441	223.75925	179.82107	239.21898	39.05616	72.41663	185.51676	78.11232	0
206	-98.45407	183.88942	281.52982	-43.93818	-189.58511	231.08228	189.58511	246.54201	46.37919	65.0936	195.2808	80.55333	0
207	-93.57205	193.65346	286.41184	-51.26121	-189.58511	238.40531	196.90814	258.74706	51.26121	57.77057	202.60383	87.87636	0
208	-93.57205	198.53548	291.29386	-53.70222	-192.02612	243.28733	206.67218	273.39312	58.58424	52.88855	212.36787	95.19939	0
209	-93.57205	205.85851	298.61689	-56.14323	-196.90814	250.61036	213.99521	285.59817	63.46626	50.44754	219.6909	102.52242	0
210	-96.01306	213.18154	308.38093	-58.58424	-201.79016	260.3744	221.31824	300.24423	73.2303	48.00653	222.13191	109.84545	0
211	-98.45407	220.50457	318.14497	-61.02525	-209.11319	267.69743	226.20026	314.89029	80.55333	45.56552	227.01393	114.72747	0
212	-100.89508	225.38659	325.468	-63.46626	-213.99521	275.02046	235.9643	327.09534	90.31737	45.56552	227.01393	117.16848	0
213	-100.89508	232.70962	332.79103	-65.90727	-216.43622	282.34349	245.72834	339.30039	104.96343	52.88855	231.89595	119.60949	0
214	-103.33609	235.15063	337.67305	-65.90727	-221.31824	284.7845	257.93339	353.94645	117.16848	67.53461	236.77797	124.49151	0
215	-100.89508	244.91467	344.99608	-73.2303	-223.75925	294.54854	270.13844	366.1515	126.93252	84.62168	246.54201	126.93252	0
216	-98.45407	254.67871	352.31911	-78.11232	-226.20026	301.87157	277.46147	375.91554	136.69656	99.26774	256.30605	131.81454	0
217	-93.57205	264.44275	357.20113	-85.43535	-226.20026	309.1946	287.22551	390.5616	146.4606	121.23683	266.07009	134.25555	0
218	-91.13104	271.76578	362.08315	-90.31737	-226.20026	316.51763	294.54854	405.20766	156.22464	143.20592	275.83413	141.57858	0
219	-93.57205	279.08881	371.84719	-92.75838	-233.52329	323.84066	301.87157	419.85372	163.54767	165.17501	285.59817	146.4606	0
220	-98.45407	288.85285	386.49325	-95.19939	-243.28733	336.04571	311.63561	436.94079	173.31171	182.26208	288.03918	151.34262	0
221	-98.45407	301.0579	398.6983	-102.52242	-248.16935	348.25076	321.39965	454.02786	183.07575	196.90814	292.9212	156.22464	0
222	-96.01306	308.38093	403.58032	-107.40444	-250.61036	355.57379	331.16369	468.67392	197.72181	211.5542	292.9212	161.10666	0
223	-93.57205	313.26295	406.02133	-109.84545	-250.61036	358.0148	345.80975	483.31998	212.36787	226.20026	295.36221	165.98868	0
224	-93.57205	318.14497	410.90335	-112.28646	-253.05137	362.89682	362.89682	497.96604	227.01393	240.84632	297.80322	170.8707	0
225	-91.13104	323.02699	413.34436	-117.16848	-253.05137	367.77884	375.10187	510.17109	239.21898	253.05137	305.12625	178.19373	0
226	-83.80801	330.35002	413.34436	-124.49151	-248.16935	370.21985	387.30692	522.37614	248.98302	265.25642	314.89029	183.07575	0
227	-81.367	335.23204	415.78537	-126.93252	-248.16935	375.10187	397.07096	534.58119	258.74706	275.02046	319.77231	190.39878	0
228	-78.92599	344.99608	423.1084	-134.25555	-250.61036	382.4249	404.39399	549.22725	268.5111	287.22551	327.09534	195.2808	0
229	-78.92599	352.31911	430.43143	-136.69656	-255.49238	389.74793	411.71702	563.87331	278.27514	299.43056	336.85938	202.60383	0
230	-78.92599	359.64214	437.75446	-141.57858	-257.93339	397.07096	416.59904	578.51937	290.48019	314.07662	344.18241	209.92686	0
231	-81.367	369.40618	449.95951	-144.01959	-265.25642	409.27601	423.92207	590.72442	300.24423	323.84066	351.50544	217.24989	0
232	-78.92599	374.2882	452.40052	-148.90161	-265.25642	411.71702	431.2451	602.92947	312.44928	336.04571	358.82847	219.6909	0
233	-74.04397	376.72921	449.95951	-151.34262	-262.81541	411.71702	441.00914	610.2525	324.65433	345.80975	363.71049	222.13191	0
234	-71.60296	376.72921	447.5185	-153.78363	-260.3744	411.71702	453.21419	620.01654	336.85938	360.45581	373.47453	227.01393	0
235	-69.16195	376.72921	445.07749	-153.78363	-257.93339	409.27601	462.97823	627.33957	346.62342	370.21985	383.23857	234.33696	0
236	-64.27993	379.17022	442.63648	-158.66565	-253.05137	409.27601	467.86025	629.78058	351.50544	375.10187	388.12059	234.33696	0
237	-54.51589	381.61123	435.31345	-163.54767	-245.72834	406.835	472.74227	632.22159	356.38746	379.98389	390.5616	239.21898	0
238	-49.63387	384.05224	432.87244	-168.42969	-240.84632	406.835	472.74227	637.10361	361.26948	382.4249	397.88463	241.65999	0
239	-49.63387	386.49325	435.31345	-168.42969	-243.28733	409.27601	475.18328	641.98563	363.71049	387.30692	402.76665	248.98302	0
240	-47.19286	391.37527	437.75446	-173.31171	-243.28733	414.15803	472.74227	644.42664	363.71049	389.74793	405.20766	253.86504	0
241	-42.31084	391.37527	432.87244	-175.75272	-238.40531	411.71702	467.86025	646.86765	366.1515	392.18894	407.64867	256.30605	0
242	-39.86983	388.93426	427.99042	-175.75272	-233.52329	406.835	465.41924	646.86765	368.59251	392.18894	410.08968	253.86504	0
243	-34.98781	386.49325	420.66739	-175.75272	-228.64127	401.95298	465.41924	644.42664	373.47453	394.62995	410.08968	253.86504	0
244	-30.10579	379.17022	408.46234	-175.75272	-218.87723	392.18894	462.97823	639.54462	373.47453	394.62995	412.53069	253.86504	0
245	-25.22377	376.72921	401.13931	-175.75272	-213.99521	387.30692	458.09621	627.33957	368.59251	389.74793	414.9717	251.42403	0
246	-17.90074	371.84719	388.93426	-178.19373	-204.23117	379.98389	450.77318	615.13452	363.71049	382.4249	414.9717	248.98302	0
247	-9.76404	362.08315	371.84719	-175.75272	-192.02612	367.77884	443.45015	602.92947	358.82847	377.54288	419.85372	248.98302	0
248	-4.88202	357.20113	362.08315	-175.75272	-184.70309	360.45581	431.2451	590.72442	351.50544	370.21985	422.29473	248.98302	0
249	0	352.31911	352.31911	-175.75272	-177.38006	353.13278	419.04005	580.96038	339.30039	362.89682	424.73574	248.98302	0
250	2.44101	344.99608	342.55507	-173.31171	-170.05703	343.36874	404.39399	566.31432	331.97736	355.57379	424.73574	248.98302	0
251	2.44101	335.23204	332.79103	-168.42969	-165.17501	333.6047	389.74793	554.10927	322.21332	345.80975	422.29473	244.101	0
252	4.88202	323.02699	318.14497	-163.54767	-157.85198	321.39965	377.54288	539.46321	314.89029	336.04571	414.9717	239.21898	0
253	4.88202	310.82194	305.93992	-158.66565	-150.52895	309.1946	365.33783	522.37614	307.56726	328.72268	407.64867	231.89595	0
254	7.32303	296.17588	288.85285	-151.34262	-140.76491	292.10753	353.13278	502.84806	300.24423	321.39965	397.88463	224.57292	0
255	12.20505	283.97083	271.76578	-148.90161	-131.00087	277.46147	340.92773	483.31998	288.03918	309.1946	388.12059	217.24989	0
256	19.52808	271.76578	252.2377	-146.4606	-116.35481	262.81541	323.84066	461.35089	275.83413	296.98955	378.35655	209.92686	0
257	26.85111	257.11972	230.26861	-141.57858	-101.70875	243.28733	306.75359	441.82281	261.18807	284.7845	368.59251	202.60383	0
258	29.29212	244.91467	215.62255	-136.69656	-94.38572	231.08228	289.66652	424.73574	251.42403	272.57945	353.94645	195.2808	0
259	31.73313	232.70962	200.97649	-131.81454	-84.62168	216.43622	272.57945	405.20766	234.33696	262.81541	341.7414	190.39878	0
260	31.73313	220.50457	188.77144	-126.93252	-79.73966	204.23117	253.05137	388.12059	222.13191	253.05137	327.09534	185.51676	0
261	31.73313	205.85851	174.12538	-119.60949	-72.41663	189.58511	233.52329	368.59251	207.48585	240.84632	312.44928	175.75272	0
262	34.17414	193.65346	159.47932	-114.72747	-62.65259	177.38006	216.43622	351.50544	197.72181	231.08228	297.80322	168.42969	0
263	34.17414	179.0074	144.83326	-107.40444	-55.32956	162.734	201.79016	329.53635	187.95777	223.75925	283.15716	158.66565	0
264	36.61515	161.92033	125.30518	-100.08141	-45.56552	143.20592	189.58511	310.00827	178.19373	213.99521	268.5111	148.90161	0
265	41.49717	147.27427	105.7771	-95.19939	-33.36047	126.11885	177.38006	290.48019	165.98868	206.67218	258.74706	141.57858	0
266	46.37919	130.1872	83.80801	-87.87636	-18.71441	106.59077	160.29299	268.5111	153.78363	194.46713	246.54201	131.81454	0
267	48.8202	115.54114	66.72094	-82.99434	-8.95037	91.94471	140.76491	246.54201	139.13757	182.26208	231.89595	119.60949	0
268	53.70222	103.33609	49.63387	-78.11232	1.62734	77.29865	123.67784	227.01393	124.49151	170.05703	217.24989	109.84545	0
269	51.26121	88.69003	37.42882	-70.78929	6.50936	62.65259	104.14976	209.92686	109.84545	157.85198	200.16282	104.96343	0
270	46.37919	76.48498	30.10579	-61.02525	8.95037	52.88855	84.62168	192.83979	92.75838	145.64693	183.07575	95.19939	0
271	41.49717	64.27993	22.78276	-53.70222	8.95037	43.12451	65.0936	170.8707	75.67131	128.55986	168.42969	82.99434	0
272	39.05616	54.51589	15.45973	-46.37919	11.39138	35.80148	48.00653	156.22464	61.02525	111.47279	151.34262	70.78929	0
273	39.05616	44.75185	5.69569	-41.49717	16.2734	26.03744	38.24249	136.69656	48.8202	99.26774	139.13757	58.58424	0
274	34.17414	34.98781	0.81367	-34.17414	16.2734	18.71441	30.10579	122.0505	39.05616	87.06269	129.37353	48.8202	0
275	34.17414	20.34175	-14.64606	-26.85111	23.59643	4.06835	20.34175	104.96343	26.85111	72.41663	122.0505	39.05616	0
276	34.17414	10.57771	-24.4101	-21.96909	28.47845	-5.69569	8.1367	85.43535	14.64606	55.32956	114.72747	29.29212	0
277	39.05616	3.25468	-36.61515	-21.96909	38.24249	-16.2734	-1.62734	73.2303	4.88202	40.6835	112.28646	21.96909	0
278	39.05616	-4.06835	-43.93818	-17.08707	40.6835	-23.59643	-8.95037	58.58424	-2.44101	26.03744	107.40444	14.64606	0
279	34.17414	-13.83239	-48.8202	-9.76404	40.6835	-30.91946	-18.71441	46.37919	-17.08707	11.39138	102.52242	12.20505	0
280	29.29212	-21.15542	-51.26121	-4.88202	40.6835	-35.80148	-30.91946	34.17414	-29.29212	-3.25468	100.08141	7.32303	0
281	24.4101	-24.4101	-48.8202	0	35.80148	-35.80148	-43.12451	21.96909	-39.86983	-20.34175	97.6404	2.44101	0
282	24.4101	-24.4101	-48.8202	0	35.80148	-35.80148	-55.32956	13.83239	-47.19286	-34.98781	90.31737	-4.88202	0
283	19.52808	-29.29212	-48.8202	4.88202	33.36047	-38.24249	-62.65259	4.06835	-52.07488	-48.00653	82.99434	-9.76404	0
284	14.64606	-36.61515	-51.26121	9.76404	30.91946	-43.12451	-67.53461	-3.25468	-61.83892	-52.88855	75.67131	-17.08707	0
285	14.64606	-36.61515	-51.26121	9.76404	30.91946	-43.12451	-72.41663	-10.57771	-66.72094	-60.21158	73.2303	-21.96909	0
286	17.08707	-39.05616	-56.14323	9.76404	35.80148	-48.00653	-79.73966	-20.34175	-71.60296	-69.97562	68.34828	-26.85111	0
287	19.52808	-43.93818	-63.46626	12.20505	40.6835	-52.88855	-84.62168	-27.66478	-78.92599	-74.85764	61.02525	-30.10579	0
288	19.52808	-51.26121	-70.78929	14.64606	43.12451	-60.21158	-84.62168	-34.98781	-81.367	-77.29865	61.02525	-32.5468	0
289	19.52808	-51.26121	-70.78929	14.64606	43.12451	-60.21158	-89.5037	-42.31084	-91.13104	-79.73966	56.14323	-34.98781	0
290	19.52808	-53.70222	-73.2303	17.08707	45.56552	-62.65259	-94.38572	-49.63387	-96.01306	-84.62168	51.26121	-37.42882	0
291	17.08707	-56.14323	-73.2303	19.52808	43.12451	-65.0936	-101.70875	-54.51589	-103.33609	-87.06269	48.8202	-37.42882	0
292	14.64606	-58.58424	-73.2303	19.52808	43.12451	-65.0936	-106.59077	-59.39791	-110.65912	-91.94471	43.93818	-39.86983	0
293	14.64606	-58.58424	-73.2303	19.52808	43.12451	-65.0936	-106.59077	-61.83892	-110.65912	-91.94471	39.05616	-39.86983	0
294	12.20505	-58.58424	-70.78929	22.78276	40.6835	-65.0936	-104.14976	-61.83892	-113.10013	-91.94471	36.61515	-39.86983	0
295	9.76404	-58.58424	-68.34828	22.78276	38.24249	-62.65259	-104.14976	-61.83892	-115.54114	-94.38572	36.61515	-39.86983	0
296	12.20505	-61.02525	-73.2303	22.78276	40.6835	-67.53461	-106.59077	-61.83892	-115.54114	-96.82673	36.61515	-39.86983	0
297	14.64606	-63.46626	-78.11232	22.78276	45.56552	-69.97562	-104.14976	-61.83892	-115.54114	-96.82673	36.61515	-37.42882	0
298	14.64606	-65.90727	-80.55333	25.22377	45.56552	-72.41663	-101.70875	-61.83892	-110.65912	-96.82673	36.61515	-37.42882	1500	QRS+0
299	12.20505	-65.90727	-78.11232	25.22377	43.12451	-72.41663	-101.70875	-64.27993	-115.54114	-94.38572	36.61515	-37.42882	0
300	9.76404	-68.34828	-78.11232	27.66478	43.12451	-72.41663	-101.70875	-66.72094	-115.54114	-94.38572	39.05616	-37.42882	0
301	9.76404	-68.34828	-78.11232	27.66478	43.12451	-72.41663	-104.14976	-69.16195	-117.98215	-96.82673	41.49717	-37.42882	0
302	7.32303	-68.34828	-75.67131	30.10579	40.6835	-72.41663	-106.59077	-69.16195	-117.98215	-99.26774	41.49717	-37.42882	0
303	4.88202	-68.34828	-73.2303	30.10579	38.24249	-69.97562	-106.59077	-69.16195	-115.54114	-99.26774	39.05616	-37.42882	0
304	2.44101	-73.2303	-75.67131	34.98781	38.24249	-74.85764	-106.59077	-69.16195	-117.98215	-96.82673	36.61515	-37.42882	0
305	2.44101	-73.2303	-75.67131	34.98781	38.24249	-74.85764	-104.14976	-71.60296	-120.42316	-96.82673	34.17414	-39.86983	0
306	4.88202	-75.67131	-80.55333	34.98781	40.6835	-77.29865	-104.14976	-74.04397	-120.42316	-96.82673	31.73313	-42.31084	0
307	4.88202	-75.67131	-80.55333	34.98781	40.6835	-77.29865	-99.26774	-71.60296	-120.42316	-89.5037	31.73313	-42.31084	0
308	7.32303	-80.55333	-87.87636	34.98781	45.56552	-84.62168	-94.38572	-71.60296	-115.54114	-77.29865	31.73313	-37.42882	0
309	7.32303	-80.55333	-87.87636	34.98781	45.56552	-84.62168	-89.5037	-66.72094	-117.98215	-65.0936	36.61515	-34.98781	0
310	7.32303	-75.67131	-82.99434	32.5468	43.12451	-79.73966	-89.5037	-66.72094	-117.98215	-55.32956	36.61515	-34.98781	0
311	4.88202	-73.2303	-78.11232	32.5468	40.6835	-74.85764	-89.5037	-64.27993	-117.98215	-48.00653	36.61515	-32.5468	0
312	4.88202	-70.78929	-75.67131	32.5468	38.24249	-72.41663	-89.5037	-61.83892	-117.98215	-37.42882	34.17414	-34.98781	0
313	4.88202	-68.34828	-73.2303	30.10579	38.24249	-69.97562	-89.5037	-59.39791	-113.10013	-27.66478	34.17414	-34.98781	0
314	2.44101	-68.34828	-70.78929	32.5468	35.80148	-69.97562	-87.06269	-56.9569	-113.10013	-20.34175	29.29212	-34.98781	0
315	0	-65.90727	-65.90727	32.5468	30.91946	-65.0936	-87.06269	-54.51589	-113.10013	-13.01872	26.85111	-34.98781	0
316	0	-65.90727	-65.90727	32.5468	30.91946	-65.0936	-87.06269	-54.51589	-113.10013	-5.69569	26.85111	-37.42882	0
317	4.88202	-65.90727	-70.78929	30.10579	35.80148	-67.53461	-84.62168	-52.07488	-110.65912	1.62734	26.85111	-37.42882	0
318	4.88202	-68.34828	-73.2303	30.10579	38.24249	-69.97562	-79.73966	-49.63387	-103.33609	8.95037	26.85111	-34.98781	0
319	2.44101	-73.2303	-75.67131	34.98781	38.24249	-74.85764	-77.29865	-47.19286	-103.33609	18.71441	26.85111	-32.5468	0
320	2.44101	-73.2303	-75.67131	34.98781	38.24249	-74.85764	-77.29865	-47.19286	-103.33609	23.59643	24.4101	-30.10579	0
321	2.44101	-70.78929	-73.2303	32.5468	35.80148	-72.41663	-79.73966	-44.75185	-105.7771	28.47845	24.4101	-30.10579	0
322	2.44101	-70.78929	-73.2303	32.5468	35.80148	-72.41663	-79.73966	-39.86983	-103.33609	30.91946	21.96909	-30.10579	0
323	0	-73.2303	-73.2303	34.98781	35.80148	-72.41663	-79.73966	-39.86983	-98.45407	35.80148	17.08707	-30.10579	0
324	0	-73.2303	-73.2303	34.98781	35.80148	-72.41663	-77.29865	-34.98781	-98.45407	40.6835	12.20505	-30.10579	0
325	2.44101	-70.78929	-73.2303	32.5468	35.80148	-72.41663	-74.85764	-34.98781	-98.45407	45.56552	9.76404	-30.10579	0
326	4.88202	-68.34828	-73.2303	30.10579	38.24249	-69.97562	-74.85764	-34.98781	-98.45407	48.00653	7.32303	-30.10579	0
327	4.88202	-70.78929	-75.67131	32.5468	38.24249	-72.41663	-72.41663	-34.98781	-98.45407	50.44754	2.44101	-34.98781	0
328	4.88202	-73.2303	-78.11232	32.5468	40.6835	-74.85764	-67.53461	-32.5468	-96.01306	52.88855	2.44101	-34.98781	0
329	0	-73.2303	-73.2303	34.98781	35.80148	-72.41663	-67.53461	-32.5468	-98.45407	57.77057	2.44101	-34.98781	0
330	-4.88202	-75.67131	-70.78929	39.86983	30.91946	-72.41663	-69.97562	-32.5468	-100.89508	57.77057	2.44101	-37.42882	0
331	-4.88202	-73.2303	-68.34828	37.42882	30.91946	-69.97562	-74.85764	-32.5468	-103.33609	60.21158	7.32303	-37.42882	0
332	-4.88202	-73.2303	-68.34828	37.42882	30.91946	-69.97562	-77.29865	-30.10579	-100.89508	60.21158	4.88202	-39.86983	0
333	-9.76404	-73.2303	-63.46626	39.86983	26.03744	-67.53461	-74.85764	-25.22377	-98.45407	62.65259	4.88202	-37.42882	0
334	-7.32303	-73.2303	-65.90727	39.86983	28.47845	-69.97562	-74.85764	-22.78276	-98.45407	65.0936	0	-34.98781	0
335	-7.32303	-73.2303	-65.90727	39.86983	28.47845	-69.97562	-74.85764	-22.78276	-98.45407	65.0936	-2.44101	-34.98781	0
336	-2.44101	-73.2303	-70.78929	37.42882	33.36047	-72.41663	-74.85764	-25.22377	-98.45407	65.0936	-7.32303	-34.98781	0
337	0	-75.67131	-75.67131	37.42882	35.80148	-74.85764	-72.41663	-25.22377	-98.45407	65.0936	-9.76404	-34.98781	0
338	-4.88202	-80.55333	-75.67131	42.31084	33.36047	-77.29865	-67.53461	-27.66478	-96.01306	62.65259	-17.08707	-37.42882	0
339	-2.44101	-82.99434	-80.55333	42.31084	38.24249	-82.18067	-65.0936	-30.10579	-100.89508	62.65259	-19.52808	-39.86983	0
340	-2.44101	-82.99434	-80.55333	42.31084	38.24249	-82.18067	-65.0936	-30.10579	-100.89508	60.21158	-24.4101	-39.86983	0
341	-2.44101	-78.11232	-75.67131	39.86983	35.80148	-77.29865	-65.0936	-30.10579	-103.33609	57.77057	-24.4101	-39.86983	0
342	0	-78.11232	-78.11232	37.42882	38.24249	-77.29865	-65.0936	-25.22377	-100.89508	52.88855	-24.4101	-39.86983	0
343	2.44101	-75.67131	-78.11232	34.98781	38.24249	-77.29865	-60.21158	-22.78276	-96.01306	52.88855	-26.85111	-39.86983	0
344	2.44101	-75.67131	-78.11232	34.98781	38.24249	-77.29865	-57.77057	-20.34175	-96.01306	50.44754	-29.29212	-37.42882	0
345	4.88202	-73.2303	-78.11232	32.5468	40.6835	-74.85764	-57.77057	-17.90074	-93.57205	50.44754	-31.73313	-37.42882	0
346	7.32303	-75.67131	-82.99434	32.5468	43.12451	-79.73966	-57.77057	-20.34175	-93.57205	45.56552	-31.73313	-37.42882	0
347	9.76404	-82.99434	-92.75838	34.98781	50.44754	-87.06269	-57.77057	-20.34175	-91.13104	43.12451	-34.17414	-37.42882	0
348	9.76404	-92.75838	-102.52242	39.86983	55.32956	-96.82673	-52.88855	-20.34175	-86.24902	40.6835	-34.17414	-34.98781	0
349	7.32303	-100.08141	-107.40444	44.75185	55.32956	-104.14976	-52.88855	-22.78276	-88.69003	38.24249	-36.61515	-34.98781	0
350	4.88202	-100.08141	-104.96343	47.19286	52.88855	-101.70875	-55.32956	-27.66478	-88.69003	30.91946	-39.05616	-37.42882	0
351	4.88202	-100.08141	-104.96343	47.19286	52.88855	-101.70875	-57.77057	-27.66478	-91.13104	21.15542	-36.61515	-37.42882	0
352	4.88202	-100.08141	-104.96343	47.19286	52.88855	-101.70875	-57.77057	-27.66478	-93.57205	11.39138	-36.61515	-42.31084	0
353	4.88202	-97.6404	-102.52242	44.75185	52.88855	-99.26774	-57.77057	-25.22377	-88.69003	1.62734	-39.05616	-42.31084	0
354	4.88202	-95.19939	-100.08141	44.75185	50.44754	-96.82673	-55.32956	-22.78276	-91.13104	-5.69569	-42.31084	-44.75185	0
355	7.32303	-92.75838	-100.08141	42.31084	52.88855	-96.82673	-55.32956	-25.22377	-91.13104	-17.90074	-42.31084	-49.63387	0
356	12.20505	-92.75838	-104.96343	39.86983	57.77057	-99.26774	-57.77057	-30.10579	-91.13104	-27.66478	-42.31084	-52.07488	0
357	14.64606	-92.75838	-107.40444	37.42882	60.21158	-99.26774	-55.32956	-30.10579	-91.13104	-37.42882	-44.75185	-54.51589	0
358	14.64606	-92.75838	-107.40444	37.42882	60.21158	-99.26774	-52.88855	-37.42882	-91.13104	-48.00653	-47.19286	-56.9569	0
359	14.64606	-97.6404	-112.28646	39.86983	62.65259	-104.14976	-52.88855	-42.31084	-98.45407	-52.88855	-47.19286	-56.9569	0
360	12.20505	-102.52242	-114.72747	44.75185	62.65259	-109.03178	-52.88855	-44.75185	-100.89508	-62.65259	-47.19286	-56.9569	0
361	12.20505	-107.40444	-119.60949	47.19286	65.0936	-113.9138	-55.32956	-44.75185	-103.33609	-72.41663	-44.75185	-56.9569	0
362	12.20505	-112.28646	-124.49151	49.63387	67.53461	-118.79582	-52.88855	-44.75185	-105.7771	-82.18067	-44.75185	-59.39791	0
363	12.20505	-117.16848	-129.37353	52.07488	69.97562	-123.67784	-50.44754	-42.31084	-103.33609	-89.5037	-42.31084	-56.9569	0
364	9.76404	-122.0505	-131.81454	54.51589	69.97562	-126.11885	-48.00653	-39.86983	-103.33609	-94.38572	-42.31084	-56.9569	0
365	12.20505	-126.93252	-139.13757	56.9569	74.85764	-133.44188	-45.56552	-39.86983	-103.33609	-101.70875	-42.31084	-56.9569	0
366	17.08707	-126.93252	-144.01959	54.51589	79.73966	-135.88289	-48.00653	-39.86983	-100.89508	-109.03178	-44.75185	-59.39791	0
367	21.96909	-126.93252	-148.90161	52.07488	84.62168	-138.3239	-45.56552	-42.31084	-98.45407	-116.35481	-47.19286	-61.83892	0
368	26.85111	-126.93252	-153.78363	49.63387	89.5037	-140.76491	-43.12451	-47.19286	-98.45407	-121.23683	-49.63387	-64.27993	0
369	29.29212	-126.93252	-156.22464	47.19286	91.94471	-140.76491	-43.12451	-52.07488	-103.33609	-126.11885	-49.63387	-64.27993	0
370	29.29212	-126.93252	-156.22464	47.19286	91.94471	-140.76491	-48.00653	-59.39791	-105.7771	-133.44188	-49.63387	-64.27993	0
371	26.85111	-126.93252	-153.78363	49.63387	89.5037	-140.76491	-52.88855	-64.27993	-113.10013	-140.76491	-49.63387	-64.27993	0
372	24.4101	-124.49151	-148.90161	49.63387	84.62168	-135.88289	-55.32956	-64.27993	-115.54114	-145.64693	-49.63387	-64.27993	0
373	24.4101	-124.49151	-148.90161	49.63387	84.62168	-135.88289	-55.32956	-64.27993	-115.54114	-145.64693	-54.51589	-64.27993	0
374	21.96909	-124.49151	-146.4606	49.63387	82.18067	-135.88289	-57.77057	-64.27993	-120.42316	-145.64693	-59.39791	-66.72094	0
375	19.52808	-126.93252	-146.4606	52.07488	82.18067	-135.88289	-60.21158	-66.72094	-122.86417	-148.08794	-64.27993	-69.16195	0
376	17.08707	-129.37353	-146.4606	54.51589	79.73966	-138.3239	-62.65259	-66.72094	-122.86417	-148.08794	-69.16195	-71.60296	0
377	19.52808	-136.69656	-156.22464	56.9569	87.06269	-145.64693	-57.77057	-66.72094	-120.42316	-145.64693	-74.04397	-74.04397	0
378	24.4101	-141.57858	-165.98868	56.9569	94.38572	-152.96996	-52.88855	-69.16195	-117.98215	-143.20592	-74.04397	-76.48498	0
379	24.4101	-146.4606	-170.8707	59.39791	96.82673	-157.85198	-50.44754	-71.60296	-122.86417	-140.76491	-76.48498	-76.48498	0
380	26.85111	-151.34262	-178.19373	61.83892	101.70875	-165.17501	-50.44754	-78.92599	-125.30518	-143.20592	-78.92599	-76.48498	0
381	21.96909	-151.34262	-173.31171	64.27993	96.82673	-162.734	-52.88855	-83.80801	-127.74619	-145.64693	-76.48498	-76.48498	0
382	21.96909	-151.34262	-173.31171	64.27993	96.82673	-162.734	-57.77057	-83.80801	-130.1872	-150.52895	-76.48498	-76.48498	0
383	26.85111	-151.34262	-178.19373	61.83892	101.70875	-165.17501	-60.21158	-86.24902	-130.1872	-155.41097	-78.92599	-74.04397	0
384	24.4101	-146.4606	-170.8707	59.39791	96.82673	-157.85198	-62.65259	-83.80801	-132.62821	-160.29299	-83.80801	-74.04397	0
385	24.4101	-144.01959	-168.42969	59.39791	94.38572	-155.41097	-62.65259	-86.24902	-135.06922	-170.05703	-88.69003	-76.48498	0
386	24.4101	-144.01959	-168.42969	59.39791	94.38572	-155.41097	-65.0936	-86.24902	-135.06922	-172.49804	-96.01306	-78.92599	0
387	26.85111	-146.4606	-173.31171	59.39791	99.26774	-160.29299	-60.21158	-83.80801	-130.1872	-174.93905	-103.33609	-78.92599	0
388	29.29212	-151.34262	-180.63474	59.39791	104.14976	-165.17501	-52.88855	-81.367	-127.74619	-174.93905	-108.21811	-78.92599	0
389	24.4101	-156.22464	-180.63474	64.27993	101.70875	-167.61602	-50.44754	-81.367	-130.1872	-177.38006	-113.10013	-78.92599	0
390	21.96909	-158.66565	-180.63474	66.72094	99.26774	-170.05703	-52.88855	-86.24902	-135.06922	-182.26208	-122.86417	-81.367	0
391	24.4101	-158.66565	-183.07575	66.72094	101.70875	-170.05703	-55.32956	-88.69003	-137.51023	-184.70309	-127.74619	-81.367	0
392	24.4101	-158.66565	-183.07575	66.72094	101.70875	-170.05703	-62.65259	-88.69003	-144.83326	-192.02612	-130.1872	-81.367	0
393	19.52808	-158.66565	-178.19373	69.16195	96.82673	-167.61602	-67.53461	-91.13104	-147.27427	-194.46713	-135.06922	-78.92599	0
394	17.08707	-153.78363	-170.8707	66.72094	91.94471	-162.734	-69.97562	-91.13104	-152.15629	-196.90814	-139.95124	-78.92599	0
395	19.52808	-144.01959	-163.54767	61.83892	89.5037	-152.96996	-72.41663	-93.57205	-154.5973	-199.34915	-144.83326	-74.04397	0
396	19.52808	-136.69656	-156.22464	56.9569	87.06269	-145.64693	-72.41663	-93.57205	-149.71528	-194.46713	-144.83326	-74.04397	0
397	19.52808	-134.25555	-153.78363	56.9569	84.62168	-143.20592	-65.0936	-88.69003	-144.83326	-189.58511	-147.27427	-69.16195	0
398	19.52808	-134.25555	-153.78363	56.9569	84.62168	-143.20592	-57.77057	-88.69003	-142.39225	-189.58511	-149.71528	-66.72094	0
399	21.96909	-129.37353	-151.34262	52.07488	84.62168	-140.76491	-48.00653	-91.13104	-142.39225	-187.1441	-154.5973	-64.27993	0
400	26.85111	-122.0505	-148.90161	47.19286	87.06269	-135.88289	-40.6835	-91.13104	-142.39225	-184.70309	-154.5973	-64.27993	0
401	26.85111	-119.60949	-146.4606	44.75185	84.62168	-133.44188	-33.36047	-91.13104	-142.39225	-182.26208	-152.15629	-61.83892	0
402	24.4101	-117.16848	-141.57858	44.75185	82.18067	-128.55986	-30.91946	-86.24902	-144.83326	-182.26208	-152.15629	-61.83892	0
403	24.4101	-117.16848	-141.57858	44.75185	82.18067	-128.55986	-28.47845	-83.80801	-147.27427	-182.26208	-152.15629	-59.39791	0
404	21.96909	-112.28646	-134.25555	44.75185	77.29865	-123.67784	-23.59643	-78.92599	-147.27427	-177.38006	-147.27427	-59.39791	0
405	19.52808	-107.40444	-126.93252	42.31084	72.41663	-116.35481	-23.59643	-76.48498	-144.83326	-172.49804	-147.27427	-59.39791	0
406	17.08707	-109.84545	-126.93252	44.75185	69.97562	-118.79582	-21.15542	-76.48498	-142.39225	-170.05703	-144.83326	-59.39791	0
407	14.64606	-109.84545	-124.49151	47.19286	67.53461	-116.35481	-16.2734	-76.48498	-139.95124	-165.17501	-147.27427	-59.39791	0
408	14.64606	-107.40444	-122.0505	44.75185	67.53461	-113.9138	-11.39138	-76.48498	-137.51023	-162.734	-147.27427	-61.83892	-1500	QRS-0
409	12.20505	-109.84545	-122.0505	47.19286	65.0936	-116.35481	-4.06835	-78.92599	-137.51023	-157.85198	-147.27427	-61.83892	0
410	12.20505	-104.96343	-117.16848	44.75185	62.65259	-111.47279	-1.62734	-83.80801	-137.51023	-157.85198	-147.27427	-64.27993	0
411	12.20505	-102.52242	-114.72747	44.75185	62.65259	-109.03178	-1.62734	-86.24902	-139.95124	-155.41097	-144.83326	-64.27993	0
412	12.20505	-102.52242	-114.72747	44.75185	62.65259	-109.03178	-1.62734	-83.80801	-139.95124	-155.41097	-144.83326	-61.83892	0
413	9.76404	-104.96343	-114.72747	47.19286	60.21158	-109.03178	-6.50936	-86.24902	-144.83326	-157.85198	-149.71528	-59.39791	0
414	7.32303	-107.40444	-114.72747	49.63387	60.21158	-111.47279	-13.83239	-88.69003	-152.15629	-162.734	-154.5973	-59.39791	0
415	7.32303	-107.40444	-114.72747	49.63387	60.21158	-111.47279	-18.71441	-93.57205	-157.03831	-167.61602	-161.92033	-59.39791	0
416	4.88202	-109.84545	-114.72747	52.07488	57.77057	-111.47279	-23.59643	-98.45407	-157.03831	-167.61602	-166.80235	-56.9569	0
417	4.88202	-117.16848	-122.0505	54.51589	62.65259	-118.79582	-23.59643	-100.89508	-154.5973	-167.61602	-169.24336	-54.51589	0
418	7.32303	-124.49151	-131.81454	56.9569	67.53461	-128.55986	-23.59643	-103.33609	-149.71528	-162.734	-171.68437	-52.07488	0
419	12.20505	-126.93252	-139.13757	56.9569	74.85764	-133.44188	-18.71441	-105.7771	-147.27427	-155.41097	-171.68437	-47.19286	0
420	19.52808	-129.37353	-148.90161	54.51589	82.18067	-138.3239	-18.71441	-108.21811	-142.39225	-150.52895	-169.24336	-42.31084	0
421	26.85111	-131.81454	-158.66565	52.07488	91.94471	-145.64693	-21.15542	-108.21811	-139.95124	-143.20592	-161.92033	-39.86983	0
422	34.17414	-129.37353	-163.54767	47.19286	96.82673	-145.64693	-26.03744	-108.21811	-139.95124	-138.3239	-154.5973	-37.42882	0
423	36.61515	-129.37353	-165.98868	44.75185	99.26774	-148.08794	-33.36047	-108.21811	-139.95124	-135.88289	-152.15629	-34.98781	0
424	39.05616	-124.49151	-163.54767	42.31084	99.26774	-143.20592	-43.12451	-105.7771	-142.39225	-131.00087	-149.71528	-34.98781	0
425	43.93818	-119.60949	-163.54767	37.42882	101.70875	-140.76491	-52.88855	-110.65912	-147.27427	-131.00087	-149.71528	-37.42882	0
426	43.93818	-117.16848	-161.10666	34.98781	101.70875	-138.3239	-62.65259	-115.54114	-149.71528	-131.00087	-147.27427	-39.86983	0
427	43.93818	-112.28646	-156.22464	32.5468	99.26774	-133.44188	-65.0936	-117.98215	-152.15629	-126.11885	-147.27427	-42.31084	0
428	43.93818	-112.28646	-156.22464	32.5468	99.26774	-133.44188	-65.0936	-122.86417	-149.71528	-121.23683	-147.27427	-42.31084	0
429	48.8202	-109.84545	-158.66565	30.10579	101.70875	-133.44188	-65.0936	-122.86417	-149.71528	-116.35481	-142.39225	-44.75185	0
430	56.14323	-104.96343	-161.10666	22.78276	106.59077	-133.44188	-67.53461	-127.74619	-152.15629	-113.9138	-142.39225	-44.75185	0
431	58.58424	-100.08141	-158.66565	19.52808	106.59077	-128.55986	-67.53461	-127.74619	-152.15629	-111.47279	-137.51023	-44.75185	0
432	61.02525	-92.75838	-153.78363	14.64606	106.59077	-123.67784	-69.97562	-122.86417	-152.15629	-106.59077	-135.06922	-42.31084	0
433	65.90727	-87.87636	-153.78363	9.76404	109.03178	-121.23683	-74.85764	-120.42316	-149.71528	-101.70875	-130.1872	-39.86983	0
434	70.78929	-80.55333	-151.34262	4.88202	109.03178	-116.35481	-82.18067	-120.42316	-154.5973	-101.70875	-130.1872	-39.86983	0
435	73.2303	-78.11232	-151.34262	2.44101	111.47279	-113.9138	-87.06269	-120.42316	-154.5973	-99.26774	-132.62821	-39.86983	0
436	73.2303	-80.55333	-153.78363	2.44101	111.47279	-116.35481	-91.94471	-122.86417	-154.5973	-96.82673	-132.62821	-42.31084	0
437	68.34828	-87.87636	-156.22464	9.76404	111.47279	-121.23683	-89.5037	-125.30518	-152.15629	-96.82673	-135.06922	-42.31084	0
438	63.46626	-95.19939	-158.66565	14.64606	109.03178	-126.11885	-87.06269	-127.74619	-149.71528	-94.38572	-135.06922	-42.31084	0
439	58.58424	-102.52242	-161.10666	19.52808	109.03178	-131.00087	-84.62168	-132.62821	-152.15629	-94.38572	-139.95124	-44.75185	0
440	51.26121	-112.28646	-163.54767	30.10579	106.59077	-138.3239	-82.18067	-135.06922	-152.15629	-94.38572	-139.95124	-47.19286	0
441	39.05616	-119.60949	-158.66565	39.86983	96.82673	-138.3239	-77.29865	-132.62821	-152.15629	-91.94471	-139.95124	-47.19286	0
442	26.85111	-129.37353	-156.22464	49.63387	89.5037	-143.20592	-72.41663	-130.1872	-157.03831	-94.38572	-142.39225	-49.63387	0
443	21.96909	-136.69656	-158.66565	56.9569	89.5037	-148.08794	-72.41663	-127.74619	-159.47932	-96.82673	-144.83326	-49.63387	0
444	12.20505	-141.57858	-153.78363	64.27993	82.18067	-148.08794	-72.41663	-122.86417	-164.36134	-96.82673	-149.71528	-54.51589	0
445	4.88202	-151.34262	-156.22464	71.60296	79.73966	-152.96996	-72.41663	-122.86417	-169.24336	-101.70875	-157.03831	-59.39791	0
446	-4.88202	-163.54767	-158.66565	83.80801	74.85764	-160.29299	-74.85764	-125.30518	-171.68437	-106.59077	-166.80235	-69.16195	0
447	-9.76404	-175.75272	-165.98868	91.13104	77.29865	-170.05703	-72.41663	-127.74619	-171.68437	-109.03178	-174.12538	-76.48498	0
448	-17.90074	-187.95777	-170.8707	100.89508	74.85764	-179.82107	-67.53461	-130.1872	-171.68437	-109.03178	-181.44841	-83.80801	0
449	-17.90074	-195.2808	-178.19373	105.7771	79.73966	-187.1441	-65.0936	-132.62821	-174.12538	-109.03178	-183.88942	-91.13104	0
450	-20.34175	-197.72181	-178.19373	108.21811	77.29865	-189.58511	-62.65259	-135.06922	-179.0074	-111.47279	-191.21245	-98.45407	0
451	-22.78276	-200.16282	-178.19373	110.65912	77.29865	-189.58511	-65.0936	-137.51023	-181.44841	-111.47279	-191.21245	-100.89508	0
452	-25.22377	-205.04484	-180.63474	113.10013	77.29865	-194.46713	-60.21158	-135.06922	-181.44841	-111.47279	-191.21245	-100.89508	0
453	-27.66478	-209.92686	-183.07575	117.98215	77.29865	-196.90814	-60.21158	-132.62821	-181.44841	-111.47279	-191.21245	-98.45407	0
454	-30.10579	-207.48585	-178.19373	117.98215	72.41663	-194.46713	-60.21158	-127.74619	-186.33043	-111.47279	-191.21245	-98.45407	0
455	-30.10579	-205.04484	-175.75272	115.54114	72.41663	-192.02612	-60.21158	-125.30518	-188.77144	-116.35481	-191.21245	-98.45407	0
456	-34.98781	-212.36787	-178.19373	122.86417	69.97562	-196.90814	-62.65259	-127.74619	-191.21245	-118.79582	-193.65346	-98.45407	0
457	-39.86983	-219.6909	-180.63474	127.74619	69.97562	-201.79016	-57.77057	-125.30518	-191.21245	-118.79582	-191.21245	-98.45407	0
458	-42.31084	-222.13191	-180.63474	130.1872	67.53461	-201.79016	-55.32956	-125.30518	-191.21245	-121.23683	-188.77144	-98.45407	0
459	-39.86983	-224.57292	-185.51676	130.1872	72.41663	-206.67218	-52.88855	-130.1872	-196.09447	-121.23683	-188.77144	-100.89508	0
460	-39.86983	-227.01393	-187.95777	132.62821	72.41663	-209.11319	-50.44754	-135.06922	-198.53548	-123.67784	-186.33043	-100.89508	0
461	-39.86983	-227.01393	-187.95777	132.62821	72.41663	-209.11319	-50.44754	-137.51023	-203.4175	-126.11885	-181.44841	-100.89508	0
462	-39.86983	-224.57292	-185.51676	130.1872	72.41663	-206.67218	-52.88855	-132.62821	-203.4175	-131.00087	-176.56639	-100.89508	0
463	-39.86983	-222.13191	-183.07575	130.1872	69.97562	-204.23117	-50.44754	-130.1872	-205.85851	-135.88289	-176.56639	-98.45407	0
464	-39.86983	-214.80888	-175.75272	125.30518	67.53461	-196.90814	-50.44754	-125.30518	-210.74053	-140.76491	-174.12538	-103.33609	0
465	-44.75185	-209.92686	-165.98868	125.30518	60.21158	-189.58511	-50.44754	-122.86417	-210.74053	-150.52895	-171.68437	-105.7771	0
466	-47.19286	-209.92686	-163.54767	127.74619	57.77057	-187.1441	-52.88855	-122.86417	-210.74053	-157.85198	-171.68437	-110.65912	0
467	-52.07488	-207.48585	-156.22464	127.74619	50.44754	-182.26208	-50.44754	-120.42316	-210.74053	-165.17501	-171.68437	-113.10013	0
468	-54.51589	-214.80888	-161.10666	132.62821	52.88855	-189.58511	-48.00653	-120.42316	-210.74053	-170.05703	-169.24336	-117.98215	0
469	-54.51589	-219.6909	-165.98868	135.06922	55.32956	-194.46713	-43.12451	-122.86417	-213.18154	-172.49804	-169.24336	-120.42316	0
470	-54.51589	-222.13191	-168.42969	137.51023	55.32956	-196.90814	-40.6835	-125.30518	-213.18154	-177.38006	-166.80235	-120.42316	0
471	-49.63387	-227.01393	-178.19373	137.51023	62.65259	-204.23117	-40.6835	-125.30518	-210.74053	-179.82107	-161.92033	-120.42316	0
472	-44.75185	-229.45494	-185.51676	135.06922	69.97562	-209.11319	-40.6835	-122.86417	-210.74053	-184.70309	-159.47932	-117.98215	0
473	-42.31084	-227.01393	-185.51676	132.62821	69.97562	-206.67218	-40.6835	-117.98215	-210.74053	-189.58511	-157.03831	-115.54114	0
474	-44.75185	-222.13191	-178.19373	132.62821	65.0936	-201.79016	-43.12451	-117.98215	-213.18154	-201.79016	-157.03831	-115.54114	0
475	-44.75185	-217.24989	-173.31171	130.1872	62.65259	-196.90814	-48.00653	-115.54114	-213.18154	-213.99521	-159.47932	-115.54114	0
476	-42.31084	-214.80888	-173.31171	127.74619	65.0936	-194.46713	-52.88855	-117.98215	-213.18154	-228.64127	-161.92033	-120.42316	0
477	-39.86983	-212.36787	-173.31171	125.30518	65.0936	-194.46713	-52.88855	-120.42316	-215.62255	-245.72834	-166.80235	-125.30518	0
478	-37.42882	-212.36787	-175.75272	122.86417	67.53461	-194.46713	-50.44754	-125.30518	-215.62255	-257.93339	-169.24336	-125.30518	0
479	-32.5468	-212.36787	-180.63474	120.42316	72.41663	-196.90814	-48.00653	-127.74619	-218.06356	-267.69743	-169.24336	-125.30518	0
480	-25.22377	-214.80888	-190.39878	117.98215	82.18067	-204.23117	-45.56552	-132.62821	-218.06356	-275.02046	-169.24336	-125.30518	0
481	-17.90074	-214.80888	-197.72181	115.54114	89.5037	-206.67218	-48.00653	-132.62821	-218.06356	-279.90248	-166.80235	-125.30518	0
482	-17.90074	-217.24989	-200.16282	115.54114	89.5037	-209.11319	-48.00653	-132.62821	-220.50457	-284.7845	-164.36134	-122.86417	0
483	-12.20505	-214.80888	-202.60383	113.10013	94.38572	-209.11319	-48.00653	-130.1872	-222.94558	-287.22551	-161.92033	-120.42316	0
484	-12.20505	-212.36787	-200.16282	110.65912	91.94471	-206.67218	-50.44754	-125.30518	-222.94558	-284.7845	-159.47932	-117.98215	0
485	-14.64606	-207.48585	-192.83979	110.65912	87.06269	-199.34915	-55.32956	-122.86417	-225.38659	-279.90248	-161.92033	-120.42316	0
486	-14.64606	-207.48585	-192.83979	110.65912	87.06269	-199.34915	-60.21158	-125.30518	-225.38659	-270.13844	-161.92033	-122.86417	0
487	-14.64606	-207.48585	-192.83979	110.65912	87.06269	-199.34915	-57.77057	-125.30518	-225.38659	-255.49238	-164.36134	-125.30518	0
488	-17.90074	-207.48585	-190.39878	110.65912	84.62168	-199.34915	-55.32956	-125.30518	-220.50457	-238.40531	-164.36134	-125.30518	0
489	-17.90074	-207.48585	-190.39878	110.65912	84.62168	-199.34915	-50.44754	-127.74619	-218.06356	-216.43622	-166.80235	-125.30518	0
490	-17.90074	-207.48585	-190.39878	110.65912	84.62168	-199.34915	-48.00653	-130.1872	-218.06356	-196.90814	-166.80235	-127.74619	0
491	-22.78276	-209.92686	-187.95777	115.54114	82.18067	-199.34915	-45.56552	-127.74619	-215.62255	-182.26208	-166.80235	-127.74619	0
492	-25.22377	-212.36787	-187.95777	117.98215	79.73966	-201.79016	-43.12451	-122.86417	-213.18154	-167.61602	-166.80235	-125.30518	0
493	-30.10579	-209.92686	-180.63474	117.98215	74.85764	-196.90814	-40.6835	-115.54114	-210.74053	-152.96996	-164.36134	-125.30518	0
494	-37.42882	-205.04484	-168.42969	120.42316	65.0936	-187.1441	-40.6835	-108.21811	-210.74053	-140.76491	-161.92033	-120.42316	0
495	-39.86983	-200.16282	-161.10666	117.98215	60.21158	-182.26208	-43.12451	-103.33609	-208.29952	-128.55986	-161.92033	-120.42316	0
496	-44.75185	-200.16282	-156.22464	120.42316	55.32956	-179.82107	-45.56552	-103.33609	-205.85851	-121.23683	-161.92033	-117.98215	0
497	-44.75185	-200.16282	-156.22464	120.42316	55.32956	-179.82107	-40.6835	-98.45407	-200.97649	-111.47279	-159.47932	-117.98215	0
498	-44.75185	-195.2808	-151.34262	117.98215	52.88855	-174.93905	-38.24249	-98.45407	-198.53548	-101.70875	-157.03831	-115.54114	0
499	-42.31084	-190.39878	-148.90161	115.54114	52.88855	-170.05703	-35.80148	-98.45407	-198.53548	-96.82673	-157.03831	-113.10013	0
500	-39.86983	-190.39878	-151.34262	113.10013	55.32956	-172.49804	-33.36047	-98.45407	-198.53548	-94.38572	-159.47932	-113.10013	0
501	-39.86983	-190.39878	-151.34262	113.10013	55.32956	-172.49804	-30.91946	-98.45407	-198.53548	-94.38572	-159.47932	-113.10013	0
502	-37.42882	-187.95777	-151.34262	110.65912	55.32956	-170.05703	-30.91946	-98.45407	-203.4175	-94.38572	-159.47932	-113.10013	0
503	-37.42882	-180.63474	-144.01959	108.21811	52.88855	-162.734	-33.36047	-93.57205	-203.4175	-89.5037	-161.92033	-108.21811	0
504	-39.86983	-175.75272	-136.69656	105.7771	48.00653	-157.85198	-38.24249	-88.69003	-203.4175	-84.62168	-159.47932	-105.7771	0
505	-44.75185	-175.75272	-131.81454	108.21811	43.12451	-155.41097	-38.24249	-83.80801	-200.97649	-79.73966	-157.03831	-100.89508	0
506	-49.63387	-175.75272	-126.93252	110.65912	38.24249	-152.96996	-40.6835	-83.80801	-198.53548	-74.85764	-157.03831	-98.45407	0
507	-49.63387	-180.63474	-131.81454	113.10013	40.6835	-157.85198	-43.12451	-83.80801	-196.09447	-69.97562	-154.5973	-98.45407	0
508	-54.51589	-187.95777	-134.25555	120.42316	38.24249	-162.734	-40.6835	-81.367	-191.21245	-65.0936	-154.5973	-98.45407	0
509	-56.9569	-200.16282	-144.01959	127.74619	43.12451	-172.49804	-35.80148	-81.367	-188.77144	-65.0936	-154.5973	-96.01306	0
510	-66.72094	-207.48585	-141.57858	135.06922	35.80148	-174.93905	-21.15542	-81.367	-188.77144	-69.97562	-159.47932	-98.45407	0
511	-74.04397	-217.24989	-144.01959	144.83326	33.36047	-182.26208	-6.50936	-78.92599	-196.09447	-87.06269	-171.68437	-110.65912	0
512	-91.13104	-231.89595	-141.57858	159.47932	23.59643	-187.1441	15.45973	-71.60296	-205.85851	-109.03178	-191.21245	-127.74619	0
513	-115.54114	-253.86504	-139.13757	183.88942	11.39138	-196.90814	43.12451	-64.27993	-227.8276	-145.64693	-220.50457	-154.5973	0
514	-142.39225	-278.27514	-136.69656	208.29952	-3.25468	-209.11319	69.97562	-56.9569	-254.67871	-187.1441	-259.56073	-191.21245	0
515	-159.47932	-302.68524	-144.01959	230.26861	-8.95037	-223.75925	96.82673	-44.75185	-279.08881	-231.08228	-301.0579	-230.26861	0
516	-176.56639	-334.41837	-158.66565	254.67871	-11.39138	-248.16935	121.23683	-27.66478	-291.29386	-265.25642	-335.23204	-266.88376	0
517	-181.44841	-368.59251	-187.95777	274.20679	1.62734	-279.90248	148.08794	-0.81367	-291.29386	-287.22551	-364.52416	-303.49891	0
518	-174.12538	-402.76665	-229.45494	286.41184	26.03744	-316.51763	174.93905	43.93818	-266.88376	-289.66652	-381.61123	-327.90901	0
519	-152.15629	-432.05877	-280.71615	291.29386	62.65259	-358.0148	204.23117	112.28646	-213.18154	-262.81541	-381.61123	-337.67305	0
520	-110.65912	-449.14584	-339.30039	279.08881	113.9138	-394.62995	231.08228	202.60383	-125.30518	-204.23117	-352.31911	-327.90901	0
521	-54.51589	-454.02786	-400.32564	252.2377	172.49804	-428.80409	257.93339	307.56726	-7.32303	-118.79582	-305.93992	-303.49891	0
522	14.64606	-446.70483	-461.35089	215.62255	235.9643	-453.21419	277.46147	417.41271	131.81454	-10.57771	-237.59164	-264.44275	0
523	109.84545	-424.73574	-534.58119	157.03831	321.39965	-480.0653	284.7845	527.25816	295.36221	128.55986	-144.83326	-200.97649	0
524	219.6909	-378.35655	-598.04745	78.92599	406.835	-487.38833	277.46147	624.89856	473.55594	294.54854	-26.85111	-120.42316	0
525	349.06443	-305.12625	-654.19068	-21.96909	499.59338	-480.0653	250.61036	695.68785	656.63169	477.62429	109.84545	-21.96909	0
526	495.52503	-209.92686	-705.45189	-144.01959	599.67479	-458.09621	206.67218	754.27209	859.23552	687.55115	275.83413	100.08141	0
527	644.42664	-97.6404	-742.06704	-273.39312	692.43317	-419.04005	148.08794	790.88724	1061.83935	909.68306	456.46887	234.33696	0
528	793.32825	32.5468	-761.59512	-412.53069	777.86852	-365.33783	52.88855	786.00522	1249.79712	1134.25598	654.19068	385.67958	0
529	927.5838	174.12538	-754.27209	-551.66826	841.33478	-289.66652	-69.97562	734.74401	1408.46277	1349.06486	851.91249	541.90422	0
530	1015.46016	330.35002	-685.92381	-673.71876	851.09882	-177.38006	-206.67218	644.42664	1525.63125	1541.90465	1042.31127	700.56987	0
531	1064.28036	493.89769	-571.19634	-778.68219	816.92468	-38.24249	-345.80975	532.14018	1613.50761	1709.52067	1225.38702	861.67653	0
532	1074.0444	645.24031	-429.61776	-859.23552	751.01741	109.03178	-492.27035	400.32564	1649.30909	1829.13016	1379.17065	1003.25511	0
533	1044.75228	759.96778	-285.59817	-903.1737	665.58206	238.40531	-638.73095	234.33696	1601.30256	1853.54026	1457.28297	1096.01349	0
534	981.28602	840.52111	-141.57858	-910.49673	560.61863	350.69177	-770.54549	39.05616	1464.606	1777.86895	1459.72398	1142.39268	0
535	878.7636	886.9003	8.1367	-883.64562	436.12712	448.33217	-870.6269	-174.12538	1235.15106	1598.04788	1388.93469	1139.95167	0
536	754.27209	896.66434	142.39225	-825.06138	306.75359	519.12146	-946.29821	-398.6983	932.46582	1334.4188	1252.23813	1091.13147	0
537	629.78058	872.25424	242.47366	-751.83108	194.46713	558.17762	-1012.20548	-630.59425	576.07836	1009.76447	1061.83935	995.93208	0
538	505.28907	813.67	308.38093	-659.0727	99.26774	560.61863	-1056.14366	-860.04919	187.95777	638.73095	829.9434	866.55855	0
539	383.23857	745.32172	362.08315	-563.87331	11.39138	553.2956	-1082.99477	-1072.41706	-196.09447	279.90248	600.48846	729.86199	0
540	268.5111	679.41445	410.90335	-473.55594	-72.41663	545.97257	-1100.08184	-1250.61079	-535.39486	-30.10579	395.44362	602.92947	0
541	165.98868	611.06617	445.07749	-388.12059	-140.76491	528.8855	-1107.40487	-1365.33826	-786.81889	-265.25642	229.45494	485.76099	0
542	90.31737	540.27688	449.95951	-314.89029	-179.82107	494.71136	-1102.52285	-1411.71745	-945.48454	-423.92207	100.08141	385.67958	0
543	34.17414	464.60557	430.43143	-248.98302	-199.34915	448.33217	-1085.43578	-1401.95341	-1026.03787	-521.56247	4.88202	297.80322	0
544	-4.88202	381.61123	386.49325	-187.95777	-196.90814	384.86591	-1061.02568	-1353.13321	-1048.00696	-570.38267	-64.27993	219.6909	0
545	-30.10579	305.93992	335.23204	-139.13757	-182.26208	318.95864	-1026.85154	-1277.4619	-1026.03787	-587.46974	-117.98215	156.22464	0
546	-44.75185	232.70962	276.6478	-95.19939	-160.29299	253.05137	-975.59033	-1184.70352	-974.77666	-582.58772	-154.5973	102.52242	0
547	-52.07488	166.80235	218.06356	-58.58424	-135.88289	192.02612	-919.4471	-1089.50413	-916.19242	-567.94166	-181.44841	56.14323	0
548	-54.51589	110.65912	164.36134	-29.29212	-109.03178	135.88289	-848.65781	-991.86373	-852.72616	-548.41358	-196.09447	21.96909	0
549	-52.07488	74.04397	125.30518	-12.20505	-89.5037	99.26774	-772.9865	-896.66434	-786.81889	-521.56247	-203.4175	0	0
550	-44.75185	61.83892	105.7771	-9.76404	-74.85764	82.18067	-692.43317	-796.58293	-720.91162	-487.38833	-196.09447	-9.76404	0
551	-39.86983	59.39791	98.45407	-9.76404	-69.97562	77.29865	-614.32085	-701.38354	-652.56334	-453.21419	-181.44841	-12.20505	0
552	-34.98781	64.27993	98.45407	-14.64606	-67.53461	79.73966	-541.09055	-608.62516	-586.65607	-409.27601	-161.92033	-7.32303	0
553	-34.98781	71.60296	105.7771	-19.52808	-69.97562	87.06269	-467.86025	-515.86678	-523.18981	-367.77884	-139.95124	0	0
554	-42.31084	81.367	122.86417	-19.52808	-82.18067	101.70875	-401.95298	-427.99042	-462.16456	-326.28167	-117.98215	7.32303	0
555	-47.19286	88.69003	135.06922	-21.96909	-91.94471	111.47279	-343.36874	-347.43709	-408.46234	-287.22551	-96.01306	14.64606	0
556	-52.07488	86.24902	137.51023	-17.08707	-94.38572	111.47279	-292.10753	-281.52982	-357.20113	-255.49238	-78.92599	14.64606	0
557	-54.51589	74.04397	127.74619	-9.76404	-91.94471	99.26774	-250.61036	-227.8276	-315.70396	-228.64127	-69.16195	9.76404	0
558	-56.9569	59.39791	115.54114	-2.44101	-87.06269	87.06269	-213.99521	-181.44841	-281.52982	-211.5542	-66.72094	0	0
559	-56.9569	44.75185	100.89508	4.88202	-79.73966	72.41663	-182.26208	-147.27427	-254.67871	-196.90814	-64.27993	-9.76404	0
560	-54.51589	34.98781	88.69003	9.76404	-72.41663	60.21158	-155.41097	-115.54114	-232.70962	-184.70309	-61.83892	-17.08707	0
561	-49.63387	27.66478	76.48498	9.76404	-62.65259	50.44754	-133.44188	-91.13104	-210.74053	-174.93905	-61.83892	-26.85111	0
562	-49.63387	22.78276	71.60296	12.20505	-60.21158	45.56552	-116.35481	-64.27993	-196.09447	-167.61602	-64.27993	-32.5468	0
563	-49.63387	17.90074	66.72094	14.64606	-57.77057	40.6835	-104.14976	-39.86983	-183.88942	-165.17501	-69.16195	-32.5468	0
564	-54.51589	13.01872	66.72094	19.52808	-60.21158	38.24249	-96.82673	-20.34175	-171.68437	-160.29299	-69.16195	-34.98781	0
565	-59.39791	10.57771	69.16195	22.78276	-65.0936	38.24249	-89.5037	-0.81367	-159.47932	-155.41097	-69.16195	-32.5468	0
566	-59.39791	8.1367	66.72094	25.22377	-62.65259	35.80148	-84.62168	11.39138	-149.71528	-152.96996	-71.60296	-32.5468	0
567	-59.39791	8.1367	66.72094	25.22377	-62.65259	35.80148	-77.29865	21.96909	-137.51023	-148.08794	-66.72094	-30.10579	0
568	-59.39791	3.25468	61.83892	27.66478	-60.21158	30.91946	-72.41663	29.29212	-130.1872	-143.20592	-66.72094	-30.10579	0
569	-59.39791	0.81367	59.39791	27.66478	-60.21158	28.47845	-62.65259	36.61515	-120.42316	-138.3239	-64.27993	-24.4101	0
570	-56.9569	3.25468	59.39791	25.22377	-57.77057	30.91946	-52.88855	41.49717	-115.54114	-135.88289	-59.39791	-19.52808	0
571	-52.07488	8.1367	59.39791	19.52808	-55.32956	33.36047	-43.12451	46.37919	-110.65912	-135.88289	-54.51589	-14.64606	0
572	-52.07488	13.01872	64.27993	19.52808	-57.77057	38.24249	-40.6835	53.70222	-110.65912	-131.00087	-49.63387	-9.76404	0
573	-52.07488	17.90074	69.16195	17.08707	-60.21158	43.12451	-35.80148	61.02525	-105.7771	-131.00087	-47.19286	-4.88202	0
574	-54.51589	25.22377	78.92599	14.64606	-67.53461	50.44754	-30.91946	70.78929	-103.33609	-128.55986	-42.31084	0	0
575	-56.9569	30.10579	86.24902	12.20505	-72.41663	57.77057	-30.91946	80.55333	-98.45407	-126.11885	-36.61515	4.88202	0
576	-59.39791	32.5468	91.13104	12.20505	-74.85764	60.21158	-28.47845	85.43535	-93.57205	-121.23683	-31.73313	4.88202	0
577	-61.83892	34.98781	96.01306	12.20505	-79.73966	65.0936	-26.03744	87.87636	-88.69003	-121.23683	-29.29212	2.44101	0
578	-59.39791	34.98781	93.57205	12.20505	-77.29865	62.65259	-18.71441	92.75838	-83.80801	-116.35481	-24.4101	2.44101	0
579	-59.39791	32.5468	91.13104	12.20505	-74.85764	60.21158	-13.83239	95.19939	-81.367	-113.9138	-24.4101	2.44101	0
580	-61.83892	32.5468	93.57205	14.64606	-77.29865	62.65259	-6.50936	95.19939	-76.48498	-111.47279	-21.96909	0	0
581	-56.9569	34.98781	91.13104	9.76404	-74.85764	62.65259	0.81367	97.6404	-74.04397	-109.03178	-21.96909	0	0
582	-56.9569	39.86983	96.01306	7.32303	-77.29865	67.53461	5.69569	102.52242	-74.04397	-109.03178	-21.96909	2.44101	0
583	-56.9569	42.31084	98.45407	7.32303	-77.29865	69.97562	10.57771	107.40444	-74.04397	-109.03178	-21.96909	4.88202	0
584	-61.83892	49.63387	110.65912	4.88202	-87.06269	79.73966	10.57771	114.72747	-74.04397	-104.14976	-19.52808	9.76404	0
585	-64.27993	54.51589	117.98215	4.88202	-91.94471	84.62168	13.01872	122.0505	-71.60296	-99.26774	-17.08707	12.20505	0
586	-66.72094	56.9569	122.86417	4.88202	-94.38572	89.5037	13.01872	129.37353	-66.72094	-91.94471	-12.20505	17.08707	0
587	-66.72094	61.83892	127.74619	2.44101	-96.82673	94.38572	17.90074	134.25555	-61.83892	-84.62168	-7.32303	17.08707	0
588	-69.16195	61.83892	130.1872	2.44101	-99.26774	94.38572	22.78276	141.57858	-54.51589	-72.41663	0	19.52808	0
589	-69.16195	61.83892	130.1872	2.44101	-99.26774	94.38572	30.10579	146.4606	-47.19286	-57.77057	9.76404	24.4101	0
590	-69.16195	61.83892	130.1872	2.44101	-99.26774	94.38572	35.80148	151.34262	-39.86983	-44.75185	19.52808	29.29212	0
591	-66.72094	66.72094	132.62821	0	-99.26774	99.26774	40.6835	156.22464	-32.5468	-32.5468	29.29212	34.17414	0
592	-66.72094	71.60296	137.51023	-2.44101	-101.70875	104.14976	45.56552	161.10666	-32.5468	-22.78276	36.61515	39.05616	0
593	-71.60296	71.60296	142.39225	0	-106.59077	106.59077	52.88855	168.42969	-29.29212	-13.01872	43.93818	43.93818	0
594	-74.04397	76.48498	149.71528	-2.44101	-111.47279	111.47279	55.32956	178.19373	-26.85111	-3.25468	48.8202	48.8202	0
595	-74.04397	86.24902	159.47932	-7.32303	-116.35481	121.23683	57.77057	185.51676	-21.96909	8.95037	53.70222	53.70222	0
596	-71.60296	96.01306	166.80235	-12.20505	-118.79582	131.00087	62.65259	192.83979	-14.64606	16.2734	53.70222	58.58424	0
597	-71.60296	100.89508	171.68437	-14.64606	-121.23683	135.88289	69.97562	202.60383	-7.32303	23.59643	56.14323	63.46626	0
598	-71.60296	103.33609	174.12538	-17.08707	-123.67784	138.3239	79.73966	209.92686	0	30.91946	58.58424	65.90727	0
599	-71.60296	103.33609	174.12538	-17.08707	-123.67784	138.3239	89.5037	214.80888	7.32303	40.6835	61.02525	70.78929	0
600	-71.60296	108.21811	179.0074	-19.52808	-126.11885	143.20592	96.82673	219.6909	12.20505	48.00653	61.02525	73.2303	0
601	-71.60296	113.10013	183.88942	-21.96909	-128.55986	148.08794	104.14976	224.57292	17.08707	50.44754	58.58424	73.2303	0
602	-74.04397	115.54114	188.77144	-21.96909	-131.00087	150.52895	109.03178	229.45494	17.08707	50.44754	56.14323	73.2303	0
603	-78.92599	122.86417	200.97649	-21.96909	-140.76491	160.29299	113.9138	239.21898	19.52808	55.32956	56.14323	78.11232	0
604	-86.24902	127.74619	213.18154	-21.96909	-150.52895	170.05703	118.79582	251.42403	24.4101	62.65259	61.02525	80.55333	0
605	-86.24902	137.51023	222.94558	-26.85111	-155.41097	179.82107	123.67784	263.62908	31.73313	69.97562	65.90727	82.99434	0
606	-88.69003	144.83326	232.70962	-29.29212	-160.29299	187.1441	131.00087	273.39312	41.49717	79.73966	73.2303	87.87636	0
607	-93.57205	149.71528	242.47366	-29.29212	-167.61602	194.46713	138.3239	285.59817	51.26121	91.94471	82.99434	90.31737	0
608	-96.01306	152.15629	247.35568	-29.29212	-172.49804	199.34915	150.52895	295.36221	63.46626	104.14976	90.31737	95.19939	0
609	-98.45407	154.5973	252.2377	-29.29212	-174.93905	201.79016	157.85198	305.12625	75.67131	118.79582	100.08141	102.52242	0
610	-103.33609	157.03831	259.56073	-26.85111	-182.26208	206.67218	170.05703	312.44928	85.43535	131.00087	109.84545	107.40444	0
611	-105.7771	159.47932	264.44275	-26.85111	-184.70309	211.5542	177.38006	319.77231	92.75838	138.3239	117.16848	112.28646	0
612	-108.21811	164.36134	271.76578	-29.29212	-189.58511	216.43622	184.70309	331.97736	100.08141	145.64693	124.49151	117.16848	0
613	-113.10013	171.68437	283.97083	-29.29212	-199.34915	226.20026	192.02612	344.18241	107.40444	152.96996	129.37353	124.49151	0
614	-117.98215	181.44841	298.61689	-31.73313	-209.11319	238.40531	196.90814	358.82847	117.16848	160.29299	136.69656	129.37353	0
615	-122.86417	196.09447	318.14497	-36.61515	-221.31824	255.49238	206.67218	373.47453	124.49151	165.17501	144.01959	134.25555	0
616	-122.86417	205.85851	327.90901	-41.49717	-226.20026	265.25642	216.43622	385.67958	134.25555	167.61602	148.90161	136.69656	0
617	-122.86417	220.50457	342.55507	-48.8202	-233.52329	279.90248	223.75925	400.32564	144.01959	177.38006	156.22464	139.13757	0
618	-122.86417	227.8276	349.8781	-53.70222	-235.9643	287.22551	235.9643	417.41271	156.22464	184.70309	163.54767	144.01959	0
619	-125.30518	232.70962	357.20113	-53.70222	-240.84632	294.54854	248.16935	429.61776	168.42969	194.46713	170.8707	148.90161	0
620	-125.30518	237.59164	362.08315	-56.14323	-243.28733	299.43056	260.3744	444.26382	178.19373	204.23117	178.19373	156.22464	0
621	-120.42316	244.91467	364.52416	-63.46626	-243.28733	304.31258	270.13844	456.46887	190.39878	213.99521	185.51676	163.54767	0
622	-115.54114	252.2377	366.96517	-68.34828	-240.84632	309.1946	277.46147	471.11493	200.16282	223.75925	192.83979	168.42969	0
623	-115.54114	259.56073	374.2882	-73.2303	-245.72834	316.51763	287.22551	488.202	209.92686	233.52329	202.60383	173.31171	0
624	-120.42316	262.00174	381.61123	-70.78929	-250.61036	321.39965	296.98955	505.28907	224.57292	245.72834	212.36787	180.63474	0
625	-120.42316	271.76578	391.37527	-75.67131	-255.49238	331.16369	306.75359	522.37614	236.77797	257.93339	219.6909	185.51676	0
626	-120.42316	283.97083	403.58032	-82.99434	-262.81541	343.36874	316.51763	537.0222	251.42403	267.69743	229.45494	190.39878	0
627	-117.98215	296.17588	413.34436	-90.31737	-265.25642	353.13278	328.72268	554.10927	266.07009	279.90248	239.21898	192.83979	0
628	-117.98215	301.0579	418.22638	-92.75838	-267.69743	358.0148	343.36874	571.19634	285.59817	294.54854	248.98302	195.2808	0
629	-117.98215	303.49891	420.66739	-92.75838	-270.13844	360.45581	360.45581	588.28341	305.12625	314.07662	261.18807	205.04484	0
630	-113.10013	313.26295	425.54941	-100.08141	-270.13844	367.77884	372.66086	602.92947	319.77231	326.28167	270.95211	212.36787	0
631	-108.21811	325.468	432.87244	-109.84545	-270.13844	377.54288	382.4249	615.13452	334.41837	336.04571	278.27514	217.24989	0
632	-105.7771	332.79103	437.75446	-114.72747	-272.57945	384.86591	394.62995	632.22159	346.62342	348.25076	285.59817	224.57292	0
633	-103.33609	337.67305	440.19547	-117.16848	-272.57945	387.30692	406.835	649.30866	356.38746	355.57379	292.9212	234.33696	0
634	-100.89508	344.99608	445.07749	-122.0505	-272.57945	394.62995	414.15803	666.39573	368.59251	365.33783	297.80322	241.65999	0
635	-100.89508	352.31911	452.40052	-126.93252	-277.46147	401.95298	414.15803	681.04179	375.91554	370.21985	302.68524	248.98302	0
636	-96.01306	362.08315	457.28254	-134.25555	-277.46147	409.27601	416.59904	688.36482	385.67958	377.54288	305.12625	251.42403	0
637	-96.01306	362.08315	457.28254	-134.25555	-277.46147	409.27601	423.92207	700.56987	395.44362	384.86591	310.00827	256.30605	0
638	-91.13104	357.20113	447.5185	-134.25555	-270.13844	401.95298	433.68611	710.33391	410.08968	394.62995	317.3313	261.18807	0
639	-86.24902	354.76012	440.19547	-134.25555	-262.81541	397.07096	441.00914	715.21593	419.85372	404.39399	324.65433	266.07009	0
640	-78.92599	354.76012	432.87244	-139.13757	-255.49238	392.18894	448.33217	720.09795	427.17675	411.71702	331.97736	270.95211	0
641	-69.16195	357.20113	425.54941	-144.01959	-248.16935	389.74793	455.6552	722.53896	434.49978	416.59904	339.30039	275.83413	0
642	-64.27993	357.20113	420.66739	-146.4606	-243.28733	387.30692	462.97823	727.42098	439.3818	421.48106	344.18241	280.71615	0
643	-59.39791	357.20113	415.78537	-148.90161	-238.40531	384.86591	467.86025	734.74401	444.26382	423.92207	351.50544	288.03918	0
644	-54.51589	362.08315	415.78537	-153.78363	-235.9643	387.30692	467.86025	737.18502	446.70483	426.36308	353.94645	292.9212	0
645	-49.63387	369.40618	418.22638	-161.10666	-233.52329	392.18894	465.41924	739.62603	446.70483	426.36308	356.38746	295.36221	0
646	-44.75185	371.84719	415.78537	-163.54767	-231.08228	392.18894	460.53722	734.74401	446.70483	426.36308	356.38746	297.80322	0
647	-39.86983	366.96517	406.02133	-163.54767	-223.75925	384.86591	455.6552	727.42098	449.14584	423.92207	353.94645	297.80322	0
648	-34.98781	362.08315	396.25729	-163.54767	-216.43622	377.54288	455.6552	722.53896	449.14584	423.92207	351.50544	300.24423	0
649	-27.66478	357.20113	384.05224	-165.98868	-206.67218	370.21985	453.21419	710.33391	449.14584	419.04005	346.62342	297.80322	0
650	-17.90074	357.20113	374.2882	-170.8707	-196.90814	365.33783	448.33217	695.68785	441.82281	411.71702	339.30039	295.36221	0
651	-9.76404	352.31911	362.08315	-170.8707	-187.1441	358.0148	441.00914	681.04179	436.94079	404.39399	334.41837	290.48019	0
652	-4.88202	344.99608	349.8781	-170.8707	-177.38006	348.25076	431.2451	666.39573	427.17675	392.18894	324.65433	283.15716	0
653	0	337.67305	337.67305	-168.42969	-170.05703	338.48672	419.04005	654.19068	417.41271	379.98389	314.89029	280.71615	0
654	2.44101	330.35002	327.90901	-165.98868	-162.734	328.72268	406.835	641.98563	407.64867	370.21985	302.68524	273.39312	0
655	9.76404	323.02699	313.26295	-165.98868	-152.96996	318.95864	389.74793	624.89856	393.00261	350.69177	288.03918	266.07009	0
656	12.20505	310.82194	298.61689	-161.10666	-143.20592	304.31258	375.10187	607.81149	380.79756	336.04571	273.39312	258.74706	0
657	14.64606	298.61689	283.97083	-156.22464	-135.88289	292.10753	362.89682	593.16543	371.03352	321.39965	263.62908	248.98302	0
658	19.52808	283.97083	264.44275	-151.34262	-123.67784	275.02046	355.57379	573.63735	361.26948	306.75359	248.98302	239.21898	0
659	24.4101	266.88376	242.47366	-146.4606	-109.03178	255.49238	345.80975	554.10927	351.50544	292.10753	234.33696	227.01393	0
660	24.4101	252.2377	227.8276	-139.13757	-101.70875	240.84632	338.48672	532.14018	334.41837	275.02046	219.6909	214.80888	0
661	29.29212	237.59164	208.29952	-134.25555	-89.5037	223.75925	326.28167	507.73008	322.21332	255.49238	202.60383	197.72181	0
662	31.73313	222.94558	191.21245	-126.93252	-79.73966	206.67218	309.1946	485.76099	305.12625	238.40531	187.95777	180.63474	0
663	31.73313	208.29952	176.56639	-119.60949	-72.41663	192.02612	289.66652	466.23291	288.03918	218.87723	170.8707	165.98868	0
664	26.85111	196.09447	169.24336	-112.28646	-72.41663	182.26208	270.13844	446.70483	270.95211	201.79016	156.22464	151.34262	0
665	24.4101	186.33043	161.92033	-104.96343	-69.97562	174.93905	250.61036	427.17675	253.86504	187.1441	141.57858	139.13757	0
666	24.4101	171.68437	147.27427	-97.6404	-62.65259	160.29299	231.08228	405.20766	241.65999	174.93905	129.37353	129.37353	-1250	T-0
667	24.4101	157.03831	132.62821	-90.31737	-55.32956	145.64693	216.43622	385.67958	227.01393	162.734	119.60949	119.60949	0
668	24.4101	142.39225	117.98215	-82.99434	-48.00653	131.00087	206.67218	366.1515	219.6909	155.41097	114.72747	114.72747	0
669	24.4101	125.30518	100.89508	-75.67131	-38.24249	113.9138	194.46713	346.62342	207.48585	150.52895	112.28646	109.84545	0
670	24.4101	108.21811	83.80801	-65.90727	-30.91946	96.82673	184.70309	324.65433	195.2808	143.20592	107.40444	107.40444	0
671	21.96909	93.57205	71.60296	-58.58424	-26.03744	82.18067	170.05703	302.68524	183.07575	138.3239	104.96343	102.52242	0
672	21.96909	78.92599	56.9569	-51.26121	-18.71441	67.53461	155.41097	280.71615	165.98868	131.00087	100.08141	95.19939	0
673	21.96909	66.72094	44.75185	-43.93818	-11.39138	55.32956	140.76491	263.62908	151.34262	128.55986	90.31737	87.87636	0
674	19.52808	49.63387	30.10579	-34.17414	-6.50936	40.6835	121.23683	246.54201	139.13757	128.55986	78.11232	82.99434	0
675	14.64606	34.98781	20.34175	-24.4101	-3.25468	28.47845	106.59077	229.45494	124.49151	128.55986	68.34828	73.2303	0
676	14.64606	22.78276	8.1367	-19.52808	4.06835	16.2734	94.38572	212.36787	112.28646	131.00087	51.26121	65.90727	0
677	14.64606	13.01872	-1.62734	-14.64606	8.95037	6.50936	82.18067	195.2808	102.52242	133.44188	39.05616	58.58424	0
678	17.08707	0.81367	-17.08707	-9.76404	16.2734	-8.1367	74.85764	180.63474	95.19939	138.3239	26.85111	51.26121	0
679	14.64606	-11.39138	-26.85111	-2.44101	21.15542	-18.71441	67.53461	163.54767	85.43535	138.3239	19.52808	43.93818	0
680	12.20505	-18.71441	-31.73313	2.44101	21.15542	-26.03744	60.21158	146.4606	70.78929	133.44188	9.76404	36.61515	0
681	14.64606	-21.15542	-36.61515	2.44101	26.03744	-28.47845	48.00653	126.93252	58.58424	126.11885	4.88202	31.73313	0
682	12.20505	-24.4101	-36.61515	4.88202	23.59643	-30.91946	35.80148	109.84545	43.93818	118.79582	0	24.4101	0
683	7.32303	-24.4101	-31.73313	7.32303	18.71441	-28.47845	25.22377	97.6404	31.73313	111.47279	-4.88202	19.52808	0
684	2.44101	-26.85111	-29.29212	12.20505	13.83239	-28.47845	13.01872	87.87636	17.08707	101.70875	-12.20505	9.76404	0
685	0	-24.4101	-24.4101	12.20505	11.39138	-23.59643	-1.62734	75.67131	4.88202	89.5037	-21.96909	0	0
686	-2.44101	-24.4101	-21.96909	12.20505	8.95037	-23.59643	-16.2734	65.90727	0	82.18067	-29.29212	-7.32303	0
687	-4.88202	-24.4101	-19.52808	14.64606	6.50936	-21.15542	-23.59643	58.58424	-4.88202	79.73966	-36.61515	-17.08707	0
688	-7.32303	-34.17414	-26.85111	19.52808	8.95037	-30.91946	-26.03744	48.8202	-7.32303	74.85764	-42.31084	-26.85111	0
689	-7.32303	-41.49717	-34.17414	22.78276	11.39138	-38.24249	-28.47845	39.05616	-12.20505	65.0936	-52.07488	-32.5468	0
690	-9.76404	-51.26121	-41.49717	30.10579	13.83239	-45.56552	-30.91946	26.85111	-19.52808	60.21158	-56.9569	-37.42882	0
691	-9.76404	-61.02525	-51.26121	34.98781	18.71441	-55.32956	-33.36047	13.83239	-24.4101	55.32956	-59.39791	-39.86983	0
692	-12.20505	-65.90727	-53.70222	37.42882	18.71441	-60.21158	-33.36047	4.06835	-32.5468	48.00653	-59.39791	-39.86983	0
693	-14.64606	-68.34828	-53.70222	39.86983	18.71441	-60.21158	-38.24249	-3.25468	-39.86983	40.6835	-61.83892	-39.86983	0
694	-17.90074	-70.78929	-53.70222	42.31084	16.2734	-62.65259	-45.56552	-5.69569	-47.19286	30.91946	-66.72094	-39.86983	0
695	-22.78276	-70.78929	-48.8202	44.75185	11.39138	-60.21158	-52.88855	-10.57771	-54.51589	21.15542	-69.16195	-42.31084	0
696	-30.10579	-70.78929	-41.49717	49.63387	4.06835	-57.77057	-55.32956	-13.01872	-54.51589	16.2734	-74.04397	-44.75185	0
697	-34.98781	-70.78929	-36.61515	52.07488	-0.81367	-55.32956	-57.77057	-13.01872	-56.9569	11.39138	-78.92599	-52.07488	0
698	-34.98781	-75.67131	-41.49717	54.51589	1.62734	-60.21158	-55.32956	-15.45973	-54.51589	6.50936	-83.80801	-56.9569	0
699	-32.5468	-80.55333	-48.8202	54.51589	6.50936	-65.0936	-55.32956	-22.78276	-54.51589	6.50936	-83.80801	-66.72094	0
700	-30.10579	-82.99434	-53.70222	54.51589	11.39138	-69.97562	-52.88855	-32.5468	-56.9569	6.50936	-86.24902	-71.60296	0
701	-25.22377	-87.87636	-63.46626	54.51589	18.71441	-77.29865	-50.44754	-42.31084	-56.9569	4.06835	-81.367	-71.60296	0
702	-25.22377	-90.31737	-65.90727	56.9569	18.71441	-79.73966	-45.56552	-47.19286	-59.39791	4.06835	-74.04397	-74.04397	0
703	-20.34175	-90.31737	-70.78929	54.51589	23.59643	-82.18067	-45.56552	-49.63387	-61.83892	1.62734	-69.16195	-71.60296	0
704	-22.78276	-87.87636	-65.90727	54.51589	21.15542	-77.29865	-50.44754	-47.19286	-64.27993	-0.81367	-66.72094	-71.60296	0
705	-27.66478	-85.43535	-58.58424	54.51589	13.83239	-72.41663	-52.88855	-47.19286	-71.60296	-8.1367	-64.27993	-69.16195	0
706	-32.5468	-87.87636	-56.14323	59.39791	11.39138	-72.41663	-55.32956	-47.19286	-71.60296	-13.01872	-66.72094	-66.72094	0
707	-37.42882	-85.43535	-48.8202	59.39791	4.06835	-67.53461	-60.21158	-44.75185	-71.60296	-17.90074	-66.72094	-66.72094	0
708	-37.42882	-85.43535	-48.8202	59.39791	4.06835	-67.53461	-60.21158	-44.75185	-71.60296	-25.22377	-69.16195	-66.72094	0
709	-37.42882	-87.87636	-51.26121	61.83892	6.50936	-69.97562	-52.88855	-49.63387	-66.72094	-30.10579	-71.60296	-64.27993	0
710	-34.98781	-87.87636	-53.70222	59.39791	8.95037	-72.41663	-48.00653	-54.51589	-66.72094	-34.98781	-71.60296	-61.83892	0
711	-32.5468	-90.31737	-58.58424	59.39791	11.39138	-74.85764	-48.00653	-61.83892	-66.72094	-37.42882	-71.60296	-59.39791	0
712	-27.66478	-90.31737	-63.46626	56.9569	16.2734	-77.29865	-50.44754	-69.16195	-69.16195	-42.31084	-71.60296	-59.39791	0
713	-25.22377	-90.31737	-65.90727	56.9569	18.71441	-79.73966	-50.44754	-71.60296	-71.60296	-48.00653	-69.16195	-54.51589	0
714	-25.22377	-85.43535	-61.02525	54.51589	16.2734	-74.85764	-50.44754	-66.72094	-71.60296	-48.00653	-66.72094	-52.07488	0
715	-27.66478	-85.43535	-58.58424	54.51589	13.83239	-72.41663	-57.77057	-64.27993	-71.60296	-48.00653	-66.72094	-52.07488	0
716	-30.10579	-85.43535	-56.14323	56.9569	11.39138	-72.41663	-65.0936	-59.39791	-71.60296	-48.00653	-61.83892	-52.07488	0
717	-34.98781	-85.43535	-51.26121	59.39791	6.50936	-69.97562	-65.0936	-56.9569	-69.16195	-48.00653	-61.83892	-54.51589	0
718	-34.98781	-85.43535	-51.26121	59.39791	6.50936	-69.97562	-57.77057	-54.51589	-66.72094	-48.00653	-59.39791	-56.9569	0
719	-37.42882	-85.43535	-48.8202	59.39791	4.06835	-67.53461	-45.56552	-52.07488	-56.9569	-48.00653	-56.9569	-59.39791	0
720	-37.42882	-85.43535	-48.8202	59.39791	4.06835	-67.53461	-35.80148	-52.07488	-54.51589	-44.75185	-56.9569	-61.83892	0
721	-34.98781	-87.87636	-53.70222	59.39791	8.95037	-72.41663	-28.47845	-54.51589	-52.07488	-44.75185	-56.9569	-66.72094	0
722	-34.98781	-82.99434	-48.8202	56.9569	6.50936	-67.53461	-21.15542	-56.9569	-54.51589	-48.00653	-56.9569	-69.16195	0
723	-32.5468	-82.99434	-51.26121	56.9569	8.95037	-67.53461	-16.2734	-54.51589	-56.9569	-48.00653	-56.9569	-69.16195	0
724	-34.98781	-80.55333	-46.37919	56.9569	4.06835	-65.0936	-16.2734	-49.63387	-56.9569	-48.00653	-56.9569	-69.16195	0
725	-37.42882	-78.11232	-41.49717	56.9569	1.62734	-60.21158	-18.71441	-44.75185	-59.39791	-50.44754	-56.9569	-69.16195	0
726	-39.86983	-80.55333	-41.49717	59.39791	-0.81367	-62.65259	-23.59643	-42.31084	-59.39791	-50.44754	-59.39791	-69.16195	0
727	-42.31084	-78.11232	-36.61515	59.39791	-3.25468	-57.77057	-23.59643	-37.42882	-59.39791	-50.44754	-59.39791	-71.60296	0
728	-44.75185	-80.55333	-36.61515	61.83892	-6.50936	-60.21158	-18.71441	-34.98781	-56.9569	-50.44754	-59.39791	-74.04397	0
729	-44.75185	-82.99434	-39.05616	61.83892	-3.25468	-62.65259	-8.95037	-34.98781	-52.07488	-48.00653	-59.39791	-76.48498	0
730	-42.31084	-85.43535	-43.93818	61.83892	-0.81367	-65.0936	-4.06835	-39.86983	-47.19286	-48.00653	-59.39791	-76.48498	0
731	-37.42882	-87.87636	-51.26121	61.83892	6.50936	-69.97562	-1.62734	-47.19286	-44.75185	-42.31084	-52.07488	-76.48498	0
732	-32.5468	-85.43535	-53.70222	56.9569	8.95037	-69.97562	0.81367	-49.63387	-42.31084	-39.86983	-47.19286	-74.04397	0
733	-32.5468	-85.43535	-53.70222	56.9569	8.95037	-69.97562	3.25468	-49.63387	-42.31084	-42.31084	-44.75185	-71.60296	0
734	-32.5468	-82.99434	-51.26121	56.9569	8.95037	-67.53461	3.25468	-44.75185	-42.31084	-42.31084	-47.19286	-71.60296	0
735	-37.42882	-82.99434	-46.37919	59.39791	4.06835	-65.0936	0.81367	-39.86983	-42.31084	-48.00653	-49.63387	-69.16195	0
736	-42.31084	-80.55333	-39.05616	59.39791	-3.25468	-60.21158	-1.62734	-37.42882	-47.19286	-52.88855	-56.9569	-69.16195	0
737	-44.75185	-80.55333	-36.61515	61.83892	-6.50936	-60.21158	0.81367	-32.5468	-47.19286	-60.21158	-59.39791	-71.60296	0
738	-47.19286	-85.43535	-39.05616	64.27993	-6.50936	-62.65259	0.81367	-30.10579	-47.19286	-65.0936	-66.72094	-74.04397	0
739	-47.19286	-90.31737	-43.93818	66.72094	-3.25468	-67.53461	8.1367	-32.5468	-44.75185	-69.97562	-69.16195	-74.04397	0
740	-44.75185	-95.19939	-51.26121	69.16195	1.62734	-74.85764	10.57771	-37.42882	-44.75185	-67.53461	-66.72094	-74.04397	0
741	-39.86983	-97.6404	-58.58424	66.72094	8.95037	-79.73966	10.57771	-44.75185	-42.31084	-65.0936	-61.83892	-71.60296	0
742	-37.42882	-102.52242	-65.90727	69.16195	13.83239	-84.62168	10.57771	-49.63387	-42.31084	-60.21158	-56.9569	-69.16195	0
743	-37.42882	-100.08141	-63.46626	66.72094	11.39138	-82.18067	13.01872	-49.63387	-42.31084	-55.32956	-49.63387	-64.27993	0
744	-34.98781	-100.08141	-65.90727	66.72094	13.83239	-84.62168	13.01872	-44.75185	-39.86983	-48.00653	-42.31084	-56.9569	0
745	-37.42882	-97.6404	-61.02525	66.72094	11.39138	-79.73966	10.57771	-39.86983	-39.86983	-44.75185	-42.31084	-52.07488	0
746	-44.75185	-97.6404	-53.70222	69.16195	4.06835	-77.29865	8.1367	-37.42882	-37.42882	-39.86983	-39.05616	-49.63387	0
747	-49.63387	-97.6404	-48.8202	71.60296	-0.81367	-74.85764	5.69569	-32.5468	-34.98781	-34.98781	-39.05616	-52.07488	0
748	-49.63387	-100.08141	-51.26121	74.04397	-0.81367	-77.29865	5.69569	-30.10579	-29.29212	-32.5468	-39.05616	-52.07488	0
749	-49.63387	-104.96343	-56.14323	76.48498	1.62734	-82.18067	8.1367	-32.5468	-24.4101	-32.5468	-42.31084	-56.9569	0
750	-47.19286	-109.84545	-63.46626	76.48498	6.50936	-87.06269	15.45973	-37.42882	-24.4101	-32.5468	-44.75185	-64.27993	0
751	-47.19286	-114.72747	-68.34828	78.92599	8.95037	-91.94471	15.45973	-44.75185	-24.4101	-37.42882	-47.19286	-71.60296	0
752	-44.75185	-117.16848	-73.2303	78.92599	13.83239	-96.82673	17.90074	-52.07488	-32.5468	-42.31084	-52.07488	-76.48498	0
753	-39.86983	-119.60949	-80.55333	78.92599	18.71441	-101.70875	20.34175	-52.07488	-32.5468	-48.00653	-54.51589	-78.92599	0
754	-39.86983	-119.60949	-80.55333	78.92599	18.71441	-101.70875	20.34175	-52.07488	-37.42882	-55.32956	-64.27993	-83.80801	0
755	-44.75185	-117.16848	-73.2303	78.92599	13.83239	-96.82673	15.45973	-49.63387	-44.75185	-60.21158	-69.16195	-83.80801	0
756	-49.63387	-117.16848	-68.34828	81.367	8.95037	-94.38572	8.1367	-49.63387	-44.75185	-60.21158	-71.60296	-83.80801	0
757	-54.51589	-119.60949	-65.90727	86.24902	4.06835	-94.38572	3.25468	-47.19286	-44.75185	-57.77057	-74.04397	-83.80801	0
758	-52.07488	-119.60949	-68.34828	83.80801	6.50936	-94.38572	3.25468	-44.75185	-39.86983	-55.32956	-71.60296	-83.80801	0
759	-52.07488	-122.0505	-70.78929	86.24902	8.95037	-96.82673	8.1367	-47.19286	-32.5468	-52.88855	-69.16195	-83.80801	0
760	-49.63387	-122.0505	-73.2303	83.80801	11.39138	-99.26774	10.57771	-54.51589	-32.5468	-50.44754	-69.16195	-83.80801	0
761	-44.75185	-124.49151	-80.55333	83.80801	16.2734	-104.14976	10.57771	-61.83892	-32.5468	-50.44754	-64.27993	-88.69003	0
762	-44.75185	-131.81454	-87.87636	86.24902	21.15542	-111.47279	13.01872	-64.27993	-32.5468	-50.44754	-61.83892	-88.69003	0
763	-39.86983	-131.81454	-92.75838	83.80801	26.03744	-113.9138	17.90074	-64.27993	-34.98781	-55.32956	-61.83892	-88.69003	0
764	-39.86983	-129.37353	-90.31737	83.80801	23.59643	-111.47279	15.45973	-59.39791	-39.86983	-62.65259	-64.27993	-88.69003	0
765	-39.86983	-129.37353	-90.31737	83.80801	23.59643	-111.47279	8.1367	-56.9569	-44.75185	-67.53461	-66.72094	-88.69003	0
766	-39.86983	-129.37353	-90.31737	83.80801	23.59643	-111.47279	3.25468	-54.51589	-47.19286	-67.53461	-69.16195	-88.69003	0
767	-42.31084	-129.37353	-87.87636	83.80801	21.15542	-109.03178	0.81367	-52.07488	-47.19286	-67.53461	-69.16195	-88.69003	0
768	-42.31084	-131.81454	-90.31737	86.24902	23.59643	-111.47279	0.81367	-52.07488	-47.19286	-69.97562	-71.60296	-88.69003	0
769	-42.31084	-134.25555	-92.75838	86.24902	23.59643	-113.9138	3.25468	-59.39791	-44.75185	-67.53461	-74.04397	-91.13104	0
770	-37.42882	-139.13757	-102.52242	86.24902	30.91946	-121.23683	5.69569	-66.72094	-42.31084	-65.0936	-71.60296	-93.57205	0
771	-32.5468	-148.90161	-117.16848	88.69003	40.6835	-133.44188	5.69569	-76.48498	-39.86983	-62.65259	-74.04397	-96.01306	0
772	-32.5468	-151.34262	-119.60949	91.13104	43.12451	-135.88289	8.1367	-83.80801	-42.31084	-65.0936	-76.48498	-100.89508	0
773	-30.10579	-156.22464	-126.93252	91.13104	48.00653	-143.20592	8.1367	-88.69003	-47.19286	-69.97562	-76.48498	-103.33609	0
774	-27.66478	-151.34262	-124.49151	88.69003	48.00653	-138.3239	8.1367	-88.69003	-49.63387	-72.41663	-78.92599	-103.33609	0
775	-27.66478	-146.4606	-119.60949	86.24902	45.56552	-133.44188	3.25468	-88.69003	-56.9569	-79.73966	-78.92599	-103.33609	0
776	-30.10579	-141.57858	-112.28646	83.80801	40.6835	-128.55986	-4.06835	-88.69003	-61.83892	-84.62168	-81.367	-105.7771	0
777	-32.5468	-136.69656	-104.96343	83.80801	35.80148	-121.23683	-11.39138	-88.69003	-64.27993	-87.06269	-83.80801	-103.33609	0
778	-32.5468	-134.25555	-102.52242	81.367	33.36047	-118.79582	-11.39138	-88.69003	-61.83892	-87.06269	-81.367	-103.33609	0
779	-30.10579	-134.25555	-104.96343	81.367	35.80148	-121.23683	-8.95037	-88.69003	-61.83892	-89.5037	-83.80801	-100.89508	0
780	-27.66478	-136.69656	-109.84545	81.367	40.6835	-123.67784	-8.95037	-93.57205	-61.83892	-91.94471	-86.24902	-98.45407	0
781	-22.78276	-146.4606	-124.49151	83.80801	50.44754	-135.88289	-13.83239	-98.45407	-59.39791	-94.38572	-88.69003	-96.01306	0
782	-17.90074	-153.78363	-136.69656	83.80801	57.77057	-145.64693	-8.95037	-103.33609	-59.39791	-96.82673	-88.69003	-93.57205	0
783	-17.90074	-161.10666	-144.01959	88.69003	62.65259	-152.96996	-6.50936	-105.7771	-64.27993	-101.70875	-88.69003	-93.57205	0
784	-17.90074	-163.54767	-146.4606	88.69003	62.65259	-155.41097	-6.50936	-110.65912	-71.60296	-111.47279	-93.57205	-93.57205	0
785	-17.90074	-163.54767	-146.4606	88.69003	62.65259	-155.41097	-13.83239	-115.54114	-76.48498	-116.35481	-93.57205	-93.57205	0
786	-20.34175	-165.98868	-146.4606	91.13104	62.65259	-157.85198	-18.71441	-120.42316	-78.92599	-116.35481	-91.13104	-93.57205	0
787	-25.22377	-165.98868	-141.57858	93.57205	57.77057	-155.41097	-21.15542	-120.42316	-83.80801	-121.23683	-91.13104	-96.01306	0
788	-27.66478	-163.54767	-136.69656	93.57205	52.88855	-150.52895	-21.15542	-125.30518	-83.80801	-123.67784	-88.69003	-103.33609	0
789	-25.22377	-163.54767	-139.13757	93.57205	55.32956	-152.96996	-23.59643	-125.30518	-78.92599	-123.67784	-86.24902	-105.7771	0
790	-25.22377	-165.98868	-141.57858	93.57205	57.77057	-155.41097	-23.59643	-130.1872	-76.48498	-123.67784	-86.24902	-110.65912	0
791	-22.78276	-170.8707	-148.90161	96.01306	62.65259	-160.29299	-28.47845	-139.95124	-78.92599	-126.11885	-86.24902	-110.65912	0
792	-20.34175	-170.8707	-151.34262	93.57205	65.0936	-162.734	-28.47845	-144.83326	-78.92599	-131.00087	-86.24902	-110.65912	0
793	-17.90074	-175.75272	-158.66565	96.01306	69.97562	-167.61602	-28.47845	-149.71528	-78.92599	-135.88289	-86.24902	-110.65912	0
794	-14.64606	-173.31171	-158.66565	93.57205	69.97562	-165.17501	-33.36047	-152.15629	-83.80801	-143.20592	-91.13104	-108.21811	0
795	-14.64606	-173.31171	-158.66565	93.57205	69.97562	-165.17501	-40.6835	-154.5973	-88.69003	-150.52895	-93.57205	-105.7771	0
796	-17.90074	-175.75272	-158.66565	96.01306	69.97562	-167.61602	-43.12451	-157.03831	-96.01306	-157.85198	-96.01306	-103.33609	0
797	-17.90074	-173.31171	-156.22464	93.57205	67.53461	-165.17501	-50.44754	-159.47932	-100.89508	-162.734	-98.45407	-103.33609	0
798	-17.90074	-170.8707	-153.78363	93.57205	67.53461	-162.734	-52.88855	-161.92033	-105.7771	-167.61602	-98.45407	-100.89508	0
799	-17.90074	-170.8707	-153.78363	93.57205	67.53461	-162.734	-55.32956	-164.36134	-105.7771	-170.05703	-100.89508	-98.45407	0
800	-17.90074	-170.8707	-153.78363	93.57205	67.53461	-162.734	-55.32956	-169.24336	-103.33609	-165.17501	-98.45407	-93.57205	0
801	-14.64606	-173.31171	-158.66565	93.57205	69.97562	-165.17501	-55.32956	-176.56639	-103.33609	-162.734	-98.45407	-88.69003	0
802	-12.20505	-173.31171	-161.10666	91.13104	72.41663	-167.61602	-55.32956	-183.88942	-105.7771	-162.734	-98.45407	-86.24902	0
803	-9.76404	-173.31171	-163.54767	91.13104	74.85764	-167.61602	-50.44754	-188.77144	-108.21811	-162.734	-100.89508	-81.367	0
804	-4.88202	-173.31171	-168.42969	88.69003	79.73966	-170.05703	-48.00653	-188.77144	-108.21811	-162.734	-108.21811	-78.92599	0
805	-4.88202	-170.8707	-165.98868	86.24902	79.73966	-167.61602	-50.44754	-188.77144	-110.65912	-165.17501	-113.10013	-81.367	0
806	-4.88202	-168.42969	-163.54767	86.24902	77.29865	-165.17501	-52.88855	-188.77144	-115.54114	-172.49804	-120.42316	-86.24902	0
807	-7.32303	-165.98868	-158.66565	86.24902	74.85764	-162.734	-52.88855	-186.33043	-120.42316	-177.38006	-125.30518	-91.13104	0
808	-7.32303	-161.10666	-153.78363	83.80801	72.41663	-157.85198	-52.88855	-181.44841	-117.98215	-177.38006	-125.30518	-96.01306	0
809	-7.32303	-158.66565	-151.34262	81.367	69.97562	-155.41097	-50.44754	-179.0074	-110.65912	-174.93905	-120.42316	-100.89508	0
810	-7.32303	-156.22464	-148.90161	81.367	69.97562	-152.96996	-50.44754	-179.0074	-108.21811	-174.93905	-120.42316	-103.33609	0
811	-7.32303	-156.22464	-148.90161	81.367	69.97562	-152.96996	-45.56552	-181.44841	-105.7771	-170.05703	-113.10013	-103.33609	0
812	-4.88202	-151.34262	-146.4606	76.48498	69.97562	-148.08794	-40.6835	-181.44841	-103.33609	-167.61602	-105.7771	-103.33609	0
813	-2.44101	-146.4606	-144.01959	74.04397	69.97562	-145.64693	-35.80148	-179.0074	-98.45407	-167.61602	-98.45407	-98.45407	0
814	-2.44101	-141.57858	-139.13757	71.60296	67.53461	-140.76491	-30.91946	-176.56639	-98.45407	-170.05703	-98.45407	-96.01306	0
815	-2.44101	-131.81454	-129.37353	66.72094	62.65259	-131.00087	-30.91946	-171.68437	-98.45407	-174.93905	-98.45407	-93.57205	0
816	-2.44101	-124.49151	-122.0505	61.83892	57.77057	-123.67784	-28.47845	-169.24336	-98.45407	-177.38006	-100.89508	-96.01306	0
817	-4.88202	-114.72747	-109.84545	59.39791	50.44754	-111.47279	-26.03744	-164.36134	-98.45407	-179.82107	-100.89508	-96.01306	0
818	-2.44101	-112.28646	-109.84545	56.9569	52.88855	-111.47279	-21.15542	-157.03831	-93.57205	-182.26208	-100.89508	-93.57205	0
819	0	-109.84545	-109.84545	54.51589	52.88855	-109.03178	-18.71441	-157.03831	-91.13104	-184.70309	-100.89508	-88.69003	0
820	0	-109.84545	-109.84545	54.51589	52.88855	-109.03178	-13.83239	-157.03831	-88.69003	-184.70309	-100.89508	-83.80801	0
821	0	-114.72747	-114.72747	56.9569	55.32956	-113.9138	-13.83239	-157.03831	-86.24902	-179.82107	-98.45407	-76.48498	0
822	2.44101	-117.16848	-119.60949	56.9569	60.21158	-118.79582	-11.39138	-161.92033	-86.24902	-179.82107	-93.57205	-69.16195	0
823	9.76404	-117.16848	-126.93252	52.07488	67.53461	-121.23683	-8.95037	-164.36134	-86.24902	-179.82107	-91.13104	-61.83892	0
824	12.20505	-114.72747	-126.93252	49.63387	67.53461	-121.23683	-4.06835	-164.36134	-86.24902	-177.38006	-91.13104	-56.9569	0
825	7.32303	-112.28646	-119.60949	52.07488	62.65259	-116.35481	-4.06835	-164.36134	-91.13104	-179.82107	-91.13104	-52.07488	0
826	7.32303	-107.40444	-114.72747	49.63387	60.21158	-111.47279	-8.95037	-164.36134	-98.45407	-179.82107	-91.13104	-49.63387	0
827	4.88202	-102.52242	-107.40444	47.19286	55.32956	-104.14976	-11.39138	-164.36134	-100.89508	-179.82107	-88.69003	-49.63387	0
828	4.88202	-100.08141	-104.96343	47.19286	52.88855	-101.70875	-11.39138	-166.80235	-105.7771	-184.70309	-88.69003	-52.07488	0
829	4.88202	-95.19939	-100.08141	44.75185	50.44754	-96.82673	-13.83239	-169.24336	-105.7771	-189.58511	-93.57205	-54.51589	0
830	7.32303	-92.75838	-100.08141	42.31084	52.88855	-96.82673	-13.83239	-174.12538	-108.21811	-192.02612	-96.01306	-54.51589	0
831	12.20505	-92.75838	-104.96343	39.86983	57.77057	-99.26774	-13.83239	-179.0074	-110.65912	-194.46713	-98.45407	-54.51589	0
832	17.08707	-92.75838	-109.84545	37.42882	62.65259	-101.70875	-13.83239	-183.88942	-110.65912	-194.46713	-100.89508	-54.51589	0
833	26.85111	-92.75838	-119.60949	32.5468	72.41663	-106.59077	-13.83239	-183.88942	-108.21811	-189.58511	-98.45407	-52.07488	0
834	31.73313	-90.31737	-122.0505	27.66478	74.85764	-106.59077	-18.71441	-181.44841	-103.33609	-187.1441	-98.45407	-52.07488	0
835	31.73313	-90.31737	-122.0505	27.66478	74.85764	-106.59077	-23.59643	-179.0074	-100.89508	-182.26208	-96.01306	-49.63387	0
836	36.61515	-85.43535	-122.0505	22.78276	77.29865	-104.14976	-28.47845	-176.56639	-100.89508	-179.82107	-91.13104	-49.63387	0
837	41.49717	-80.55333	-122.0505	19.52808	79.73966	-101.70875	-35.80148	-169.24336	-98.45407	-174.93905	-86.24902	-49.63387	0
838	43.93818	-80.55333	-124.49151	17.08707	82.18067	-101.70875	-45.56552	-166.80235	-98.45407	-177.38006	-86.24902	-52.07488	0
839	43.93818	-82.99434	-126.93252	19.52808	84.62168	-104.14976	-52.88855	-171.68437	-98.45407	-182.26208	-91.13104	-59.39791	0
840	43.93818	-85.43535	-129.37353	19.52808	84.62168	-106.59077	-57.77057	-176.56639	-103.33609	-187.1441	-96.01306	-64.27993	0
841	48.8202	-87.87636	-136.69656	19.52808	91.94471	-111.47279	-62.65259	-183.88942	-108.21811	-192.02612	-98.45407	-64.27993	0
842	51.26121	-87.87636	-139.13757	17.08707	94.38572	-113.9138	-65.0936	-191.21245	-108.21811	-192.02612	-96.01306	-56.9569	0
843	56.14323	-90.31737	-146.4606	17.08707	99.26774	-118.79582	-67.53461	-193.65346	-110.65912	-192.02612	-91.13104	-52.07488	0
844	61.02525	-85.43535	-146.4606	12.20505	101.70875	-116.35481	-67.53461	-196.09447	-110.65912	-189.58511	-86.24902	-44.75185	0
845	61.02525	-80.55333	-141.57858	9.76404	99.26774	-111.47279	-69.97562	-196.09447	-110.65912	-187.1441	-78.92599	-34.98781	0
846	65.90727	-73.2303	-139.13757	2.44101	101.70875	-106.59077	-77.29865	-196.09447	-113.10013	-182.26208	-71.60296	-26.85111	0
847	70.78929	-61.02525	-131.81454	-4.88202	99.26774	-96.82673	-84.62168	-193.65346	-110.65912	-174.93905	-64.27993	-17.08707	0
848	75.67131	-51.26121	-126.93252	-12.20505	99.26774	-89.5037	-89.5037	-193.65346	-110.65912	-170.05703	-56.9569	-9.76404	0
849	80.55333	-48.8202	-129.37353	-17.08707	104.14976	-89.5037	-94.38572	-196.09447	-108.21811	-167.61602	-54.51589	-9.76404	0
850	80.55333	-53.70222	-134.25555	-14.64606	106.59077	-94.38572	-96.82673	-198.53548	-105.7771	-165.17501	-52.07488	-4.88202	0
851	80.55333	-63.46626	-144.01959	-9.76404	111.47279	-104.14976	-94.38572	-198.53548	-105.7771	-160.29299	-49.63387	-4.88202	0
852	85.43535	-70.78929	-156.22464	-7.32303	118.79582	-113.9138	-94.38572	-200.97649	-105.7771	-160.29299	-47.19286	-2.44101	0
853	78.11232	-82.99434	-161.10666	2.44101	118.79582	-121.23683	-84.62168	-198.53548	-105.7771	-162.734	-47.19286	-4.88202	0
854	68.34828	-97.6404	-165.98868	14.64606	116.35481	-131.00087	-74.85764	-196.09447	-105.7771	-167.61602	-52.07488	-7.32303	0
855	56.14323	-112.28646	-168.42969	27.66478	111.47279	-140.76491	-72.41663	-191.21245	-105.7771	-172.49804	-59.39791	-12.20505	0
856	41.49717	-122.0505	-163.54767	39.86983	101.70875	-143.20592	-67.53461	-186.33043	-105.7771	-177.38006	-64.27993	-17.08707	0
857	26.85111	-126.93252	-153.78363	49.63387	89.5037	-140.76491	-67.53461	-186.33043	-115.54114	-187.1441	-76.48498	-24.4101	0
858	12.20505	-131.81454	-144.01959	59.39791	77.29865	-138.3239	-67.53461	-186.33043	-120.42316	-194.46713	-83.80801	-30.10579	0
859	4.88202	-139.13757	-144.01959	66.72094	72.41663	-140.76491	-67.53461	-186.33043	-120.42316	-199.34915	-91.13104	-34.98781	0
860	-2.44101	-148.90161	-146.4606	74.04397	69.97562	-148.08794	-72.41663	-193.65346	-122.86417	-204.23117	-98.45407	-42.31084	0
861	-4.88202	-156.22464	-151.34262	78.92599	72.41663	-152.96996	-72.41663	-196.09447	-127.74619	-206.67218	-105.7771	-49.63387	0
862	-4.88202	-163.54767	-158.66565	83.80801	74.85764	-160.29299	-72.41663	-203.4175	-137.51023	-211.5542	-113.10013	-59.39791	0
863	-4.88202	-170.8707	-165.98868	86.24902	79.73966	-167.61602	-69.97562	-208.29952	-139.95124	-213.99521	-117.98215	-69.16195	0
864	-9.76404	-178.19373	-168.42969	93.57205	77.29865	-172.49804	-62.65259	-205.85851	-137.51023	-206.67218	-122.86417	-76.48498	0
865	-17.90074	-183.07575	-165.98868	98.45407	72.41663	-174.93905	-57.77057	-200.97649	-137.51023	-199.34915	-125.30518	-86.24902	0
866	-22.78276	-185.51676	-163.54767	103.33609	69.97562	-174.93905	-57.77057	-200.97649	-142.39225	-192.02612	-130.1872	-93.57205	0
867	-27.66478	-180.63474	-153.78363	103.33609	62.65259	-167.61602	-57.77057	-200.97649	-147.27427	-187.1441	-132.62821	-100.89508	0
868	-32.5468	-180.63474	-148.90161	105.7771	57.77057	-165.17501	-57.77057	-200.97649	-149.71528	-182.26208	-135.06922	-105.7771	0
869	-34.98781	-180.63474	-146.4606	105.7771	55.32956	-165.17501	-57.77057	-200.97649	-147.27427	-177.38006	-132.62821	-105.7771	0
870	-37.42882	-185.51676	-148.90161	110.65912	55.32956	-167.61602	-60.21158	-203.4175	-149.71528	-177.38006	-132.62821	-105.7771	0
871	-30.10579	-190.39878	-161.10666	108.21811	65.0936	-177.38006	-65.0936	-210.74053	-152.15629	-174.93905	-130.1872	-100.89508	0
872	-30.10579	-195.2808	-165.98868	110.65912	67.53461	-182.26208	-62.65259	-215.62255	-157.03831	-174.93905	-127.74619	-96.01306	0
873	-30.10579	-202.60383	-173.31171	115.54114	69.97562	-189.58511	-60.21158	-218.06356	-159.47932	-174.93905	-122.86417	-88.69003	0
874	-27.66478	-209.92686	-183.07575	117.98215	77.29865	-196.90814	-60.21158	-218.06356	-157.03831	-174.93905	-117.98215	-81.367	0
875	-30.10579	-212.36787	-183.07575	120.42316	74.85764	-199.34915	-60.21158	-218.06356	-157.03831	-172.49804	-115.54114	-78.92599	0
876	-32.5468	-209.92686	-178.19373	120.42316	72.41663	-194.46713	-60.21158	-215.62255	-159.47932	-170.05703	-113.10013	-74.04397	0
877	-37.42882	-207.48585	-170.8707	120.42316	65.0936	-189.58511	-60.21158	-213.18154	-161.92033	-167.61602	-108.21811	-74.04397	0
878	-37.42882	-205.04484	-168.42969	120.42316	65.0936	-187.1441	-62.65259	-210.74053	-159.47932	-165.17501	-105.7771	-74.04397	0
879	-37.42882	-202.60383	-165.98868	117.98215	62.65259	-184.70309	-62.65259	-205.85851	-152.15629	-162.734	-103.33609	-74.04397	0
880	-39.86983	-202.60383	-163.54767	120.42316	60.21158	-184.70309	-62.65259	-205.85851	-149.71528	-160.29299	-103.33609	-76.48498	0
881	-39.86983	-205.04484	-165.98868	120.42316	62.65259	-187.1441	-57.77057	-208.29952	-147.27427	-155.41097	-103.33609	-78.92599	0
882	-37.42882	-205.04484	-168.42969	120.42316	65.0936	-187.1441	-55.32956	-208.29952	-147.27427	-152.96996	-103.33609	-78.92599	0
883	-32.5468	-205.04484	-173.31171	117.98215	69.97562	-189.58511	-55.32956	-205.85851	-147.27427	-150.52895	-103.33609	-81.367	0
884	-34.98781	-202.60383	-168.42969	117.98215	65.0936	-187.1441	-52.88855	-200.97649	-142.39225	-148.08794	-100.89508	-81.367	0
885	-39.86983	-202.60383	-163.54767	120.42316	60.21158	-184.70309	-50.44754	-196.09447	-139.95124	-148.08794	-103.33609	-81.367	0
886	-44.75185	-202.60383	-158.66565	122.86417	55.32956	-182.26208	-50.44754	-193.65346	-144.83326	-148.08794	-108.21811	-86.24902	0
887	-49.63387	-202.60383	-153.78363	125.30518	50.44754	-179.82107	-55.32956	-191.21245	-147.27427	-148.08794	-110.65912	-86.24902	0
888	-49.63387	-200.16282	-151.34262	122.86417	50.44754	-177.38006	-57.77057	-191.21245	-147.27427	-150.52895	-113.10013	-83.80801	0
889	-54.51589	-202.60383	-148.90161	127.74619	45.56552	-177.38006	-57.77057	-191.21245	-144.83326	-150.52895	-115.54114	-81.367	0
890	-59.39791	-207.48585	-148.90161	132.62821	43.12451	-179.82107	-52.88855	-196.09447	-144.83326	-150.52895	-120.42316	-81.367	0
891	-56.9569	-207.48585	-151.34262	130.1872	45.56552	-179.82107	-50.44754	-203.4175	-144.83326	-148.08794	-122.86417	-81.367	0
892	-54.51589	-207.48585	-153.78363	130.1872	48.00653	-182.26208	-43.12451	-208.29952	-144.83326	-148.08794	-122.86417	-78.92599	0
893	-52.07488	-207.48585	-156.22464	127.74619	50.44754	-182.26208	-40.6835	-208.29952	-142.39225	-145.64693	-120.42316	-78.92599	0
894	-52.07488	-207.48585	-156.22464	127.74619	50.44754	-182.26208	-33.36047	-203.4175	-139.95124	-145.64693	-120.42316	-81.367	0
895	-54.51589	-205.04484	-151.34262	127.74619	48.00653	-179.82107	-30.91946	-198.53548	-137.51023	-140.76491	-117.98215	-81.367	0
896	-54.51589	-202.60383	-148.90161	127.74619	45.56552	-177.38006	-38.24249	-193.65346	-137.51023	-135.88289	-113.10013	-81.367	0
897	-52.07488	-190.39878	-139.13757	120.42316	43.12451	-165.17501	-45.56552	-188.77144	-137.51023	-133.44188	-108.21811	-78.92599	0
898	-49.63387	-185.51676	-136.69656	115.54114	43.12451	-162.734	-50.44754	-188.77144	-137.51023	-133.44188	-103.33609	-78.92599	0
899	-52.07488	-185.51676	-134.25555	117.98215	40.6835	-160.29299	-52.88855	-188.77144	-132.62821	-131.00087	-96.01306	-74.04397	0
900	-49.63387	-185.51676	-136.69656	115.54114	43.12451	-162.734	-55.32956	-191.21245	-127.74619	-123.67784	-91.13104	-69.16195	0
901	-49.63387	-187.95777	-139.13757	117.98215	43.12451	-165.17501	-55.32956	-193.65346	-127.74619	-118.79582	-88.69003	-69.16195	0
902	-49.63387	-192.83979	-144.01959	120.42316	45.56552	-170.05703	-50.44754	-198.53548	-127.74619	-116.35481	-88.69003	-69.16195	0
903	-49.63387	-200.16282	-151.34262	122.86417	50.44754	-177.38006	-43.12451	-198.53548	-130.1872	-116.35481	-91.13104	-71.60296	0
904	-52.07488	-212.36787	-161.10666	130.1872	52.88855	-187.1441	-35.80148	-193.65346	-127.74619	-116.35481	-93.57205	-74.04397	0
905	-56.9569	-217.24989	-161.10666	135.06922	50.44754	-189.58511	-33.36047	-186.33043	-127.74619	-113.9138	-93.57205	-76.48498	0
906	-59.39791	-217.24989	-158.66565	137.51023	48.00653	-189.58511	-33.36047	-181.44841	-130.1872	-113.9138	-96.01306	-78.92599	0
907	-59.39791	-217.24989	-158.66565	137.51023	48.00653	-189.58511	-35.80148	-179.0074	-132.62821	-113.9138	-93.57205	-78.92599	0
908	-59.39791	-217.24989	-158.66565	137.51023	48.00653	-189.58511	-35.80148	-174.12538	-127.74619	-113.9138	-91.13104	-78.92599	0
909	-61.83892	-212.36787	-151.34262	135.06922	43.12451	-182.26208	-35.80148	-174.12538	-122.86417	-116.35481	-88.69003	-78.92599	0
910	-61.83892	-212.36787	-151.34262	135.06922	43.12451	-182.26208	-38.24249	-174.12538	-122.86417	-116.35481	-88.69003	-78.92599	0
911	-56.9569	-209.92686	-153.78363	132.62821	48.00653	-182.26208	-35.80148	-176.56639	-120.42316	-118.79582	-86.24902	-74.04397	0
912	-52.07488	-205.04484	-153.78363	127.74619	50.44754	-179.82107	-30.91946	-176.56639	-120.42316	-121.23683	-86.24902	-71.60296	0
913	-52.07488	-202.60383	-151.34262	125.30518	48.00653	-177.38006	-23.59643	-176.56639	-120.42316	-126.11885	-86.24902	-69.16195	0
914	-47.19286	-197.72181	-151.34262	120.42316	50.44754	-174.93905	-21.15542	-171.68437	-120.42316	-126.11885	-93.57205	-66.72094	0
915	-47.19286	-192.83979	-146.4606	117.98215	48.00653	-170.05703	-21.15542	-166.80235	-117.98215	-126.11885	-96.01306	-64.27993	0
916	-47.19286	-185.51676	-139.13757	115.54114	45.56552	-162.734	-16.2734	-159.47932	-115.54114	-123.67784	-96.01306	-59.39791	0
917	-52.07488	-178.19373	-126.93252	113.10013	35.80148	-152.96996	-16.2734	-152.15629	-115.54114	-123.67784	-98.45407	-59.39791	0
918	-54.51589	-173.31171	-119.60949	113.10013	30.91946	-148.08794	-16.2734	-152.15629	-115.54114	-126.11885	-103.33609	-64.27993	0
919	-54.51589	-170.8707	-117.16848	110.65912	30.91946	-145.64693	-18.71441	-152.15629	-113.10013	-128.55986	-108.21811	-66.72094	0
920	-54.51589	-170.8707	-117.16848	110.65912	30.91946	-145.64693	-18.71441	-154.5973	-110.65912	-128.55986	-110.65912	-71.60296	0
921	-56.9569	-175.75272	-119.60949	115.54114	30.91946	-148.08794	-18.71441	-159.47932	-117.98215	-131.00087	-113.10013	-76.48498	0
922	-56.9569	-183.07575	-126.93252	117.98215	33.36047	-155.41097	-11.39138	-161.92033	-125.30518	-138.3239	-117.98215	-83.80801	0
923	-64.27993	-192.83979	-129.37353	127.74619	30.91946	-162.734	0.81367	-161.92033	-132.62821	-148.08794	-127.74619	-93.57205	0
924	-76.48498	-209.92686	-134.25555	142.39225	28.47845	-172.49804	25.22377	-149.71528	-139.95124	-157.85198	-144.83326	-115.54114	0
925	-100.89508	-236.77797	-136.69656	166.80235	16.2734	-187.1441	48.00653	-137.51023	-154.5973	-172.49804	-169.24336	-142.39225	0
926	-127.74619	-268.5111	-141.57858	196.09447	6.50936	-206.67218	77.29865	-127.74619	-176.56639	-192.02612	-203.4175	-179.0074	0
927	-154.5973	-302.68524	-148.90161	227.8276	-3.25468	-226.20026	109.03178	-110.65912	-193.65346	-206.67218	-237.59164	-215.62255	0
928	-171.68437	-334.41837	-163.54767	252.2377	-6.50936	-250.61036	138.3239	-86.24902	-200.97649	-216.43622	-271.76578	-252.2377	0
929	-181.44841	-371.03352	-190.39878	274.20679	4.06835	-282.34349	165.17501	-54.51589	-193.65346	-218.87723	-305.93992	-283.97083	0
930	-179.0074	-410.08968	-231.89595	293.73487	26.03744	-321.39965	196.90814	-5.69569	-166.80235	-204.23117	-325.468	-305.93992	0
931	-161.92033	-439.3818	-278.27514	298.61689	57.77057	-360.45581	226.20026	65.90727	-110.65912	-160.29299	-323.02699	-308.38093	0
932	-122.86417	-451.58685	-329.53635	286.41184	101.70875	-392.18894	260.3744	161.10666	-21.96909	-94.38572	-296.17588	-291.29386	0
933	-71.60296	-454.02786	-383.23857	262.00174	155.41097	-419.04005	292.10753	275.83413	102.52242	-0.81367	-242.47366	-254.67871	0
934	-2.44101	-449.14584	-446.70483	225.38659	221.31824	-448.33217	326.28167	400.32564	251.42403	113.9138	-171.68437	-205.85851	0
935	80.55333	-429.61776	-510.17109	174.12538	294.54854	-470.30126	343.36874	515.05311	414.9717	255.49238	-74.04397	-137.51023	0
936	178.19373	-388.12059	-566.31432	103.33609	370.21985	-477.62429	343.36874	610.2525	593.16543	421.48106	51.26121	-49.63387	0
937	292.9212	-319.77231	-612.69351	12.20505	450.77318	-465.41924	326.28167	681.04179	776.24118	604.55681	200.16282	58.58424	0
938	419.85372	-229.45494	-649.30866	-95.19939	533.76752	-438.56813	299.43056	729.86199	971.52198	807.16064	373.47453	183.07575	0
939	551.66826	-122.0505	-673.71876	-214.80888	611.87984	-397.07096	257.93339	759.15411	1174.12581	1029.29255	563.87331	322.21332	0
940	685.92381	8.1367	-678.60078	-346.62342	682.66913	-336.04571	192.02612	756.7131	1362.08358	1256.30648	766.47714	475.99695	0
941	805.5333	159.47932	-646.86765	-483.31998	726.60731	-243.28733	101.70875	712.77492	1523.19024	1473.55637	971.52198	637.10361	0
942	878.7636	327.90901	-551.66826	-602.92947	714.40226	-111.47279	8.1367	627.33957	1641.98606	1668.0235	1171.6848	798.21027	0
943	915.37875	503.66173	-412.53069	-710.33391	663.14105	45.56552	-96.82673	515.05311	1720.09838	1831.57117	1352.31954	951.9939	0
944	920.26077	674.53243	-246.54201	-798.21027	582.58772	213.99521	-216.43622	373.47453	1746.94949	1946.29864	1498.78014	1091.13147	0
945	883.64562	808.78798	-75.67131	-847.03047	480.0653	367.77884	-340.92773	200.16282	1690.80626	1970.70874	1576.89246	1186.33086	0
946	815.29734	901.54636	86.24902	-859.23552	365.33783	494.71136	-472.74227	-13.01872	1542.71832	1892.59642	1574.45145	1230.26904	0
947	712.77492	960.1306	247.35568	-837.26643	233.52329	604.55681	-589.91075	-252.2377	1296.17631	1711.96168	1496.33913	1220.505	0
948	598.04745	977.21767	379.17022	-788.44623	109.03178	677.78711	-685.11014	-496.3387	983.72703	1451.58728	1347.43752	1159.47975	0
949	490.64301	960.1306	469.48759	-724.97997	11.39138	714.40226	-768.10448	-740.4397	622.45755	1126.93295	1147.2747	1059.39834	0
950	373.47453	901.54636	528.07183	-637.10361	-77.29865	714.40226	-831.57074	-974.77666	234.33696	763.22246	908.05572	922.70178	0
951	258.74706	823.43404	564.68698	-541.90422	-152.96996	694.87418	-873.06791	-1182.26251	-147.27427	406.835	661.51371	773.80017	0
