samplenr	I	II	III	aVR	aVL	aVF	V1	V2	V3	V4	V5	V6	measurement
0	8.1367	-113.10013	-122.0505	52.07488	65.0936	-117.16848	142.39225	94.38572	30.91946	-3.25468	-537.83587	-8.1367	0
1	8.1367	-108.21811	-117.16848	49.63387	62.65259	-112.28646	144.83326	99.26774	33.36047	-0.81367	-535.39486	-5.69569	0
2	-2.44101	-105.7771	-104.96343	52.07488	50.44754	-104.96343	147.27427	99.26774	35.80148	-0.81367	-530.51284	-5.69569	0
3	-2.44101	-103.33609	-102.52242	52.07488	50.44754	-102.52242	144.83326	96.82673	35.80148	-0.81367	-532.95385	-5.69569	0
4	-2.44101	-113.10013	-112.28646	56.9569	55.32956	-112.28646	142.39225	94.38572	33.36047	-0.81367	-537.83587	-5.69569	0
5	-9.76404	-122.86417	-114.72747	64.27993	52.88855	-119.60949	137.51023	96.82673	30.91946	-0.81367	-545.1589	-5.69569	0
6	-9.76404	-125.30518	-117.16848	66.72094	52.88855	-122.0505	132.62821	94.38572	28.47845	-0.81367	-550.04092	-5.69569	0
7	-17.08707	-132.62821	-117.16848	74.04397	50.44754	-124.49151	130.1872	96.82673	23.59643	-0.81367	-552.48193	-3.25468	0
8	-19.52808	-142.39225	-124.49151	78.92599	52.88855	-134.25555	122.86417	91.94471	21.15542	-3.25468	-562.24597	-3.25468	0
9	-14.64606	-152.15629	-139.13757	81.367	62.65259	-146.4606	117.98215	89.5037	18.71441	-3.25468	-569.569	-5.69569	0
10	-19.52808	-161.92033	-144.01959	88.69003	62.65259	-153.78363	113.10013	84.62168	15.45973	-5.69569	-574.45102	-10.57771	0
11	-14.64606	-161.92033	-148.90161	86.24902	67.53461	-156.22464	108.21811	79.73966	15.45973	-10.57771	-579.33304	-17.90074	0
12	-17.08707	-166.80235	-151.34262	91.13104	67.53461	-158.66565	103.33609	77.29865	15.45973	-15.45973	-586.65607	-25.22377	0
13	-14.64606	-164.36134	-151.34262	88.69003	67.53461	-158.66565	103.33609	77.29865	15.45973	-15.45973	-586.65607	-25.22377	0
14	-9.76404	-154.5973	-146.4606	81.367	67.53461	-151.34262	100.89508	77.29865	18.71441	-15.45973	-586.65607	-27.66478	0
15	-2.44101	-147.27427	-146.4606	74.04397	72.41663	-146.4606	100.89508	84.62168	21.15542	-10.57771	-586.65607	-17.90074	0
16	3.25468	-130.1872	-134.25555	61.83892	67.53461	-131.81454	103.33609	89.5037	26.03744	-3.25468	-586.65607	-10.57771	0
17	13.01872	-120.42316	-134.25555	52.07488	72.41663	-126.93252	103.33609	94.38572	26.03744	-3.25468	-589.09708	-5.69569	0
18	15.45973	-113.10013	-129.37353	47.19286	72.41663	-119.60949	100.89508	94.38572	26.03744	-0.81367	-591.53809	-0.81367	0
19	27.66478	-103.33609	-131.81454	37.42882	79.73966	-117.16848	103.33609	94.38572	28.47845	2.44101	-591.53809	2.44101	0
20	42.31084	-96.01306	-139.13757	25.22377	89.5037	-117.16848	103.33609	94.38572	30.91946	4.88202	-591.53809	4.88202	0
21	49.63387	-91.13104	-141.57858	20.34175	94.38572	-114.72747	103.33609	94.38572	33.36047	4.88202	-591.53809	7.32303	0
22	34.98781	-98.45407	-134.25555	30.10579	84.62168	-114.72747	96.01306	89.5037	30.91946	-0.81367	-596.42011	-0.81367	0
23	17.90074	-108.21811	-126.93252	44.75185	72.41663	-117.16848	93.57205	84.62168	28.47845	-3.25468	-598.86112	-3.25468	0
24	8.1367	-113.10013	-122.0505	52.07488	65.0936	-117.16848	83.80801	77.29865	23.59643	-8.1367	-606.18415	-10.57771	0
25	8.1367	-108.21811	-117.16848	49.63387	62.65259	-112.28646	74.04397	72.41663	15.45973	-17.90074	-620.83021	-17.90074	0
26	3.25468	-122.86417	-126.93252	59.39791	65.0936	-124.49151	69.16195	69.97562	13.01872	-20.34175	-628.15324	-20.34175	0
27	-2.44101	-137.51023	-136.69656	69.16195	67.53461	-136.69656	66.72094	67.53461	5.69569	-25.22377	-637.91728	-25.22377	0
28	-2.44101	-137.51023	-136.69656	69.16195	67.53461	-136.69656	61.83892	67.53461	3.25468	-22.78276	-642.7993	-25.22377	0
29	-2.44101	-139.95124	-139.13757	69.16195	67.53461	-139.13757	64.27993	69.97562	8.1367	-17.90074	-640.35829	-20.34175	0
30	-2.44101	-135.06922	-134.25555	66.72094	65.0936	-134.25555	71.60296	74.85764	15.45973	-10.57771	-633.03526	-8.1367	0
31	-9.76404	-135.06922	-126.93252	71.60296	57.77057	-131.81454	76.48498	82.18067	23.59643	-0.81367	-625.71223	2.44101	0
32	-12.20505	-137.51023	-126.93252	74.04397	57.77057	-131.81454	78.92599	82.18067	28.47845	-0.81367	-623.27122	2.44101	0
33	-17.08707	-132.62821	-117.16848	74.04397	50.44754	-124.49151	76.48498	82.18067	28.47845	-0.81367	-623.27122	-0.81367	0
34	-29.29212	-144.83326	-117.16848	86.24902	43.12451	-131.81454	74.04397	82.18067	26.03744	-0.81367	-625.71223	-0.81367	0
35	-43.93818	-154.5973	-112.28646	98.45407	33.36047	-134.25555	64.27993	77.29865	21.15542	-5.69569	-637.91728	-3.25468	0
36	-48.8202	-169.24336	-122.0505	108.21811	35.80148	-146.4606	52.07488	67.53461	10.57771	-17.90074	-657.44536	-17.90074	0
37	-51.26121	-183.88942	-134.25555	115.54114	40.6835	-158.66565	39.86983	62.65259	0.81367	-25.22377	-669.65041	-30.10579	0
38	-53.70222	-191.21245	-139.13757	120.42316	43.12451	-165.98868	34.98781	60.21158	-6.50936	-27.66478	-681.85546	-32.5468	0
39	-56.14323	-186.33043	-131.81454	120.42316	38.24249	-158.66565	37.42882	62.65259	-1.62734	-22.78276	-681.85546	-27.66478	0
40	-53.70222	-174.12538	-122.0505	113.10013	33.36047	-148.90161	42.31084	67.53461	5.69569	-17.90074	-679.41445	-25.22377	0
41	-41.49717	-157.03831	-117.16848	98.45407	38.24249	-136.69656	49.63387	72.41663	15.45973	-15.45973	-676.97344	-22.78276	0
42	-14.64606	-137.51023	-124.49151	74.04397	55.32956	-131.81454	54.51589	77.29865	21.15542	-10.57771	-674.53243	-20.34175	0
43	-4.88202	-122.86417	-119.60949	61.83892	57.77057	-122.0505	64.27993	82.18067	28.47845	-5.69569	-667.2094	-13.01872	0
44	-9.76404	-122.86417	-114.72747	64.27993	52.88855	-119.60949	66.72094	84.62168	30.91946	-5.69569	-667.2094	-13.01872	0
45	-24.4101	-132.62821	-109.84545	76.48498	43.12451	-122.0505	66.72094	84.62168	30.91946	-8.1367	-674.53243	-15.45973	0
46	-24.4101	-127.74619	-104.96343	74.04397	40.6835	-117.16848	66.72094	87.06269	30.91946	-8.1367	-681.85546	-17.90074	0
47	-14.64606	-117.98215	-104.96343	64.27993	45.56552	-112.28646	69.16195	94.38572	30.91946	-8.1367	-686.73748	-17.90074	0
48	-7.32303	-115.54114	-109.84545	59.39791	50.44754	-112.28646	71.60296	99.26774	33.36047	-5.69569	-694.06051	-13.01872	0
49	-2.44101	-108.21811	-107.40444	54.51589	52.88855	-107.40444	76.48498	104.14976	40.6835	-0.81367	-696.50152	-8.1367	0
50	15.45973	-91.13104	-107.40444	37.42882	60.21158	-97.6404	83.80801	111.47279	48.00653	2.44101	-696.50152	-5.69569	0
51	39.86983	-71.60296	-112.28646	15.45973	74.85764	-90.31737	93.57205	118.79582	60.21158	7.32303	-691.6195	-0.81367	0
52	54.51589	-61.83892	-117.16848	2.44101	84.62168	-87.87636	96.01306	121.23683	65.0936	9.76404	-689.17849	-0.81367	0
53	49.63387	-64.27993	-114.72747	7.32303	82.18067	-87.87636	98.45407	121.23683	67.53461	7.32303	-694.06051	-3.25468	0
54	47.19286	-59.39791	-107.40444	4.88202	77.29865	-82.99434	96.01306	126.11885	69.97562	7.32303	-696.50152	-5.69569	0
55	42.31084	-61.83892	-104.96343	7.32303	72.41663	-82.99434	96.01306	128.55986	69.97562	7.32303	-701.38354	-8.1367	0
56	32.5468	-74.04397	-107.40444	20.34175	69.97562	-90.31737	93.57205	131.00087	67.53461	4.88202	-706.26556	-8.1367	0
57	27.66478	-78.92599	-107.40444	25.22377	67.53461	-92.75838	88.69003	131.00087	62.65259	4.88202	-713.58859	-10.57771	0
58	22.78276	-83.80801	-107.40444	30.10579	65.0936	-95.19939	83.80801	128.55986	60.21158	4.88202	-720.91162	-10.57771	0
59	13.01872	-88.69003	-102.52242	37.42882	57.77057	-95.19939	83.80801	128.55986	60.21158	9.76404	-720.91162	-5.69569	0
60	8.1367	-98.45407	-107.40444	44.75185	57.77057	-102.52242	74.04397	118.79582	52.88855	7.32303	-723.35263	-8.1367	0
61	-2.44101	-117.98215	-117.16848	59.39791	57.77057	-117.16848	64.27993	106.59077	45.56552	2.44101	-728.23465	-10.57771	0
62	-2.44101	-130.1872	-129.37353	64.27993	62.65259	-129.37353	54.51589	99.26774	40.6835	2.44101	-728.23465	-10.57771	0
63	-9.76404	-132.62821	-124.49151	69.16195	57.77057	-129.37353	49.63387	96.82673	40.6835	7.32303	-723.35263	-3.25468	0
64	-12.20505	-132.62821	-122.0505	71.60296	55.32956	-126.93252	42.31084	91.94471	35.80148	7.32303	-720.91162	-0.81367	0
65	-9.76404	-139.95124	-131.81454	74.04397	60.21158	-136.69656	30.10579	84.62168	26.03744	2.44101	-733.11667	-3.25468	0
66	-12.20505	-149.71528	-139.13757	78.92599	62.65259	-144.01959	22.78276	79.73966	18.71441	-0.81367	-740.4397	-3.25468	0
67	-14.64606	-157.03831	-144.01959	83.80801	65.0936	-151.34262	19.52808	82.18067	15.45973	2.44101	-740.4397	-0.81367	0
68	-14.64606	-147.27427	-134.25555	78.92599	60.21158	-141.57858	14.64606	77.29865	10.57771	2.44101	-750.20374	-3.25468	0
69	-14.64606	-147.27427	-134.25555	78.92599	60.21158	-141.57858	9.76404	72.41663	5.69569	-0.81367	-755.08576	-3.25468	0
70	-7.32303	-152.15629	-146.4606	78.92599	69.97562	-148.90161	4.88202	67.53461	3.25468	-0.81367	-759.96778	-5.69569	0
71	-2.44101	-147.27427	-146.4606	74.04397	72.41663	-146.4606	4.88202	69.97562	5.69569	-0.81367	-757.52677	-5.69569	0
72	-2.44101	-142.39225	-141.57858	71.60296	69.97562	-141.57858	4.88202	67.53461	8.1367	2.44101	-757.52677	-3.25468	0
73	-2.44101	-144.83326	-144.01959	71.60296	69.97562	-144.01959	4.88202	67.53461	10.57771	2.44101	-759.96778	-0.81367	0
74	-2.44101	-144.83326	-144.01959	71.60296	69.97562	-144.01959	4.88202	72.41663	13.01872	4.88202	-759.96778	2.44101	0
75	-2.44101	-147.27427	-146.4606	74.04397	72.41663	-146.4606	4.88202	74.85764	13.01872	7.32303	-762.40879	4.88202	0
76	-2.44101	-142.39225	-141.57858	71.60296	69.97562	-141.57858	4.88202	79.73966	13.01872	9.76404	-767.29081	4.88202	0
77	-4.88202	-147.27427	-144.01959	74.04397	69.97562	-146.4606	4.88202	79.73966	10.57771	4.88202	-777.05485	2.44101	0
78	-4.88202	-147.27427	-144.01959	74.04397	69.97562	-146.4606	0	79.73966	8.1367	2.44101	-789.2599	-3.25468	0
79	-4.88202	-149.71528	-146.4606	76.48498	69.97562	-148.90161	0	77.29865	8.1367	-0.81367	-796.58293	-8.1367	0
80	-4.88202	-157.03831	-153.78363	78.92599	74.85764	-156.22464	0	72.41663	3.25468	-5.69569	-801.46495	-13.01872	0
81	-7.32303	-159.47932	-153.78363	81.367	72.41663	-156.22464	-2.44101	69.97562	5.69569	-8.1367	-806.34697	-15.45973	0
82	-4.88202	-159.47932	-156.22464	81.367	74.85764	-158.66565	-2.44101	67.53461	5.69569	-10.57771	-813.67	-20.34175	0
83	-2.44101	-159.47932	-158.66565	78.92599	77.29865	-158.66565	-4.88202	67.53461	5.69569	-13.01872	-818.55202	-22.78276	0
84	-7.32303	-169.24336	-163.54767	86.24902	77.29865	-165.98868	-4.88202	65.0936	5.69569	-13.01872	-820.99303	-22.78276	0
85	-2.44101	-161.92033	-161.10666	81.367	79.73966	-161.10666	-7.32303	69.97562	10.57771	-8.1367	-823.43404	-17.90074	0
86	3.25468	-142.39225	-146.4606	69.16195	74.85764	-144.01959	-7.32303	77.29865	15.45973	-3.25468	-823.43404	-10.57771	0
87	10.57771	-132.62821	-144.01959	59.39791	77.29865	-136.69656	-4.88202	82.18067	15.45973	-0.81367	-825.87505	-10.57771	0
88	8.1367	-132.62821	-141.57858	61.83892	74.85764	-136.69656	-7.32303	82.18067	15.45973	-0.81367	-830.75707	-10.57771	0
89	0.81367	-139.95124	-141.57858	69.16195	69.97562	-139.13757	-9.76404	82.18067	15.45973	2.44101	-833.19808	-10.57771	0
90	-2.44101	-139.95124	-139.13757	69.16195	67.53461	-139.13757	-9.76404	79.73966	15.45973	4.88202	-833.19808	-5.69569	0
91	-2.44101	-139.95124	-139.13757	69.16195	67.53461	-139.13757	-12.20505	77.29865	15.45973	2.44101	-838.0801	-8.1367	0
92	-2.44101	-149.71528	-148.90161	74.04397	72.41663	-148.90161	-17.08707	69.97562	10.57771	-3.25468	-845.40313	-15.45973	0
93	-2.44101	-161.92033	-161.10666	81.367	79.73966	-161.10666	-17.08707	67.53461	8.1367	-3.25468	-852.72616	-20.34175	0
94	-2.44101	-159.47932	-158.66565	78.92599	77.29865	-158.66565	-19.52808	69.97562	10.57771	-3.25468	-852.72616	-15.45973	0
95	-12.20505	-159.47932	-148.90161	83.80801	67.53461	-153.78363	-19.52808	69.97562	10.57771	-8.1367	-860.04919	-15.45973	0
96	-36.61515	-171.68437	-136.69656	103.33609	50.44754	-153.78363	-26.85111	65.0936	3.25468	-13.01872	-872.25424	-20.34175	0
97	-48.8202	-176.56639	-129.37353	110.65912	40.6835	-153.78363	-29.29212	65.0936	-1.62734	-17.90074	-879.57727	-22.78276	0
98	-51.26121	-181.44841	-131.81454	115.54114	40.6835	-156.22464	-29.29212	67.53461	0.81367	-13.01872	-882.01828	-13.01872	0
99	-51.26121	-174.12538	-124.49151	110.65912	35.80148	-148.90161	-21.96909	74.85764	5.69569	-5.69569	-879.57727	-3.25468	0
100	-48.8202	-164.36134	-117.16848	105.7771	33.36047	-141.57858	-17.08707	74.85764	8.1367	-3.25468	-879.57727	-0.81367	1000	P+0
101	-46.37919	-157.03831	-112.28646	100.89508	33.36047	-134.25555	-19.52808	74.85764	10.57771	-3.25468	-879.57727	-0.81367	0
102	-21.96909	-137.51023	-117.16848	78.92599	48.00653	-126.93252	-12.20505	79.73966	15.45973	-0.81367	-879.57727	-0.81367	0
103	3.25468	-120.42316	-124.49151	56.9569	62.65259	-122.0505	-7.32303	84.62168	21.15542	2.44101	-882.01828	-0.81367	0
104	8.1367	-120.42316	-129.37353	54.51589	67.53461	-124.49151	-4.88202	87.06269	26.03744	7.32303	-882.01828	2.44101	0
105	10.57771	-120.42316	-131.81454	54.51589	69.97562	-124.49151	-9.76404	84.62168	21.15542	-0.81367	-894.22333	-3.25468	0
106	15.45973	-117.98215	-134.25555	49.63387	74.85764	-124.49151	-19.52808	79.73966	15.45973	-3.25468	-906.42838	-10.57771	0
107	15.45973	-127.74619	-144.01959	54.51589	79.73966	-134.25555	-24.4101	74.85764	8.1367	-13.01872	-921.07444	-20.34175	0
108	13.01872	-139.95124	-153.78363	61.83892	82.18067	-146.4606	-31.73313	69.97562	0.81367	-17.90074	-933.27949	-25.22377	0
109	5.69569	-147.27427	-153.78363	69.16195	79.73966	-148.90161	-29.29212	72.41663	3.25468	-17.90074	-938.16151	-25.22377	0
110	8.1367	-147.27427	-156.22464	69.16195	82.18067	-151.34262	-17.08707	79.73966	10.57771	-22.78276	-943.04353	-30.10579	0
111	5.69569	-149.71528	-156.22464	71.60296	79.73966	-151.34262	2.44101	96.82673	26.03744	-27.66478	-947.92555	-34.98781	0
112	-7.32303	-157.03831	-151.34262	81.367	72.41663	-153.78363	30.10579	121.23683	50.44754	-30.10579	-955.24858	-39.86983	0
113	-7.32303	-152.15629	-146.4606	78.92599	69.97562	-148.90161	69.16195	157.85198	84.62168	-27.66478	-955.24858	-39.86983	0
114	0.81367	-137.51023	-139.13757	66.72094	69.97562	-136.69656	110.65912	201.79016	133.44188	-25.22377	-955.24858	-42.31084	0
115	0.81367	-125.30518	-126.93252	61.83892	62.65259	-124.49151	144.83326	245.72834	187.1441	-22.78276	-965.01262	-49.63387	0
116	0.81367	-105.7771	-107.40444	52.07488	52.88855	-104.96343	161.92033	279.90248	240.84632	-17.90074	-969.89464	-56.9569	0
117	-9.76404	-76.48498	-68.34828	42.31084	28.47845	-73.2303	149.71528	299.43056	294.54854	-5.69569	-972.33565	-56.9569	0
118	5.69569	-30.10579	-36.61515	10.57771	21.15542	-31.73313	100.89508	292.10753	338.48672	7.32303	-972.33565	-52.07488	0
119	20.34175	9.76404	-11.39138	-14.64606	16.2734	0.81367	22.78276	270.13844	379.98389	19.52808	-972.33565	-49.63387	0
120	30.10579	56.14323	25.22377	-43.93818	3.25468	42.31084	-85.43535	231.08228	419.04005	31.73313	-969.89464	-47.19286	0
121	52.07488	124.49151	71.60296	-87.87636	-8.95037	98.45407	-212.36787	182.26208	458.09621	56.14323	-955.24858	-37.42882	0
122	81.367	202.60383	120.42316	-141.57858	-18.71441	161.92033	-358.82847	118.79582	489.82934	82.99434	-940.60252	-25.22377	0
123	117.98215	273.39312	154.5973	-195.2808	-18.71441	215.62255	-505.28907	52.88855	516.68045	114.72747	-925.95646	-15.45973	0
124	154.5973	349.06443	193.65346	-251.42403	-18.71441	271.76578	-661.51371	-23.59643	531.32651	146.4606	-908.86939	-0.81367	0
125	183.88942	439.3818	254.67871	-312.44928	-35.80148	347.43709	-822.62037	-113.9138	526.44449	180.63474	-894.22333	9.76404	0
126	220.50457	546.78624	325.468	-383.23857	-52.88855	437.75446	-978.84501	-211.5542	502.03439	222.13191	-877.13626	29.29212	0
127	257.11972	656.63169	398.6983	-456.46887	-69.97562	528.07183	-1127.74662	-318.95864	450.77318	268.5111	-850.28515	53.70222	0
128	288.85285	754.27209	464.60557	-522.37614	-87.06269	611.06617	-1274.20722	-436.12712	372.66086	310.00827	-830.75707	78.11232	0
129	308.38093	832.38441	523.18981	-571.19634	-106.59077	679.41445	-1413.34479	-567.94166	265.25642	341.7414	-811.22899	104.96343	0
130	315.70396	898.29168	581.77405	-607.81149	-133.44188	740.4397	-1535.39529	-702.19721	128.55986	368.59251	-786.81889	129.37353	0
131	313.26295	944.67087	630.59425	-629.78058	-157.85198	789.2599	-1628.15367	-826.68872	-18.71441	400.32564	-752.64475	165.98868	0
132	303.49891	966.63996	662.32738	-634.6626	-179.82107	816.11101	-1691.61993	-943.8572	-189.58511	429.61776	-716.0296	207.48585	0
133	271.76578	937.34784	664.76839	-605.37048	-196.90814	801.46495	-1735.55811	-1061.02568	-384.86591	441.82281	-691.6195	239.21898	0
134	240.03265	893.40966	652.56334	-566.31432	-206.67218	774.61384	-1755.08619	-1161.10709	-572.82368	444.26382	-672.09142	266.07009	0
135	210.74053	844.58946	633.03526	-527.25816	-211.5542	740.4397	-1737.99912	-1227.01436	-741.25337	444.26382	-652.56334	295.36221	0
136	179.0074	790.88724	611.06617	-485.76099	-216.43622	701.38354	-1684.2969	-1258.74749	-875.50892	441.82281	-637.91728	322.21332	0
137	142.39225	742.06704	598.86112	-441.82281	-228.64127	672.09142	-1606.18458	-1261.1885	-973.14932	434.49978	-628.15324	346.62342	0
138	113.10013	685.92381	572.01001	-400.32564	-228.64127	630.59425	-1515.86721	-1239.21941	-1029.29255	414.9717	-633.03526	356.38746	0
139	88.69003	627.33957	537.83587	-358.82847	-223.75925	584.21506	-1406.02176	-1185.51719	-1034.17457	390.5616	-645.24031	353.94645	0
140	66.72094	576.07836	508.54375	-322.21332	-221.31824	542.71789	-1279.08924	-1100.08184	-995.11841	368.59251	-652.56334	351.50544	0
141	42.31084	527.25816	484.13365	-285.59817	-221.31824	506.10274	-1152.15672	-1004.88245	-926.77013	346.62342	-662.32738	344.18241	0
142	27.66478	495.52503	467.04658	-261.18807	-218.87723	481.69264	-1025.2242	-895.037	-838.89377	327.09534	-672.09142	334.41837	0
143	25.22377	456.46887	430.43143	-241.65999	-201.79016	445.07749	-900.73269	-787.63256	-746.13539	307.56726	-681.85546	324.65433	0
144	22.78276	400.32564	376.72921	-212.36787	-177.38006	388.93426	-798.21027	-692.43317	-665.58206	278.27514	-703.82455	300.24423	0
145	15.45973	346.62342	330.35002	-180.63474	-157.85198	340.11406	-698.12886	-597.23378	-582.58772	256.30605	-723.35263	280.71615	0
146	15.45973	300.24423	283.97083	-158.66565	-133.44188	293.73487	-605.37048	-511.79843	-511.79843	234.33696	-740.4397	263.62908	0
147	17.90074	256.30605	237.59164	-136.69656	-109.03178	247.35568	-529.69917	-443.45015	-458.09621	207.48585	-762.40879	239.21898	0
148	8.1367	202.60383	193.65346	-104.96343	-91.94471	198.53548	-473.55594	-394.62995	-419.04005	180.63474	-791.70091	214.80888	0
149	-2.44101	144.01959	144.83326	-70.78929	-72.41663	144.83326	-427.17675	-358.0148	-389.74793	151.34262	-818.55202	183.07575	0
150	-17.08707	102.52242	117.98215	-43.93818	-67.53461	110.65912	-383.23857	-318.95864	-358.0148	126.93252	-838.0801	158.66565	0
151	-21.96909	70.78929	91.13104	-24.4101	-55.32956	81.367	-339.30039	-282.34349	-323.84066	107.40444	-850.28515	141.57858	0
152	-26.85111	36.61515	61.83892	-4.88202	-43.12451	49.63387	-300.24423	-248.16935	-292.10753	95.19939	-862.4902	124.49151	0
153	-34.17414	14.64606	47.19286	7.32303	-40.6835	30.10579	-268.5111	-218.87723	-270.13844	80.55333	-874.69525	104.96343	0
154	-29.29212	-4.88202	22.78276	15.45973	-26.03744	8.1367	-241.65999	-194.46713	-250.61036	70.78929	-879.57727	92.75838	0
155	-24.4101	-20.34175	3.25468	20.34175	-13.83239	-8.95037	-219.6909	-172.49804	-233.52329	61.02525	-889.34131	78.11232	0
156	-14.64606	-27.66478	-14.64606	20.34175	-1.62734	-21.96909	-200.16282	-152.96996	-216.43622	51.26121	-899.10535	65.90727	0
157	-14.64606	-39.86983	-26.85111	25.22377	5.69569	-34.17414	-178.19373	-131.00087	-201.79016	46.37919	-901.54636	58.58424	0
158	-21.96909	-42.31084	-21.96909	30.10579	-1.62734	-31.73313	-163.54767	-116.35481	-189.58511	39.05616	-908.86939	51.26121	0
159	-29.29212	-47.19286	-19.52808	37.42882	-6.50936	-34.17414	-153.78363	-106.59077	-179.82107	31.73313	-911.3104	41.49717	0
160	-41.49717	-59.39791	-19.52808	49.63387	-11.39138	-39.05616	-139.13757	-99.26774	-167.61602	24.4101	-911.3104	31.73313	0
161	-56.14323	-66.72094	-11.39138	59.39791	-23.59643	-39.05616	-131.81454	-91.94471	-155.41097	17.08707	-908.86939	26.85111	0
162	-63.46626	-64.27993	-1.62734	61.83892	-30.91946	-34.17414	-119.60949	-82.18067	-143.20592	17.08707	-906.42838	24.4101	0
163	-58.58424	-54.51589	3.25468	54.51589	-30.91946	-26.85111	-109.84545	-74.85764	-133.44188	17.08707	-899.10535	24.4101	0
164	-39.05616	-37.42882	0.81367	37.42882	-21.15542	-19.52808	-104.96343	-69.97562	-128.55986	17.08707	-886.9003	24.4101	0
165	-26.85111	-20.34175	5.69569	22.78276	-16.2734	-6.50936	-102.52242	-65.0936	-123.67784	19.52808	-877.13626	24.4101	0
166	-12.20505	-2.44101	8.1367	7.32303	-8.95037	3.25468	-102.52242	-60.21158	-121.23683	19.52808	-864.93121	24.4101	0
167	-2.44101	9.76404	10.57771	-4.88202	-6.50936	10.57771	-104.96343	-60.21158	-123.67784	19.52808	-855.16717	19.52808	0
168	8.1367	14.64606	5.69569	-12.20505	0.81367	10.57771	-109.84545	-65.0936	-128.55986	14.64606	-845.40313	17.08707	0
169	5.69569	19.52808	13.01872	-12.20505	-4.06835	17.90074	-112.28646	-69.97562	-128.55986	14.64606	-830.75707	14.64606	0
170	-9.76404	17.08707	25.22377	-4.88202	-16.2734	20.34175	-114.72747	-74.85764	-131.00087	9.76404	-818.55202	7.32303	0
171	-29.29212	4.88202	32.5468	10.57771	-30.91946	17.90074	-122.0505	-82.18067	-133.44188	2.44101	-808.78798	-0.81367	0
172	-48.8202	-9.76404	37.42882	27.66478	-43.12451	13.01872	-122.0505	-82.18067	-131.00087	2.44101	-794.14192	2.44101	0
173	-65.90727	-15.45973	49.63387	39.86983	-57.77057	17.90074	-119.60949	-79.73966	-126.11885	4.88202	-779.49586	7.32303	0
174	-73.2303	-12.20505	59.39791	42.31084	-65.0936	22.78276	-119.60949	-74.85764	-121.23683	7.32303	-764.8498	14.64606	0
175	-78.11232	-9.76404	66.72094	42.31084	-72.41663	27.66478	-124.49151	-74.85764	-121.23683	4.88202	-759.96778	14.64606	0
176	-78.11232	-9.76404	66.72094	42.31084	-72.41663	27.66478	-126.93252	-69.97562	-116.35481	4.88202	-750.20374	14.64606	0
177	-73.2303	-12.20505	59.39791	42.31084	-65.0936	22.78276	-129.37353	-62.65259	-113.9138	7.32303	-740.4397	17.08707	0
178	-65.90727	-4.88202	59.39791	34.98781	-62.65259	27.66478	-131.81454	-60.21158	-109.03178	9.76404	-730.67566	21.96909	0
179	-43.93818	9.76404	52.07488	15.45973	-48.00653	30.10579	-139.13757	-65.0936	-109.03178	7.32303	-723.35263	19.52808	0
180	-31.73313	17.08707	47.19286	7.32303	-38.24249	32.5468	-148.90161	-72.41663	-113.9138	-0.81367	-718.47061	12.20505	0
181	-34.17414	0	32.5468	15.45973	-33.36047	15.45973	-151.34262	-69.97562	-106.59077	2.44101	-701.38354	14.64606	0
182	-36.61515	-9.76404	25.22377	22.78276	-30.91946	8.1367	-153.78363	-72.41663	-104.14976	2.44101	-689.17849	14.64606	0
183	-36.61515	-7.32303	27.66478	20.34175	-30.91946	10.57771	-153.78363	-69.97562	-99.26774	4.88202	-674.53243	17.08707	0
184	-21.96909	9.76404	30.10579	4.88202	-26.03744	20.34175	-158.66565	-72.41663	-101.70875	4.88202	-662.32738	17.08707	0
185	-14.64606	14.64606	27.66478	0	-21.15542	20.34175	-163.54767	-74.85764	-101.70875	-0.81367	-655.00435	9.76404	0
186	-12.20505	14.64606	25.22377	-2.44101	-18.71441	20.34175	-163.54767	-72.41663	-99.26774	2.44101	-640.35829	9.76404	0
187	-2.44101	39.05616	39.86983	-19.52808	-21.15542	39.86983	-156.22464	-60.21158	-91.94471	14.64606	-613.50718	19.52808	0
188	0.81367	61.02525	59.39791	-31.73313	-28.47845	61.83892	-156.22464	-55.32956	-87.06269	21.96909	-591.53809	24.4101	0
189	5.69569	65.90727	59.39791	-36.61515	-26.03744	64.27993	-153.78363	-57.77057	-87.06269	21.96909	-574.45102	24.4101	0
190	-2.44101	53.70222	54.51589	-26.85111	-28.47845	54.51589	-156.22464	-62.65259	-89.5037	17.08707	-557.36395	19.52808	0
191	-7.32303	51.26121	56.9569	-21.96909	-30.91946	54.51589	-158.66565	-65.0936	-87.06269	17.08707	-530.51284	19.52808	0
192	-7.32303	61.02525	66.72094	-26.85111	-35.80148	64.27993	-156.22464	-65.0936	-84.62168	14.64606	-506.10274	19.52808	0
193	-4.88202	56.14323	59.39791	-26.85111	-30.91946	56.9569	-156.22464	-67.53461	-87.06269	12.20505	-481.69264	19.52808	0
194	-14.64606	43.93818	56.9569	-14.64606	-35.80148	49.63387	-161.10666	-72.41663	-89.5037	7.32303	-457.28254	17.08707	0
195	-21.96909	46.37919	66.72094	-12.20505	-43.12451	56.9569	-163.54767	-69.97562	-89.5037	7.32303	-432.87244	17.08707	0
196	-24.4101	53.70222	76.48498	-14.64606	-50.44754	64.27993	-163.54767	-67.53461	-87.06269	9.76404	-403.58032	17.08707	0
197	-34.17414	51.26121	83.80801	-9.76404	-57.77057	66.72094	-163.54767	-62.65259	-84.62168	9.76404	-376.72921	19.52808	0
198	-53.70222	39.05616	91.13104	7.32303	-72.41663	64.27993	-163.54767	-62.65259	-84.62168	12.20505	-354.76012	26.85111	0
199	-78.11232	26.85111	103.33609	25.22377	-89.5037	64.27993	-163.54767	-65.0936	-82.18067	12.20505	-332.79103	29.29212	0
200	-85.43535	26.85111	110.65912	27.66478	-96.82673	69.16195	-163.54767	-69.97562	-82.18067	9.76404	-310.82194	26.85111	0
201	-73.2303	31.73313	103.33609	20.34175	-87.06269	66.72094	-168.42969	-74.85764	-82.18067	7.32303	-288.85285	24.4101	0
202	-68.34828	39.05616	105.7771	13.01872	-87.06269	71.60296	-168.42969	-74.85764	-79.73966	4.88202	-269.32477	21.96909	0
203	-56.14323	48.8202	103.33609	2.44101	-79.73966	76.48498	-170.8707	-79.73966	-79.73966	2.44101	-249.79669	21.96909	0
204	-41.49717	61.02525	100.89508	-9.76404	-69.97562	81.367	-170.8707	-77.29865	-77.29865	4.88202	-222.94558	24.4101	0
205	-39.05616	70.78929	108.21811	-17.08707	-72.41663	88.69003	-168.42969	-69.97562	-69.97562	12.20505	-198.53548	31.73313	0
206	-34.17414	82.99434	115.54114	-24.4101	-74.85764	98.45407	-163.54767	-65.0936	-65.0936	12.20505	-176.56639	34.17414	0
207	-31.73313	95.19939	125.30518	-31.73313	-77.29865	110.65912	-163.54767	-62.65259	-65.0936	14.64606	-157.03831	34.17414	0
208	-24.4101	104.96343	127.74619	-41.49717	-74.85764	115.54114	-163.54767	-60.21158	-60.21158	19.52808	-137.51023	39.05616	0
209	-9.76404	117.16848	125.30518	-53.70222	-67.53461	120.42316	-158.66565	-60.21158	-52.88855	24.4101	-113.10013	43.93818	0
210	-17.08707	117.16848	132.62821	-51.26121	-74.85764	125.30518	-158.66565	-62.65259	-52.88855	21.96909	-96.01306	43.93818	0
211	-21.96909	109.84545	130.1872	-43.93818	-74.85764	120.42316	-165.98868	-69.97562	-52.88855	17.08707	-76.48498	36.61515	0
212	-26.85111	97.6404	122.86417	-36.61515	-74.85764	110.65912	-170.8707	-77.29865	-55.32956	12.20505	-59.39791	34.17414	0
213	-31.73313	90.31737	120.42316	-29.29212	-74.85764	105.7771	-173.31171	-82.18067	-55.32956	7.32303	-42.31084	31.73313	0
214	-34.17414	90.31737	122.86417	-29.29212	-77.29865	105.7771	-175.75272	-84.62168	-55.32956	7.32303	-20.34175	29.29212	0
215	-41.49717	90.31737	130.1872	-24.4101	-84.62168	110.65912	-180.63474	-87.06269	-55.32956	7.32303	-3.25468	26.85111	0
216	-43.93818	87.87636	130.1872	-21.96909	-87.06269	108.21811	-180.63474	-84.62168	-52.88855	12.20505	17.08707	26.85111	0
217	-34.17414	100.08141	132.62821	-34.17414	-82.18067	115.54114	-178.19373	-79.73966	-48.00653	14.64606	43.93818	29.29212	0
218	-14.64606	124.49151	137.51023	-56.14323	-74.85764	130.1872	-180.63474	-79.73966	-45.56552	17.08707	65.90727	31.73313	0
219	-2.44101	139.13757	139.95124	-68.34828	-69.97562	139.95124	-185.51676	-82.18067	-43.12451	17.08707	97.6404	31.73313	0
220	0.81367	146.4606	144.83326	-73.2303	-72.41663	147.27427	-187.95777	-87.06269	-43.12451	17.08707	126.93252	31.73313	0
221	5.69569	146.4606	139.95124	-75.67131	-67.53461	144.83326	-192.83979	-94.38572	-43.12451	12.20505	156.22464	29.29212	0
222	0.81367	144.01959	142.39225	-73.2303	-69.97562	144.83326	-200.16282	-99.26774	-43.12451	7.32303	183.07575	29.29212	0
223	-2.44101	148.90161	149.71528	-73.2303	-74.85764	149.71528	-200.16282	-101.70875	-43.12451	9.76404	212.36787	29.29212	0
224	-9.76404	148.90161	157.03831	-70.78929	-82.18067	152.15629	-205.04484	-104.14976	-43.12451	7.32303	241.65999	29.29212	0
225	-12.20505	148.90161	159.47932	-68.34828	-84.62168	154.5973	-209.92686	-104.14976	-43.12451	9.76404	263.62908	29.29212	0
226	-21.96909	151.34262	171.68437	-65.90727	-96.82673	161.92033	-214.80888	-101.70875	-40.6835	9.76404	285.59817	34.17414	0
227	-26.85111	156.22464	181.44841	-65.90727	-104.14976	169.24336	-214.80888	-99.26774	-38.24249	14.64606	307.56726	41.49717	0
228	-34.17414	163.54767	196.09447	-65.90727	-113.9138	179.0074	-219.6909	-101.70875	-35.80148	14.64606	327.09534	46.37919	0
229	-31.73313	175.75272	205.85851	-73.2303	-118.79582	191.21245	-224.57292	-106.59077	-35.80148	17.08707	349.06443	46.37919	0
230	-39.05616	187.95777	225.38659	-75.67131	-131.00087	205.85851	-224.57292	-109.03178	-35.80148	19.52808	371.03352	51.26121	0
231	-48.8202	187.95777	235.15063	-70.78929	-140.76491	210.74053	-227.01393	-113.9138	-33.36047	17.08707	393.00261	51.26121	0
232	-51.26121	192.83979	242.47366	-70.78929	-145.64693	218.06356	-234.33696	-121.23683	-33.36047	14.64606	407.64867	48.8202	0
233	-51.26121	202.60383	252.2377	-75.67131	-150.52895	227.8276	-236.77797	-123.67784	-33.36047	14.64606	424.73574	48.8202	0
234	-48.8202	217.24989	264.44275	-85.43535	-155.41097	240.03265	-239.21898	-126.11885	-33.36047	14.64606	441.82281	48.8202	0
235	-24.4101	244.101	266.88376	-109.84545	-145.64693	254.67871	-241.65999	-123.67784	-26.03744	19.52808	458.90988	53.70222	0
236	20.34175	285.59817	264.44275	-153.78363	-121.23683	276.6478	-236.77797	-111.47279	-16.2734	31.73313	480.87897	63.46626	0
237	44.75185	302.68524	257.11972	-173.31171	-106.59077	281.52982	-236.77797	-109.03178	-13.83239	36.61515	495.52503	65.90727	0
238	34.98781	295.36221	259.56073	-165.98868	-111.47279	279.08881	-244.101	-116.35481	-18.71441	36.61515	500.40705	63.46626	0
239	27.66478	292.9212	264.44275	-161.10666	-118.79582	279.08881	-251.42403	-121.23683	-21.15542	36.61515	512.6121	61.02525	0
240	22.78276	290.48019	266.88376	-156.22464	-121.23683	279.08881	-251.42403	-126.11885	-21.15542	39.05616	524.81715	58.58424	0
241	13.01872	290.48019	276.6478	-151.34262	-131.00087	283.97083	-251.42403	-128.55986	-13.83239	41.49717	544.34523	61.02525	0
242	-12.20505	268.5111	279.08881	-129.37353	-145.64693	274.20679	-263.62908	-138.3239	-21.15542	31.73313	546.78624	51.26121	0
243	-34.17414	253.86504	286.41184	-109.84545	-160.29299	269.32477	-270.95211	-148.08794	-23.59643	26.85111	554.10927	46.37919	0
244	-29.29212	275.83413	303.49891	-124.49151	-165.17501	288.85285	-268.5111	-140.76491	-16.2734	34.17414	576.07836	53.70222	0
245	-9.76404	307.56726	315.70396	-148.90161	-162.734	310.82194	-263.62908	-133.44188	-8.95037	41.49717	593.16543	63.46626	0
246	0.81367	334.41837	332.79103	-168.42969	-165.17501	335.23204	-261.18807	-126.11885	0.81367	48.8202	610.2525	75.67131	0
247	8.1367	353.94645	344.99608	-180.63474	-167.61602	349.8781	-261.18807	-121.23683	3.25468	51.26121	620.01654	80.55333	0
248	5.69569	361.26948	354.76012	-183.07575	-174.93905	359.64214	-263.62908	-123.67784	3.25468	53.70222	624.89856	82.99434	0
249	-2.44101	368.59251	369.40618	-183.07575	-184.70309	369.40618	-263.62908	-123.67784	5.69569	53.70222	632.22159	82.99434	0
250	-9.76404	378.35655	386.49325	-185.51676	-196.90814	381.61123	-261.18807	-123.67784	10.57771	56.14323	641.98563	82.99434	0
251	-2.44101	390.5616	391.37527	-195.2808	-196.90814	391.37527	-261.18807	-123.67784	18.71441	58.58424	654.19068	85.43535	0
252	0.81367	400.32564	398.6983	-200.16282	-199.34915	401.13931	-258.74706	-121.23683	23.59643	61.02525	663.95472	85.43535	0
253	8.1367	402.76665	393.81628	-205.04484	-192.02612	398.6983	-258.74706	-123.67784	26.03744	61.02525	668.83674	80.55333	0
254	8.1367	407.64867	398.6983	-207.48585	-194.46713	403.58032	-263.62908	-123.67784	28.47845	58.58424	676.15977	78.11232	0
255	8.1367	410.08968	401.13931	-209.92686	-196.90814	406.02133	-263.62908	-121.23683	28.47845	56.14323	678.60078	78.11232	0
256	0.81367	407.64867	406.02133	-205.04484	-201.79016	408.46234	-270.95211	-121.23683	28.47845	51.26121	676.15977	73.2303	0
257	-7.32303	397.88463	403.58032	-195.2808	-204.23117	401.13931	-275.83413	-123.67784	23.59643	41.49717	666.39573	58.58424	0
258	-24.4101	383.23857	406.02133	-180.63474	-213.99521	393.81628	-288.03918	-131.00087	18.71441	31.73313	656.63169	51.26121	0
259	-46.37919	366.1515	410.90335	-161.10666	-228.64127	388.93426	-288.03918	-131.00087	21.15542	29.29212	656.63169	48.8202	0
260	-48.8202	361.26948	408.46234	-156.22464	-228.64127	384.05224	-283.15716	-123.67784	30.91946	31.73313	661.51371	48.8202	0
261	-34.17414	373.47453	406.02133	-170.8707	-218.87723	388.93426	-278.27514	-121.23683	40.6835	31.73313	668.83674	46.37919	0
262	-24.4101	371.03352	393.81628	-173.31171	-209.11319	381.61123	-270.95211	-113.9138	52.88855	36.61515	676.15977	48.8202	0
263	-12.20505	378.35655	388.93426	-183.07575	-199.34915	384.05224	-263.62908	-106.59077	60.21158	39.05616	683.4828	51.26121	0
264	0.81367	393.00261	391.37527	-197.72181	-194.46713	393.81628	-256.30605	-94.38572	74.85764	46.37919	695.68785	58.58424	0
265	13.01872	405.20766	391.37527	-209.92686	-189.58511	398.6983	-244.101	-77.29865	89.5037	58.58424	707.8929	65.90727	0
266	27.66478	417.41271	388.93426	-222.13191	-179.82107	403.58032	-241.65999	-67.53461	94.38572	58.58424	710.33391	63.46626	0
267	32.5468	422.29473	388.93426	-227.01393	-177.38006	406.02133	-241.65999	-57.77057	99.26774	61.02525	710.33391	61.02525	0
268	34.98781	427.17675	391.37527	-231.89595	-177.38006	410.90335	-239.21898	-48.00653	106.59077	68.34828	712.77492	63.46626	0
269	47.19286	439.3818	391.37527	-244.101	-172.49804	415.78537	-231.89595	-38.24249	113.9138	68.34828	715.21593	63.46626	0
270	47.19286	427.17675	379.17022	-236.77797	-165.17501	403.58032	-231.89595	-33.36047	116.35481	65.90727	717.65694	58.58424	1500	QRS+0
271	44.75185	417.41271	371.84719	-231.89595	-162.734	396.25729	-231.89595	-30.91946	121.23683	61.02525	715.21593	53.70222	0
272	42.31084	410.08968	366.96517	-227.01393	-162.734	388.93426	-229.45494	-26.03744	123.67784	53.70222	712.77492	46.37919	0
273	37.42882	402.76665	364.52416	-219.6909	-162.734	384.05224	-219.6909	-18.71441	131.00087	51.26121	712.77492	43.93818	0
274	34.98781	388.12059	352.31911	-212.36787	-157.85198	371.84719	-217.24989	-11.39138	131.00087	43.93818	710.33391	36.61515	0
275	27.66478	371.03352	342.55507	-200.16282	-157.85198	357.20113	-209.92686	-6.50936	131.00087	36.61515	705.45189	31.73313	0
276	22.78276	361.26948	337.67305	-192.83979	-157.85198	349.8781	-195.2808	5.69569	135.88289	36.61515	705.45189	29.29212	0
277	17.90074	344.18241	325.468	-180.63474	-152.96996	335.23204	-180.63474	17.90074	140.76491	34.17414	705.45189	26.85111	0
278	17.90074	327.09534	308.38093	-173.31171	-145.64693	318.14497	-170.8707	22.78276	140.76491	26.85111	698.12886	24.4101	0
279	5.69569	312.44928	305.93992	-158.66565	-150.52895	310.82194	-156.22464	33.36047	145.64693	24.4101	698.12886	21.96909	0
280	-2.44101	295.36221	296.17588	-146.4606	-148.08794	296.17588	-141.57858	43.12451	152.96996	24.4101	700.56987	19.52808	0
281	-9.76404	280.71615	288.85285	-136.69656	-148.08794	283.97083	-124.49151	55.32956	165.17501	21.96909	705.45189	19.52808	0
282	-19.52808	258.74706	276.6478	-119.60949	-148.08794	266.88376	-109.84545	69.97562	174.93905	19.52808	705.45189	19.52808	0
283	-2.44101	253.86504	254.67871	-126.93252	-128.55986	254.67871	-95.19939	82.18067	182.26208	14.64606	703.01088	17.08707	0
284	15.45973	253.86504	237.59164	-134.25555	-111.47279	247.35568	-80.55333	96.82673	194.46713	17.08707	707.8929	21.96909	0
285	32.5468	256.30605	222.94558	-144.01959	-94.38572	240.03265	-65.90727	113.9138	201.79016	19.52808	707.8929	24.4101	0
286	47.19286	251.42403	203.4175	-148.90161	-77.29865	227.8276	-53.70222	126.11885	204.23117	17.08707	705.45189	21.96909	0
287	52.07488	241.65999	188.77144	-146.4606	-67.53461	215.62255	-43.93818	135.88289	204.23117	14.64606	703.01088	21.96909	0
288	56.9569	227.01393	169.24336	-141.57858	-55.32956	198.53548	-36.61515	140.76491	201.79016	9.76404	695.68785	21.96909	0
289	56.9569	209.92686	152.15629	-134.25555	-48.00653	181.44841	-24.4101	145.64693	201.79016	7.32303	693.24684	17.08707	0
290	44.75185	192.83979	147.27427	-119.60949	-50.44754	171.68437	-17.08707	148.08794	196.90814	2.44101	693.24684	12.20505	0
291	27.66478	170.8707	142.39225	-100.08141	-57.77057	157.03831	-7.32303	150.52895	196.90814	-0.81367	695.68785	9.76404	0
292	20.34175	156.22464	135.06922	-87.87636	-57.77057	147.27427	2.44101	155.41097	199.34915	-0.81367	695.68785	7.32303	0
293	15.45973	139.13757	122.86417	-78.11232	-52.88855	132.62821	14.64606	157.85198	199.34915	-0.81367	700.56987	7.32303	0
294	13.01872	126.93252	113.10013	-70.78929	-50.44754	120.42316	25.22377	165.17501	196.90814	-0.81367	705.45189	9.76404	0
295	22.78276	122.0505	98.45407	-73.2303	-38.24249	110.65912	32.5468	170.05703	196.90814	-0.81367	705.45189	9.76404	0
296	32.5468	107.40444	74.04397	-70.78929	-21.15542	91.13104	37.42882	174.93905	192.02612	-5.69569	700.56987	9.76404	0
297	34.98781	85.43535	49.63387	-61.02525	-6.50936	69.16195	37.42882	174.93905	179.82107	-15.45973	690.80583	4.88202	0
298	27.66478	51.26121	22.78276	-39.05616	3.25468	37.42882	30.10579	162.734	162.734	-27.66478	671.27775	-8.1367	0
299	17.90074	21.96909	3.25468	-19.52808	8.95037	13.01872	22.78276	152.96996	148.08794	-42.31084	659.0727	-20.34175	0
300	10.57771	0	-11.39138	-4.88202	11.39138	-4.06835	19.52808	145.64693	135.88289	-52.07488	649.30866	-27.66478	0
301	0.81367	-20.34175	-21.96909	7.32303	11.39138	-19.52808	19.52808	138.3239	128.55986	-61.83892	641.98563	-34.98781	0
302	-17.08707	-32.5468	-17.08707	22.78276	-1.62734	-24.4101	19.52808	133.44188	121.23683	-64.27993	637.10361	-34.98781	0
303	-29.29212	-47.19286	-19.52808	37.42882	-6.50936	-34.17414	19.52808	131.00087	113.9138	-64.27993	634.6626	-37.42882	0
304	-24.4101	-49.63387	-26.85111	34.98781	0.81367	-39.05616	19.52808	131.00087	109.03178	-64.27993	634.6626	-34.98781	0
305	-9.76404	-42.31084	-34.17414	25.22377	11.39138	-39.05616	19.52808	135.88289	106.59077	-56.9569	637.10361	-22.78276	0
306	-2.44101	-34.98781	-34.17414	17.90074	16.2734	-34.17414	22.78276	140.76491	104.14976	-49.63387	639.54462	-15.45973	0
307	3.25468	-32.5468	-36.61515	13.01872	18.71441	-34.17414	22.78276	143.20592	99.26774	-47.19286	639.54462	-10.57771	0
308	10.57771	-27.66478	-39.05616	7.32303	23.59643	-31.73313	19.52808	140.76491	94.38572	-42.31084	637.10361	-8.1367	0
309	8.1367	-25.22377	-34.17414	7.32303	21.15542	-29.29212	22.78276	140.76491	94.38572	-37.42882	639.54462	-0.81367	0
310	17.90074	-12.20505	-31.73313	-2.44101	26.03744	-21.96909	25.22377	140.76491	94.38572	-32.5468	646.86765	7.32303	0
311	27.66478	-4.88202	-34.17414	-12.20505	30.91946	-19.52808	25.22377	133.44188	89.5037	-34.98781	646.86765	7.32303	0
312	22.78276	-17.90074	-41.49717	-2.44101	30.91946	-29.29212	19.52808	123.67784	79.73966	-39.86983	641.98563	-0.81367	0
313	13.01872	-32.5468	-46.37919	7.32303	28.47845	-39.05616	12.20505	109.03178	62.65259	-52.07488	629.78058	-5.69569	0
314	5.69569	-49.63387	-56.14323	20.34175	30.91946	-51.26121	2.44101	99.26774	48.00653	-61.83892	620.01654	-13.01872	0
315	-9.76404	-69.16195	-61.02525	37.42882	26.03744	-65.90727	-12.20505	89.5037	35.80148	-71.60296	607.81149	-20.34175	0
316	-29.29212	-96.01306	-68.34828	61.83892	18.71441	-82.99434	-24.4101	77.29865	21.15542	-78.92599	595.60644	-30.10579	0
317	-56.14323	-125.30518	-70.78929	88.69003	5.69569	-97.6404	-29.29212	74.85764	15.45973	-78.92599	588.28341	-32.5468	0
318	-73.2303	-139.95124	-68.34828	105.7771	-4.06835	-104.96343	-39.05616	72.41663	10.57771	-78.92599	583.40139	-30.10579	0
319	-68.34828	-130.1872	-63.46626	98.45407	-4.06835	-97.6404	-39.05616	72.41663	13.01872	-74.04397	583.40139	-27.66478	0
320	-48.8202	-115.54114	-68.34828	81.367	8.95037	-92.75838	-31.73313	82.18067	23.59643	-59.39791	595.60644	-15.45973	0
321	-36.61515	-105.7771	-70.78929	69.16195	16.2734	-87.87636	-29.29212	87.06269	30.91946	-52.07488	605.37048	-8.1367	0
322	-26.85111	-103.33609	-78.11232	64.27993	26.03744	-90.31737	-29.29212	89.5037	33.36047	-49.63387	605.37048	-5.69569	0
323	-17.08707	-98.45407	-82.99434	56.9569	33.36047	-90.31737	-31.73313	87.06269	33.36047	-52.07488	602.92947	-5.69569	0
324	-2.44101	-83.80801	-82.99434	42.31084	40.6835	-82.99434	-36.61515	84.62168	28.47845	-52.07488	600.48846	-5.69569	0
325	-2.44101	-88.69003	-87.87636	44.75185	43.12451	-87.87636	-41.49717	84.62168	26.03744	-49.63387	600.48846	-3.25468	0
326	-7.32303	-96.01306	-90.31737	49.63387	40.6835	-92.75838	-43.93818	82.18067	18.71441	-52.07488	598.04745	-5.69569	0
327	-14.64606	-96.01306	-82.99434	54.51589	33.36047	-90.31737	-51.26121	79.73966	15.45973	-54.51589	595.60644	-8.1367	0
328	-2.44101	-78.92599	-78.11232	39.86983	38.24249	-78.11232	-51.26121	79.73966	15.45973	-49.63387	600.48846	-3.25468	0
329	17.90074	-61.83892	-80.55333	20.34175	48.00653	-70.78929	-43.93818	87.06269	18.71441	-39.86983	612.69351	7.32303	0
330	20.34175	-52.07488	-73.2303	15.45973	45.56552	-61.02525	-41.49717	87.06269	21.15542	-37.42882	620.01654	9.76404	0
331	20.34175	-52.07488	-73.2303	15.45973	45.56552	-61.02525	-41.49717	87.06269	23.59643	-37.42882	624.89856	9.76404	0
332	22.78276	-49.63387	-73.2303	13.01872	48.00653	-61.02525	-41.49717	87.06269	26.03744	-39.86983	624.89856	9.76404	0
333	20.34175	-54.51589	-75.67131	15.45973	48.00653	-63.46626	-46.37919	79.73966	18.71441	-47.19286	622.45755	4.88202	0
334	15.45973	-71.60296	-87.87636	27.66478	50.44754	-78.11232	-56.14323	69.97562	13.01872	-54.51589	612.69351	-3.25468	0
335	3.25468	-83.80801	-87.87636	39.86983	45.56552	-85.43535	-65.90727	65.0936	5.69569	-61.83892	605.37048	-10.57771	0
336	-2.44101	-91.13104	-90.31737	44.75185	43.12451	-90.31737	-73.2303	62.65259	-1.62734	-66.72094	595.60644	-15.45973	0
337	3.25468	-91.13104	-95.19939	42.31084	48.00653	-92.75838	-75.67131	62.65259	-4.06835	-66.72094	593.16543	-15.45973	0
338	0.81367	-86.24902	-87.87636	42.31084	43.12451	-85.43535	-80.55333	60.21158	-8.95037	-66.72094	588.28341	-15.45973	0
339	-7.32303	-91.13104	-85.43535	47.19286	38.24249	-87.87636	-85.43535	55.32956	-8.95037	-66.72094	580.96038	-17.90074	0
340	-17.08707	-93.57205	-78.11232	54.51589	30.91946	-85.43535	-87.87636	52.88855	-8.95037	-66.72094	580.96038	-15.45973	0
341	-19.52808	-100.89508	-82.99434	59.39791	30.91946	-92.75838	-90.31737	50.44754	-6.50936	-64.27993	583.40139	-13.01872	0
342	-14.64606	-91.13104	-78.11232	52.07488	30.91946	-85.43535	-92.75838	50.44754	-4.06835	-64.27993	583.40139	-13.01872	0
343	-21.96909	-93.57205	-73.2303	56.9569	26.03744	-82.99434	-95.19939	50.44754	-4.06835	-64.27993	580.96038	-10.57771	0
344	-31.73313	-98.45407	-68.34828	64.27993	18.71441	-82.99434	-102.52242	50.44754	-4.06835	-66.72094	578.51937	-15.45973	0
345	-43.93818	-113.10013	-70.78929	76.48498	13.83239	-92.75838	-112.28646	45.56552	-8.95037	-69.16195	571.19634	-20.34175	0
346	-53.70222	-130.1872	-78.11232	91.13104	11.39138	-104.96343	-119.60949	43.12451	-13.83239	-71.60296	566.31432	-25.22377	0
347	-56.14323	-130.1872	-75.67131	91.13104	8.95037	-102.52242	-124.49151	43.12451	-18.71441	-71.60296	558.99129	-27.66478	0
348	-46.37919	-120.42316	-75.67131	81.367	13.83239	-97.6404	-126.93252	45.56552	-18.71441	-69.16195	556.55028	-27.66478	0
349	-29.29212	-105.7771	-78.11232	66.72094	23.59643	-92.75838	-124.49151	48.00653	-16.2734	-61.83892	556.55028	-22.78276	0
350	-24.4101	-100.89508	-78.11232	61.83892	26.03744	-90.31737	-122.0505	48.00653	-13.83239	-56.9569	558.99129	-17.90074	0
351	-21.96909	-100.89508	-80.55333	59.39791	28.47845	-90.31737	-122.0505	48.00653	-8.95037	-54.51589	563.87331	-13.01872	0
352	-2.44101	-83.80801	-82.99434	42.31084	40.6835	-82.99434	-114.72747	52.88855	-4.06835	-52.07488	563.87331	-5.69569	0
353	15.45973	-66.72094	-82.99434	25.22377	48.00653	-73.2303	-109.84545	52.88855	0.81367	-52.07488	563.87331	-3.25468	0
354	10.57771	-69.16195	-80.55333	27.66478	45.56552	-73.2303	-112.28646	50.44754	-1.62734	-52.07488	563.87331	-3.25468	0
355	-2.44101	-78.92599	-78.11232	39.86983	38.24249	-78.11232	-112.28646	50.44754	-4.06835	-52.07488	558.99129	-0.81367	0
356	-19.52808	-88.69003	-70.78929	52.07488	26.03744	-80.55333	-112.28646	50.44754	-4.06835	-54.51589	556.55028	-0.81367	-1500	QRS-0
357	-14.64606	-83.80801	-70.78929	47.19286	28.47845	-78.11232	-107.40444	57.77057	-4.06835	-52.07488	554.10927	4.88202	0
358	-4.88202	-69.16195	-65.90727	34.98781	30.91946	-68.34828	-107.40444	57.77057	-4.06835	-49.63387	549.22725	4.88202	0
359	0.81367	-59.39791	-61.02525	27.66478	30.91946	-58.58424	-104.96343	60.21158	-1.62734	-47.19286	546.78624	2.44101	0
360	0.81367	-52.07488	-53.70222	25.22377	26.03744	-51.26121	-100.08141	62.65259	0.81367	-44.75185	546.78624	2.44101	0
361	-2.44101	-54.51589	-53.70222	27.66478	26.03744	-53.70222	-97.6404	65.0936	5.69569	-47.19286	549.22725	2.44101	0
362	-7.32303	-64.27993	-58.58424	34.98781	26.03744	-61.02525	-100.08141	65.0936	5.69569	-54.51589	541.90422	-5.69569	0
363	-4.88202	-71.60296	-68.34828	37.42882	30.91946	-70.78929	-104.96343	62.65259	0.81367	-59.39791	537.0222	-10.57771	0
364	-2.44101	-81.367	-80.55333	39.86983	38.24249	-80.55333	-109.84545	62.65259	-1.62734	-66.72094	529.69917	-17.90074	0
365	-2.44101	-98.45407	-97.6404	49.63387	48.00653	-97.6404	-122.0505	57.77057	-8.95037	-78.92599	517.49412	-25.22377	0
366	-17.08707	-122.86417	-107.40444	69.16195	45.56552	-114.72747	-131.81454	55.32956	-13.83239	-88.69003	507.73008	-27.66478	0
367	-34.17414	-130.1872	-97.6404	81.367	30.91946	-114.72747	-131.81454	60.21158	-13.83239	-91.13104	505.28907	-25.22377	0
368	-39.05616	-135.06922	-97.6404	86.24902	28.47845	-117.16848	-134.25555	57.77057	-16.2734	-93.57205	495.52503	-25.22377	0
369	-41.49717	-125.30518	-85.43535	81.367	21.15542	-104.96343	-134.25555	52.88855	-16.2734	-98.45407	485.76099	-27.66478	0
370	-43.93818	-110.65912	-68.34828	76.48498	11.39138	-90.31737	-131.81454	52.88855	-13.83239	-100.89508	485.76099	-30.10579	0
371	-51.26121	-103.33609	-53.70222	76.48498	0.81367	-78.11232	-129.37353	52.88855	-6.50936	-98.45407	488.202	-27.66478	0
372	-53.70222	-98.45407	-46.37919	74.04397	-4.06835	-73.2303	-117.16848	62.65259	3.25468	-88.69003	493.08402	-22.78276	0
373	-46.37919	-96.01306	-51.26121	69.16195	0.81367	-73.2303	-114.72747	65.0936	5.69569	-86.24902	490.64301	-25.22377	0
374	-31.73313	-86.24902	-56.14323	56.9569	11.39138	-70.78929	-112.28646	65.0936	3.25468	-88.69003	488.202	-27.66478	0
375	-17.08707	-83.80801	-68.34828	49.63387	26.03744	-75.67131	-104.96343	72.41663	5.69569	-81.367	488.202	-25.22377	0
376	-17.08707	-98.45407	-82.99434	56.9569	33.36047	-90.31737	-102.52242	72.41663	5.69569	-81.367	485.76099	-22.78276	0
377	-7.32303	-113.10013	-107.40444	59.39791	50.44754	-109.84545	-95.19939	72.41663	5.69569	-83.80801	475.99695	-22.78276	0
378	-12.20505	-117.98215	-107.40444	64.27993	48.00653	-112.28646	-90.31737	69.97562	-1.62734	-86.24902	463.7919	-22.78276	0
379	-19.52808	-117.98215	-100.08141	66.72094	40.6835	-109.84545	-87.87636	65.0936	-1.62734	-93.57205	451.58685	-25.22377	0
380	-19.52808	-117.98215	-100.08141	66.72094	40.6835	-109.84545	-73.2303	72.41663	5.69569	-86.24902	451.58685	-20.34175	0
381	-26.85111	-122.86417	-97.6404	74.04397	35.80148	-109.84545	-65.90727	77.29865	13.01872	-83.80801	454.02786	-15.45973	0
382	-29.29212	-120.42316	-92.75838	74.04397	30.91946	-107.40444	-63.46626	79.73966	13.01872	-83.80801	449.14584	-15.45973	0
383	-29.29212	-115.54114	-87.87636	71.60296	28.47845	-102.52242	-58.58424	87.06269	18.71441	-76.48498	451.58685	-13.01872	0
384	-36.61515	-110.65912	-75.67131	71.60296	18.71441	-92.75838	-58.58424	89.5037	18.71441	-74.04397	451.58685	-13.01872	0
385	-34.17414	-108.21811	-75.67131	69.16195	21.15542	-92.75838	-61.02525	96.82673	21.15542	-66.72094	454.02786	-10.57771	0
386	-21.96909	-93.57205	-73.2303	56.9569	26.03744	-82.99434	-63.46626	99.26774	21.15542	-64.27993	451.58685	-10.57771	0
387	-12.20505	-81.367	-70.78929	44.75185	28.47845	-75.67131	-68.34828	91.94471	15.45973	-69.16195	439.3818	-17.90074	0
388	-2.44101	-76.48498	-75.67131	37.42882	35.80148	-75.67131	-73.2303	89.5037	13.01872	-69.16195	429.61776	-20.34175	0
389	5.69569	-76.48498	-82.99434	34.98781	43.12451	-78.11232	-73.2303	89.5037	15.45973	-64.27993	424.73574	-17.90074	0
390	8.1367	-86.24902	-95.19939	37.42882	50.44754	-90.31737	-70.78929	89.5037	18.71441	-59.39791	422.29473	-13.01872	0
391	17.90074	-88.69003	-107.40444	34.98781	62.65259	-97.6404	-68.34828	94.38572	23.59643	-56.9569	422.29473	-8.1367	0
392	20.34175	-93.57205	-114.72747	34.98781	67.53461	-102.52242	-78.11232	91.94471	21.15542	-59.39791	412.53069	-13.01872	0
393	10.57771	-105.7771	-117.16848	47.19286	62.65259	-109.84545	-78.11232	91.94471	18.71441	-59.39791	405.20766	-13.01872	0
394	3.25468	-120.42316	-124.49151	56.9569	62.65259	-122.0505	-87.87636	91.94471	15.45973	-61.83892	400.32564	-17.90074	0
395	-2.44101	-132.62821	-131.81454	66.72094	65.0936	-131.81454	-95.19939	89.5037	13.01872	-66.72094	393.00261	-22.78276	0
396	-7.32303	-135.06922	-129.37353	69.16195	60.21158	-131.81454	-104.96343	84.62168	8.1367	-71.60296	385.67958	-30.10579	0
397	-9.76404	-120.42316	-112.28646	64.27993	50.44754	-117.16848	-104.96343	84.62168	8.1367	-69.16195	380.79756	-32.5468	0
398	-7.32303	-108.21811	-102.52242	56.9569	48.00653	-104.96343	-97.6404	87.06269	13.01872	-64.27993	378.35655	-27.66478	0
399	-4.88202	-103.33609	-100.08141	52.07488	48.00653	-102.52242	-95.19939	87.06269	15.45973	-61.83892	378.35655	-22.78276	0
400	-2.44101	-98.45407	-97.6404	49.63387	48.00653	-97.6404	-90.31737	89.5037	18.71441	-59.39791	378.35655	-20.34175	0
401	-2.44101	-93.57205	-92.75838	47.19286	45.56552	-92.75838	-85.43535	94.38572	26.03744	-52.07488	383.23857	-13.01872	0
402	-2.44101	-88.69003	-87.87636	44.75185	43.12451	-87.87636	-82.99434	99.26774	28.47845	-47.19286	383.23857	-8.1367	0
403	-7.32303	-91.13104	-85.43535	47.19286	38.24249	-87.87636	-87.87636	101.70875	28.47845	-44.75185	383.23857	-3.25468	0
404	-21.96909	-105.7771	-85.43535	61.83892	30.91946	-95.19939	-92.75838	99.26774	23.59643	-49.63387	378.35655	-8.1367	0
405	-21.96909	-115.54114	-95.19939	66.72094	35.80148	-104.96343	-104.96343	94.38572	15.45973	-54.51589	371.03352	-13.01872	0
406	-14.64606	-120.42316	-107.40444	66.72094	45.56552	-114.72747	-104.96343	96.82673	21.15542	-47.19286	375.91554	-8.1367	0
407	-12.20505	-117.98215	-107.40444	64.27993	48.00653	-112.28646	-104.96343	96.82673	21.15542	-44.75185	375.91554	-8.1367	0
408	-17.08707	-117.98215	-102.52242	66.72094	43.12451	-109.84545	-104.96343	94.38572	21.15542	-44.75185	368.59251	-5.69569	0
409	-17.08707	-120.42316	-104.96343	66.72094	43.12451	-112.28646	-109.84545	89.5037	21.15542	-49.63387	358.82847	-13.01872	0
410	-2.44101	-115.54114	-114.72747	56.9569	55.32956	-114.72747	-109.84545	89.5037	21.15542	-49.63387	356.38746	-17.90074	0
411	-2.44101	-117.98215	-117.16848	59.39791	57.77057	-117.16848	-102.52242	91.94471	26.03744	-47.19286	356.38746	-17.90074	0
412	-4.88202	-117.98215	-114.72747	59.39791	55.32956	-117.16848	-104.96343	94.38572	26.03744	-47.19286	351.50544	-20.34175	0
413	-24.4101	-132.62821	-109.84545	76.48498	43.12451	-122.0505	-109.84545	91.94471	23.59643	-52.07488	341.7414	-22.78276	0
414	-36.61515	-149.71528	-114.72747	91.13104	38.24249	-131.81454	-117.16848	89.5037	18.71441	-56.9569	336.85938	-30.10579	0
415	-51.26121	-161.92033	-112.28646	105.7771	30.91946	-136.69656	-119.60949	89.5037	18.71441	-54.51589	336.85938	-30.10579	0
416	-61.02525	-161.92033	-102.52242	110.65912	21.15542	-131.81454	-122.0505	89.5037	15.45973	-49.63387	341.7414	-22.78276	0
417	-56.14323	-152.15629	-97.6404	103.33609	21.15542	-124.49151	-124.49151	87.06269	18.71441	-47.19286	339.30039	-20.34175	0
418	-43.93818	-144.83326	-102.52242	93.57205	28.47845	-124.49151	-124.49151	84.62168	18.71441	-47.19286	331.97736	-20.34175	0
419	-36.61515	-132.62821	-97.6404	83.80801	30.91946	-114.72747	-122.0505	82.18067	21.15542	-47.19286	329.53635	-20.34175	0
420	-9.76404	-113.10013	-104.96343	59.39791	48.00653	-109.84545	-117.16848	84.62168	26.03744	-42.31084	329.53635	-17.90074	0
421	15.45973	-93.57205	-109.84545	37.42882	62.65259	-100.08141	-114.72747	87.06269	28.47845	-39.86983	329.53635	-15.45973	0
422	34.98781	-83.80801	-119.60949	22.78276	77.29865	-100.08141	-114.72747	89.5037	30.91946	-39.86983	322.21332	-15.45973	0
423	30.10579	-98.45407	-129.37353	32.5468	79.73966	-112.28646	-119.60949	89.5037	28.47845	-42.31084	312.44928	-20.34175	0
424	20.34175	-110.65912	-131.81454	44.75185	74.85764	-119.60949	-124.49151	87.06269	23.59643	-42.31084	310.00827	-22.78276	0
425	20.34175	-110.65912	-131.81454	44.75185	74.85764	-119.60949	-129.37353	84.62168	21.15542	-42.31084	307.56726	-25.22377	0
426	15.45973	-117.98215	-134.25555	49.63387	74.85764	-124.49151	-139.13757	79.73966	15.45973	-47.19286	302.68524	-27.66478	0
427	5.69569	-125.30518	-131.81454	59.39791	67.53461	-126.93252	-141.57858	74.85764	13.01872	-49.63387	295.36221	-30.10579	0
428	5.69569	-127.74619	-134.25555	59.39791	69.97562	-129.37353	-141.57858	72.41663	13.01872	-49.63387	288.03918	-30.10579	0
429	5.69569	-120.42316	-126.93252	56.9569	65.0936	-122.0505	-134.25555	72.41663	15.45973	-47.19286	285.59817	-27.66478	0
430	8.1367	-110.65912	-119.60949	49.63387	62.65259	-114.72747	-131.81454	72.41663	18.71441	-47.19286	283.15716	-27.66478	0
431	0.81367	-117.98215	-119.60949	56.9569	60.21158	-117.16848	-131.81454	72.41663	18.71441	-47.19286	280.71615	-27.66478	0
432	-7.32303	-130.1872	-124.49151	66.72094	57.77057	-126.93252	-134.25555	74.85764	18.71441	-47.19286	273.39312	-30.10579	0
433	-12.20505	-130.1872	-119.60949	69.16195	52.88855	-124.49151	-134.25555	79.73966	21.15542	-47.19286	268.5111	-30.10579	0
434	-14.64606	-130.1872	-117.16848	71.60296	50.44754	-124.49151	-139.13757	79.73966	21.15542	-47.19286	268.5111	-30.10579	0
435	-34.17414	-147.27427	-114.72747	88.69003	40.6835	-131.81454	-146.4606	77.29865	15.45973	-47.19286	263.62908	-30.10579	0
436	-46.37919	-164.36134	-119.60949	103.33609	35.80148	-141.57858	-153.78363	74.85764	13.01872	-49.63387	261.18807	-32.5468	0
437	-58.58424	-171.68437	-114.72747	113.10013	28.47845	-144.01959	-156.22464	72.41663	13.01872	-49.63387	253.86504	-30.10579	0
438	-48.8202	-169.24336	-122.0505	108.21811	35.80148	-146.4606	-158.66565	69.97562	13.01872	-47.19286	251.42403	-27.66478	0
439	-34.17414	-161.92033	-129.37353	96.01306	48.00653	-146.4606	-153.78363	72.41663	18.71441	-42.31084	251.42403	-25.22377	0
440	-24.4101	-154.5973	-131.81454	88.69003	52.88855	-144.01959	-148.90161	72.41663	21.15542	-39.86983	251.42403	-22.78276	0
441	-2.44101	-139.95124	-139.13757	69.16195	67.53461	-139.13757	-144.01959	74.85764	26.03744	-37.42882	253.86504	-20.34175	0
442	13.01872	-122.86417	-136.69656	54.51589	74.85764	-129.37353	-139.13757	82.18067	33.36047	-32.5468	253.86504	-15.45973	0
443	25.22377	-105.7771	-131.81454	39.86983	77.29865	-117.16848	-131.81454	91.94471	40.6835	-22.78276	256.30605	-8.1367	0
444	39.86983	-86.24902	-126.93252	22.78276	82.18067	-104.96343	-124.49151	104.14976	50.44754	-13.01872	263.62908	-0.81367	0
445	52.07488	-69.16195	-122.0505	7.32303	87.06269	-95.19939	-124.49151	106.59077	50.44754	-13.01872	263.62908	-0.81367	0
446	39.86983	-81.367	-122.0505	20.34175	79.73966	-100.08141	-131.81454	101.70875	43.12451	-17.90074	256.30605	-0.81367	0
447	22.78276	-98.45407	-122.0505	37.42882	72.41663	-109.84545	-134.25555	101.70875	43.12451	-17.90074	251.42403	-0.81367	0
448	8.1367	-108.21811	-117.16848	49.63387	62.65259	-112.28646	-136.69656	99.26774	40.6835	-17.90074	246.54201	-0.81367	0
449	0.81367	-115.54114	-117.16848	56.9569	57.77057	-114.72747	-146.4606	91.94471	35.80148	-22.78276	239.21898	-5.69569	0
450	-7.32303	-130.1872	-124.49151	66.72094	57.77057	-126.93252	-158.66565	84.62168	33.36047	-27.66478	234.33696	-10.57771	0
451	-29.29212	-144.83326	-117.16848	86.24902	43.12451	-131.81454	-170.8707	82.18067	30.91946	-30.10579	229.45494	-13.01872	0
452	-34.17414	-149.71528	-117.16848	91.13104	40.6835	-134.25555	-185.51676	82.18067	28.47845	-32.5468	222.13191	-17.90074	0
453	-12.20505	-137.51023	-126.93252	74.04397	57.77057	-131.81454	-195.2808	87.06269	30.91946	-32.5468	217.24989	-17.90074	0
454	-2.44101	-130.1872	-129.37353	64.27993	62.65259	-129.37353	-207.48585	89.5037	30.91946	-32.5468	214.80888	-17.90074	0
455	5.69569	-122.86417	-129.37353	56.9569	67.53461	-124.49151	-217.24989	94.38572	33.36047	-30.10579	214.80888	-17.90074	0
456	8.1367	-122.86417	-131.81454	56.9569	69.97562	-126.93252	-227.01393	91.94471	30.91946	-30.10579	212.36787	-15.45973	0
457	17.90074	-125.30518	-144.01959	52.07488	79.73966	-134.25555	-236.77797	89.5037	30.91946	-30.10579	207.48585	-15.45973	0
458	17.90074	-127.74619	-146.4606	54.51589	82.18067	-136.69656	-241.65999	87.06269	28.47845	-30.10579	200.16282	-15.45973	0
459	-2.44101	-137.51023	-136.69656	69.16195	67.53461	-136.69656	-244.101	82.18067	26.03744	-34.98781	192.83979	-15.45973	0
460	-12.20505	-147.27427	-136.69656	78.92599	62.65259	-141.57858	-246.54201	79.73966	26.03744	-34.98781	192.83979	-17.90074	0
461	-17.08707	-152.15629	-136.69656	83.80801	60.21158	-144.01959	-251.42403	79.73966	26.03744	-34.98781	190.39878	-17.90074	0
462	-12.20505	-149.71528	-139.13757	78.92599	62.65259	-144.01959	-256.30605	82.18067	28.47845	-34.98781	185.51676	-20.34175	0
463	-7.32303	-147.27427	-141.57858	76.48498	67.53461	-144.01959	-266.07009	87.06269	28.47845	-32.5468	183.07575	-20.34175	0
464	-4.88202	-147.27427	-144.01959	74.04397	69.97562	-146.4606	-278.27514	89.5037	28.47845	-32.5468	180.63474	-20.34175	0
465	-2.44101	-144.83326	-144.01959	71.60296	69.97562	-144.01959	-292.9212	89.5037	28.47845	-34.98781	178.19373	-25.22377	0
466	-9.76404	-149.71528	-141.57858	78.92599	65.0936	-146.4606	-310.00827	91.94471	28.47845	-32.5468	178.19373	-22.78276	0
467	-7.32303	-152.15629	-146.4606	78.92599	69.97562	-148.90161	-329.53635	91.94471	28.47845	-32.5468	175.75272	-20.34175	0
468	-7.32303	-149.71528	-144.01959	76.48498	67.53461	-146.4606	-346.62342	87.06269	28.47845	-32.5468	173.31171	-17.90074	0
469	-2.44101	-144.83326	-144.01959	71.60296	69.97562	-144.01959	-358.82847	87.06269	30.91946	-30.10579	173.31171	-17.90074	0
470	3.25468	-132.62821	-136.69656	64.27993	69.97562	-134.25555	-371.03352	87.06269	33.36047	-27.66478	175.75272	-17.90074	0
471	3.25468	-122.86417	-126.93252	59.39791	65.0936	-124.49151	-380.79756	91.94471	38.24249	-22.78276	180.63474	-13.01872	0
472	15.45973	-113.10013	-129.37353	47.19286	72.41663	-119.60949	-390.5616	96.82673	45.56552	-15.45973	183.07575	-8.1367	0
473	10.57771	-110.65912	-122.0505	49.63387	65.0936	-114.72747	-397.88463	101.70875	45.56552	-10.57771	185.51676	-3.25468	0
474	-2.44101	-110.65912	-109.84545	54.51589	52.88855	-109.84545	-407.64867	101.70875	45.56552	-10.57771	185.51676	-3.25468	0
475	-4.88202	-122.86417	-119.60949	61.83892	57.77057	-122.0505	-419.85372	99.26774	43.12451	-13.01872	183.07575	-8.1367	0
476	-12.20505	-132.62821	-122.0505	71.60296	55.32956	-126.93252	-436.94079	94.38572	33.36047	-20.34175	173.31171	-15.45973	0
477	-4.88202	-147.27427	-144.01959	74.04397	69.97562	-146.4606	-451.58685	84.62168	28.47845	-27.66478	163.54767	-20.34175	0
478	0.81367	-159.47932	-161.10666	78.92599	79.73966	-158.66565	-463.7919	77.29865	21.15542	-34.98781	148.90161	-27.66478	0
479	3.25468	-157.03831	-161.10666	76.48498	82.18067	-158.66565	-468.67392	72.41663	21.15542	-39.86983	141.57858	-34.98781	0
480	5.69569	-154.5973	-161.10666	74.04397	82.18067	-156.22464	-473.55594	69.97562	21.15542	-44.75185	134.25555	-39.86983	0
481	0.81367	-157.03831	-158.66565	76.48498	79.73966	-156.22464	-483.31998	69.97562	21.15542	-44.75185	134.25555	-42.31084	0
482	-19.52808	-166.80235	-148.90161	91.13104	65.0936	-158.66565	-490.64301	69.97562	21.15542	-44.75185	131.81454	-42.31084	0
483	-39.05616	-174.12538	-136.69656	105.7771	48.00653	-156.22464	-493.08402	74.85764	23.59643	-37.42882	131.81454	-37.42882	0
484	-51.26121	-171.68437	-122.0505	110.65912	35.80148	-146.4606	-500.40705	84.62168	28.47845	-32.5468	136.69656	-30.10579	0
485	-61.02525	-174.12538	-114.72747	115.54114	26.03744	-144.01959	-505.28907	87.06269	30.91946	-30.10579	141.57858	-27.66478	0
486	-48.8202	-171.68437	-124.49151	108.21811	38.24249	-148.90161	-517.49412	87.06269	28.47845	-30.10579	141.57858	-27.66478	0
487	-41.49717	-161.92033	-122.0505	100.89508	40.6835	-141.57858	-524.81715	87.06269	28.47845	-30.10579	136.69656	-25.22377	0
488	-24.4101	-149.71528	-126.93252	86.24902	50.44754	-139.13757	-524.81715	89.5037	35.80148	-27.66478	136.69656	-20.34175	0
489	3.25468	-130.1872	-134.25555	61.83892	67.53461	-131.81454	-522.37614	89.5037	38.24249	-25.22377	136.69656	-17.90074	0
490	0.81367	-122.86417	-124.49151	59.39791	62.65259	-122.0505	-522.37614	89.5037	40.6835	-25.22377	141.57858	-17.90074	0
491	-2.44101	-120.42316	-119.60949	59.39791	57.77057	-119.60949	-519.93513	96.82673	45.56552	-20.34175	148.90161	-10.57771	0
492	3.25468	-117.98215	-122.0505	56.9569	62.65259	-119.60949	-524.81715	99.26774	48.00653	-17.90074	151.34262	-8.1367	0
493	8.1367	-120.42316	-129.37353	54.51589	67.53461	-124.49151	-529.69917	104.14976	48.00653	-13.01872	151.34262	-5.69569	0
494	15.45973	-117.98215	-134.25555	49.63387	74.85764	-124.49151	-532.14018	109.03178	52.88855	-8.1367	156.22464	-3.25468	0
495	13.01872	-115.54114	-129.37353	49.63387	69.97562	-122.0505	-534.58119	113.9138	55.32956	-8.1367	158.66565	-3.25468	0
496	15.45973	-117.98215	-134.25555	49.63387	74.85764	-124.49151	-541.90422	111.47279	52.88855	-10.57771	153.78363	-8.1367	0
497	15.45973	-122.86417	-139.13757	52.07488	77.29865	-129.37353	-544.34523	106.59077	48.00653	-15.45973	146.4606	-15.45973	0
498	17.90074	-120.42316	-139.13757	49.63387	77.29865	-129.37353	-539.46321	99.26774	43.12451	-20.34175	136.69656	-20.34175	0
499	8.1367	-122.86417	-131.81454	56.9569	69.97562	-126.93252	-522.37614	99.26774	45.56552	-25.22377	131.81454	-22.78276	0
500	0.81367	-127.74619	-129.37353	61.83892	65.0936	-126.93252	-505.28907	96.82673	45.56552	-30.10579	126.93252	-25.22377	0
501	-2.44101	-130.1872	-129.37353	64.27993	62.65259	-129.37353	-500.40705	91.94471	43.12451	-34.98781	124.49151	-27.66478	0
502	-7.32303	-139.95124	-134.25555	71.60296	62.65259	-136.69656	-488.202	91.94471	38.24249	-39.86983	117.16848	-27.66478	0
503	-12.20505	-147.27427	-136.69656	78.92599	62.65259	-141.57858	-475.99695	91.94471	38.24249	-39.86983	112.28646	-27.66478	0
504	-14.64606	-152.15629	-139.13757	81.367	62.65259	-146.4606	-466.23291	91.94471	38.24249	-39.86983	112.28646	-25.22377	0
505	-14.64606	-157.03831	-144.01959	83.80801	65.0936	-151.34262	-463.7919	91.94471	33.36047	-44.75185	104.96343	-27.66478	0
506	-21.96909	-169.24336	-148.90161	93.57205	62.65259	-158.66565	-466.23291	84.62168	26.03744	-47.19286	102.52242	-30.10579	0
507	-34.17414	-174.12538	-141.57858	103.33609	52.88855	-158.66565	-473.55594	82.18067	23.59643	-47.19286	100.08141	-32.5468	0
508	-39.05616	-171.68437	-134.25555	103.33609	48.00653	-153.78363	-473.55594	82.18067	23.59643	-44.75185	100.08141	-32.5468	0
509	-41.49717	-169.24336	-129.37353	103.33609	43.12451	-148.90161	-478.43796	72.41663	18.71441	-47.19286	95.19939	-34.98781	0
510	-41.49717	-169.24336	-129.37353	103.33609	43.12451	-148.90161	-485.76099	65.0936	15.45973	-52.07488	90.31737	-39.86983	0
511	-41.49717	-166.80235	-126.93252	103.33609	43.12451	-146.4606	-490.64301	62.65259	15.45973	-54.51589	87.87636	-42.31084	0
512	-41.49717	-157.03831	-117.16848	98.45407	38.24249	-136.69656	-493.08402	67.53461	21.15542	-47.19286	92.75838	-37.42882	0
513	-21.96909	-137.51023	-117.16848	78.92599	48.00653	-126.93252	-497.96604	74.85764	26.03744	-42.31084	90.31737	-32.5468	0
514	-4.88202	-139.95124	-136.69656	71.60296	65.0936	-139.13757	-500.40705	77.29865	26.03744	-42.31084	87.87636	-32.5468	0
515	-7.32303	-147.27427	-141.57858	76.48498	67.53461	-144.01959	-505.28907	82.18067	28.47845	-42.31084	87.87636	-30.10579	0
516	-9.76404	-137.51023	-129.37353	71.60296	60.21158	-134.25555	-505.28907	91.94471	35.80148	-32.5468	97.6404	-17.90074	0
517	-4.88202	-127.74619	-124.49151	64.27993	60.21158	-126.93252	-500.40705	96.82673	43.12451	-25.22377	107.40444	-8.1367	0
518	5.69569	-115.54114	-122.0505	54.51589	62.65259	-117.16848	-497.96604	99.26774	45.56552	-25.22377	104.96343	-8.1367	0
519	13.01872	-120.42316	-134.25555	52.07488	72.41663	-126.93252	-493.08402	96.82673	45.56552	-30.10579	104.96343	-5.69569	0
520	15.45973	-120.42316	-136.69656	52.07488	74.85764	-126.93252	-490.64301	96.82673	48.00653	-32.5468	104.96343	-5.69569	0
521	27.66478	-108.21811	-136.69656	39.86983	82.18067	-122.0505	-490.64301	94.38572	45.56552	-34.98781	100.08141	-5.69569	0
522	32.5468	-105.7771	-139.13757	34.98781	84.62168	-122.0505	-495.52503	91.94471	45.56552	-37.42882	95.19939	-10.57771	0
523	32.5468	-110.65912	-144.01959	37.42882	87.06269	-126.93252	-497.96604	91.94471	40.6835	-37.42882	85.43535	-15.45973	0
524	32.5468	-117.98215	-151.34262	42.31084	91.94471	-134.25555	-502.84806	91.94471	38.24249	-37.42882	82.99434	-17.90074	0
525	20.34175	-122.86417	-144.01959	49.63387	82.18067	-131.81454	-507.73008	91.94471	35.80148	-37.42882	80.55333	-17.90074	0
526	0.81367	-127.74619	-129.37353	61.83892	65.0936	-126.93252	-512.6121	91.94471	33.36047	-37.42882	80.55333	-20.34175	0
527	-14.64606	-135.06922	-122.0505	74.04397	52.88855	-129.37353	-515.05311	87.06269	28.47845	-37.42882	78.11232	-22.78276	0
528	-24.4101	-142.39225	-119.60949	81.367	48.00653	-131.81454	-512.6121	82.18067	23.59643	-39.86983	73.2303	-25.22377	0
529	-21.96909	-147.27427	-126.93252	83.80801	52.88855	-136.69656	-505.28907	79.73966	23.59643	-44.75185	73.2303	-25.22377	0
530	-12.20505	-142.39225	-131.81454	76.48498	60.21158	-136.69656	-497.96604	74.85764	23.59643	-49.63387	68.34828	-25.22377	0
531	-17.08707	-147.27427	-131.81454	81.367	57.77057	-139.13757	-490.64301	74.85764	23.59643	-49.63387	63.46626	-30.10579	0
532	-21.96909	-147.27427	-126.93252	83.80801	52.88855	-136.69656	-485.76099	77.29865	26.03744	-49.63387	61.02525	-30.10579	0
533	-17.08707	-144.83326	-129.37353	78.92599	55.32956	-136.69656	-483.31998	77.29865	26.03744	-49.63387	56.14323	-30.10579	0
534	-24.4101	-142.39225	-119.60949	81.367	48.00653	-131.81454	-473.55594	87.06269	33.36047	-44.75185	56.14323	-25.22377	0
535	-24.4101	-144.83326	-122.0505	83.80801	48.00653	-134.25555	-468.67392	91.94471	35.80148	-44.75185	51.26121	-25.22377	0
536	-19.52808	-130.1872	-112.28646	74.04397	45.56552	-122.0505	-458.90988	101.70875	43.12451	-37.42882	56.14323	-20.34175	0
537	-17.08707	-117.98215	-102.52242	66.72094	43.12451	-109.84545	-456.46887	104.14976	45.56552	-32.5468	58.58424	-17.90074	0
538	-19.52808	-117.98215	-100.08141	66.72094	40.6835	-109.84545	-449.14584	101.70875	48.00653	-32.5468	56.14323	-17.90074	0
539	-21.96909	-122.86417	-102.52242	71.60296	40.6835	-112.28646	-441.82281	101.70875	48.00653	-32.5468	53.70222	-20.34175	0
540	-7.32303	-122.86417	-117.16848	64.27993	55.32956	-119.60949	-439.3818	96.82673	50.44754	-42.31084	43.93818	-30.10579	0
541	13.01872	-110.65912	-124.49151	47.19286	67.53461	-117.16848	-436.94079	94.38572	48.00653	-47.19286	39.05616	-37.42882	0
542	20.34175	-98.45407	-119.60949	37.42882	69.97562	-107.40444	-432.05877	99.26774	52.88855	-42.31084	39.05616	-32.5468	0
543	10.57771	-105.7771	-117.16848	47.19286	62.65259	-109.84545	-429.61776	99.26774	52.88855	-44.75185	34.17414	-32.5468	0
544	25.22377	-93.57205	-119.60949	32.5468	72.41663	-104.96343	-424.73574	106.59077	57.77057	-42.31084	34.17414	-32.5468	0
545	42.31084	-78.92599	-122.0505	17.90074	82.18067	-100.08141	-414.9717	116.35481	65.0936	-37.42882	39.05616	-27.66478	0
546	54.51589	-59.39791	-114.72747	2.44101	84.62168	-85.43535	-407.64867	123.67784	72.41663	-30.10579	43.93818	-20.34175	0
547	47.19286	-61.83892	-109.84545	7.32303	77.29865	-85.43535	-397.88463	131.00087	82.18067	-17.90074	58.58424	-8.1367	0
548	37.42882	-74.04397	-112.28646	17.90074	74.85764	-92.75838	-395.44362	133.44188	84.62168	-15.45973	61.02525	-5.69569	0
549	37.42882	-86.24902	-124.49151	22.78276	79.73966	-104.96343	-395.44362	126.11885	82.18067	-17.90074	61.02525	-8.1367	0
550	32.5468	-98.45407	-131.81454	32.5468	82.18067	-114.72747	-395.44362	121.23683	82.18067	-17.90074	61.02525	-10.57771	0
551	30.10579	-105.7771	-136.69656	37.42882	82.18067	-119.60949	-395.44362	113.9138	74.85764	-20.34175	58.58424	-10.57771	0
552	25.22377	-117.98215	-144.01959	44.75185	84.62168	-129.37353	-402.76665	109.03178	67.53461	-20.34175	58.58424	-10.57771	0
553	15.45973	-125.30518	-141.57858	54.51589	77.29865	-131.81454	-405.20766	106.59077	62.65259	-20.34175	58.58424	-5.69569	0
554	10.57771	-127.74619	-139.13757	56.9569	74.85764	-131.81454	-405.20766	101.70875	55.32956	-20.34175	58.58424	-3.25468	0
555	5.69569	-132.62821	-139.13757	61.83892	72.41663	-134.25555	-405.20766	99.26774	48.00653	-20.34175	56.14323	-0.81367	0
556	3.25468	-139.95124	-144.01959	66.72094	72.41663	-141.57858	-407.64867	94.38572	40.6835	-22.78276	51.26121	-0.81367	0
557	3.25468	-149.71528	-153.78363	71.60296	77.29865	-151.34262	-414.9717	82.18067	28.47845	-32.5468	41.49717	-10.57771	0
558	3.25468	-157.03831	-161.10666	76.48498	82.18067	-158.66565	-414.9717	69.97562	18.71441	-39.86983	34.17414	-15.45973	0
559	0.81367	-161.92033	-163.54767	78.92599	82.18067	-161.10666	-410.08968	60.21158	13.01872	-44.75185	29.29212	-20.34175	0
560	-2.44101	-169.24336	-168.42969	83.80801	82.18067	-168.42969	-405.20766	55.32956	10.57771	-49.63387	24.4101	-25.22377	0
561	-7.32303	-179.0074	-173.31171	91.13104	82.18067	-175.75272	-400.32564	50.44754	5.69569	-52.07488	21.96909	-30.10579	0
562	-7.32303	-171.68437	-165.98868	88.69003	79.73966	-168.42969	-393.00261	50.44754	5.69569	-49.63387	21.96909	-30.10579	0
563	-14.64606	-161.92033	-148.90161	86.24902	67.53461	-156.22464	-380.79756	57.77057	13.01872	-39.86983	31.73313	-22.78276	0
564	-9.76404	-154.5973	-146.4606	81.367	67.53461	-151.34262	-368.59251	67.53461	18.71441	-30.10579	41.49717	-13.01872	0
565	-9.76404	-147.27427	-139.13757	76.48498	65.0936	-144.01959	-356.38746	77.29865	26.03744	-22.78276	48.8202	-8.1367	0
566	-2.44101	-135.06922	-134.25555	66.72094	65.0936	-134.25555	-349.06443	82.18067	28.47845	-17.90074	48.8202	-5.69569	0
567	15.45973	-120.42316	-136.69656	52.07488	74.85764	-126.93252	-349.06443	77.29865	23.59643	-20.34175	48.8202	-8.1367	0
568	20.34175	-108.21811	-129.37353	42.31084	74.85764	-117.16848	-341.7414	77.29865	26.03744	-20.34175	48.8202	-8.1367	0
569	25.22377	-113.10013	-139.13757	42.31084	82.18067	-124.49151	-331.97736	77.29865	28.47845	-20.34175	43.93818	-10.57771	0
570	17.90074	-125.30518	-144.01959	52.07488	79.73966	-134.25555	-319.77231	79.73966	33.36047	-20.34175	43.93818	-13.01872	0
571	8.1367	-125.30518	-134.25555	56.9569	69.97562	-129.37353	-305.12625	79.73966	35.80148	-20.34175	41.49717	-15.45973	0
572	13.01872	-125.30518	-139.13757	54.51589	74.85764	-131.81454	-300.24423	77.29865	35.80148	-22.78276	36.61515	-20.34175	0
573	0.81367	-135.06922	-136.69656	66.72094	67.53461	-134.25555	-288.03918	82.18067	38.24249	-22.78276	36.61515	-20.34175	0
574	-12.20505	-152.15629	-141.57858	81.367	65.0936	-146.4606	-275.83413	87.06269	38.24249	-22.78276	34.17414	-22.78276	0
575	-17.08707	-159.47932	-144.01959	86.24902	62.65259	-151.34262	-266.07009	87.06269	38.24249	-25.22377	34.17414	-25.22377	0
576	-12.20505	-149.71528	-139.13757	78.92599	62.65259	-144.01959	-258.74706	87.06269	35.80148	-25.22377	34.17414	-25.22377	0
577	-7.32303	-149.71528	-144.01959	76.48498	67.53461	-146.4606	-256.30605	79.73966	30.91946	-25.22377	31.73313	-25.22377	0
578	-9.76404	-159.47932	-151.34262	83.80801	69.97562	-156.22464	-251.42403	74.85764	26.03744	-25.22377	29.29212	-25.22377	0
579	-21.96909	-166.80235	-146.4606	93.57205	62.65259	-156.22464	-244.101	69.97562	23.59643	-30.10579	26.85111	-27.66478	0
580	-29.29212	-171.68437	-144.01959	98.45407	57.77057	-158.66565	-231.89595	69.97562	26.03744	-27.66478	26.85111	-25.22377	0
581	-26.85111	-169.24336	-144.01959	96.01306	57.77057	-156.22464	-224.57292	65.0936	23.59643	-30.10579	26.85111	-25.22377	0
582	-21.96909	-164.36134	-144.01959	91.13104	60.21158	-153.78363	-222.13191	62.65259	23.59643	-32.5468	21.96909	-30.10579	0
583	-17.08707	-164.36134	-148.90161	88.69003	65.0936	-156.22464	-214.80888	62.65259	23.59643	-37.42882	14.64606	-34.98781	0
584	-19.52808	-166.80235	-148.90161	91.13104	65.0936	-158.66565	-209.92686	62.65259	18.71441	-44.75185	9.76404	-37.42882	0
585	-24.4101	-174.12538	-151.34262	98.45407	62.65259	-163.54767	-202.60383	62.65259	15.45973	-49.63387	4.88202	-37.42882	0
586	-7.32303	-164.36134	-158.66565	83.80801	74.85764	-161.10666	-195.2808	62.65259	15.45973	-52.07488	4.88202	-39.86983	0
587	17.90074	-137.51023	-156.22464	59.39791	87.06269	-146.4606	-185.51676	62.65259	15.45973	-52.07488	4.88202	-34.98781	0
588	20.34175	-142.39225	-163.54767	59.39791	91.94471	-151.34262	-170.8707	62.65259	15.45973	-49.63387	7.32303	-32.5468	0
589	3.25468	-154.5973	-158.66565	74.04397	79.73966	-156.22464	-163.54767	55.32956	10.57771	-52.07488	1.62734	-34.98781	0
590	-2.44101	-161.92033	-161.10666	81.367	79.73966	-161.10666	-151.34262	52.88855	10.57771	-52.07488	1.62734	-34.98781	0
591	-2.44101	-157.03831	-156.22464	78.92599	77.29865	-156.22464	-134.25555	55.32956	13.01872	-52.07488	1.62734	-34.98781	0
592	5.69569	-147.27427	-153.78363	69.16195	79.73966	-148.90161	-126.93252	55.32956	13.01872	-52.07488	1.62734	-32.5468	0
593	8.1367	-149.71528	-158.66565	69.16195	82.18067	-153.78363	-119.60949	52.88855	10.57771	-56.9569	-3.25468	-37.42882	0
594	3.25468	-154.5973	-158.66565	74.04397	79.73966	-156.22464	-104.96343	60.21158	13.01872	-52.07488	-0.81367	-37.42882	0
595	8.1367	-135.06922	-144.01959	61.83892	74.85764	-139.13757	-85.43535	72.41663	23.59643	-42.31084	9.76404	-25.22377	0
596	20.34175	-115.54114	-136.69656	47.19286	77.29865	-124.49151	-68.34828	84.62168	33.36047	-32.5468	19.52808	-15.45973	0
597	37.42882	-98.45407	-136.69656	30.10579	87.06269	-117.16848	-56.14323	89.5037	38.24249	-27.66478	24.4101	-13.01872	0
598	39.86983	-96.01306	-136.69656	27.66478	87.06269	-114.72747	-39.05616	94.38572	45.56552	-22.78276	26.85111	-10.57771	0
599	30.10579	-98.45407	-129.37353	32.5468	79.73966	-112.28646	-14.64606	106.59077	57.77057	-17.90074	31.73313	-5.69569	0
600	10.57771	-108.21811	-119.60949	47.19286	65.0936	-112.28646	17.08707	126.11885	79.73966	-17.90074	31.73313	-5.69569	0
601	8.1367	-110.65912	-119.60949	49.63387	62.65259	-114.72747	47.19286	145.64693	96.82673	-25.22377	19.52808	-15.45973	0
602	13.01872	-115.54114	-129.37353	49.63387	69.97562	-122.0505	74.04397	165.17501	118.79582	-37.42882	7.32303	-32.5468	0
603	8.1367	-115.54114	-124.49151	52.07488	65.0936	-119.60949	103.33609	192.02612	148.08794	-49.63387	-5.69569	-44.75185	0
604	3.25468	-113.10013	-117.16848	54.51589	60.21158	-114.72747	139.95124	231.08228	196.90814	-49.63387	-10.57771	-47.19286	0
605	0.81367	-108.21811	-109.84545	52.07488	55.32956	-107.40444	159.47932	260.3744	245.72834	-49.63387	-15.45973	-54.51589	0
606	5.69569	-86.24902	-92.75838	39.86983	48.00653	-87.87636	137.51023	262.81541	282.34349	-52.07488	-22.78276	-64.27993	0
607	10.57771	-59.39791	-70.78929	22.78276	40.6835	-63.46626	86.24902	243.28733	309.1946	-47.19286	-25.22377	-71.60296	0
608	13.01872	-25.22377	-39.05616	4.88202	26.03744	-31.73313	19.52808	216.43622	345.80975	-34.98781	-17.90074	-69.16195	0
609	20.34175	14.64606	-6.50936	-17.08707	13.83239	5.69569	-75.67131	177.38006	379.98389	-10.57771	-5.69569	-61.83892	0
610	44.75185	61.02525	15.45973	-53.70222	16.2734	39.86983	-197.72181	118.79582	406.835	7.32303	1.62734	-56.9569	0
611	61.83892	126.93252	64.27993	-95.19939	-1.62734	96.01306	-341.7414	48.00653	421.48106	29.29212	12.20505	-52.07488	0
612	88.69003	200.16282	110.65912	-144.01959	-11.39138	157.03831	-493.08402	-23.59643	436.12712	63.46626	31.73313	-37.42882	0
613	127.74619	297.80322	169.24336	-212.36787	-21.15542	235.15063	-641.98563	-101.70875	443.45015	100.08141	51.26121	-22.78276	0
614	169.24336	393.00261	222.94558	-280.71615	-26.03744	308.38093	-800.65128	-199.34915	426.36308	131.81454	65.90727	-13.01872	0
615	213.18154	500.40705	286.41184	-356.38746	-35.80148	393.81628	-956.87592	-304.31258	389.74793	165.98868	82.99434	-0.81367	0
616	247.35568	612.69351	364.52416	-429.61776	-57.77057	489.01567	-1105.77753	-416.59904	331.16369	205.04484	107.40444	21.96909	0
617	274.20679	707.8929	432.87244	-490.64301	-79.73966	572.01001	-1240.03308	-533.76752	248.16935	241.65999	131.81454	41.49717	0
618	296.17588	798.21027	501.22072	-546.78624	-101.70875	650.12233	-1349.87853	-650.936	143.20592	273.39312	153.78363	65.90727	0
619	310.82194	856.79451	545.1589	-583.40139	-116.35481	701.38354	-1437.75489	-768.10448	15.45973	305.12625	180.63474	97.6404	0
620	310.82194	898.29168	586.65607	-605.37048	-138.3239	742.88071	-1506.10317	-885.27296	-128.55986	334.41837	214.80888	136.69656	0
621	298.61689	917.81976	618.3892	-607.81149	-160.29299	769.73182	-1550.04135	-995.11841	-296.98955	366.1515	253.86504	180.63474	0
622	276.6478	905.61471	628.15324	-590.72442	-174.93905	767.29081	-1574.45145	-1100.08184	-482.50631	385.67958	285.59817	219.6909	0
623	249.79669	886.08663	635.47627	-568.75533	-192.02612	762.40879	-1572.01044	-1185.51719	-658.25903	395.44362	314.89029	256.30605	0
624	220.50457	847.03047	625.71223	-534.58119	-201.79016	737.99869	-1540.27731	-1246.54244	-814.48367	397.88463	336.85938	280.71615	0
625	191.21245	790.88724	598.86112	-490.64301	-204.23117	696.50152	-1486.57509	-1285.5986	-948.73922	390.5616	349.06443	302.68524	0
626	161.92033	732.303	569.569	-446.70483	-204.23117	652.56334	-1403.58075	-1288.03961	-1034.17457	383.23857	361.26948	322.21332	0
627	127.74619	678.60078	550.04092	-402.76665	-211.5542	615.94819	-1298.61732	-1258.74749	-1073.23073	371.03352	363.71049	334.41837	0
628	105.7771	629.78058	523.18981	-368.59251	-209.11319	576.89203	-1176.56682	-1197.72224	-1065.9077	351.50544	353.94645	331.97736	0
629	81.367	580.96038	498.77971	-331.97736	-209.11319	540.27688	-1037.42925	-1112.28689	-1014.64649	329.53635	344.18241	329.53635	0
630	71.60296	532.14018	459.72355	-302.68524	-194.46713	496.3387	-898.29168	-1012.20548	-938.97518	307.56726	334.41837	327.09534	0
631	59.39791	483.31998	423.1084	-270.95211	-182.26208	454.84153	-764.03613	-904.80104	-851.09882	285.59817	322.21332	322.21332	0
632	52.07488	444.26382	391.37527	-248.98302	-170.05703	418.22638	-641.98563	-802.27862	-760.78145	261.18807	305.12625	307.56726	0
633	49.63387	397.88463	347.43709	-224.57292	-148.08794	374.2882	-529.69917	-707.07923	-677.78711	231.89595	285.59817	285.59817	0
634	52.07488	349.06443	296.17588	-200.16282	-121.23683	323.02699	-422.29473	-616.76186	-602.1158	202.60383	261.18807	263.62908	0
635	54.51589	305.12625	249.79669	-180.63474	-96.82673	279.08881	-331.97736	-541.09055	-538.64954	170.8707	234.33696	234.33696	0
636	47.19286	258.74706	210.74053	-153.78363	-82.18067	235.15063	-251.42403	-477.62429	-487.38833	141.57858	207.48585	207.48585	0
637	27.66478	205.04484	176.56639	-117.16848	-74.85764	191.21245	-173.31171	-423.92207	-438.56813	117.16848	185.51676	185.51676	0
638	10.57771	161.10666	149.71528	-85.43535	-69.97562	157.03831	-104.96343	-377.54288	-399.51197	95.19939	163.54767	161.10666	0
639	-7.32303	109.84545	115.54114	-51.26121	-60.21158	113.10013	-39.05616	-336.04571	-362.89682	70.78929	136.69656	131.81454	0
640	-36.61515	63.46626	98.45407	-14.64606	-67.53461	81.367	17.08707	-296.98955	-323.84066	53.70222	119.60949	112.28646	0
641	-58.58424	19.52808	76.48498	17.90074	-67.53461	47.19286	66.72094	-260.3744	-292.10753	39.05616	104.96343	97.6404	0
642	-78.11232	-15.45973	61.83892	44.75185	-69.97562	22.78276	110.65912	-228.64127	-265.25642	29.29212	92.75838	85.43535	0
643	-80.55333	-34.98781	44.75185	56.9569	-62.65259	5.69569	147.27427	-201.79016	-245.72834	17.08707	78.11232	70.78929	0
644	-70.78929	-49.63387	20.34175	59.39791	-45.56552	-14.64606	176.56639	-182.26208	-231.08228	7.32303	63.46626	56.14323	0
645	-63.46626	-54.51589	8.1367	56.9569	-35.80148	-24.4101	200.97649	-160.29299	-213.99521	-0.81367	53.70222	48.8202	0
646	-53.70222	-54.51589	-1.62734	52.07488	-26.03744	-29.29212	225.38659	-143.20592	-196.90814	-5.69569	43.93818	36.61515	0
647	-48.8202	-54.51589	-6.50936	49.63387	-21.15542	-31.73313	249.79669	-126.11885	-182.26208	-8.1367	36.61515	31.73313	0
648	-36.61515	-59.39791	-24.4101	47.19286	-6.50936	-41.49717	279.08881	-109.03178	-165.17501	-13.01872	29.29212	24.4101	0
649	-31.73313	-54.51589	-24.4101	42.31084	-4.06835	-39.05616	305.93992	-96.82673	-150.52895	-20.34175	21.96909	17.08707	0
650	-34.17414	-52.07488	-19.52808	42.31084	-8.95037	-36.61515	325.468	-84.62168	-133.44188	-22.78276	17.08707	12.20505	-1250	T-0
651	-43.93818	-54.51589	-11.39138	47.19286	-16.2734	-34.17414	340.11406	-77.29865	-123.67784	-22.78276	12.20505	7.32303	0
652	-43.93818	-54.51589	-11.39138	47.19286	-16.2734	-34.17414	349.8781	-72.41663	-116.35481	-25.22377	4.88202	2.44101	0
653	-48.8202	-54.51589	-6.50936	49.63387	-21.15542	-31.73313	354.76012	-69.97562	-116.35481	-32.5468	-5.69569	-3.25468	0
654	-58.58424	-47.19286	10.57771	52.07488	-35.80148	-19.52808	354.76012	-69.97562	-116.35481	-37.42882	-15.45973	-10.57771	0
655	-70.78929	-42.31084	27.66478	54.51589	-50.44754	-6.50936	352.31911	-69.97562	-116.35481	-37.42882	-20.34175	-10.57771	0
656	-68.34828	-39.86983	27.66478	52.07488	-48.00653	-6.50936	347.43709	-69.97562	-116.35481	-37.42882	-25.22377	-10.57771	0
657	-53.70222	-25.22377	27.66478	37.42882	-40.6835	0.81367	349.8781	-69.97562	-113.9138	-34.98781	-27.66478	-10.57771	0
658	-46.37919	-15.45973	30.10579	30.10579	-38.24249	8.1367	354.76012	-65.0936	-106.59077	-27.66478	-25.22377	-3.25468	0
659	-36.61515	9.76404	44.75185	13.01872	-40.6835	27.66478	369.40618	-52.88855	-94.38572	-13.01872	-13.01872	7.32303	0
660	-9.76404	36.61515	44.75185	-14.64606	-26.03744	39.86983	379.17022	-45.56552	-82.18067	-3.25468	-5.69569	19.52808	0
661	8.1367	41.49717	32.5468	-24.4101	-11.39138	37.42882	381.61123	-40.6835	-74.85764	-0.81367	-3.25468	19.52808	0
662	15.45973	41.49717	25.22377	-29.29212	-4.06835	34.98781	374.2882	-35.80148	-69.97562	-3.25468	-3.25468	17.08707	0
663	5.69569	36.61515	30.10579	-21.96909	-11.39138	34.98781	371.84719	-33.36047	-69.97562	-3.25468	-3.25468	14.64606	0
664	-12.20505	31.73313	42.31084	-9.76404	-26.03744	37.42882	364.52416	-33.36047	-69.97562	-8.1367	-5.69569	14.64606	0
665	-17.08707	21.96909	37.42882	-2.44101	-26.03744	30.10579	354.76012	-38.24249	-77.29865	-17.90074	-15.45973	4.88202	0
666	-26.85111	4.88202	30.10579	10.57771	-28.47845	17.90074	344.99608	-40.6835	-82.18067	-25.22377	-22.78276	-0.81367	0
667	-36.61515	0	34.98781	17.90074	-35.80148	17.90074	342.55507	-45.56552	-82.18067	-25.22377	-25.22377	-0.81367	0
668	-34.17414	12.20505	44.75185	10.57771	-38.24249	27.66478	347.43709	-45.56552	-79.73966	-22.78276	-20.34175	2.44101	0
669	-26.85111	24.4101	49.63387	0	-38.24249	37.42882	357.20113	-43.12451	-74.85764	-17.90074	-17.90074	4.88202	0
670	-12.20505	34.17414	44.75185	-12.20505	-28.47845	39.86983	366.96517	-40.6835	-65.0936	-13.01872	-15.45973	7.32303	0
671	-2.44101	34.17414	34.98781	-17.08707	-18.71441	34.98781	369.40618	-43.12451	-65.0936	-13.01872	-17.90074	4.88202	0
672	-7.32303	31.73313	37.42882	-12.20505	-21.15542	34.98781	369.40618	-43.12451	-67.53461	-15.45973	-20.34175	4.88202	0
673	-12.20505	26.85111	37.42882	-7.32303	-23.59643	32.5468	371.84719	-45.56552	-69.97562	-17.90074	-20.34175	2.44101	0
674	-17.08707	24.4101	39.86983	-4.88202	-28.47845	32.5468	381.61123	-40.6835	-69.97562	-17.90074	-20.34175	-0.81367	0
675	-19.52808	24.4101	42.31084	-2.44101	-30.91946	32.5468	386.49325	-38.24249	-69.97562	-15.45973	-20.34175	-0.81367	0
676	-19.52808	29.29212	47.19286	-4.88202	-33.36047	37.42882	393.81628	-43.12451	-74.85764	-20.34175	-25.22377	-0.81367	0
677	-24.4101	31.73313	54.51589	-4.88202	-38.24249	42.31084	406.02133	-43.12451	-74.85764	-20.34175	-25.22377	-0.81367	0
678	-26.85111	41.49717	66.72094	-7.32303	-45.56552	54.51589	423.1084	-45.56552	-72.41663	-17.90074	-22.78276	-0.81367	0
679	-26.85111	48.8202	74.04397	-12.20505	-50.44754	61.83892	442.63648	-48.00653	-72.41663	-17.90074	-20.34175	-0.81367	0
680	-26.85111	48.8202	74.04397	-12.20505	-50.44754	61.83892	454.84153	-52.88855	-72.41663	-20.34175	-22.78276	-0.81367	0
681	-29.29212	39.05616	66.72094	-4.88202	-48.00653	52.07488	459.72355	-57.77057	-72.41663	-22.78276	-25.22377	-3.25468	0
682	-34.17414	24.4101	56.9569	4.88202	-45.56552	39.86983	467.04658	-62.65259	-77.29865	-27.66478	-30.10579	-8.1367	0
683	-39.05616	19.52808	56.9569	7.32303	-48.00653	37.42882	479.25163	-60.21158	-74.85764	-25.22377	-27.66478	-5.69569	0
684	-36.61515	19.52808	54.51589	7.32303	-45.56552	37.42882	496.3387	-57.77057	-69.97562	-20.34175	-22.78276	-0.81367	0
685	-41.49717	19.52808	59.39791	10.57771	-50.44754	39.86983	506.10274	-55.32956	-69.97562	-17.90074	-17.90074	-0.81367	0
686	-41.49717	24.4101	64.27993	7.32303	-52.88855	44.75185	518.30779	-55.32956	-69.97562	-15.45973	-15.45973	-0.81367	0
687	-39.05616	34.17414	71.60296	2.44101	-55.32956	52.07488	535.39486	-57.77057	-69.97562	-17.90074	-17.90074	-0.81367	0
688	-36.61515	43.93818	78.92599	-4.88202	-57.77057	61.83892	557.36395	-57.77057	-67.53461	-17.90074	-20.34175	-0.81367	0
689	-34.17414	46.37919	78.92599	-7.32303	-55.32956	61.83892	574.45102	-62.65259	-67.53461	-22.78276	-22.78276	-3.25468	0
690	-34.17414	48.8202	81.367	-7.32303	-57.77057	64.27993	591.53809	-67.53461	-67.53461	-27.66478	-25.22377	-8.1367	0
691	-24.4101	56.14323	78.92599	-17.08707	-50.44754	66.72094	606.18415	-67.53461	-67.53461	-34.98781	-30.10579	-8.1367	0
692	-17.08707	61.02525	76.48498	-21.96909	-45.56552	69.16195	613.50718	-69.97562	-67.53461	-39.86983	-32.5468	-8.1367	0
693	-19.52808	58.58424	76.48498	-19.52808	-48.00653	66.72094	630.59425	-65.0936	-65.0936	-39.86983	-32.5468	-8.1367	0
694	-26.85111	51.26121	76.48498	-12.20505	-50.44754	64.27993	642.7993	-65.0936	-65.0936	-39.86983	-27.66478	-3.25468	0
695	-34.17414	61.02525	93.57205	-14.64606	-62.65259	76.48498	655.00435	-60.21158	-60.21158	-32.5468	-20.34175	2.44101	0
696	-36.61515	78.11232	113.10013	-21.96909	-74.85764	96.01306	662.32738	-57.77057	-57.77057	-30.10579	-15.45973	7.32303	0
697	-36.61515	82.99434	117.98215	-24.4101	-77.29865	100.89508	672.09142	-57.77057	-55.32956	-27.66478	-10.57771	9.76404	0
698	-53.70222	75.67131	127.74619	-12.20505	-89.5037	100.89508	679.41445	-60.21158	-52.88855	-25.22377	-10.57771	9.76404	0
699	-61.02525	75.67131	135.06922	-7.32303	-96.82673	105.7771	681.85546	-62.65259	-50.44754	-25.22377	-10.57771	7.32303	0
700	-56.14323	95.19939	149.71528	-19.52808	-101.70875	122.86417	686.73748	-57.77057	-40.6835	-20.34175	-5.69569	9.76404	0
701	-43.93818	104.96343	147.27427	-31.73313	-94.38572	125.30518	681.85546	-57.77057	-38.24249	-20.34175	-5.69569	9.76404	0
702	-29.29212	104.96343	132.62821	-39.05616	-79.73966	117.98215	667.2094	-62.65259	-38.24249	-22.78276	-13.01872	4.88202	0
703	-36.61515	97.6404	132.62821	-31.73313	-84.62168	115.54114	657.44536	-62.65259	-38.24249	-22.78276	-17.90074	-0.81367	0
704	-26.85111	104.96343	130.1872	-39.05616	-77.29865	117.98215	645.24031	-65.0936	-40.6835	-27.66478	-22.78276	-3.25468	0
705	-17.08707	109.84545	125.30518	-46.37919	-69.97562	117.98215	635.47627	-65.0936	-40.6835	-25.22377	-25.22377	-3.25468	0
706	-14.64606	100.08141	113.10013	-43.93818	-62.65259	105.7771	620.83021	-67.53461	-45.56552	-27.66478	-30.10579	-5.69569	0
707	-17.08707	92.75838	108.21811	-39.05616	-62.65259	100.89508	603.74314	-77.29865	-50.44754	-30.10579	-32.5468	-8.1367	0
708	-26.85111	92.75838	117.98215	-34.17414	-72.41663	105.7771	598.86112	-79.73966	-50.44754	-27.66478	-32.5468	-10.57771	0
709	-29.29212	97.6404	125.30518	-34.17414	-77.29865	110.65912	596.42011	-82.18067	-48.00653	-20.34175	-25.22377	-5.69569	0
710	-26.85111	112.28646	137.51023	-43.93818	-82.18067	125.30518	596.42011	-82.18067	-40.6835	-15.45973	-20.34175	-3.25468	0
711	-29.29212	117.16848	144.83326	-43.93818	-87.06269	130.1872	593.9791	-79.73966	-35.80148	-8.1367	-15.45973	2.44101	0
712	-24.4101	139.13757	161.92033	-58.58424	-91.94471	149.71528	591.53809	-77.29865	-30.91946	-0.81367	-8.1367	9.76404	0
713	-19.52808	156.22464	174.12538	-68.34828	-96.82673	164.36134	591.53809	-74.85764	-26.03744	2.44101	-3.25468	14.64606	0
714	-2.44101	178.19373	179.0074	-87.87636	-89.5037	179.0074	596.42011	-67.53461	-18.71441	9.76404	1.62734	21.96909	0
715	20.34175	192.83979	171.68437	-107.40444	-74.85764	183.88942	598.86112	-60.21158	-11.39138	19.52808	9.76404	31.73313	0
716	30.10579	207.48585	176.56639	-119.60949	-72.41663	193.65346	591.53809	-62.65259	-11.39138	21.96909	9.76404	31.73313	0
717	25.22377	214.80888	188.77144	-119.60949	-82.18067	203.4175	589.09708	-67.53461	-11.39138	24.4101	12.20505	31.73313	0
718	22.78276	214.80888	191.21245	-119.60949	-84.62168	203.4175	584.21506	-74.85764	-13.83239	21.96909	4.88202	21.96909	0
719	15.45973	207.48585	191.21245	-112.28646	-87.06269	200.97649	574.45102	-87.06269	-21.15542	17.08707	-0.81367	12.20505	0
720	-2.44101	202.60383	203.4175	-100.08141	-101.70875	203.4175	564.68698	-94.38572	-23.59643	12.20505	-5.69569	4.88202	0
721	-24.4101	190.39878	213.18154	-82.99434	-118.79582	200.97649	550.04092	-106.59077	-30.91946	7.32303	-13.01872	-0.81367	0
722	-41.49717	183.07575	222.94558	-70.78929	-131.00087	203.4175	532.95385	-113.9138	-38.24249	2.44101	-15.45973	-5.69569	0
723	-41.49717	178.19373	218.06356	-68.34828	-128.55986	198.53548	523.18981	-118.79582	-40.6835	-0.81367	-17.90074	-5.69569	0
724	-29.29212	183.07575	210.74053	-78.11232	-118.79582	196.09447	513.42577	-121.23683	-43.12451	-0.81367	-17.90074	-5.69569	0
725	-19.52808	205.04484	222.94558	-92.75838	-121.23683	213.18154	508.54375	-116.35481	-38.24249	4.88202	-10.57771	2.44101	0
726	-14.64606	224.57292	237.59164	-104.96343	-126.11885	230.26861	503.66173	-113.9138	-33.36047	12.20505	-0.81367	12.20505	0
727	-9.76404	236.77797	244.91467	-114.72747	-126.11885	240.03265	503.66173	-111.47279	-28.47845	19.52808	1.62734	17.08707	0
728	-14.64606	248.98302	262.00174	-117.16848	-138.3239	254.67871	508.54375	-111.47279	-23.59643	26.85111	9.76404	24.4101	0
729	-12.20505	266.07009	276.6478	-126.93252	-143.20592	271.76578	503.66173	-113.9138	-18.71441	26.85111	9.76404	24.4101	0
730	-7.32303	280.71615	286.41184	-136.69656	-145.64693	283.97083	498.77971	-116.35481	-16.2734	29.29212	9.76404	24.4101	0
731	-14.64606	283.15716	296.17588	-134.25555	-155.41097	288.85285	486.57466	-118.79582	-13.83239	29.29212	9.76404	21.96909	0
732	-14.64606	280.71615	293.73487	-134.25555	-152.96996	286.41184	471.9286	-126.11885	-16.2734	24.4101	1.62734	17.08707	0
733	-9.76404	285.59817	293.73487	-139.13757	-150.52895	288.85285	459.72355	-128.55986	-21.15542	21.96909	-0.81367	12.20505	0
734	-14.64606	290.48019	303.49891	-139.13757	-157.85198	296.17588	452.40052	-133.44188	-23.59643	21.96909	-3.25468	9.76404	0
735	-17.08707	300.24423	315.70396	-141.57858	-165.17501	308.38093	445.07749	-131.00087	-21.15542	26.85111	-0.81367	12.20505	0
736	-24.4101	305.12625	327.90901	-141.57858	-174.93905	315.70396	442.63648	-128.55986	-18.71441	31.73313	1.62734	14.64606	0
737	-29.29212	314.89029	342.55507	-144.01959	-184.70309	327.90901	445.07749	-126.11885	-13.83239	43.93818	7.32303	21.96909	0
738	-21.96909	334.41837	354.76012	-156.22464	-187.1441	344.99608	445.07749	-123.67784	-6.50936	53.70222	14.64606	26.85111	0
739	-12.20505	353.94645	364.52416	-170.8707	-187.1441	359.64214	445.07749	-123.67784	-1.62734	61.02525	19.52808	31.73313	0
740	-12.20505	358.82847	369.40618	-173.31171	-189.58511	364.52416	442.63648	-118.79582	10.57771	65.90727	24.4101	36.61515	0
741	-14.64606	351.50544	364.52416	-168.42969	-189.58511	357.20113	427.99042	-121.23683	13.01872	63.46626	21.96909	34.17414	0
742	-14.64606	344.18241	357.20113	-165.98868	-184.70309	349.8781	406.02133	-128.55986	8.1367	56.14323	14.64606	24.4101	0
743	-12.20505	341.7414	352.31911	-165.98868	-182.26208	347.43709	391.37527	-131.00087	5.69569	53.70222	12.20505	21.96909	0
744	-26.85111	331.97736	357.20113	-153.78363	-192.02612	344.99608	381.61123	-133.44188	5.69569	48.8202	7.32303	14.64606	0
745	-29.29212	336.85938	364.52416	-153.78363	-196.90814	349.8781	376.72921	-128.55986	8.1367	46.37919	4.88202	12.20505	0
746	-24.4101	349.06443	371.84719	-163.54767	-196.90814	359.64214	369.40618	-128.55986	8.1367	43.93818	1.62734	2.44101	0
747	-2.44101	363.71049	364.52416	-180.63474	-182.26208	364.52416	374.2882	-128.55986	8.1367	41.49717	-0.81367	-0.81367	0
748	15.45973	390.5616	374.2882	-202.60383	-179.82107	384.05224	391.37527	-116.35481	23.59643	53.70222	7.32303	7.32303	0
749	30.10579	412.53069	381.61123	-222.13191	-174.93905	398.6983	410.90335	-101.70875	38.24249	63.46626	14.64606	14.64606	0
750	47.19286	434.49978	386.49325	-241.65999	-170.05703	410.90335	423.1084	-91.94471	52.88855	65.90727	17.08707	14.64606	0
751	52.07488	441.82281	388.93426	-246.54201	-167.61602	415.78537	430.43143	-82.18067	62.65259	68.34828	19.52808	19.52808	0
752	52.07488	439.3818	386.49325	-246.54201	-167.61602	413.34436	427.99042	-74.85764	72.41663	70.78929	21.96909	24.4101	0
753	59.39791	444.26382	384.05224	-251.42403	-162.734	415.78537	430.43143	-60.21158	84.62168	78.11232	29.29212	31.73313	0
754	52.07488	441.82281	388.93426	-246.54201	-167.61602	415.78537	423.1084	-57.77057	87.06269	78.11232	26.85111	29.29212	0
755	27.66478	419.85372	391.37527	-224.57292	-182.26208	406.02133	406.02133	-55.32956	87.06269	75.67131	26.85111	24.4101	0
756	5.69569	400.32564	393.81628	-202.60383	-194.46713	398.6983	391.37527	-50.44754	87.06269	75.67131	26.85111	26.85111	0
757	5.69569	393.00261	386.49325	-200.16282	-189.58511	391.37527	381.61123	-48.00653	89.5037	75.67131	24.4101	24.4101	0
758	15.45973	390.5616	374.2882	-202.60383	-179.82107	384.05224	374.2882	-45.56552	94.38572	73.2303	19.52808	19.52808	0
759	20.34175	395.44362	374.2882	-207.48585	-177.38006	386.49325	369.40618	-40.6835	99.26774	68.34828	14.64606	12.20505	0
760	22.78276	393.00261	369.40618	-207.48585	-172.49804	381.61123	366.96517	-35.80148	109.03178	65.90727	12.20505	9.76404	0
761	30.10579	388.12059	357.20113	-209.92686	-162.734	374.2882	362.08315	-28.47845	113.9138	63.46626	12.20505	7.32303	0
762	34.98781	388.12059	352.31911	-212.36787	-157.85198	371.84719	357.20113	-18.71441	118.79582	61.02525	7.32303	2.44101	0
763	39.86983	378.35655	337.67305	-209.92686	-148.08794	359.64214	359.64214	-6.50936	126.11885	58.58424	7.32303	4.88202	0
764	37.42882	361.26948	323.02699	-200.16282	-143.20592	342.55507	359.64214	3.25468	133.44188	53.70222	4.88202	2.44101	0
765	22.78276	336.85938	313.26295	-180.63474	-145.64693	325.468	352.31911	13.01872	135.88289	51.26121	1.62734	-0.81367	0
766	8.1367	312.44928	303.49891	-161.10666	-148.08794	308.38093	347.43709	22.78276	140.76491	48.8202	1.62734	-0.81367	0
767	0.81367	295.36221	293.73487	-148.90161	-145.64693	296.17588	347.43709	27.66478	145.64693	46.37919	1.62734	-3.25468	0
768	10.57771	280.71615	269.32477	-146.4606	-128.55986	276.6478	349.8781	38.24249	152.96996	43.93818	-0.81367	-5.69569	0
769	10.57771	268.5111	257.11972	-139.13757	-123.67784	264.44275	344.99608	40.6835	155.41097	34.17414	-10.57771	-15.45973	0
770	8.1367	261.18807	252.2377	-134.25555	-121.23683	257.11972	340.11406	45.56552	157.85198	29.29212	-13.01872	-20.34175	0
771	22.78276	261.18807	237.59164	-141.57858	-106.59077	249.79669	332.79103	57.77057	165.17501	29.29212	-10.57771	-20.34175	0
772	39.86983	268.5111	227.8276	-153.78363	-94.38572	249.79669	323.02699	69.97562	172.49804	31.73313	-10.57771	-17.90074	0
773	27.66478	256.30605	227.8276	-141.57858	-99.26774	242.47366	303.49891	74.85764	172.49804	21.96909	-15.45973	-25.22377	0
774	22.78276	234.33696	210.74053	-129.37353	-94.38572	222.94558	281.52982	82.18067	172.49804	14.64606	-22.78276	-30.10579	0
775	25.22377	217.24989	191.21245	-122.0505	-82.18067	205.85851	266.88376	99.26774	179.82107	14.64606	-20.34175	-30.10579	0
776	30.10579	200.16282	169.24336	-114.72747	-69.97562	186.33043	257.11972	116.35481	189.58511	17.08707	-17.90074	-27.66478	0
777	27.66478	178.19373	149.71528	-102.52242	-60.21158	164.36134	252.2377	126.11885	194.46713	14.64606	-17.90074	-30.10579	0
778	15.45973	151.34262	135.06922	-82.99434	-60.21158	144.83326	252.2377	133.44188	196.90814	12.20505	-17.90074	-32.5468	0
779	13.01872	131.81454	117.98215	-73.2303	-52.88855	125.30518	259.56073	140.76491	201.79016	12.20505	-15.45973	-32.5468	0
780	25.22377	131.81454	105.7771	-78.11232	-40.6835	120.42316	271.76578	152.96996	211.5542	17.08707	-10.57771	-27.66478	0
781	25.22377	134.25555	108.21811	-80.55333	-40.6835	122.86417	279.08881	162.734	216.43622	19.52808	-5.69569	-25.22377	0
782	20.34175	129.37353	108.21811	-75.67131	-43.12451	120.42316	279.08881	167.61602	216.43622	14.64606	-8.1367	-25.22377	0
783	22.78276	119.60949	96.01306	-70.78929	-35.80148	108.21811	276.6478	172.49804	213.99521	12.20505	-8.1367	-25.22377	0
784	13.01872	102.52242	88.69003	-58.58424	-38.24249	96.01306	271.76578	174.93905	209.11319	7.32303	-8.1367	-30.10579	0
785	10.57771	85.43535	74.04397	-48.8202	-30.91946	81.367	262.00174	174.93905	199.34915	-0.81367	-17.90074	-37.42882	0
786	3.25468	58.58424	54.51589	-31.73313	-26.03744	56.9569	249.79669	172.49804	189.58511	-5.69569	-22.78276	-42.31084	0
787	5.69569	41.49717	34.98781	-24.4101	-13.83239	39.86983	237.59164	165.17501	179.82107	-15.45973	-30.10579	-49.63387	0
788	17.90074	34.17414	15.45973	-26.85111	0.81367	25.22377	230.26861	160.29299	170.05703	-20.34175	-34.98781	-56.9569	0
789	27.66478	31.73313	3.25468	-29.29212	13.83239	17.90074	227.8276	155.41097	165.17501	-22.78276	-34.98781	-56.9569	0
790	32.5468	29.29212	-4.06835	-31.73313	18.71441	13.01872	225.38659	152.96996	162.734	-25.22377	-34.98781	-56.9569	0
791	37.42882	24.4101	-14.64606	-31.73313	26.03744	5.69569	218.06356	150.52895	157.85198	-25.22377	-34.98781	-52.07488	0
792	32.5468	19.52808	-14.64606	-26.85111	23.59643	3.25468	213.18154	150.52895	152.96996	-25.22377	-32.5468	-49.63387	0
793	30.10579	17.08707	-14.64606	-24.4101	23.59643	3.25468	210.74053	148.08794	145.64693	-25.22377	-30.10579	-49.63387	0
794	15.45973	4.88202	-11.39138	-9.76404	13.83239	-1.62734	210.74053	143.20592	135.88289	-30.10579	-34.98781	-49.63387	0
795	5.69569	-15.45973	-21.96909	4.88202	13.83239	-17.08707	205.85851	140.76491	126.11885	-34.98781	-39.86983	-49.63387	0
796	5.69569	-17.90074	-24.4101	4.88202	13.83239	-19.52808	203.4175	135.88289	116.35481	-39.86983	-42.31084	-52.07488	0
797	10.57771	-25.22377	-36.61515	7.32303	23.59643	-29.29212	203.4175	126.11885	104.14976	-44.75185	-44.75185	-54.51589	0
798	13.01872	-37.42882	-51.26121	10.57771	30.91946	-43.93818	208.29952	116.35481	91.94471	-49.63387	-49.63387	-54.51589	0
799	5.69569	-59.39791	-65.90727	25.22377	35.80148	-61.02525	215.62255	111.47279	84.62168	-52.07488	-54.51589	-56.9569	0
800	-4.88202	-76.48498	-73.2303	39.86983	33.36047	-75.67131	220.50457	104.14976	82.18067	-52.07488	-54.51589	-54.51589	0
801	-2.44101	-76.48498	-75.67131	37.42882	35.80148	-75.67131	220.50457	101.70875	77.29865	-52.07488	-54.51589	-54.51589	0
802	-12.20505	-81.367	-70.78929	44.75185	28.47845	-75.67131	218.06356	101.70875	74.85764	-44.75185	-54.51589	-49.63387	0
803	-26.85111	-100.89508	-75.67131	61.83892	23.59643	-87.87636	213.18154	99.26774	69.97562	-44.75185	-59.39791	-49.63387	0
804	-29.29212	-100.89508	-73.2303	64.27993	21.15542	-87.87636	208.29952	99.26774	65.0936	-44.75185	-59.39791	-47.19286	0
805	-17.08707	-81.367	-65.90727	47.19286	23.59643	-73.2303	205.85851	101.70875	65.0936	-42.31084	-56.9569	-44.75185	0
806	-14.64606	-71.60296	-58.58424	42.31084	21.15542	-65.90727	203.4175	101.70875	60.21158	-39.86983	-56.9569	-42.31084	0
807	-12.20505	-74.04397	-63.46626	42.31084	26.03744	-68.34828	205.85851	99.26774	57.77057	-37.42882	-52.07488	-37.42882	0
808	-26.85111	-86.24902	-61.02525	54.51589	16.2734	-73.2303	205.85851	89.5037	48.00653	-42.31084	-56.9569	-39.86983	0
809	-29.29212	-96.01306	-68.34828	61.83892	18.71441	-82.99434	208.29952	79.73966	40.6835	-47.19286	-64.27993	-44.75185	0
810	-36.61515	-93.57205	-58.58424	64.27993	11.39138	-75.67131	218.06356	79.73966	43.12451	-47.19286	-61.83892	-44.75185	0
811	-43.93818	-96.01306	-53.70222	69.16195	3.25468	-75.67131	220.50457	82.18067	45.56552	-44.75185	-59.39791	-42.31084	0
812	-39.05616	-96.01306	-58.58424	66.72094	8.95037	-78.11232	220.50457	79.73966	45.56552	-44.75185	-59.39791	-39.86983	0
813	-26.85111	-83.80801	-58.58424	54.51589	16.2734	-70.78929	213.18154	79.73966	43.12451	-42.31084	-56.9569	-39.86983	0
814	-4.88202	-81.367	-78.11232	42.31084	35.80148	-80.55333	208.29952	79.73966	38.24249	-47.19286	-59.39791	-42.31084	0
815	10.57771	-74.04397	-85.43535	30.10579	48.00653	-78.11232	205.85851	84.62168	38.24249	-44.75185	-54.51589	-37.42882	0
816	20.34175	-69.16195	-90.31737	22.78276	55.32956	-78.11232	200.97649	84.62168	35.80148	-44.75185	-52.07488	-34.98781	0
817	8.1367	-83.80801	-92.75838	37.42882	50.44754	-87.87636	200.97649	77.29865	28.47845	-44.75185	-49.63387	-34.98781	0
818	-4.88202	-88.69003	-85.43535	44.75185	40.6835	-87.87636	210.74053	69.97562	23.59643	-47.19286	-52.07488	-37.42882	0
819	-4.88202	-88.69003	-85.43535	44.75185	40.6835	-87.87636	220.50457	67.53461	23.59643	-49.63387	-54.51589	-37.42882	0
820	-17.08707	-98.45407	-82.99434	56.9569	33.36047	-90.31737	232.70962	62.65259	23.59643	-52.07488	-56.9569	-42.31084	0
821	-39.05616	-115.54114	-78.11232	76.48498	18.71441	-97.6404	242.47366	57.77057	18.71441	-56.9569	-64.27993	-49.63387	0
822	-63.46626	-130.1872	-68.34828	96.01306	0.81367	-100.08141	252.2377	52.88855	15.45973	-61.83892	-69.16195	-56.9569	0
823	-63.46626	-135.06922	-73.2303	98.45407	3.25468	-104.96343	262.00174	50.44754	13.01872	-66.72094	-74.04397	-61.83892	0
824	-51.26121	-127.74619	-78.11232	88.69003	13.83239	-102.52242	276.6478	50.44754	13.01872	-66.72094	-74.04397	-61.83892	0
825	-41.49717	-125.30518	-85.43535	81.367	21.15542	-104.96343	291.29386	55.32956	15.45973	-61.83892	-69.16195	-56.9569	0
826	-34.17414	-122.86417	-90.31737	76.48498	28.47845	-107.40444	301.0579	55.32956	13.01872	-59.39791	-66.72094	-56.9569	0
827	-31.73313	-117.98215	-87.87636	74.04397	28.47845	-102.52242	310.82194	55.32956	10.57771	-56.9569	-59.39791	-52.07488	0
828	-12.20505	-93.57205	-82.99434	52.07488	35.80148	-87.87636	330.35002	57.77057	15.45973	-49.63387	-52.07488	-42.31084	0
829	13.01872	-76.48498	-90.31737	30.10579	50.44754	-82.99434	352.31911	62.65259	21.15542	-42.31084	-42.31084	-30.10579	0
830	20.34175	-64.27993	-85.43535	20.34175	52.88855	-73.2303	374.2882	67.53461	30.91946	-37.42882	-37.42882	-22.78276	0
831	25.22377	-56.9569	-82.99434	15.45973	52.88855	-68.34828	391.37527	67.53461	33.36047	-37.42882	-37.42882	-22.78276	0
832	32.5468	-52.07488	-85.43535	7.32303	57.77057	-68.34828	403.58032	65.0936	30.91946	-39.86983	-39.86983	-25.22377	0
833	34.98781	-49.63387	-85.43535	7.32303	60.21158	-65.90727	423.1084	65.0936	28.47845	-42.31084	-42.31084	-27.66478	0
834	22.78276	-61.83892	-85.43535	17.90074	52.88855	-73.2303	445.07749	62.65259	26.03744	-47.19286	-47.19286	-34.98781	0
835	0.81367	-81.367	-82.99434	39.86983	40.6835	-80.55333	459.72355	55.32956	18.71441	-52.07488	-52.07488	-42.31084	0
836	-34.17414	-100.89508	-68.34828	66.72094	16.2734	-85.43535	474.36961	52.88855	13.01872	-56.9569	-54.51589	-44.75185	0
837	-36.61515	-103.33609	-68.34828	69.16195	16.2734	-85.43535	489.01567	48.00653	8.1367	-56.9569	-54.51589	-47.19286	0
838	-31.73313	-105.7771	-75.67131	66.72094	21.15542	-90.31737	503.66173	40.6835	5.69569	-59.39791	-54.51589	-47.19286	0
839	-26.85111	-100.89508	-75.67131	61.83892	23.59643	-87.87636	523.18981	43.12451	8.1367	-54.51589	-47.19286	-42.31084	0
840	-17.08707	-93.57205	-78.11232	54.51589	30.91946	-85.43535	542.71789	43.12451	10.57771	-52.07488	-47.19286	-39.86983	0
841	-2.44101	-76.48498	-75.67131	37.42882	35.80148	-75.67131	562.24597	43.12451	13.01872	-49.63387	-42.31084	-37.42882	0
842	10.57771	-64.27993	-75.67131	25.22377	43.12451	-68.34828	579.33304	45.56552	15.45973	-47.19286	-42.31084	-37.42882	0
843	27.66478	-64.27993	-92.75838	17.90074	60.21158	-78.11232	591.53809	43.12451	8.1367	-54.51589	-44.75185	-42.31084	0
844	17.90074	-78.92599	-97.6404	30.10579	57.77057	-87.87636	606.18415	43.12451	3.25468	-56.9569	-49.63387	-47.19286	0
845	-2.44101	-93.57205	-92.75838	47.19286	45.56552	-92.75838	615.94819	40.6835	-1.62734	-61.83892	-52.07488	-47.19286	0
846	-14.64606	-103.33609	-90.31737	56.9569	38.24249	-97.6404	623.27122	38.24249	-6.50936	-61.83892	-54.51589	-49.63387	0
847	-34.17414	-117.98215	-85.43535	74.04397	26.03744	-102.52242	633.03526	35.80148	-8.95037	-61.83892	-56.9569	-52.07488	0
848	-36.61515	-127.74619	-92.75838	81.367	28.47845	-109.84545	645.24031	35.80148	-11.39138	-61.83892	-56.9569	-47.19286	0
849	-41.49717	-122.86417	-82.99434	81.367	21.15542	-102.52242	662.32738	35.80148	-8.95037	-56.9569	-52.07488	-42.31084	0
850	-48.8202	-117.98215	-70.78929	81.367	11.39138	-95.19939	681.85546	40.6835	-1.62734	-49.63387	-47.19286	-37.42882	0
851	-43.93818	-108.21811	-65.90727	74.04397	11.39138	-87.87636	698.94253	40.6835	0.81367	-52.07488	-52.07488	-42.31084	0
852	-43.93818	-103.33609	-61.02525	71.60296	8.95037	-82.99434	713.58859	43.12451	5.69569	-52.07488	-52.07488	-42.31084	0
853	-31.73313	-91.13104	-61.02525	59.39791	13.83239	-75.67131	733.11667	52.88855	15.45973	-44.75185	-44.75185	-37.42882	0
854	-14.64606	-83.80801	-70.78929	47.19286	28.47845	-78.11232	750.20374	60.21158	21.15542	-42.31084	-39.86983	-32.5468	0
855	-7.32303	-83.80801	-78.11232	44.75185	35.80148	-80.55333	757.52677	60.21158	21.15542	-47.19286	-44.75185	-37.42882	0
856	-7.32303	-88.69003	-82.99434	47.19286	38.24249	-85.43535	759.96778	60.21158	18.71441	-54.51589	-49.63387	-44.75185	0
857	-31.73313	-110.65912	-80.55333	69.16195	23.59643	-95.19939	762.40879	57.77057	15.45973	-54.51589	-52.07488	-47.19286	0
858	-43.93818	-125.30518	-82.99434	83.80801	18.71441	-104.96343	759.96778	57.77057	15.45973	-54.51589	-52.07488	-49.63387	0
859	-48.8202	-132.62821	-85.43535	88.69003	18.71441	-109.84545	745.32172	52.88855	13.01872	-59.39791	-56.9569	-52.07488	0
860	-51.26121	-130.1872	-80.55333	88.69003	13.83239	-104.96343	728.23465	50.44754	13.01872	-61.83892	-56.9569	-56.9569	0
861	-46.37919	-122.86417	-78.11232	83.80801	16.2734	-100.08141	711.14758	50.44754	15.45973	-61.83892	-56.9569	-56.9569	0
862	-46.37919	-122.86417	-78.11232	83.80801	16.2734	-100.08141	689.17849	57.77057	23.59643	-56.9569	-49.63387	-49.63387	0
863	-31.73313	-103.33609	-73.2303	66.72094	21.15542	-87.87636	667.2094	62.65259	30.91946	-52.07488	-44.75185	-44.75185	0
864	-14.64606	-86.24902	-73.2303	49.63387	28.47845	-80.55333	645.24031	67.53461	35.80148	-47.19286	-39.86983	-39.86983	0
865	-2.44101	-76.48498	-75.67131	37.42882	35.80148	-75.67131	623.27122	74.85764	43.12451	-47.19286	-39.86983	-39.86983	0
866	5.69569	-81.367	-87.87636	37.42882	45.56552	-82.99434	603.74314	79.73966	45.56552	-44.75185	-37.42882	-37.42882	0
867	-7.32303	-98.45407	-92.75838	52.07488	43.12451	-95.19939	586.65607	79.73966	40.6835	-47.19286	-39.86983	-42.31084	0
868	-9.76404	-108.21811	-100.08141	56.9569	45.56552	-104.96343	576.89203	77.29865	35.80148	-49.63387	-44.75185	-47.19286	0
869	-14.64606	-120.42316	-107.40444	66.72094	45.56552	-114.72747	564.68698	74.85764	28.47845	-54.51589	-49.63387	-54.51589	0
870	-14.64606	-125.30518	-112.28646	69.16195	48.00653	-119.60949	559.80496	77.29865	28.47845	-54.51589	-52.07488	-54.51589	0
871	-12.20505	-125.30518	-114.72747	66.72094	50.44754	-119.60949	559.80496	79.73966	30.91946	-54.51589	-49.63387	-52.07488	0
872	-17.08707	-117.98215	-102.52242	66.72094	43.12451	-109.84545	567.12799	84.62168	35.80148	-49.63387	-42.31084	-49.63387	0
873	-19.52808	-108.21811	-90.31737	61.83892	35.80148	-100.08141	574.45102	87.06269	40.6835	-47.19286	-39.86983	-47.19286	0
874	-17.08707	-100.89508	-85.43535	56.9569	33.36047	-92.75838	576.89203	91.94471	45.56552	-44.75185	-34.98781	-42.31084	0
875	-14.64606	-91.13104	-78.11232	52.07488	30.91946	-85.43535	581.77405	94.38572	50.44754	-42.31084	-32.5468	-42.31084	0
876	-2.44101	-83.80801	-82.99434	42.31084	40.6835	-82.99434	584.21506	96.82673	52.88855	-39.86983	-30.10579	-39.86983	0
877	5.69569	-86.24902	-92.75838	39.86983	48.00653	-87.87636	593.9791	96.82673	50.44754	-39.86983	-32.5468	-39.86983	0
878	-2.44101	-100.89508	-100.08141	49.63387	48.00653	-100.08141	601.30213	89.5037	43.12451	-47.19286	-39.86983	-49.63387	0
879	-12.20505	-115.54114	-104.96343	61.83892	45.56552	-109.84545	606.18415	82.18067	33.36047	-54.51589	-49.63387	-56.9569	0
880	-7.32303	-113.10013	-107.40444	59.39791	50.44754	-109.84545	615.94819	79.73966	28.47845	-56.9569	-49.63387	-61.83892	0
881	-4.88202	-113.10013	-109.84545	56.9569	52.88855	-112.28646	628.15324	77.29865	23.59643	-56.9569	-49.63387	-61.83892	0
882	-7.32303	-115.54114	-109.84545	59.39791	50.44754	-112.28646	645.24031	77.29865	23.59643	-56.9569	-47.19286	-59.39791	0
883	-19.52808	-120.42316	-102.52242	69.16195	40.6835	-112.28646	657.44536	74.85764	23.59643	-59.39791	-49.63387	-61.83892	0
884	-26.85111	-127.74619	-102.52242	76.48498	38.24249	-114.72747	672.09142	74.85764	26.03744	-59.39791	-44.75185	-59.39791	0
885	-9.76404	-117.98215	-109.84545	61.83892	50.44754	-114.72747	684.29647	79.73966	33.36047	-54.51589	-39.86983	-56.9569	0
886	3.25468	-108.21811	-112.28646	52.07488	57.77057	-109.84545	701.38354	87.06269	40.6835	-49.63387	-34.98781	-49.63387	0
887	8.1367	-113.10013	-122.0505	52.07488	65.0936	-117.16848	723.35263	94.38572	48.00653	-44.75185	-30.10579	-44.75185	0
888	8.1367	-113.10013	-122.0505	52.07488	65.0936	-117.16848	735.55768	96.82673	50.44754	-42.31084	-30.10579	-42.31084	0
889	8.1367	-115.54114	-124.49151	52.07488	65.0936	-119.60949	742.88071	101.70875	52.88855	-42.31084	-27.66478	-39.86983	0
890	8.1367	-115.54114	-124.49151	52.07488	65.0936	-119.60949	745.32172	104.14976	52.88855	-42.31084	-27.66478	-39.86983	0
891	-2.44101	-113.10013	-112.28646	56.9569	55.32956	-112.28646	737.99869	104.14976	55.32956	-39.86983	-22.78276	-39.86983	0
892	-21.96909	-120.42316	-100.08141	69.16195	38.24249	-109.84545	723.35263	101.70875	52.88855	-42.31084	-22.78276	-37.42882	0
893	-31.73313	-122.86417	-92.75838	76.48498	30.91946	-107.40444	711.14758	96.82673	50.44754	-42.31084	-22.78276	-37.42882	0
894	-24.4101	-117.98215	-95.19939	69.16195	35.80148	-107.40444	698.94253	89.5037	45.56552	-49.63387	-27.66478	-42.31084	0
895	-17.08707	-115.54114	-100.08141	64.27993	40.6835	-107.40444	679.41445	82.18067	40.6835	-56.9569	-32.5468	-49.63387	0
896	-12.20505	-120.42316	-109.84545	64.27993	48.00653	-114.72747	662.32738	77.29865	35.80148	-74.04397	-37.42882	-54.51589	0
897	-2.44101	-122.86417	-122.0505	61.83892	60.21158	-122.0505	655.00435	77.29865	35.80148	-91.13104	-37.42882	-54.51589	0
898	10.57771	-122.86417	-134.25555	54.51589	72.41663	-126.93252	647.68132	79.73966	35.80148	-108.21811	-37.42882	-56.9569	0
899	13.01872	-127.74619	-141.57858	56.9569	77.29865	-134.25555	628.15324	82.18067	33.36047	-125.30518	-39.86983	-59.39791	0
900	3.25468	-130.1872	-134.25555	61.83892	67.53461	-131.81454	608.62516	87.06269	35.80148	-142.39225	-39.86983	-59.39791	0
901	-9.76404	-127.74619	-119.60949	66.72094	55.32956	-124.49151	589.09708	94.38572	43.12451	-152.15629	-34.98781	-54.51589	0
902	-4.88202	-127.74619	-124.49151	64.27993	60.21158	-126.93252	569.569	99.26774	48.00653	-154.5973	-27.66478	-47.19286	0
903	0.81367	-127.74619	-129.37353	61.83892	65.0936	-126.93252	542.71789	96.82673	48.00653	-154.5973	-27.66478	-44.75185	0
904	-2.44101	-122.86417	-122.0505	61.83892	60.21158	-122.0505	518.30779	96.82673	50.44754	-154.5973	-30.10579	-49.63387	0
905	-4.88202	-120.42316	-117.16848	61.83892	55.32956	-119.60949	496.3387	94.38572	52.88855	-154.5973	-32.5468	-49.63387	0
906	-7.32303	-117.98215	-112.28646	61.83892	52.88855	-114.72747	476.81062	94.38572	52.88855	-152.15629	-32.5468	-52.07488	0
907	-4.88202	-125.30518	-122.0505	64.27993	57.77057	-124.49151	459.72355	91.94471	52.88855	-152.15629	-34.98781	-54.51589	0
908	-12.20505	-137.51023	-126.93252	74.04397	57.77057	-131.81454	442.63648	91.94471	50.44754	-154.5973	-39.86983	-54.51589	0
909	-12.20505	-125.30518	-114.72747	66.72094	50.44754	-119.60949	427.99042	91.94471	50.44754	-154.5973	-42.31084	-56.9569	0
910	-9.76404	-122.86417	-114.72747	64.27993	52.88855	-119.60949	413.34436	94.38572	50.44754	-152.15629	-42.31084	-59.39791	0
911	0.81367	-120.42316	-122.0505	59.39791	60.21158	-119.60949	403.58032	96.82673	52.88855	-147.27427	-39.86983	-54.51589	0
912	5.69569	-125.30518	-131.81454	59.39791	67.53461	-126.93252	391.37527	96.82673	55.32956	-144.83326	-37.42882	-52.07488	0
913	-7.32303	-137.51023	-131.81454	71.60296	62.65259	-134.25555	381.61123	96.82673	57.77057	-142.39225	-34.98781	-49.63387	0
914	-14.64606	-137.51023	-124.49151	74.04397	55.32956	-131.81454	379.17022	96.82673	60.21158	-139.95124	-32.5468	-47.19286	0
915	-31.73313	-147.27427	-117.16848	88.69003	43.12451	-131.81454	371.84719	96.82673	62.65259	-137.51023	-32.5468	-47.19286	0
916	-34.17414	-152.15629	-119.60949	91.13104	43.12451	-136.69656	362.08315	101.70875	67.53461	-130.1872	-25.22377	-42.31084	0
917	-26.85111	-142.39225	-117.16848	83.80801	45.56552	-129.37353	359.64214	106.59077	72.41663	-125.30518	-22.78276	-37.42882	0
918	-17.08707	-130.1872	-114.72747	71.60296	48.00653	-122.0505	347.43709	109.03178	72.41663	-125.30518	-22.78276	-37.42882	0
919	3.25468	-110.65912	-114.72747	52.07488	57.77057	-112.28646	335.23204	111.47279	72.41663	-122.86417	-22.78276	-37.42882	0
920	15.45973	-105.7771	-122.0505	44.75185	67.53461	-112.28646	315.70396	111.47279	69.97562	-125.30518	-25.22377	-37.42882	0
921	20.34175	-105.7771	-126.93252	42.31084	72.41663	-114.72747	296.17588	109.03178	67.53461	-122.86417	-25.22377	-34.98781	0
922	20.34175	-103.33609	-124.49151	39.86983	72.41663	-112.28646	274.20679	104.14976	65.0936	-125.30518	-27.66478	-37.42882	0
923	20.34175	-103.33609	-124.49151	39.86983	72.41663	-112.28646	254.67871	99.26774	62.65259	-125.30518	-30.10579	-42.31084	0
924	5.69569	-108.21811	-114.72747	49.63387	60.21158	-109.84545	237.59164	96.82673	62.65259	-127.74619	-30.10579	-42.31084	0
925	-19.52808	-132.62821	-114.72747	74.04397	48.00653	-124.49151	213.18154	91.94471	57.77057	-132.62821	-34.98781	-47.19286	0
926	-36.61515	-152.15629	-117.16848	93.57205	40.6835	-134.25555	188.77144	89.5037	57.77057	-132.62821	-37.42882	-49.63387	0
927	-39.05616	-152.15629	-114.72747	93.57205	38.24249	-134.25555	169.24336	87.06269	55.32956	-135.06922	-42.31084	-56.9569	0
928	-34.17414	-154.5973	-122.0505	93.57205	43.12451	-139.13757	147.27427	84.62168	50.44754	-139.95124	-49.63387	-61.83892	0
929	-39.05616	-166.80235	-129.37353	100.89508	45.56552	-148.90161	125.30518	82.18067	48.00653	-142.39225	-54.51589	-64.27993	0
930	-46.37919	-181.44841	-136.69656	113.10013	45.56552	-158.66565	100.89508	79.73966	40.6835	-144.83326	-59.39791	-69.16195	0
931	-43.93818	-181.44841	-139.13757	110.65912	48.00653	-161.10666	71.60296	74.85764	35.80148	-142.39225	-66.72094	-74.04397	0
932	-24.4101	-164.36134	-141.57858	93.57205	57.77057	-153.78363	49.63387	72.41663	35.80148	-137.51023	-66.72094	-74.04397	0
933	-2.44101	-144.83326	-144.01959	71.60296	69.97562	-144.01959	39.86983	77.29865	43.12451	-125.30518	-61.83892	-66.72094	0
934	8.1367	-137.51023	-146.4606	64.27993	77.29865	-141.57858	30.10579	77.29865	48.00653	-113.10013	-52.07488	-59.39791	0
935	15.45973	-120.42316	-136.69656	52.07488	74.85764	-126.93252	19.52808	87.06269	57.77057	-100.89508	-44.75185	-52.07488	0
936	22.78276	-103.33609	-126.93252	39.86983	74.85764	-114.72747	4.88202	91.94471	62.65259	-91.13104	-37.42882	-44.75185	0
937	25.22377	-93.57205	-119.60949	32.5468	72.41663	-104.96343	-2.44101	94.38572	67.53461	-83.80801	-32.5468	-39.86983	0
938	20.34175	-88.69003	-109.84545	32.5468	65.0936	-97.6404	-7.32303	99.26774	69.97562	-76.48498	-25.22377	-32.5468	0
939	-2.44101	-98.45407	-97.6404	49.63387	48.00653	-97.6404	-14.64606	101.70875	69.97562	-56.9569	-22.78276	-32.5468	0
940	-17.08707	-115.54114	-100.08141	64.27993	40.6835	-107.40444	-29.29212	99.26774	62.65259	-39.86983	-27.66478	-37.42882	0
941	-24.4101	-127.74619	-104.96343	74.04397	40.6835	-117.16848	-39.05616	91.94471	55.32956	-20.34175	-37.42882	-47.19286	0
942	-34.17414	-139.95124	-107.40444	86.24902	35.80148	-124.49151	-51.26121	82.18067	48.00653	-0.81367	-44.75185	-56.9569	0
943	-41.49717	-157.03831	-117.16848	98.45407	38.24249	-136.69656	-58.58424	77.29865	45.56552	21.96909	-52.07488	-64.27993	0
944	-41.49717	-176.56639	-136.69656	108.21811	48.00653	-156.22464	-61.02525	74.85764	45.56552	43.93818	-54.51589	-69.16195	0
945	-34.17414	-179.0074	-146.4606	105.7771	55.32956	-163.54767	-68.34828	72.41663	40.6835	56.14323	-61.83892	-76.48498	0
946	-21.96909	-174.12538	-153.78363	96.01306	65.0936	-163.54767	-75.67131	67.53461	38.24249	56.14323	-66.72094	-78.92599	0
947	-24.4101	-169.24336	-146.4606	96.01306	60.21158	-158.66565	-65.90727	74.85764	45.56552	63.46626	-59.39791	-74.04397	0
948	-21.96909	-161.92033	-141.57858	91.13104	60.21158	-151.34262	-56.14323	82.18067	50.44754	68.34828	-52.07488	-64.27993	0
949	-4.88202	-147.27427	-144.01959	74.04397	69.97562	-146.4606	-39.05616	91.94471	57.77057	73.2303	-42.31084	-54.51589	0
950	13.01872	-117.98215	-131.81454	52.07488	72.41663	-124.49151	-24.4101	96.82673	60.21158	73.2303	-37.42882	-49.63387	0
951	25.22377	-100.89508	-126.93252	37.42882	74.85764	-112.28646	-14.64606	99.26774	60.21158	73.2303	-37.42882	-49.63387	0
952	22.78276	-103.33609	-126.93252	39.86983	74.85764	-114.72747	-2.44101	104.14976	65.0936	75.67131	-30.10579	-42.31084	0
953	17.90074	-103.33609	-122.0505	42.31084	69.97562	-112.28646	9.76404	99.26774	62.65259	68.34828	-32.5468	-44.75185	0
954	17.90074	-108.21811	-126.93252	44.75185	72.41663	-117.16848	19.52808	94.38572	60.21158	61.02525	-37.42882	-47.19286	0
955	10.57771	-117.98215	-129.37353	52.07488	69.97562	-122.0505	25.22377	89.5037	55.32956	51.26121	-42.31084	-54.51589	0
956	-2.44101	-142.39225	-141.57858	71.60296	69.97562	-141.57858	25.22377	82.18067	50.44754	41.49717	-49.63387	-61.83892	0
957	-19.52808	-159.47932	-141.57858	88.69003	60.21158	-151.34262	37.42882	82.18067	48.00653	36.61515	-49.63387	-59.39791	0
958	-19.52808	-161.92033	-144.01959	88.69003	62.65259	-153.78363	44.75185	82.18067	48.00653	31.73313	-49.63387	-56.9569	0
959	-21.96909	-161.92033	-141.57858	91.13104	60.21158	-151.34262	52.07488	84.62168	48.00653	31.73313	-49.63387	-56.9569	0
960	-14.64606	-157.03831	-144.01959	83.80801	65.0936	-151.34262	54.51589	87.06269	48.00653	31.73313	-47.19286	-56.9569	0
961	-4.88202	-144.83326	-141.57858	74.04397	67.53461	-144.01959	54.51589	89.5037	50.44754	31.73313	-44.75185	-52.07488	0
962	0.81367	-135.06922	-136.69656	66.72094	67.53461	-134.25555	54.51589	89.5037	50.44754	29.29212	-44.75185	-54.51589	0
963	-2.44101	-132.62821	-131.81454	66.72094	65.0936	-131.81454	54.51589	87.06269	52.88855	24.4101	-44.75185	-56.9569	0
964	-2.44101	-127.74619	-126.93252	64.27993	62.65259	-126.93252	56.9569	87.06269	55.32956	24.4101	-44.75185	-56.9569	0
965	-2.44101	-117.98215	-117.16848	59.39791	57.77057	-117.16848	56.9569	89.5037	57.77057	21.96909	-44.75185	-56.9569	0
966	-2.44101	-110.65912	-109.84545	54.51589	52.88855	-109.84545	59.39791	91.94471	62.65259	21.96909	-44.75185	-54.51589	0
967	-2.44101	-113.10013	-112.28646	56.9569	55.32956	-112.28646	61.83892	91.94471	62.65259	21.96909	-44.75185	-54.51589	0
968	-4.88202	-120.42316	-117.16848	61.83892	55.32956	-119.60949	66.72094	91.94471	60.21158	21.96909	-42.31084	-54.51589	0
969	-2.44101	-115.54114	-114.72747	56.9569	55.32956	-114.72747	74.04397	99.26774	62.65259	24.4101	-39.86983	-49.63387	0
970	5.69569	-110.65912	-117.16848	52.07488	60.21158	-112.28646	71.60296	101.70875	62.65259	19.52808	-39.86983	-52.07488	0
971	0.81367	-120.42316	-122.0505	59.39791	60.21158	-119.60949	56.9569	96.82673	57.77057	14.64606	-44.75185	-54.51589	0
972	-9.76404	-132.62821	-124.49151	69.16195	57.77057	-129.37353	37.42882	91.94471	52.88855	9.76404	-47.19286	-59.39791	0
973	-21.96909	-142.39225	-122.0505	81.367	50.44754	-131.81454	25.22377	87.06269	48.00653	2.44101	-52.07488	-61.83892	0
974	-34.17414	-157.03831	-124.49151	93.57205	45.56552	-141.57858	12.20505	84.62168	48.00653	-0.81367	-54.51589	-64.27993	0
975	-46.37919	-181.44841	-136.69656	113.10013	45.56552	-158.66565	-2.44101	82.18067	50.44754	-3.25468	-56.9569	-64.27993	0
976	-61.02525	-200.97649	-141.57858	130.1872	40.6835	-170.8707	-17.08707	77.29865	45.56552	-8.1367	-61.83892	-66.72094	0
977	-61.02525	-203.4175	-144.01959	130.1872	40.6835	-173.31171	-17.08707	74.85764	45.56552	-10.57771	-61.83892	-69.16195	0
978	-41.49717	-196.09447	-156.22464	117.98215	57.77057	-175.75272	-14.64606	82.18067	48.00653	-3.25468	-56.9569	-61.83892	0
979	-24.4101	-186.33043	-163.54767	103.33609	69.97562	-175.75272	-12.20505	84.62168	50.44754	-0.81367	-54.51589	-59.39791	0
