samplenr	I	II	III	aVR	aVL	aVF	V1	V2	V3	V4	V5	V6	measurement
0	22.78276	-13.83239	-36.61515	-4.06835	28.47845	-25.22377	13.83239	-83.80801	-127.74619	-78.11232	-23.59643	-44.75185	0
1	22.78276	-13.83239	-36.61515	-4.06835	28.47845	-25.22377	16.2734	-81.367	-127.74619	-78.11232	-21.15542	-42.31084	0
2	25.22377	-11.39138	-36.61515	-6.50936	30.91946	-22.78276	16.2734	-78.92599	-127.74619	-78.11232	-21.15542	-39.86983	0
3	30.10579	-6.50936	-36.61515	-11.39138	33.36047	-20.34175	18.71441	-81.367	-125.30518	-75.67131	-18.71441	-37.42882	0
4	20.34175	-1.62734	-21.96909	-8.95037	21.15542	-10.57771	23.59643	-81.367	-122.86417	-73.2303	-16.2734	-34.98781	0
5	10.57771	-1.62734	-12.20505	-4.06835	11.39138	-5.69569	26.03744	-81.367	-122.86417	-73.2303	-16.2734	-32.5468	0
6	-1.62734	-1.62734	0	0.81367	-0.81367	-0.81367	26.03744	-81.367	-122.86417	-73.2303	-16.2734	-32.5468	0
7	-6.50936	-1.62734	4.88202	3.25468	-5.69569	1.62734	26.03744	-81.367	-122.86417	-73.2303	-16.2734	-32.5468	0
8	-13.83239	-4.06835	9.76404	8.1367	-13.01872	4.06835	26.03744	-78.92599	-120.42316	-73.2303	-16.2734	-30.10579	0
9	-13.83239	-6.50936	7.32303	8.1367	-10.57771	1.62734	26.03744	-81.367	-120.42316	-73.2303	-18.71441	-32.5468	0
10	-11.39138	-4.06835	7.32303	8.1367	-10.57771	1.62734	26.03744	-83.80801	-122.86417	-73.2303	-21.15542	-34.98781	0
11	-13.83239	-4.06835	9.76404	8.1367	-13.01872	4.06835	26.03744	-86.24902	-125.30518	-75.67131	-23.59643	-39.86983	0
12	-8.95037	-8.95037	0	8.1367	-5.69569	-3.25468	21.15542	-91.13104	-130.1872	-80.55333	-26.03744	-42.31084	0
13	-4.06835	-11.39138	-7.32303	8.1367	1.62734	-8.1367	18.71441	-96.01306	-132.62821	-82.99434	-30.91946	-44.75185	0
14	-6.50936	-11.39138	-4.88202	8.1367	-0.81367	-8.1367	18.71441	-100.89508	-132.62821	-82.99434	-30.91946	-44.75185	0
15	-11.39138	-8.95037	2.44101	8.1367	-8.1367	-3.25468	21.15542	-98.45407	-132.62821	-82.99434	-26.03744	-42.31084	0
16	-17.08707	-8.95037	7.32303	11.39138	-13.01872	-0.81367	23.59643	-96.01306	-130.1872	-82.99434	-26.03744	-37.42882	0
17	-17.08707	-6.50936	9.76404	11.39138	-13.01872	1.62734	23.59643	-96.01306	-130.1872	-85.43535	-23.59643	-34.98781	0
18	-21.96909	-4.06835	17.90074	11.39138	-21.15542	6.50936	23.59643	-93.57205	-130.1872	-85.43535	-23.59643	-32.5468	0
19	-21.96909	-1.62734	20.34175	11.39138	-21.15542	9.76404	26.03744	-96.01306	-130.1872	-85.43535	-23.59643	-32.5468	0
20	-24.4101	-1.62734	22.78276	11.39138	-23.59643	9.76404	26.03744	-96.01306	-130.1872	-85.43535	-23.59643	-32.5468	0
21	-24.4101	1.62734	25.22377	11.39138	-23.59643	12.20505	26.03744	-96.01306	-130.1872	-85.43535	-23.59643	-30.10579	0
22	-21.96909	4.06835	25.22377	8.1367	-23.59643	14.64606	29.29212	-93.57205	-132.62821	-85.43535	-21.15542	-27.66478	0
23	-21.96909	1.62734	22.78276	8.1367	-21.15542	12.20505	29.29212	-98.45407	-135.06922	-87.87636	-23.59643	-30.10579	0
24	-19.52808	-1.62734	17.90074	8.1367	-18.71441	6.50936	23.59643	-103.33609	-137.51023	-92.75838	-28.47845	-34.98781	0
25	-21.96909	-6.50936	14.64606	13.83239	-18.71441	4.06835	21.15542	-108.21811	-144.83326	-97.6404	-35.80148	-39.86983	0
26	-24.4101	-8.95037	14.64606	16.2734	-21.15542	1.62734	21.15542	-108.21811	-144.83326	-100.08141	-40.6835	-44.75185	0
27	-24.4101	-13.83239	9.76404	18.71441	-18.71441	-3.25468	18.71441	-108.21811	-147.27427	-104.96343	-43.12451	-47.19286	0
28	-21.96909	-16.2734	4.88202	18.71441	-13.01872	-5.69569	13.83239	-110.65912	-149.71528	-109.84545	-52.88855	-52.07488	0
29	-17.08707	-13.83239	2.44101	13.83239	-10.57771	-5.69569	11.39138	-113.10013	-152.15629	-109.84545	-57.77057	-56.9569	0
30	-13.83239	-8.95037	4.88202	11.39138	-10.57771	-0.81367	11.39138	-115.54114	-154.5973	-112.28646	-60.21158	-59.39791	0
31	-6.50936	-4.06835	2.44101	5.69569	-5.69569	-0.81367	11.39138	-115.54114	-154.5973	-114.72747	-60.21158	-61.83892	0
32	-1.62734	1.62734	2.44101	0.81367	-0.81367	1.62734	8.95037	-115.54114	-154.5973	-114.72747	-60.21158	-59.39791	0
33	-1.62734	6.50936	7.32303	-1.62734	-3.25468	6.50936	13.83239	-115.54114	-149.71528	-109.84545	-55.32956	-54.51589	0
34	0.81367	11.39138	9.76404	-6.50936	-3.25468	12.20505	13.83239	-115.54114	-149.71528	-107.40444	-52.88855	-52.07488	0
35	-6.50936	13.83239	20.34175	-4.06835	-13.01872	17.08707	16.2734	-113.10013	-147.27427	-104.96343	-50.44754	-49.63387	0
36	-11.39138	16.2734	27.66478	-1.62734	-18.71441	21.96909	21.15542	-110.65912	-144.83326	-104.96343	-48.00653	-49.63387	0
37	-17.08707	18.71441	34.98781	-1.62734	-26.03744	26.85111	23.59643	-105.7771	-139.95124	-104.96343	-45.56552	-44.75185	0
38	-21.96909	11.39138	32.5468	5.69569	-26.03744	21.96909	23.59643	-105.7771	-137.51023	-102.52242	-50.44754	-44.75185	0
39	-26.85111	6.50936	32.5468	8.1367	-28.47845	19.52808	23.59643	-105.7771	-137.51023	-102.52242	-52.88855	-49.63387	0
40	-29.29212	1.62734	30.10579	13.83239	-28.47845	14.64606	23.59643	-105.7771	-137.51023	-102.52242	-55.32956	-52.07488	0
41	-34.17414	-1.62734	32.5468	16.2734	-33.36047	14.64606	23.59643	-105.7771	-139.95124	-104.96343	-57.77057	-54.51589	0
42	-34.17414	-1.62734	32.5468	16.2734	-33.36047	14.64606	23.59643	-108.21811	-139.95124	-104.96343	-60.21158	-56.9569	0
43	-31.73313	-1.62734	30.10579	16.2734	-30.91946	14.64606	23.59643	-110.65912	-139.95124	-104.96343	-62.65259	-59.39791	0
44	-34.17414	-4.06835	30.10579	18.71441	-33.36047	12.20505	21.15542	-113.10013	-139.95124	-104.96343	-62.65259	-59.39791	0
45	-41.49717	-6.50936	34.98781	23.59643	-38.24249	14.64606	21.15542	-110.65912	-137.51023	-104.96343	-62.65259	-59.39791	0
46	-46.37919	-8.95037	37.42882	26.03744	-43.12451	14.64606	21.15542	-108.21811	-137.51023	-104.96343	-60.21158	-59.39791	0
47	-46.37919	-6.50936	39.86983	26.03744	-43.12451	17.08707	21.15542	-105.7771	-135.06922	-107.40444	-60.21158	-56.9569	0
48	-46.37919	-4.06835	42.31084	23.59643	-45.56552	19.52808	21.15542	-100.89508	-132.62821	-104.96343	-60.21158	-56.9569	0
49	-43.93818	-4.06835	39.86983	23.59643	-43.12451	17.08707	18.71441	-100.89508	-132.62821	-104.96343	-62.65259	-59.39791	0
50	-39.05616	-4.06835	34.98781	21.15542	-38.24249	14.64606	13.83239	-100.89508	-132.62821	-104.96343	-62.65259	-59.39791	0
51	-36.61515	-8.95037	27.66478	21.15542	-33.36047	9.76404	13.83239	-100.89508	-132.62821	-107.40444	-62.65259	-61.83892	0
52	-36.61515	-11.39138	25.22377	23.59643	-30.91946	6.50936	13.83239	-98.45407	-130.1872	-107.40444	-62.65259	-61.83892	0
53	-34.17414	-8.95037	25.22377	21.15542	-30.91946	6.50936	13.83239	-100.89508	-127.74619	-104.96343	-62.65259	-64.27993	0
54	-26.85111	-6.50936	20.34175	16.2734	-23.59643	6.50936	13.83239	-103.33609	-127.74619	-104.96343	-62.65259	-64.27993	0
55	-29.29212	-6.50936	22.78276	16.2734	-26.03744	6.50936	13.83239	-103.33609	-127.74619	-104.96343	-62.65259	-66.72094	0
56	-31.73313	-8.95037	22.78276	18.71441	-28.47845	6.50936	13.83239	-100.89508	-122.86417	-107.40444	-62.65259	-66.72094	0
57	-34.17414	-6.50936	27.66478	18.71441	-30.91946	9.76404	16.2734	-96.01306	-120.42316	-107.40444	-62.65259	-64.27993	0
58	-34.17414	-4.06835	30.10579	18.71441	-33.36047	12.20505	16.2734	-91.13104	-117.98215	-104.96343	-62.65259	-61.83892	0
59	-34.17414	-1.62734	32.5468	16.2734	-33.36047	14.64606	16.2734	-91.13104	-115.54114	-104.96343	-62.65259	-61.83892	0
60	-29.29212	4.06835	32.5468	11.39138	-30.91946	17.08707	16.2734	-91.13104	-113.10013	-102.52242	-62.65259	-61.83892	0
61	-24.4101	11.39138	34.98781	5.69569	-28.47845	21.96909	16.2734	-91.13104	-110.65912	-102.52242	-62.65259	-59.39791	0
62	-21.96909	11.39138	32.5468	5.69569	-26.03744	21.96909	16.2734	-93.57205	-110.65912	-102.52242	-62.65259	-59.39791	0
63	-26.85111	11.39138	37.42882	8.1367	-30.91946	24.4101	18.71441	-93.57205	-108.21811	-97.6404	-62.65259	-54.51589	0
64	-26.85111	16.2734	42.31084	5.69569	-33.36047	29.29212	21.15542	-91.13104	-103.33609	-92.75838	-60.21158	-52.07488	0
65	-31.73313	13.83239	44.75185	8.1367	-38.24249	29.29212	23.59643	-88.69003	-98.45407	-87.87636	-60.21158	-49.63387	0
66	-36.61515	18.71441	54.51589	8.1367	-45.56552	36.61515	29.29212	-81.367	-93.57205	-85.43535	-55.32956	-44.75185	0
67	-41.49717	23.59643	64.27993	8.1367	-52.88855	43.93818	36.61515	-78.92599	-88.69003	-82.99434	-52.88855	-42.31084	0
68	-43.93818	26.03744	69.16195	8.1367	-55.32956	46.37919	41.49717	-74.04397	-86.24902	-82.99434	-55.32956	-39.86983	0
69	-48.8202	26.03744	74.04397	11.39138	-60.21158	48.8202	43.93818	-76.48498	-86.24902	-80.55333	-55.32956	-39.86983	0
70	-53.70222	23.59643	76.48498	13.83239	-65.0936	48.8202	43.93818	-81.367	-91.13104	-82.99434	-60.21158	-42.31084	0
71	-56.14323	23.59643	78.92599	16.2734	-67.53461	51.26121	43.93818	-88.69003	-96.01306	-90.31737	-62.65259	-42.31084	0
72	-53.70222	18.71441	71.60296	16.2734	-62.65259	43.93818	41.49717	-100.89508	-105.7771	-97.6404	-67.53461	-47.19286	0
73	-51.26121	16.2734	66.72094	16.2734	-57.77057	41.49717	39.05616	-115.54114	-115.54114	-104.96343	-74.85764	-49.63387	0
74	-51.26121	13.83239	64.27993	18.71441	-57.77057	39.05616	39.05616	-125.30518	-122.86417	-112.28646	-79.73966	-54.51589	0
75	-46.37919	16.2734	61.83892	13.83239	-52.88855	39.05616	36.61515	-135.06922	-130.1872	-117.16848	-87.06269	-56.9569	0
76	-41.49717	18.71441	59.39791	11.39138	-50.44754	39.05616	36.61515	-142.39225	-135.06922	-124.49151	-89.5037	-56.9569	0
77	-43.93818	21.15542	64.27993	11.39138	-52.88855	41.49717	36.61515	-142.39225	-135.06922	-126.93252	-91.94471	-59.39791	0
78	-41.49717	26.03744	66.72094	8.1367	-52.88855	46.37919	36.61515	-137.51023	-135.06922	-126.93252	-96.82673	-61.83892	0
79	-34.17414	28.47845	61.83892	3.25468	-48.00653	43.93818	39.05616	-137.51023	-132.62821	-124.49151	-99.26774	-61.83892	0
80	-24.4101	35.80148	59.39791	-6.50936	-40.6835	46.37919	41.49717	-135.06922	-130.1872	-122.0505	-101.70875	-66.72094	0
81	-11.39138	40.6835	52.07488	-13.83239	-30.91946	46.37919	41.49717	-132.62821	-130.1872	-119.60949	-101.70875	-66.72094	0
82	-1.62734	45.56552	47.19286	-21.15542	-23.59643	46.37919	41.49717	-130.1872	-127.74619	-119.60949	-101.70875	-66.72094	0
83	5.69569	43.12451	37.42882	-23.59643	-16.2734	41.49717	39.05616	-132.62821	-127.74619	-114.72747	-101.70875	-66.72094	0
84	10.57771	40.6835	30.10579	-26.03744	-8.1367	36.61515	34.17414	-132.62821	-125.30518	-112.28646	-99.26774	-66.72094	0
85	13.01872	35.80148	22.78276	-23.59643	-3.25468	29.29212	29.29212	-130.1872	-120.42316	-107.40444	-94.38572	-64.27993	0
86	20.34175	28.47845	7.32303	-23.59643	6.50936	19.52808	26.03744	-130.1872	-117.98215	-107.40444	-91.94471	-64.27993	0
87	30.10579	26.03744	-4.88202	-28.47845	18.71441	12.20505	18.71441	-130.1872	-115.54114	-107.40444	-89.5037	-61.83892	0
88	37.42882	28.47845	-9.76404	-33.36047	23.59643	9.76404	11.39138	-125.30518	-110.65912	-100.08141	-87.06269	-59.39791	0
89	42.31084	33.36047	-9.76404	-38.24249	26.03744	12.20505	6.50936	-117.98215	-105.7771	-92.75838	-79.73966	-56.9569	0
90	42.31084	33.36047	-9.76404	-38.24249	26.03744	12.20505	4.06835	-113.10013	-98.45407	-85.43535	-74.85764	-52.07488	0
91	37.42882	33.36047	-4.88202	-35.80148	21.15542	14.64606	1.62734	-108.21811	-93.57205	-80.55333	-69.97562	-47.19286	0
92	32.5468	33.36047	0	-33.36047	16.2734	17.08707	1.62734	-100.89508	-88.69003	-75.67131	-65.0936	-42.31084	0
93	22.78276	33.36047	9.76404	-28.47845	6.50936	21.96909	6.50936	-96.01306	-81.367	-73.2303	-60.21158	-39.86983	0
94	15.45973	33.36047	17.90074	-23.59643	-0.81367	26.85111	6.50936	-91.13104	-76.48498	-67.53461	-57.77057	-37.42882	0
95	3.25468	35.80148	32.5468	-18.71441	-13.01872	34.17414	13.83239	-83.80801	-71.60296	-62.65259	-57.77057	-32.5468	0
96	-8.95037	33.36047	42.31084	-11.39138	-26.03744	39.05616	21.15542	-76.48498	-66.72094	-62.65259	-55.32956	-32.5468	0
97	-17.08707	26.03744	42.31084	-4.06835	-28.47845	34.17414	21.15542	-74.04397	-64.27993	-65.0936	-60.21158	-32.5468	0
98	-29.29212	18.71441	47.19286	5.69569	-38.24249	31.73313	23.59643	-69.16195	-64.27993	-65.0936	-65.0936	-32.5468	0
99	-29.29212	16.2734	44.75185	5.69569	-35.80148	29.29212	26.03744	-66.72094	-64.27993	-65.0936	-72.41663	-39.86983	0
100	-29.29212	11.39138	39.86983	8.1367	-33.36047	24.4101	26.03744	-64.27993	-64.27993	-65.0936	-74.85764	-42.31084	1000	P+0
101	-26.85111	6.50936	32.5468	8.1367	-28.47845	19.52808	26.03744	-64.27993	-66.72094	-67.53461	-79.73966	-47.19286	0
102	-24.4101	1.62734	25.22377	11.39138	-23.59643	12.20505	26.03744	-64.27993	-66.72094	-69.97562	-79.73966	-49.63387	0
103	-19.52808	-1.62734	17.90074	8.1367	-18.71441	6.50936	26.03744	-69.16195	-69.16195	-69.97562	-82.18067	-49.63387	0
104	-13.83239	-4.06835	9.76404	8.1367	-13.01872	4.06835	23.59643	-71.60296	-69.16195	-67.53461	-82.18067	-49.63387	0
105	-17.08707	-11.39138	4.88202	13.83239	-10.57771	-3.25468	23.59643	-81.367	-69.16195	-65.0936	-77.29865	-47.19286	0
106	-21.96909	-13.83239	7.32303	16.2734	-16.2734	-3.25468	26.03744	-76.48498	-69.16195	-52.88855	-74.85764	-44.75185	0
107	-31.73313	-18.71441	12.20505	23.59643	-23.59643	-3.25468	26.03744	-91.13104	-71.60296	-62.65259	-69.97562	-42.31084	0
108	-41.49717	-26.03744	14.64606	33.36047	-28.47845	-5.69569	26.03744	-56.9569	-54.51589	-55.32956	-72.41663	-42.31084	0
109	-46.37919	-30.91946	14.64606	38.24249	-30.91946	-8.1367	23.59643	-56.9569	-61.83892	-55.32956	-72.41663	-44.75185	0
110	-53.70222	-35.80148	17.90074	43.12451	-35.80148	-10.57771	26.03744	-52.07488	-42.31084	-67.53461	-65.0936	-47.19286	0
111	-48.8202	-40.6835	7.32303	43.12451	-28.47845	-17.90074	31.73313	-54.51589	-59.39791	-57.77057	-79.73966	-49.63387	0
112	-82.99434	-52.88855	30.10579	67.53461	-57.77057	-13.01872	46.37919	-69.16195	-78.92599	-52.88855	-109.84545	-61.83892	0
113	-65.90727	-67.53461	-2.44101	65.0936	-33.36047	-34.98781	63.46626	-27.66478	-32.5468	-28.47845	-74.85764	-76.48498	0
114	-46.37919	-57.77057	-12.20505	50.44754	-18.71441	-34.98781	82.99434	102.52242	56.14323	30.10579	-48.00653	-54.51589	0
115	0.81367	-55.32956	-56.14323	26.03744	28.47845	-54.51589	104.96343	268.5111	173.31171	110.65912	-6.50936	-42.31084	0
116	37.42882	-60.21158	-97.6404	11.39138	67.53461	-78.92599	139.13757	493.08402	331.97736	244.91467	49.63387	-10.57771	0
117	49.63387	-65.0936	-114.72747	8.1367	82.18067	-88.69003	178.19373	651.74967	461.35089	330.35002	98.45407	6.50936	0
118	39.86983	-67.53461	-107.40444	13.83239	72.41663	-86.24902	219.6909	759.15411	541.90422	410.90335	137.51023	28.47845	0
119	61.83892	-133.44188	-195.2808	35.80148	128.55986	-164.36134	224.57292	810.41532	610.2525	489.01567	200.97649	60.21158	0
120	96.01306	-170.05703	-266.07009	35.80148	179.82107	-218.06356	195.2808	922.70178	751.83108	630.59425	320.58598	131.00087	0
121	176.56639	-157.85198	-334.41837	-8.95037	255.49238	-244.91467	161.10666	942.22986	847.03047	806.34697	457.28254	221.31824	0
122	240.03265	-187.1441	-427.17675	-26.03744	333.6047	-305.93992	136.69656	778.68219	820.17936	918.63343	586.65607	328.72268	0
123	237.59164	-189.58511	-427.17675	-23.59643	331.16369	-308.38093	117.16848	588.28341	825.06138	1072.41706	833.19808	487.38833	0
124	296.17588	-172.49804	-468.67392	-62.65259	382.4249	-320.58598	29.29212	412.53069	851.91249	1267.69786	1094.38615	699.7562	0
125	374.2882	-123.67784	-497.96604	-126.11885	436.12712	-310.82194	-52.07488	300.24423	930.02481	1487.38876	1377.54331	931.65215	0
126	479.25163	-23.59643	-502.84806	-228.64127	489.82934	-262.00174	-169.24336	144.01959	949.55289	1676.97387	1684.2969	1192.84022	0
127	535.39486	96.82673	-439.3818	-316.51763	487.38833	-171.68437	-227.8276	-52.07488	947.11188	1860.04962	2050.4484	1505.2895	0
128	618.3892	209.11319	-410.08968	-414.15803	514.23944	-100.89508	-315.70396	-327.90901	866.55855	2001.6282	2421.48192	1834.01218	0
129	655.00435	243.28733	-412.53069	-448.33217	533.76752	-83.80801	-435.31345	-574.45102	798.21027	2135.88375	2785.19241	2146.46146	0
130	686.73748	226.20026	-461.35089	-455.6552	575.26469	-117.98215	-569.569	-752.64475	764.03613	2231.08314	3087.87765	2395.44448	0
131	786.81889	245.72834	-541.90422	-516.68045	665.58206	-147.27427	-750.20374	-943.04353	634.6626	2240.84718	3266.07138	2561.43316	0
132	816.11101	235.9643	-580.96038	-526.44449	699.7562	-171.68437	-928.39747	-1143.20635	454.02786	2126.11971	3310.00956	2644.4275	0
133	835.63909	248.16935	-588.28341	-541.09055	711.96125	-169.24336	-1006.50979	-1270.13887	336.85938	2018.71527	3339.30168	2681.04265	0
134	860.04919	253.05137	-607.81149	-555.73661	733.93034	-176.56639	-1089.50413	-1367.77927	200.16282	1862.49063	3244.10229	2646.86851	0
135	811.22899	235.9643	-576.07836	-524.00348	694.87418	-169.24336	-1165.17544	-1470.30169	70.78929	1672.09185	3063.46755	2534.58205	0
136	774.61384	228.64127	-546.78624	-502.03439	660.70004	-159.47932	-1233.52372	-1587.47017	-105.7771	1406.83543	2738.81322	2275.83499	0
137	667.2094	172.49804	-495.52503	-419.04005	582.58772	-161.92033	-1206.67261	-1577.70613	-154.5973	1218.87766	2472.74313	2065.90813	0
138	552.48193	94.38572	-458.90988	-323.84066	506.91641	-181.44841	-1135.88332	-1509.35785	-254.67871	940.60252	2099.2686	1760.78188	0
139	464.60557	38.24249	-427.17675	-250.61036	445.89116	-193.65346	-1035.80191	-1426.36351	-335.23204	708.70657	1794.14235	1502.84849	0
140	415.78537	104.14976	-312.44928	-260.3744	365.33783	-103.33609	-925.95646	-1379.98432	-423.1084	418.22638	1448.3326	1244.10143	0
141	369.40618	126.11885	-244.101	-248.16935	306.75359	-59.39791	-857.60818	-1340.92816	-547.59991	137.51023	1089.50413	1014.64649	0
142	283.97083	113.9138	-170.8707	-199.34915	228.64127	-27.66478	-767.29081	-1299.43099	-735.55768	-297.80322	557.36395	689.99216	0
143	154.5973	99.26774	-56.14323	-126.11885	106.59077	21.96909	-633.03526	-1279.90291	-933.27949	-764.03613	-6.50936	296.98955	0
144	54.51589	96.82673	42.31084	-74.85764	6.50936	70.78929	-515.86678	-1150.52938	-906.42838	-851.91249	-239.21898	99.26774	0
145	-8.95037	99.26774	108.21811	-45.56552	-57.77057	104.96343	-449.95951	-1045.56595	-838.0801	-807.97431	-288.03918	-0.81367	0
146	-78.11232	128.55986	205.85851	-26.03744	-140.76491	165.98868	-384.05224	-928.39747	-742.88071	-705.45189	-261.18807	-22.78276	0
147	-107.40444	155.41097	262.00174	-23.59643	-184.70309	207.48585	-313.26295	-828.31606	-652.56334	-644.42664	-253.86504	-39.86983	0
148	-114.72747	148.08794	262.00174	-16.2734	-187.1441	205.04484	-279.08881	-752.64475	-608.62516	-620.01654	-275.83413	-76.48498	0
149	-146.4606	167.61602	313.26295	-11.39138	-228.64127	239.21898	-227.8276	-686.73748	-593.9791	-590.72442	-273.39312	-76.48498	0
150	-146.4606	184.70309	330.35002	-18.71441	-238.40531	256.30605	-186.33043	-613.50718	-552.48193	-578.51937	-290.48019	-111.47279	0
151	-129.37353	135.88289	264.44275	-4.06835	-196.90814	200.16282	-188.77144	-586.65607	-520.7488	-578.51937	-351.50544	-174.93905	0
152	-87.87636	140.76491	227.8276	-26.03744	-157.85198	183.07575	-142.39225	-530.51284	-498.77971	-566.31432	-378.35655	-196.90814	0
153	-117.16848	133.44188	249.79669	-8.95037	-182.26208	190.39878	-98.45407	-503.66173	-464.60557	-558.99129	-368.59251	-228.64127	0
154	-117.16848	118.79582	235.15063	-1.62734	-174.93905	175.75272	-91.13104	-481.69264	-464.60557	-551.66826	-395.44362	-253.05137	0
155	-119.60949	101.70875	220.50457	8.1367	-170.05703	161.10666	-74.04397	-457.28254	-452.40052	-549.22725	-412.53069	-265.25642	0
156	-122.0505	91.94471	213.18154	13.83239	-167.61602	151.34262	-64.27993	-449.95951	-449.95951	-544.34523	-424.73574	-299.43056	0
157	-126.93252	79.73966	205.85851	23.59643	-165.17501	141.57858	-52.07488	-423.1084	-430.43143	-541.90422	-434.49978	-292.10753	0
158	-131.81454	72.41663	203.4175	28.47845	-167.61602	136.69656	-39.86983	-386.49325	-420.66739	-534.58119	-444.26382	-301.87157	0
159	-134.25555	67.53461	200.97649	33.36047	-167.61602	134.25555	-27.66478	-369.40618	-408.46234	-524.81715	-451.58685	-311.63561	0
160	-134.25555	60.21158	193.65346	35.80148	-162.734	126.93252	-17.90074	-357.20113	-396.25729	-515.05311	-454.02786	-318.95864	0
161	-134.25555	57.77057	191.21245	38.24249	-162.734	124.49151	-8.1367	-340.11406	-386.49325	-507.73008	-454.02786	-321.39965	0
162	-129.37353	62.65259	191.21245	33.36047	-160.29299	126.93252	4.06835	-320.58598	-371.84719	-493.08402	-449.14584	-318.95864	0
163	-129.37353	62.65259	191.21245	33.36047	-160.29299	126.93252	16.2734	-308.38093	-357.20113	-480.87897	-444.26382	-316.51763	0
164	-129.37353	65.0936	193.65346	30.91946	-160.29299	129.37353	26.03744	-293.73487	-342.55507	-463.7919	-436.94079	-314.07662	0
165	-129.37353	69.97562	198.53548	28.47845	-162.734	134.25555	34.17414	-279.08881	-330.35002	-449.14584	-432.05877	-311.63561	0
166	-126.93252	72.41663	198.53548	26.03744	-162.734	134.25555	46.37919	-264.44275	-318.14497	-441.82281	-424.73574	-309.1946	0
167	-122.0505	72.41663	193.65346	23.59643	-157.85198	131.81454	51.26121	-254.67871	-308.38093	-432.05877	-419.85372	-306.75359	0
168	-124.49151	69.97562	193.65346	26.03744	-157.85198	131.81454	56.14323	-242.47366	-301.0579	-422.29473	-414.9717	-299.43056	0
169	-126.93252	67.53461	193.65346	28.47845	-160.29299	129.37353	63.46626	-232.70962	-291.29386	-410.08968	-407.64867	-294.54854	0
170	-134.25555	62.65259	196.09447	35.80148	-165.17501	129.37353	70.78929	-225.38659	-283.97083	-400.32564	-400.32564	-292.10753	0
171	-134.25555	60.21158	193.65346	35.80148	-162.734	126.93252	75.67131	-220.50457	-281.52982	-395.44362	-397.88463	-292.10753	0
172	-134.25555	60.21158	193.65346	35.80148	-162.734	126.93252	78.11232	-215.62255	-279.08881	-393.00261	-395.44362	-289.66652	0
173	-134.25555	60.21158	193.65346	35.80148	-162.734	126.93252	80.55333	-215.62255	-274.20679	-388.12059	-393.00261	-289.66652	0
174	-134.25555	60.21158	193.65346	35.80148	-162.734	126.93252	80.55333	-215.62255	-274.20679	-385.67958	-393.00261	-294.54854	0
175	-136.69656	60.21158	196.09447	38.24249	-165.17501	126.93252	82.99434	-210.74053	-271.76578	-385.67958	-395.44362	-296.98955	0
176	-146.4606	60.21158	205.85851	43.12451	-174.93905	131.81454	87.87636	-203.4175	-264.44275	-383.23857	-393.00261	-296.98955	0
177	-146.4606	65.0936	210.74053	40.6835	-177.38006	136.69656	92.75838	-196.09447	-259.56073	-378.35655	-390.5616	-296.98955	0
178	-144.01959	72.41663	215.62255	35.80148	-179.82107	144.01959	95.19939	-188.77144	-254.67871	-375.91554	-393.00261	-294.54854	0
179	-136.69656	77.29865	213.18154	28.47845	-174.93905	144.01959	97.6404	-183.88942	-249.79669	-371.03352	-395.44362	-296.98955	0
180	-131.81454	79.73966	210.74053	26.03744	-170.05703	144.01959	100.08141	-176.56639	-244.91467	-368.59251	-395.44362	-296.98955	1500	QRS+0
181	-129.37353	79.73966	208.29952	23.59643	-167.61602	144.01959	100.08141	-174.12538	-244.91467	-368.59251	-397.88463	-296.98955	0
182	-129.37353	77.29865	205.85851	26.03744	-167.61602	141.57858	102.52242	-169.24336	-242.47366	-368.59251	-400.32564	-294.54854	0
183	-136.69656	72.41663	208.29952	30.91946	-172.49804	139.13757	104.96343	-164.36134	-237.59164	-363.71049	-397.88463	-292.10753	0
184	-141.57858	69.97562	210.74053	35.80148	-174.93905	139.13757	104.96343	-164.36134	-235.15063	-363.71049	-397.88463	-289.66652	0
185	-139.13757	67.53461	205.85851	35.80148	-172.49804	136.69656	102.52242	-161.92033	-235.15063	-361.26948	-400.32564	-289.66652	0
186	-146.4606	60.21158	205.85851	43.12451	-174.93905	131.81454	104.96343	-157.03831	-232.70962	-363.71049	-400.32564	-289.66652	0
187	-148.90161	55.32956	203.4175	45.56552	-174.93905	129.37353	104.96343	-152.15629	-227.8276	-363.71049	-400.32564	-289.66652	0
188	-153.78363	48.00653	200.97649	52.88855	-177.38006	124.49151	104.96343	-144.83326	-225.38659	-363.71049	-400.32564	-287.22551	0
189	-151.34262	48.00653	198.53548	50.44754	-174.93905	122.0505	107.40444	-137.51023	-220.50457	-356.38746	-397.88463	-287.22551	0
190	-148.90161	50.44754	198.53548	48.00653	-172.49804	124.49151	112.28646	-130.1872	-210.74053	-351.50544	-393.00261	-284.7845	0
191	-146.4606	52.88855	198.53548	45.56552	-172.49804	124.49151	112.28646	-122.86417	-205.85851	-349.06443	-390.5616	-284.7845	0
192	-141.57858	52.88855	193.65346	43.12451	-167.61602	122.0505	117.16848	-113.10013	-200.97649	-344.18241	-385.67958	-279.90248	0
193	-136.69656	52.88855	188.77144	40.6835	-162.734	119.60949	117.16848	-108.21811	-191.21245	-336.85938	-380.79756	-279.90248	0
194	-131.81454	55.32956	186.33043	38.24249	-157.85198	119.60949	119.60949	-100.89508	-183.88942	-331.97736	-375.91554	-277.46147	0
195	-129.37353	60.21158	188.77144	33.36047	-157.85198	124.49151	122.0505	-88.69003	-174.12538	-324.65433	-371.03352	-275.02046	0
196	-129.37353	67.53461	196.09447	30.91946	-162.734	131.81454	126.93252	-76.48498	-164.36134	-319.77231	-366.1515	-270.13844	0
197	-126.93252	72.41663	198.53548	26.03744	-162.734	134.25555	129.37353	-64.27993	-154.5973	-314.89029	-363.71049	-267.69743	0
198	-136.69656	74.85764	210.74053	30.91946	-172.49804	141.57858	131.81454	-49.63387	-142.39225	-307.56726	-363.71049	-267.69743	0
199	-134.25555	74.85764	208.29952	28.47845	-170.05703	141.57858	131.81454	-39.86983	-135.06922	-302.68524	-363.71049	-270.13844	0
200	-131.81454	74.85764	205.85851	28.47845	-167.61602	139.13757	131.81454	-27.66478	-127.74619	-297.80322	-363.71049	-270.13844	0
201	-129.37353	79.73966	208.29952	23.59643	-167.61602	144.01959	131.81454	-17.08707	-120.42316	-295.36221	-363.71049	-272.57945	0
202	-122.0505	82.18067	203.4175	18.71441	-162.734	141.57858	131.81454	-4.88202	-110.65912	-288.03918	-363.71049	-272.57945	0
203	-117.16848	82.18067	198.53548	16.2734	-157.85198	139.13757	134.25555	7.32303	-98.45407	-280.71615	-361.26948	-270.13844	0
204	-122.0505	74.85764	196.09447	23.59643	-157.85198	134.25555	134.25555	21.96909	-86.24902	-270.95211	-358.82847	-267.69743	0
205	-129.37353	69.97562	198.53548	28.47845	-162.734	134.25555	136.69656	41.49717	-71.60296	-256.30605	-351.50544	-262.81541	0
206	-131.81454	65.0936	196.09447	33.36047	-162.734	129.37353	139.13757	61.02525	-56.9569	-246.54201	-346.62342	-260.3744	0
207	-126.93252	62.65259	188.77144	30.91946	-157.85198	124.49151	139.13757	80.55333	-42.31084	-236.77797	-341.7414	-257.93339	0
208	-131.81454	62.65259	193.65346	33.36047	-162.734	126.93252	141.57858	107.40444	-20.34175	-219.6909	-334.41837	-250.61036	0
209	-134.25555	62.65259	196.09447	35.80148	-165.17501	129.37353	146.4606	131.81454	-2.44101	-202.60383	-324.65433	-245.72834	0
210	-136.69656	65.0936	200.97649	35.80148	-167.61602	131.81454	151.34262	156.22464	17.08707	-185.51676	-317.3313	-243.28733	0
211	-141.57858	67.53461	208.29952	35.80148	-174.93905	136.69656	153.78363	183.07575	36.61515	-170.8707	-310.00827	-240.84632	0
212	-136.69656	67.53461	203.4175	33.36047	-170.05703	134.25555	156.22464	222.13191	56.14323	-156.22464	-305.12625	-240.84632	0
213	-129.37353	69.97562	198.53548	28.47845	-162.734	134.25555	156.22464	234.33696	70.78929	-144.01959	-305.12625	-245.72834	0
214	-122.0505	69.97562	191.21245	26.03744	-155.41097	129.37353	153.78363	256.30605	87.87636	-131.81454	-305.12625	-245.72834	0
215	-119.60949	69.97562	188.77144	23.59643	-152.96996	129.37353	153.78363	285.59817	104.96343	-117.16848	-297.80322	-245.72834	0
216	-112.28646	69.97562	181.44841	21.15542	-145.64693	124.49151	156.22464	297.80322	126.93252	-102.52242	-292.9212	-245.72834	0
217	-107.40444	65.0936	171.68437	21.15542	-138.3239	117.16848	158.66565	319.77231	146.4606	-87.87636	-288.03918	-245.72834	0
218	-100.08141	62.65259	161.92033	18.71441	-131.00087	112.28646	158.66565	361.26948	170.8707	-69.97562	-283.15716	-240.84632	0
219	-95.19939	57.77057	152.15629	18.71441	-123.67784	104.96343	163.54767	395.44362	192.83979	-48.00653	-275.83413	-238.40531	0
220	-90.31737	50.44754	139.95124	18.71441	-113.9138	95.19939	165.98868	436.94079	212.36787	-30.91946	-268.5111	-235.9643	0
221	-78.11232	48.00653	125.30518	13.83239	-101.70875	85.43535	168.42969	478.43796	234.33696	-13.83239	-261.18807	-233.52329	0
222	-70.78929	45.56552	115.54114	11.39138	-91.94471	80.55333	173.31171	512.6121	258.74706	10.57771	-248.98302	-228.64127	0
223	-68.34828	40.6835	108.21811	13.83239	-87.06269	73.2303	180.63474	537.0222	285.59817	34.98781	-234.33696	-218.87723	0
224	-61.02525	35.80148	96.01306	11.39138	-77.29865	65.90727	187.95777	546.78624	310.00827	59.39791	-224.57292	-213.99521	0
225	-53.70222	33.36047	86.24902	8.1367	-69.97562	58.58424	187.95777	561.4323	331.97736	81.367	-214.80888	-209.11319	0
226	-53.70222	26.03744	78.92599	13.83239	-65.0936	51.26121	192.83979	624.89856	353.94645	96.01306	-209.92686	-206.67218	0
227	-51.26121	18.71441	69.16195	16.2734	-60.21158	43.93818	195.2808	649.30866	375.91554	113.10013	-202.60383	-204.23117	0
228	-46.37919	11.39138	56.9569	16.2734	-50.44754	34.17414	192.83979	683.4828	395.44362	132.62821	-197.72181	-201.79016	0
229	-46.37919	1.62734	47.19286	21.15542	-45.56552	24.4101	197.72181	705.45189	414.9717	154.5973	-187.95777	-201.79016	0
230	-43.93818	-8.95037	34.98781	26.03744	-40.6835	12.20505	197.72181	727.42098	434.49978	174.12538	-180.63474	-201.79016	0
231	-41.49717	-16.2734	25.22377	28.47845	-33.36047	4.06835	197.72181	737.18502	449.14584	188.77144	-175.75272	-201.79016	0
232	-34.17414	-23.59643	9.76404	28.47845	-23.59643	-8.1367	197.72181	754.27209	461.35089	205.85851	-168.42969	-201.79016	0
233	-34.17414	-35.80148	-2.44101	33.36047	-16.2734	-20.34175	197.72181	771.35916	475.99695	222.94558	-158.66565	-199.34915	0
234	-29.29212	-48.00653	-19.52808	38.24249	-5.69569	-34.98781	197.72181	783.56421	488.202	240.03265	-153.78363	-199.34915	0
235	-17.08707	-52.88855	-36.61515	33.36047	8.95037	-44.75185	195.2808	798.21027	500.40705	254.67871	-146.4606	-199.34915	0
236	-13.83239	-62.65259	-48.8202	38.24249	16.2734	-54.51589	195.2808	812.85633	510.17109	264.44275	-141.57858	-199.34915	0
237	-11.39138	-77.29865	-65.90727	43.12451	26.03744	-71.60296	192.83979	827.50239	519.93513	276.6478	-134.25555	-194.46713	0
238	-6.50936	-87.06269	-80.55333	45.56552	35.80148	-83.80801	190.39878	837.26643	529.69917	288.85285	-131.81454	-189.58511	0
239	-1.62734	-96.82673	-95.19939	48.00653	45.56552	-96.01306	187.95777	844.58946	537.0222	301.0579	-126.93252	-189.58511	0
240	3.25468	-111.47279	-114.72747	52.88855	57.77057	-113.10013	185.51676	851.91249	541.90422	310.82194	-122.0505	-192.02612	0
241	10.57771	-126.11885	-136.69656	57.77057	72.41663	-130.1872	180.63474	856.79451	544.34523	315.70396	-122.0505	-192.02612	0
242	25.22377	-135.88289	-161.10666	55.32956	91.94471	-147.27427	175.75272	856.79451	544.34523	323.02699	-119.60949	-192.02612	0
243	34.98781	-145.64693	-180.63474	55.32956	106.59077	-161.92033	175.75272	856.79451	549.22725	330.35002	-114.72747	-192.02612	0
244	34.98781	-155.41097	-190.39878	60.21158	111.47279	-171.68437	173.31171	859.23552	551.66826	340.11406	-109.84545	-192.02612	0
245	37.42882	-162.734	-200.16282	62.65259	118.79582	-181.44841	170.8707	859.23552	551.66826	344.99608	-109.84545	-192.02612	0
246	42.31084	-170.05703	-212.36787	62.65259	126.11885	-191.21245	168.42969	856.79451	551.66826	347.43709	-106.59077	-192.02612	0
247	47.19286	-179.82107	-227.01393	65.0936	135.88289	-203.4175	165.98868	854.3535	551.66826	347.43709	-101.70875	-189.58511	0
248	54.51589	-187.1441	-241.65999	65.0936	148.08794	-213.18154	163.54767	851.91249	551.66826	354.76012	-101.70875	-184.70309	0
249	59.39791	-192.02612	-251.42403	65.0936	155.41097	-220.50457	161.10666	844.58946	551.66826	357.20113	-99.26774	-182.26208	0
250	59.39791	-199.34915	-258.74706	69.97562	157.85198	-227.8276	158.66565	837.26643	546.78624	359.64214	-94.38572	-179.82107	0
251	61.83892	-204.23117	-266.07009	69.97562	162.734	-235.15063	156.22464	827.50239	541.90422	359.64214	-94.38572	-179.82107	0
252	66.72094	-211.5542	-278.27514	72.41663	172.49804	-244.91467	148.90161	812.85633	532.14018	357.20113	-94.38572	-179.82107	0
253	78.92599	-213.99521	-292.9212	67.53461	184.70309	-252.2377	144.01959	795.76926	524.81715	354.76012	-94.38572	-177.38006	0
254	83.80801	-218.87723	-302.68524	67.53461	192.02612	-259.56073	141.57858	781.1232	517.49412	354.76012	-91.94471	-172.49804	0
255	88.69003	-221.31824	-310.00827	65.0936	199.34915	-264.44275	136.69656	766.47714	507.73008	352.31911	-89.5037	-170.05703	0
256	91.13104	-226.20026	-317.3313	67.53461	204.23117	-271.76578	129.37353	749.39007	495.52503	342.55507	-91.94471	-170.05703	0
257	93.57205	-228.64127	-322.21332	67.53461	206.67218	-274.20679	122.0505	729.86199	483.31998	332.79103	-96.82673	-170.05703	0
258	100.89508	-231.08228	-331.97736	65.0936	216.43622	-281.52982	112.28646	707.8929	468.67392	325.468	-104.14976	-170.05703	0
259	103.33609	-233.52329	-336.85938	65.0936	218.87723	-283.97083	107.40444	685.92381	454.02786	318.14497	-106.59077	-172.49804	0
260	98.45407	-235.9643	-334.41837	67.53461	216.43622	-283.97083	104.96343	666.39573	444.26382	313.26295	-106.59077	-172.49804	0
261	98.45407	-240.84632	-339.30039	69.97562	218.87723	-288.85285	102.52242	646.86765	432.05877	305.93992	-104.14976	-167.61602	0
262	96.01306	-243.28733	-339.30039	72.41663	216.43622	-291.29386	97.6404	624.89856	414.9717	296.17588	-104.14976	-165.17501	-1500	QRS-0
263	98.45407	-243.28733	-341.7414	72.41663	218.87723	-291.29386	90.31737	593.16543	400.32564	283.97083	-109.84545	-165.17501	0
264	88.69003	-243.28733	-331.97736	77.29865	209.11319	-286.41184	90.31737	571.19634	388.12059	276.6478	-106.59077	-162.734	0
265	83.80801	-238.40531	-322.21332	77.29865	201.79016	-279.08881	90.31737	549.22725	371.03352	269.32477	-106.59077	-157.85198	0
266	71.60296	-235.9643	-307.56726	82.18067	189.58511	-271.76578	90.31737	529.69917	356.38746	254.67871	-104.14976	-152.96996	0
267	54.51589	-231.08228	-285.59817	87.06269	170.05703	-257.11972	90.31737	510.17109	344.18241	244.91467	-101.70875	-145.64693	0
268	44.75185	-228.64127	-273.39312	91.94471	157.85198	-249.79669	87.87636	490.64301	331.97736	235.15063	-101.70875	-138.3239	0
269	39.86983	-221.31824	-261.18807	89.5037	150.52895	-240.03265	85.43535	468.67392	314.89029	227.8276	-101.70875	-138.3239	0
270	37.42882	-211.5542	-248.98302	87.06269	143.20592	-230.26861	85.43535	446.70483	300.24423	218.06356	-99.26774	-133.44188	0
271	32.5468	-204.23117	-236.77797	84.62168	133.44188	-220.50457	82.99434	424.73574	285.59817	208.29952	-96.82673	-128.55986	0
272	27.66478	-194.46713	-222.13191	82.18067	123.67784	-208.29952	82.99434	402.76665	270.95211	198.53548	-94.38572	-123.67784	0
273	30.10579	-184.70309	-214.80888	77.29865	121.23683	-198.53548	78.11232	375.91554	256.30605	188.77144	-94.38572	-121.23683	0
274	25.22377	-179.82107	-205.04484	77.29865	113.9138	-191.21245	75.67131	351.50544	241.65999	179.0074	-94.38572	-118.79582	0
275	25.22377	-170.05703	-195.2808	72.41663	109.03178	-181.44841	73.2303	331.97736	227.01393	169.24336	-91.94471	-118.79582	0
276	25.22377	-160.29299	-185.51676	67.53461	104.14976	-171.68437	73.2303	312.44928	212.36787	152.15629	-91.94471	-113.9138	0
277	25.22377	-155.41097	-180.63474	65.0936	101.70875	-166.80235	70.78929	292.9212	197.72181	137.51023	-91.94471	-111.47279	0
278	17.90074	-152.96996	-170.8707	67.53461	94.38572	-161.92033	63.46626	273.39312	185.51676	122.86417	-101.70875	-109.03178	0
279	5.69569	-150.52895	-156.22464	72.41663	79.73966	-152.15629	63.46626	253.86504	168.42969	113.10013	-106.59077	-113.9138	0
280	3.25468	-143.20592	-146.4606	69.97562	74.85764	-144.83326	63.46626	236.77797	153.78363	103.33609	-106.59077	-113.9138	0
281	-4.06835	-135.88289	-131.81454	69.97562	62.65259	-132.62821	63.46626	217.24989	139.13757	88.69003	-109.84545	-113.9138	0
282	-8.95037	-131.00087	-122.0505	69.97562	55.32956	-125.30518	63.46626	197.72181	124.49151	78.92599	-109.84545	-111.47279	0
283	-11.39138	-123.67784	-112.28646	67.53461	50.44754	-117.98215	61.02525	178.19373	114.72747	71.60296	-109.84545	-106.59077	0
284	-17.08707	-118.79582	-102.52242	67.53461	43.12451	-110.65912	61.02525	161.10666	104.96343	69.16195	-106.59077	-101.70875	0
285	-19.52808	-111.47279	-92.75838	65.0936	35.80148	-103.33609	58.58424	148.90161	92.75838	61.83892	-106.59077	-99.26774	0
286	-21.96909	-104.14976	-82.99434	62.65259	30.91946	-93.57205	58.58424	136.69656	82.99434	52.07488	-104.14976	-94.38572	0
287	-19.52808	-94.38572	-75.67131	55.32956	28.47845	-86.24902	56.14323	129.37353	78.11232	44.75185	-101.70875	-89.5037	0
288	-17.08707	-89.5037	-73.2303	52.88855	28.47845	-81.367	51.26121	119.60949	73.2303	37.42882	-101.70875	-84.62168	0
289	-17.08707	-82.18067	-65.90727	48.00653	23.59643	-74.04397	48.8202	109.84545	65.90727	34.98781	-101.70875	-84.62168	0
290	-13.83239	-74.85764	-61.02525	43.12451	23.59643	-66.72094	48.8202	100.08141	58.58424	32.5468	-101.70875	-84.62168	0
291	-13.83239	-67.53461	-53.70222	40.6835	18.71441	-59.39791	46.37919	92.75838	51.26121	25.22377	-101.70875	-84.62168	0
292	-13.83239	-62.65259	-48.8202	38.24249	16.2734	-54.51589	41.49717	78.11232	39.05616	15.45973	-101.70875	-84.62168	0
293	-17.08707	-57.77057	-41.49717	35.80148	11.39138	-49.63387	41.49717	65.90727	31.73313	13.01872	-101.70875	-84.62168	0
294	-24.4101	-55.32956	-31.73313	38.24249	4.06835	-44.75185	39.05616	56.14323	29.29212	13.01872	-96.82673	-82.18067	0
295	-26.85111	-48.00653	-21.96909	35.80148	-3.25468	-34.98781	36.61515	48.8202	19.52808	10.57771	-94.38572	-82.18067	0
296	-31.73313	-48.00653	-17.08707	38.24249	-8.1367	-32.5468	39.05616	43.93818	17.08707	3.25468	-89.5037	-76.48498	0
297	-36.61515	-45.56552	-9.76404	40.6835	-13.01872	-27.66478	39.05616	41.49717	14.64606	-1.62734	-87.06269	-74.04397	0
298	-39.05616	-40.6835	-2.44101	38.24249	-18.71441	-22.78276	36.61515	41.49717	14.64606	-1.62734	-87.06269	-69.16195	0
299	-39.05616	-35.80148	2.44101	35.80148	-21.15542	-17.90074	36.61515	36.61515	14.64606	-1.62734	-87.06269	-69.16195	0
300	-39.05616	-33.36047	4.88202	35.80148	-23.59643	-15.45973	39.05616	36.61515	14.64606	0.81367	-82.18067	-66.72094	0
301	-36.61515	-30.91946	4.88202	33.36047	-21.15542	-13.01872	39.05616	34.17414	9.76404	-1.62734	-79.73966	-64.27993	0
302	-26.85111	-26.03744	0	26.03744	-13.01872	-13.01872	34.17414	29.29212	2.44101	-6.50936	-79.73966	-64.27993	0
303	-24.4101	-26.03744	-2.44101	23.59643	-10.57771	-15.45973	34.17414	19.52808	0	-6.50936	-79.73966	-64.27993	0
304	-26.85111	-23.59643	2.44101	23.59643	-16.2734	-10.57771	31.73313	14.64606	0	-6.50936	-74.85764	-61.83892	0
305	-31.73313	-23.59643	7.32303	26.03744	-21.15542	-8.1367	29.29212	12.20505	-4.88202	-6.50936	-72.41663	-59.39791	0
306	-36.61515	-23.59643	12.20505	28.47845	-26.03744	-5.69569	29.29212	9.76404	-7.32303	-11.39138	-69.97562	-56.9569	0
307	-41.49717	-28.47845	12.20505	33.36047	-28.47845	-8.1367	26.03744	9.76404	-7.32303	-13.83239	-65.0936	-52.07488	0
308	-48.8202	-30.91946	17.90074	38.24249	-33.36047	-8.1367	23.59643	12.20505	-2.44101	-13.83239	-65.0936	-47.19286	0
309	-51.26121	-30.91946	20.34175	40.6835	-35.80148	-5.69569	21.15542	9.76404	-4.88202	-13.83239	-65.0936	-52.07488	0
310	-53.70222	-30.91946	22.78276	40.6835	-38.24249	-5.69569	21.15542	9.76404	-4.88202	-16.2734	-65.0936	-54.51589	0
311	-58.58424	-30.91946	27.66478	43.12451	-43.12451	-3.25468	23.59643	14.64606	-4.88202	-16.2734	-60.21158	-52.07488	0
312	-56.14323	-28.47845	27.66478	40.6835	-43.12451	-0.81367	26.03744	14.64606	-4.88202	-13.83239	-60.21158	-52.07488	0
313	-53.70222	-21.15542	32.5468	35.80148	-43.12451	4.06835	26.03744	12.20505	-4.88202	-11.39138	-57.77057	-52.07488	0
314	-61.02525	-13.83239	47.19286	35.80148	-55.32956	17.08707	26.03744	12.20505	0	-8.95037	-55.32956	-49.63387	0
315	-68.34828	-6.50936	61.83892	35.80148	-65.0936	26.85111	26.03744	12.20505	-2.44101	-6.50936	-52.88855	-49.63387	0
316	-68.34828	-1.62734	66.72094	33.36047	-67.53461	31.73313	29.29212	14.64606	-2.44101	-11.39138	-52.88855	-49.63387	0
317	-68.34828	6.50936	74.04397	30.91946	-69.97562	39.05616	26.03744	17.08707	0	-11.39138	-52.88855	-49.63387	0
318	-68.34828	8.95037	76.48498	28.47845	-72.41663	41.49717	26.03744	24.4101	4.88202	-11.39138	-50.44754	-42.31084	0
319	-61.02525	11.39138	71.60296	23.59643	-65.0936	41.49717	23.59643	24.4101	4.88202	-8.95037	-52.88855	-47.19286	0
320	-58.58424	11.39138	69.16195	23.59643	-62.65259	39.05616	18.71441	21.96909	4.88202	-8.95037	-52.88855	-49.63387	0
321	-56.14323	13.83239	69.16195	21.15542	-62.65259	41.49717	18.71441	24.4101	4.88202	-11.39138	-48.00653	-44.75185	0
322	-43.93818	13.83239	56.9569	13.83239	-50.44754	34.17414	18.71441	24.4101	2.44101	-8.95037	-43.12451	-42.31084	0
323	-39.05616	11.39138	49.63387	13.83239	-43.12451	29.29212	16.2734	19.52808	2.44101	-8.95037	-43.12451	-42.31084	0
324	-34.17414	4.06835	37.42882	13.83239	-35.80148	19.52808	16.2734	17.08707	2.44101	-6.50936	-40.6835	-39.86983	0
325	-36.61515	-1.62734	34.98781	18.71441	-35.80148	17.08707	16.2734	17.08707	2.44101	-4.06835	-35.80148	-39.86983	0
326	-34.17414	1.62734	34.98781	16.2734	-33.36047	17.08707	16.2734	19.52808	0	-6.50936	-35.80148	-39.86983	0
327	-34.17414	1.62734	34.98781	16.2734	-33.36047	17.08707	13.83239	21.96909	4.88202	-8.95037	-33.36047	-34.98781	0
328	-39.05616	4.06835	42.31084	16.2734	-40.6835	21.96909	13.83239	26.85111	9.76404	-8.95037	-33.36047	-30.10579	0
329	-46.37919	4.06835	49.63387	21.15542	-48.00653	26.85111	13.83239	29.29212	9.76404	-4.06835	-33.36047	-34.98781	0
330	-51.26121	4.06835	54.51589	23.59643	-52.88855	29.29212	13.83239	31.73313	12.20505	-1.62734	-33.36047	-34.98781	0
331	-51.26121	11.39138	61.83892	18.71441	-55.32956	36.61515	16.2734	36.61515	14.64606	0.81367	-28.47845	-34.98781	0
332	-46.37919	13.83239	59.39791	16.2734	-52.88855	36.61515	16.2734	39.05616	14.64606	3.25468	-26.03744	-32.5468	0
333	-46.37919	13.83239	59.39791	16.2734	-52.88855	36.61515	18.71441	36.61515	17.08707	5.69569	-23.59643	-32.5468	0
334	-46.37919	13.83239	59.39791	16.2734	-52.88855	36.61515	18.71441	36.61515	19.52808	8.1367	-21.15542	-32.5468	0
335	-51.26121	16.2734	66.72094	16.2734	-57.77057	41.49717	21.15542	36.61515	19.52808	10.57771	-18.71441	-30.10579	0
336	-53.70222	16.2734	69.16195	18.71441	-60.21158	41.49717	26.03744	41.49717	19.52808	10.57771	-16.2734	-30.10579	0
337	-46.37919	16.2734	61.83892	13.83239	-52.88855	39.05616	23.59643	43.93818	21.96909	5.69569	-16.2734	-27.66478	0
338	-39.05616	18.71441	56.9569	8.1367	-48.00653	36.61515	18.71441	46.37919	21.96909	5.69569	-23.59643	-27.66478	0
339	-36.61515	11.39138	47.19286	11.39138	-40.6835	29.29212	16.2734	41.49717	19.52808	3.25468	-28.47845	-34.98781	0
340	-36.61515	4.06835	39.86983	16.2734	-38.24249	21.96909	11.39138	41.49717	17.08707	3.25468	-33.36047	-39.86983	0
341	-41.49717	4.06835	44.75185	18.71441	-43.12451	24.4101	11.39138	41.49717	14.64606	0.81367	-33.36047	-39.86983	0
342	-36.61515	6.50936	42.31084	13.83239	-38.24249	24.4101	8.95037	39.05616	9.76404	0.81367	-33.36047	-39.86983	0
343	-29.29212	4.06835	32.5468	11.39138	-30.91946	17.08707	6.50936	31.73313	7.32303	0.81367	-33.36047	-39.86983	0
344	-24.4101	4.06835	27.66478	8.1367	-26.03744	14.64606	6.50936	29.29212	7.32303	3.25468	-30.91946	-39.86983	0
345	-26.85111	4.06835	30.10579	11.39138	-28.47845	17.08707	6.50936	29.29212	7.32303	5.69569	-28.47845	-39.86983	0
346	-31.73313	1.62734	32.5468	13.83239	-30.91946	17.08707	6.50936	29.29212	4.88202	3.25468	-26.03744	-39.86983	0
347	-39.05616	1.62734	39.86983	18.71441	-38.24249	19.52808	6.50936	31.73313	9.76404	3.25468	-23.59643	-34.98781	0
348	-39.05616	6.50936	44.75185	16.2734	-40.6835	24.4101	6.50936	36.61515	14.64606	8.1367	-21.15542	-32.5468	0
349	-34.17414	11.39138	44.75185	11.39138	-38.24249	26.85111	8.95037	36.61515	14.64606	10.57771	-23.59643	-34.98781	0
350	-29.29212	11.39138	39.86983	8.1367	-33.36047	24.4101	6.50936	34.17414	14.64606	10.57771	-26.03744	-39.86983	0
351	-29.29212	13.83239	42.31084	8.1367	-35.80148	26.85111	6.50936	36.61515	14.64606	13.01872	-23.59643	-37.42882	0
352	-31.73313	13.83239	44.75185	8.1367	-38.24249	29.29212	8.95037	36.61515	12.20505	15.45973	-18.71441	-34.98781	0
353	-36.61515	8.95037	44.75185	13.83239	-40.6835	26.85111	6.50936	29.29212	12.20505	15.45973	-18.71441	-34.98781	0
354	-46.37919	4.06835	49.63387	21.15542	-48.00653	26.85111	4.06835	24.4101	12.20505	20.34175	-18.71441	-32.5468	0
355	-46.37919	4.06835	49.63387	21.15542	-48.00653	26.85111	4.06835	21.96909	4.88202	20.34175	-18.71441	-32.5468	0
356	-51.26121	-1.62734	49.63387	26.03744	-50.44754	24.4101	6.50936	21.96909	2.44101	17.90074	-16.2734	-32.5468	0
357	-56.14323	-4.06835	52.07488	28.47845	-55.32956	24.4101	4.06835	21.96909	2.44101	13.01872	-13.83239	-30.10579	0
358	-58.58424	-6.50936	52.07488	30.91946	-55.32956	21.96909	1.62734	24.4101	4.88202	13.01872	-16.2734	-27.66478	0
359	-61.02525	-8.95037	52.07488	33.36047	-57.77057	21.96909	1.62734	24.4101	2.44101	15.45973	-18.71441	-30.10579	0
360	-61.02525	-8.95037	52.07488	33.36047	-57.77057	21.96909	1.62734	24.4101	0	15.45973	-18.71441	-32.5468	0
361	-58.58424	-4.06835	54.51589	30.91946	-57.77057	24.4101	1.62734	21.96909	-2.44101	13.01872	-18.71441	-34.98781	0
362	-51.26121	-1.62734	49.63387	26.03744	-50.44754	24.4101	1.62734	19.52808	-7.32303	13.01872	-18.71441	-34.98781	0
363	-43.93818	1.62734	44.75185	21.15542	-43.12451	21.96909	1.62734	17.08707	-7.32303	13.01872	-16.2734	-34.98781	0
364	-41.49717	1.62734	42.31084	18.71441	-40.6835	21.96909	-0.81367	7.32303	-9.76404	13.01872	-16.2734	-34.98781	0
365	-31.73313	1.62734	32.5468	13.83239	-30.91946	17.08707	-3.25468	4.88202	-14.64606	13.01872	-18.71441	-34.98781	0
366	-26.85111	6.50936	32.5468	8.1367	-28.47845	19.52808	-0.81367	4.88202	-14.64606	10.57771	-13.83239	-32.5468	0
367	-24.4101	11.39138	34.98781	5.69569	-28.47845	21.96909	1.62734	9.76404	-12.20505	8.1367	-8.95037	-27.66478	0
368	-24.4101	8.95037	32.5468	8.1367	-28.47845	19.52808	-0.81367	9.76404	-12.20505	5.69569	-11.39138	-25.22377	0
369	-17.08707	8.95037	25.22377	3.25468	-21.15542	17.08707	1.62734	12.20505	-12.20505	8.1367	-11.39138	-25.22377	0
370	-17.08707	8.95037	25.22377	3.25468	-21.15542	17.08707	1.62734	12.20505	-12.20505	8.1367	-8.95037	-25.22377	0
371	-17.08707	8.95037	25.22377	3.25468	-21.15542	17.08707	1.62734	12.20505	-17.08707	5.69569	-4.06835	-25.22377	0
372	-17.08707	6.50936	22.78276	5.69569	-18.71441	14.64606	4.06835	14.64606	-20.34175	5.69569	-1.62734	-22.78276	0
373	-17.08707	6.50936	22.78276	5.69569	-18.71441	14.64606	4.06835	12.20505	-20.34175	5.69569	0.81367	-22.78276	0
374	-17.08707	4.06835	20.34175	5.69569	-18.71441	12.20505	-0.81367	2.44101	-25.22377	5.69569	0.81367	-22.78276	0
375	-17.08707	1.62734	17.90074	8.1367	-16.2734	9.76404	-5.69569	-2.44101	-30.10579	3.25468	-4.06835	-27.66478	0
376	-19.52808	1.62734	20.34175	8.1367	-18.71441	9.76404	-8.1367	-2.44101	-32.5468	0.81367	-4.06835	-27.66478	0
377	-29.29212	-1.62734	27.66478	13.83239	-28.47845	12.20505	-10.57771	-2.44101	-34.98781	-4.06835	-4.06835	-27.66478	0
378	-31.73313	-1.62734	30.10579	16.2734	-30.91946	14.64606	-17.90074	-4.88202	-32.5468	-6.50936	-6.50936	-27.66478	0
379	-31.73313	1.62734	32.5468	13.83239	-30.91946	17.08707	-20.34175	-4.88202	-37.42882	-8.95037	-11.39138	-32.5468	0
380	-24.4101	1.62734	25.22377	11.39138	-23.59643	12.20505	-22.78276	-9.76404	-42.31084	-11.39138	-13.83239	-37.42882	0
381	-26.85111	1.62734	27.66478	11.39138	-26.03744	14.64606	-27.66478	-9.76404	-49.63387	-18.71441	-16.2734	-39.86983	0
382	-36.61515	-1.62734	34.98781	18.71441	-35.80148	17.08707	-27.66478	-12.20505	-54.51589	-21.15542	-16.2734	-42.31084	0
383	-39.05616	-6.50936	32.5468	21.15542	-35.80148	12.20505	-27.66478	-14.64606	-56.9569	-21.15542	-16.2734	-39.86983	0
384	-31.73313	-6.50936	25.22377	18.71441	-28.47845	9.76404	-27.66478	-20.34175	-64.27993	-21.15542	-16.2734	-42.31084	0
385	-24.4101	-1.62734	22.78276	11.39138	-23.59643	9.76404	-25.22377	-22.78276	-66.72094	-21.15542	-13.83239	-39.86983	0
386	-21.96909	-1.62734	20.34175	11.39138	-21.15542	9.76404	-22.78276	-20.34175	-69.16195	-21.15542	-11.39138	-37.42882	0
387	-24.4101	-1.62734	22.78276	11.39138	-23.59643	9.76404	-20.34175	-17.08707	-69.16195	-18.71441	-6.50936	-32.5468	0
388	-29.29212	-1.62734	27.66478	13.83239	-28.47845	12.20505	-22.78276	-14.64606	-66.72094	-18.71441	-4.06835	-30.10579	0
389	-34.17414	-1.62734	32.5468	16.2734	-33.36047	14.64606	-22.78276	-12.20505	-66.72094	-16.2734	-1.62734	-30.10579	0
390	-29.29212	4.06835	32.5468	11.39138	-30.91946	17.08707	-20.34175	-9.76404	-66.72094	-13.83239	0.81367	-27.66478	0
391	-29.29212	8.95037	37.42882	8.1367	-33.36047	21.96909	-20.34175	-9.76404	-69.16195	-16.2734	3.25468	-27.66478	0
392	-31.73313	11.39138	42.31084	8.1367	-35.80148	26.85111	-20.34175	-7.32303	-71.60296	-18.71441	5.69569	-27.66478	0
393	-41.49717	8.95037	49.63387	16.2734	-45.56552	29.29212	-17.90074	-9.76404	-74.04397	-18.71441	5.69569	-25.22377	0
394	-46.37919	4.06835	49.63387	21.15542	-48.00653	26.85111	-20.34175	-14.64606	-78.92599	-23.59643	5.69569	-27.66478	0
395	-48.8202	-1.62734	47.19286	23.59643	-48.00653	21.96909	-20.34175	-20.34175	-86.24902	-26.03744	5.69569	-30.10579	0
396	-48.8202	-1.62734	47.19286	23.59643	-48.00653	21.96909	-20.34175	-20.34175	-91.13104	-30.91946	5.69569	-32.5468	0
397	-43.93818	1.62734	44.75185	21.15542	-43.12451	21.96909	-20.34175	-22.78276	-93.57205	-33.36047	3.25468	-32.5468	0
398	-41.49717	1.62734	42.31084	18.71441	-40.6835	21.96909	-22.78276	-27.66478	-93.57205	-38.24249	0.81367	-32.5468	0
399	-41.49717	-1.62734	39.86983	21.15542	-40.6835	19.52808	-22.78276	-30.10579	-98.45407	-40.6835	-1.62734	-34.98781	0
400	-31.73313	-1.62734	30.10579	16.2734	-30.91946	14.64606	-25.22377	-32.5468	-103.33609	-43.12451	-4.06835	-37.42882	0
401	-31.73313	-1.62734	30.10579	16.2734	-30.91946	14.64606	-25.22377	-34.98781	-105.7771	-43.12451	-4.06835	-37.42882	0
402	-29.29212	-1.62734	27.66478	13.83239	-28.47845	12.20505	-25.22377	-37.42882	-110.65912	-48.00653	-4.06835	-37.42882	0
403	-21.96909	4.06835	25.22377	8.1367	-23.59643	14.64606	-25.22377	-42.31084	-110.65912	-50.44754	-4.06835	-37.42882	0
404	-19.52808	6.50936	25.22377	5.69569	-21.15542	14.64606	-30.10579	-47.19286	-115.54114	-50.44754	-6.50936	-37.42882	0
405	-24.4101	4.06835	27.66478	8.1367	-26.03744	14.64606	-30.10579	-52.07488	-120.42316	-52.88855	-6.50936	-37.42882	0
406	-26.85111	4.06835	30.10579	11.39138	-28.47845	17.08707	-25.22377	-49.63387	-120.42316	-52.88855	-4.06835	-37.42882	0
407	-29.29212	8.95037	37.42882	8.1367	-33.36047	21.96909	-25.22377	-47.19286	-117.98215	-52.88855	-4.06835	-34.98781	0
408	-31.73313	11.39138	42.31084	8.1367	-35.80148	26.85111	-25.22377	-47.19286	-115.54114	-52.88855	-4.06835	-34.98781	0
409	-34.17414	11.39138	44.75185	11.39138	-38.24249	26.85111	-25.22377	-47.19286	-115.54114	-52.88855	-6.50936	-37.42882	0
410	-34.17414	11.39138	44.75185	11.39138	-38.24249	26.85111	-25.22377	-47.19286	-117.98215	-55.32956	-8.95037	-39.86983	0
411	-36.61515	11.39138	47.19286	11.39138	-40.6835	29.29212	-20.34175	-47.19286	-117.98215	-55.32956	-8.95037	-39.86983	0
412	-36.61515	11.39138	47.19286	11.39138	-40.6835	29.29212	-20.34175	-49.63387	-122.86417	-57.77057	-8.95037	-39.86983	0
413	-34.17414	16.2734	49.63387	8.1367	-40.6835	31.73313	-20.34175	-52.07488	-122.86417	-57.77057	-8.95037	-39.86983	0
414	-36.61515	16.2734	52.07488	8.1367	-43.12451	34.17414	-20.34175	-54.51589	-122.86417	-57.77057	-8.95037	-42.31084	0
415	-41.49717	16.2734	56.9569	11.39138	-48.00653	36.61515	-20.34175	-59.39791	-127.74619	-60.21158	-11.39138	-44.75185	0
416	-41.49717	18.71441	59.39791	11.39138	-50.44754	39.05616	-20.34175	-59.39791	-130.1872	-65.0936	-11.39138	-44.75185	0
417	-36.61515	21.15542	56.9569	8.1367	-45.56552	39.05616	-20.34175	-59.39791	-132.62821	-67.53461	-11.39138	-44.75185	0
418	-36.61515	21.15542	56.9569	8.1367	-45.56552	39.05616	-22.78276	-61.83892	-132.62821	-69.97562	-13.83239	-44.75185	0
419	-36.61515	18.71441	54.51589	8.1367	-45.56552	36.61515	-22.78276	-64.27993	-132.62821	-69.97562	-16.2734	-49.63387	0
420	-39.05616	18.71441	56.9569	8.1367	-48.00653	36.61515	-22.78276	-64.27993	-135.06922	-73.2303	-16.2734	-52.07488	0
421	-46.37919	11.39138	56.9569	16.2734	-50.44754	34.17414	-22.78276	-64.27993	-137.51023	-73.2303	-18.71441	-54.51589	0
422	-46.37919	6.50936	52.07488	18.71441	-48.00653	29.29212	-22.78276	-66.72094	-139.95124	-75.67131	-21.15542	-54.51589	0
423	-43.93818	6.50936	49.63387	18.71441	-45.56552	26.85111	-20.34175	-71.60296	-142.39225	-75.67131	-21.15542	-54.51589	0
424	-48.8202	6.50936	54.51589	21.15542	-50.44754	29.29212	-17.90074	-71.60296	-142.39225	-75.67131	-21.15542	-54.51589	0
425	-51.26121	4.06835	54.51589	23.59643	-52.88855	29.29212	-15.45973	-71.60296	-142.39225	-75.67131	-21.15542	-54.51589	0
426	-48.8202	4.06835	52.07488	21.15542	-50.44754	26.85111	-13.01872	-71.60296	-142.39225	-75.67131	-21.15542	-54.51589	0
427	-46.37919	6.50936	52.07488	18.71441	-48.00653	29.29212	-13.01872	-69.16195	-142.39225	-78.11232	-21.15542	-52.07488	0
428	-41.49717	13.83239	54.51589	13.83239	-48.00653	34.17414	-15.45973	-69.16195	-139.95124	-80.55333	-23.59643	-52.07488	0
429	-34.17414	18.71441	52.07488	8.1367	-43.12451	34.17414	-17.90074	-71.60296	-139.95124	-80.55333	-26.03744	-54.51589	0
430	-34.17414	23.59643	56.9569	5.69569	-45.56552	39.05616	-17.90074	-69.16195	-139.95124	-78.11232	-26.03744	-54.51589	0
431	-31.73313	26.03744	56.9569	3.25468	-43.12451	41.49717	-17.90074	-69.16195	-139.95124	-78.11232	-26.03744	-56.9569	0
432	-26.85111	28.47845	54.51589	-1.62734	-40.6835	41.49717	-17.90074	-69.16195	-144.83326	-80.55333	-26.03744	-59.39791	0
433	-24.4101	28.47845	52.07488	-1.62734	-38.24249	39.05616	-17.90074	-74.04397	-147.27427	-82.99434	-28.47845	-61.83892	0
434	-26.85111	28.47845	54.51589	-1.62734	-40.6835	41.49717	-17.90074	-76.48498	-147.27427	-82.99434	-30.91946	-61.83892	0
435	-36.61515	26.03744	61.83892	5.69569	-48.00653	43.93818	-17.90074	-78.92599	-149.71528	-82.99434	-30.91946	-61.83892	0
436	-46.37919	18.71441	64.27993	13.83239	-55.32956	41.49717	-15.45973	-76.48498	-149.71528	-82.99434	-30.91946	-59.39791	0
437	-53.70222	13.83239	66.72094	18.71441	-60.21158	39.05616	-15.45973	-74.04397	-149.71528	-85.43535	-28.47845	-59.39791	0
438	-56.14323	11.39138	66.72094	21.15542	-60.21158	39.05616	-15.45973	-74.04397	-147.27427	-87.87636	-30.91946	-56.9569	0
439	-58.58424	11.39138	69.16195	23.59643	-62.65259	39.05616	-15.45973	-76.48498	-149.71528	-87.87636	-30.91946	-59.39791	0
440	-58.58424	11.39138	69.16195	23.59643	-62.65259	39.05616	-15.45973	-78.92599	-149.71528	-87.87636	-33.36047	-61.83892	0
441	-58.58424	8.95037	66.72094	23.59643	-62.65259	36.61515	-15.45973	-78.92599	-149.71528	-87.87636	-33.36047	-61.83892	0
442	-61.02525	4.06835	64.27993	28.47845	-62.65259	34.17414	-13.01872	-78.92599	-149.71528	-87.87636	-30.91946	-61.83892	0
443	-56.14323	4.06835	59.39791	26.03744	-57.77057	31.73313	-13.01872	-81.367	-149.71528	-90.31737	-33.36047	-66.72094	0
444	-51.26121	6.50936	56.9569	21.15542	-52.88855	31.73313	-13.01872	-83.80801	-152.15629	-90.31737	-33.36047	-69.16195	0
445	-48.8202	8.95037	56.9569	18.71441	-52.88855	31.73313	-13.01872	-86.24902	-154.5973	-90.31737	-35.80148	-71.60296	0
446	-41.49717	11.39138	52.07488	13.83239	-45.56552	31.73313	-13.01872	-86.24902	-154.5973	-90.31737	-38.24249	-76.48498	0
447	-41.49717	8.95037	49.63387	16.2734	-45.56552	29.29212	-13.01872	-83.80801	-152.15629	-92.75838	-38.24249	-76.48498	0
448	-46.37919	6.50936	52.07488	18.71441	-48.00653	29.29212	-10.57771	-81.367	-149.71528	-92.75838	-40.6835	-74.04397	0
449	-56.14323	4.06835	59.39791	26.03744	-57.77057	31.73313	-13.01872	-81.367	-149.71528	-90.31737	-40.6835	-76.48498	0
450	-56.14323	13.83239	69.16195	21.15542	-62.65259	41.49717	-8.1367	-76.48498	-144.83326	-85.43535	-35.80148	-71.60296	0
451	-58.58424	21.15542	78.92599	18.71441	-67.53461	48.8202	-0.81367	-71.60296	-137.51023	-78.11232	-30.91946	-66.72094	0
452	-63.46626	28.47845	91.13104	16.2734	-77.29865	58.58424	4.06835	-66.72094	-132.62821	-73.2303	-23.59643	-59.39791	0
453	-63.46626	30.91946	93.57205	16.2734	-77.29865	61.02525	4.06835	-66.72094	-130.1872	-73.2303	-18.71441	-56.9569	0
454	-63.46626	35.80148	98.45407	13.83239	-79.73966	65.90727	6.50936	-66.72094	-125.30518	-67.53461	-13.83239	-52.07488	0
455	-56.14323	45.56552	100.89508	5.69569	-77.29865	73.2303	8.95037	-66.72094	-125.30518	-65.0936	-13.83239	-52.07488	0
456	-43.93818	52.88855	96.01306	-4.06835	-69.97562	73.2303	8.95037	-66.72094	-127.74619	-69.97562	-13.83239	-52.07488	0
457	-34.17414	62.65259	96.01306	-13.83239	-65.0936	78.11232	11.39138	-66.72094	-127.74619	-73.2303	-13.83239	-52.07488	0
458	-29.29212	65.0936	93.57205	-18.71441	-60.21158	78.11232	8.95037	-74.04397	-132.62821	-75.67131	-21.15542	-54.51589	0
459	-26.85111	62.65259	88.69003	-18.71441	-57.77057	75.67131	8.95037	-78.92599	-137.51023	-82.99434	-28.47845	-61.83892	0
460	-26.85111	62.65259	88.69003	-18.71441	-57.77057	75.67131	8.95037	-88.69003	-147.27427	-90.31737	-35.80148	-66.72094	0
461	-24.4101	67.53461	91.13104	-21.15542	-57.77057	78.11232	8.95037	-96.01306	-154.5973	-100.08141	-40.6835	-71.60296	0
462	-21.96909	69.97562	91.13104	-23.59643	-55.32956	80.55333	13.83239	-100.89508	-159.47932	-102.52242	-43.12451	-71.60296	0
463	-21.96909	72.41663	93.57205	-26.03744	-57.77057	82.99434	16.2734	-108.21811	-161.92033	-107.40444	-45.56552	-74.04397	0
464	-26.85111	74.85764	100.89508	-23.59643	-62.65259	87.87636	21.15542	-110.65912	-161.92033	-107.40444	-45.56552	-71.60296	0
465	-34.17414	74.85764	108.21811	-21.15542	-69.97562	90.31737	23.59643	-113.10013	-164.36134	-104.96343	-43.12451	-66.72094	0
466	-36.61515	77.29865	113.10013	-21.15542	-74.85764	95.19939	26.03744	-110.65912	-164.36134	-104.96343	-40.6835	-64.27993	0
467	-34.17414	77.29865	110.65912	-21.15542	-72.41663	92.75838	26.03744	-110.65912	-164.36134	-107.40444	-40.6835	-61.83892	0
468	-26.85111	82.18067	108.21811	-28.47845	-67.53461	95.19939	21.15542	-110.65912	-161.92033	-109.84545	-43.12451	-59.39791	0
469	-21.96909	82.18067	103.33609	-30.91946	-62.65259	92.75838	18.71441	-110.65912	-161.92033	-107.40444	-43.12451	-61.83892	0
470	-17.08707	82.18067	98.45407	-33.36047	-57.77057	90.31737	13.83239	-110.65912	-161.92033	-107.40444	-45.56552	-64.27993	0
471	-11.39138	82.18067	93.57205	-35.80148	-52.88855	87.87636	6.50936	-110.65912	-164.36134	-107.40444	-48.00653	-66.72094	0
472	-4.06835	77.29865	81.367	-35.80148	-43.12451	80.55333	-0.81367	-110.65912	-164.36134	-107.40444	-48.00653	-66.72094	0
473	5.69569	77.29865	71.60296	-40.6835	-33.36047	75.67131	-8.1367	-110.65912	-164.36134	-107.40444	-48.00653	-66.72094	0
474	13.01872	82.18067	69.16195	-48.00653	-28.47845	75.67131	-17.90074	-113.10013	-164.36134	-107.40444	-48.00653	-66.72094	0
475	20.34175	82.18067	61.83892	-50.44754	-21.15542	73.2303	-22.78276	-113.10013	-164.36134	-107.40444	-48.00653	-66.72094	0
476	20.34175	74.85764	54.51589	-48.00653	-16.2734	65.90727	-27.66478	-110.65912	-164.36134	-107.40444	-48.00653	-66.72094	0
477	20.34175	69.97562	49.63387	-45.56552	-13.01872	61.02525	-32.5468	-108.21811	-159.47932	-107.40444	-43.12451	-61.83892	0
478	17.90074	69.97562	52.07488	-43.12451	-16.2734	61.02525	-32.5468	-100.89508	-149.71528	-100.08141	-38.24249	-54.51589	0
479	8.1367	72.41663	64.27993	-40.6835	-28.47845	68.34828	-27.66478	-93.57205	-139.95124	-90.31737	-33.36047	-49.63387	0
480	-4.06835	72.41663	76.48498	-33.36047	-40.6835	75.67131	-20.34175	-86.24902	-132.62821	-82.99434	-26.03744	-44.75185	0
481	-13.83239	67.53461	81.367	-26.03744	-48.00653	75.67131	-15.45973	-81.367	-127.74619	-78.11232	-21.15542	-42.31084	0
482	-24.4101	57.77057	81.367	-16.2734	-52.88855	68.34828	-8.1367	-76.48498	-125.30518	-75.67131	-18.71441	-42.31084	0
483	-34.17414	50.44754	83.80801	-8.95037	-57.77057	65.90727	-0.81367	-74.04397	-117.98215	-73.2303	-18.71441	-42.31084	0
484	-43.93818	50.44754	93.57205	-4.06835	-67.53461	70.78929	4.06835	-71.60296	-113.10013	-67.53461	-16.2734	-39.86983	0
485	-51.26121	45.56552	96.01306	3.25468	-72.41663	70.78929	11.39138	-69.16195	-110.65912	-65.0936	-16.2734	-39.86983	0
486	-58.58424	40.6835	98.45407	8.1367	-77.29865	68.34828	18.71441	-64.27993	-110.65912	-65.0936	-16.2734	-39.86983	0
487	-58.58424	30.91946	88.69003	13.83239	-72.41663	58.58424	18.71441	-66.72094	-110.65912	-69.97562	-21.15542	-44.75185	0
488	-61.02525	21.15542	81.367	18.71441	-69.97562	51.26121	16.2734	-69.16195	-110.65912	-73.2303	-28.47845	-49.63387	0
489	-61.02525	16.2734	76.48498	21.15542	-67.53461	46.37919	16.2734	-74.04397	-115.54114	-75.67131	-35.80148	-54.51589	0
490	-58.58424	13.83239	71.60296	21.15542	-65.0936	41.49717	13.83239	-76.48498	-117.98215	-80.55333	-40.6835	-61.83892	0
491	-58.58424	11.39138	69.16195	23.59643	-62.65259	39.05616	13.83239	-81.367	-120.42316	-82.99434	-43.12451	-66.72094	0
492	-53.70222	8.95037	61.83892	21.15542	-57.77057	34.17414	11.39138	-83.80801	-122.86417	-85.43535	-45.56552	-69.16195	0
493	-51.26121	4.06835	54.51589	23.59643	-52.88855	29.29212	11.39138	-88.69003	-122.86417	-87.87636	-50.44754	-74.04397	0
494	-51.26121	-1.62734	49.63387	26.03744	-50.44754	24.4101	6.50936	-96.01306	-127.74619	-90.31737	-52.88855	-78.92599	0
495	-53.70222	-6.50936	47.19286	28.47845	-50.44754	19.52808	4.06835	-100.89508	-135.06922	-90.31737	-55.32956	-82.18067	0
496	-56.14323	-8.95037	47.19286	30.91946	-52.88855	19.52808	4.06835	-113.10013	-144.83326	-92.75838	-55.32956	-82.18067	0
497	-56.14323	-13.83239	42.31084	33.36047	-50.44754	14.64606	1.62734	-105.7771	-125.30518	-85.43535	-55.32956	-82.18067	0
498	-51.26121	-16.2734	34.98781	33.36047	-43.12451	9.76404	-3.25468	-113.10013	-152.15629	-112.28646	-52.88855	-82.18067	0
499	-51.26121	-18.71441	32.5468	33.36047	-43.12451	6.50936	-0.81367	-86.24902	-125.30518	-92.75838	-50.44754	-78.92599	0
500	-48.8202	-21.15542	27.66478	33.36047	-38.24249	1.62734	4.06835	-86.24902	-113.10013	-95.19939	-50.44754	-78.92599	0
501	-48.8202	-21.15542	27.66478	33.36047	-38.24249	1.62734	8.95037	-103.33609	-113.10013	-95.19939	-57.77057	-76.48498	0
502	-41.49717	-21.15542	20.34175	30.91946	-30.91946	-0.81367	23.59643	-96.01306	-100.89508	-80.55333	-48.00653	-76.48498	0
503	-41.49717	-23.59643	17.90074	30.91946	-30.91946	-3.25468	41.49717	-56.9569	-81.367	-33.36047	-26.03744	-76.48498	0
504	-51.26121	-23.59643	27.66478	35.80148	-40.6835	1.62734	68.34828	51.26121	-4.88202	5.69569	-1.62734	-71.60296	0
505	-11.39138	-8.95037	2.44101	8.1367	-8.1367	-3.25468	95.19939	195.2808	85.43535	54.51589	13.01872	-61.83892	0
506	-1.62734	-11.39138	-9.76404	5.69569	4.06835	-10.57771	124.49151	412.53069	229.45494	164.36134	56.9569	-49.63387	0
507	-21.96909	-52.88855	-31.73313	35.80148	4.06835	-42.31084	173.31171	595.60644	383.23857	283.97083	108.21811	-25.22377	0
508	15.45973	-48.00653	-63.46626	16.2734	38.24249	-54.51589	224.57292	690.80583	463.7919	349.8781	142.39225	-20.34175	0
509	37.42882	-74.85764	-112.28646	18.71441	74.85764	-93.57205	241.65999	771.35916	532.14018	425.54941	198.53548	4.06835	0
510	64.27993	-140.76491	-205.04484	38.24249	133.44188	-171.68437	217.24989	910.49673	654.19068	564.68698	296.17588	62.65259	0
511	152.15629	-145.64693	-297.80322	-4.06835	223.75925	-220.50457	205.04484	932.46582	798.21027	755.08576	449.95951	170.05703	0
512	191.21245	-157.85198	-349.06443	-16.2734	270.13844	-252.2377	163.54767	776.24118	793.32825	872.25424	581.77405	260.3744	0
513	213.18154	-172.49804	-385.67958	-21.15542	299.43056	-279.08881	141.57858	554.10927	749.39007	1023.59686	774.61384	382.4249	0
514	279.08881	-155.41097	-434.49978	-62.65259	355.57379	-293.73487	73.2303	375.91554	790.88724	1223.75968	1038.24292	577.7057	0
515	401.13931	-77.29865	-478.43796	-162.734	438.56813	-276.6478	-20.34175	253.86504	868.99956	1443.45058	1309.19503	802.27862	0
516	467.04658	-30.91946	-497.96604	-218.87723	482.50631	-264.44275	-135.06922	124.49151	922.70178	1647.68175	1593.97953	1021.96952	0
517	491.45668	26.03744	-466.23291	-257.93339	480.0653	-220.50457	-203.4175	-91.13104	915.37875	1835.63952	1918.63386	1292.92163	0
518	523.18981	113.9138	-410.08968	-318.95864	467.86025	-147.27427	-276.6478	-320.58598	895.85067	2038.24335	2309.19546	1619.2033	0
519	615.94819	199.34915	-417.41271	-406.835	516.68045	-108.21811	-418.22638	-525.63082	876.32259	2253.05223	2741.25423	1975.59076	0
520	737.99869	250.61036	-488.202	-494.71136	614.32085	-117.98215	-576.89203	-628.15324	915.37875	2477.62515	3139.13886	2297.80408	0
521	755.08576	257.93339	-497.96604	-506.91641	626.5259	-120.42316	-786.81889	-777.05485	910.49673	2592.35262	3444.26511	2541.90508	0
522	789.2599	226.20026	-563.87331	-506.91641	677.78711	-169.24336	-979.65868	-947.92555	786.00522	2555.73747	3576.07965	2673.71962	0
523	825.87505	226.20026	-600.48846	-526.44449	714.40226	-186.33043	-1089.50413	-1104.15019	649.30866	2492.27121	3639.54591	2744.50891	0
524	847.84414	228.64127	-620.01654	-538.64954	733.93034	-196.09447	-1160.29342	-1172.49847	561.4323	2401.95384	3639.54591	2766.478	0
525	845.40313	228.64127	-617.57553	-536.20853	731.48933	-193.65346	-1250.61079	-1250.61079	456.46887	2250.61122	3527.25945	2722.53982	0
526	852.72616	221.31824	-632.22159	-536.20853	743.69438	-205.85851	-1326.2821	-1370.22028	300.24423	2008.95123	3273.39441	2529.70003	0
527	752.64475	192.02612	-561.4323	-472.74227	658.25903	-183.88942	-1311.63604	-1423.9225	192.83979	1789.26033	2987.79624	2324.65519	0
528	633.03526	170.05703	-463.7919	-401.95298	548.41358	-147.27427	-1235.96473	-1394.63038	92.75838	1519.12189	2658.25989	2070.79015	0
529	591.53809	65.0936	-527.25816	-328.72268	560.61863	-230.26861	-1152.97039	-1343.36917	-61.83892	1192.02655	2270.1393	1758.34087	0
530	523.18981	21.15542	-502.84806	-272.57945	514.23944	-240.03265	-1065.09403	-1287.22594	-191.21245	908.86939	1925.95689	1488.20243	0
531	437.75446	21.15542	-417.41271	-228.64127	428.80409	-198.53548	-996.74575	-1323.84109	-342.55507	537.83587	1524.00391	1205.04527	0
532	301.0579	50.44754	-251.42403	-174.93905	277.46147	-100.89508	-847.84414	-1235.96473	-445.07749	218.06356	1152.97039	980.47235	0
533	186.33043	79.73966	-107.40444	-133.44188	148.08794	-13.01872	-698.94253	-1250.61079	-755.08576	-358.82847	545.1589	616.76186	0
534	105.7771	96.82673	-9.76404	-101.70875	57.77057	43.93818	-584.21506	-1196.90857	-891.78232	-722.53896	78.92599	296.98955	0
535	32.5468	94.38572	61.83892	-62.65259	-13.01872	78.11232	-498.77971	-1091.94514	-867.37222	-781.1232	-129.37353	111.47279	0
536	-48.8202	87.06269	135.06922	-18.71441	-91.94471	109.84545	-437.75446	-996.74575	-794.14192	-724.97997	-170.8707	33.36047	0
537	-65.90727	145.64693	210.74053	-40.6835	-138.3239	178.19373	-357.20113	-891.78232	-689.17849	-634.6626	-156.22464	13.83239	0
538	-61.02525	174.93905	235.15063	-57.77057	-148.08794	205.04484	-315.70396	-818.55202	-640.35829	-605.37048	-175.75272	-39.86983	0
539	-95.19939	170.05703	264.44275	-38.24249	-179.82107	217.24989	-286.41184	-757.52677	-618.3892	-602.92947	-209.92686	-84.62168	0
540	-87.87636	204.23117	291.29386	-57.77057	-189.58511	246.54201	-218.06356	-652.56334	-564.68698	-566.31432	-212.36787	-96.82673	0
541	-58.58424	167.61602	225.38659	-55.32956	-140.76491	195.2808	-183.88942	-620.83021	-559.80496	-561.4323	-251.42403	-131.00087	0
542	-46.37919	165.17501	210.74053	-60.21158	-128.55986	187.95777	-159.47932	-576.89203	-537.83587	-561.4323	-292.9212	-174.93905	0
543	-90.31737	133.44188	222.94558	-21.15542	-155.41097	178.19373	-125.30518	-557.36395	-520.7488	-558.99129	-322.21332	-233.52329	0
544	-92.75838	121.23683	213.18154	-13.83239	-152.96996	165.98868	-81.367	-513.42577	-501.22072	-554.10927	-327.09534	-238.40531	0
545	-100.08141	104.14976	203.4175	-1.62734	-150.52895	153.78363	-91.13104	-508.54375	-510.98476	-551.66826	-341.7414	-255.49238	0
546	-107.40444	89.5037	196.09447	8.1367	-150.52895	141.57858	-54.51589	-474.36961	-493.89769	-551.66826	-361.26948	-262.81541	0
547	-112.28646	77.29865	188.77144	16.2734	-150.52895	131.81454	-32.5468	-447.5185	-481.69264	-551.66826	-375.91554	-275.02046	0
548	-119.60949	67.53461	186.33043	26.03744	-152.96996	126.93252	-27.66478	-437.75446	-469.48759	-546.78624	-390.5616	-287.22551	0
549	-122.0505	60.21158	181.44841	30.91946	-150.52895	119.60949	-25.22377	-408.46234	-459.72355	-541.90422	-400.32564	-296.98955	0
550	-119.60949	57.77057	176.56639	30.91946	-148.08794	117.16848	-13.01872	-364.52416	-452.40052	-534.58119	-407.64867	-306.75359	0
551	-124.49151	50.44754	174.12538	35.80148	-148.08794	112.28646	-3.25468	-384.05224	-442.63648	-529.69917	-412.53069	-314.07662	0
552	-122.0505	48.00653	169.24336	35.80148	-145.64693	107.40444	6.50936	-369.40618	-435.31345	-522.37614	-414.9717	-314.07662	0
553	-119.60949	45.56552	164.36134	35.80148	-140.76491	104.96343	16.2734	-354.76012	-425.54941	-510.17109	-412.53069	-314.07662	0
554	-122.0505	48.00653	169.24336	35.80148	-145.64693	107.40444	26.03744	-342.55507	-413.34436	-497.96604	-407.64867	-314.07662	0
555	-129.37353	48.00653	176.56639	40.6835	-152.96996	112.28646	36.61515	-330.35002	-401.13931	-483.31998	-400.32564	-309.1946	0
556	-134.25555	48.00653	181.44841	43.12451	-157.85198	114.72747	51.26121	-310.82194	-388.93426	-468.67392	-393.00261	-304.31258	0
557	-134.25555	48.00653	181.44841	43.12451	-157.85198	114.72747	61.02525	-296.17588	-379.17022	-458.90988	-388.12059	-301.87157	0
558	-139.13757	50.44754	188.77144	43.12451	-162.734	119.60949	65.90727	-283.97083	-366.96517	-451.58685	-385.67958	-296.98955	0
559	-139.13757	52.88855	191.21245	43.12451	-165.17501	122.0505	73.2303	-274.20679	-357.20113	-441.82281	-380.79756	-294.54854	0
560	-141.57858	52.88855	193.65346	43.12451	-167.61602	122.0505	80.55333	-266.88376	-349.8781	-434.49978	-380.79756	-294.54854	0
561	-144.01959	48.00653	191.21245	48.00653	-167.61602	119.60949	82.99434	-262.00174	-347.43709	-432.05877	-380.79756	-294.54854	0
562	-144.01959	45.56552	188.77144	48.00653	-165.17501	117.16848	85.43535	-257.11972	-347.43709	-429.61776	-380.79756	-294.54854	0
563	-144.01959	43.12451	186.33043	50.44754	-165.17501	114.72747	87.87636	-254.67871	-344.99608	-427.17675	-380.79756	-294.54854	0
564	-139.13757	43.12451	181.44841	48.00653	-160.29299	112.28646	87.87636	-254.67871	-342.55507	-424.73574	-380.79756	-294.54854	0
565	-136.69656	45.56552	181.44841	45.56552	-157.85198	112.28646	90.31737	-254.67871	-342.55507	-422.29473	-383.23857	-296.98955	0
566	-131.81454	48.00653	179.0074	40.6835	-155.41097	112.28646	92.75838	-247.35568	-340.11406	-422.29473	-383.23857	-296.98955	0
567	-134.25555	48.00653	181.44841	43.12451	-157.85198	114.72747	95.19939	-240.03265	-337.67305	-419.85372	-380.79756	-294.54854	0
568	-134.25555	45.56552	179.0074	43.12451	-155.41097	112.28646	95.19939	-235.15063	-330.35002	-419.85372	-380.79756	-292.10753	0
569	-134.25555	48.00653	181.44841	43.12451	-157.85198	114.72747	97.6404	-230.26861	-325.468	-414.9717	-380.79756	-289.66652	0
570	-131.81454	48.00653	179.0074	40.6835	-155.41097	112.28646	100.08141	-227.8276	-323.02699	-414.9717	-380.79756	-292.10753	0
571	-129.37353	48.00653	176.56639	40.6835	-152.96996	112.28646	100.08141	-222.94558	-320.58598	-412.53069	-383.23857	-292.10753	0
572	-131.81454	45.56552	176.56639	43.12451	-152.96996	109.84545	97.6404	-222.94558	-320.58598	-412.53069	-383.23857	-292.10753	0
573	-131.81454	45.56552	176.56639	43.12451	-152.96996	109.84545	100.08141	-215.62255	-315.70396	-407.64867	-380.79756	-289.66652	0
574	-134.25555	43.12451	176.56639	45.56552	-155.41097	109.84545	102.52242	-215.62255	-313.26295	-402.76665	-380.79756	-289.66652	0
575	-139.13757	40.6835	179.0074	48.00653	-157.85198	109.84545	102.52242	-213.18154	-310.82194	-400.32564	-378.35655	-289.66652	0
576	-136.69656	43.12451	179.0074	45.56552	-157.85198	109.84545	107.40444	-203.4175	-308.38093	-395.44362	-375.91554	-287.22551	-1250	T-0
577	-136.69656	45.56552	181.44841	45.56552	-157.85198	112.28646	107.40444	-196.09447	-303.49891	-395.44362	-373.47453	-287.22551	0
578	-136.69656	50.44754	186.33043	43.12451	-160.29299	117.16848	112.28646	-183.88942	-293.73487	-390.5616	-368.59251	-279.90248	0
579	-141.57858	57.77057	198.53548	40.6835	-170.05703	126.93252	117.16848	-174.12538	-283.97083	-383.23857	-366.1515	-277.46147	0
580	-139.13757	65.0936	203.4175	35.80148	-170.05703	134.25555	122.0505	-164.36134	-274.20679	-375.91554	-361.26948	-275.02046	0
581	-134.25555	69.97562	203.4175	30.91946	-167.61602	136.69656	122.0505	-154.5973	-269.32477	-373.47453	-358.82847	-272.57945	0
582	-129.37353	69.97562	198.53548	28.47845	-162.734	134.25555	119.60949	-149.71528	-266.88376	-371.03352	-356.38746	-272.57945	0
583	-122.0505	69.97562	191.21245	26.03744	-155.41097	129.37353	117.16848	-144.83326	-264.44275	-368.59251	-356.38746	-275.02046	0
584	-124.49151	67.53461	191.21245	28.47845	-157.85198	129.37353	117.16848	-142.39225	-259.56073	-366.1515	-356.38746	-275.02046	0
585	-129.37353	67.53461	196.09447	30.91946	-162.734	131.81454	117.16848	-135.06922	-252.2377	-358.82847	-353.94645	-272.57945	0
586	-134.25555	69.97562	203.4175	30.91946	-167.61602	136.69656	122.0505	-120.42316	-244.91467	-351.50544	-349.06443	-267.69743	0
587	-139.13757	67.53461	205.85851	35.80148	-172.49804	136.69656	122.0505	-108.21811	-237.59164	-346.62342	-346.62342	-265.25642	0
588	-141.57858	67.53461	208.29952	35.80148	-174.93905	136.69656	119.60949	-96.01306	-227.8276	-341.7414	-346.62342	-265.25642	0
589	-141.57858	67.53461	208.29952	35.80148	-174.93905	136.69656	119.60949	-83.80801	-215.62255	-334.41837	-344.18241	-262.81541	0
590	-139.13757	72.41663	210.74053	33.36047	-174.93905	141.57858	122.0505	-69.16195	-203.4175	-324.65433	-341.7414	-260.3744	0
591	-139.13757	77.29865	215.62255	30.91946	-177.38006	146.4606	129.37353	-49.63387	-188.77144	-312.44928	-334.41837	-253.05137	0
592	-134.25555	84.62168	218.06356	23.59643	-174.93905	151.34262	129.37353	-32.5468	-176.56639	-302.68524	-329.53635	-250.61036	0
593	-129.37353	87.06269	215.62255	21.15542	-172.49804	151.34262	131.81454	-17.08707	-164.36134	-295.36221	-327.09534	-248.16935	0
594	-122.0505	87.06269	208.29952	16.2734	-165.17501	146.4606	131.81454	-4.88202	-154.5973	-288.03918	-324.65433	-248.16935	0
595	-122.0505	87.06269	208.29952	16.2734	-165.17501	146.4606	134.25555	9.76404	-139.95124	-275.83413	-319.77231	-248.16935	0
596	-119.60949	82.18067	200.97649	18.71441	-160.29299	141.57858	139.13757	34.17414	-127.74619	-266.07009	-314.89029	-245.72834	0
597	-119.60949	82.18067	200.97649	18.71441	-160.29299	141.57858	144.01959	36.61515	-110.65912	-256.30605	-307.56726	-240.84632	0
598	-117.16848	82.18067	198.53548	16.2734	-157.85198	139.13757	146.4606	65.90727	-93.57205	-246.54201	-305.12625	-238.40531	0
599	-124.49151	77.29865	200.97649	23.59643	-162.734	139.13757	151.34262	112.28646	-74.04397	-231.89595	-300.24423	-235.9643	0
600	-129.37353	69.97562	198.53548	28.47845	-162.734	134.25555	153.78363	131.81454	-56.9569	-219.6909	-295.36221	-235.9643	0
601	-131.81454	60.21158	191.21245	35.80148	-160.29299	124.49151	161.10666	156.22464	-37.42882	-205.04484	-290.48019	-233.52329	0
602	-126.93252	55.32956	181.44841	35.80148	-152.96996	117.16848	165.98868	187.95777	-20.34175	-192.83979	-283.15716	-231.08228	0
603	-126.93252	55.32956	181.44841	35.80148	-152.96996	117.16848	168.42969	207.48585	-2.44101	-175.75272	-278.27514	-228.64127	0
604	-122.0505	57.77057	179.0074	30.91946	-150.52895	117.16848	173.31171	224.57292	17.08707	-161.10666	-270.95211	-228.64127	0
605	-122.0505	57.77057	179.0074	30.91946	-150.52895	117.16848	175.75272	256.30605	34.17414	-146.4606	-266.07009	-228.64127	0
606	-122.0505	55.32956	176.56639	33.36047	-148.08794	114.72747	180.63474	290.48019	53.70222	-129.37353	-261.18807	-228.64127	0
607	-117.16848	52.88855	169.24336	30.91946	-143.20592	109.84545	183.07575	322.21332	70.78929	-114.72747	-256.30605	-228.64127	0
608	-117.16848	55.32956	171.68437	30.91946	-143.20592	112.28646	185.51676	363.71049	97.6404	-100.08141	-251.42403	-223.75925	0
609	-119.60949	55.32956	174.12538	30.91946	-145.64693	114.72747	190.39878	397.88463	119.60949	-80.55333	-244.101	-221.31824	0
610	-124.49151	50.44754	174.12538	35.80148	-148.08794	112.28646	192.83979	444.26382	144.01959	-62.65259	-236.77797	-221.31824	0
611	-124.49151	48.00653	171.68437	38.24249	-148.08794	109.84545	197.72181	463.7919	165.98868	-43.12451	-231.89595	-221.31824	0
612	-114.72747	40.6835	154.5973	35.80148	-133.44188	97.6404	200.16282	510.17109	187.95777	-26.03744	-224.57292	-221.31824	0
613	-107.40444	30.91946	137.51023	38.24249	-121.23683	82.99434	202.60383	510.17109	207.48585	-8.95037	-219.6909	-221.31824	0
614	-97.6404	23.59643	120.42316	35.80148	-109.03178	70.78929	205.04484	551.66826	229.45494	13.01872	-212.36787	-221.31824	0
615	-92.75838	18.71441	110.65912	35.80148	-101.70875	63.46626	209.92686	580.96038	253.86504	32.5468	-202.60383	-218.87723	0
616	-80.55333	11.39138	91.13104	33.36047	-84.62168	51.26121	214.80888	600.48846	270.95211	49.63387	-197.72181	-218.87723	0
617	-61.02525	6.50936	66.72094	26.03744	-62.65259	36.61515	214.80888	634.6626	290.48019	66.72094	-192.83979	-218.87723	0
618	-46.37919	6.50936	52.07488	18.71441	-48.00653	29.29212	219.6909	663.95472	317.3313	86.24902	-183.07575	-216.43622	0
619	-31.73313	6.50936	37.42882	11.39138	-33.36047	21.96909	222.13191	705.45189	341.7414	108.21811	-178.19373	-213.99521	0
620	-21.96909	1.62734	22.78276	8.1367	-21.15542	12.20505	224.57292	751.83108	358.82847	127.74619	-173.31171	-216.43622	0
621	-17.08707	-4.06835	12.20505	8.1367	-16.2734	4.06835	224.57292	759.15411	375.91554	144.83326	-168.42969	-216.43622	0
622	-11.39138	-6.50936	4.88202	8.1367	-8.1367	-0.81367	227.01393	800.65128	395.44362	166.80235	-158.66565	-216.43622	0
623	-1.62734	-11.39138	-9.76404	5.69569	4.06835	-10.57771	227.01393	803.09229	412.53069	186.33043	-151.34262	-213.99521	0
624	-1.62734	-18.71441	-17.08707	8.1367	6.50936	-17.90074	227.01393	812.85633	429.61776	205.85851	-144.01959	-211.5542	0
625	-8.95037	-30.91946	-21.96909	18.71441	6.50936	-25.22377	227.01393	832.38441	446.70483	227.8276	-136.69656	-206.67218	0
626	-6.50936	-45.56552	-39.05616	26.03744	16.2734	-42.31084	227.01393	849.47148	458.90988	242.47366	-129.37353	-206.67218	0
627	-4.06835	-60.21158	-56.14323	30.91946	26.03744	-56.9569	222.13191	864.11754	468.67392	257.11972	-124.49151	-206.67218	0
628	0.81367	-69.97562	-70.78929	33.36047	35.80148	-69.16195	217.24989	878.7636	480.87897	269.32477	-119.60949	-204.23117	0
629	0.81367	-79.73966	-80.55333	38.24249	40.6835	-78.92599	217.24989	893.40966	495.52503	286.41184	-112.28646	-201.79016	0
630	5.69569	-89.5037	-95.19939	40.6835	50.44754	-91.13104	214.80888	905.61471	507.73008	303.49891	-109.84545	-201.79016	0
631	10.57771	-106.59077	-117.16848	48.00653	62.65259	-110.65912	209.92686	910.49673	512.6121	310.82194	-104.14976	-201.79016	0
632	17.90074	-121.23683	-139.13757	50.44754	77.29865	-130.1872	207.48585	917.81976	517.49412	320.58598	-99.26774	-201.79016	0
633	27.66478	-135.88289	-163.54767	52.88855	94.38572	-149.71528	202.60383	917.81976	517.49412	327.90901	-96.82673	-206.67218	0
634	37.42882	-143.20592	-180.63474	52.88855	109.03178	-161.92033	197.72181	915.37875	519.93513	335.23204	-96.82673	-209.11319	0
635	47.19286	-152.96996	-200.16282	52.88855	123.67784	-176.56639	192.83979	910.49673	519.93513	340.11406	-96.82673	-211.5542	0
636	47.19286	-165.17501	-212.36787	57.77057	128.55986	-188.77144	190.39878	912.93774	517.49412	344.99608	-94.38572	-213.99521	0
637	44.75185	-179.82107	-224.57292	67.53461	133.44188	-200.97649	187.95777	912.93774	517.49412	344.99608	-94.38572	-213.99521	0
638	49.63387	-192.02612	-241.65999	69.97562	145.64693	-215.62255	180.63474	905.61471	515.05311	344.99608	-96.82673	-216.43622	0
639	52.07488	-206.67218	-258.74706	77.29865	155.41097	-232.70962	175.75272	898.29168	512.6121	347.43709	-99.26774	-218.87723	0
640	52.07488	-216.43622	-268.5111	82.18067	160.29299	-242.47366	168.42969	888.52764	507.73008	349.8781	-101.70875	-223.75925	0
641	52.07488	-221.31824	-273.39312	84.62168	162.734	-247.35568	163.54767	878.7636	502.84806	349.8781	-101.70875	-223.75925	0
642	52.07488	-226.20026	-278.27514	87.06269	165.17501	-252.2377	158.66565	866.55855	495.52503	347.43709	-101.70875	-221.31824	0
643	54.51589	-228.64127	-283.15716	87.06269	167.61602	-254.67871	156.22464	856.79451	490.64301	347.43709	-99.26774	-216.43622	0
644	56.9569	-233.52329	-290.48019	87.06269	172.49804	-262.00174	153.78363	839.70744	485.76099	349.8781	-96.82673	-213.99521	0
645	66.72094	-238.40531	-305.12625	84.62168	184.70309	-271.76578	146.4606	820.17936	473.55594	342.55507	-96.82673	-211.5542	0
646	66.72094	-243.28733	-310.00827	87.06269	187.1441	-276.6478	141.57858	805.5333	461.35089	337.67305	-94.38572	-209.11319	0
647	66.72094	-248.16935	-314.89029	89.5037	189.58511	-281.52982	139.13757	788.44623	451.58685	332.79103	-91.94471	-206.67218	0
648	74.04397	-248.16935	-322.21332	87.06269	196.90814	-283.97083	131.81454	768.91815	444.26382	323.02699	-91.94471	-201.79016	0
649	83.80801	-248.16935	-331.97736	82.18067	206.67218	-288.85285	126.93252	749.39007	432.05877	318.14497	-91.94471	-201.79016	0
650	93.57205	-243.28733	-336.85938	74.85764	213.99521	-288.85285	126.93252	729.86199	419.85372	313.26295	-91.94471	-199.34915	0
651	93.57205	-243.28733	-336.85938	74.85764	213.99521	-288.85285	122.0505	707.8929	407.64867	305.93992	-91.94471	-196.90814	0
652	88.69003	-245.72834	-334.41837	77.29865	211.5542	-288.85285	117.16848	683.4828	390.5616	296.17588	-91.94471	-194.46713	0
653	86.24902	-240.84632	-327.09534	77.29865	206.67218	-283.97083	114.72747	659.0727	375.91554	288.85285	-91.94471	-189.58511	0
654	83.80801	-235.9643	-319.77231	74.85764	201.79016	-276.6478	109.84545	632.22159	361.26948	279.08881	-91.94471	-187.1441	0
655	86.24902	-231.08228	-317.3313	72.41663	201.79016	-274.20679	102.52242	602.92947	344.18241	269.32477	-91.94471	-184.70309	0
656	88.69003	-223.75925	-312.44928	67.53461	199.34915	-266.88376	100.08141	580.96038	327.09534	259.56073	-91.94471	-179.82107	0
657	83.80801	-216.43622	-300.24423	65.0936	192.02612	-257.11972	100.08141	558.99129	312.44928	249.79669	-87.06269	-174.93905	0
658	76.48498	-216.43622	-292.9212	69.97562	184.70309	-254.67871	92.75838	534.58119	297.80322	237.59164	-87.06269	-167.61602	0
659	74.04397	-211.5542	-285.59817	67.53461	179.82107	-247.35568	87.87636	507.73008	283.15716	225.38659	-89.5037	-165.17501	0
660	76.48498	-204.23117	-280.71615	62.65259	177.38006	-242.47366	82.99434	480.87897	266.07009	215.62255	-89.5037	-162.734	0
661	78.92599	-199.34915	-278.27514	60.21158	177.38006	-237.59164	78.11232	456.46887	248.98302	203.4175	-89.5037	-157.85198	0
662	78.92599	-189.58511	-268.5111	55.32956	172.49804	-227.8276	75.67131	432.05877	229.45494	188.77144	-89.5037	-152.96996	0
663	81.367	-179.82107	-261.18807	48.00653	170.05703	-220.50457	73.2303	405.20766	212.36787	174.12538	-89.5037	-148.08794	0
664	76.48498	-170.05703	-246.54201	45.56552	160.29299	-208.29952	68.34828	378.35655	195.2808	161.92033	-89.5037	-145.64693	0
665	69.16195	-165.17501	-234.33696	48.00653	150.52895	-198.53548	61.02525	349.06443	178.19373	149.71528	-91.94471	-143.20592	0
666	61.83892	-162.734	-224.57292	50.44754	143.20592	-193.65346	58.58424	327.09534	158.66565	135.06922	-94.38572	-143.20592	0
667	56.9569	-152.96996	-209.92686	48.00653	133.44188	-181.44841	53.70222	305.12625	144.01959	122.86417	-94.38572	-140.76491	0
668	54.51589	-145.64693	-200.16282	45.56552	126.11885	-171.68437	48.8202	283.15716	129.37353	110.65912	-94.38572	-135.88289	0
669	44.75185	-135.88289	-180.63474	45.56552	111.47279	-157.03831	48.8202	263.62908	117.16848	100.89508	-96.82673	-135.88289	0
670	39.86983	-133.44188	-173.31171	45.56552	106.59077	-152.15629	43.93818	241.65999	102.52242	88.69003	-96.82673	-135.88289	0
671	32.5468	-131.00087	-163.54767	48.00653	96.82673	-147.27427	43.93818	224.57292	90.31737	81.367	-96.82673	-131.00087	0
672	30.10579	-121.23683	-151.34262	45.56552	89.5037	-135.06922	43.93818	209.92686	78.11232	74.04397	-94.38572	-126.11885	0
673	30.10579	-113.9138	-144.01959	40.6835	87.06269	-127.74619	43.93818	192.83979	65.90727	64.27993	-91.94471	-121.23683	0
674	22.78276	-109.03178	-131.81454	43.12451	77.29865	-120.42316	41.49717	173.31171	53.70222	56.9569	-89.5037	-118.79582	0
675	13.01872	-104.14976	-117.16848	45.56552	65.0936	-110.65912	39.05616	156.22464	43.93818	49.63387	-89.5037	-113.9138	0
676	3.25468	-101.70875	-104.96343	48.00653	52.88855	-103.33609	39.05616	144.01959	31.73313	39.86983	-89.5037	-111.47279	0
677	0.81367	-96.82673	-97.6404	48.00653	48.00653	-96.01306	36.61515	131.81454	19.52808	32.5468	-87.06269	-111.47279	0
678	-4.06835	-94.38572	-90.31737	48.00653	43.12451	-91.13104	36.61515	122.0505	14.64606	25.22377	-84.62168	-106.59077	0
679	-4.06835	-84.62168	-80.55333	43.12451	38.24249	-81.367	31.73313	109.84545	7.32303	20.34175	-84.62168	-104.14976	0
680	-4.06835	-77.29865	-73.2303	40.6835	33.36047	-74.04397	29.29212	95.19939	-2.44101	13.01872	-84.62168	-104.14976	0
681	-11.39138	-72.41663	-61.02525	40.6835	23.59643	-66.72094	29.29212	82.99434	-9.76404	8.1367	-82.18067	-101.70875	0
682	-17.08707	-67.53461	-51.26121	40.6835	16.2734	-59.39791	26.03744	75.67131	-17.08707	3.25468	-79.73966	-99.26774	0
683	-17.08707	-60.21158	-43.93818	38.24249	13.83239	-52.07488	29.29212	65.90727	-22.78276	-4.06835	-79.73966	-96.82673	0
684	-17.08707	-57.77057	-41.49717	35.80148	11.39138	-49.63387	26.03744	53.70222	-27.66478	-8.95037	-79.73966	-96.82673	0
685	-21.96909	-52.88855	-31.73313	35.80148	4.06835	-42.31084	26.03744	43.93818	-32.5468	-13.83239	-79.73966	-94.38572	0
686	-24.4101	-48.00653	-24.4101	35.80148	-0.81367	-37.42882	23.59643	36.61515	-37.42882	-18.71441	-79.73966	-94.38572	0
687	-26.85111	-43.12451	-17.08707	33.36047	-5.69569	-30.10579	23.59643	29.29212	-44.75185	-26.03744	-79.73966	-94.38572	0
688	-26.85111	-38.24249	-12.20505	30.91946	-8.1367	-25.22377	23.59643	24.4101	-44.75185	-33.36047	-79.73966	-94.38572	0
689	-31.73313	-33.36047	-2.44101	30.91946	-16.2734	-17.90074	21.15542	14.64606	-49.63387	-35.80148	-79.73966	-94.38572	0
690	-34.17414	-33.36047	0	33.36047	-18.71441	-17.90074	18.71441	7.32303	-52.07488	-38.24249	-82.18067	-96.82673	0
691	-31.73313	-30.91946	0	30.91946	-16.2734	-15.45973	16.2734	0	-54.51589	-38.24249	-82.18067	-96.82673	0
692	-31.73313	-23.59643	7.32303	26.03744	-21.15542	-8.1367	18.71441	0	-56.9569	-38.24249	-77.29865	-89.5037	0
693	-26.85111	-21.15542	4.88202	23.59643	-16.2734	-8.1367	21.15542	-4.88202	-56.9569	-38.24249	-72.41663	-87.06269	0
694	-26.85111	-16.2734	9.76404	21.15542	-18.71441	-3.25468	23.59643	-7.32303	-56.9569	-35.80148	-67.53461	-82.18067	0
695	-31.73313	-11.39138	20.34175	21.15542	-26.03744	4.06835	23.59643	-9.76404	-56.9569	-35.80148	-65.0936	-78.92599	0
696	-31.73313	-8.95037	22.78276	18.71441	-28.47845	6.50936	26.03744	-9.76404	-56.9569	-35.80148	-65.0936	-74.04397	0
697	-34.17414	-8.95037	25.22377	21.15542	-30.91946	6.50936	26.03744	-9.76404	-56.9569	-35.80148	-62.65259	-74.04397	0
698	-36.61515	-6.50936	30.10579	21.15542	-33.36047	12.20505	26.03744	-4.88202	-52.07488	-38.24249	-57.77057	-69.16195	0
699	-34.17414	-4.06835	30.10579	18.71441	-33.36047	12.20505	26.03744	-7.32303	-52.07488	-38.24249	-57.77057	-69.16195	0
700	-34.17414	-4.06835	30.10579	18.71441	-33.36047	12.20505	26.03744	-9.76404	-52.07488	-38.24249	-57.77057	-71.60296	0
701	-34.17414	-4.06835	30.10579	18.71441	-33.36047	12.20505	23.59643	-14.64606	-54.51589	-43.12451	-57.77057	-74.04397	0
702	-36.61515	-4.06835	32.5468	18.71441	-35.80148	14.64606	18.71441	-20.34175	-61.83892	-48.00653	-60.21158	-76.48498	0
703	-39.05616	-4.06835	34.98781	21.15542	-38.24249	14.64606	18.71441	-22.78276	-64.27993	-48.00653	-57.77057	-76.48498	0
704	-43.93818	-8.95037	34.98781	26.03744	-40.6835	12.20505	16.2734	-22.78276	-64.27993	-50.44754	-55.32956	-76.48498	0
705	-46.37919	-6.50936	39.86983	26.03744	-43.12451	17.08707	16.2734	-25.22377	-61.83892	-50.44754	-50.44754	-71.60296	0
706	-41.49717	-1.62734	39.86983	21.15542	-40.6835	19.52808	16.2734	-20.34175	-56.9569	-48.00653	-48.00653	-66.72094	0
707	-36.61515	6.50936	42.31084	13.83239	-38.24249	24.4101	16.2734	-20.34175	-54.51589	-45.56552	-43.12451	-66.72094	0
708	-34.17414	13.83239	47.19286	8.1367	-40.6835	29.29212	16.2734	-14.64606	-49.63387	-45.56552	-38.24249	-61.83892	0
709	-39.05616	18.71441	56.9569	8.1367	-48.00653	36.61515	18.71441	-12.20505	-44.75185	-43.12451	-33.36047	-59.39791	0
710	-39.05616	21.15542	59.39791	8.1367	-48.00653	39.05616	21.15542	-7.32303	-39.86983	-38.24249	-28.47845	-56.9569	0
711	-34.17414	26.03744	59.39791	3.25468	-45.56552	41.49717	23.59643	-4.88202	-34.98781	-35.80148	-23.59643	-54.51589	0
712	-31.73313	26.03744	56.9569	3.25468	-43.12451	41.49717	23.59643	-2.44101	-34.98781	-33.36047	-21.15542	-54.51589	0
713	-24.4101	30.91946	54.51589	-4.06835	-38.24249	41.49717	23.59643	-2.44101	-34.98781	-33.36047	-18.71441	-52.07488	0
714	-19.52808	28.47845	47.19286	-4.06835	-33.36047	36.61515	21.15542	-7.32303	-37.42882	-35.80148	-18.71441	-54.51589	0
715	-19.52808	23.59643	42.31084	-1.62734	-30.91946	31.73313	18.71441	-9.76404	-37.42882	-35.80148	-18.71441	-54.51589	0
716	-21.96909	23.59643	44.75185	-1.62734	-33.36047	34.17414	18.71441	-7.32303	-34.98781	-35.80148	-18.71441	-52.07488	0
717	-19.52808	23.59643	42.31084	-1.62734	-30.91946	31.73313	18.71441	-4.88202	-34.98781	-35.80148	-18.71441	-54.51589	0
718	-17.08707	21.15542	37.42882	-1.62734	-26.03744	29.29212	16.2734	-2.44101	-30.10579	-35.80148	-18.71441	-54.51589	0
719	-17.08707	21.15542	37.42882	-1.62734	-26.03744	29.29212	16.2734	2.44101	-27.66478	-35.80148	-16.2734	-54.51589	0
720	-17.08707	21.15542	37.42882	-1.62734	-26.03744	29.29212	18.71441	4.88202	-22.78276	-30.91946	-13.83239	-54.51589	0
721	-17.08707	21.15542	37.42882	-1.62734	-26.03744	29.29212	21.15542	7.32303	-20.34175	-28.47845	-13.83239	-52.07488	0
722	-19.52808	23.59643	42.31084	-1.62734	-30.91946	31.73313	23.59643	12.20505	-20.34175	-28.47845	-11.39138	-49.63387	0
723	-26.85111	26.03744	52.07488	0.81367	-38.24249	39.05616	26.03744	12.20505	-20.34175	-26.03744	-8.95037	-49.63387	0
724	-31.73313	23.59643	54.51589	3.25468	-43.12451	39.05616	26.03744	12.20505	-17.08707	-23.59643	-8.95037	-49.63387	0
725	-39.05616	21.15542	59.39791	8.1367	-48.00653	39.05616	26.03744	12.20505	-12.20505	-23.59643	-6.50936	-44.75185	0
726	-43.93818	18.71441	61.83892	11.39138	-52.88855	39.05616	26.03744	17.08707	-9.76404	-23.59643	-8.95037	-44.75185	0
727	-46.37919	18.71441	64.27993	13.83239	-55.32956	41.49717	26.03744	19.52808	-9.76404	-23.59643	-11.39138	-44.75185	0
728	-46.37919	18.71441	64.27993	13.83239	-55.32956	41.49717	23.59643	19.52808	-7.32303	-28.47845	-13.83239	-44.75185	0
729	-46.37919	18.71441	64.27993	13.83239	-55.32956	41.49717	21.15542	17.08707	-7.32303	-30.91946	-16.2734	-47.19286	0
730	-46.37919	16.2734	61.83892	13.83239	-52.88855	39.05616	18.71441	14.64606	-7.32303	-33.36047	-21.15542	-52.07488	0
731	-39.05616	13.83239	52.07488	11.39138	-45.56552	31.73313	16.2734	12.20505	-7.32303	-33.36047	-23.59643	-52.07488	0
732	-36.61515	13.83239	49.63387	11.39138	-43.12451	31.73313	13.83239	9.76404	-12.20505	-35.80148	-23.59643	-52.07488	0
733	-34.17414	11.39138	44.75185	11.39138	-38.24249	26.85111	13.83239	4.88202	-12.20505	-38.24249	-23.59643	-52.07488	0
734	-29.29212	11.39138	39.86983	8.1367	-33.36047	24.4101	13.83239	4.88202	-14.64606	-38.24249	-23.59643	-49.63387	0
735	-29.29212	13.83239	42.31084	8.1367	-35.80148	26.85111	11.39138	2.44101	-12.20505	-38.24249	-23.59643	-47.19286	0
736	-26.85111	11.39138	37.42882	8.1367	-30.91946	24.4101	8.95037	2.44101	-12.20505	-40.6835	-26.03744	-47.19286	0
737	-19.52808	13.83239	32.5468	3.25468	-26.03744	21.96909	8.95037	4.88202	-12.20505	-40.6835	-26.03744	-49.63387	0
738	-19.52808	13.83239	32.5468	3.25468	-26.03744	21.96909	8.95037	7.32303	-9.76404	-40.6835	-26.03744	-47.19286	0
739	-17.08707	16.2734	32.5468	0.81367	-23.59643	24.4101	11.39138	9.76404	-7.32303	-40.6835	-26.03744	-44.75185	0
740	-17.08707	16.2734	32.5468	0.81367	-23.59643	24.4101	11.39138	12.20505	-4.88202	-38.24249	-26.03744	-44.75185	0
741	-24.4101	16.2734	39.86983	3.25468	-30.91946	26.85111	13.83239	14.64606	0	-35.80148	-21.15542	-42.31084	0
742	-24.4101	16.2734	39.86983	3.25468	-30.91946	26.85111	18.71441	14.64606	0	-33.36047	-16.2734	-39.86983	0
743	-24.4101	16.2734	39.86983	3.25468	-30.91946	26.85111	18.71441	14.64606	-2.44101	-33.36047	-16.2734	-39.86983	0
744	-24.4101	13.83239	37.42882	5.69569	-30.91946	24.4101	18.71441	12.20505	-2.44101	-33.36047	-16.2734	-34.98781	0
745	-31.73313	11.39138	42.31084	8.1367	-35.80148	26.85111	18.71441	14.64606	2.44101	-33.36047	-11.39138	-30.10579	0
746	-39.05616	8.95037	47.19286	13.83239	-43.12451	26.85111	21.15542	17.08707	4.88202	-30.91946	-11.39138	-25.22377	0
747	-46.37919	4.06835	49.63387	21.15542	-48.00653	26.85111	21.15542	17.08707	4.88202	-30.91946	-11.39138	-25.22377	0
748	-53.70222	1.62734	54.51589	26.03744	-52.88855	26.85111	21.15542	19.52808	7.32303	-33.36047	-11.39138	-25.22377	0
749	-46.37919	4.06835	49.63387	21.15542	-48.00653	26.85111	21.15542	19.52808	9.76404	-33.36047	-11.39138	-22.78276	0
750	-39.05616	4.06835	42.31084	16.2734	-40.6835	21.96909	18.71441	17.08707	7.32303	-33.36047	-16.2734	-25.22377	0
751	-39.05616	4.06835	42.31084	16.2734	-40.6835	21.96909	16.2734	12.20505	7.32303	-35.80148	-16.2734	-25.22377	0
752	-34.17414	8.95037	42.31084	11.39138	-38.24249	24.4101	16.2734	9.76404	2.44101	-35.80148	-18.71441	-27.66478	0
753	-31.73313	11.39138	42.31084	8.1367	-35.80148	26.85111	16.2734	4.88202	0	-35.80148	-21.15542	-27.66478	0
754	-24.4101	11.39138	34.98781	5.69569	-28.47845	21.96909	11.39138	0	-2.44101	-38.24249	-21.15542	-30.10579	0
755	-19.52808	8.95037	27.66478	5.69569	-23.59643	17.08707	8.95037	-4.88202	-2.44101	-38.24249	-21.15542	-30.10579	0
756	-17.08707	11.39138	27.66478	3.25468	-21.15542	19.52808	6.50936	-4.88202	-2.44101	-38.24249	-21.15542	-27.66478	0
757	-8.95037	8.95037	17.90074	0.81367	-13.01872	14.64606	4.06835	-7.32303	-4.88202	-40.6835	-21.15542	-27.66478	0
758	-8.95037	6.50936	14.64606	0.81367	-10.57771	12.20505	1.62734	-9.76404	-4.88202	-45.56552	-21.15542	-27.66478	0
759	-4.06835	4.06835	7.32303	0.81367	-5.69569	6.50936	-3.25468	-12.20505	-9.76404	-48.00653	-23.59643	-27.66478	0
760	-1.62734	-1.62734	0	0.81367	-0.81367	-0.81367	-3.25468	-17.08707	-12.20505	-48.00653	-23.59643	-27.66478	0
761	3.25468	-6.50936	-9.76404	0.81367	6.50936	-8.1367	-8.1367	-22.78276	-14.64606	-50.44754	-26.03744	-27.66478	0
762	5.69569	-8.95037	-14.64606	0.81367	8.95037	-10.57771	-8.1367	-25.22377	-20.34175	-50.44754	-26.03744	-27.66478	0
763	3.25468	-8.95037	-12.20505	3.25468	6.50936	-10.57771	-8.1367	-30.10579	-20.34175	-50.44754	-26.03744	-27.66478	0
764	3.25468	-11.39138	-14.64606	3.25468	8.95037	-13.01872	-8.1367	-34.98781	-22.78276	-52.88855	-26.03744	-27.66478	0
765	-8.95037	-13.83239	-4.88202	11.39138	-3.25468	-8.1367	-8.1367	-39.86983	-22.78276	-52.88855	-23.59643	-22.78276	0
766	-17.08707	-18.71441	-2.44101	16.2734	-8.1367	-10.57771	-10.57771	-39.86983	-20.34175	-52.88855	-23.59643	-22.78276	0
767	-26.85111	-18.71441	7.32303	21.15542	-18.71441	-5.69569	-10.57771	-39.86983	-20.34175	-50.44754	-23.59643	-22.78276	0
768	-39.05616	-21.15542	17.90074	28.47845	-28.47845	-3.25468	-8.1367	-39.86983	-14.64606	-52.88855	-21.15542	-20.34175	0
769	-41.49717	-18.71441	22.78276	28.47845	-33.36047	1.62734	-5.69569	-39.86983	-14.64606	-50.44754	-21.15542	-17.90074	0
770	-43.93818	-13.83239	30.10579	28.47845	-38.24249	6.50936	-3.25468	-42.31084	-9.76404	-50.44754	-18.71441	-17.90074	0
771	-41.49717	-8.95037	32.5468	23.59643	-38.24249	12.20505	-0.81367	-44.75185	-7.32303	-48.00653	-16.2734	-15.45973	0
772	-36.61515	-4.06835	32.5468	18.71441	-35.80148	14.64606	1.62734	-44.75185	-9.76404	-48.00653	-16.2734	-13.01872	0
773	-26.85111	-1.62734	25.22377	13.83239	-26.03744	12.20505	1.62734	-47.19286	-12.20505	-50.44754	-16.2734	-13.01872	0
774	-11.39138	6.50936	17.90074	3.25468	-13.01872	12.20505	-0.81367	-49.63387	-14.64606	-52.88855	-18.71441	-13.01872	0
775	0.81367	13.83239	12.20505	-6.50936	-5.69569	14.64606	-3.25468	-54.51589	-17.08707	-55.32956	-18.71441	-13.01872	0
776	8.1367	13.83239	4.88202	-11.39138	1.62734	9.76404	-5.69569	-54.51589	-17.08707	-55.32956	-21.15542	-13.01872	0
777	17.90074	13.83239	-4.88202	-16.2734	11.39138	4.06835	-8.1367	-56.9569	-20.34175	-57.77057	-23.59643	-17.90074	0
778	20.34175	11.39138	-9.76404	-16.2734	16.2734	1.62734	-10.57771	-56.9569	-22.78276	-60.21158	-21.15542	-17.90074	0
779	22.78276	6.50936	-17.08707	-13.83239	21.15542	-5.69569	-13.01872	-59.39791	-27.66478	-62.65259	-21.15542	-17.90074	0
780	20.34175	6.50936	-14.64606	-13.83239	18.71441	-3.25468	-15.45973	-64.27993	-27.66478	-62.65259	-23.59643	-17.90074	0
781	17.90074	1.62734	-17.08707	-8.95037	18.71441	-8.1367	-15.45973	-66.72094	-30.10579	-62.65259	-23.59643	-17.90074	0
782	8.1367	-1.62734	-9.76404	-4.06835	8.95037	-5.69569	-15.45973	-66.72094	-32.5468	-62.65259	-18.71441	-15.45973	0
783	0.81367	-1.62734	-2.44101	0.81367	1.62734	-0.81367	-13.01872	-66.72094	-34.98781	-62.65259	-16.2734	-10.57771	0
784	-4.06835	-1.62734	2.44101	3.25468	-3.25468	1.62734	-10.57771	-64.27993	-34.98781	-62.65259	-11.39138	-8.1367	0
785	-11.39138	-1.62734	9.76404	5.69569	-10.57771	4.06835	-8.1367	-64.27993	-34.98781	-65.0936	-11.39138	-3.25468	0
786	-11.39138	-1.62734	9.76404	5.69569	-10.57771	4.06835	-13.01872	-64.27993	-34.98781	-67.53461	-11.39138	-0.81367	0
787	-17.08707	1.62734	17.90074	8.1367	-16.2734	9.76404	-13.01872	-64.27993	-34.98781	-67.53461	-11.39138	-0.81367	0
788	-19.52808	1.62734	20.34175	8.1367	-18.71441	9.76404	-13.01872	-64.27993	-37.42882	-69.97562	-11.39138	-0.81367	0
789	-24.4101	1.62734	25.22377	11.39138	-23.59643	12.20505	-13.01872	-64.27993	-42.31084	-73.2303	-11.39138	-0.81367	0
790	-26.85111	-1.62734	25.22377	13.83239	-26.03744	12.20505	-13.01872	-69.16195	-44.75185	-73.2303	-11.39138	-3.25468	0
791	-26.85111	-1.62734	25.22377	13.83239	-26.03744	12.20505	-17.90074	-76.48498	-49.63387	-78.11232	-16.2734	-5.69569	0
792	-24.4101	-1.62734	22.78276	11.39138	-23.59643	9.76404	-20.34175	-78.92599	-56.9569	-82.99434	-21.15542	-10.57771	0
793	-24.4101	-1.62734	22.78276	11.39138	-23.59643	9.76404	-20.34175	-83.80801	-61.83892	-85.43535	-23.59643	-13.01872	0
794	-24.4101	-1.62734	22.78276	11.39138	-23.59643	9.76404	-20.34175	-81.367	-61.83892	-87.87636	-23.59643	-10.57771	0
795	-26.85111	1.62734	27.66478	11.39138	-26.03744	14.64606	-17.90074	-81.367	-61.83892	-87.87636	-23.59643	-8.1367	0
796	-24.4101	1.62734	25.22377	11.39138	-23.59643	12.20505	-20.34175	-81.367	-61.83892	-90.31737	-28.47845	-8.1367	0
797	-24.4101	4.06835	27.66478	8.1367	-26.03744	14.64606	-20.34175	-81.367	-61.83892	-90.31737	-30.91946	-10.57771	0
798	-24.4101	4.06835	27.66478	8.1367	-26.03744	14.64606	-20.34175	-81.367	-64.27993	-92.75838	-33.36047	-13.01872	0
799	-21.96909	4.06835	25.22377	8.1367	-23.59643	14.64606	-20.34175	-81.367	-66.72094	-95.19939	-33.36047	-15.45973	0
800	-21.96909	1.62734	22.78276	8.1367	-21.15542	12.20505	-17.90074	-83.80801	-66.72094	-95.19939	-33.36047	-15.45973	0
801	-19.52808	1.62734	20.34175	8.1367	-18.71441	9.76404	-17.90074	-83.80801	-66.72094	-92.75838	-33.36047	-13.01872	0
802	-21.96909	4.06835	25.22377	8.1367	-23.59643	14.64606	-15.45973	-83.80801	-71.60296	-92.75838	-33.36047	-10.57771	0
803	-24.4101	-1.62734	22.78276	11.39138	-23.59643	9.76404	-15.45973	-91.13104	-76.48498	-97.6404	-35.80148	-15.45973	0
804	-29.29212	-1.62734	27.66478	13.83239	-28.47845	12.20505	-15.45973	-96.01306	-78.92599	-102.52242	-35.80148	-15.45973	0
805	-29.29212	-4.06835	25.22377	16.2734	-28.47845	9.76404	-15.45973	-98.45407	-81.367	-104.96343	-35.80148	-15.45973	0
806	-29.29212	-1.62734	27.66478	13.83239	-28.47845	12.20505	-17.90074	-100.89508	-81.367	-104.96343	-38.24249	-15.45973	0
807	-24.4101	1.62734	25.22377	11.39138	-23.59643	12.20505	-17.90074	-103.33609	-81.367	-107.40444	-40.6835	-17.90074	0
808	-24.4101	4.06835	27.66478	8.1367	-26.03744	14.64606	-17.90074	-103.33609	-81.367	-107.40444	-40.6835	-20.34175	0
809	-24.4101	4.06835	27.66478	8.1367	-26.03744	14.64606	-20.34175	-108.21811	-86.24902	-112.28646	-45.56552	-25.22377	0
810	-24.4101	4.06835	27.66478	8.1367	-26.03744	14.64606	-20.34175	-115.54114	-88.69003	-114.72747	-45.56552	-25.22377	0
811	-19.52808	4.06835	22.78276	8.1367	-21.15542	12.20505	-20.34175	-117.98215	-88.69003	-114.72747	-45.56552	-25.22377	0
812	-21.96909	4.06835	25.22377	8.1367	-23.59643	14.64606	-20.34175	-117.98215	-88.69003	-114.72747	-45.56552	-27.66478	0
813	-21.96909	4.06835	25.22377	8.1367	-23.59643	14.64606	-20.34175	-122.86417	-93.57205	-117.16848	-48.00653	-27.66478	0
814	-24.4101	4.06835	27.66478	8.1367	-26.03744	14.64606	-20.34175	-125.30518	-96.01306	-122.0505	-50.44754	-30.10579	0
815	-24.4101	1.62734	25.22377	11.39138	-23.59643	12.20505	-22.78276	-127.74619	-96.01306	-124.49151	-50.44754	-30.10579	0
816	-26.85111	1.62734	27.66478	11.39138	-26.03744	14.64606	-22.78276	-127.74619	-93.57205	-124.49151	-50.44754	-25.22377	0
817	-26.85111	1.62734	27.66478	11.39138	-26.03744	14.64606	-20.34175	-127.74619	-93.57205	-124.49151	-50.44754	-25.22377	0
818	-29.29212	1.62734	30.10579	13.83239	-28.47845	14.64606	-17.90074	-127.74619	-93.57205	-124.49151	-50.44754	-27.66478	0
819	-29.29212	4.06835	32.5468	11.39138	-30.91946	17.08707	-17.90074	-127.74619	-96.01306	-126.93252	-50.44754	-27.66478	0
820	-31.73313	8.95037	39.86983	11.39138	-35.80148	24.4101	-17.90074	-132.62821	-96.01306	-126.93252	-52.88855	-27.66478	0
821	-29.29212	11.39138	39.86983	8.1367	-33.36047	24.4101	-17.90074	-135.06922	-96.01306	-129.37353	-52.88855	-25.22377	0
822	-26.85111	11.39138	37.42882	8.1367	-30.91946	24.4101	-17.90074	-135.06922	-98.45407	-129.37353	-52.88855	-25.22377	0
823	-26.85111	11.39138	37.42882	8.1367	-30.91946	24.4101	-15.45973	-135.06922	-100.89508	-131.81454	-52.88855	-22.78276	0
824	-29.29212	13.83239	42.31084	8.1367	-35.80148	26.85111	-15.45973	-137.51023	-100.89508	-134.25555	-52.88855	-22.78276	0
825	-31.73313	13.83239	44.75185	8.1367	-38.24249	29.29212	-15.45973	-139.95124	-103.33609	-141.57858	-55.32956	-20.34175	0
826	-31.73313	11.39138	42.31084	8.1367	-35.80148	26.85111	-17.90074	-142.39225	-103.33609	-144.01959	-57.77057	-17.90074	0
827	-29.29212	11.39138	39.86983	8.1367	-33.36047	24.4101	-17.90074	-144.83326	-108.21811	-146.4606	-60.21158	-17.90074	0
828	-26.85111	8.95037	34.98781	8.1367	-30.91946	21.96909	-17.90074	-147.27427	-110.65912	-148.90161	-60.21158	-17.90074	0
829	-24.4101	6.50936	30.10579	8.1367	-26.03744	17.08707	-17.90074	-147.27427	-113.10013	-151.34262	-60.21158	-17.90074	0
830	-26.85111	6.50936	32.5468	8.1367	-28.47845	19.52808	-17.90074	-149.71528	-113.10013	-148.90161	-57.77057	-13.01872	0
831	-26.85111	8.95037	34.98781	8.1367	-30.91946	21.96909	-15.45973	-149.71528	-110.65912	-146.4606	-52.88855	-8.1367	0
832	-24.4101	8.95037	32.5468	8.1367	-28.47845	19.52808	-15.45973	-149.71528	-113.10013	-146.4606	-52.88855	-8.1367	0
833	-24.4101	8.95037	32.5468	8.1367	-28.47845	19.52808	-10.57771	-149.71528	-113.10013	-144.01959	-50.44754	-5.69569	0
834	-24.4101	11.39138	34.98781	5.69569	-28.47845	21.96909	-10.57771	-149.71528	-113.10013	-144.01959	-48.00653	-3.25468	0
835	-29.29212	11.39138	39.86983	8.1367	-33.36047	24.4101	-10.57771	-149.71528	-110.65912	-144.01959	-45.56552	-3.25468	0
836	-31.73313	11.39138	42.31084	8.1367	-35.80148	26.85111	-10.57771	-147.27427	-108.21811	-144.01959	-48.00653	-0.81367	0
837	-31.73313	13.83239	44.75185	8.1367	-38.24249	29.29212	-10.57771	-147.27427	-108.21811	-144.01959	-48.00653	-3.25468	0
838	-34.17414	11.39138	44.75185	11.39138	-38.24249	26.85111	-15.45973	-152.15629	-113.10013	-146.4606	-52.88855	-8.1367	0
839	-39.05616	4.06835	42.31084	16.2734	-40.6835	21.96909	-17.90074	-157.03831	-117.98215	-153.78363	-57.77057	-13.01872	0
840	-43.93818	4.06835	47.19286	18.71441	-45.56552	24.4101	-20.34175	-161.92033	-120.42316	-153.78363	-60.21158	-15.45973	0
841	-46.37919	4.06835	49.63387	21.15542	-48.00653	26.85111	-20.34175	-164.36134	-117.98215	-153.78363	-60.21158	-15.45973	0
842	-48.8202	4.06835	52.07488	21.15542	-50.44754	26.85111	-17.90074	-161.92033	-117.98215	-151.34262	-60.21158	-15.45973	0
843	-53.70222	4.06835	56.9569	23.59643	-55.32956	29.29212	-15.45973	-161.92033	-120.42316	-151.34262	-57.77057	-15.45973	0
844	-58.58424	4.06835	61.83892	26.03744	-60.21158	31.73313	-13.01872	-161.92033	-117.98215	-151.34262	-57.77057	-13.01872	0
845	-56.14323	4.06835	59.39791	26.03744	-57.77057	31.73313	-13.01872	-161.92033	-115.54114	-153.78363	-57.77057	-13.01872	0
846	-56.14323	4.06835	59.39791	26.03744	-57.77057	31.73313	-13.01872	-157.03831	-110.65912	-151.34262	-57.77057	-13.01872	0
847	-53.70222	8.95037	61.83892	21.15542	-57.77057	34.17414	-8.1367	-154.5973	-110.65912	-148.90161	-55.32956	-13.01872	0
848	-48.8202	8.95037	56.9569	18.71441	-52.88855	31.73313	-8.1367	-154.5973	-108.21811	-148.90161	-52.88855	-15.45973	0
849	-41.49717	11.39138	52.07488	13.83239	-45.56552	31.73313	-8.1367	-154.5973	-110.65912	-153.78363	-52.88855	-20.34175	0
850	-41.49717	13.83239	54.51589	13.83239	-48.00653	34.17414	-8.1367	-157.03831	-110.65912	-153.78363	-52.88855	-20.34175	0
851	-31.73313	16.2734	47.19286	8.1367	-38.24249	31.73313	-8.1367	-159.47932	-110.65912	-153.78363	-52.88855	-20.34175	0
852	-26.85111	16.2734	42.31084	5.69569	-33.36047	29.29212	-10.57771	-159.47932	-113.10013	-153.78363	-52.88855	-22.78276	0
853	-26.85111	16.2734	42.31084	5.69569	-33.36047	29.29212	-10.57771	-159.47932	-115.54114	-153.78363	-50.44754	-22.78276	0
854	-29.29212	16.2734	44.75185	5.69569	-35.80148	29.29212	-10.57771	-159.47932	-115.54114	-153.78363	-48.00653	-22.78276	0
855	-26.85111	16.2734	42.31084	5.69569	-33.36047	29.29212	-10.57771	-159.47932	-115.54114	-156.22464	-48.00653	-22.78276	0
856	-24.4101	16.2734	39.86983	3.25468	-30.91946	26.85111	-13.01872	-157.03831	-110.65912	-156.22464	-48.00653	-20.34175	0
857	-29.29212	18.71441	47.19286	5.69569	-38.24249	31.73313	-13.01872	-157.03831	-108.21811	-156.22464	-48.00653	-20.34175	0
858	-29.29212	18.71441	47.19286	5.69569	-38.24249	31.73313	-13.01872	-154.5973	-105.7771	-153.78363	-45.56552	-20.34175	0
859	-29.29212	18.71441	47.19286	5.69569	-38.24249	31.73313	-8.1367	-149.71528	-105.7771	-153.78363	-43.12451	-15.45973	0
860	-26.85111	23.59643	49.63387	0.81367	-38.24249	36.61515	-8.1367	-149.71528	-103.33609	-151.34262	-40.6835	-13.01872	0
861	-19.52808	26.03744	44.75185	-4.06835	-30.91946	34.17414	-5.69569	-149.71528	-100.89508	-151.34262	-38.24249	-10.57771	0
862	-17.08707	28.47845	44.75185	-6.50936	-30.91946	36.61515	-3.25468	-144.83326	-100.89508	-148.90161	-38.24249	-8.1367	0
863	-21.96909	28.47845	49.63387	-4.06835	-35.80148	39.05616	-0.81367	-142.39225	-98.45407	-146.4606	-35.80148	-5.69569	0
864	-31.73313	33.36047	64.27993	-1.62734	-48.00653	48.8202	6.50936	-137.51023	-96.01306	-144.01959	-35.80148	-0.81367	0
865	-39.05616	35.80148	74.04397	0.81367	-55.32956	53.70222	8.95037	-137.51023	-93.57205	-146.4606	-35.80148	1.62734	0
866	-39.05616	38.24249	76.48498	0.81367	-57.77057	56.14323	8.95037	-139.95124	-93.57205	-148.90161	-40.6835	1.62734	0
867	-41.49717	35.80148	76.48498	3.25468	-57.77057	56.14323	8.95037	-147.27427	-98.45407	-156.22464	-48.00653	-8.1367	0
868	-46.37919	33.36047	78.92599	5.69569	-62.65259	56.14323	8.95037	-157.03831	-108.21811	-163.54767	-55.32956	-15.45973	0
869	-51.26121	33.36047	83.80801	8.1367	-67.53461	58.58424	8.95037	-166.80235	-117.98215	-173.31171	-62.65259	-22.78276	0
870	-61.02525	30.91946	91.13104	13.83239	-74.85764	61.02525	11.39138	-176.56639	-125.30518	-180.63474	-69.97562	-27.66478	0
871	-65.90727	30.91946	96.01306	16.2734	-79.73966	63.46626	13.83239	-191.21245	-132.62821	-190.39878	-74.85764	-32.5468	0
872	-65.90727	30.91946	96.01306	16.2734	-79.73966	63.46626	13.83239	-200.97649	-142.39225	-197.72181	-82.18067	-39.86983	0
873	-61.02525	30.91946	91.13104	13.83239	-74.85764	61.02525	16.2734	-208.29952	-149.71528	-205.04484	-87.06269	-44.75185	0
874	-56.14323	33.36047	88.69003	11.39138	-72.41663	61.02525	18.71441	-210.74053	-149.71528	-207.48585	-87.06269	-44.75185	0
875	-48.8202	38.24249	86.24902	5.69569	-67.53461	61.02525	18.71441	-213.18154	-149.71528	-207.48585	-87.06269	-44.75185	0
876	-43.93818	45.56552	88.69003	-1.62734	-65.0936	65.90727	21.15542	-210.74053	-144.83326	-205.04484	-87.06269	-39.86983	0
877	-39.05616	48.00653	86.24902	-4.06835	-62.65259	65.90727	23.59643	-205.85851	-137.51023	-200.16282	-84.62168	-37.42882	0
878	-29.29212	48.00653	76.48498	-8.95037	-52.88855	61.02525	23.59643	-203.4175	-132.62821	-195.2808	-79.73966	-34.98781	0
879	-17.08707	48.00653	64.27993	-16.2734	-40.6835	56.14323	18.71441	-200.97649	-132.62821	-190.39878	-77.29865	-32.5468	0
880	-11.39138	48.00653	59.39791	-18.71441	-35.80148	53.70222	13.83239	-200.97649	-127.74619	-185.51676	-72.41663	-30.10579	0
881	-4.06835	43.12451	47.19286	-18.71441	-26.03744	46.37919	6.50936	-203.4175	-122.86417	-183.07575	-69.97562	-27.66478	0
882	-4.06835	43.12451	47.19286	-18.71441	-26.03744	46.37919	-0.81367	-198.53548	-120.42316	-175.75272	-65.0936	-22.78276	0
883	-4.06835	35.80148	39.86983	-16.2734	-21.15542	39.05616	-5.69569	-198.53548	-115.54114	-168.42969	-57.77057	-17.90074	0
884	-6.50936	28.47845	34.98781	-11.39138	-21.15542	31.73313	-10.57771	-193.65346	-110.65912	-165.98868	-52.88855	-15.45973	0
885	-11.39138	21.15542	32.5468	-4.06835	-21.15542	26.85111	-20.34175	-188.77144	-105.7771	-163.54767	-50.44754	-10.57771	0
886	-4.06835	21.15542	25.22377	-8.95037	-13.01872	24.4101	-27.66478	-186.33043	-98.45407	-158.66565	-48.00653	-5.69569	0
887	3.25468	26.03744	22.78276	-13.83239	-8.1367	24.4101	-32.5468	-186.33043	-96.01306	-156.22464	-45.56552	-5.69569	0
888	13.01872	33.36047	20.34175	-23.59643	-3.25468	26.85111	-32.5468	-181.44841	-91.13104	-151.34262	-40.6835	-3.25468	0
889	20.34175	40.6835	20.34175	-30.91946	1.62734	31.73313	-30.10579	-176.56639	-86.24902	-146.4606	-35.80148	1.62734	0
890	25.22377	48.00653	22.78276	-35.80148	1.62734	36.61515	-27.66478	-174.12538	-78.92599	-141.57858	-30.91946	6.50936	0
891	27.66478	48.00653	20.34175	-38.24249	4.06835	34.17414	-22.78276	-174.12538	-76.48498	-139.13757	-30.91946	6.50936	0
892	22.78276	50.44754	27.66478	-35.80148	-0.81367	39.05616	-17.90074	-166.80235	-74.04397	-134.25555	-28.47845	6.50936	0
893	20.34175	50.44754	30.10579	-35.80148	-3.25468	41.49717	-13.01872	-166.80235	-71.60296	-131.81454	-28.47845	6.50936	0
894	17.90074	50.44754	32.5468	-33.36047	-5.69569	41.49717	-8.1367	-164.36134	-69.16195	-131.81454	-28.47845	4.06835	0
895	8.1367	45.56552	37.42882	-26.03744	-13.01872	41.49717	-5.69569	-161.92033	-69.16195	-131.81454	-30.91946	1.62734	0
896	-4.06835	35.80148	39.86983	-16.2734	-21.15542	39.05616	-5.69569	-157.03831	-64.27993	-131.81454	-33.36047	-0.81367	0
897	-17.08707	28.47845	44.75185	-6.50936	-30.91946	36.61515	-0.81367	-154.5973	-64.27993	-129.37353	-35.80148	-5.69569	0
898	-19.52808	18.71441	37.42882	0.81367	-28.47845	26.85111	-0.81367	-154.5973	-66.72094	-134.25555	-40.6835	-13.01872	0
899	-24.4101	11.39138	34.98781	5.69569	-28.47845	21.96909	-0.81367	-157.03831	-69.16195	-136.69656	-45.56552	-17.90074	0
900	-26.85111	4.06835	30.10579	11.39138	-28.47845	17.08707	-3.25468	-159.47932	-71.60296	-139.13757	-48.00653	-25.22377	0
901	-26.85111	-1.62734	25.22377	13.83239	-26.03744	12.20505	-5.69569	-166.80235	-76.48498	-141.57858	-55.32956	-30.10579	0
902	-29.29212	-8.95037	20.34175	18.71441	-26.03744	4.06835	-5.69569	-171.68437	-78.92599	-141.57858	-55.32956	-32.5468	0
903	-31.73313	-18.71441	12.20505	23.59643	-23.59643	-3.25468	-5.69569	-174.12538	-91.13104	-141.57858	-55.32956	-32.5468	0
904	-34.17414	-21.15542	12.20505	26.03744	-23.59643	-5.69569	-3.25468	-181.44841	-86.24902	-144.01959	-52.88855	-32.5468	0
905	-31.73313	-23.59643	7.32303	26.03744	-21.15542	-8.1367	-3.25468	-183.88942	-96.01306	-151.34262	-52.88855	-30.10579	0
906	-39.05616	-23.59643	14.64606	30.91946	-28.47845	-5.69569	-3.25468	-137.51023	-76.48498	-136.69656	-50.44754	-27.66478	0
907	-43.93818	-23.59643	20.34175	33.36047	-33.36047	-3.25468	-0.81367	-159.47932	-56.9569	-131.81454	-43.12451	-30.10579	0
908	-48.8202	-28.47845	20.34175	38.24249	-35.80148	-5.69569	8.95037	-130.1872	-42.31084	-119.60949	-35.80148	-30.10579	0
909	-48.8202	-33.36047	14.64606	40.6835	-33.36047	-10.57771	26.03744	-147.27427	-52.07488	-126.93252	-52.88855	-34.98781	0
910	-87.87636	-1.62734	86.24902	43.12451	-87.06269	41.49717	51.26121	-105.7771	-9.76404	-90.31737	-40.6835	-20.34175	0
911	-73.2303	-33.36047	39.86983	52.88855	-57.77057	1.62734	78.11232	-17.08707	19.52808	-67.53461	-35.80148	-47.19286	0
912	-65.90727	-48.00653	17.90074	55.32956	-43.12451	-15.45973	107.40444	161.10666	119.60949	0.81367	-13.83239	-27.66478	0
913	-53.70222	-50.44754	2.44101	50.44754	-28.47845	-25.22377	153.78363	390.5616	280.71615	110.65912	42.31084	-8.1367	0
914	-4.06835	-45.56552	-41.49717	23.59643	18.71441	-42.31084	192.83979	580.96038	432.05877	227.8276	83.80801	11.39138	0
915	10.57771	-87.06269	-97.6404	38.24249	52.88855	-91.13104	236.77797	676.15977	505.28907	281.52982	117.98215	16.2734	0
916	-1.62734	-131.00087	-129.37353	65.0936	62.65259	-130.1872	248.98302	773.80017	588.28341	371.84719	174.12538	40.6835	0
917	64.27993	-162.734	-227.01393	48.00653	145.64693	-193.65346	229.45494	878.7636	744.50805	532.95385	288.85285	106.59077	0
918	120.42316	-187.1441	-307.56726	33.36047	213.99521	-247.35568	187.95777	915.37875	871.44057	706.26556	423.1084	184.70309	0
919	157.03831	-201.79016	-358.82847	21.15542	257.93339	-279.08881	148.90161	729.86199	856.79451	818.55202	537.83587	267.69743	0
920	215.62255	-199.34915	-414.9717	-8.95037	314.07662	-305.93992	107.40444	480.87897	827.50239	950.36656	706.26556	379.98389	0
921	266.88376	-192.02612	-458.90988	-38.24249	362.89682	-325.468	39.05616	283.15716	837.26643	1135.88332	940.60252	533.76752	0
922	335.23204	-155.41097	-490.64301	-89.5037	411.71702	-323.02699	-44.75185	185.51676	937.34784	1372.66129	1206.67261	751.01741	0
923	396.25729	-104.14976	-500.40705	-145.64693	448.33217	-301.0579	-159.47932	26.85111	971.52198	1560.61906	1475.18371	958.50326	0
924	479.25163	11.39138	-468.67392	-245.72834	475.18328	-227.8276	-213.18154	-196.09447	978.84501	1757.5272	1786.81932	1207.48628	0
925	567.12799	138.3239	-429.61776	-353.13278	499.59338	-144.83326	-301.0579	-452.40052	944.67087	1950.36699	2155.41183	1515.05354	0
926	630.59425	177.38006	-454.02786	-404.39399	543.53156	-137.51023	-457.28254	-613.50718	959.31693	2182.26294	2580.14757	1855.98127	0
927	750.20374	177.38006	-573.63735	-462.97823	663.14105	-198.53548	-652.56334	-796.58293	978.84501	2377.54374	2956.06311	2151.34348	0
928	847.84414	194.46713	-654.19068	-521.56247	751.01741	-230.26861	-901.54636	-933.27949	939.78885	2482.50717	3266.07138	2400.3265	0
929	867.37222	192.02612	-676.15977	-528.8855	772.9865	-242.47366	-1074.85807	-1069.97605	854.3535	2502.03525	3441.8241	2558.99215	0
930	896.66434	174.93905	-722.53896	-536.20853	809.60165	-274.20679	-1209.11362	-1231.08271	722.53896	2428.80495	3502.84935	2646.86851	0
931	913.75141	204.23117	-710.33391	-558.17762	812.04266	-252.2377	-1255.49281	-1267.69786	622.45755	2350.69263	3519.93642	2676.16063	0
932	894.22333	245.72834	-649.30866	-570.38267	772.9865	-200.97649	-1333.60513	-1299.43099	583.40139	2275.02132	3475.99824	2693.2477	0
933	877.13626	194.46713	-683.4828	-536.20853	780.30953	-244.91467	-1392.18937	-1389.74836	441.82281	2050.4484	3251.42532	2544.34609	0
934	852.72616	167.61602	-685.92381	-509.35742	770.54549	-259.56073	-1387.30735	-1441.00957	322.21332	1818.55245	2951.18109	2331.97822	0
935	759.96778	165.17501	-595.60644	-462.97823	677.78711	-215.62255	-1306.75402	-1419.04048	229.45494	1567.94209	2638.73181	2104.96429	0
936	679.41445	104.14976	-576.07836	-392.18894	628.96691	-235.15063	-1201.79059	-1333.60513	80.55333	1226.20069	2231.08314	1794.95602	0
937	579.33304	33.36047	-546.78624	-306.75359	563.05964	-257.11972	-1096.82716	-1336.04614	-34.98781	928.39747	1882.01871	1519.93556	0
938	469.48759	55.32956	-414.9717	-262.81541	443.45015	-179.0074	-1001.62777	-1304.31301	-193.65346	567.12799	1497.1528	1266.07052	0
939	401.13931	72.41663	-329.53635	-235.9643	365.33783	-127.74619	-901.54636	-1282.34392	-366.96517	179.0074	1091.94514	1009.76447	0
940	242.47366	118.79582	-124.49151	-179.82107	184.70309	-3.25468	-764.8498	-1292.10796	-618.3892	-331.97736	591.53809	711.96125	0
941	117.98215	106.59077	-12.20505	-111.47279	65.0936	48.8202	-640.35829	-1277.4619	-830.75707	-734.74401	139.95124	399.51197	0
942	88.69003	111.47279	22.78276	-99.26774	33.36047	68.34828	-545.1589	-1179.8215	-820.99303	-810.41532	-77.29865	211.5542	0
943	34.98781	113.9138	78.92599	-74.85764	-21.15542	97.6404	-459.72355	-1069.97605	-740.4397	-761.59512	-134.25555	128.55986	0
944	-6.50936	165.17501	171.68437	-79.73966	-89.5037	168.42969	-384.05224	-967.45363	-650.12233	-678.60078	-134.25555	89.5037	0
945	-53.70222	170.05703	222.94558	-57.77057	-138.3239	195.2808	-342.55507	-886.9003	-598.86112	-649.30866	-153.78363	40.6835	0
946	-102.52242	189.58511	291.29386	-43.12451	-196.90814	239.21898	-303.49891	-803.90596	-572.01001	-634.6626	-185.51676	-10.57771	0
947	-109.84545	189.58511	298.61689	-40.6835	-204.23117	244.101	-232.70962	-747.76273	-503.66173	-607.81149	-192.83979	-25.22377	0
948	-119.60949	155.41097	274.20679	-18.71441	-196.90814	214.80888	-198.53548	-669.65041	-469.48759	-595.60644	-219.6909	-56.9569	0
949	-82.99434	126.11885	208.29952	-21.15542	-145.64693	165.98868	-191.21245	-642.7993	-493.89769	-612.69351	-278.27514	-118.79582	0
950	-97.6404	111.47279	208.29952	-6.50936	-152.96996	158.66565	-159.47932	-615.94819	-474.36961	-602.92947	-312.44928	-152.96996	0
951	-122.0505	118.79582	240.03265	0.81367	-179.82107	178.19373	-120.42316	-576.89203	-476.81062	-598.04745	-319.77231	-194.46713	0
952	-122.0505	106.59077	227.8276	8.1367	-174.93905	165.98868	-93.57205	-547.59991	-459.72355	-600.48846	-324.65433	-189.58511	0
953	-124.49151	94.38572	218.06356	13.83239	-170.05703	156.22464	-59.39791	-510.98476	-447.5185	-600.48846	-344.18241	-206.67218	0
954	-129.37353	84.62168	213.18154	21.15542	-170.05703	148.90161	-52.07488	-489.01567	-442.63648	-600.48846	-358.82847	-231.08228	0
955	-131.81454	79.73966	210.74053	26.03744	-170.05703	144.01959	-49.63387	-484.13365	-435.31345	-600.48846	-371.03352	-262.81541	0
956	-131.81454	77.29865	208.29952	26.03744	-170.05703	141.57858	-42.31084	-449.95951	-423.1084	-593.16543	-378.35655	-257.93339	0
957	-131.81454	69.97562	200.97649	30.91946	-165.17501	134.25555	-27.66478	-454.84153	-413.34436	-585.8424	-385.67958	-267.69743	0
958	-134.25555	62.65259	196.09447	35.80148	-165.17501	129.37353	-17.90074	-425.54941	-406.02133	-580.96038	-390.5616	-275.02046	0
959	-139.13757	55.32956	193.65346	40.6835	-165.17501	124.49151	-8.1367	-410.90335	-398.6983	-576.07836	-393.00261	-279.90248	0
960	-141.57858	50.44754	191.21245	45.56552	-165.17501	119.60949	4.06835	-396.25729	-388.93426	-563.87331	-393.00261	-279.90248	0
961	-139.13757	50.44754	188.77144	43.12451	-162.734	119.60949	11.39138	-384.05224	-379.17022	-554.10927	-393.00261	-279.90248	0
962	-141.57858	50.44754	191.21245	45.56552	-165.17501	119.60949	23.59643	-364.52416	-369.40618	-541.90422	-388.12059	-275.02046	0
963	-144.01959	50.44754	193.65346	45.56552	-167.61602	122.0505	31.73313	-349.8781	-359.64214	-529.69917	-383.23857	-270.13844	0
964	-144.01959	45.56552	188.77144	48.00653	-165.17501	117.16848	39.05616	-335.23204	-349.8781	-519.93513	-380.79756	-267.69743	0
965	-144.01959	40.6835	183.88942	50.44754	-162.734	112.28646	43.93818	-323.02699	-340.11406	-510.17109	-375.91554	-265.25642	0
966	-146.4606	40.6835	186.33043	52.88855	-165.17501	112.28646	51.26121	-313.26295	-327.90901	-500.40705	-375.91554	-260.3744	0
967	-144.01959	45.56552	188.77144	48.00653	-165.17501	117.16848	56.14323	-301.0579	-320.58598	-490.64301	-373.47453	-257.93339	0
968	-144.01959	45.56552	188.77144	48.00653	-165.17501	117.16848	63.46626	-291.29386	-313.26295	-480.87897	-368.59251	-255.49238	0
969	-151.34262	45.56552	196.09447	52.88855	-172.49804	119.60949	68.34828	-281.52982	-308.38093	-473.55594	-366.1515	-253.05137	0
970	-153.78363	45.56552	198.53548	52.88855	-174.93905	122.0505	73.2303	-274.20679	-303.49891	-466.23291	-366.1515	-250.61036	0
971	-153.78363	45.56552	198.53548	52.88855	-174.93905	122.0505	78.11232	-269.32477	-298.61689	-461.35089	-366.1515	-250.61036	0
972	-161.10666	48.00653	208.29952	55.32956	-184.70309	126.93252	82.99434	-259.56073	-296.17588	-454.02786	-361.26948	-245.72834	0
973	-165.98868	52.88855	218.06356	55.32956	-192.02612	134.25555	87.87636	-254.67871	-291.29386	-449.14584	-361.26948	-245.72834	0
974	-163.54767	57.77057	220.50457	52.88855	-192.02612	139.13757	90.31737	-247.35568	-291.29386	-446.70483	-361.26948	-245.72834	0
975	-163.54767	62.65259	225.38659	50.44754	-194.46713	144.01959	90.31737	-240.03265	-286.41184	-446.70483	-361.26948	-243.28733	0
976	-163.54767	62.65259	225.38659	50.44754	-194.46713	144.01959	90.31737	-235.15063	-281.52982	-441.82281	-361.26948	-240.84632	0
