samplenr	I	II	III	aVR	aVL	aVF	V1	V2	V3	V4	V5	V6	measurement
0	31.73313	-93.57205	-125.30518	29.29212	78.11232	-108.21811	-42.31084	-30.10579	-44.75185	-28.47845	-31.73313	-19.52808	0
1	19.52808	-103.33609	-122.86417	41.49717	70.78929	-113.10013	-44.75185	-34.98781	-47.19286	-31.73313	-34.17414	-22.78276	0
2	9.76404	-113.10013	-122.86417	51.26121	65.90727	-117.98215	-49.63387	-42.31084	-52.07488	-34.17414	-36.61515	-22.78276	0
3	9.76404	-115.54114	-125.30518	51.26121	65.90727	-120.42316	-49.63387	-49.63387	-56.9569	-36.61515	-36.61515	-22.78276	0
4	19.52808	-108.21811	-127.74619	43.93818	73.2303	-117.98215	-52.07488	-52.07488	-61.83892	-43.93818	-41.49717	-22.78276	0
5	19.52808	-108.21811	-127.74619	43.93818	73.2303	-117.98215	-49.63387	-49.63387	-61.83892	-43.93818	-43.93818	-22.78276	0
6	19.52808	-108.21811	-127.74619	43.93818	73.2303	-117.98215	-49.63387	-47.19286	-61.83892	-46.37919	-43.93818	-22.78276	0
7	26.85111	-103.33609	-130.1872	36.61515	78.11232	-115.54114	-49.63387	-44.75185	-61.83892	-46.37919	-46.37919	-22.78276	0
8	39.05616	-100.89508	-139.95124	29.29212	87.87636	-120.42316	-49.63387	-42.31084	-61.83892	-48.8202	-46.37919	-25.22377	0
9	41.49717	-96.01306	-137.51023	26.85111	87.87636	-115.54114	-47.19286	-39.86983	-56.9569	-46.37919	-46.37919	-22.78276	0
10	34.17414	-98.45407	-132.62821	31.73313	82.99434	-115.54114	-47.19286	-39.86983	-56.9569	-46.37919	-46.37919	-22.78276	0
11	24.4101	-100.89508	-125.30518	36.61515	73.2303	-113.10013	-47.19286	-39.86983	-54.51589	-46.37919	-41.49717	-22.78276	0
12	24.4101	-98.45407	-122.86417	36.61515	73.2303	-110.65912	-44.75185	-42.31084	-54.51589	-43.93818	-39.05616	-19.52808	0
13	21.96909	-98.45407	-120.42316	36.61515	70.78929	-108.21811	-44.75185	-47.19286	-54.51589	-43.93818	-39.05616	-19.52808	0
14	24.4101	-91.13104	-115.54114	31.73313	68.34828	-103.33609	-42.31084	-47.19286	-54.51589	-43.93818	-36.61515	-17.08707	0
15	29.29212	-91.13104	-120.42316	29.29212	73.2303	-105.7771	-42.31084	-47.19286	-59.39791	-46.37919	-36.61515	-19.52808	0
16	29.29212	-96.01306	-125.30518	31.73313	75.67131	-110.65912	-44.75185	-47.19286	-61.83892	-48.8202	-39.05616	-22.78276	0
17	36.61515	-98.45407	-135.06922	29.29212	85.43535	-115.54114	-47.19286	-47.19286	-64.27993	-53.70222	-43.93818	-25.22377	0
18	36.61515	-105.7771	-142.39225	34.17414	87.87636	-122.86417	-49.63387	-47.19286	-66.72094	-53.70222	-43.93818	-25.22377	0
19	31.73313	-108.21811	-139.95124	36.61515	85.43535	-122.86417	-49.63387	-47.19286	-64.27993	-53.70222	-43.93818	-27.66478	0
20	21.96909	-113.10013	-135.06922	43.93818	78.11232	-122.86417	-49.63387	-47.19286	-64.27993	-51.26121	-43.93818	-25.22377	0
21	19.52808	-115.54114	-135.06922	46.37919	75.67131	-125.30518	-49.63387	-52.07488	-64.27993	-51.26121	-43.93818	-25.22377	0
22	19.52808	-117.98215	-137.51023	48.8202	78.11232	-127.74619	-49.63387	-56.9569	-61.83892	-51.26121	-43.93818	-22.78276	0
23	4.88202	-122.86417	-127.74619	58.58424	65.90727	-125.30518	-49.63387	-61.83892	-61.83892	-51.26121	-43.93818	-22.78276	0
24	-0.81367	-120.42316	-120.42316	58.58424	58.58424	-120.42316	-49.63387	-61.83892	-61.83892	-51.26121	-41.49717	-22.78276	0
25	4.88202	-117.98215	-122.86417	56.14323	63.46626	-120.42316	-49.63387	-61.83892	-64.27993	-53.70222	-43.93818	-22.78276	0
26	7.32303	-117.98215	-125.30518	53.70222	65.90727	-120.42316	-49.63387	-56.9569	-66.72094	-56.14323	-46.37919	-25.22377	0
27	4.88202	-125.30518	-130.1872	58.58424	65.90727	-127.74619	-52.07488	-56.9569	-66.72094	-58.58424	-48.8202	-30.10579	0
28	-0.81367	-137.51023	-137.51023	68.34828	68.34828	-137.51023	-56.9569	-59.39791	-69.16195	-61.02525	-51.26121	-32.5468	0
29	2.44101	-132.62821	-135.06922	63.46626	68.34828	-132.62821	-56.9569	-56.9569	-69.16195	-58.58424	-51.26121	-32.5468	0
30	21.96909	-130.1872	-152.15629	53.70222	85.43535	-139.95124	-59.39791	-61.83892	-74.04397	-61.02525	-53.70222	-34.98781	0
31	31.73313	-125.30518	-157.03831	46.37919	92.75838	-139.95124	-59.39791	-61.83892	-74.04397	-61.02525	-51.26121	-34.98781	0
32	34.17414	-120.42316	-154.5973	41.49717	92.75838	-137.51023	-54.51589	-66.72094	-71.60296	-56.14323	-46.37919	-30.10579	0
33	31.73313	-115.54114	-147.27427	41.49717	87.87636	-130.1872	-52.07488	-66.72094	-69.16195	-53.70222	-41.49717	-25.22377	0
34	39.05616	-100.89508	-139.95124	29.29212	87.87636	-120.42316	-47.19286	-64.27993	-64.27993	-48.8202	-36.61515	-22.78276	0
35	48.8202	-83.80801	-132.62821	17.08707	90.31737	-108.21811	-39.86983	-56.9569	-59.39791	-43.93818	-31.73313	-17.08707	0
36	51.26121	-71.60296	-122.86417	8.95037	85.43535	-96.01306	-32.5468	-47.19286	-52.07488	-39.05616	-29.29212	-12.20505	0
37	39.05616	-64.27993	-103.33609	12.20505	70.78929	-83.80801	-22.78276	-34.98781	-42.31084	-31.73313	-21.15542	-7.32303	0
38	31.73313	-71.60296	-103.33609	19.52808	65.90727	-86.24902	-22.78276	-34.98781	-39.86983	-31.73313	-23.59643	-7.32303	0
39	34.17414	-66.72094	-100.89508	14.64606	65.90727	-83.80801	-20.34175	-32.5468	-34.98781	-28.47845	-21.15542	-7.32303	0
40	36.61515	-59.39791	-96.01306	8.95037	65.90727	-76.48498	-17.90074	-30.10579	-32.5468	-26.03744	-18.71441	-4.88202	0
41	39.05616	-56.9569	-96.01306	8.95037	65.90727	-76.48498	-17.90074	-32.5468	-32.5468	-26.03744	-18.71441	-4.88202	0
42	26.85111	-61.83892	-88.69003	17.08707	56.14323	-74.04397	-17.90074	-37.42882	-30.10579	-26.03744	-18.71441	-4.88202	0
43	21.96909	-64.27993	-86.24902	19.52808	53.70222	-74.04397	-17.90074	-44.75185	-34.98781	-28.47845	-21.15542	-4.88202	0
44	29.29212	-59.39791	-88.69003	14.64606	58.58424	-74.04397	-17.90074	-47.19286	-34.98781	-31.73313	-23.59643	-9.76404	0
45	36.61515	-59.39791	-96.01306	8.95037	65.90727	-76.48498	-17.90074	-47.19286	-39.86983	-34.17414	-29.29212	-12.20505	0
46	39.05616	-69.16195	-108.21811	14.64606	73.2303	-88.69003	-22.78276	-47.19286	-44.75185	-39.05616	-34.17414	-22.78276	0
47	29.29212	-81.367	-110.65912	24.4101	68.34828	-96.01306	-25.22377	-47.19286	-47.19286	-43.93818	-39.05616	-25.22377	0
48	21.96909	-91.13104	-113.10013	34.17414	65.90727	-100.89508	-27.66478	-49.63387	-49.63387	-46.37919	-43.93818	-30.10579	0
49	29.29212	-81.367	-110.65912	24.4101	68.34828	-96.01306	-22.78276	-39.86983	-42.31084	-39.05616	-36.61515	-25.22377	0
50	24.4101	-71.60296	-96.01306	21.96909	58.58424	-83.80801	-20.34175	-32.5468	-32.5468	-28.47845	-29.29212	-19.52808	0
51	19.52808	-69.16195	-88.69003	24.4101	53.70222	-78.92599	-20.34175	-32.5468	-30.10579	-23.59643	-23.59643	-12.20505	0
52	21.96909	-56.9569	-78.92599	17.08707	48.8202	-66.72094	-20.34175	-32.5468	-24.4101	-13.83239	-16.2734	-2.44101	0
53	26.85111	-42.31084	-69.16195	6.50936	46.37919	-54.51589	-20.34175	-32.5468	-19.52808	-8.95037	-8.95037	4.88202	0
54	46.37919	-17.08707	-64.27993	-15.45973	56.14323	-39.86983	-20.34175	-30.10579	-14.64606	-1.62734	-1.62734	14.64606	0
55	51.26121	-14.64606	-66.72094	-17.90074	58.58424	-39.86983	-27.66478	-30.10579	-17.08707	-4.06835	-4.06835	14.64606	0
56	63.46626	-14.64606	-78.92599	-25.22377	70.78929	-47.19286	-39.86983	-37.42882	-26.85111	-8.95037	-8.95037	7.32303	0
57	68.34828	-17.08707	-86.24902	-25.22377	78.11232	-52.07488	-52.07488	-42.31084	-30.10579	-16.2734	-13.83239	2.44101	0
58	63.46626	-14.64606	-78.92599	-25.22377	70.78929	-47.19286	-56.9569	-39.86983	-30.10579	-11.39138	-11.39138	4.88202	0
59	56.14323	-14.64606	-71.60296	-20.34175	63.46626	-42.31084	-61.83892	-39.86983	-30.10579	-11.39138	-8.95037	7.32303	0
60	48.8202	-12.20505	-61.83892	-17.90074	56.14323	-37.42882	-66.72094	-42.31084	-30.10579	-8.95037	-6.50936	9.76404	0
61	53.70222	-7.32303	-61.83892	-22.78276	58.58424	-34.98781	-74.04397	-49.63387	-30.10579	-8.95037	-4.06835	12.20505	0
62	51.26121	2.44101	-49.63387	-27.66478	51.26121	-22.78276	-76.48498	-52.07488	-30.10579	-4.06835	0.81367	17.08707	0
63	48.8202	12.20505	-37.42882	-30.10579	43.93818	-12.20505	-76.48498	-54.51589	-26.85111	0.81367	5.69569	24.4101	0
64	56.14323	19.52808	-37.42882	-37.42882	46.37919	-7.32303	-81.367	-56.9569	-26.85111	0.81367	8.1367	26.85111	0
65	68.34828	24.4101	-44.75185	-47.19286	56.14323	-9.76404	-86.24902	-56.9569	-30.10579	0.81367	8.1367	26.85111	0
66	78.11232	29.29212	-49.63387	-54.51589	63.46626	-9.76404	-88.69003	-52.07488	-30.10579	0.81367	8.1367	26.85111	0
67	78.11232	26.85111	-52.07488	-52.07488	65.90727	-12.20505	-91.13104	-47.19286	-30.10579	3.25468	10.57771	29.29212	0
68	70.78929	21.96909	-49.63387	-47.19286	61.02525	-12.20505	-88.69003	-42.31084	-24.4101	8.1367	15.45973	31.73313	0
69	70.78929	9.76404	-61.83892	-39.86983	65.90727	-25.22377	-91.13104	-42.31084	-21.96909	8.1367	13.01872	29.29212	0
70	65.90727	-2.44101	-69.16195	-32.5468	68.34828	-34.98781	-96.01306	-44.75185	-24.4101	5.69569	10.57771	26.85111	0
71	61.02525	-4.88202	-66.72094	-27.66478	63.46626	-34.98781	-91.13104	-44.75185	-21.96909	10.57771	15.45973	31.73313	0
72	68.34828	-2.44101	-71.60296	-32.5468	70.78929	-37.42882	-86.24902	-44.75185	-14.64606	15.45973	20.34175	36.61515	0
73	75.67131	0	-76.48498	-37.42882	75.67131	-37.42882	-83.80801	-44.75185	-12.20505	15.45973	22.78276	39.05616	0
74	73.2303	0	-74.04397	-37.42882	73.2303	-37.42882	-78.92599	-39.86983	-7.32303	17.90074	22.78276	41.49717	0
75	73.2303	0	-74.04397	-37.42882	73.2303	-37.42882	-71.60296	-32.5468	-7.32303	17.90074	22.78276	41.49717	0
76	75.67131	2.44101	-74.04397	-39.86983	75.67131	-34.98781	-61.83892	-20.34175	0	22.78276	22.78276	41.49717	0
77	82.99434	0	-83.80801	-42.31084	82.99434	-42.31084	-52.07488	-13.01872	2.44101	22.78276	20.34175	36.61515	0
78	73.2303	-22.78276	-96.01306	-25.22377	82.99434	-59.39791	-52.07488	-15.45973	-4.88202	15.45973	8.1367	26.85111	0
79	63.46626	-37.42882	-100.89508	-13.01872	80.55333	-69.16195	-47.19286	-15.45973	-7.32303	8.1367	0.81367	19.52808	0
80	51.26121	-52.07488	-103.33609	-0.81367	75.67131	-76.48498	-47.19286	-20.34175	-14.64606	0.81367	-6.50936	12.20505	0
81	43.93818	-66.72094	-110.65912	8.95037	75.67131	-88.69003	-47.19286	-30.10579	-21.96909	-6.50936	-16.2734	2.44101	0
82	39.05616	-78.92599	-117.98215	19.52808	78.11232	-98.45407	-47.19286	-39.86983	-30.10579	-11.39138	-23.59643	-4.88202	0
83	34.17414	-86.24902	-120.42316	24.4101	75.67131	-103.33609	-47.19286	-49.63387	-37.42882	-21.15542	-29.29212	-12.20505	0
84	36.61515	-86.24902	-122.86417	24.4101	78.11232	-103.33609	-47.19286	-56.9569	-44.75185	-31.73313	-34.17414	-17.08707	0
85	34.17414	-88.69003	-122.86417	26.85111	78.11232	-105.7771	-47.19286	-59.39791	-52.07488	-34.17414	-41.49717	-22.78276	0
86	29.29212	-96.01306	-125.30518	31.73313	75.67131	-110.65912	-52.07488	-64.27993	-61.83892	-41.49717	-48.8202	-30.10579	0
87	24.4101	-100.89508	-125.30518	36.61515	73.2303	-113.10013	-52.07488	-64.27993	-64.27993	-46.37919	-51.26121	-34.98781	0
88	24.4101	-105.7771	-130.1872	39.05616	75.67131	-117.98215	-52.07488	-64.27993	-66.72094	-48.8202	-53.70222	-37.42882	0
89	19.52808	-108.21811	-127.74619	43.93818	73.2303	-117.98215	-52.07488	-64.27993	-66.72094	-48.8202	-53.70222	-37.42882	0
90	7.32303	-113.10013	-120.42316	51.26121	63.46626	-115.54114	-52.07488	-64.27993	-64.27993	-48.8202	-51.26121	-37.42882	0
91	-8.1367	-122.86417	-115.54114	63.46626	53.70222	-120.42316	-52.07488	-66.72094	-66.72094	-48.8202	-51.26121	-37.42882	0
92	-15.45973	-127.74619	-113.10013	70.78929	48.8202	-120.42316	-52.07488	-71.60296	-66.72094	-48.8202	-51.26121	-37.42882	0
93	-13.01872	-125.30518	-113.10013	68.34828	48.8202	-120.42316	-49.63387	-76.48498	-66.72094	-46.37919	-48.8202	-32.5468	0
94	-15.45973	-120.42316	-105.7771	65.90727	43.93818	-113.10013	-47.19286	-76.48498	-66.72094	-48.8202	-48.8202	-32.5468	0
95	-17.90074	-115.54114	-98.45407	65.90727	39.05616	-108.21811	-44.75185	-69.16195	-66.72094	-46.37919	-48.8202	-30.10579	0
96	-13.01872	-108.21811	-96.01306	58.58424	41.49717	-103.33609	-39.86983	-64.27993	-64.27993	-43.93818	-48.8202	-30.10579	0
97	-3.25468	-98.45407	-96.01306	48.8202	46.37919	-98.45407	-34.98781	-56.9569	-59.39791	-39.05616	-43.93818	-25.22377	0
98	19.52808	-83.80801	-103.33609	31.73313	61.02525	-93.57205	-32.5468	-52.07488	-56.9569	-34.17414	-41.49717	-22.78276	0
99	24.4101	-83.80801	-108.21811	29.29212	65.90727	-96.01306	-32.5468	-47.19286	-54.51589	-34.17414	-41.49717	-22.78276	0
100	21.96909	-83.80801	-105.7771	29.29212	63.46626	-93.57205	-30.10579	-47.19286	-52.07488	-31.73313	-41.49717	-22.78276	1000	P+0
101	21.96909	-91.13104	-113.10013	34.17414	65.90727	-100.89508	-32.5468	-49.63387	-54.51589	-34.17414	-43.93818	-25.22377	0
102	14.64606	-100.89508	-115.54114	41.49717	63.46626	-108.21811	-37.42882	-56.9569	-56.9569	-36.61515	-46.37919	-27.66478	0
103	9.76404	-108.21811	-117.98215	48.8202	63.46626	-113.10013	-39.86983	-64.27993	-64.27993	-41.49717	-48.8202	-32.5468	0
104	2.44101	-108.21811	-110.65912	51.26121	56.14323	-108.21811	-39.86983	-64.27993	-64.27993	-41.49717	-48.8202	-32.5468	0
105	-0.81367	-108.21811	-108.21811	53.70222	53.70222	-108.21811	-37.42882	-59.39791	-64.27993	-41.49717	-48.8202	-32.5468	0
106	-0.81367	-100.89508	-100.89508	48.8202	48.8202	-100.89508	-34.98781	-54.51589	-61.83892	-41.49717	-48.8202	-32.5468	0
107	4.88202	-100.89508	-105.7771	46.37919	53.70222	-103.33609	-34.98781	-52.07488	-59.39791	-39.05616	-48.8202	-32.5468	0
108	4.88202	-98.45407	-103.33609	46.37919	53.70222	-100.89508	-32.5468	-47.19286	-56.9569	-36.61515	-48.8202	-30.10579	0
109	-5.69569	-105.7771	-100.89508	53.70222	46.37919	-103.33609	-32.5468	-47.19286	-54.51589	-36.61515	-48.8202	-30.10579	0
110	-8.1367	-105.7771	-98.45407	56.14323	43.93818	-103.33609	-32.5468	-44.75185	-49.63387	-31.73313	-43.93818	-25.22377	0
111	-8.1367	-105.7771	-98.45407	56.14323	43.93818	-103.33609	-32.5468	-47.19286	-49.63387	-31.73313	-43.93818	-25.22377	0
112	-8.1367	-108.21811	-100.89508	56.14323	46.37919	-105.7771	-32.5468	-52.07488	-49.63387	-34.17414	-43.93818	-22.78276	0
113	-17.90074	-117.98215	-100.89508	65.90727	41.49717	-110.65912	-30.10579	-56.9569	-52.07488	-39.05616	-46.37919	-25.22377	0
114	-17.90074	-117.98215	-100.89508	65.90727	41.49717	-110.65912	-25.22377	-56.9569	-54.51589	-43.93818	-51.26121	-30.10579	0
115	2.44101	-110.65912	-113.10013	53.70222	56.14323	-110.65912	-15.45973	-47.19286	-56.9569	-46.37919	-56.14323	-34.98781	0
116	29.29212	-103.33609	-132.62821	36.61515	80.55333	-117.98215	-3.25468	-32.5468	-54.51589	-51.26121	-65.90727	-42.31084	0
117	31.73313	-120.42316	-152.15629	43.93818	90.31737	-135.06922	7.32303	-17.90074	-56.9569	-63.46626	-80.55333	-59.39791	0
118	24.4101	-147.27427	-171.68437	61.02525	97.6404	-159.47932	26.85111	2.44101	-54.51589	-70.78929	-92.75838	-74.04397	0
119	26.85111	-159.47932	-186.33043	65.90727	104.96343	-171.68437	56.14323	43.93818	-39.86983	-70.78929	-102.52242	-86.24902	0
120	43.93818	-157.03831	-200.97649	56.14323	122.0505	-179.0074	95.19939	100.08141	-9.76404	-53.70222	-100.08141	-88.69003	0
121	46.37919	-164.36134	-210.74053	58.58424	126.93252	-186.33043	131.81454	165.98868	34.17414	-28.47845	-85.43535	-81.367	0
122	43.93818	-166.80235	-210.74053	61.02525	126.93252	-188.77144	175.75272	251.42403	97.6404	15.45973	-56.14323	-61.83892	0
123	58.58424	-147.27427	-205.85851	43.93818	131.81454	-176.56639	227.01393	363.71049	190.39878	88.69003	-4.06835	-22.78276	0
124	82.99434	-103.33609	-186.33043	8.95037	134.25555	-144.83326	288.03918	505.28907	317.3313	196.09447	78.92599	41.49717	0
125	107.40444	-42.31084	-149.71528	-32.5468	126.93252	-96.01306	346.62342	663.95472	471.11493	332.79103	191.21245	131.81454	0
126	134.25555	31.73313	-103.33609	-83.80801	119.60949	-34.98781	395.44362	820.17936	641.98563	491.45668	327.90901	244.101	0
127	180.63474	129.37353	-52.07488	-154.5973	117.16848	39.05616	436.94079	971.52198	825.06138	672.09142	486.57466	375.91554	0
128	248.98302	251.42403	2.44101	-249.79669	124.49151	126.93252	461.35089	1113.10056	1020.34218	869.81323	664.76839	529.69917	0
129	331.97736	385.67958	53.70222	-359.64214	139.13757	219.6909	456.46887	1222.94601	1208.29995	1067.53504	855.16717	698.12886	0
130	395.44362	522.37614	126.93252	-459.72355	134.25555	324.65433	432.05877	1276.64823	1357.20156	1245.72877	1033.3609	859.23552	0
131	439.3818	659.0727	219.6909	-550.04092	109.84545	439.3818	390.5616	1276.64823	1462.16499	1389.74836	1189.58554	1008.13713	0
132	473.55594	793.32825	319.77231	-633.03526	78.11232	556.55028	329.53635	1215.62298	1508.54418	1482.50674	1309.19503	1130.18763	0
133	483.31998	898.29168	414.9717	-691.6195	34.17414	656.63169	248.98302	1088.69046	1481.69307	1506.91684	1375.1023	1215.62298	0
134	468.67392	978.84501	510.17109	-723.35263	-20.34175	744.50805	161.10666	910.49673	1381.61166	1458.09664	1379.98432	1247.35611	0
135	422.29473	1022.78319	600.48846	-723.35263	-88.69003	812.85633	75.67131	683.4828	1205.85894	1336.04614	1314.07705	1222.94601	0
136	351.50544	1022.78319	671.27775	-686.73748	-159.47932	847.03047	4.88202	424.73574	961.75794	1138.32433	1172.49847	1127.74662	0
137	285.59817	981.28602	695.68785	-633.03526	-205.85851	839.70744	-61.83892	144.01959	671.27775	884.45929	972.33565	978.84501	0
138	222.13191	903.1737	681.04179	-562.24597	-230.26861	793.32825	-122.86417	-130.1872	366.1515	611.06617	747.76273	803.09229	0
139	153.78363	798.21027	644.42664	-476.81062	-244.91467	722.53896	-164.36134	-369.40618	82.99434	347.43709	520.7488	615.13452	0
140	95.19939	688.36482	593.16543	-391.37527	-249.79669	641.98563	-183.88942	-552.48193	-152.15629	117.98215	310.82194	434.49978	0
141	31.73313	558.99129	527.25816	-296.17588	-247.35568	544.34523	-196.09447	-694.06051	-344.99608	-75.67131	122.86417	263.62908	0
142	-22.78276	434.49978	456.46887	-205.85851	-240.03265	444.26382	-208.29952	-791.70091	-489.01567	-229.45494	-29.29212	119.60949	0
143	-66.72094	329.53635	395.44362	-132.62821	-230.26861	361.26948	-218.06356	-835.63909	-567.12799	-322.21332	-126.93252	19.52808	0
144	-96.01306	246.54201	341.7414	-76.48498	-218.06356	292.9212	-222.94558	-830.75707	-596.42011	-375.91554	-195.2808	-49.63387	0
145	-117.98215	178.19373	295.36221	-30.10579	-205.85851	236.77797	-220.50457	-796.58293	-596.42011	-400.32564	-239.21898	-103.33609	0
146	-132.62821	122.0505	253.86504	4.06835	-193.65346	187.95777	-222.94558	-752.64475	-584.21506	-410.08968	-270.95211	-147.27427	0
147	-139.95124	80.55333	219.6909	29.29212	-179.0074	148.90161	-227.8276	-708.70657	-564.68698	-410.08968	-288.03918	-176.56639	0
148	-137.51023	65.90727	202.60383	34.17414	-169.24336	134.25555	-215.62255	-645.24031	-520.7488	-383.23857	-280.71615	-181.44841	0
149	-120.42316	70.78929	190.39878	24.4101	-154.5973	129.37353	-193.65346	-564.68698	-459.72355	-339.30039	-253.86504	-171.68437	0
150	-105.7771	70.78929	175.75272	17.08707	-139.95124	122.0505	-169.24336	-479.25163	-391.37527	-288.03918	-222.13191	-152.15629	0
151	-86.24902	73.2303	158.66565	6.50936	-122.86417	114.72747	-137.51023	-393.81628	-323.02699	-234.33696	-183.07575	-127.74619	0
152	-64.27993	75.67131	139.13757	-5.69569	-100.89508	107.40444	-103.33609	-318.14497	-257.11972	-183.07575	-146.4606	-100.89508	0
153	-39.86983	78.11232	117.16848	-20.34175	-78.92599	97.6404	-66.72094	-244.91467	-198.53548	-139.13757	-112.28646	-76.48498	0
154	-32.5468	65.90727	97.6404	-17.90074	-64.27993	80.55333	-37.42882	-186.33043	-154.5973	-107.40444	-90.31737	-61.83892	0
155	-32.5468	39.05616	70.78929	-3.25468	-52.07488	53.70222	-13.01872	-142.39225	-125.30518	-87.87636	-82.99434	-59.39791	0
156	-32.5468	14.64606	46.37919	8.95037	-39.86983	29.29212	-0.81367	-113.10013	-110.65912	-80.55333	-80.55333	-61.83892	0
157	-37.42882	-9.76404	26.85111	21.96909	-32.5468	7.32303	4.88202	-98.45407	-105.7771	-80.55333	-82.99434	-69.16195	0
158	-52.07488	-37.42882	14.64606	43.93818	-34.98781	-12.20505	2.44101	-93.57205	-105.7771	-85.43535	-90.31737	-78.92599	0
159	-59.39791	-49.63387	9.76404	53.70222	-34.98781	-20.34175	2.44101	-88.69003	-105.7771	-85.43535	-95.19939	-83.80801	0
160	-59.39791	-49.63387	9.76404	53.70222	-34.98781	-20.34175	4.88202	-83.80801	-100.89508	-82.99434	-95.19939	-83.80801	0
161	-54.51589	-49.63387	4.88202	51.26121	-30.10579	-22.78276	4.88202	-81.367	-100.89508	-82.99434	-95.19939	-86.24902	0
162	-54.51589	-49.63387	4.88202	51.26121	-30.10579	-22.78276	7.32303	-83.80801	-96.01306	-80.55333	-92.75838	-86.24902	0
163	-42.31084	-37.42882	4.88202	39.05616	-25.22377	-17.08707	12.20505	-78.92599	-91.13104	-75.67131	-90.31737	-78.92599	0
164	-30.10579	-20.34175	9.76404	24.4101	-20.34175	-4.88202	17.08707	-74.04397	-86.24902	-73.2303	-85.43535	-76.48498	0
165	-20.34175	-12.20505	7.32303	14.64606	-13.01872	-2.44101	21.96909	-64.27993	-81.367	-68.34828	-82.99434	-71.60296	0
166	-22.78276	-20.34175	2.44101	19.52808	-13.01872	-9.76404	19.52808	-61.83892	-83.80801	-73.2303	-87.87636	-81.367	0
167	-32.5468	-32.5468	0	31.73313	-17.90074	-17.08707	17.08707	-59.39791	-86.24902	-75.67131	-92.75838	-86.24902	0
168	-37.42882	-34.98781	2.44101	34.17414	-20.34175	-17.08707	17.08707	-54.51589	-83.80801	-73.2303	-92.75838	-86.24902	0
169	-47.19286	-42.31084	4.88202	43.93818	-27.66478	-20.34175	17.08707	-52.07488	-83.80801	-73.2303	-92.75838	-88.69003	0
170	-64.27993	-54.51589	9.76404	58.58424	-37.42882	-22.78276	12.20505	-52.07488	-86.24902	-75.67131	-95.19939	-91.13104	0
171	-74.04397	-66.72094	7.32303	68.34828	-42.31084	-30.10579	7.32303	-56.9569	-88.69003	-78.11232	-97.6404	-96.01306	0
172	-81.367	-74.04397	7.32303	75.67131	-44.75185	-34.98781	4.88202	-61.83892	-91.13104	-78.11232	-97.6404	-98.45407	0
173	-91.13104	-71.60296	19.52808	80.55333	-56.9569	-27.66478	9.76404	-61.83892	-86.24902	-73.2303	-92.75838	-91.13104	0
174	-93.57205	-66.72094	26.85111	78.11232	-61.83892	-20.34175	12.20505	-59.39791	-83.80801	-70.78929	-90.31737	-88.69003	0
175	-88.69003	-59.39791	29.29212	73.2303	-59.39791	-14.64606	14.64606	-54.51589	-83.80801	-70.78929	-90.31737	-86.24902	0
176	-74.04397	-44.75185	29.29212	58.58424	-52.07488	-7.32303	19.52808	-47.19286	-78.92599	-68.34828	-85.43535	-86.24902	0
177	-54.51589	-27.66478	26.85111	39.05616	-42.31084	0	24.4101	-37.42882	-69.16195	-61.02525	-78.11232	-81.367	0
178	-49.63387	-17.08707	31.73313	31.73313	-39.86983	7.32303	29.29212	-27.66478	-61.83892	-53.70222	-73.2303	-74.04397	0
179	-49.63387	-14.64606	34.17414	31.73313	-42.31084	9.76404	29.29212	-22.78276	-56.9569	-53.70222	-73.2303	-74.04397	0
180	-37.42882	-7.32303	29.29212	21.96909	-32.5468	9.76404	31.73313	-20.34175	-56.9569	-51.26121	-70.78929	-74.04397	0
181	-32.5468	-9.76404	21.96909	19.52808	-27.66478	4.88202	29.29212	-22.78276	-56.9569	-53.70222	-73.2303	-78.92599	0
182	-39.86983	-20.34175	19.52808	29.29212	-30.10579	0	24.4101	-30.10579	-61.83892	-58.58424	-78.11232	-83.80801	0
183	-47.19286	-22.78276	24.4101	34.17414	-37.42882	0	21.96909	-34.98781	-64.27993	-63.46626	-80.55333	-86.24902	0
184	-56.9569	-32.5468	24.4101	43.93818	-42.31084	-4.88202	17.08707	-42.31084	-69.16195	-70.78929	-87.87636	-91.13104	0
185	-61.83892	-42.31084	19.52808	51.26121	-42.31084	-12.20505	14.64606	-42.31084	-76.48498	-75.67131	-92.75838	-98.45407	0
186	-71.60296	-52.07488	19.52808	61.02525	-47.19286	-17.08707	9.76404	-44.75185	-81.367	-82.99434	-100.08141	-103.33609	0
187	-76.48498	-52.07488	24.4101	63.46626	-52.07488	-14.64606	9.76404	-39.86983	-78.92599	-82.99434	-100.08141	-103.33609	0
188	-71.60296	-42.31084	29.29212	56.14323	-52.07488	-7.32303	14.64606	-32.5468	-71.60296	-78.11232	-95.19939	-98.45407	0
189	-71.60296	-42.31084	29.29212	56.14323	-52.07488	-7.32303	14.64606	-30.10579	-69.16195	-78.11232	-95.19939	-100.89508	0
190	-74.04397	-47.19286	26.85111	58.58424	-52.07488	-9.76404	9.76404	-34.98781	-74.04397	-80.55333	-100.08141	-105.7771	0
191	-74.04397	-42.31084	31.73313	56.14323	-54.51589	-4.88202	9.76404	-34.98781	-71.60296	-78.11232	-97.6404	-103.33609	0
192	-59.39791	-27.66478	31.73313	41.49717	-47.19286	2.44101	14.64606	-34.98781	-66.72094	-73.2303	-92.75838	-100.89508	0
193	-44.75185	-14.64606	29.29212	29.29212	-37.42882	7.32303	19.52808	-37.42882	-64.27993	-70.78929	-87.87636	-96.01306	0
194	-47.19286	-12.20505	34.17414	29.29212	-39.86983	9.76404	21.96909	-37.42882	-64.27993	-73.2303	-87.87636	-96.01306	0
195	-54.51589	-14.64606	39.05616	34.17414	-47.19286	12.20505	21.96909	-34.98781	-66.72094	-73.2303	-87.87636	-98.45407	0
196	-52.07488	-7.32303	43.93818	29.29212	-47.19286	17.08707	24.4101	-30.10579	-66.72094	-73.2303	-87.87636	-98.45407	0
197	-64.27993	-12.20505	51.26121	36.61515	-56.9569	19.52808	26.85111	-25.22377	-64.27993	-70.78929	-85.43535	-96.01306	0
198	-74.04397	-17.08707	56.14323	43.93818	-64.27993	19.52808	24.4101	-22.78276	-64.27993	-70.78929	-85.43535	-98.45407	0
199	-76.48498	-17.08707	58.58424	46.37919	-66.72094	19.52808	24.4101	-22.78276	-64.27993	-70.78929	-85.43535	-98.45407	0
200	-83.80801	-22.78276	61.02525	51.26121	-74.04397	19.52808	21.96909	-22.78276	-66.72094	-70.78929	-85.43535	-103.33609	0
201	-83.80801	-22.78276	61.02525	51.26121	-74.04397	19.52808	21.96909	-22.78276	-66.72094	-68.34828	-85.43535	-103.33609	0
202	-78.92599	-22.78276	56.14323	48.8202	-69.16195	17.08707	21.96909	-27.66478	-66.72094	-68.34828	-82.99434	-103.33609	0
203	-78.92599	-20.34175	58.58424	48.8202	-69.16195	19.52808	21.96909	-32.5468	-66.72094	-68.34828	-82.99434	-100.89508	0
204	-74.04397	-12.20505	61.02525	41.49717	-66.72094	24.4101	21.96909	-32.5468	-66.72094	-68.34828	-82.99434	-100.89508	0
205	-76.48498	-14.64606	61.02525	43.93818	-69.16195	21.96909	19.52808	-32.5468	-69.16195	-70.78929	-85.43535	-103.33609	0
206	-69.16195	-12.20505	56.14323	39.05616	-61.83892	21.96909	19.52808	-30.10579	-69.16195	-70.78929	-87.87636	-105.7771	0
207	-52.07488	-9.76404	41.49717	29.29212	-47.19286	14.64606	14.64606	-30.10579	-74.04397	-73.2303	-92.75838	-110.65912	0
208	-59.39791	-14.64606	43.93818	36.61515	-52.07488	14.64606	12.20505	-30.10579	-74.04397	-75.67131	-95.19939	-113.10013	0
209	-69.16195	-14.64606	53.70222	41.49717	-61.83892	19.52808	12.20505	-27.66478	-71.60296	-73.2303	-92.75838	-110.65912	0
210	-69.16195	-9.76404	58.58424	39.05616	-64.27993	24.4101	14.64606	-22.78276	-69.16195	-70.78929	-87.87636	-108.21811	0
211	-64.27993	4.88202	68.34828	29.29212	-66.72094	36.61515	19.52808	-20.34175	-64.27993	-63.46626	-80.55333	-100.89508	0
212	-74.04397	4.88202	78.11232	34.17414	-76.48498	41.49717	21.96909	-20.34175	-61.83892	-61.02525	-75.67131	-98.45407	0
213	-98.45407	4.88202	102.52242	46.37919	-100.89508	53.70222	29.29212	-20.34175	-56.9569	-53.70222	-70.78929	-91.13104	0
214	-108.21811	7.32303	114.72747	48.8202	-110.65912	61.02525	31.73313	-20.34175	-56.9569	-53.70222	-68.34828	-88.69003	0
215	-105.7771	12.20505	117.16848	46.37919	-110.65912	63.46626	31.73313	-20.34175	-59.39791	-56.14323	-70.78929	-91.13104	0
216	-96.01306	24.4101	119.60949	34.17414	-108.21811	70.78929	34.17414	-13.01872	-59.39791	-53.70222	-68.34828	-91.13104	0
217	-86.24902	34.17414	119.60949	24.4101	-103.33609	75.67131	36.61515	-7.32303	-54.51589	-48.8202	-63.46626	-86.24902	0
218	-93.57205	26.85111	119.60949	31.73313	-105.7771	73.2303	34.17414	-7.32303	-56.9569	-51.26121	-65.90727	-91.13104	0
219	-98.45407	19.52808	117.16848	39.05616	-108.21811	68.34828	29.29212	-10.57771	-59.39791	-53.70222	-68.34828	-93.57205	0
220	-91.13104	26.85111	117.16848	31.73313	-103.33609	70.78929	29.29212	-10.57771	-59.39791	-51.26121	-65.90727	-93.57205	0
221	-88.69003	34.17414	122.0505	26.85111	-105.7771	78.11232	34.17414	-7.32303	-54.51589	-46.37919	-61.02525	-88.69003	0
222	-86.24902	36.61515	122.0505	24.4101	-103.33609	78.11232	31.73313	-10.57771	-56.9569	-46.37919	-61.02525	-88.69003	0
223	-98.45407	26.85111	124.49151	34.17414	-110.65912	75.67131	26.85111	-20.34175	-61.83892	-46.37919	-63.46626	-88.69003	0
224	-103.33609	26.85111	129.37353	36.61515	-115.54114	78.11232	24.4101	-22.78276	-64.27993	-46.37919	-65.90727	-91.13104	0
225	-86.24902	46.37919	131.81454	19.52808	-108.21811	87.87636	31.73313	-13.01872	-59.39791	-39.05616	-58.58424	-83.80801	0
226	-81.367	53.70222	134.25555	12.20505	-108.21811	92.75838	31.73313	-10.57771	-59.39791	-39.05616	-58.58424	-83.80801	0
227	-96.01306	48.8202	144.01959	21.96909	-120.42316	95.19939	31.73313	-7.32303	-59.39791	-36.61515	-56.14323	-83.80801	0
228	-108.21811	43.93818	151.34262	31.73313	-130.1872	97.6404	31.73313	-2.44101	-56.9569	-31.73313	-56.14323	-81.367	0
229	-105.7771	51.26121	156.22464	26.85111	-130.1872	102.52242	34.17414	4.88202	-49.63387	-28.47845	-48.8202	-76.48498	0
230	-103.33609	58.58424	161.10666	21.96909	-132.62821	109.84545	34.17414	7.32303	-49.63387	-26.03744	-48.8202	-76.48498	0
231	-98.45407	58.58424	156.22464	19.52808	-127.74619	107.40444	31.73313	4.88202	-49.63387	-28.47845	-48.8202	-76.48498	0
232	-96.01306	63.46626	158.66565	14.64606	-127.74619	109.84545	34.17414	2.44101	-47.19286	-23.59643	-43.93818	-74.04397	0
233	-93.57205	73.2303	165.98868	8.95037	-130.1872	119.60949	39.05616	2.44101	-42.31084	-18.71441	-36.61515	-66.72094	0
234	-88.69003	85.43535	173.31171	1.62734	-130.1872	129.37353	43.93818	7.32303	-37.42882	-13.83239	-31.73313	-59.39791	0
235	-96.01306	85.43535	180.63474	4.06835	-137.51023	131.81454	43.93818	12.20505	-37.42882	-13.83239	-29.29212	-59.39791	0
236	-115.54114	73.2303	187.95777	19.52808	-152.15629	129.37353	41.49717	12.20505	-39.86983	-16.2734	-34.17414	-64.27993	0
237	-122.86417	75.67131	197.72181	21.96909	-159.47932	136.69656	43.93818	19.52808	-34.98781	-11.39138	-29.29212	-59.39791	0
238	-120.42316	82.99434	202.60383	17.08707	-161.92033	141.57858	46.37919	24.4101	-30.10579	-4.06835	-26.03744	-54.51589	0
239	-108.21811	90.31737	197.72181	8.95037	-152.15629	144.01959	46.37919	29.29212	-26.85111	0.81367	-23.59643	-54.51589	0
240	-88.69003	102.52242	190.39878	-8.1367	-139.95124	146.4606	43.93818	29.29212	-26.85111	3.25468	-21.15542	-52.07488	0
241	-74.04397	117.16848	190.39878	-22.78276	-132.62821	153.78363	43.93818	31.73313	-21.96909	8.1367	-16.2734	-47.19286	0
242	-54.51589	141.57858	195.2808	-44.75185	-125.30518	168.42969	51.26121	36.61515	-12.20505	20.34175	-1.62734	-37.42882	0
243	-42.31084	158.66565	200.16282	-59.39791	-120.42316	178.19373	53.70222	39.05616	-4.88202	27.66478	8.1367	-27.66478	0
244	-49.63387	163.54767	212.36787	-56.9569	-130.1872	187.95777	56.14323	41.49717	-2.44101	30.10579	13.01872	-25.22377	1500	QRS+0
245	-66.72094	156.22464	222.13191	-44.75185	-144.83326	187.95777	53.70222	48.8202	-2.44101	30.10579	13.01872	-22.78276	0
246	-86.24902	156.22464	241.65999	-34.98781	-164.36134	197.72181	53.70222	58.58424	2.44101	34.98781	17.90074	-19.52808	0
247	-88.69003	163.54767	251.42403	-37.42882	-169.24336	207.48585	56.14323	68.34828	9.76404	42.31084	25.22377	-14.64606	0
248	-83.80801	175.75272	258.74706	-47.19286	-171.68437	217.24989	58.58424	78.11232	17.08707	49.63387	32.5468	-7.32303	0
249	-69.16195	185.51676	253.86504	-59.39791	-161.92033	219.6909	58.58424	82.99434	21.96909	52.07488	34.98781	-4.88202	0
250	-66.72094	197.72181	263.62908	-66.72094	-164.36134	229.45494	61.02525	90.31737	29.29212	61.83892	42.31084	2.44101	0
251	-61.83892	209.92686	270.95211	-74.04397	-166.80235	239.21898	65.90727	100.08141	39.05616	71.60296	52.07488	14.64606	0
252	-56.9569	219.6909	275.83413	-81.367	-166.80235	246.54201	68.34828	102.52242	46.37919	78.92599	61.83892	19.52808	0
253	-59.39791	219.6909	278.27514	-81.367	-169.24336	248.98302	68.34828	102.52242	48.8202	81.367	64.27993	26.85111	0
254	-76.48498	207.48585	283.15716	-66.72094	-179.0074	244.101	63.46626	102.52242	51.26121	81.367	64.27993	26.85111	0
255	-98.45407	192.83979	290.48019	-47.19286	-193.65346	241.65999	58.58424	104.96343	48.8202	81.367	64.27993	24.4101	0
256	-105.7771	187.95777	292.9212	-42.31084	-198.53548	239.21898	56.14323	109.84545	51.26121	81.367	64.27993	24.4101	0
257	-100.89508	187.95777	288.03918	-44.75185	-193.65346	236.77797	53.70222	114.72747	56.14323	83.80801	66.72094	24.4101	0
258	-91.13104	195.2808	285.59817	-52.07488	-188.77144	239.21898	53.70222	124.49151	63.46626	88.69003	71.60296	29.29212	0
259	-83.80801	212.36787	295.36221	-64.27993	-188.77144	253.86504	61.02525	136.69656	78.11232	103.33609	83.80801	39.05616	0
260	-69.16195	231.89595	300.24423	-81.367	-183.88942	266.07009	68.34828	151.34262	90.31737	115.54114	93.57205	51.26121	0
261	-54.51589	253.86504	307.56726	-100.89508	-181.44841	280.71615	75.67131	163.54767	107.40444	130.1872	108.21811	65.90727	0
262	-49.63387	268.5111	317.3313	-110.65912	-183.88942	292.9212	82.99434	170.8707	119.60949	142.39225	120.42316	78.11232	0
263	-42.31084	278.27514	319.77231	-117.98215	-181.44841	297.80322	85.43535	175.75272	126.93252	152.15629	130.1872	90.31737	0
264	-47.19286	278.27514	324.65433	-115.54114	-186.33043	300.24423	85.43535	175.75272	131.81454	152.15629	132.62821	95.19939	0
265	-44.75185	278.27514	322.21332	-117.98215	-183.88942	300.24423	85.43535	183.07575	134.25555	157.03831	135.06922	100.08141	0
266	-47.19286	278.27514	324.65433	-115.54114	-186.33043	300.24423	82.99434	190.39878	139.13757	159.47932	137.51023	102.52242	0
267	-39.86983	275.83413	314.89029	-117.98215	-176.56639	295.36221	80.55333	195.2808	144.01959	161.92033	139.95124	107.40444	0
268	-27.66478	280.71615	307.56726	-127.74619	-166.80235	292.9212	80.55333	200.16282	148.90161	164.36134	144.83326	109.84545	0
269	-17.90074	283.15716	300.24423	-132.62821	-159.47932	290.48019	73.2303	205.04484	151.34262	166.80235	144.83326	112.28646	0
270	-13.01872	288.03918	300.24423	-137.51023	-157.03831	292.9212	73.2303	212.36787	158.66565	171.68437	152.15629	117.16848	0
271	-17.90074	288.03918	305.12625	-135.06922	-161.92033	295.36221	75.67131	214.80888	165.98868	179.0074	159.47932	124.49151	0
272	-15.45973	285.59817	300.24423	-135.06922	-157.03831	292.9212	70.78929	212.36787	168.42969	181.44841	159.47932	124.49151	0
273	-13.01872	283.15716	295.36221	-135.06922	-154.5973	288.03918	70.78929	207.48585	168.42969	179.0074	159.47932	126.93252	0
274	-25.22377	273.39312	297.80322	-125.30518	-161.92033	285.59817	68.34828	207.48585	168.42969	179.0074	159.47932	126.93252	0
275	-27.66478	266.07009	292.9212	-120.42316	-159.47932	278.27514	63.46626	207.48585	165.98868	176.56639	157.03831	124.49151	0
276	-32.5468	253.86504	285.59817	-110.65912	-159.47932	268.5111	61.02525	209.92686	163.54767	171.68437	152.15629	122.0505	0
277	-25.22377	244.101	268.5111	-110.65912	-147.27427	256.30605	56.14323	212.36787	158.66565	166.80235	149.71528	119.60949	0
278	-27.66478	234.33696	261.18807	-103.33609	-144.83326	246.54201	53.70222	212.36787	158.66565	164.36134	147.27427	117.16848	0
279	-30.10579	227.01393	256.30605	-98.45407	-142.39225	241.65999	48.8202	212.36787	158.66565	164.36134	144.83326	114.72747	0
280	-15.45973	224.57292	239.21898	-105.7771	-127.74619	231.89595	43.93818	212.36787	158.66565	161.92033	142.39225	112.28646	0
281	-3.25468	227.01393	229.45494	-113.10013	-115.54114	227.01393	43.93818	214.80888	163.54767	161.92033	147.27427	117.16848	0
282	12.20505	239.21898	227.01393	-125.30518	-108.21811	234.33696	48.8202	217.24989	170.8707	169.24336	154.5973	122.0505	0
283	24.4101	244.101	219.6909	-135.06922	-98.45407	231.89595	51.26121	217.24989	173.31171	171.68437	159.47932	129.37353	0
284	26.85111	241.65999	214.80888	-135.06922	-93.57205	229.45494	51.26121	217.24989	175.75272	171.68437	159.47932	129.37353	0
285	34.17414	241.65999	207.48585	-137.51023	-86.24902	224.57292	53.70222	222.13191	178.19373	174.12538	161.92033	134.25555	0
286	34.17414	239.21898	205.04484	-137.51023	-86.24902	222.13191	58.58424	229.45494	183.07575	174.12538	161.92033	136.69656	0
287	24.4101	227.01393	202.60383	-125.30518	-88.69003	214.80888	58.58424	234.33696	183.07575	174.12538	164.36134	139.13757	0
288	21.96909	217.24989	195.2808	-120.42316	-86.24902	207.48585	58.58424	239.21898	185.51676	174.12538	164.36134	141.57858	0
289	17.08707	202.60383	185.51676	-110.65912	-83.80801	195.2808	53.70222	236.77797	183.07575	169.24336	159.47932	139.13757	0
290	19.52808	190.39878	170.8707	-105.7771	-76.48498	180.63474	51.26121	234.33696	178.19373	164.36134	154.5973	134.25555	0
291	26.85111	183.07575	156.22464	-105.7771	-64.27993	170.8707	48.8202	229.45494	175.75272	161.92033	152.15629	131.81454	0
292	26.85111	168.42969	141.57858	-98.45407	-56.9569	156.22464	43.93818	219.6909	168.42969	154.5973	147.27427	126.93252	0
293	26.85111	151.34262	124.49151	-88.69003	-49.63387	139.13757	36.61515	205.04484	158.66565	142.39225	137.51023	122.0505	0
294	29.29212	131.81454	102.52242	-81.367	-37.42882	117.16848	29.29212	190.39878	146.4606	127.74619	122.86417	109.84545	0
295	24.4101	107.40444	82.99434	-66.72094	-30.10579	95.19939	19.52808	180.63474	129.37353	113.10013	108.21811	97.6404	0
296	14.64606	85.43535	70.78929	-49.63387	-27.66478	78.11232	12.20505	170.8707	119.60949	100.89508	96.01306	85.43535	0
297	14.64606	70.78929	56.14323	-42.31084	-20.34175	63.46626	7.32303	163.54767	112.28646	91.13104	88.69003	78.11232	0
298	29.29212	68.34828	39.05616	-49.63387	-5.69569	53.70222	4.88202	158.66565	107.40444	83.80801	83.80801	73.2303	0
299	41.49717	68.34828	26.85111	-54.51589	6.50936	48.8202	2.44101	153.78363	102.52242	78.92599	78.92599	68.34828	0
300	39.05616	58.58424	19.52808	-49.63387	8.95037	39.05616	-0.81367	148.90161	97.6404	74.04397	74.04397	63.46626	0
301	39.05616	46.37919	7.32303	-42.31084	17.08707	26.85111	-0.81367	139.13757	90.31737	66.72094	66.72094	58.58424	0
302	43.93818	46.37919	2.44101	-44.75185	21.96909	24.4101	-0.81367	129.37353	85.43535	66.72094	64.27993	58.58424	0
303	41.49717	39.05616	-2.44101	-39.86983	21.96909	19.52808	-0.81367	117.16848	78.11232	59.39791	59.39791	56.14323	0
304	29.29212	26.85111	-2.44101	-27.66478	17.08707	12.20505	-3.25468	104.96343	68.34828	52.07488	52.07488	48.8202	0
305	21.96909	17.08707	-4.88202	-20.34175	14.64606	7.32303	-3.25468	100.08141	61.02525	47.19286	47.19286	43.93818	0
306	21.96909	9.76404	-12.20505	-15.45973	17.08707	0	-3.25468	95.19939	51.26121	39.86983	37.42882	36.61515	0
307	21.96909	0	-22.78276	-10.57771	21.96909	-9.76404	-3.25468	90.31737	46.37919	34.98781	32.5468	34.17414	0
308	21.96909	-2.44101	-25.22377	-10.57771	24.4101	-12.20505	-3.25468	85.43535	41.49717	30.10579	30.10579	29.29212	0
309	29.29212	-4.88202	-34.98781	-13.01872	31.73313	-20.34175	-8.1367	78.11232	34.17414	22.78276	22.78276	24.4101	0
310	34.17414	-9.76404	-44.75185	-13.01872	39.05616	-27.66478	-10.57771	70.78929	26.85111	15.45973	15.45973	17.08707	0
311	26.85111	-25.22377	-52.07488	-0.81367	39.05616	-37.42882	-20.34175	56.14323	12.20505	3.25468	5.69569	7.32303	0
312	26.85111	-30.10579	-56.9569	1.62734	41.49717	-42.31084	-22.78276	43.93818	4.88202	-1.62734	3.25468	2.44101	0
313	26.85111	-30.10579	-56.9569	1.62734	41.49717	-42.31084	-22.78276	34.17414	0	-6.50936	0.81367	4.88202	0
314	31.73313	-30.10579	-61.83892	-0.81367	46.37919	-44.75185	-25.22377	24.4101	-7.32303	-13.83239	-4.06835	0	0
315	21.96909	-42.31084	-64.27993	8.95037	41.49717	-52.07488	-27.66478	19.52808	-17.08707	-21.15542	-11.39138	-7.32303	0
316	7.32303	-47.19286	-54.51589	19.52808	29.29212	-49.63387	-25.22377	17.08707	-19.52808	-23.59643	-13.83239	-7.32303	0
317	12.20505	-39.86983	-52.07488	12.20505	31.73313	-44.75185	-22.78276	19.52808	-21.96909	-26.03744	-13.83239	-7.32303	0
318	17.08707	-39.86983	-56.9569	8.95037	36.61515	-47.19286	-22.78276	17.08707	-24.4101	-28.47845	-13.83239	-9.76404	0
319	12.20505	-47.19286	-59.39791	17.08707	34.17414	-52.07488	-27.66478	12.20505	-30.10579	-34.17414	-21.15542	-14.64606	0
320	4.88202	-54.51589	-59.39791	24.4101	31.73313	-56.9569	-30.10579	7.32303	-34.98781	-36.61515	-26.03744	-19.52808	0
321	7.32303	-52.07488	-59.39791	21.96909	31.73313	-54.51589	-30.10579	2.44101	-34.98781	-36.61515	-26.03744	-17.08707	0
322	17.08707	-52.07488	-69.16195	17.08707	41.49717	-59.39791	-34.98781	-10.57771	-42.31084	-43.93818	-29.29212	-22.78276	0
323	21.96909	-64.27993	-86.24902	19.52808	53.70222	-74.04397	-42.31084	-22.78276	-54.51589	-53.70222	-36.61515	-25.22377	0
324	9.76404	-71.60296	-81.367	29.29212	43.93818	-76.48498	-44.75185	-32.5468	-61.83892	-58.58424	-43.93818	-30.10579	0
325	2.44101	-76.48498	-78.92599	36.61515	39.05616	-76.48498	-44.75185	-32.5468	-66.72094	-61.02525	-46.37919	-32.5468	0
326	4.88202	-74.04397	-78.92599	34.17414	41.49717	-76.48498	-44.75185	-30.10579	-66.72094	-63.46626	-48.8202	-34.98781	0
327	4.88202	-74.04397	-78.92599	34.17414	41.49717	-76.48498	-44.75185	-25.22377	-64.27993	-61.02525	-48.8202	-34.98781	0
328	7.32303	-69.16195	-76.48498	29.29212	41.49717	-71.60296	-42.31084	-22.78276	-61.83892	-58.58424	-48.8202	-37.42882	0
329	4.88202	-61.83892	-66.72094	26.85111	34.17414	-64.27993	-37.42882	-17.90074	-54.51589	-53.70222	-41.49717	-32.5468	0
330	-0.81367	-64.27993	-64.27993	31.73313	31.73313	-64.27993	-37.42882	-15.45973	-52.07488	-53.70222	-41.49717	-32.5468	0
331	-0.81367	-69.16195	-69.16195	34.17414	34.17414	-69.16195	-42.31084	-20.34175	-56.9569	-53.70222	-41.49717	-32.5468	0
332	-13.01872	-76.48498	-64.27993	43.93818	24.4101	-71.60296	-42.31084	-30.10579	-59.39791	-53.70222	-41.49717	-32.5468	-1500	QRS-0
333	-17.90074	-78.92599	-61.83892	46.37919	21.96909	-71.60296	-44.75185	-37.42882	-66.72094	-56.14323	-41.49717	-32.5468	0
334	-22.78276	-88.69003	-66.72094	53.70222	21.96909	-78.92599	-49.63387	-47.19286	-71.60296	-63.46626	-48.8202	-34.98781	0
335	-22.78276	-91.13104	-69.16195	56.14323	21.96909	-81.367	-49.63387	-47.19286	-78.92599	-65.90727	-53.70222	-37.42882	0
336	-17.90074	-88.69003	-71.60296	51.26121	26.85111	-81.367	-49.63387	-47.19286	-78.92599	-70.78929	-56.14323	-42.31084	0
337	-10.57771	-86.24902	-76.48498	46.37919	31.73313	-81.367	-47.19286	-42.31084	-78.92599	-68.34828	-58.58424	-42.31084	0
338	-5.69569	-83.80801	-78.92599	43.93818	36.61515	-81.367	-44.75185	-37.42882	-76.48498	-68.34828	-61.02525	-47.19286	0
339	2.44101	-86.24902	-88.69003	41.49717	43.93818	-86.24902	-47.19286	-34.98781	-76.48498	-70.78929	-65.90727	-52.07488	0
340	-0.81367	-88.69003	-88.69003	43.93818	43.93818	-88.69003	-47.19286	-32.5468	-71.60296	-65.90727	-65.90727	-52.07488	0
341	-10.57771	-93.57205	-83.80801	51.26121	36.61515	-88.69003	-42.31084	-30.10579	-66.72094	-63.46626	-61.02525	-49.63387	0
342	-10.57771	-91.13104	-81.367	48.8202	34.17414	-86.24902	-42.31084	-32.5468	-64.27993	-58.58424	-61.02525	-47.19286	0
343	-10.57771	-93.57205	-83.80801	51.26121	36.61515	-88.69003	-42.31084	-39.86983	-64.27993	-58.58424	-61.02525	-47.19286	0
344	-8.1367	-86.24902	-78.92599	46.37919	34.17414	-83.80801	-37.42882	-42.31084	-59.39791	-56.14323	-56.14323	-39.86983	0
345	-5.69569	-81.367	-76.48498	41.49717	34.17414	-78.92599	-34.98781	-42.31084	-59.39791	-56.14323	-56.14323	-37.42882	0
346	-8.1367	-83.80801	-76.48498	43.93818	34.17414	-81.367	-34.98781	-42.31084	-61.83892	-61.02525	-58.58424	-42.31084	0
347	-8.1367	-88.69003	-81.367	46.37919	36.61515	-86.24902	-37.42882	-39.86983	-64.27993	-65.90727	-63.46626	-47.19286	0
348	-3.25468	-91.13104	-88.69003	46.37919	41.49717	-91.13104	-37.42882	-34.98781	-64.27993	-68.34828	-65.90727	-52.07488	0
349	-10.57771	-96.01306	-86.24902	51.26121	36.61515	-91.13104	-34.98781	-25.22377	-59.39791	-65.90727	-65.90727	-52.07488	0
350	-20.34175	-105.7771	-86.24902	61.02525	31.73313	-96.01306	-34.98781	-22.78276	-56.9569	-63.46626	-65.90727	-52.07488	0
351	-20.34175	-110.65912	-91.13104	63.46626	34.17414	-100.89508	-34.98781	-20.34175	-56.9569	-63.46626	-65.90727	-54.51589	0
352	-25.22377	-113.10013	-88.69003	68.34828	31.73313	-100.89508	-34.98781	-22.78276	-54.51589	-61.02525	-63.46626	-54.51589	0
353	-20.34175	-110.65912	-91.13104	63.46626	34.17414	-100.89508	-34.98781	-27.66478	-54.51589	-61.02525	-63.46626	-52.07488	0
354	-15.45973	-105.7771	-91.13104	58.58424	36.61515	-98.45407	-32.5468	-30.10579	-52.07488	-61.02525	-63.46626	-49.63387	0
355	-3.25468	-98.45407	-96.01306	48.8202	46.37919	-98.45407	-32.5468	-34.98781	-56.9569	-63.46626	-63.46626	-49.63387	0
356	2.44101	-91.13104	-93.57205	43.93818	46.37919	-91.13104	-30.10579	-30.10579	-56.9569	-65.90727	-65.90727	-52.07488	0
357	-3.25468	-93.57205	-91.13104	46.37919	43.93818	-93.57205	-27.66478	-20.34175	-54.51589	-63.46626	-63.46626	-49.63387	0
358	-17.90074	-100.89508	-83.80801	58.58424	31.73313	-93.57205	-27.66478	-13.01872	-52.07488	-63.46626	-65.90727	-54.51589	0
359	-27.66478	-110.65912	-83.80801	68.34828	26.85111	-98.45407	-27.66478	-10.57771	-49.63387	-63.46626	-65.90727	-54.51589	0
360	-32.5468	-117.98215	-86.24902	73.2303	26.85111	-103.33609	-27.66478	-4.88202	-47.19286	-61.02525	-65.90727	-54.51589	0
361	-44.75185	-125.30518	-81.367	82.99434	17.08707	-103.33609	-25.22377	0	-39.86983	-58.58424	-63.46626	-54.51589	0
362	-64.27993	-135.06922	-71.60296	97.6404	1.62734	-103.33609	-25.22377	-2.44101	-37.42882	-56.14323	-61.02525	-54.51589	0
363	-49.63387	-137.51023	-88.69003	92.75838	19.52808	-113.10013	-30.10579	-10.57771	-39.86983	-61.02525	-63.46626	-54.51589	0
364	-27.66478	-127.74619	-100.89508	75.67131	36.61515	-115.54114	-30.10579	-17.90074	-42.31084	-63.46626	-63.46626	-54.51589	0
365	-25.22377	-120.42316	-96.01306	70.78929	34.17414	-108.21811	-25.22377	-15.45973	-39.86983	-63.46626	-63.46626	-52.07488	0
366	-20.34175	-110.65912	-91.13104	63.46626	34.17414	-100.89508	-20.34175	-10.57771	-37.42882	-61.02525	-61.02525	-52.07488	0
367	-15.45973	-108.21811	-93.57205	61.02525	39.05616	-100.89508	-17.90074	-2.44101	-37.42882	-63.46626	-61.02525	-52.07488	0
368	-3.25468	-105.7771	-103.33609	53.70222	48.8202	-105.7771	-20.34175	2.44101	-37.42882	-65.90727	-65.90727	-59.39791	0
369	-10.57771	-110.65912	-100.89508	58.58424	43.93818	-105.7771	-17.90074	12.20505	-32.5468	-65.90727	-65.90727	-59.39791	0
370	-30.10579	-122.86417	-93.57205	75.67131	31.73313	-108.21811	-15.45973	19.52808	-30.10579	-63.46626	-63.46626	-56.9569	0
371	-25.22377	-117.98215	-93.57205	70.78929	34.17414	-105.7771	-15.45973	26.85111	-21.96909	-58.58424	-58.58424	-52.07488	0
372	-17.90074	-113.10013	-96.01306	63.46626	39.05616	-105.7771	-13.01872	26.85111	-19.52808	-56.14323	-56.14323	-52.07488	0
373	-17.90074	-122.86417	-105.7771	68.34828	43.93818	-115.54114	-15.45973	17.08707	-21.96909	-58.58424	-56.14323	-52.07488	0
374	-10.57771	-115.54114	-105.7771	61.02525	46.37919	-110.65912	-10.57771	12.20505	-19.52808	-56.14323	-51.26121	-47.19286	0
375	-5.69569	-108.21811	-103.33609	56.14323	48.8202	-105.7771	-5.69569	9.76404	-19.52808	-56.14323	-48.8202	-44.75185	0
376	4.88202	-96.01306	-100.89508	43.93818	51.26121	-98.45407	-3.25468	14.64606	-21.96909	-56.14323	-48.8202	-42.31084	0
377	4.88202	-98.45407	-103.33609	46.37919	53.70222	-100.89508	-0.81367	17.08707	-24.4101	-56.14323	-51.26121	-44.75185	0
378	-0.81367	-110.65912	-110.65912	53.70222	53.70222	-110.65912	-3.25468	17.08707	-24.4101	-61.02525	-56.14323	-52.07488	0
379	-0.81367	-113.10013	-113.10013	56.14323	56.14323	-113.10013	-3.25468	24.4101	-21.96909	-58.58424	-56.14323	-54.51589	0
380	-3.25468	-115.54114	-113.10013	58.58424	53.70222	-115.54114	-0.81367	29.29212	-17.08707	-56.14323	-51.26121	-52.07488	0
381	-5.69569	-117.98215	-113.10013	61.02525	53.70222	-115.54114	-0.81367	34.17414	-12.20505	-51.26121	-48.8202	-47.19286	0
382	-5.69569	-120.42316	-115.54114	61.02525	53.70222	-117.98215	-3.25468	31.73313	-9.76404	-48.8202	-48.8202	-47.19286	0
383	-3.25468	-122.86417	-120.42316	61.02525	58.58424	-122.86417	-5.69569	24.4101	-7.32303	-48.8202	-46.37919	-44.75185	0
384	4.88202	-115.54114	-120.42316	53.70222	61.02525	-117.98215	-5.69569	21.96909	-7.32303	-43.93818	-43.93818	-39.86983	0
385	19.52808	-103.33609	-122.86417	41.49717	70.78929	-113.10013	-5.69569	19.52808	-4.88202	-39.05616	-41.49717	-34.98781	0
386	29.29212	-88.69003	-117.98215	29.29212	73.2303	-103.33609	-3.25468	21.96909	-4.88202	-36.61515	-36.61515	-30.10579	0
387	29.29212	-88.69003	-117.98215	29.29212	73.2303	-103.33609	-5.69569	24.4101	-7.32303	-36.61515	-39.05616	-30.10579	0
388	26.85111	-96.01306	-122.86417	34.17414	73.2303	-108.21811	-10.57771	21.96909	-14.64606	-41.49717	-43.93818	-39.86983	0
389	21.96909	-96.01306	-117.98215	36.61515	68.34828	-105.7771	-10.57771	26.85111	-14.64606	-41.49717	-41.49717	-37.42882	0
390	19.52808	-103.33609	-122.86417	41.49717	70.78929	-113.10013	-13.01872	29.29212	-14.64606	-41.49717	-41.49717	-37.42882	0
391	17.08707	-105.7771	-122.86417	43.93818	68.34828	-113.10013	-13.01872	29.29212	-17.08707	-41.49717	-39.05616	-37.42882	0
392	-5.69569	-122.86417	-117.98215	63.46626	56.14323	-120.42316	-15.45973	26.85111	-19.52808	-46.37919	-41.49717	-37.42882	0
393	-10.57771	-130.1872	-120.42316	68.34828	53.70222	-125.30518	-20.34175	19.52808	-21.96909	-51.26121	-41.49717	-39.86983	0
394	-10.57771	-130.1872	-120.42316	68.34828	53.70222	-125.30518	-20.34175	14.64606	-21.96909	-51.26121	-39.05616	-34.98781	0
395	-3.25468	-122.86417	-120.42316	61.02525	58.58424	-122.86417	-20.34175	7.32303	-24.4101	-53.70222	-39.05616	-32.5468	0
396	7.32303	-113.10013	-120.42316	51.26121	63.46626	-115.54114	-22.78276	2.44101	-26.85111	-56.14323	-41.49717	-34.98781	0
397	14.64606	-103.33609	-117.98215	43.93818	65.90727	-110.65912	-20.34175	4.88202	-26.85111	-56.14323	-39.05616	-32.5468	0
398	17.08707	-98.45407	-115.54114	39.05616	65.90727	-105.7771	-20.34175	7.32303	-26.85111	-58.58424	-39.05616	-34.98781	0
399	34.17414	-88.69003	-122.86417	26.85111	78.11232	-105.7771	-20.34175	7.32303	-24.4101	-58.58424	-39.05616	-34.98781	0
400	46.37919	-83.80801	-130.1872	17.08707	87.87636	-105.7771	-20.34175	9.76404	-24.4101	-58.58424	-39.05616	-34.98781	0
401	41.49717	-83.80801	-125.30518	19.52808	82.99434	-103.33609	-20.34175	12.20505	-19.52808	-56.14323	-36.61515	-32.5468	0
402	29.29212	-88.69003	-117.98215	29.29212	73.2303	-103.33609	-20.34175	12.20505	-19.52808	-56.14323	-34.17414	-32.5468	0
403	17.08707	-96.01306	-113.10013	39.05616	63.46626	-103.33609	-20.34175	9.76404	-19.52808	-53.70222	-34.17414	-30.10579	0
404	24.4101	-93.57205	-117.98215	34.17414	70.78929	-105.7771	-22.78276	4.88202	-19.52808	-53.70222	-31.73313	-27.66478	0
405	21.96909	-93.57205	-115.54114	34.17414	68.34828	-103.33609	-25.22377	-2.44101	-24.4101	-56.14323	-31.73313	-25.22377	0
406	14.64606	-100.89508	-115.54114	41.49717	63.46626	-108.21811	-30.10579	-10.57771	-32.5468	-63.46626	-39.05616	-30.10579	0
407	9.76404	-103.33609	-113.10013	46.37919	61.02525	-108.21811	-30.10579	-10.57771	-34.98781	-63.46626	-39.05616	-30.10579	0
408	14.64606	-100.89508	-115.54114	41.49717	63.46626	-108.21811	-30.10579	-7.32303	-37.42882	-65.90727	-41.49717	-32.5468	0
409	24.4101	-98.45407	-122.86417	36.61515	73.2303	-110.65912	-32.5468	-7.32303	-39.86983	-68.34828	-41.49717	-32.5468	0
410	19.52808	-100.89508	-120.42316	39.05616	68.34828	-110.65912	-30.10579	-4.88202	-34.98781	-65.90727	-41.49717	-32.5468	0
411	7.32303	-108.21811	-115.54114	48.8202	61.02525	-110.65912	-30.10579	-2.44101	-34.98781	-63.46626	-39.05616	-30.10579	0
412	-3.25468	-110.65912	-108.21811	56.14323	51.26121	-110.65912	-27.66478	0	-30.10579	-61.02525	-36.61515	-25.22377	0
413	-3.25468	-108.21811	-105.7771	53.70222	51.26121	-108.21811	-27.66478	-2.44101	-30.10579	-61.02525	-34.17414	-25.22377	0
414	-0.81367	-113.10013	-113.10013	56.14323	56.14323	-113.10013	-32.5468	-10.57771	-32.5468	-63.46626	-36.61515	-27.66478	0
415	-0.81367	-113.10013	-113.10013	56.14323	56.14323	-113.10013	-32.5468	-17.90074	-34.98781	-65.90727	-39.05616	-27.66478	0
416	9.76404	-108.21811	-117.98215	48.8202	63.46626	-113.10013	-37.42882	-22.78276	-39.86983	-70.78929	-43.93818	-32.5468	0
417	17.08707	-108.21811	-125.30518	43.93818	70.78929	-115.54114	-42.31084	-27.66478	-47.19286	-75.67131	-51.26121	-37.42882	0
418	21.96909	-108.21811	-130.1872	41.49717	75.67131	-117.98215	-42.31084	-27.66478	-49.63387	-78.11232	-56.14323	-42.31084	0
419	12.20505	-117.98215	-130.1872	51.26121	70.78929	-122.86417	-42.31084	-25.22377	-49.63387	-78.11232	-56.14323	-44.75185	0
420	14.64606	-113.10013	-127.74619	48.8202	70.78929	-120.42316	-37.42882	-17.90074	-42.31084	-73.2303	-51.26121	-39.86983	0
421	19.52808	-108.21811	-127.74619	43.93818	73.2303	-117.98215	-32.5468	-13.01872	-37.42882	-70.78929	-46.37919	-37.42882	0
422	4.88202	-115.54114	-120.42316	53.70222	61.02525	-117.98215	-30.10579	-10.57771	-34.98781	-68.34828	-46.37919	-34.98781	0
423	-5.69569	-122.86417	-117.98215	63.46626	56.14323	-120.42316	-30.10579	-10.57771	-34.98781	-68.34828	-46.37919	-34.98781	0
424	-0.81367	-117.98215	-117.98215	58.58424	58.58424	-117.98215	-25.22377	-13.01872	-32.5468	-65.90727	-41.49717	-30.10579	0
425	9.76404	-103.33609	-113.10013	46.37919	61.02525	-108.21811	-20.34175	-15.45973	-30.10579	-61.02525	-36.61515	-22.78276	0
426	12.20505	-96.01306	-108.21811	41.49717	58.58424	-100.89508	-17.90074	-15.45973	-30.10579	-61.02525	-36.61515	-22.78276	0
427	-0.81367	-100.89508	-100.89508	48.8202	48.8202	-100.89508	-17.90074	-15.45973	-30.10579	-61.02525	-39.05616	-22.78276	0
428	2.44101	-93.57205	-96.01306	43.93818	48.8202	-93.57205	-17.90074	-13.01872	-30.10579	-61.02525	-39.05616	-22.78276	0
429	17.08707	-86.24902	-103.33609	34.17414	58.58424	-93.57205	-20.34175	-13.01872	-30.10579	-61.02525	-39.05616	-22.78276	0
430	21.96909	-86.24902	-108.21811	31.73313	63.46626	-96.01306	-20.34175	-13.01872	-32.5468	-63.46626	-41.49717	-22.78276	0
431	19.52808	-91.13104	-110.65912	34.17414	63.46626	-100.89508	-25.22377	-15.45973	-34.98781	-65.90727	-43.93818	-27.66478	0
432	12.20505	-103.33609	-115.54114	43.93818	63.46626	-108.21811	-32.5468	-22.78276	-42.31084	-70.78929	-51.26121	-32.5468	0
433	2.44101	-115.54114	-117.98215	56.14323	58.58424	-115.54114	-37.42882	-30.10579	-47.19286	-75.67131	-56.14323	-37.42882	0
434	-0.81367	-127.74619	-127.74619	63.46626	63.46626	-127.74619	-44.75185	-42.31084	-54.51589	-82.99434	-58.58424	-42.31084	0
435	-3.25468	-132.62821	-130.1872	65.90727	63.46626	-132.62821	-44.75185	-49.63387	-56.9569	-85.43535	-61.02525	-42.31084	0
436	-5.69569	-125.30518	-120.42316	63.46626	56.14323	-122.86417	-39.86983	-44.75185	-54.51589	-82.99434	-56.14323	-37.42882	0
437	-0.81367	-120.42316	-120.42316	58.58424	58.58424	-120.42316	-39.86983	-42.31084	-54.51589	-80.55333	-56.14323	-34.98781	0
438	17.08707	-105.7771	-122.86417	43.93818	68.34828	-113.10013	-34.98781	-34.98781	-49.63387	-78.11232	-53.70222	-34.98781	0
439	26.85111	-98.45407	-125.30518	34.17414	75.67131	-110.65912	-32.5468	-30.10579	-47.19286	-75.67131	-48.8202	-32.5468	0
440	39.05616	-86.24902	-125.30518	21.96909	80.55333	-105.7771	-25.22377	-22.78276	-37.42882	-68.34828	-41.49717	-25.22377	0
441	43.93818	-74.04397	-117.98215	14.64606	80.55333	-96.01306	-17.90074	-15.45973	-30.10579	-61.02525	-31.73313	-19.52808	0
442	43.93818	-76.48498	-120.42316	14.64606	80.55333	-98.45407	-22.78276	-20.34175	-32.5468	-63.46626	-34.17414	-22.78276	0
443	36.61515	-86.24902	-122.86417	24.4101	78.11232	-103.33609	-22.78276	-25.22377	-32.5468	-68.34828	-34.17414	-22.78276	0
444	19.52808	-96.01306	-115.54114	36.61515	65.90727	-105.7771	-25.22377	-30.10579	-34.98781	-68.34828	-34.17414	-22.78276	0
445	21.96909	-91.13104	-113.10013	34.17414	65.90727	-100.89508	-25.22377	-37.42882	-37.42882	-68.34828	-34.17414	-19.52808	0
446	34.17414	-83.80801	-117.98215	24.4101	75.67131	-100.89508	-27.66478	-42.31084	-39.86983	-75.67131	-36.61515	-22.78276	0
447	31.73313	-91.13104	-122.86417	29.29212	75.67131	-105.7771	-34.98781	-42.31084	-47.19286	-80.55333	-43.93818	-25.22377	0
448	24.4101	-91.13104	-115.54114	31.73313	68.34828	-103.33609	-34.98781	-42.31084	-49.63387	-82.99434	-46.37919	-30.10579	0
449	19.52808	-93.57205	-113.10013	36.61515	65.90727	-103.33609	-34.98781	-39.86983	-47.19286	-80.55333	-46.37919	-30.10579	0
450	29.29212	-93.57205	-122.86417	31.73313	75.67131	-108.21811	-34.98781	-39.86983	-47.19286	-80.55333	-48.8202	-32.5468	0
451	29.29212	-100.89508	-130.1872	34.17414	78.11232	-115.54114	-37.42882	-39.86983	-47.19286	-82.99434	-51.26121	-34.98781	0
452	14.64606	-115.54114	-130.1872	48.8202	70.78929	-122.86417	-42.31084	-44.75185	-52.07488	-87.87636	-58.58424	-42.31084	0
453	7.32303	-122.86417	-130.1872	56.14323	68.34828	-125.30518	-42.31084	-47.19286	-52.07488	-87.87636	-58.58424	-44.75185	0
454	2.44101	-127.74619	-130.1872	61.02525	65.90727	-127.74619	-42.31084	-54.51589	-54.51589	-87.87636	-58.58424	-44.75185	0
455	14.64606	-122.86417	-137.51023	53.70222	75.67131	-130.1872	-39.86983	-59.39791	-56.9569	-90.31737	-58.58424	-42.31084	0
456	19.52808	-115.54114	-135.06922	46.37919	75.67131	-125.30518	-37.42882	-61.83892	-59.39791	-90.31737	-56.14323	-42.31084	0
457	26.85111	-113.10013	-139.95124	41.49717	82.99434	-125.30518	-37.42882	-61.83892	-64.27993	-92.75838	-61.02525	-44.75185	0
458	29.29212	-108.21811	-137.51023	39.05616	82.99434	-122.86417	-32.5468	-56.9569	-61.83892	-90.31737	-58.58424	-44.75185	0
459	29.29212	-105.7771	-135.06922	36.61515	80.55333	-120.42316	-27.66478	-52.07488	-56.9569	-87.87636	-56.14323	-39.86983	0
460	29.29212	-103.33609	-132.62821	36.61515	80.55333	-117.98215	-22.78276	-44.75185	-49.63387	-82.99434	-51.26121	-37.42882	0
461	26.85111	-105.7771	-132.62821	39.05616	78.11232	-117.98215	-22.78276	-39.86983	-49.63387	-82.99434	-51.26121	-37.42882	0
462	21.96909	-108.21811	-130.1872	41.49717	75.67131	-117.98215	-25.22377	-39.86983	-49.63387	-85.43535	-53.70222	-39.86983	0
463	14.64606	-108.21811	-122.86417	46.37919	68.34828	-115.54114	-22.78276	-39.86983	-44.75185	-80.55333	-48.8202	-34.98781	0
464	14.64606	-100.89508	-115.54114	41.49717	63.46626	-108.21811	-20.34175	-39.86983	-39.86983	-75.67131	-43.93818	-27.66478	0
465	19.52808	-98.45407	-117.98215	39.05616	68.34828	-108.21811	-20.34175	-47.19286	-42.31084	-78.11232	-43.93818	-25.22377	0
466	21.96909	-96.01306	-117.98215	36.61515	68.34828	-105.7771	-25.22377	-49.63387	-47.19286	-80.55333	-48.8202	-27.66478	0
467	24.4101	-96.01306	-120.42316	34.17414	70.78929	-108.21811	-25.22377	-49.63387	-49.63387	-82.99434	-51.26121	-27.66478	0
468	21.96909	-96.01306	-117.98215	36.61515	68.34828	-105.7771	-25.22377	-47.19286	-49.63387	-82.99434	-51.26121	-30.10579	0
469	24.4101	-98.45407	-122.86417	36.61515	73.2303	-110.65912	-22.78276	-44.75185	-49.63387	-82.99434	-51.26121	-30.10579	0
470	17.08707	-113.10013	-130.1872	46.37919	73.2303	-120.42316	-27.66478	-47.19286	-52.07488	-87.87636	-56.14323	-37.42882	0
471	12.20505	-125.30518	-137.51023	56.14323	73.2303	-130.1872	-30.10579	-47.19286	-52.07488	-92.75838	-61.02525	-39.86983	0
472	12.20505	-125.30518	-137.51023	56.14323	73.2303	-130.1872	-30.10579	-49.63387	-52.07488	-92.75838	-61.02525	-42.31084	0
473	9.76404	-127.74619	-137.51023	58.58424	73.2303	-132.62821	-30.10579	-52.07488	-52.07488	-92.75838	-63.46626	-42.31084	0
474	-0.81367	-139.95124	-139.95124	68.34828	68.34828	-139.95124	-32.5468	-61.83892	-56.9569	-97.6404	-65.90727	-44.75185	0
475	-10.57771	-149.71528	-139.95124	78.11232	63.46626	-144.83326	-37.42882	-71.60296	-64.27993	-104.96343	-70.78929	-49.63387	0
476	-5.69569	-142.39225	-137.51023	73.2303	65.90727	-139.95124	-37.42882	-74.04397	-66.72094	-107.40444	-70.78929	-49.63387	0
477	-0.81367	-137.51023	-137.51023	68.34828	68.34828	-137.51023	-37.42882	-74.04397	-69.16195	-109.84545	-75.67131	-52.07488	0
478	2.44101	-127.74619	-130.1872	61.02525	65.90727	-127.74619	-32.5468	-66.72094	-66.72094	-107.40444	-73.2303	-52.07488	0
479	4.88202	-125.30518	-130.1872	58.58424	65.90727	-127.74619	-32.5468	-64.27993	-66.72094	-107.40444	-73.2303	-52.07488	0
480	26.85111	-117.98215	-144.83326	43.93818	85.43535	-130.1872	-34.98781	-64.27993	-66.72094	-109.84545	-73.2303	-52.07488	0
481	41.49717	-110.65912	-152.15629	34.17414	95.19939	-130.1872	-34.98781	-61.83892	-64.27993	-109.84545	-70.78929	-52.07488	0
482	31.73313	-108.21811	-139.95124	36.61515	85.43535	-122.86417	-30.10579	-59.39791	-59.39791	-104.96343	-65.90727	-47.19286	0
483	17.08707	-113.10013	-130.1872	46.37919	73.2303	-120.42316	-25.22377	-56.9569	-52.07488	-97.6404	-61.02525	-39.86983	0
484	7.32303	-105.7771	-113.10013	48.8202	58.58424	-108.21811	-15.45973	-54.51589	-44.75185	-87.87636	-48.8202	-27.66478	0
485	17.08707	-105.7771	-122.86417	43.93818	68.34828	-113.10013	-20.34175	-61.83892	-49.63387	-90.31737	-53.70222	-32.5468	0
486	14.64606	-110.65912	-125.30518	46.37919	68.34828	-117.98215	-20.34175	-66.72094	-54.51589	-95.19939	-58.58424	-34.98781	0
487	9.76404	-100.89508	-110.65912	43.93818	58.58424	-105.7771	-13.01872	-59.39791	-47.19286	-85.43535	-51.26121	-27.66478	0
488	14.64606	-91.13104	-105.7771	36.61515	58.58424	-98.45407	-5.69569	-52.07488	-44.75185	-80.55333	-51.26121	-27.66478	0
489	26.85111	-88.69003	-115.54114	29.29212	70.78929	-100.89508	-5.69569	-49.63387	-44.75185	-80.55333	-51.26121	-30.10579	0
490	31.73313	-93.57205	-125.30518	29.29212	78.11232	-108.21811	-8.1367	-54.51589	-47.19286	-85.43535	-56.14323	-34.98781	0
491	26.85111	-103.33609	-130.1872	36.61515	78.11232	-115.54114	-13.01872	-56.9569	-52.07488	-87.87636	-61.02525	-39.86983	0
492	12.20505	-98.45407	-110.65912	41.49717	61.02525	-103.33609	-5.69569	-49.63387	-42.31084	-78.11232	-51.26121	-30.10579	0
493	12.20505	-86.24902	-98.45407	36.61515	53.70222	-91.13104	-0.81367	-44.75185	-34.98781	-70.78929	-43.93818	-22.78276	0
494	19.52808	-86.24902	-105.7771	31.73313	61.02525	-96.01306	-0.81367	-52.07488	-34.98781	-70.78929	-43.93818	-22.78276	0
495	12.20505	-91.13104	-103.33609	39.05616	56.14323	-96.01306	-3.25468	-61.83892	-42.31084	-75.67131	-48.8202	-25.22377	0
496	-3.25468	-98.45407	-96.01306	48.8202	46.37919	-98.45407	-3.25468	-64.27993	-44.75185	-78.11232	-51.26121	-27.66478	0
497	-5.69569	-96.01306	-91.13104	48.8202	41.49717	-93.57205	-0.81367	-61.83892	-44.75185	-78.11232	-51.26121	-30.10579	0
498	-0.81367	-86.24902	-86.24902	41.49717	41.49717	-86.24902	2.44101	-54.51589	-42.31084	-75.67131	-48.8202	-30.10579	0
499	7.32303	-78.92599	-86.24902	34.17414	46.37919	-81.367	7.32303	-47.19286	-39.86983	-70.78929	-46.37919	-27.66478	0
500	4.88202	-81.367	-86.24902	36.61515	43.93818	-83.80801	9.76404	-42.31084	-37.42882	-70.78929	-43.93818	-27.66478	0
501	4.88202	-78.92599	-83.80801	36.61515	43.93818	-81.367	12.20505	-37.42882	-32.5468	-65.90727	-41.49717	-25.22377	0
502	26.85111	-61.83892	-88.69003	17.08707	56.14323	-74.04397	14.64606	-32.5468	-30.10579	-58.58424	-36.61515	-19.52808	0
503	46.37919	-44.75185	-91.13104	-0.81367	68.34828	-66.72094	14.64606	-30.10579	-24.4101	-53.70222	-29.29212	-14.64606	0
504	53.70222	-37.42882	-91.13104	-8.1367	70.78929	-64.27993	9.76404	-32.5468	-24.4101	-48.8202	-29.29212	-12.20505	0
505	39.05616	-52.07488	-91.13104	6.50936	63.46626	-71.60296	-0.81367	-47.19286	-30.10579	-56.14323	-31.73313	-17.08707	0
506	24.4101	-54.51589	-78.92599	14.64606	51.26121	-66.72094	-5.69569	-52.07488	-32.5468	-58.58424	-34.17414	-19.52808	0
507	29.29212	-42.31084	-71.60296	6.50936	48.8202	-56.9569	-8.1367	-49.63387	-32.5468	-53.70222	-31.73313	-14.64606	0
508	31.73313	-32.5468	-64.27993	-0.81367	46.37919	-47.19286	-13.01872	-49.63387	-32.5468	-53.70222	-31.73313	-14.64606	0
509	24.4101	-32.5468	-56.9569	4.06835	39.05616	-44.75185	-17.90074	-49.63387	-34.98781	-53.70222	-34.17414	-14.64606	0
510	19.52808	-32.5468	-52.07488	6.50936	34.17414	-42.31084	-22.78276	-49.63387	-34.98781	-53.70222	-29.29212	-12.20505	0
511	29.29212	-20.34175	-49.63387	-5.69569	39.05616	-34.98781	-27.66478	-47.19286	-30.10579	-48.8202	-26.03744	-7.32303	0
512	61.02525	7.32303	-54.51589	-34.98781	58.58424	-22.78276	-30.10579	-44.75185	-26.85111	-43.93818	-18.71441	0	0
513	73.2303	14.64606	-59.39791	-44.75185	65.90727	-22.78276	-37.42882	-52.07488	-30.10579	-43.93818	-18.71441	0	0
514	68.34828	17.08707	-52.07488	-42.31084	61.02525	-17.08707	-42.31084	-56.9569	-30.10579	-41.49717	-13.83239	4.88202	0
515	73.2303	26.85111	-47.19286	-49.63387	61.02525	-9.76404	-49.63387	-66.72094	-30.10579	-39.05616	-11.39138	7.32303	0
516	92.75838	43.93818	-49.63387	-69.16195	70.78929	-2.44101	-56.9569	-69.16195	-30.10579	-39.05616	-11.39138	9.76404	0
517	102.52242	48.8202	-54.51589	-76.48498	78.11232	-2.44101	-64.27993	-71.60296	-32.5468	-39.05616	-11.39138	9.76404	0
518	85.43535	39.05616	-47.19286	-61.83892	65.90727	-2.44101	-69.16195	-71.60296	-34.98781	-41.49717	-11.39138	7.32303	0
519	65.90727	24.4101	-42.31084	-44.75185	53.70222	-7.32303	-74.04397	-71.60296	-37.42882	-41.49717	-13.83239	7.32303	0
520	63.46626	21.96909	-42.31084	-42.31084	53.70222	-9.76404	-71.60296	-64.27993	-30.10579	-34.17414	-8.95037	9.76404	0
521	61.02525	19.52808	-42.31084	-39.86983	51.26121	-9.76404	-66.72094	-56.9569	-26.85111	-31.73313	-4.06835	14.64606	0
522	63.46626	9.76404	-54.51589	-37.42882	58.58424	-22.78276	-69.16195	-56.9569	-26.85111	-31.73313	-4.06835	14.64606	0
523	61.02525	7.32303	-54.51589	-34.98781	58.58424	-22.78276	-66.72094	-54.51589	-19.52808	-28.47845	0.81367	19.52808	0
524	73.2303	17.08707	-56.9569	-44.75185	65.90727	-20.34175	-56.9569	-49.63387	-9.76404	-18.71441	10.57771	29.29212	0
525	90.31737	34.17414	-56.9569	-61.83892	73.2303	-9.76404	-49.63387	-44.75185	-2.44101	-11.39138	17.90074	41.49717	0
526	97.6404	34.17414	-64.27993	-66.72094	80.55333	-14.64606	-47.19286	-42.31084	0	-8.95037	20.34175	41.49717	0
527	92.75838	26.85111	-66.72094	-59.39791	80.55333	-20.34175	-42.31084	-37.42882	0	-8.95037	20.34175	41.49717	0
528	78.11232	17.08707	-61.83892	-47.19286	70.78929	-22.78276	-32.5468	-25.22377	4.88202	-6.50936	20.34175	39.05616	0
529	68.34828	4.88202	-64.27993	-37.42882	65.90727	-30.10579	-22.78276	-17.90074	7.32303	-4.06835	17.90074	36.61515	0
530	51.26121	-20.34175	-71.60296	-15.45973	61.02525	-44.75185	-20.34175	-15.45973	2.44101	-8.95037	10.57771	26.85111	0
531	36.61515	-49.63387	-86.24902	6.50936	61.02525	-66.72094	-22.78276	-22.78276	-7.32303	-21.15542	-1.62734	14.64606	0
532	26.85111	-66.72094	-93.57205	19.52808	58.58424	-78.92599	-22.78276	-27.66478	-14.64606	-28.47845	-11.39138	4.88202	0
533	29.29212	-78.92599	-108.21811	24.4101	68.34828	-93.57205	-25.22377	-37.42882	-24.4101	-36.61515	-21.15542	-4.88202	0
534	21.96909	-96.01306	-117.98215	36.61515	68.34828	-105.7771	-30.10579	-52.07488	-34.98781	-48.8202	-29.29212	-14.64606	0
535	14.64606	-105.7771	-120.42316	43.93818	65.90727	-113.10013	-32.5468	-66.72094	-47.19286	-58.58424	-39.05616	-22.78276	0
536	-0.81367	-115.54114	-115.54114	56.14323	56.14323	-115.54114	-37.42882	-76.48498	-56.9569	-68.34828	-48.8202	-27.66478	0
537	-5.69569	-120.42316	-115.54114	61.02525	53.70222	-117.98215	-37.42882	-78.92599	-64.27993	-75.67131	-56.14323	-34.98781	0
538	-10.57771	-122.86417	-113.10013	65.90727	51.26121	-117.98215	-37.42882	-78.92599	-71.60296	-80.55333	-61.02525	-42.31084	0
539	-15.45973	-130.1872	-115.54114	70.78929	48.8202	-122.86417	-39.86983	-81.367	-76.48498	-85.43535	-65.90727	-49.63387	0
540	-17.90074	-135.06922	-117.98215	75.67131	48.8202	-127.74619	-39.86983	-81.367	-76.48498	-85.43535	-68.34828	-52.07488	0
541	-8.1367	-127.74619	-120.42316	65.90727	56.14323	-125.30518	-39.86983	-76.48498	-74.04397	-85.43535	-68.34828	-52.07488	0
542	4.88202	-117.98215	-122.86417	56.14323	63.46626	-120.42316	-37.42882	-71.60296	-71.60296	-82.99434	-68.34828	-52.07488	0
543	21.96909	-103.33609	-125.30518	39.05616	73.2303	-113.10013	-32.5468	-69.16195	-66.72094	-80.55333	-63.46626	-47.19286	0
544	29.29212	-100.89508	-130.1872	34.17414	78.11232	-115.54114	-32.5468	-74.04397	-66.72094	-78.11232	-63.46626	-47.19286	0
545	21.96909	-100.89508	-122.86417	39.05616	70.78929	-110.65912	-30.10579	-76.48498	-64.27993	-78.11232	-63.46626	-44.75185	0
546	14.64606	-98.45407	-113.10013	41.49717	63.46626	-105.7771	-27.66478	-76.48498	-64.27993	-78.11232	-63.46626	-42.31084	0
547	14.64606	-98.45407	-113.10013	41.49717	63.46626	-105.7771	-27.66478	-74.04397	-64.27993	-75.67131	-63.46626	-44.75185	0
548	14.64606	-100.89508	-115.54114	41.49717	63.46626	-108.21811	-27.66478	-69.16195	-66.72094	-75.67131	-63.46626	-47.19286	0
549	4.88202	-110.65912	-115.54114	51.26121	58.58424	-113.10013	-27.66478	-69.16195	-69.16195	-75.67131	-65.90727	-49.63387	0
550	4.88202	-108.21811	-113.10013	51.26121	58.58424	-110.65912	-25.22377	-64.27993	-66.72094	-70.78929	-63.46626	-47.19286	0
551	2.44101	-108.21811	-110.65912	51.26121	56.14323	-108.21811	-22.78276	-56.9569	-61.83892	-65.90727	-58.58424	-44.75185	0
552	2.44101	-108.21811	-110.65912	51.26121	56.14323	-108.21811	-25.22377	-59.39791	-64.27993	-65.90727	-58.58424	-47.19286	0
553	2.44101	-105.7771	-108.21811	51.26121	53.70222	-105.7771	-22.78276	-61.83892	-61.83892	-65.90727	-58.58424	-44.75185	0
554	-8.1367	-110.65912	-103.33609	58.58424	46.37919	-108.21811	-22.78276	-66.72094	-61.83892	-63.46626	-53.70222	-42.31084	0
555	-17.90074	-113.10013	-96.01306	63.46626	39.05616	-105.7771	-22.78276	-74.04397	-61.83892	-63.46626	-53.70222	-39.86983	0
556	-22.78276	-115.54114	-93.57205	68.34828	34.17414	-105.7771	-25.22377	-76.48498	-66.72094	-68.34828	-58.58424	-42.31084	0
557	-25.22377	-117.98215	-93.57205	70.78929	34.17414	-105.7771	-25.22377	-76.48498	-69.16195	-68.34828	-61.02525	-47.19286	0
558	-22.78276	-115.54114	-93.57205	68.34828	34.17414	-105.7771	-25.22377	-71.60296	-66.72094	-65.90727	-61.02525	-47.19286	0
559	-8.1367	-105.7771	-98.45407	56.14323	43.93818	-103.33609	-17.90074	-59.39791	-56.9569	-58.58424	-53.70222	-42.31084	0
560	-0.81367	-103.33609	-103.33609	51.26121	51.26121	-103.33609	-17.90074	-54.51589	-54.51589	-53.70222	-51.26121	-39.86983	0
561	9.76404	-96.01306	-105.7771	41.49717	56.14323	-100.89508	-13.01872	-47.19286	-47.19286	-48.8202	-48.8202	-37.42882	0
562	14.64606	-96.01306	-110.65912	39.05616	61.02525	-103.33609	-13.01872	-44.75185	-47.19286	-46.37919	-48.8202	-37.42882	0
563	14.64606	-96.01306	-110.65912	39.05616	61.02525	-103.33609	-13.01872	-47.19286	-44.75185	-46.37919	-46.37919	-37.42882	0
564	19.52808	-91.13104	-110.65912	34.17414	63.46626	-100.89508	-10.57771	-49.63387	-42.31084	-43.93818	-46.37919	-32.5468	0
565	14.64606	-96.01306	-110.65912	39.05616	61.02525	-103.33609	-10.57771	-56.9569	-52.07488	-51.26121	-51.26121	-37.42882	0
566	9.76404	-108.21811	-117.98215	48.8202	63.46626	-113.10013	-13.01872	-64.27993	-61.83892	-63.46626	-63.46626	-47.19286	0
567	2.44101	-127.74619	-130.1872	61.02525	65.90727	-127.74619	-13.01872	-64.27993	-71.60296	-75.67131	-78.11232	-61.83892	0
568	2.44101	-149.71528	-152.15629	73.2303	75.67131	-149.71528	-10.57771	-59.39791	-81.367	-92.75838	-95.19939	-78.92599	0
569	-0.81367	-171.68437	-171.68437	85.43535	85.43535	-171.68437	-0.81367	-47.19286	-83.80801	-102.52242	-109.84545	-93.57205	0
570	-5.69569	-196.09447	-191.21245	100.08141	92.75838	-193.65346	17.08707	-25.22377	-83.80801	-107.40444	-124.49151	-108.21811	0
571	-0.81367	-210.74053	-210.74053	104.96343	104.96343	-210.74053	43.93818	12.20505	-69.16195	-107.40444	-134.25555	-122.86417	0
572	-0.81367	-218.06356	-218.06356	107.40444	107.40444	-218.06356	80.55333	70.78929	-37.42882	-90.31737	-129.37353	-122.86417	0
573	12.20505	-213.18154	-225.38659	100.08141	117.16848	-218.06356	117.16848	139.13757	9.76404	-58.58424	-112.28646	-113.10013	0
574	26.85111	-198.53548	-225.38659	85.43535	124.49151	-210.74053	161.10666	227.01393	75.67131	-8.95037	-75.67131	-88.69003	0
575	41.49717	-166.80235	-208.29952	61.02525	124.49151	-186.33043	214.80888	339.30039	173.31171	69.16195	-18.71441	-44.75185	0
576	73.2303	-110.65912	-183.88942	17.08707	126.93252	-147.27427	275.83413	488.202	305.12625	181.44841	71.60296	24.4101	0
577	112.28646	-37.42882	-149.71528	-37.42882	129.37353	-93.57205	331.97736	646.86765	456.46887	320.58598	186.33043	119.60949	0
578	151.34262	46.37919	-105.7771	-98.45407	129.37353	-30.10579	378.35655	803.09229	627.33957	481.69264	325.468	231.89595	0
579	205.04484	148.90161	-56.9569	-176.56639	131.81454	46.37919	417.41271	954.43491	807.97431	659.88637	484.13365	363.71049	0
580	273.39312	266.07009	-7.32303	-269.32477	141.57858	129.37353	439.3818	1091.13147	998.37309	855.16717	662.32738	519.93513	0
581	346.62342	397.88463	51.26121	-371.84719	148.90161	224.57292	439.3818	1200.97692	1181.44884	1055.32999	850.28515	688.36482	0
582	407.64867	532.14018	124.49151	-469.48759	141.57858	329.53635	414.9717	1254.67914	1325.46843	1231.08271	1028.47888	849.47148	0
583	444.26382	663.95472	219.6909	-554.92294	112.28646	441.82281	375.91554	1254.67914	1430.43186	1372.66129	1182.26251	993.49107	0
584	471.11493	788.44623	317.3313	-630.59425	78.11232	554.10927	314.89029	1191.21288	1474.37004	1462.97866	1299.43099	1115.54157	0
585	485.76099	895.85067	410.08968	-691.6195	39.05616	654.19068	239.21898	1061.83935	1442.63691	1482.50674	1362.89725	1196.0949	0
586	466.23291	973.96299	507.73008	-720.91162	-20.34175	742.06704	158.66565	886.08663	1340.11449	1433.68654	1365.33826	1230.26904	0
587	412.53069	1020.34218	607.81149	-716.0296	-98.45407	815.29734	85.43535	668.83674	1169.24379	1316.51806	1301.872	1208.29995	0
588	344.18241	1010.57814	666.39573	-676.97344	-161.92033	839.70744	17.08707	410.08968	925.14279	1111.47322	1155.4114	1105.77753	0
589	273.39312	951.9939	678.60078	-613.50718	-203.4175	815.29734	-47.19286	124.49151	627.33957	850.28515	947.92555	949.55289	0
590	195.2808	861.67653	666.39573	-528.07183	-235.15063	764.03613	-103.33609	-152.15629	317.3313	576.89203	718.47061	768.91815	0
591	124.49151	761.59512	637.10361	-442.63648	-257.11972	700.56987	-137.51023	-384.05224	41.49717	320.58598	493.89769	580.96038	0
592	70.78929	661.51371	590.72442	-366.96517	-259.56073	627.33957	-147.27427	-559.80496	-183.88942	100.89508	291.29386	405.20766	0
593	17.08707	544.34523	527.25816	-281.52982	-254.67871	537.0222	-152.15629	-694.06051	-369.40618	-87.87636	105.7771	236.77797	0
594	-27.66478	436.94079	463.7919	-205.85851	-244.91467	449.14584	-157.03831	-786.81889	-506.10274	-234.33696	-39.05616	100.08141	0
595	-56.9569	361.26948	417.41271	-152.15629	-237.59164	388.12059	-159.47932	-823.43404	-576.89203	-317.3313	-129.37353	12.20505	0
596	-74.04397	295.36221	368.59251	-110.65912	-220.50457	331.97736	-159.47932	-818.55202	-603.74314	-371.03352	-192.83979	-56.9569	0
597	-83.80801	236.77797	319.77231	-76.48498	-200.97649	278.27514	-159.47932	-784.37788	-606.18415	-400.32564	-236.77797	-108.21811	0
598	-115.54114	173.31171	288.03918	-30.10579	-200.97649	229.45494	-166.80235	-747.76273	-596.42011	-414.9717	-270.95211	-154.5973	0
599	-132.62821	131.81454	263.62908	-0.81367	-198.53548	197.72181	-171.68437	-703.82455	-574.45102	-414.9717	-285.59817	-181.44841	0
600	-132.62821	109.84545	241.65999	8.95037	-186.33043	175.75272	-169.24336	-650.12233	-537.83587	-395.44362	-283.15716	-191.21245	0
601	-130.1872	97.6404	227.01393	14.64606	-179.0074	161.10666	-161.92033	-579.33304	-484.13365	-358.82847	-266.07009	-183.88942	0
602	-127.74619	82.99434	209.92686	21.96909	-169.24336	146.4606	-147.27427	-503.66173	-425.54941	-312.44928	-239.21898	-169.24336	0
603	-115.54114	68.34828	183.07575	21.96909	-149.71528	124.49151	-127.74619	-427.99042	-362.08315	-266.07009	-207.48585	-149.71528	0
604	-93.57205	61.02525	153.78363	14.64606	-122.86417	107.40444	-103.33609	-357.20113	-301.0579	-219.6909	-173.31171	-127.74619	0
605	-74.04397	46.37919	119.60949	12.20505	-96.01306	82.99434	-76.48498	-293.73487	-249.79669	-180.63474	-148.90161	-110.65912	0
606	-56.9569	29.29212	85.43535	12.20505	-71.60296	56.14323	-52.07488	-235.15063	-205.85851	-151.34262	-129.37353	-100.89508	0
607	-44.75185	9.76404	53.70222	17.08707	-49.63387	31.73313	-30.10579	-186.33043	-174.12538	-126.93252	-117.16848	-93.57205	0
608	-39.86983	-12.20505	26.85111	24.4101	-32.5468	7.32303	-13.01872	-152.15629	-152.15629	-114.72747	-109.84545	-96.01306	0
609	-49.63387	-34.98781	14.64606	41.49717	-32.5468	-9.76404	-3.25468	-130.1872	-139.95124	-107.40444	-107.40444	-98.45407	0
610	-66.72094	-56.9569	9.76404	61.02525	-39.86983	-25.22377	2.44101	-115.54114	-130.1872	-100.08141	-107.40444	-98.45407	0
611	-69.16195	-69.16195	0	68.34828	-34.98781	-34.98781	2.44101	-108.21811	-127.74619	-100.08141	-107.40444	-103.33609	0
612	-69.16195	-71.60296	-2.44101	68.34828	-34.98781	-37.42882	4.88202	-103.33609	-125.30518	-97.6404	-107.40444	-105.7771	0
613	-69.16195	-71.60296	-2.44101	68.34828	-34.98781	-37.42882	4.88202	-100.89508	-122.86417	-95.19939	-104.96343	-105.7771	0
614	-66.72094	-69.16195	-2.44101	65.90727	-32.5468	-37.42882	4.88202	-100.89508	-120.42316	-90.31737	-104.96343	-103.33609	0
615	-56.9569	-54.51589	2.44101	53.70222	-30.10579	-27.66478	9.76404	-98.45407	-113.10013	-85.43535	-100.08141	-98.45407	0
616	-42.31084	-34.98781	7.32303	36.61515	-25.22377	-14.64606	17.08707	-91.13104	-108.21811	-80.55333	-95.19939	-93.57205	0
617	-37.42882	-25.22377	12.20505	29.29212	-25.22377	-7.32303	21.96909	-83.80801	-103.33609	-75.67131	-92.75838	-91.13104	0
618	-42.31084	-25.22377	17.08707	31.73313	-30.10579	-4.88202	26.85111	-74.04397	-98.45407	-70.78929	-90.31737	-91.13104	0
619	-49.63387	-30.10579	19.52808	39.05616	-34.98781	-4.88202	31.73313	-66.72094	-93.57205	-68.34828	-90.31737	-91.13104	0
620	-49.63387	-34.98781	14.64606	41.49717	-32.5468	-9.76404	31.73313	-61.83892	-91.13104	-63.46626	-87.87636	-88.69003	0
621	-49.63387	-34.98781	14.64606	41.49717	-32.5468	-9.76404	31.73313	-56.9569	-88.69003	-63.46626	-87.87636	-88.69003	0
622	-61.83892	-47.19286	14.64606	53.70222	-39.86983	-17.08707	29.29212	-56.9569	-88.69003	-63.46626	-90.31737	-93.57205	0
623	-66.72094	-54.51589	12.20505	58.58424	-39.86983	-22.78276	26.85111	-59.39791	-88.69003	-63.46626	-90.31737	-93.57205	0
624	-66.72094	-64.27993	2.44101	63.46626	-34.98781	-32.5468	19.52808	-69.16195	-93.57205	-68.34828	-92.75838	-98.45407	0
625	-66.72094	-66.72094	0	65.90727	-34.98781	-34.98781	17.08707	-78.92599	-98.45407	-73.2303	-97.6404	-100.89508	0
626	-64.27993	-61.83892	2.44101	61.02525	-34.98781	-30.10579	12.20505	-81.367	-103.33609	-75.67131	-100.08141	-103.33609	0
627	-64.27993	-59.39791	4.88202	61.02525	-34.98781	-27.66478	12.20505	-78.92599	-105.7771	-75.67131	-102.52242	-105.7771	0
628	-66.72094	-61.83892	4.88202	63.46626	-37.42882	-30.10579	12.20505	-76.48498	-108.21811	-78.11232	-102.52242	-110.65912	0
629	-61.83892	-54.51589	7.32303	56.14323	-34.98781	-25.22377	14.64606	-69.16195	-103.33609	-73.2303	-100.08141	-108.21811	0
630	-71.60296	-59.39791	12.20505	63.46626	-42.31084	-25.22377	19.52808	-64.27993	-98.45407	-68.34828	-97.6404	-105.7771	0
631	-71.60296	-49.63387	21.96909	58.58424	-47.19286	-14.64606	26.85111	-52.07488	-91.13104	-61.02525	-90.31737	-98.45407	0
632	-66.72094	-42.31084	24.4101	53.70222	-47.19286	-9.76404	34.17414	-47.19286	-86.24902	-56.14323	-82.99434	-93.57205	0
633	-66.72094	-42.31084	24.4101	53.70222	-47.19286	-9.76404	36.61515	-47.19286	-83.80801	-53.70222	-80.55333	-93.57205	0
634	-61.83892	-44.75185	17.08707	51.26121	-39.86983	-14.64606	34.17414	-54.51589	-83.80801	-53.70222	-80.55333	-93.57205	0
635	-61.83892	-44.75185	17.08707	51.26121	-39.86983	-14.64606	34.17414	-59.39791	-86.24902	-58.58424	-80.55333	-93.57205	0
636	-59.39791	-44.75185	14.64606	51.26121	-37.42882	-14.64606	29.29212	-64.27993	-93.57205	-65.90727	-85.43535	-96.01306	0
637	-54.51589	-42.31084	12.20505	46.37919	-34.98781	-14.64606	29.29212	-64.27993	-96.01306	-68.34828	-87.87636	-98.45407	0
638	-59.39791	-44.75185	14.64606	51.26121	-37.42882	-14.64606	26.85111	-61.83892	-98.45407	-70.78929	-90.31737	-103.33609	0
639	-64.27993	-44.75185	19.52808	53.70222	-42.31084	-12.20505	29.29212	-54.51589	-96.01306	-70.78929	-90.31737	-103.33609	0
640	-76.48498	-52.07488	24.4101	63.46626	-52.07488	-14.64606	29.29212	-52.07488	-93.57205	-70.78929	-90.31737	-103.33609	0
641	-86.24902	-54.51589	31.73313	68.34828	-59.39791	-12.20505	26.85111	-52.07488	-93.57205	-70.78929	-92.75838	-105.7771	0
642	-86.24902	-54.51589	31.73313	68.34828	-59.39791	-12.20505	26.85111	-52.07488	-96.01306	-70.78929	-95.19939	-108.21811	0
643	-86.24902	-54.51589	31.73313	68.34828	-59.39791	-12.20505	26.85111	-54.51589	-93.57205	-70.78929	-95.19939	-110.65912	0
644	-86.24902	-52.07488	34.17414	68.34828	-61.83892	-9.76404	26.85111	-56.9569	-93.57205	-68.34828	-95.19939	-110.65912	0
645	-93.57205	-54.51589	39.05616	73.2303	-66.72094	-7.32303	26.85111	-64.27993	-96.01306	-70.78929	-100.08141	-110.65912	0
646	-91.13104	-49.63387	41.49717	68.34828	-66.72094	-4.88202	26.85111	-66.72094	-98.45407	-70.78929	-100.08141	-110.65912	0
647	-81.367	-42.31084	39.05616	61.02525	-61.83892	-2.44101	26.85111	-64.27993	-100.89508	-73.2303	-102.52242	-113.10013	0
648	-74.04397	-39.86983	34.17414	56.14323	-54.51589	-2.44101	24.4101	-64.27993	-103.33609	-75.67131	-107.40444	-117.98215	0
649	-74.04397	-47.19286	26.85111	58.58424	-52.07488	-9.76404	19.52808	-64.27993	-108.21811	-78.11232	-109.84545	-122.86417	0
650	-76.48498	-52.07488	24.4101	63.46626	-52.07488	-14.64606	17.08707	-64.27993	-108.21811	-80.55333	-112.28646	-125.30518	0
651	-78.92599	-54.51589	24.4101	65.90727	-52.07488	-14.64606	14.64606	-64.27993	-108.21811	-80.55333	-112.28646	-127.74619	0
652	-76.48498	-49.63387	26.85111	61.02525	-52.07488	-12.20505	14.64606	-61.83892	-108.21811	-78.11232	-112.28646	-127.74619	0
653	-71.60296	-39.86983	31.73313	53.70222	-52.07488	-4.88202	19.52808	-61.83892	-103.33609	-75.67131	-107.40444	-122.86417	0
654	-64.27993	-25.22377	39.05616	43.93818	-52.07488	7.32303	24.4101	-59.39791	-98.45407	-68.34828	-100.08141	-115.54114	0
655	-56.9569	-12.20505	43.93818	34.17414	-49.63387	14.64606	26.85111	-61.83892	-93.57205	-63.46626	-95.19939	-108.21811	0
656	-56.9569	0	56.14323	26.85111	-56.9569	26.85111	31.73313	-56.9569	-88.69003	-61.02525	-87.87636	-100.89508	0
657	-54.51589	7.32303	61.02525	21.96909	-56.9569	34.17414	34.17414	-54.51589	-88.69003	-58.58424	-87.87636	-98.45407	0
658	-44.75185	7.32303	51.26121	17.08707	-47.19286	29.29212	31.73313	-52.07488	-91.13104	-61.02525	-90.31737	-103.33609	-1250	T-0
659	-49.63387	-2.44101	46.37919	24.4101	-47.19286	21.96909	29.29212	-52.07488	-93.57205	-63.46626	-92.75838	-108.21811	0
660	-64.27993	-14.64606	48.8202	39.05616	-56.9569	17.08707	26.85111	-49.63387	-93.57205	-65.90727	-92.75838	-108.21811	0
661	-83.80801	-20.34175	63.46626	51.26121	-74.04397	21.96909	31.73313	-44.75185	-88.69003	-61.02525	-90.31737	-108.21811	0
662	-91.13104	-20.34175	70.78929	53.70222	-81.367	24.4101	31.73313	-44.75185	-86.24902	-61.02525	-90.31737	-108.21811	0
663	-88.69003	-17.08707	70.78929	51.26121	-78.92599	26.85111	29.29212	-47.19286	-86.24902	-61.02525	-90.31737	-108.21811	0
664	-93.57205	-14.64606	78.11232	53.70222	-86.24902	31.73313	31.73313	-47.19286	-81.367	-56.14323	-82.99434	-103.33609	0
665	-98.45407	-4.88202	92.75838	51.26121	-96.01306	43.93818	34.17414	-47.19286	-78.92599	-56.14323	-80.55333	-100.89508	0
666	-100.89508	0	100.08141	48.8202	-100.89508	48.8202	34.17414	-47.19286	-76.48498	-56.14323	-80.55333	-100.89508	0
667	-96.01306	2.44101	97.6404	46.37919	-96.01306	48.8202	31.73313	-49.63387	-81.367	-58.58424	-82.99434	-103.33609	0
668	-88.69003	4.88202	92.75838	41.49717	-91.13104	48.8202	31.73313	-47.19286	-81.367	-61.02525	-82.99434	-105.7771	0
669	-91.13104	2.44101	92.75838	43.93818	-91.13104	46.37919	29.29212	-47.19286	-81.367	-61.02525	-82.99434	-105.7771	0
670	-96.01306	-4.88202	90.31737	48.8202	-93.57205	41.49717	29.29212	-44.75185	-78.92599	-61.02525	-82.99434	-108.21811	0
671	-100.89508	-4.88202	95.19939	51.26121	-98.45407	43.93818	29.29212	-42.31084	-78.92599	-61.02525	-82.99434	-108.21811	0
672	-103.33609	-2.44101	100.08141	51.26121	-100.89508	48.8202	29.29212	-39.86983	-78.92599	-58.58424	-80.55333	-108.21811	0
673	-103.33609	2.44101	104.96343	48.8202	-103.33609	53.70222	31.73313	-39.86983	-74.04397	-53.70222	-78.11232	-103.33609	0
674	-103.33609	12.20505	114.72747	43.93818	-108.21811	63.46626	34.17414	-39.86983	-71.60296	-51.26121	-73.2303	-98.45407	0
675	-110.65912	12.20505	122.0505	48.8202	-115.54114	65.90727	34.17414	-44.75185	-74.04397	-51.26121	-73.2303	-96.01306	0
676	-113.10013	19.52808	131.81454	46.37919	-122.86417	75.67131	36.61515	-44.75185	-74.04397	-48.8202	-68.34828	-93.57205	0
677	-113.10013	26.85111	139.13757	41.49717	-125.30518	82.99434	39.05616	-39.86983	-74.04397	-46.37919	-68.34828	-93.57205	0
678	-100.89508	34.17414	134.25555	31.73313	-117.98215	82.99434	36.61515	-37.42882	-74.04397	-46.37919	-68.34828	-96.01306	0
679	-93.57205	34.17414	126.93252	29.29212	-110.65912	80.55333	31.73313	-37.42882	-76.48498	-48.8202	-70.78929	-98.45407	0
680	-86.24902	34.17414	119.60949	24.4101	-103.33609	75.67131	31.73313	-34.98781	-76.48498	-48.8202	-70.78929	-98.45407	0
681	-86.24902	41.49717	126.93252	21.96909	-105.7771	82.99434	31.73313	-27.66478	-69.16195	-43.93818	-63.46626	-96.01306	0
682	-88.69003	43.93818	131.81454	21.96909	-110.65912	87.87636	31.73313	-25.22377	-66.72094	-41.49717	-63.46626	-93.57205	0
683	-83.80801	46.37919	129.37353	17.08707	-105.7771	87.87636	31.73313	-25.22377	-61.83892	-39.05616	-58.58424	-91.13104	0
684	-88.69003	51.26121	139.13757	17.08707	-113.10013	95.19939	34.17414	-25.22377	-59.39791	-34.17414	-53.70222	-86.24902	0
685	-93.57205	56.14323	148.90161	17.08707	-120.42316	102.52242	36.61515	-27.66478	-56.9569	-31.73313	-48.8202	-81.367	0
686	-103.33609	63.46626	165.98868	19.52808	-135.06922	114.72747	39.05616	-25.22377	-56.9569	-31.73313	-46.37919	-76.48498	0
687	-103.33609	73.2303	175.75272	14.64606	-139.95124	124.49151	41.49717	-17.90074	-54.51589	-26.03744	-41.49717	-71.60296	0
688	-98.45407	78.11232	175.75272	8.95037	-137.51023	126.93252	41.49717	-13.01872	-54.51589	-23.59643	-41.49717	-71.60296	0
689	-93.57205	82.99434	175.75272	4.06835	-135.06922	129.37353	41.49717	-10.57771	-49.63387	-21.15542	-39.05616	-69.16195	0
690	-86.24902	87.87636	173.31171	-0.81367	-130.1872	129.37353	39.05616	-7.32303	-47.19286	-16.2734	-34.17414	-64.27993	0
691	-86.24902	100.08141	185.51676	-8.1367	-135.06922	141.57858	43.93818	2.44101	-39.86983	-8.95037	-29.29212	-56.9569	0
692	-88.69003	107.40444	195.2808	-10.57771	-142.39225	151.34262	43.93818	7.32303	-34.98781	-1.62734	-23.59643	-52.07488	0
693	-88.69003	109.84545	197.72181	-10.57771	-142.39225	153.78363	43.93818	7.32303	-34.98781	-1.62734	-18.71441	-49.63387	0
694	-91.13104	114.72747	205.04484	-13.01872	-147.27427	158.66565	41.49717	4.88202	-32.5468	5.69569	-13.83239	-44.75185	0
695	-76.48498	131.81454	207.48585	-27.66478	-142.39225	168.42969	41.49717	2.44101	-30.10579	10.57771	-8.95037	-37.42882	0
696	-71.60296	146.4606	217.24989	-37.42882	-144.83326	180.63474	46.37919	7.32303	-26.85111	13.01872	-6.50936	-32.5468	0
697	-81.367	144.01959	224.57292	-32.5468	-152.15629	183.07575	46.37919	12.20505	-26.85111	15.45973	-6.50936	-32.5468	0
698	-78.92599	146.4606	224.57292	-34.98781	-152.15629	185.51676	43.93818	17.08707	-26.85111	15.45973	-6.50936	-34.98781	0
699	-78.92599	146.4606	224.57292	-34.98781	-152.15629	185.51676	43.93818	21.96909	-21.96909	20.34175	-4.06835	-30.10579	0
700	-66.72094	156.22464	222.13191	-44.75185	-144.83326	187.95777	46.37919	31.73313	-14.64606	27.66478	3.25468	-25.22377	0
701	-66.72094	168.42969	234.33696	-52.07488	-149.71528	200.16282	51.26121	41.49717	-2.44101	34.98781	13.01872	-19.52808	0
702	-78.92599	170.8707	248.98302	-47.19286	-164.36134	209.92686	53.70222	48.8202	2.44101	42.31084	20.34175	-12.20505	0
703	-91.13104	163.54767	253.86504	-37.42882	-171.68437	207.48585	48.8202	48.8202	4.88202	42.31084	22.78276	-9.76404	0
704	-93.57205	165.98868	258.74706	-37.42882	-176.56639	212.36787	48.8202	46.37919	12.20505	47.19286	27.66478	-4.88202	0
705	-81.367	180.63474	261.18807	-49.63387	-171.68437	219.6909	51.26121	46.37919	17.08707	52.07488	34.98781	2.44101	0
706	-74.04397	195.2808	268.5111	-61.83892	-171.68437	231.89595	53.70222	53.70222	24.4101	56.9569	42.31084	9.76404	0
707	-71.60296	200.16282	270.95211	-64.27993	-171.68437	234.33696	53.70222	58.58424	26.85111	59.39791	42.31084	14.64606	0
708	-56.9569	214.80888	270.95211	-78.92599	-164.36134	241.65999	53.70222	68.34828	34.17414	64.27993	49.63387	17.08707	0
709	-42.31084	229.45494	270.95211	-93.57205	-157.03831	248.98302	58.58424	80.55333	46.37919	74.04397	59.39791	26.85111	0
710	-27.66478	241.65999	268.5111	-108.21811	-147.27427	253.86504	61.02525	92.75838	56.14323	83.80801	69.16195	36.61515	0
711	-22.78276	251.42403	273.39312	-115.54114	-147.27427	261.18807	63.46626	104.96343	65.90727	91.13104	78.92599	46.37919	0
712	-30.10579	248.98302	278.27514	-110.65912	-154.5973	263.62908	63.46626	109.84545	73.2303	98.45407	86.24902	53.70222	0
713	-37.42882	248.98302	285.59817	-105.7771	-161.92033	266.07009	61.02525	112.28646	78.11232	105.7771	93.57205	58.58424	0
714	-44.75185	244.101	288.03918	-100.89508	-166.80235	266.07009	56.14323	112.28646	82.99434	110.65912	100.89508	63.46626	0
715	-56.9569	244.101	300.24423	-93.57205	-179.0074	270.95211	56.14323	112.28646	85.43535	115.54114	105.7771	70.78929	0
716	-61.83892	246.54201	307.56726	-93.57205	-183.88942	275.83413	56.14323	112.28646	90.31737	120.42316	110.65912	73.2303	0
717	-64.27993	251.42403	314.89029	-93.57205	-188.77144	283.15716	56.14323	122.0505	95.19939	125.30518	115.54114	78.11232	0
718	-49.63387	268.5111	317.3313	-110.65912	-183.88942	292.9212	61.02525	134.25555	104.96343	132.62821	120.42316	80.55333	0
719	-39.86983	273.39312	312.44928	-117.98215	-176.56639	292.9212	63.46626	146.4606	112.28646	137.51023	125.30518	85.43535	0
720	-34.98781	275.83413	310.00827	-120.42316	-171.68437	292.9212	63.46626	156.22464	119.60949	144.83326	130.1872	90.31737	0
721	-34.98781	273.39312	307.56726	-120.42316	-171.68437	290.48019	63.46626	163.54767	124.49151	147.27427	130.1872	92.75838	0
722	-27.66478	275.83413	302.68524	-125.30518	-164.36134	288.03918	63.46626	170.8707	129.37353	152.15629	135.06922	97.6404	0
723	-15.45973	285.59817	300.24423	-135.06922	-157.03831	292.9212	65.90727	178.19373	141.57858	161.92033	144.83326	107.40444	0
724	-17.90074	280.71615	297.80322	-132.62821	-157.03831	288.03918	65.90727	178.19373	144.01959	166.80235	149.71528	114.72747	0
725	-17.90074	278.27514	295.36221	-130.1872	-157.03831	285.59817	63.46626	173.31171	144.01959	166.80235	149.71528	117.16848	0
726	-10.57771	278.27514	288.03918	-135.06922	-149.71528	283.15716	61.02525	173.31171	146.4606	166.80235	152.15629	119.60949	0
727	-0.81367	280.71615	280.71615	-139.95124	-139.95124	280.71615	58.58424	180.63474	148.90161	169.24336	154.5973	122.0505	0
728	-0.81367	275.83413	275.83413	-137.51023	-137.51023	275.83413	56.14323	183.07575	148.90161	169.24336	154.5973	119.60949	0
729	-3.25468	261.18807	263.62908	-130.1872	-132.62821	261.18807	51.26121	185.51676	148.90161	166.80235	152.15629	117.16848	0
730	-8.1367	248.98302	256.30605	-120.42316	-132.62821	251.42403	46.37919	185.51676	146.4606	164.36134	149.71528	114.72747	0
731	-13.01872	248.98302	261.18807	-117.98215	-137.51023	253.86504	46.37919	192.83979	153.78363	169.24336	152.15629	119.60949	0
732	-13.01872	246.54201	258.74706	-117.98215	-135.06922	251.42403	48.8202	197.72181	156.22464	174.12538	157.03831	122.0505	0
733	-13.01872	244.101	256.30605	-115.54114	-135.06922	248.98302	48.8202	200.16282	163.54767	176.56639	161.92033	126.93252	0
734	-3.25468	244.101	246.54201	-120.42316	-125.30518	244.101	51.26121	200.16282	165.98868	179.0074	161.92033	131.81454	0
735	4.88202	244.101	239.21898	-125.30518	-117.98215	241.65999	51.26121	195.2808	168.42969	179.0074	161.92033	134.25555	0
736	7.32303	241.65999	234.33696	-125.30518	-113.10013	239.21898	51.26121	195.2808	168.42969	179.0074	161.92033	136.69656	0
737	7.32303	229.45494	222.13191	-117.98215	-108.21811	227.01393	48.8202	197.72181	168.42969	174.12538	159.47932	131.81454	0
738	-0.81367	209.92686	209.92686	-105.7771	-105.7771	209.92686	41.49717	197.72181	165.98868	166.80235	152.15629	124.49151	0
739	-0.81367	185.51676	185.51676	-93.57205	-93.57205	185.51676	31.73313	192.83979	158.66565	157.03831	144.83326	114.72747	0
740	-3.25468	158.66565	161.10666	-78.92599	-81.367	158.66565	21.96909	187.95777	151.34262	147.27427	135.06922	107.40444	0
741	2.44101	153.78363	151.34262	-78.92599	-74.04397	153.78363	21.96909	190.39878	153.78363	147.27427	137.51023	107.40444	0
742	19.52808	151.34262	131.81454	-86.24902	-56.9569	141.57858	19.52808	187.95777	153.78363	144.83326	135.06922	107.40444	0
743	36.61515	151.34262	114.72747	-93.57205	-39.86983	134.25555	19.52808	185.51676	153.78363	144.83326	135.06922	107.40444	0
744	48.8202	146.4606	97.6404	-98.45407	-25.22377	122.0505	19.52808	178.19373	153.78363	142.39225	132.62821	109.84545	0
745	51.26121	148.90161	97.6404	-100.89508	-22.78276	124.49151	24.4101	175.75272	153.78363	142.39225	132.62821	112.28646	0
746	58.58424	148.90161	90.31737	-103.33609	-15.45973	119.60949	26.85111	175.75272	153.78363	142.39225	132.62821	114.72747	0
747	53.70222	136.69656	82.99434	-96.01306	-15.45973	109.84545	26.85111	173.31171	146.4606	137.51023	125.30518	109.84545	0
748	36.61515	109.84545	73.2303	-74.04397	-17.90074	92.75838	19.52808	165.98868	136.69656	125.30518	113.10013	95.19939	0
749	21.96909	92.75838	70.78929	-56.9569	-25.22377	82.99434	19.52808	165.98868	134.25555	122.86417	108.21811	92.75838	0
750	21.96909	78.11232	56.14323	-49.63387	-17.90074	68.34828	19.52808	161.10666	129.37353	117.98215	103.33609	87.87636	0
751	26.85111	65.90727	39.05616	-47.19286	-5.69569	53.70222	14.64606	156.22464	122.0505	110.65912	93.57205	80.55333	0
752	26.85111	56.14323	29.29212	-42.31084	-0.81367	43.93818	14.64606	148.90161	114.72747	103.33609	86.24902	75.67131	0
753	34.17414	53.70222	19.52808	-44.75185	6.50936	36.61515	14.64606	141.57858	112.28646	100.89508	86.24902	75.67131	0
754	43.93818	53.70222	9.76404	-49.63387	17.08707	31.73313	14.64606	131.81454	109.84545	98.45407	83.80801	75.67131	0
755	46.37919	46.37919	0	-47.19286	24.4101	24.4101	12.20505	117.16848	100.08141	91.13104	76.48498	70.78929	0
756	46.37919	34.17414	-12.20505	-39.86983	29.29212	12.20505	4.88202	102.52242	87.87636	78.92599	66.72094	63.46626	0
757	39.05616	21.96909	-17.08707	-30.10579	29.29212	2.44101	-0.81367	92.75838	78.11232	71.60296	54.51589	53.70222	0
758	31.73313	7.32303	-25.22377	-20.34175	29.29212	-7.32303	-0.81367	85.43535	68.34828	61.83892	44.75185	43.93818	0
759	24.4101	-9.76404	-34.98781	-8.1367	29.29212	-22.78276	-5.69569	78.11232	63.46626	54.51589	39.86983	36.61515	0
760	14.64606	-25.22377	-39.86983	4.06835	26.85111	-32.5468	-5.69569	70.78929	56.14323	49.63387	32.5468	31.73313	0
761	7.32303	-34.98781	-42.31084	12.20505	24.4101	-37.42882	-5.69569	68.34828	51.26121	44.75185	27.66478	29.29212	0
762	14.64606	-32.5468	-47.19286	8.95037	29.29212	-39.86983	-5.69569	63.46626	46.37919	42.31084	25.22377	26.85111	0
763	26.85111	-30.10579	-56.9569	1.62734	41.49717	-42.31084	-5.69569	53.70222	39.05616	37.42882	22.78276	21.96909	0
764	34.17414	-22.78276	-56.9569	-5.69569	43.93818	-39.86983	-5.69569	46.37919	34.17414	34.98781	22.78276	21.96909	0
765	34.17414	-22.78276	-56.9569	-5.69569	43.93818	-39.86983	-10.57771	34.17414	24.4101	27.66478	15.45973	17.08707	0
766	34.17414	-25.22377	-59.39791	-5.69569	46.37919	-42.31084	-13.01872	24.4101	14.64606	17.90074	8.1367	9.76404	0
767	36.61515	-25.22377	-61.83892	-5.69569	48.8202	-42.31084	-15.45973	19.52808	7.32303	10.57771	0.81367	2.44101	0
768	43.93818	-22.78276	-66.72094	-10.57771	53.70222	-44.75185	-15.45973	19.52808	2.44101	5.69569	-4.06835	-2.44101	0
769	24.4101	-34.98781	-59.39791	4.06835	41.49717	-47.19286	-15.45973	19.52808	0	5.69569	-4.06835	-2.44101	0
770	9.76404	-49.63387	-59.39791	19.52808	34.17414	-54.51589	-15.45973	12.20505	-2.44101	0.81367	-8.95037	-4.88202	0
771	-0.81367	-64.27993	-64.27993	31.73313	31.73313	-64.27993	-20.34175	7.32303	-7.32303	-4.06835	-13.83239	-12.20505	0
772	-5.69569	-74.04397	-69.16195	39.05616	31.73313	-71.60296	-22.78276	0	-14.64606	-6.50936	-18.71441	-14.64606	0
773	-13.01872	-81.367	-69.16195	46.37919	26.85111	-76.48498	-25.22377	-10.57771	-19.52808	-13.83239	-23.59643	-17.08707	0
774	-15.45973	-86.24902	-71.60296	48.8202	26.85111	-78.92599	-27.66478	-20.34175	-26.85111	-16.2734	-29.29212	-19.52808	0
775	-17.90074	-88.69003	-71.60296	51.26121	26.85111	-81.367	-32.5468	-32.5468	-34.98781	-28.47845	-34.17414	-25.22377	0
776	-3.25468	-81.367	-78.92599	41.49717	36.61515	-81.367	-32.5468	-37.42882	-39.86983	-31.73313	-39.05616	-32.5468	0
777	-0.81367	-83.80801	-83.80801	41.49717	41.49717	-83.80801	-34.98781	-39.86983	-47.19286	-36.61515	-46.37919	-39.86983	0
778	-0.81367	-91.13104	-91.13104	43.93818	43.93818	-91.13104	-37.42882	-39.86983	-52.07488	-41.49717	-53.70222	-47.19286	0
779	7.32303	-93.57205	-100.89508	41.49717	53.70222	-96.01306	-37.42882	-37.42882	-49.63387	-41.49717	-53.70222	-47.19286	0
780	9.76404	-91.13104	-100.89508	39.05616	53.70222	-96.01306	-32.5468	-34.98781	-42.31084	-34.17414	-48.8202	-44.75185	0
781	7.32303	-100.89508	-108.21811	46.37919	56.14323	-103.33609	-34.98781	-34.98781	-42.31084	-34.17414	-51.26121	-47.19286	0
782	2.44101	-110.65912	-113.10013	53.70222	56.14323	-110.65912	-37.42882	-39.86983	-42.31084	-34.17414	-51.26121	-47.19286	0
783	-8.1367	-117.98215	-110.65912	61.02525	51.26121	-115.54114	-37.42882	-47.19286	-42.31084	-34.17414	-48.8202	-44.75185	0
784	-3.25468	-103.33609	-100.89508	51.26121	48.8202	-103.33609	-27.66478	-49.63387	-37.42882	-28.47845	-41.49717	-37.42882	0
785	-8.1367	-93.57205	-86.24902	48.8202	39.05616	-91.13104	-20.34175	-52.07488	-37.42882	-28.47845	-39.05616	-32.5468	0
786	-5.69569	-93.57205	-88.69003	48.8202	41.49717	-91.13104	-20.34175	-54.51589	-42.31084	-31.73313	-41.49717	-37.42882	0
787	-3.25468	-88.69003	-86.24902	43.93818	41.49717	-88.69003	-20.34175	-49.63387	-44.75185	-34.17414	-43.93818	-39.86983	0
788	-0.81367	-83.80801	-83.80801	41.49717	41.49717	-83.80801	-15.45973	-42.31084	-42.31084	-34.17414	-43.93818	-44.75185	0
789	2.44101	-88.69003	-91.13104	41.49717	46.37919	-88.69003	-15.45973	-39.86983	-42.31084	-34.17414	-48.8202	-47.19286	0
790	7.32303	-93.57205	-100.89508	41.49717	53.70222	-96.01306	-15.45973	-39.86983	-42.31084	-34.17414	-48.8202	-49.63387	0
791	4.88202	-98.45407	-103.33609	46.37919	53.70222	-100.89508	-17.90074	-37.42882	-42.31084	-34.17414	-48.8202	-52.07488	0
792	-3.25468	-105.7771	-103.33609	53.70222	48.8202	-105.7771	-22.78276	-42.31084	-44.75185	-34.17414	-53.70222	-52.07488	0
793	-22.78276	-125.30518	-103.33609	73.2303	39.05616	-115.54114	-27.66478	-54.51589	-49.63387	-39.05616	-58.58424	-56.9569	0
794	-37.42882	-132.62821	-96.01306	82.99434	29.29212	-115.54114	-27.66478	-64.27993	-52.07488	-41.49717	-58.58424	-56.9569	0
795	-37.42882	-125.30518	-88.69003	80.55333	24.4101	-108.21811	-27.66478	-66.72094	-54.51589	-43.93818	-61.02525	-54.51589	0
796	-32.5468	-120.42316	-88.69003	75.67131	26.85111	-105.7771	-22.78276	-64.27993	-54.51589	-43.93818	-61.02525	-56.9569	0
797	-22.78276	-110.65912	-88.69003	65.90727	31.73313	-100.89508	-20.34175	-54.51589	-52.07488	-43.93818	-58.58424	-56.9569	0
798	-15.45973	-110.65912	-96.01306	61.02525	39.05616	-103.33609	-17.90074	-44.75185	-49.63387	-41.49717	-58.58424	-56.9569	0
799	-8.1367	-110.65912	-103.33609	58.58424	46.37919	-108.21811	-15.45973	-34.98781	-44.75185	-39.05616	-56.14323	-56.9569	0
800	9.76404	-110.65912	-120.42316	48.8202	63.46626	-115.54114	-15.45973	-32.5468	-37.42882	-36.61515	-53.70222	-56.9569	0
801	21.96909	-108.21811	-130.1872	41.49717	75.67131	-117.98215	-17.90074	-30.10579	-34.98781	-34.17414	-53.70222	-56.9569	0
802	21.96909	-105.7771	-127.74619	41.49717	73.2303	-115.54114	-17.90074	-30.10579	-32.5468	-31.73313	-48.8202	-54.51589	0
803	9.76404	-113.10013	-122.86417	51.26121	65.90727	-117.98215	-15.45973	-34.98781	-30.10579	-28.47845	-48.8202	-52.07488	0
804	7.32303	-108.21811	-115.54114	48.8202	61.02525	-110.65912	-15.45973	-42.31084	-30.10579	-31.73313	-48.8202	-47.19286	0
805	14.64606	-96.01306	-110.65912	39.05616	61.02525	-103.33609	-13.01872	-44.75185	-30.10579	-31.73313	-48.8202	-44.75185	0
806	9.76404	-91.13104	-100.89508	39.05616	53.70222	-96.01306	-10.57771	-39.86983	-30.10579	-31.73313	-46.37919	-44.75185	0
807	-3.25468	-91.13104	-88.69003	46.37919	41.49717	-91.13104	-5.69569	-27.66478	-26.85111	-28.47845	-46.37919	-44.75185	0
808	-10.57771	-91.13104	-81.367	48.8202	34.17414	-86.24902	-0.81367	-15.45973	-19.52808	-23.59643	-43.93818	-42.31084	0
809	-10.57771	-96.01306	-86.24902	51.26121	36.61515	-91.13104	-0.81367	-10.57771	-17.08707	-23.59643	-43.93818	-44.75185	0
810	-10.57771	-103.33609	-93.57205	56.14323	41.49717	-98.45407	-0.81367	-10.57771	-17.08707	-23.59643	-43.93818	-47.19286	0
811	-10.57771	-108.21811	-98.45407	58.58424	43.93818	-103.33609	-5.69569	-10.57771	-17.08707	-23.59643	-46.37919	-49.63387	0
812	-20.34175	-113.10013	-93.57205	65.90727	36.61515	-103.33609	-5.69569	-10.57771	-17.08707	-21.15542	-46.37919	-49.63387	0
813	-13.01872	-115.54114	-103.33609	63.46626	43.93818	-110.65912	-8.1367	-17.90074	-17.08707	-23.59643	-48.8202	-49.63387	0
814	-17.90074	-125.30518	-108.21811	70.78929	43.93818	-117.98215	-15.45973	-32.5468	-24.4101	-31.73313	-53.70222	-54.51589	0
815	-25.22377	-127.74619	-103.33609	75.67131	39.05616	-115.54114	-17.90074	-42.31084	-30.10579	-34.17414	-58.58424	-54.51589	0
816	-27.66478	-127.74619	-100.89508	75.67131	36.61515	-115.54114	-20.34175	-39.86983	-30.10579	-36.61515	-58.58424	-59.39791	0
817	-27.66478	-130.1872	-103.33609	78.11232	36.61515	-117.98215	-20.34175	-32.5468	-30.10579	-36.61515	-58.58424	-59.39791	0
818	-30.10579	-135.06922	-105.7771	80.55333	36.61515	-120.42316	-20.34175	-25.22377	-30.10579	-36.61515	-61.02525	-64.27993	0
819	-17.90074	-132.62821	-115.54114	73.2303	48.8202	-125.30518	-20.34175	-15.45973	-24.4101	-36.61515	-58.58424	-61.83892	0
820	-13.01872	-130.1872	-117.98215	70.78929	51.26121	-125.30518	-15.45973	-7.32303	-14.64606	-31.73313	-51.26121	-59.39791	0
821	2.44101	-122.86417	-125.30518	58.58424	63.46626	-122.86417	-13.01872	0	-9.76404	-26.03744	-48.8202	-56.9569	0
822	19.52808	-115.54114	-135.06922	46.37919	75.67131	-125.30518	-13.01872	2.44101	-4.88202	-18.71441	-43.93818	-54.51589	0
823	29.29212	-115.54114	-144.83326	41.49717	85.43535	-130.1872	-10.57771	-2.44101	-2.44101	-18.71441	-43.93818	-52.07488	0
824	29.29212	-113.10013	-142.39225	41.49717	85.43535	-127.74619	-8.1367	-10.57771	0	-18.71441	-41.49717	-47.19286	0
825	31.73313	-103.33609	-135.06922	34.17414	82.99434	-117.98215	-3.25468	-10.57771	2.44101	-16.2734	-36.61515	-39.86983	0
826	24.4101	-103.33609	-127.74619	39.05616	75.67131	-115.54114	-3.25468	-4.88202	2.44101	-16.2734	-36.61515	-39.86983	0
827	9.76404	-110.65912	-120.42316	48.8202	63.46626	-115.54114	-3.25468	2.44101	2.44101	-16.2734	-36.61515	-39.86983	0
828	-0.81367	-120.42316	-120.42316	58.58424	58.58424	-120.42316	-3.25468	7.32303	2.44101	-18.71441	-39.05616	-42.31084	0
829	-5.69569	-125.30518	-120.42316	63.46626	56.14323	-122.86417	-3.25468	14.64606	4.88202	-18.71441	-39.05616	-42.31084	0
830	-8.1367	-125.30518	-117.98215	65.90727	53.70222	-122.86417	-3.25468	19.52808	12.20505	-13.83239	-34.17414	-39.86983	0
831	-13.01872	-135.06922	-122.86417	73.2303	53.70222	-130.1872	-5.69569	19.52808	12.20505	-13.83239	-36.61515	-42.31084	0
832	-13.01872	-142.39225	-130.1872	75.67131	58.58424	-137.51023	-10.57771	17.08707	12.20505	-13.83239	-39.05616	-42.31084	0
833	-3.25468	-137.51023	-135.06922	68.34828	65.90727	-137.51023	-10.57771	12.20505	14.64606	-13.83239	-36.61515	-39.86983	0
834	-0.81367	-132.62821	-132.62821	65.90727	65.90727	-132.62821	-13.01872	7.32303	14.64606	-8.95037	-34.17414	-39.86983	0
835	-0.81367	-125.30518	-125.30518	61.02525	61.02525	-125.30518	-13.01872	4.88202	14.64606	-8.95037	-31.73313	-37.42882	0
836	4.88202	-120.42316	-125.30518	56.14323	63.46626	-122.86417	-13.01872	4.88202	12.20505	-8.95037	-31.73313	-37.42882	0
837	14.64606	-115.54114	-130.1872	48.8202	70.78929	-122.86417	-15.45973	9.76404	9.76404	-11.39138	-31.73313	-37.42882	0
838	24.4101	-103.33609	-127.74619	39.05616	75.67131	-115.54114	-13.01872	19.52808	14.64606	-4.06835	-26.03744	-32.5468	0
839	29.29212	-98.45407	-127.74619	34.17414	78.11232	-113.10013	-13.01872	24.4101	17.08707	-4.06835	-23.59643	-30.10579	0
840	36.61515	-91.13104	-127.74619	26.85111	80.55333	-108.21811	-10.57771	26.85111	19.52808	0.81367	-21.15542	-25.22377	0
841	41.49717	-88.69003	-130.1872	21.96909	85.43535	-108.21811	-10.57771	26.85111	19.52808	3.25468	-18.71441	-22.78276	0
842	41.49717	-83.80801	-125.30518	19.52808	82.99434	-103.33609	-8.1367	29.29212	24.4101	10.57771	-13.83239	-17.08707	0
843	31.73313	-91.13104	-122.86417	29.29212	75.67131	-105.7771	-8.1367	24.4101	24.4101	10.57771	-13.83239	-14.64606	0
844	26.85111	-96.01306	-122.86417	34.17414	73.2303	-108.21811	-13.01872	14.64606	19.52808	5.69569	-18.71441	-19.52808	0
845	29.29212	-93.57205	-122.86417	31.73313	75.67131	-108.21811	-13.01872	9.76404	17.08707	3.25468	-18.71441	-19.52808	0
846	19.52808	-100.89508	-120.42316	39.05616	68.34828	-110.65912	-17.90074	9.76404	14.64606	0.81367	-21.15542	-22.78276	0
847	17.08707	-105.7771	-122.86417	43.93818	68.34828	-113.10013	-20.34175	9.76404	9.76404	-4.06835	-26.03744	-25.22377	0
848	21.96909	-108.21811	-130.1872	41.49717	75.67131	-117.98215	-25.22377	9.76404	4.88202	-8.95037	-29.29212	-30.10579	0
849	26.85111	-108.21811	-135.06922	39.05616	80.55333	-120.42316	-27.66478	9.76404	2.44101	-8.95037	-31.73313	-32.5468	0
850	36.61515	-96.01306	-132.62821	29.29212	82.99434	-113.10013	-27.66478	14.64606	7.32303	-4.06835	-29.29212	-27.66478	0
851	29.29212	-100.89508	-130.1872	34.17414	78.11232	-115.54114	-30.10579	12.20505	4.88202	-4.06835	-29.29212	-30.10579	0
852	24.4101	-105.7771	-130.1872	39.05616	75.67131	-117.98215	-34.98781	4.88202	0	-6.50936	-29.29212	-30.10579	0
853	31.73313	-100.89508	-132.62821	34.17414	80.55333	-115.54114	-32.5468	0	0	-4.06835	-29.29212	-27.66478	0
854	43.93818	-93.57205	-137.51023	24.4101	90.31737	-115.54114	-32.5468	-7.32303	-2.44101	-6.50936	-29.29212	-30.10579	0
855	39.05616	-98.45407	-137.51023	29.29212	87.87636	-117.98215	-34.98781	-10.57771	-7.32303	-13.83239	-31.73313	-32.5468	0
856	29.29212	-113.10013	-142.39225	41.49717	85.43535	-127.74619	-39.86983	-10.57771	-14.64606	-21.15542	-41.49717	-39.86983	0
857	41.49717	-113.10013	-154.5973	34.17414	97.6404	-132.62821	-42.31084	-13.01872	-17.08707	-26.03744	-43.93818	-44.75185	0
858	53.70222	-103.33609	-157.03831	24.4101	104.96343	-130.1872	-39.86983	-7.32303	-14.64606	-21.15542	-39.05616	-39.86983	0
859	48.8202	-105.7771	-154.5973	26.85111	100.08141	-130.1872	-37.42882	-4.88202	-12.20505	-18.71441	-39.05616	-37.42882	0
860	36.61515	-110.65912	-147.27427	36.61515	90.31737	-127.74619	-37.42882	-2.44101	-12.20505	-16.2734	-34.17414	-34.98781	0
861	26.85111	-110.65912	-137.51023	41.49717	80.55333	-122.86417	-37.42882	-2.44101	-9.76404	-11.39138	-31.73313	-30.10579	0
862	21.96909	-103.33609	-125.30518	39.05616	73.2303	-113.10013	-32.5468	-2.44101	-4.88202	-4.06835	-26.03744	-22.78276	0
863	21.96909	-96.01306	-117.98215	36.61515	68.34828	-105.7771	-30.10579	-4.88202	0	0.81367	-21.15542	-17.08707	0
864	2.44101	-100.89508	-103.33609	48.8202	51.26121	-100.89508	-30.10579	-10.57771	0	0.81367	-21.15542	-14.64606	0
865	9.76404	-96.01306	-105.7771	41.49717	56.14323	-100.89508	-32.5468	-10.57771	-4.88202	-1.62734	-23.59643	-17.08707	0
866	24.4101	-88.69003	-113.10013	31.73313	68.34828	-100.89508	-32.5468	-10.57771	-4.88202	-1.62734	-21.15542	-17.08707	0
867	19.52808	-91.13104	-110.65912	34.17414	63.46626	-100.89508	-32.5468	-4.88202	-4.88202	-1.62734	-21.15542	-17.08707	0
868	12.20505	-103.33609	-115.54114	43.93818	63.46626	-108.21811	-37.42882	-7.32303	-7.32303	-4.06835	-26.03744	-22.78276	0
869	9.76404	-113.10013	-122.86417	51.26121	65.90727	-117.98215	-39.86983	-7.32303	-12.20505	-6.50936	-29.29212	-22.78276	0
870	9.76404	-113.10013	-122.86417	51.26121	65.90727	-117.98215	-39.86983	-7.32303	-12.20505	-4.06835	-29.29212	-22.78276	0
871	9.76404	-120.42316	-130.1872	53.70222	68.34828	-125.30518	-44.75185	-10.57771	-12.20505	-6.50936	-29.29212	-22.78276	0
872	2.44101	-132.62821	-135.06922	63.46626	68.34828	-132.62821	-47.19286	-17.90074	-19.52808	-8.95037	-31.73313	-27.66478	0
873	2.44101	-137.51023	-139.95124	65.90727	70.78929	-137.51023	-47.19286	-27.66478	-24.4101	-13.83239	-34.17414	-30.10579	0
874	14.64606	-127.74619	-142.39225	56.14323	78.11232	-135.06922	-47.19286	-32.5468	-26.85111	-16.2734	-36.61515	-30.10579	0
875	24.4101	-115.54114	-139.95124	43.93818	80.55333	-127.74619	-44.75185	-32.5468	-26.85111	-16.2734	-36.61515	-27.66478	0
876	26.85111	-110.65912	-137.51023	41.49717	80.55333	-122.86417	-42.31084	-30.10579	-26.85111	-16.2734	-34.17414	-27.66478	0
877	34.17414	-103.33609	-137.51023	34.17414	85.43535	-120.42316	-39.86983	-25.22377	-24.4101	-16.2734	-31.73313	-25.22377	0
878	41.49717	-96.01306	-137.51023	26.85111	87.87636	-115.54114	-37.42882	-20.34175	-21.96909	-13.83239	-31.73313	-22.78276	0
879	51.26121	-86.24902	-137.51023	17.08707	92.75838	-110.65912	-34.98781	-15.45973	-19.52808	-8.95037	-29.29212	-19.52808	0
880	46.37919	-91.13104	-137.51023	21.96909	90.31737	-113.10013	-34.98781	-17.90074	-19.52808	-8.95037	-29.29212	-19.52808	0
881	51.26121	-91.13104	-142.39225	19.52808	95.19939	-115.54114	-37.42882	-17.90074	-19.52808	-8.95037	-29.29212	-19.52808	0
882	48.8202	-88.69003	-137.51023	19.52808	92.75838	-113.10013	-34.98781	-20.34175	-17.08707	-6.50936	-29.29212	-17.08707	0
883	39.05616	-98.45407	-137.51023	29.29212	87.87636	-117.98215	-37.42882	-30.10579	-21.96909	-8.95037	-29.29212	-17.08707	0
884	36.61515	-105.7771	-142.39225	34.17414	87.87636	-122.86417	-39.86983	-37.42882	-30.10579	-16.2734	-34.17414	-22.78276	0
885	17.08707	-115.54114	-132.62821	48.8202	73.2303	-122.86417	-42.31084	-39.86983	-30.10579	-18.71441	-36.61515	-22.78276	0
886	12.20505	-117.98215	-130.1872	51.26121	70.78929	-122.86417	-39.86983	-37.42882	-30.10579	-18.71441	-36.61515	-22.78276	0
887	17.08707	-110.65912	-127.74619	46.37919	70.78929	-117.98215	-34.98781	-27.66478	-26.85111	-16.2734	-31.73313	-22.78276	0
888	19.52808	-108.21811	-127.74619	43.93818	73.2303	-117.98215	-32.5468	-25.22377	-24.4101	-13.83239	-29.29212	-19.52808	0
889	19.52808	-105.7771	-125.30518	41.49717	70.78929	-115.54114	-32.5468	-17.90074	-21.96909	-13.83239	-29.29212	-17.08707	0
890	17.08707	-98.45407	-115.54114	39.05616	65.90727	-105.7771	-30.10579	-13.01872	-14.64606	-6.50936	-21.15542	-12.20505	0
891	21.96909	-93.57205	-115.54114	34.17414	68.34828	-103.33609	-30.10579	-13.01872	-12.20505	-6.50936	-21.15542	-12.20505	0
892	21.96909	-98.45407	-120.42316	36.61515	70.78929	-108.21811	-34.98781	-22.78276	-17.08707	-8.95037	-23.59643	-14.64606	0
893	19.52808	-103.33609	-122.86417	41.49717	70.78929	-113.10013	-37.42882	-32.5468	-24.4101	-13.83239	-26.03744	-14.64606	0
894	19.52808	-110.65912	-130.1872	43.93818	73.2303	-120.42316	-42.31084	-44.75185	-30.10579	-23.59643	-31.73313	-22.78276	0
895	17.08707	-117.98215	-135.06922	48.8202	75.67131	-125.30518	-47.19286	-52.07488	-37.42882	-31.73313	-41.49717	-27.66478	0
896	17.08707	-122.86417	-139.95124	51.26121	78.11232	-130.1872	-49.63387	-54.51589	-44.75185	-34.17414	-46.37919	-32.5468	0
897	14.64606	-127.74619	-142.39225	56.14323	78.11232	-135.06922	-52.07488	-54.51589	-47.19286	-36.61515	-48.8202	-34.98781	0
898	12.20505	-130.1872	-142.39225	58.58424	75.67131	-135.06922	-49.63387	-49.63387	-42.31084	-34.17414	-46.37919	-32.5468	0
899	-5.69569	-139.95124	-135.06922	70.78929	63.46626	-137.51023	-49.63387	-47.19286	-42.31084	-31.73313	-46.37919	-32.5468	0
900	-8.1367	-139.95124	-132.62821	73.2303	61.02525	-137.51023	-47.19286	-44.75185	-37.42882	-31.73313	-43.93818	-32.5468	0
901	-3.25468	-135.06922	-132.62821	68.34828	63.46626	-135.06922	-44.75185	-42.31084	-34.98781	-26.03744	-41.49717	-30.10579	0
902	7.32303	-130.1872	-137.51023	61.02525	70.78929	-132.62821	-44.75185	-47.19286	-34.98781	-23.59643	-39.05616	-27.66478	0
903	17.08707	-117.98215	-135.06922	48.8202	75.67131	-125.30518	-42.31084	-49.63387	-32.5468	-21.15542	-36.61515	-22.78276	0
904	26.85111	-108.21811	-135.06922	39.05616	80.55333	-120.42316	-39.86983	-52.07488	-32.5468	-21.15542	-36.61515	-22.78276	0
905	48.8202	-96.01306	-144.83326	21.96909	95.19939	-120.42316	-39.86983	-52.07488	-37.42882	-26.03744	-39.05616	-22.78276	0
906	51.26121	-91.13104	-142.39225	19.52808	95.19939	-115.54114	-39.86983	-49.63387	-37.42882	-26.03744	-39.05616	-22.78276	0
907	36.61515	-100.89508	-137.51023	31.73313	85.43535	-117.98215	-39.86983	-47.19286	-39.86983	-26.03744	-39.05616	-25.22377	0
908	26.85111	-108.21811	-135.06922	39.05616	80.55333	-120.42316	-39.86983	-44.75185	-39.86983	-26.03744	-39.05616	-25.22377	0
909	29.29212	-108.21811	-137.51023	39.05616	82.99434	-122.86417	-39.86983	-42.31084	-42.31084	-28.47845	-41.49717	-27.66478	0
910	19.52808	-117.98215	-137.51023	48.8202	78.11232	-127.74619	-42.31084	-44.75185	-42.31084	-28.47845	-43.93818	-30.10579	0
911	12.20505	-122.86417	-135.06922	53.70222	73.2303	-127.74619	-42.31084	-47.19286	-44.75185	-28.47845	-43.93818	-30.10579	0
912	14.64606	-120.42316	-135.06922	51.26121	73.2303	-127.74619	-37.42882	-47.19286	-42.31084	-26.03744	-41.49717	-27.66478	0
913	26.85111	-115.54114	-142.39225	43.93818	82.99434	-127.74619	-34.98781	-52.07488	-42.31084	-26.03744	-41.49717	-25.22377	0
914	29.29212	-108.21811	-137.51023	39.05616	82.99434	-122.86417	-34.98781	-56.9569	-44.75185	-28.47845	-41.49717	-25.22377	0
915	19.52808	-110.65912	-130.1872	43.93818	73.2303	-120.42316	-34.98781	-59.39791	-49.63387	-31.73313	-43.93818	-27.66478	0
916	12.20505	-115.54114	-127.74619	51.26121	68.34828	-120.42316	-37.42882	-59.39791	-54.51589	-34.17414	-46.37919	-32.5468	0
917	17.08707	-115.54114	-132.62821	48.8202	73.2303	-122.86417	-42.31084	-59.39791	-56.9569	-39.05616	-48.8202	-34.98781	0
918	7.32303	-125.30518	-132.62821	58.58424	68.34828	-127.74619	-47.19286	-59.39791	-59.39791	-43.93818	-53.70222	-37.42882	0
919	4.88202	-125.30518	-130.1872	58.58424	65.90727	-127.74619	-49.63387	-59.39791	-59.39791	-43.93818	-53.70222	-37.42882	0
920	9.76404	-125.30518	-135.06922	56.14323	70.78929	-130.1872	-52.07488	-59.39791	-59.39791	-43.93818	-53.70222	-39.86983	0
921	17.08707	-125.30518	-142.39225	53.70222	78.11232	-132.62821	-54.51589	-64.27993	-61.83892	-46.37919	-56.14323	-39.86983	0
922	19.52808	-125.30518	-144.83326	51.26121	80.55333	-135.06922	-54.51589	-66.72094	-61.83892	-46.37919	-56.14323	-39.86983	0
923	17.08707	-125.30518	-142.39225	53.70222	78.11232	-132.62821	-49.63387	-69.16195	-54.51589	-43.93818	-51.26121	-34.98781	0
924	9.76404	-122.86417	-132.62821	56.14323	70.78929	-127.74619	-44.75185	-69.16195	-54.51589	-43.93818	-48.8202	-32.5468	0
925	12.20505	-115.54114	-127.74619	51.26121	68.34828	-120.42316	-39.86983	-69.16195	-54.51589	-43.93818	-48.8202	-30.10579	0
926	7.32303	-115.54114	-122.86417	53.70222	63.46626	-117.98215	-34.98781	-64.27993	-54.51589	-46.37919	-48.8202	-32.5468	0
927	7.32303	-113.10013	-120.42316	51.26121	63.46626	-115.54114	-30.10579	-56.9569	-49.63387	-43.93818	-46.37919	-30.10579	0
928	4.88202	-100.89508	-105.7771	46.37919	53.70222	-103.33609	-20.34175	-44.75185	-39.86983	-36.61515	-36.61515	-22.78276	0
929	9.76404	-91.13104	-100.89508	39.05616	53.70222	-96.01306	-17.90074	-37.42882	-34.98781	-34.17414	-34.17414	-22.78276	0
930	14.64606	-86.24902	-100.89508	34.17414	56.14323	-93.57205	-17.90074	-37.42882	-34.98781	-34.17414	-34.17414	-22.78276	0
931	17.08707	-78.92599	-96.01306	29.29212	56.14323	-86.24902	-15.45973	-37.42882	-34.98781	-31.73313	-34.17414	-19.52808	0
932	19.52808	-74.04397	-93.57205	26.85111	56.14323	-83.80801	-13.01872	-39.86983	-34.98781	-31.73313	-31.73313	-17.08707	0
933	17.08707	-74.04397	-91.13104	26.85111	53.70222	-81.367	-13.01872	-47.19286	-34.98781	-31.73313	-29.29212	-17.08707	0
934	17.08707	-69.16195	-86.24902	24.4101	51.26121	-76.48498	-13.01872	-52.07488	-37.42882	-34.17414	-34.17414	-17.08707	0
935	24.4101	-61.83892	-86.24902	17.08707	53.70222	-74.04397	-13.01872	-52.07488	-42.31084	-36.61515	-36.61515	-22.78276	0
936	24.4101	-59.39791	-83.80801	17.08707	53.70222	-71.60296	-8.1367	-49.63387	-42.31084	-36.61515	-36.61515	-22.78276	0
937	17.08707	-61.83892	-78.92599	21.96909	46.37919	-69.16195	-3.25468	-44.75185	-42.31084	-36.61515	-36.61515	-25.22377	0
938	17.08707	-66.72094	-83.80801	24.4101	48.8202	-74.04397	-3.25468	-39.86983	-39.86983	-39.05616	-39.05616	-25.22377	0
939	19.52808	-66.72094	-86.24902	21.96909	51.26121	-76.48498	-0.81367	-32.5468	-34.98781	-36.61515	-39.05616	-25.22377	0
940	19.52808	-66.72094	-86.24902	21.96909	51.26121	-76.48498	-0.81367	-30.10579	-32.5468	-36.61515	-36.61515	-25.22377	0
941	7.32303	-78.92599	-86.24902	34.17414	46.37919	-81.367	-8.1367	-34.98781	-34.98781	-36.61515	-39.05616	-27.66478	0
942	2.44101	-91.13104	-93.57205	43.93818	46.37919	-91.13104	-15.45973	-44.75185	-39.86983	-39.05616	-41.49717	-30.10579	0
943	7.32303	-86.24902	-93.57205	39.05616	48.8202	-88.69003	-20.34175	-52.07488	-42.31084	-39.05616	-39.05616	-27.66478	0
944	19.52808	-74.04397	-93.57205	26.85111	56.14323	-83.80801	-27.66478	-59.39791	-44.75185	-41.49717	-36.61515	-25.22377	0
945	17.08707	-64.27993	-81.367	21.96909	48.8202	-71.60296	-32.5468	-59.39791	-44.75185	-39.05616	-34.17414	-22.78276	0
946	17.08707	-56.9569	-74.04397	19.52808	43.93818	-64.27993	-37.42882	-56.9569	-44.75185	-36.61515	-31.73313	-19.52808	0
947	26.85111	-42.31084	-69.16195	6.50936	46.37919	-54.51589	-39.86983	-54.51589	-42.31084	-34.17414	-29.29212	-14.64606	0
948	31.73313	-27.66478	-59.39791	-3.25468	43.93818	-42.31084	-39.86983	-47.19286	-37.42882	-28.47845	-21.15542	-7.32303	0
949	29.29212	-20.34175	-49.63387	-5.69569	39.05616	-34.98781	-44.75185	-47.19286	-34.98781	-26.03744	-16.2734	-2.44101	0
950	26.85111	-14.64606	-42.31084	-5.69569	34.17414	-27.66478	-47.19286	-47.19286	-30.10579	-21.15542	-11.39138	2.44101	0
951	31.73313	-9.76404	-42.31084	-10.57771	36.61515	-25.22377	-54.51589	-52.07488	-30.10579	-18.71441	-11.39138	2.44101	0
952	48.8202	2.44101	-47.19286	-25.22377	48.8202	-22.78276	-61.83892	-59.39791	-30.10579	-18.71441	-11.39138	4.88202	0
953	56.14323	9.76404	-47.19286	-32.5468	51.26121	-17.08707	-69.16195	-66.72094	-30.10579	-16.2734	-8.95037	7.32303	0
954	63.46626	17.08707	-47.19286	-39.86983	56.14323	-14.64606	-76.48498	-71.60296	-32.5468	-16.2734	-6.50936	9.76404	0
955	75.67131	26.85111	-49.63387	-52.07488	63.46626	-9.76404	-83.80801	-74.04397	-34.98781	-18.71441	-6.50936	12.20505	0
956	82.99434	31.73313	-52.07488	-56.9569	68.34828	-9.76404	-86.24902	-71.60296	-34.98781	-18.71441	-6.50936	12.20505	0
957	68.34828	21.96909	-47.19286	-44.75185	58.58424	-12.20505	-93.57205	-66.72094	-37.42882	-23.59643	-6.50936	9.76404	0
958	51.26121	9.76404	-42.31084	-30.10579	46.37919	-14.64606	-93.57205	-64.27993	-34.98781	-23.59643	-6.50936	12.20505	0
959	43.93818	7.32303	-37.42882	-25.22377	41.49717	-14.64606	-88.69003	-56.9569	-30.10579	-18.71441	-4.06835	17.08707	0
960	41.49717	4.88202	-37.42882	-22.78276	39.05616	-14.64606	-86.24902	-54.51589	-30.10579	-16.2734	-1.62734	17.08707	0
961	34.17414	0	-34.98781	-17.90074	34.17414	-17.08707	-86.24902	-52.07488	-26.85111	-13.83239	0.81367	19.52808	0
962	36.61515	2.44101	-34.98781	-20.34175	36.61515	-14.64606	-81.367	-49.63387	-19.52808	-6.50936	8.1367	24.4101	0
963	53.70222	19.52808	-34.98781	-37.42882	43.93818	-7.32303	-69.16195	-44.75185	-9.76404	3.25468	17.90074	34.17414	0
964	70.78929	36.61515	-34.98781	-54.51589	53.70222	2.44101	-61.83892	-39.86983	-2.44101	8.1367	22.78276	41.49717	0
965	80.55333	39.05616	-42.31084	-59.39791	61.02525	0	-59.39791	-39.86983	-4.88202	5.69569	20.34175	39.05616	0
966	73.2303	21.96909	-52.07488	-47.19286	63.46626	-14.64606	-59.39791	-39.86983	-9.76404	0.81367	13.01872	29.29212	0
967	68.34828	14.64606	-54.51589	-42.31084	61.02525	-20.34175	-49.63387	-30.10579	-9.76404	-1.62734	10.57771	26.85111	0
968	65.90727	-2.44101	-69.16195	-32.5468	68.34828	-34.98781	-47.19286	-27.66478	-12.20505	-8.95037	5.69569	17.08707	0
969	58.58424	-20.34175	-78.92599	-20.34175	68.34828	-49.63387	-44.75185	-27.66478	-19.52808	-16.2734	-4.06835	9.76404	0
970	48.8202	-44.75185	-93.57205	-3.25468	70.78929	-69.16195	-47.19286	-37.42882	-30.10579	-28.47845	-13.83239	-2.44101	0
971	31.73313	-66.72094	-98.45407	17.08707	63.46626	-81.367	-47.19286	-42.31084	-34.98781	-36.61515	-21.15542	-9.76404	0
972	19.52808	-81.367	-100.89508	29.29212	58.58424	-91.13104	-47.19286	-47.19286	-42.31084	-43.93818	-29.29212	-17.08707	0
973	12.20505	-91.13104	-103.33609	39.05616	56.14323	-96.01306	-47.19286	-56.9569	-49.63387	-51.26121	-34.17414	-22.78276	0
974	7.32303	-96.01306	-103.33609	43.93818	53.70222	-98.45407	-47.19286	-66.72094	-59.39791	-61.02525	-41.49717	-27.66478	0
975	-8.1367	-110.65912	-103.33609	58.58424	46.37919	-108.21811	-47.19286	-74.04397	-71.60296	-70.78929	-53.70222	-37.42882	0
976	-25.22377	-127.74619	-103.33609	75.67131	39.05616	-115.54114	-52.07488	-81.367	-83.80801	-82.99434	-65.90727	-49.63387	0
977	-22.78276	-130.1872	-108.21811	75.67131	41.49717	-120.42316	-52.07488	-81.367	-86.24902	-85.43535	-70.78929	-52.07488	0
978	-13.01872	-127.74619	-115.54114	68.34828	51.26121	-122.86417	-49.63387	-78.92599	-86.24902	-85.43535	-70.78929	-52.07488	0
979	-5.69569	-120.42316	-115.54114	61.02525	53.70222	-117.98215	-44.75185	-71.60296	-83.80801	-82.99434	-68.34828	-49.63387	0
