samplenr	I	II	III	aVR	aVL	aVF	V1	V2	V3	V4	V5	V6	measurement
0	63.46626	-144.01959	-207.48585	39.05616	135.06922	-174.93905	10.57771	117.98215	192.83979	336.04571	453.21419	142.39225	0
1	65.90727	-146.4606	-212.36787	39.05616	137.51023	-179.82107	10.57771	113.10013	190.39878	333.6047	450.77318	142.39225	0
2	68.34828	-153.78363	-222.13191	41.49717	144.83326	-187.1441	13.01872	113.10013	183.07575	331.16369	450.77318	147.27427	0
3	70.78929	-156.22464	-227.01393	41.49717	147.27427	-192.02612	13.01872	108.21811	175.75272	328.72268	453.21419	149.71528	0
4	75.67131	-158.66565	-234.33696	41.49717	154.5973	-196.90814	15.45973	108.21811	170.8707	328.72268	450.77318	152.15629	0
5	75.67131	-158.66565	-234.33696	41.49717	154.5973	-196.90814	17.90074	108.21811	168.42969	326.28167	453.21419	154.5973	0
6	78.11232	-161.10666	-239.21898	41.49717	157.03831	-199.34915	17.90074	108.21811	168.42969	326.28167	458.09621	159.47932	0
7	78.11232	-161.10666	-239.21898	41.49717	157.03831	-199.34915	20.34175	108.21811	168.42969	326.28167	458.09621	159.47932	0
8	78.11232	-158.66565	-236.77797	39.05616	157.03831	-196.90814	22.78276	113.10013	168.42969	326.28167	458.09621	161.92033	0
9	78.11232	-153.78363	-231.89595	36.61515	154.5973	-192.02612	25.22377	120.42316	168.42969	326.28167	460.53722	161.92033	0
10	78.11232	-148.90161	-227.01393	34.17414	152.15629	-187.1441	27.66478	122.86417	168.42969	331.16369	462.97823	161.92033	0
11	75.67131	-146.4606	-222.13191	34.17414	147.27427	-184.70309	30.10579	120.42316	165.98868	333.6047	467.86025	164.36134	0
12	70.78929	-146.4606	-217.24989	36.61515	142.39225	-182.26208	30.10579	122.86417	165.98868	333.6047	470.30126	166.80235	0
13	68.34828	-146.4606	-214.80888	39.05616	139.95124	-179.82107	32.5468	125.30518	165.98868	333.6047	472.74227	166.80235	0
14	63.46626	-146.4606	-209.92686	41.49717	135.06922	-177.38006	32.5468	130.1872	168.42969	336.04571	470.30126	166.80235	0
15	58.58424	-144.01959	-202.60383	41.49717	130.1872	-172.49804	32.5468	130.1872	168.42969	333.6047	470.30126	164.36134	0
16	56.14323	-146.4606	-202.60383	43.93818	127.74619	-174.93905	34.98781	132.62821	168.42969	331.16369	470.30126	164.36134	0
17	51.26121	-151.34262	-202.60383	48.8202	125.30518	-177.38006	34.98781	135.06922	170.8707	328.72268	465.41924	159.47932	0
18	48.8202	-153.78363	-202.60383	51.26121	125.30518	-177.38006	39.86983	139.95124	173.31171	326.28167	460.53722	154.5973	0
19	46.37919	-156.22464	-202.60383	53.70222	122.86417	-179.82107	42.31084	149.71528	170.8707	326.28167	458.09621	149.71528	0
20	43.93818	-158.66565	-202.60383	56.14323	122.86417	-179.82107	49.63387	152.15629	170.8707	328.72268	458.09621	144.83326	0
21	43.93818	-161.10666	-205.04484	58.58424	122.86417	-182.26208	54.51589	152.15629	170.8707	331.16369	458.09621	144.83326	0
22	41.49717	-161.10666	-202.60383	58.58424	120.42316	-182.26208	54.51589	152.15629	168.42969	328.72268	458.09621	144.83326	0
23	41.49717	-163.54767	-205.04484	61.02525	122.86417	-184.70309	56.9569	152.15629	165.98868	326.28167	458.09621	144.83326	0
24	41.49717	-163.54767	-205.04484	61.02525	122.86417	-184.70309	59.39791	149.71528	165.98868	326.28167	455.6552	144.83326	0
25	41.49717	-161.10666	-202.60383	58.58424	120.42316	-182.26208	59.39791	149.71528	163.54767	326.28167	455.6552	144.83326	0
26	41.49717	-161.10666	-202.60383	58.58424	120.42316	-182.26208	59.39791	147.27427	163.54767	323.84066	455.6552	144.83326	0
27	41.49717	-163.54767	-205.04484	61.02525	122.86417	-184.70309	59.39791	147.27427	165.98868	321.39965	455.6552	144.83326	0
28	41.49717	-163.54767	-205.04484	61.02525	122.86417	-184.70309	64.27993	149.71528	165.98868	316.51763	450.77318	147.27427	0
29	41.49717	-163.54767	-205.04484	61.02525	122.86417	-184.70309	66.72094	154.5973	165.98868	318.95864	450.77318	144.83326	0
30	43.93818	-161.10666	-205.04484	58.58424	122.86417	-182.26208	74.04397	154.5973	165.98868	321.39965	450.77318	144.83326	0
31	43.93818	-161.10666	-205.04484	58.58424	122.86417	-182.26208	76.48498	152.15629	165.98868	321.39965	450.77318	144.83326	0
32	43.93818	-158.66565	-202.60383	56.14323	122.86417	-179.82107	81.367	152.15629	165.98868	321.39965	453.21419	142.39225	0
33	43.93818	-158.66565	-202.60383	56.14323	122.86417	-179.82107	83.80801	152.15629	163.54767	321.39965	455.6552	142.39225	0
34	43.93818	-156.22464	-200.16282	56.14323	120.42316	-177.38006	86.24902	152.15629	163.54767	321.39965	453.21419	142.39225	0
35	43.93818	-153.78363	-197.72181	53.70222	120.42316	-174.93905	88.69003	149.71528	163.54767	318.95864	453.21419	139.95124	0
36	43.93818	-151.34262	-195.2808	53.70222	117.98215	-172.49804	88.69003	144.83326	163.54767	318.95864	453.21419	137.51023	0
37	41.49717	-148.90161	-190.39878	53.70222	115.54114	-170.05703	88.69003	142.39225	163.54767	314.07662	448.33217	135.06922	0
38	41.49717	-148.90161	-190.39878	53.70222	115.54114	-170.05703	91.13104	142.39225	163.54767	314.07662	443.45015	132.62821	0
39	41.49717	-148.90161	-190.39878	53.70222	115.54114	-170.05703	96.01306	147.27427	163.54767	318.95864	443.45015	127.74619	0
40	41.49717	-146.4606	-187.95777	51.26121	113.10013	-167.61602	98.45407	147.27427	161.10666	328.72268	443.45015	125.30518	0
41	41.49717	-144.01959	-185.51676	51.26121	113.10013	-165.17501	100.89508	142.39225	161.10666	338.48672	443.45015	122.86417	0
42	41.49717	-144.01959	-185.51676	51.26121	113.10013	-165.17501	103.33609	142.39225	161.10666	348.25076	443.45015	122.86417	0
43	43.93818	-144.01959	-187.95777	48.8202	115.54114	-165.17501	108.21811	139.95124	161.10666	360.45581	443.45015	122.86417	0
44	43.93818	-141.57858	-185.51676	48.8202	113.10013	-162.734	110.65912	139.95124	158.66565	370.21985	443.45015	120.42316	0
45	43.93818	-141.57858	-185.51676	48.8202	113.10013	-162.734	110.65912	137.51023	158.66565	379.98389	443.45015	120.42316	0
46	41.49717	-141.57858	-183.07575	48.8202	110.65912	-162.734	110.65912	137.51023	158.66565	389.74793	443.45015	120.42316	0
47	39.05616	-141.57858	-180.63474	51.26121	108.21811	-160.29299	110.65912	135.06922	158.66565	394.62995	438.56813	117.98215	0
48	39.05616	-141.57858	-180.63474	51.26121	108.21811	-160.29299	110.65912	135.06922	158.66565	394.62995	433.68611	115.54114	0
49	36.61515	-141.57858	-178.19373	51.26121	105.7771	-160.29299	110.65912	139.95124	156.22464	399.51197	431.2451	113.10013	0
50	36.61515	-141.57858	-178.19373	51.26121	105.7771	-160.29299	115.54114	139.95124	153.78363	404.39399	431.2451	110.65912	0
51	36.61515	-139.13757	-175.75272	51.26121	105.7771	-157.85198	115.54114	137.51023	153.78363	409.27601	431.2451	108.21811	0
52	36.61515	-139.13757	-175.75272	51.26121	105.7771	-157.85198	115.54114	137.51023	153.78363	411.71702	431.2451	108.21811	0
53	36.61515	-139.13757	-175.75272	51.26121	105.7771	-157.85198	117.98215	137.51023	151.34262	414.15803	431.2451	108.21811	0
54	36.61515	-136.69656	-173.31171	48.8202	103.33609	-155.41097	117.98215	135.06922	151.34262	414.15803	431.2451	105.7771	0
55	36.61515	-134.25555	-170.8707	48.8202	103.33609	-152.96996	120.42316	132.62821	148.90161	414.15803	431.2451	105.7771	0
56	36.61515	-129.37353	-165.98868	46.37919	100.89508	-148.08794	120.42316	130.1872	148.90161	414.15803	431.2451	105.7771	0
57	36.61515	-129.37353	-165.98868	46.37919	100.89508	-148.08794	120.42316	127.74619	148.90161	409.27601	428.80409	103.33609	0
58	36.61515	-126.93252	-163.54767	43.93818	98.45407	-145.64693	120.42316	127.74619	151.34262	406.835	423.92207	103.33609	0
59	36.61515	-124.49151	-161.10666	43.93818	98.45407	-143.20592	122.86417	130.1872	148.90161	404.39399	423.92207	98.45407	0
60	36.61515	-122.0505	-158.66565	41.49717	96.01306	-140.76491	125.30518	130.1872	146.4606	401.95298	421.48106	96.01306	0
61	36.61515	-117.16848	-153.78363	39.05616	93.57205	-135.88289	127.74619	127.74619	144.01959	399.51197	421.48106	93.57205	0
62	36.61515	-117.16848	-153.78363	39.05616	93.57205	-135.88289	127.74619	125.30518	144.01959	399.51197	421.48106	93.57205	0
63	36.61515	-117.16848	-153.78363	39.05616	93.57205	-135.88289	130.1872	125.30518	144.01959	397.07096	423.92207	93.57205	0
64	34.17414	-117.16848	-151.34262	41.49717	91.13104	-133.44188	132.62821	122.86417	144.01959	394.62995	421.48106	93.57205	0
65	34.17414	-117.16848	-151.34262	41.49717	91.13104	-133.44188	132.62821	120.42316	144.01959	394.62995	421.48106	93.57205	0
66	34.17414	-114.72747	-148.90161	39.05616	91.13104	-131.00087	132.62821	117.98215	144.01959	389.74793	421.48106	93.57205	0
67	31.73313	-114.72747	-146.4606	41.49717	88.69003	-131.00087	132.62821	115.54114	146.4606	384.86591	421.48106	93.57205	0
68	31.73313	-114.72747	-146.4606	41.49717	88.69003	-131.00087	132.62821	115.54114	146.4606	382.4249	416.59904	93.57205	0
69	31.73313	-114.72747	-146.4606	41.49717	88.69003	-131.00087	135.06922	117.98215	146.4606	379.98389	416.59904	91.13104	0
70	31.73313	-117.16848	-148.90161	41.49717	88.69003	-133.44188	137.51023	117.98215	144.01959	379.98389	416.59904	88.69003	0
71	31.73313	-112.28646	-144.01959	39.05616	86.24902	-128.55986	137.51023	115.54114	144.01959	377.54288	416.59904	86.24902	0
72	31.73313	-109.84545	-141.57858	39.05616	86.24902	-126.11885	137.51023	113.10013	144.01959	372.66086	419.04005	83.80801	0
73	31.73313	-109.84545	-141.57858	39.05616	86.24902	-126.11885	137.51023	110.65912	144.01959	372.66086	419.04005	83.80801	0
74	31.73313	-107.40444	-139.13757	36.61515	83.80801	-123.67784	137.51023	110.65912	144.01959	370.21985	419.04005	83.80801	0
75	31.73313	-104.96343	-136.69656	36.61515	83.80801	-121.23683	137.51023	105.7771	144.01959	367.77884	419.04005	81.367	0
76	29.29212	-104.96343	-134.25555	36.61515	81.367	-118.79582	137.51023	100.89508	146.4606	362.89682	419.04005	81.367	0
77	29.29212	-104.96343	-134.25555	36.61515	81.367	-118.79582	137.51023	98.45407	148.90161	358.0148	416.59904	78.92599	0
78	29.29212	-104.96343	-134.25555	36.61515	81.367	-118.79582	139.95124	98.45407	148.90161	353.13278	414.15803	78.92599	0
79	29.29212	-102.52242	-131.81454	36.61515	78.92599	-116.35481	144.83326	98.45407	148.90161	353.13278	411.71702	74.04397	0
80	29.29212	-100.08141	-129.37353	34.17414	78.92599	-113.9138	147.27427	98.45407	146.4606	353.13278	411.71702	71.60296	0
81	31.73313	-97.6404	-129.37353	31.73313	78.92599	-113.9138	152.15629	96.01306	146.4606	353.13278	414.15803	69.16195	0
82	31.73313	-97.6404	-129.37353	31.73313	78.92599	-113.9138	157.03831	96.01306	144.01959	350.69177	414.15803	69.16195	0
83	31.73313	-95.19939	-126.93252	31.73313	78.92599	-111.47279	159.47932	93.57205	144.01959	350.69177	416.59904	69.16195	0
84	34.17414	-92.75838	-126.93252	29.29212	78.92599	-109.03178	164.36134	93.57205	144.01959	350.69177	414.15803	69.16195	0
85	36.61515	-90.31737	-126.93252	26.85111	81.367	-109.03178	166.80235	91.13104	144.01959	353.13278	414.15803	71.60296	0
86	36.61515	-87.87636	-124.49151	24.4101	78.92599	-106.59077	166.80235	88.69003	144.01959	353.13278	414.15803	71.60296	0
87	39.05616	-85.43535	-124.49151	21.96909	81.367	-104.14976	166.80235	86.24902	144.01959	348.25076	411.71702	71.60296	0
88	39.05616	-82.99434	-122.0505	21.96909	78.92599	-101.70875	164.36134	86.24902	144.01959	345.80975	406.835	71.60296	0
89	39.05616	-82.99434	-122.0505	21.96909	78.92599	-101.70875	164.36134	91.13104	144.01959	345.80975	404.39399	69.16195	0
90	39.05616	-78.11232	-117.16848	19.52808	76.48498	-96.82673	164.36134	91.13104	141.57858	345.80975	401.95298	69.16195	0
91	39.05616	-75.67131	-114.72747	17.08707	76.48498	-94.38572	164.36134	88.69003	141.57858	345.80975	401.95298	66.72094	0
92	39.05616	-73.2303	-112.28646	17.08707	74.04397	-91.94471	164.36134	86.24902	139.13757	345.80975	399.51197	66.72094	0
93	39.05616	-73.2303	-112.28646	17.08707	74.04397	-91.94471	164.36134	86.24902	139.13757	345.80975	399.51197	66.72094	0
94	39.05616	-75.67131	-114.72747	17.08707	76.48498	-94.38572	164.36134	88.69003	139.13757	348.25076	397.07096	66.72094	0
95	36.61515	-75.67131	-112.28646	19.52808	74.04397	-94.38572	164.36134	86.24902	139.13757	350.69177	392.18894	61.83892	0
96	34.17414	-80.55333	-114.72747	21.96909	74.04397	-96.82673	169.24336	86.24902	141.57858	350.69177	384.86591	56.9569	0
97	34.17414	-85.43535	-119.60949	24.4101	76.48498	-101.70875	174.12538	88.69003	144.01959	345.80975	372.66086	44.75185	0
98	29.29212	-92.75838	-122.0505	31.73313	74.04397	-106.59077	179.0074	96.01306	151.34262	343.36874	358.0148	32.5468	0
99	29.29212	-100.08141	-129.37353	34.17414	78.92599	-113.9138	186.33043	108.21811	158.66565	348.25076	348.25076	34.98781	0
100	26.85111	-109.84545	-136.69656	41.49717	81.367	-123.67784	196.09447	125.30518	170.8707	355.57379	338.48672	3.25468	1000	P+0
101	24.4101	-124.49151	-148.90161	48.8202	86.24902	-135.88289	205.85851	117.98215	158.66565	309.1946	279.90248	-41.49717	0
102	24.4101	-136.69656	-161.10666	56.14323	91.13104	-148.08794	210.74053	159.47932	180.63474	348.25076	292.10753	-63.46626	0
103	24.4101	-153.78363	-178.19373	63.46626	100.89508	-165.17501	213.18154	193.65346	202.60383	409.27601	331.16369	-85.43535	0
104	26.85111	-173.31171	-200.16282	73.2303	113.10013	-187.1441	213.18154	196.09447	251.42403	423.92207	345.80975	-68.34828	0
105	34.17414	-192.83979	-227.01393	78.11232	130.1872	-209.11319	205.85851	232.70962	246.54201	428.80409	365.33783	-43.93818	0
106	41.49717	-205.04484	-246.54201	80.55333	142.39225	-226.20026	198.53548	247.35568	273.39312	414.15803	372.66086	-1.62734	0
107	53.70222	-219.6909	-273.39312	82.99434	161.92033	-245.72834	183.88942	213.18154	305.12625	448.33217	355.57379	32.5468	0
108	68.34828	-231.89595	-300.24423	80.55333	183.88942	-265.25642	169.24336	291.29386	341.7414	487.38833	602.1158	257.11972	0
109	82.99434	-236.77797	-319.77231	75.67131	200.97649	-277.46147	152.15629	327.90901	378.35655	538.64954	707.07923	318.14497	0
110	100.08141	-234.33696	-334.41837	65.90727	215.62255	-284.7845	137.51023	362.08315	412.53069	589.91075	824.24771	506.10274	0
111	117.16848	-229.45494	-346.62342	56.14323	230.26861	-287.22551	125.30518	408.46234	478.43796	677.78711	1002.44144	684.29647	0
112	134.25555	-229.45494	-363.71049	46.37919	247.35568	-296.98955	113.10013	486.57466	539.46321	777.86852	1153.78406	818.55202	0
113	151.34262	-231.89595	-383.23857	39.05616	266.88376	-306.75359	100.89508	528.07183	571.19634	855.98084	1280.71658	921.07444	0
114	170.8707	-175.75272	-346.62342	1.62734	257.11972	-260.3744	86.24902	513.42577	598.04745	848.65781	1285.5986	952.80757	0
115	175.75272	-207.48585	-383.23857	14.64606	279.08881	-294.54854	74.04397	525.63082	554.10927	763.22246	1153.78406	845.40313	0
116	183.07575	-256.30605	-439.3818	36.61515	310.82194	-348.25076	59.39791	530.51284	510.17109	631.40792	951.18023	691.6195	0
117	202.60383	-295.36221	-497.96604	46.37919	349.8781	-397.07096	42.31084	496.3387	451.58685	514.23944	702.19721	503.66173	0
118	219.6909	-307.56726	-527.25816	43.93818	371.84719	-416.59904	20.34175	501.22072	454.02786	511.79843	597.23378	401.13931	0
119	236.77797	-307.56726	-544.34523	34.17414	388.93426	-426.36308	0.81367	501.22072	454.02786	506.91641	509.35742	327.90901	0
120	239.21898	-280.71615	-519.93513	19.52808	379.17022	-399.51197	-18.71441	491.45668	454.02786	570.38267	580.14671	337.67305	0
121	231.89595	-178.19373	-410.08968	-27.66478	320.58598	-294.54854	-26.85111	476.81062	468.67392	851.09882	704.63822	396.25729	0
122	236.77797	-56.14323	-292.9212	-91.13104	264.44275	-174.93905	-6.50936	484.13365	539.46321	877.94993	1065.9077	476.81062	0
123	239.21898	59.39791	-180.63474	-149.71528	210.74053	-60.21158	10.57771	503.66173	622.45755	1122.05093	1148.90204	606.18415	0
124	236.77797	193.65346	-43.93818	-215.62255	139.95124	74.85764	39.86983	618.3892	829.9434	1417.41314	1488.20243	833.19808	0
125	236.77797	310.82194	74.04397	-274.20679	81.367	192.02612	74.04397	684.29647	912.93774	1576.07879	1794.95602	1091.94514	0
126	217.24989	423.1084	205.85851	-320.58598	5.69569	314.07662	139.95124	762.40879	1086.24945	1703.01131	2051.26207	1331.16412	0
127	214.80888	547.59991	332.79103	-381.61123	-58.58424	441.00914	210.74053	840.52111	1254.67914	1731.48976	2241.66085	1594.7932	0
128	190.39878	615.94819	425.54941	-403.58032	-117.16848	521.56247	305.93992	977.21767	1432.87287	1666.39616	2339.30125	1803.90639	0
129	148.90161	630.59425	481.69264	-388.93426	-165.98868	555.73661	384.05224	1069.97605	1528.07226	1336.85981	2122.05136	1913.75184	0
130	136.69656	655.00435	518.30779	-396.25729	-190.39878	587.46974	452.40052	1157.85241	1589.09751	1087.87679	1965.82672	2016.27426	0
131	104.96343	679.41445	574.45102	-391.37527	-234.33696	626.5259	481.69264	1104.15019	1498.78014	770.54549	1593.16586	1945.48497	0
132	48.8202	691.6195	642.7993	-369.40618	-297.80322	668.02307	506.10274	979.65868	1252.23813	287.22551	843.77579	1521.5629	0
133	-22.78276	696.50152	718.47061	-337.67305	-371.03352	707.07923	542.71789	811.22899	959.31693	-150.52895	-1.62734	842.96212	0
134	-81.367	740.4397	820.99303	-330.35002	-451.58685	780.30953	552.48193	596.42011	864.11754	-414.15803	-492.27035	366.96517	0
135	-135.06922	742.88071	877.13626	-303.49891	-505.28907	809.60165	515.86678	435.31345	485.76099	-604.55681	-790.07357	-85.43535	0
136	-147.27427	591.53809	737.99869	-222.94558	-441.82281	663.14105	542.71789	484.13365	427.17675	-672.90509	-895.037	-351.50544	0
137	-147.27427	437.75446	584.21506	-144.83326	-366.1515	509.35742	586.65607	562.24597	466.23291	-638.73095	-885.27296	-517.49412	0
138	-135.06922	298.61689	432.87244	-81.367	-283.15716	365.33783	591.53809	620.83021	461.35089	-567.94166	-797.3966	-590.72442	0
139	-127.74619	225.38659	352.31911	-49.63387	-239.21898	287.22551	625.71223	635.47627	424.73574	-541.09055	-746.13539	-659.0727	0
140	-147.27427	213.18154	359.64214	-32.5468	-253.86504	284.7845	662.32738	662.32738	390.5616	-580.14671	-738.81236	-727.42098	0
141	-149.71528	193.65346	342.55507	-22.78276	-246.54201	267.69743	694.06051	684.29647	368.59251	-611.87984	-770.54549	-783.56421	0
142	-159.47932	176.56639	335.23204	-8.1367	-246.54201	255.49238	728.23465	818.55202	414.9717	-589.91075	-753.45842	-803.09229	0
143	-154.5973	159.47932	313.26295	-3.25468	-234.33696	235.9643	759.96778	867.37222	478.43796	-509.35742	-670.46408	-771.35916	0
144	-149.71528	142.39225	291.29386	4.06835	-219.6909	216.43622	791.70091	967.45363	519.93513	-450.77318	-606.99782	-717.65694	0
145	-152.15629	98.45407	249.79669	26.85111	-200.16282	172.49804	838.0801	1016.27383	517.49412	-421.48106	-543.53156	-661.51371	0
146	-135.06922	66.72094	200.97649	34.17414	-168.42969	133.44188	872.25424	1079.74009	524.81715	-365.33783	-480.0653	-627.33957	0
147	-127.74619	59.39791	186.33043	34.17414	-156.22464	121.23683	874.69525	1050.44797	493.08402	-299.43056	-423.92207	-593.16543	0
148	-127.74619	78.92599	205.85851	24.4101	-165.98868	140.76491	874.69525	1040.68393	454.02786	-262.81541	-382.4249	-558.99129	0
149	-122.86417	76.48498	198.53548	21.96909	-161.10666	135.88289	869.81323	1028.47888	402.76665	-231.08228	-343.36874	-529.69917	0
150	-117.98215	78.92599	196.09447	19.52808	-156.22464	135.88289	869.81323	1021.15585	353.94645	-206.67218	-301.87157	-507.73008	0
151	-113.10013	88.69003	200.97649	12.20505	-156.22464	143.20592	857.60818	969.89464	297.80322	-174.93905	-282.34349	-480.87897	0
152	-110.65912	100.89508	210.74053	4.06835	-161.10666	155.41097	823.43404	879.57727	212.36787	-150.52895	-253.05137	-471.11493	0
153	-108.21811	113.10013	220.50457	-3.25468	-163.54767	165.17501	789.2599	755.08576	104.96343	-143.20592	-221.31824	-466.23291	0
154	-105.7771	125.30518	230.26861	-10.57771	-168.42969	177.38006	755.08576	601.30213	39.05616	-138.3239	-201.79016	-439.3818	0
155	-105.7771	139.95124	244.91467	-17.90074	-175.75272	192.02612	681.85546	442.63648	-32.5468	-143.20592	-177.38006	-436.94079	0
156	-103.33609	152.15629	254.67871	-25.22377	-178.19373	201.79016	613.50718	288.85285	-117.98215	-160.29299	-184.70309	-429.61776	0
157	-103.33609	159.47932	262.00174	-27.66478	-183.07575	209.11319	572.01001	127.74619	-183.88942	-167.61602	-189.58511	-422.29473	0
158	-103.33609	164.36134	266.88376	-30.10579	-185.51676	213.99521	530.51284	3.25468	-235.15063	-174.93905	-184.70309	-414.9717	0
159	-100.89508	166.80235	266.88376	-32.5468	-183.07575	216.43622	464.60557	-107.40444	-291.29386	-174.93905	-177.38006	-407.64867	0
160	-100.89508	166.80235	266.88376	-32.5468	-183.07575	216.43622	401.13931	-170.8707	-325.468	-174.93905	-167.61602	-400.32564	0
161	-98.45407	169.24336	266.88376	-34.98781	-183.07575	216.43622	330.35002	-217.24989	-344.99608	-174.93905	-157.85198	-393.00261	0
162	-93.57205	166.80235	259.56073	-37.42882	-175.75272	211.5542	266.88376	-251.42403	-359.64214	-174.93905	-148.08794	-383.23857	0
163	-88.69003	159.47932	247.35568	-34.98781	-168.42969	201.79016	208.29952	-280.71615	-384.05224	-177.38006	-140.76491	-373.47453	0
164	-86.24902	149.71528	235.15063	-32.5468	-161.10666	192.02612	174.12538	-307.56726	-357.20113	-174.93905	-131.00087	-366.1515	0
165	-81.367	139.95124	220.50457	-30.10579	-151.34262	179.82107	139.95124	-300.24423	-337.67305	-174.93905	-126.11885	-356.38746	0
166	-78.92599	135.06922	213.18154	-27.66478	-146.4606	172.49804	122.86417	-288.03918	-344.99608	-172.49804	-118.79582	-349.06443	0
167	-71.60296	127.74619	198.53548	-27.66478	-134.25555	162.734	66.72094	-307.56726	-337.67305	-170.05703	-113.9138	-341.7414	0
168	-69.16195	122.86417	191.21245	-27.66478	-129.37353	155.41097	59.39791	-310.00827	-327.90901	-170.05703	-113.9138	-334.41837	0
169	-64.27993	115.54114	179.0074	-25.22377	-122.0505	145.64693	59.39791	-288.03918	-323.02699	-167.61602	-109.03178	-334.41837	0
170	-59.39791	113.10013	171.68437	-27.66478	-114.72747	140.76491	56.9569	-285.59817	-318.14497	-162.734	-104.14976	-329.53635	0
171	-56.9569	108.21811	164.36134	-25.22377	-109.84545	135.88289	44.75185	-283.15716	-310.82194	-160.29299	-96.82673	-324.65433	0
172	-54.51589	100.89508	154.5973	-22.78276	-104.96343	126.11885	47.19286	-280.71615	-303.49891	-155.41097	-89.5037	-317.3313	0
173	-49.63387	98.45407	147.27427	-25.22377	-97.6404	121.23683	42.31084	-280.71615	-296.17588	-150.52895	-82.18067	-312.44928	0
174	-47.19286	98.45407	144.83326	-25.22377	-95.19939	121.23683	32.5468	-283.15716	-291.29386	-148.08794	-77.29865	-307.56726	0
175	-44.75185	98.45407	142.39225	-27.66478	-92.75838	118.79582	25.22377	-288.03918	-291.29386	-148.08794	-77.29865	-305.12625	0
176	-44.75185	98.45407	142.39225	-27.66478	-92.75838	118.79582	15.45973	-292.9212	-288.85285	-148.08794	-74.85764	-302.68524	0
177	-42.31084	98.45407	139.95124	-27.66478	-90.31737	118.79582	5.69569	-297.80322	-286.41184	-152.96996	-77.29865	-302.68524	0
178	-42.31084	96.01306	137.51023	-27.66478	-90.31737	116.35481	-1.62734	-302.68524	-286.41184	-160.29299	-82.18067	-302.68524	0
179	-44.75185	91.13104	135.06922	-22.78276	-90.31737	111.47279	-8.95037	-302.68524	-288.85285	-162.734	-84.62168	-307.56726	0
180	-44.75185	93.57205	137.51023	-25.22377	-90.31737	113.9138	-13.83239	-307.56726	-293.73487	-165.17501	-87.06269	-310.00827	0
181	-44.75185	96.01306	139.95124	-25.22377	-92.75838	116.35481	-18.71441	-314.89029	-298.61689	-170.05703	-89.5037	-310.00827	0
182	-44.75185	98.45407	142.39225	-27.66478	-92.75838	118.79582	-24.4101	-319.77231	-303.49891	-174.93905	-89.5037	-312.44928	0
183	-44.75185	98.45407	142.39225	-27.66478	-92.75838	118.79582	-24.4101	-324.65433	-308.38093	-182.26208	-91.94471	-314.89029	0
184	-49.63387	96.01306	144.83326	-22.78276	-97.6404	118.79582	-29.29212	-329.53635	-313.26295	-187.1441	-96.82673	-317.3313	0
185	-52.07488	96.01306	147.27427	-22.78276	-100.08141	121.23683	-31.73313	-336.85938	-318.14497	-194.46713	-101.70875	-319.77231	0
186	-54.51589	96.01306	149.71528	-20.34175	-102.52242	121.23683	-36.61515	-344.18241	-323.02699	-204.23117	-109.03178	-322.21332	0
187	-59.39791	96.01306	154.5973	-17.90074	-107.40444	123.67784	-43.93818	-351.50544	-330.35002	-216.43622	-116.35481	-327.09534	0
188	-61.83892	96.01306	157.03831	-17.90074	-109.84545	126.11885	-48.8202	-356.38746	-330.35002	-226.20026	-126.11885	-329.53635	0
189	-61.83892	100.89508	161.92033	-20.34175	-112.28646	131.00087	-53.70222	-356.38746	-337.67305	-233.52329	-133.44188	-334.41837	0
190	-61.83892	105.7771	166.80235	-22.78276	-114.72747	135.88289	-53.70222	-358.82847	-342.55507	-238.40531	-135.88289	-336.85938	0
191	-61.83892	108.21811	169.24336	-22.78276	-114.72747	138.3239	-56.14323	-366.1515	-347.43709	-243.28733	-140.76491	-341.7414	0
192	-61.83892	113.10013	174.12538	-25.22377	-117.16848	143.20592	-58.58424	-371.03352	-352.31911	-253.05137	-143.20592	-341.7414	0
193	-61.83892	113.10013	174.12538	-25.22377	-117.16848	143.20592	-58.58424	-373.47453	-354.76012	-257.93339	-145.64693	-341.7414	0
194	-61.83892	115.54114	176.56639	-27.66478	-119.60949	145.64693	-58.58424	-380.79756	-359.64214	-265.25642	-150.52895	-344.18241	0
195	-61.83892	120.42316	181.44841	-30.10579	-122.0505	150.52895	-58.58424	-385.67958	-364.52416	-272.57945	-155.41097	-346.62342	0
196	-59.39791	125.30518	183.88942	-32.5468	-122.0505	152.96996	-56.14323	-393.00261	-369.40618	-279.90248	-160.29299	-346.62342	0
197	-61.83892	125.30518	186.33043	-32.5468	-124.49151	155.41097	-58.58424	-400.32564	-374.2882	-292.10753	-167.61602	-351.50544	0
198	-64.27993	125.30518	188.77144	-30.10579	-126.93252	155.41097	-58.58424	-405.20766	-376.72921	-304.31258	-177.38006	-353.94645	0
199	-69.16195	127.74619	196.09447	-30.10579	-131.81454	160.29299	-58.58424	-407.64867	-384.05224	-311.63561	-187.1441	-361.26948	0
200	-69.16195	127.74619	196.09447	-30.10579	-131.81454	160.29299	-58.58424	-412.53069	-388.93426	-318.95864	-192.02612	-368.59251	0
201	-71.60296	132.62821	203.4175	-30.10579	-136.69656	167.61602	-61.02525	-419.85372	-396.25729	-326.28167	-196.90814	-373.47453	0
202	-76.48498	137.51023	213.18154	-30.10579	-144.01959	174.93905	-65.90727	-424.73574	-403.58032	-338.48672	-201.79016	-378.35655	0
203	-78.92599	139.95124	218.06356	-30.10579	-148.90161	177.38006	-68.34828	-434.49978	-408.46234	-348.25076	-209.11319	-383.23857	0
204	-81.367	139.95124	220.50457	-30.10579	-151.34262	179.82107	-70.78929	-441.82281	-415.78537	-358.0148	-216.43622	-390.5616	0
205	-83.80801	139.95124	222.94558	-27.66478	-153.78363	179.82107	-73.2303	-451.58685	-420.66739	-367.77884	-223.75925	-395.44362	0
206	-86.24902	142.39225	227.8276	-27.66478	-156.22464	184.70309	-78.11232	-461.35089	-427.99042	-379.98389	-231.08228	-402.76665	0
207	-88.69003	144.83326	232.70962	-27.66478	-161.10666	187.1441	-80.55333	-468.67392	-432.87244	-392.18894	-240.84632	-407.64867	0
208	-88.69003	147.27427	235.15063	-30.10579	-161.10666	189.58511	-85.43535	-475.99695	-437.75446	-406.835	-253.05137	-414.9717	0
209	-93.57205	147.27427	240.03265	-27.66478	-165.98868	192.02612	-90.31737	-480.87897	-445.07749	-416.59904	-262.81541	-422.29473	0
210	-93.57205	149.71528	242.47366	-27.66478	-168.42969	194.46713	-92.75838	-485.76099	-452.40052	-423.92207	-270.13844	-429.61776	0
211	-98.45407	152.15629	249.79669	-27.66478	-173.31171	199.34915	-95.19939	-490.64301	-459.72355	-431.2451	-277.46147	-436.94079	0
212	-98.45407	157.03831	254.67871	-30.10579	-175.75272	204.23117	-102.52242	-497.96604	-467.04658	-441.00914	-284.7845	-441.82281	0
213	-100.89508	159.47932	259.56073	-30.10579	-180.63474	209.11319	-109.84545	-505.28907	-474.36961	-453.21419	-292.10753	-449.14584	0
214	-103.33609	161.92033	264.44275	-30.10579	-183.07575	211.5542	-114.72747	-515.05311	-484.13365	-465.41924	-301.87157	-458.90988	0
215	-105.7771	161.92033	266.88376	-27.66478	-185.51676	213.99521	-119.60949	-524.81715	-491.45668	-475.18328	-311.63561	-463.7919	0
216	-108.21811	164.36134	271.76578	-27.66478	-190.39878	216.43622	-124.49151	-534.58119	-501.22072	-487.38833	-321.39965	-471.11493	0
217	-110.65912	164.36134	274.20679	-27.66478	-192.83979	218.87723	-131.81454	-541.90422	-508.54375	-502.03439	-333.6047	-480.87897	0
218	-113.10013	166.80235	279.08881	-27.66478	-195.2808	221.31824	-136.69656	-549.22725	-513.42577	-516.68045	-348.25076	-488.202	0
219	-115.54114	169.24336	283.97083	-27.66478	-200.16282	226.20026	-141.57858	-554.10927	-523.18981	-526.44449	-358.0148	-500.40705	0
220	-117.98215	171.68437	288.85285	-27.66478	-202.60383	228.64127	-144.01959	-558.99129	-532.95385	-536.20853	-367.77884	-510.17109	0
221	-120.42316	174.12538	293.73487	-27.66478	-207.48585	233.52329	-146.4606	-566.31432	-540.27688	-543.53156	-375.10187	-517.49412	0
222	-120.42316	176.56639	296.17588	-27.66478	-207.48585	235.9643	-151.34262	-573.63735	-547.59991	-555.73661	-379.98389	-524.81715	0
223	-122.86417	179.0074	301.0579	-27.66478	-212.36787	238.40531	-156.22464	-580.96038	-554.92294	-565.50065	-389.74793	-532.14018	0
224	-125.30518	183.88942	308.38093	-30.10579	-217.24989	245.72834	-161.10666	-588.28341	-562.24597	-577.7057	-401.95298	-541.90422	0
225	-127.74619	188.77144	315.70396	-30.10579	-222.13191	250.61036	-165.98868	-598.04745	-569.569	-587.46974	-411.71702	-549.22725	0
226	-130.1872	191.21245	320.58598	-30.10579	-224.57292	255.49238	-170.8707	-607.81149	-579.33304	-602.1158	-423.92207	-558.99129	0
227	-132.62821	191.21245	323.02699	-30.10579	-227.01393	255.49238	-178.19373	-617.57553	-586.65607	-616.76186	-436.12712	-568.75533	0
228	-132.62821	193.65346	325.468	-30.10579	-229.45494	257.93339	-183.07575	-624.89856	-591.53809	-631.40792	-453.21419	-576.07836	0
229	-135.06922	196.09447	330.35002	-30.10579	-231.89595	262.81541	-187.95777	-627.33957	-598.86112	-641.17196	-462.97823	-588.28341	0
230	-135.06922	200.97649	335.23204	-32.5468	-234.33696	267.69743	-192.83979	-632.22159	-608.62516	-650.936	-475.18328	-598.04745	0
231	-137.51023	205.85851	342.55507	-34.98781	-239.21898	272.57945	-195.2808	-639.54462	-618.3892	-658.25903	-482.50631	-607.81149	0
232	-137.51023	205.85851	342.55507	-34.98781	-239.21898	272.57945	-200.16282	-644.42664	-625.71223	-670.46408	-489.82934	-615.13452	0
233	-139.95124	205.85851	344.99608	-32.5468	-241.65999	275.02046	-202.60383	-649.30866	-630.59425	-680.22812	-497.15237	-620.01654	0
234	-139.95124	208.29952	347.43709	-34.98781	-244.101	277.46147	-207.48585	-656.63169	-640.35829	-689.99216	-504.4754	-629.78058	0
235	-139.95124	210.74053	349.8781	-34.98781	-244.101	279.90248	-212.36787	-663.95472	-647.68132	-699.7562	-514.23944	-637.10361	0
236	-142.39225	215.62255	357.20113	-37.42882	-248.98302	284.7845	-217.24989	-671.27775	-655.00435	-711.96125	-524.00348	-646.86765	0
237	-147.27427	215.62255	362.08315	-34.98781	-253.86504	287.22551	-222.13191	-681.04179	-664.76839	-726.60731	-536.20853	-656.63169	0
238	-147.27427	215.62255	362.08315	-34.98781	-253.86504	287.22551	-229.45494	-685.92381	-669.65041	-741.25337	-550.85459	-663.95472	0
239	-149.71528	215.62255	364.52416	-32.5468	-256.30605	289.66652	-231.89595	-685.92381	-676.97344	-748.5764	-560.61863	-673.71876	0
240	-149.71528	218.06356	366.96517	-34.98781	-258.74706	292.10753	-236.77797	-690.80583	-684.29647	-755.89943	-567.94166	-683.4828	0
241	-152.15629	220.50457	371.84719	-34.98781	-261.18807	294.54854	-239.21898	-700.56987	-694.06051	-763.22246	-575.26469	-693.24684	0
242	-154.5973	220.50457	374.2882	-32.5468	-263.62908	296.98955	-244.101	-703.01088	-701.38354	-772.9865	-582.58772	-698.12886	0
243	-157.03831	220.50457	376.72921	-32.5468	-266.07009	296.98955	-246.54201	-710.33391	-706.26556	-780.30953	-589.91075	-705.45189	0
244	-157.03831	220.50457	376.72921	-32.5468	-266.07009	296.98955	-248.98302	-715.21593	-713.58859	-790.07357	-599.67479	-712.77492	0
245	-157.03831	220.50457	376.72921	-32.5468	-266.07009	296.98955	-253.86504	-720.09795	-720.91162	-797.3966	-606.99782	-717.65694	0
246	-157.03831	220.50457	376.72921	-32.5468	-266.07009	296.98955	-258.74706	-724.97997	-725.79364	-804.71963	-614.32085	-724.97997	0
247	-157.03831	218.06356	374.2882	-30.10579	-266.07009	294.54854	-263.62908	-732.303	-730.67566	-816.92468	-626.5259	-732.303	0
248	-157.03831	215.62255	371.84719	-30.10579	-263.62908	292.10753	-263.62908	-734.74401	-735.55768	-826.68872	-636.28994	-737.18502	0
249	-157.03831	213.18154	369.40618	-27.66478	-263.62908	289.66652	-268.5111	-732.303	-740.4397	-831.57074	-646.05398	-746.94906	0
250	-157.03831	213.18154	369.40618	-27.66478	-263.62908	289.66652	-268.5111	-732.303	-745.32172	-836.45276	-650.936	-754.27209	0
251	-154.5973	210.74053	364.52416	-27.66478	-258.74706	287.22551	-270.95211	-732.303	-747.76273	-838.89377	-653.37701	-759.15411	0
252	-154.5973	208.29952	362.08315	-27.66478	-258.74706	284.7845	-273.39312	-732.303	-750.20374	-843.77579	-658.25903	-764.03613	0
253	-154.5973	203.4175	357.20113	-25.22377	-256.30605	279.90248	-275.83413	-732.303	-750.20374	-846.2168	-660.70004	-766.47714	0
254	-157.03831	200.97649	357.20113	-22.78276	-256.30605	277.46147	-278.27514	-732.303	-752.64475	-848.65781	-663.14105	-768.91815	0
255	-157.03831	198.53548	354.76012	-20.34175	-256.30605	275.02046	-278.27514	-737.18502	-755.08576	-851.09882	-665.58206	-771.35916	0
256	-154.5973	193.65346	347.43709	-20.34175	-251.42403	270.13844	-283.15716	-737.18502	-752.64475	-851.09882	-665.58206	-773.80017	0
257	-154.5973	188.77144	342.55507	-17.90074	-248.98302	265.25642	-285.59817	-737.18502	-752.64475	-855.98084	-670.46408	-773.80017	0
258	-154.5973	183.88942	337.67305	-15.45973	-246.54201	260.3744	-288.03918	-732.303	-750.20374	-858.42185	-672.90509	-773.80017	0
259	-154.5973	176.56639	330.35002	-10.57771	-241.65999	253.05137	-288.03918	-722.53896	-747.76273	-855.98084	-672.90509	-776.24118	0
260	-152.15629	169.24336	320.58598	-8.1367	-236.77797	243.28733	-288.03918	-715.21593	-742.88071	-848.65781	-668.02307	-776.24118	0
261	-147.27427	166.80235	313.26295	-10.57771	-229.45494	238.40531	-285.59817	-707.8929	-735.55768	-841.33478	-660.70004	-773.80017	0
262	-144.83326	159.47932	303.49891	-8.1367	-224.57292	231.08228	-285.59817	-700.56987	-730.67566	-836.45276	-653.37701	-768.91815	0
263	-142.39225	152.15629	293.73487	-5.69569	-217.24989	221.31824	-285.59817	-690.80583	-723.35263	-829.12973	-646.05398	-761.59512	0
264	-142.39225	142.39225	283.97083	-0.81367	-212.36787	211.5542	-285.59817	-681.04179	-711.14758	-819.36569	-636.28994	-754.27209	0
265	-137.51023	132.62821	269.32477	1.62734	-202.60383	199.34915	-283.15716	-671.27775	-698.94253	-807.16064	-626.5259	-744.50805	0
266	-135.06922	125.30518	259.56073	4.06835	-197.72181	192.02612	-280.71615	-661.51371	-686.73748	-794.95559	-614.32085	-734.74401	0
267	-130.1872	117.98215	247.35568	4.06835	-187.95777	182.26208	-280.71615	-649.30866	-672.09142	-787.63256	-602.1158	-724.97997	0
268	-127.74619	110.65912	237.59164	7.32303	-183.07575	172.49804	-280.71615	-637.10361	-655.00435	-777.86852	-594.79277	-715.21593	0
269	-122.86417	100.89508	222.94558	9.76404	-173.31171	160.29299	-280.71615	-620.01654	-640.35829	-760.78145	-580.14671	-705.45189	0
270	-120.42316	91.13104	210.74053	14.64606	-165.98868	150.52895	-275.83413	-602.92947	-623.27122	-741.25337	-563.05964	-693.24684	0
271	-115.54114	83.80801	198.53548	14.64606	-156.22464	140.76491	-268.5111	-585.8424	-603.74314	-721.72529	-541.09055	-678.60078	0
272	-110.65912	71.60296	181.44841	19.52808	-146.4606	126.11885	-263.62908	-568.75533	-584.21506	-702.19721	-519.12146	-663.95472	0
273	-108.21811	61.83892	169.24336	21.96909	-139.13757	113.9138	-261.18807	-551.66826	-564.68698	-682.66913	-497.15237	-646.86765	0
274	-103.33609	54.51589	157.03831	24.4101	-129.37353	104.14976	-256.30605	-534.58119	-542.71789	-663.14105	-455.6552	-632.22159	0
275	-100.89508	44.75185	144.83326	26.85111	-122.0505	94.38572	-248.98302	-517.49412	-520.7488	-638.73095	-431.2451	-612.69351	0
276	-96.01306	34.98781	130.1872	29.29212	-112.28646	82.18067	-241.65999	-497.96604	-496.3387	-616.76186	-428.80409	-593.16543	0
277	-93.57205	22.78276	115.54114	34.17414	-104.96343	67.53461	-236.77797	-480.87897	-471.9286	-611.87984	-423.92207	-573.63735	0
278	-88.69003	10.57771	98.45407	39.05616	-92.75838	52.88855	-229.45494	-461.35089	-445.07749	-585.02873	-397.07096	-551.66826	0
279	-83.80801	0.81367	83.80801	41.49717	-82.99434	40.6835	-222.13191	-434.49978	-420.66739	-545.97257	-362.89682	-534.58119	0
280	-78.92599	-7.32303	71.60296	41.49717	-75.67131	30.91946	-214.80888	-414.9717	-396.25729	-531.32651	-321.39965	-512.6121	0
281	-74.04397	-12.20505	61.83892	41.49717	-68.34828	23.59643	-205.04484	-395.44362	-369.40618	-487.38833	-311.63561	-488.202	0
282	-69.16195	-19.52808	49.63387	43.93818	-61.02525	13.83239	-197.72181	-373.47453	-344.99608	-460.53722	-270.13844	-463.7919	0
283	-64.27993	-29.29212	34.98781	46.37919	-51.26121	1.62734	-190.39878	-353.94645	-318.14497	-433.68611	-211.5542	-436.94079	0
284	-59.39791	-39.05616	20.34175	48.8202	-41.49717	-11.39138	-183.07575	-331.97736	-291.29386	-404.39399	-172.49804	-412.53069	0
285	-56.9569	-46.37919	10.57771	51.26121	-34.17414	-18.71441	-175.75272	-314.89029	-264.44275	-377.54288	-143.20592	-385.67958	0
286	-52.07488	-51.26121	0.81367	51.26121	-26.85111	-26.03744	-168.42969	-295.36221	-237.59164	-348.25076	-138.3239	-358.82847	0
287	-47.19286	-58.58424	-12.20505	51.26121	-19.52808	-35.80148	-161.10666	-275.83413	-210.74053	-328.72268	-113.9138	-334.41837	0
288	-42.31084	-65.90727	-24.4101	53.70222	-9.76404	-45.56552	-156.22464	-256.30605	-183.88942	-301.87157	-87.06269	-310.00827	0
289	-39.86983	-73.2303	-34.17414	56.14323	-4.88202	-55.32956	-148.90161	-229.45494	-157.03831	-275.02046	-65.0936	-288.03918	0
290	-37.42882	-78.11232	-41.49717	56.14323	0	-60.21158	-141.57858	-209.92686	-135.06922	-250.61036	-18.71441	-266.07009	0
291	-32.5468	-80.55333	-48.8202	56.14323	8.1367	-65.0936	-136.69656	-190.39878	-110.65912	-221.31824	-16.2734	-244.101	0
292	-30.10579	-82.99434	-53.70222	56.14323	10.57771	-69.97562	-131.81454	-168.42969	-86.24902	-199.34915	15.45973	-222.13191	0
293	-25.22377	-85.43535	-61.02525	53.70222	17.90074	-74.85764	-126.93252	-148.90161	-64.27993	-177.38006	72.41663	-202.60383	0
294	-25.22377	-87.87636	-63.46626	56.14323	17.90074	-77.29865	-122.0505	-134.25555	-44.75185	-157.85198	67.53461	-183.07575	0
295	-22.78276	-90.31737	-68.34828	56.14323	22.78276	-79.73966	-117.16848	-119.60949	-25.22377	-140.76491	87.06269	-165.98868	0
296	-22.78276	-92.75838	-70.78929	56.14323	22.78276	-82.18067	-112.28646	-104.96343	-5.69569	-121.23683	109.03178	-146.4606	0
297	-20.34175	-97.6404	-78.11232	58.58424	27.66478	-89.5037	-107.40444	-92.75838	12.20505	-106.59077	126.11885	-129.37353	0
298	-17.90074	-102.52242	-85.43535	58.58424	32.5468	-94.38572	-102.52242	-78.11232	34.17414	-94.38572	140.76491	-112.28646	0
299	-13.01872	-107.40444	-95.19939	58.58424	39.86983	-101.70875	-92.75838	-58.58424	51.26121	-77.29865	157.85198	-97.6404	0
300	-13.01872	-107.40444	-95.19939	58.58424	39.86983	-101.70875	-85.43535	-46.37919	65.90727	-60.21158	174.93905	-85.43535	0
301	-13.01872	-109.84545	-97.6404	61.02525	42.31084	-104.14976	-80.55333	-38.24249	80.55333	-43.12451	192.02612	-75.67131	0
302	-13.01872	-114.72747	-102.52242	63.46626	44.75185	-109.03178	-75.67131	-28.47845	95.19939	-28.47845	206.67218	-63.46626	0
303	-13.01872	-117.16848	-104.96343	63.46626	44.75185	-111.47279	-70.78929	-21.15542	107.40444	-16.2734	218.87723	-53.70222	0
304	-13.01872	-119.60949	-107.40444	65.90727	47.19286	-113.9138	-65.90727	-11.39138	117.16848	-1.62734	231.08228	-43.93818	0
305	-13.01872	-119.60949	-107.40444	65.90727	47.19286	-113.9138	-63.46626	-8.95037	126.93252	8.1367	240.84632	-36.61515	0
306	-13.01872	-119.60949	-107.40444	65.90727	47.19286	-113.9138	-61.02525	-6.50936	134.25555	17.90074	250.61036	-28.47845	0
307	-15.45973	-119.60949	-104.96343	65.90727	44.75185	-113.9138	-61.02525	-6.50936	141.57858	22.78276	255.49238	-21.15542	0
308	-15.45973	-124.49151	-109.84545	68.34828	47.19286	-118.79582	-61.02525	-4.06835	148.90161	30.10579	262.81541	-13.83239	0
309	-17.90074	-126.93252	-109.84545	70.78929	44.75185	-118.79582	-58.58424	5.69569	156.22464	37.42882	270.13844	-8.95037	0
310	-15.45973	-126.93252	-112.28646	70.78929	47.19286	-121.23683	-56.14323	8.1367	161.10666	48.00653	279.90248	-1.62734	0
311	-15.45973	-131.81454	-117.16848	73.2303	49.63387	-126.11885	-53.70222	10.57771	165.98868	57.77057	289.66652	5.69569	0
312	-15.45973	-134.25555	-119.60949	73.2303	52.07488	-128.55986	-53.70222	13.01872	168.42969	65.0936	296.98955	10.57771	0
313	-15.45973	-136.69656	-122.0505	75.67131	52.07488	-131.00087	-53.70222	13.01872	170.8707	74.85764	301.87157	15.45973	0
314	-15.45973	-139.13757	-124.49151	75.67131	54.51589	-133.44188	-53.70222	13.01872	173.31171	79.73966	309.1946	20.34175	0
315	-17.90074	-141.57858	-124.49151	78.11232	52.07488	-133.44188	-56.14323	10.57771	175.75272	84.62168	311.63561	22.78276	0
316	-17.90074	-144.01959	-126.93252	80.55333	54.51589	-135.88289	-56.14323	8.1367	175.75272	89.5037	316.51763	22.78276	0
317	-17.90074	-146.4606	-129.37353	80.55333	54.51589	-138.3239	-61.02525	5.69569	173.31171	91.94471	316.51763	22.78276	0
318	-17.90074	-146.4606	-129.37353	80.55333	54.51589	-138.3239	-63.46626	0.81367	173.31171	91.94471	316.51763	25.22377	0
319	-17.90074	-146.4606	-129.37353	80.55333	54.51589	-138.3239	-65.90727	0.81367	170.8707	96.82673	318.95864	27.66478	0
320	-17.90074	-144.01959	-126.93252	80.55333	54.51589	-135.88289	-65.90727	0.81367	168.42969	101.70875	323.84066	27.66478	0
321	-17.90074	-141.57858	-124.49151	78.11232	52.07488	-133.44188	-65.90727	-4.06835	163.54767	106.59077	328.72268	30.10579	0
322	-15.45973	-141.57858	-126.93252	78.11232	54.51589	-135.88289	-65.90727	-4.06835	161.10666	109.03178	331.16369	32.5468	0
323	-15.45973	-144.01959	-129.37353	78.11232	56.9569	-138.3239	-65.90727	-8.95037	158.66565	116.35481	333.6047	32.5468	0
324	-15.45973	-144.01959	-129.37353	78.11232	56.9569	-138.3239	-68.34828	-11.39138	156.22464	118.79582	338.48672	34.98781	0
325	-15.45973	-141.57858	-126.93252	78.11232	54.51589	-135.88289	-68.34828	-16.2734	153.78363	118.79582	338.48672	37.42882	0
326	-15.45973	-141.57858	-126.93252	78.11232	54.51589	-135.88289	-68.34828	-16.2734	146.4606	118.79582	338.48672	39.86983	0
327	-15.45973	-146.4606	-131.81454	80.55333	56.9569	-140.76491	-68.34828	-21.15542	146.4606	118.79582	338.48672	39.86983	0
328	-15.45973	-148.90161	-134.25555	80.55333	59.39791	-143.20592	-70.78929	-23.59643	144.01959	118.79582	336.04571	39.86983	0
329	-17.90074	-151.34262	-134.25555	82.99434	56.9569	-143.20592	-73.2303	-21.15542	139.13757	123.67784	336.04571	39.86983	0
330	-17.90074	-153.78363	-136.69656	85.43535	59.39791	-145.64693	-73.2303	-21.15542	134.25555	126.11885	340.92773	42.31084	0
331	-15.45973	-151.34262	-136.69656	82.99434	59.39791	-145.64693	-73.2303	-23.59643	129.37353	128.55986	345.80975	44.75185	0
332	-15.45973	-151.34262	-136.69656	82.99434	59.39791	-145.64693	-73.2303	-28.47845	124.49151	131.00087	350.69177	44.75185	0
333	-15.45973	-148.90161	-134.25555	80.55333	59.39791	-143.20592	-73.2303	-30.91946	122.0505	135.88289	350.69177	44.75185	0
334	-13.01872	-148.90161	-136.69656	80.55333	61.83892	-143.20592	-73.2303	-35.80148	119.60949	138.3239	358.0148	47.19286	0
335	-13.01872	-148.90161	-136.69656	80.55333	61.83892	-143.20592	-75.67131	-38.24249	117.16848	135.88289	358.0148	47.19286	0
336	-13.01872	-148.90161	-136.69656	80.55333	61.83892	-143.20592	-78.11232	-40.6835	112.28646	133.44188	360.45581	49.63387	0
337	-13.01872	-146.4606	-134.25555	78.11232	59.39791	-140.76491	-80.55333	-46.37919	112.28646	133.44188	360.45581	49.63387	0
338	-13.01872	-146.4606	-134.25555	78.11232	59.39791	-140.76491	-82.99434	-48.8202	109.84545	131.00087	360.45581	49.63387	0
339	-13.01872	-144.01959	-131.81454	78.11232	59.39791	-138.3239	-85.43535	-46.37919	107.40444	131.00087	360.45581	47.19286	0
340	-13.01872	-141.57858	-129.37353	75.67131	56.9569	-135.88289	-85.43535	-48.8202	102.52242	135.88289	360.45581	47.19286	0
341	-13.01872	-141.57858	-129.37353	75.67131	56.9569	-135.88289	-90.31737	-51.26121	97.6404	135.88289	365.33783	47.19286	0
342	-13.01872	-144.01959	-131.81454	78.11232	59.39791	-138.3239	-92.75838	-53.70222	95.19939	138.3239	367.77884	47.19286	0
343	-13.01872	-144.01959	-131.81454	78.11232	59.39791	-138.3239	-95.19939	-56.14323	92.75838	143.20592	367.77884	47.19286	0
344	-13.01872	-146.4606	-134.25555	78.11232	59.39791	-140.76491	-97.6404	-58.58424	90.31737	143.20592	370.21985	47.19286	0
345	-13.01872	-146.4606	-134.25555	78.11232	59.39791	-140.76491	-100.08141	-63.46626	87.87636	140.76491	367.77884	47.19286	0
346	-15.45973	-146.4606	-131.81454	80.55333	56.9569	-140.76491	-102.52242	-63.46626	82.99434	138.3239	367.77884	47.19286	0
347	-15.45973	-153.78363	-139.13757	82.99434	61.83892	-148.08794	-107.40444	-65.90727	82.99434	135.88289	367.77884	44.75185	0
348	-17.90074	-156.22464	-139.13757	85.43535	59.39791	-148.08794	-107.40444	-68.34828	82.99434	135.88289	365.33783	42.31084	0
349	-17.90074	-158.66565	-141.57858	87.87636	61.83892	-150.52895	-112.28646	-63.46626	80.55333	138.3239	365.33783	42.31084	0
350	-15.45973	-161.10666	-146.4606	87.87636	64.27993	-155.41097	-112.28646	-63.46626	78.11232	145.64693	367.77884	39.86983	0
351	-15.45973	-161.10666	-146.4606	87.87636	64.27993	-155.41097	-109.84545	-63.46626	75.67131	145.64693	372.66086	39.86983	0
352	-15.45973	-161.10666	-146.4606	87.87636	64.27993	-155.41097	-112.28646	-65.90727	70.78929	148.08794	375.10187	39.86983	0
353	-15.45973	-163.54767	-148.90161	87.87636	66.72094	-157.85198	-114.72747	-65.90727	68.34828	152.96996	375.10187	34.98781	0
354	-15.45973	-165.98868	-151.34262	90.31737	66.72094	-160.29299	-114.72747	-68.34828	65.90727	155.41097	379.98389	34.98781	0
355	-17.90074	-168.42969	-151.34262	92.75838	66.72094	-160.29299	-119.60949	-70.78929	65.90727	152.96996	379.98389	34.98781	0
356	-17.90074	-168.42969	-151.34262	92.75838	66.72094	-160.29299	-122.0505	-70.78929	61.02525	152.96996	379.98389	32.5468	0
357	-17.90074	-170.8707	-153.78363	92.75838	66.72094	-162.734	-126.93252	-68.34828	61.02525	152.96996	379.98389	32.5468	0
358	-17.90074	-170.8707	-153.78363	92.75838	66.72094	-162.734	-129.37353	-70.78929	61.02525	152.96996	377.54288	27.66478	0
359	-17.90074	-170.8707	-153.78363	92.75838	66.72094	-162.734	-134.25555	-63.46626	58.58424	152.96996	377.54288	25.22377	0
360	-15.45973	-170.8707	-156.22464	92.75838	69.16195	-165.17501	-136.69656	-61.02525	56.14323	155.41097	377.54288	22.78276	0
361	-13.01872	-170.8707	-158.66565	90.31737	71.60296	-165.17501	-136.69656	-58.58424	56.14323	157.85198	379.98389	22.78276	0
362	-10.57771	-170.8707	-161.10666	90.31737	74.04397	-167.61602	-136.69656	-56.14323	56.14323	162.734	379.98389	22.78276	0
363	-10.57771	-170.8707	-161.10666	90.31737	74.04397	-167.61602	-136.69656	-53.70222	56.14323	170.05703	382.4249	20.34175	0
364	-8.1367	-173.31171	-165.98868	90.31737	78.92599	-170.05703	-139.13757	-51.26121	58.58424	172.49804	387.30692	20.34175	0
365	-8.1367	-175.75272	-168.42969	90.31737	78.92599	-172.49804	-141.57858	-51.26121	58.58424	172.49804	387.30692	17.90074	0
366	-8.1367	-178.19373	-170.8707	92.75838	81.367	-174.93905	-144.01959	-46.37919	58.58424	172.49804	389.74793	20.34175	0
367	-8.1367	-183.07575	-175.75272	95.19939	83.80801	-179.82107	-146.4606	-46.37919	61.02525	174.93905	392.18894	20.34175	0
368	-8.1367	-183.07575	-175.75272	95.19939	83.80801	-179.82107	-148.90161	-46.37919	65.90727	174.93905	389.74793	20.34175	0
369	-5.69569	-183.07575	-178.19373	92.75838	86.24902	-182.26208	-151.34262	-38.24249	65.90727	179.82107	389.74793	20.34175	0
370	-5.69569	-185.51676	-180.63474	95.19939	86.24902	-184.70309	-151.34262	-35.80148	65.90727	184.70309	392.18894	20.34175	0
371	-5.69569	-183.07575	-178.19373	92.75838	86.24902	-182.26208	-151.34262	-35.80148	65.90727	187.1441	397.07096	20.34175	0
372	-5.69569	-183.07575	-178.19373	92.75838	86.24902	-182.26208	-151.34262	-30.91946	68.34828	192.02612	399.51197	20.34175	1500	QRS+0
373	-3.25468	-178.19373	-175.75272	90.31737	86.24902	-177.38006	-151.34262	-30.91946	68.34828	199.34915	401.95298	20.34175	0
374	-3.25468	-175.75272	-173.31171	87.87636	83.80801	-174.93905	-151.34262	-30.91946	70.78929	204.23117	404.39399	20.34175	0
375	-3.25468	-173.31171	-170.8707	87.87636	83.80801	-172.49804	-153.78363	-30.91946	70.78929	204.23117	404.39399	20.34175	0
376	0	-170.8707	-170.8707	85.43535	83.80801	-170.05703	-156.22464	-30.91946	70.78929	206.67218	409.27601	22.78276	0
377	2.44101	-170.8707	-173.31171	82.99434	86.24902	-172.49804	-158.66565	-28.47845	70.78929	211.5542	411.71702	22.78276	0
378	2.44101	-170.8707	-173.31171	82.99434	86.24902	-172.49804	-161.10666	-28.47845	73.2303	216.43622	411.71702	22.78276	0
379	2.44101	-170.8707	-173.31171	82.99434	86.24902	-172.49804	-163.54767	-23.59643	75.67131	218.87723	414.15803	22.78276	0
380	7.32303	-170.8707	-178.19373	80.55333	91.13104	-174.93905	-163.54767	-18.71441	75.67131	226.20026	416.59904	25.22377	0
381	7.32303	-170.8707	-178.19373	80.55333	91.13104	-174.93905	-161.10666	-16.2734	80.55333	228.64127	421.48106	25.22377	0
382	7.32303	-173.31171	-180.63474	82.99434	93.57205	-177.38006	-161.10666	-11.39138	80.55333	233.52329	426.36308	27.66478	0
383	9.76404	-175.75272	-185.51676	82.99434	96.01306	-179.82107	-158.66565	-8.95037	82.99434	238.40531	428.80409	27.66478	0
384	9.76404	-173.31171	-183.07575	80.55333	96.01306	-177.38006	-158.66565	-8.95037	85.43535	240.84632	433.68611	27.66478	0
385	9.76404	-173.31171	-183.07575	80.55333	96.01306	-177.38006	-156.22464	-4.06835	87.87636	240.84632	436.12712	27.66478	0
386	9.76404	-173.31171	-183.07575	80.55333	96.01306	-177.38006	-156.22464	0.81367	87.87636	243.28733	441.00914	32.5468	0
387	9.76404	-175.75272	-185.51676	82.99434	96.01306	-179.82107	-158.66565	3.25468	90.31737	245.72834	443.45015	32.5468	0
388	9.76404	-173.31171	-183.07575	80.55333	96.01306	-177.38006	-161.10666	3.25468	92.75838	250.61036	443.45015	34.98781	0
389	9.76404	-173.31171	-183.07575	80.55333	96.01306	-177.38006	-165.98868	8.1367	95.19939	253.05137	448.33217	34.98781	0
390	7.32303	-173.31171	-180.63474	82.99434	93.57205	-177.38006	-168.42969	10.57771	92.75838	255.49238	448.33217	37.42882	0
391	4.88202	-178.19373	-183.07575	85.43535	93.57205	-179.82107	-170.8707	15.45973	92.75838	257.93339	450.77318	37.42882	0
392	4.88202	-178.19373	-183.07575	85.43535	93.57205	-179.82107	-170.8707	17.90074	95.19939	262.81541	453.21419	37.42882	0
393	4.88202	-178.19373	-183.07575	85.43535	93.57205	-179.82107	-170.8707	20.34175	97.6404	272.57945	455.6552	37.42882	0
394	4.88202	-178.19373	-183.07575	85.43535	93.57205	-179.82107	-170.8707	22.78276	100.08141	277.46147	460.53722	37.42882	0
395	4.88202	-178.19373	-183.07575	85.43535	93.57205	-179.82107	-170.8707	25.22377	104.96343	277.46147	462.97823	37.42882	0
396	4.88202	-180.63474	-185.51676	87.87636	93.57205	-182.26208	-173.31171	30.10579	104.96343	282.34349	467.86025	39.86983	0
397	7.32303	-183.07575	-190.39878	87.87636	98.45407	-187.1441	-173.31171	37.42882	107.40444	287.22551	470.30126	39.86983	0
398	9.76404	-180.63474	-190.39878	85.43535	98.45407	-184.70309	-170.8707	39.86983	112.28646	294.54854	472.74227	42.31084	0
399	14.64606	-178.19373	-192.83979	80.55333	103.33609	-184.70309	-170.8707	49.63387	117.16848	304.31258	480.0653	47.19286	0
400	17.08707	-173.31171	-190.39878	78.11232	103.33609	-182.26208	-168.42969	56.9569	119.60949	314.07662	484.94732	52.07488	0
401	19.52808	-168.42969	-187.95777	73.2303	103.33609	-177.38006	-165.98868	64.27993	124.49151	318.95864	489.82934	52.07488	0
402	19.52808	-165.98868	-185.51676	73.2303	100.89508	-174.93905	-158.66565	74.04397	129.37353	326.28167	494.71136	54.51589	0
403	19.52808	-158.66565	-178.19373	68.34828	98.45407	-167.61602	-151.34262	81.367	134.25555	336.04571	497.15237	56.9569	0
404	19.52808	-148.90161	-168.42969	63.46626	93.57205	-157.85198	-141.57858	86.24902	139.13757	340.92773	504.4754	59.39791	0
405	19.52808	-139.13757	-158.66565	58.58424	88.69003	-148.08794	-129.37353	93.57205	148.90161	345.80975	506.91641	59.39791	0
406	17.08707	-129.37353	-146.4606	56.14323	81.367	-138.3239	-117.16848	105.7771	153.78363	353.13278	514.23944	64.27993	0
407	14.64606	-119.60949	-134.25555	51.26121	74.04397	-126.11885	-102.52242	115.54114	163.54767	360.45581	519.12146	64.27993	0
408	12.20505	-107.40444	-119.60949	46.37919	64.27993	-113.9138	-87.87636	122.86417	173.31171	367.77884	524.00348	66.72094	0
409	12.20505	-97.6404	-109.84545	41.49717	59.39791	-104.14976	-73.2303	130.1872	180.63474	375.10187	531.32651	71.60296	0
410	12.20505	-90.31737	-102.52242	39.05616	56.9569	-96.82673	-63.46626	137.51023	185.51676	384.86591	536.20853	76.48498	0
411	12.20505	-82.99434	-95.19939	34.17414	52.07488	-89.5037	-53.70222	142.39225	190.39878	387.30692	545.97257	76.48498	0
412	12.20505	-75.67131	-87.87636	31.73313	49.63387	-82.18067	-48.8202	147.27427	195.2808	394.62995	548.41358	78.92599	0
413	14.64606	-68.34828	-82.99434	26.85111	47.19286	-74.85764	-46.37919	149.71528	200.16282	399.51197	553.2956	78.92599	0
414	14.64606	-65.90727	-80.55333	24.4101	47.19286	-72.41663	-43.93818	147.27427	200.16282	401.95298	558.17762	78.92599	0
415	14.64606	-65.90727	-80.55333	24.4101	47.19286	-72.41663	-46.37919	144.83326	202.60383	399.51197	558.17762	78.92599	0
416	14.64606	-65.90727	-80.55333	24.4101	47.19286	-72.41663	-51.26121	139.95124	197.72181	394.62995	560.61863	76.48498	0
417	14.64606	-70.78929	-85.43535	26.85111	49.63387	-77.29865	-58.58424	132.62821	192.83979	389.74793	558.17762	74.04397	0
418	14.64606	-73.2303	-87.87636	29.29212	49.63387	-79.73966	-68.34828	120.42316	190.39878	384.86591	553.2956	69.16195	0
419	14.64606	-75.67131	-90.31737	29.29212	52.07488	-82.18067	-80.55333	110.65912	185.51676	382.4249	553.2956	66.72094	0
420	14.64606	-80.55333	-95.19939	31.73313	54.51589	-87.06269	-92.75838	103.33609	175.75272	377.54288	548.41358	66.72094	0
421	14.64606	-85.43535	-100.08141	34.17414	56.9569	-91.94471	-104.96343	93.57205	168.42969	370.21985	548.41358	61.83892	0
422	14.64606	-92.75838	-107.40444	39.05616	59.39791	-99.26774	-114.72747	86.24902	161.10666	365.33783	543.53156	56.9569	0
423	17.08707	-97.6404	-114.72747	39.05616	64.27993	-106.59077	-126.93252	78.92599	151.34262	360.45581	541.09055	52.07488	0
424	17.08707	-102.52242	-119.60949	41.49717	66.72094	-111.47279	-144.01959	71.60296	146.4606	353.13278	541.09055	52.07488	0
425	17.08707	-107.40444	-124.49151	43.93818	69.16195	-116.35481	-158.66565	64.27993	141.57858	340.92773	536.20853	47.19286	0
426	19.52808	-112.28646	-131.81454	46.37919	74.04397	-121.23683	-173.31171	61.83892	134.25555	333.6047	533.76752	47.19286	0
427	21.96909	-119.60949	-141.57858	48.8202	81.367	-131.00087	-185.51676	64.27993	129.37353	326.28167	531.32651	44.75185	0
428	21.96909	-124.49151	-146.4606	51.26121	83.80801	-135.88289	-195.2808	61.83892	129.37353	323.84066	528.8855	44.75185	0
429	24.4101	-134.25555	-158.66565	53.70222	91.13104	-145.64693	-205.04484	61.83892	126.93252	321.39965	528.8855	47.19286	0
430	26.85111	-146.4606	-173.31171	58.58424	98.45407	-160.29299	-212.36787	59.39791	122.0505	316.51763	526.44449	49.63387	0
431	29.29212	-153.78363	-183.07575	61.02525	105.7771	-167.61602	-219.6909	59.39791	117.16848	309.1946	526.44449	49.63387	0
432	31.73313	-161.10666	-192.83979	63.46626	110.65912	-177.38006	-222.13191	56.9569	112.28646	306.75359	524.00348	52.07488	0
433	34.17414	-173.31171	-207.48585	68.34828	120.42316	-189.58511	-224.57292	52.07488	109.84545	306.75359	524.00348	52.07488	0
434	39.05616	-180.63474	-219.6909	70.78929	127.74619	-199.34915	-227.01393	49.63387	107.40444	301.87157	524.00348	54.51589	0
435	41.49717	-185.51676	-227.01393	70.78929	132.62821	-206.67218	-227.01393	47.19286	104.96343	294.54854	521.56247	54.51589	0
436	43.93818	-192.83979	-236.77797	73.2303	139.95124	-213.99521	-227.01393	44.75185	100.08141	289.66652	521.56247	54.51589	0
437	46.37919	-197.72181	-244.101	75.67131	144.83326	-221.31824	-227.01393	47.19286	97.6404	284.7845	521.56247	54.51589	0
438	48.8202	-197.72181	-246.54201	73.2303	147.27427	-221.31824	-227.01393	44.75185	97.6404	284.7845	519.12146	54.51589	0
439	51.26121	-195.2808	-246.54201	70.78929	147.27427	-221.31824	-229.45494	47.19286	97.6404	284.7845	521.56247	56.9569	0
440	51.26121	-200.16282	-251.42403	73.2303	149.71528	-226.20026	-227.01393	52.07488	95.19939	284.7845	524.00348	61.83892	0
441	51.26121	-197.72181	-248.98302	73.2303	149.71528	-223.75925	-224.57292	56.9569	97.6404	284.7845	531.32651	61.83892	0
442	48.8202	-195.2808	-244.101	73.2303	144.83326	-218.87723	-222.13191	64.27993	100.08141	284.7845	533.76752	64.27993	0
443	46.37919	-192.83979	-239.21898	73.2303	142.39225	-216.43622	-219.6909	64.27993	100.08141	287.22551	533.76752	64.27993	0
444	43.93818	-185.51676	-229.45494	70.78929	135.06922	-206.67218	-217.24989	69.16195	100.08141	284.7845	536.20853	66.72094	0
445	41.49717	-180.63474	-222.13191	68.34828	130.1872	-201.79016	-212.36787	71.60296	100.08141	279.90248	536.20853	64.27993	0
446	39.05616	-180.63474	-219.6909	70.78929	127.74619	-199.34915	-209.92686	78.92599	97.6404	275.02046	536.20853	64.27993	0
447	34.17414	-183.07575	-217.24989	73.2303	125.30518	-199.34915	-205.04484	83.80801	100.08141	272.57945	536.20853	61.83892	0
448	31.73313	-178.19373	-209.92686	73.2303	120.42316	-194.46713	-202.60383	86.24902	102.52242	270.13844	531.32651	56.9569	0
449	29.29212	-178.19373	-207.48585	73.2303	117.98215	-192.02612	-202.60383	91.13104	102.52242	267.69743	528.8855	52.07488	0
450	24.4101	-183.07575	-207.48585	78.11232	115.54114	-194.46713	-200.16282	96.01306	100.08141	265.25642	524.00348	49.63387	0
451	21.96909	-187.95777	-209.92686	82.99434	115.54114	-199.34915	-195.2808	100.89508	102.52242	260.3744	526.44449	47.19286	0
452	17.08707	-192.83979	-209.92686	87.87636	113.10013	-201.79016	-190.39878	108.21811	107.40444	260.3744	524.00348	44.75185	0
453	14.64606	-197.72181	-212.36787	90.31737	113.10013	-204.23117	-185.51676	110.65912	107.40444	260.3744	519.12146	39.86983	0
454	7.32303	-202.60383	-209.92686	97.6404	108.21811	-206.67218	-180.63474	113.10013	107.40444	257.93339	519.12146	34.98781	0
455	4.88202	-205.04484	-209.92686	100.08141	105.7771	-206.67218	-178.19373	113.10013	107.40444	250.61036	516.68045	30.10579	0
456	2.44101	-209.92686	-212.36787	102.52242	105.7771	-211.5542	-175.75272	115.54114	107.40444	245.72834	514.23944	27.66478	0
457	2.44101	-214.80888	-217.24989	104.96343	108.21811	-216.43622	-173.31171	117.98215	104.96343	243.28733	514.23944	22.78276	0
458	2.44101	-212.36787	-214.80888	104.96343	108.21811	-213.99521	-168.42969	117.98215	107.40444	243.28733	509.35742	22.78276	0
459	2.44101	-209.92686	-212.36787	102.52242	105.7771	-211.5542	-165.98868	120.42316	104.96343	243.28733	511.79843	22.78276	0
460	4.88202	-207.48585	-212.36787	100.08141	108.21811	-209.11319	-163.54767	120.42316	104.96343	240.84632	509.35742	22.78276	0
461	7.32303	-207.48585	-214.80888	100.08141	110.65912	-211.5542	-161.10666	117.98215	102.52242	240.84632	514.23944	20.34175	0
462	9.76404	-205.04484	-214.80888	97.6404	110.65912	-209.11319	-158.66565	120.42316	104.96343	240.84632	516.68045	20.34175	0
463	9.76404	-202.60383	-212.36787	95.19939	110.65912	-206.67218	-153.78363	120.42316	104.96343	243.28733	516.68045	20.34175	0
464	7.32303	-200.16282	-207.48585	95.19939	105.7771	-204.23117	-151.34262	117.98215	104.96343	243.28733	516.68045	22.78276	0
465	7.32303	-200.16282	-207.48585	95.19939	105.7771	-204.23117	-146.4606	115.54114	104.96343	238.40531	516.68045	22.78276	0
466	2.44101	-200.16282	-202.60383	97.6404	100.89508	-201.79016	-141.57858	117.98215	104.96343	238.40531	519.12146	25.22377	0
467	2.44101	-200.16282	-202.60383	97.6404	100.89508	-201.79016	-141.57858	117.98215	104.96343	238.40531	519.12146	22.78276	0
468	0	-200.16282	-200.16282	100.08141	98.45407	-199.34915	-141.57858	115.54114	107.40444	238.40531	514.23944	20.34175	0
469	-3.25468	-200.16282	-197.72181	100.08141	96.01306	-199.34915	-144.01959	115.54114	107.40444	238.40531	514.23944	20.34175	0
470	-3.25468	-200.16282	-197.72181	100.08141	96.01306	-199.34915	-144.01959	115.54114	104.96343	238.40531	509.35742	22.78276	0
471	-3.25468	-197.72181	-195.2808	100.08141	96.01306	-196.90814	-146.4606	117.98215	104.96343	235.9643	511.79843	20.34175	0
472	-3.25468	-197.72181	-195.2808	100.08141	96.01306	-196.90814	-144.01959	120.42316	104.96343	238.40531	511.79843	20.34175	0
473	-3.25468	-195.2808	-192.83979	97.6404	93.57205	-194.46713	-144.01959	120.42316	107.40444	240.84632	509.35742	20.34175	0
474	-3.25468	-195.2808	-192.83979	97.6404	93.57205	-194.46713	-148.90161	115.54114	107.40444	238.40531	509.35742	20.34175	0
475	-3.25468	-195.2808	-192.83979	97.6404	93.57205	-194.46713	-151.34262	110.65912	107.40444	233.52329	506.91641	17.90074	0
476	-3.25468	-195.2808	-192.83979	97.6404	93.57205	-194.46713	-153.78363	110.65912	104.96343	231.08228	506.91641	17.90074	0
477	-3.25468	-192.83979	-190.39878	97.6404	93.57205	-192.02612	-153.78363	110.65912	104.96343	231.08228	504.4754	20.34175	0
478	-3.25468	-190.39878	-187.95777	95.19939	91.13104	-189.58511	-151.34262	110.65912	104.96343	231.08228	504.4754	20.34175	0
479	-5.69569	-190.39878	-185.51676	97.6404	88.69003	-189.58511	-153.78363	108.21811	104.96343	233.52329	504.4754	22.78276	0
480	-3.25468	-187.95777	-185.51676	95.19939	91.13104	-187.1441	-156.22464	105.7771	102.52242	233.52329	499.59338	25.22377	0
481	-3.25468	-185.51676	-183.07575	92.75838	88.69003	-184.70309	-158.66565	105.7771	100.08141	233.52329	502.03439	25.22377	0
482	-3.25468	-185.51676	-183.07575	92.75838	88.69003	-184.70309	-156.22464	105.7771	100.08141	235.9643	499.59338	25.22377	0
483	-3.25468	-183.07575	-180.63474	92.75838	88.69003	-182.26208	-156.22464	103.33609	100.08141	238.40531	499.59338	25.22377	0
484	-8.1367	-183.07575	-175.75272	95.19939	83.80801	-179.82107	-156.22464	100.89508	100.08141	238.40531	499.59338	25.22377	0
485	-10.57771	-185.51676	-175.75272	97.6404	81.367	-182.26208	-158.66565	98.45407	100.08141	235.9643	497.15237	25.22377	0
486	-13.01872	-190.39878	-178.19373	100.08141	81.367	-184.70309	-163.54767	98.45407	97.6404	233.52329	497.15237	25.22377	0
487	-13.01872	-190.39878	-178.19373	100.08141	81.367	-184.70309	-163.54767	98.45407	95.19939	231.08228	492.27035	25.22377	0
488	-15.45973	-190.39878	-175.75272	102.52242	78.92599	-184.70309	-163.54767	98.45407	95.19939	231.08228	487.38833	27.66478	0
489	-15.45973	-190.39878	-175.75272	102.52242	78.92599	-184.70309	-168.42969	98.45407	95.19939	231.08228	484.94732	27.66478	0
490	-15.45973	-187.95777	-173.31171	100.08141	78.92599	-182.26208	-170.8707	96.01306	95.19939	231.08228	480.0653	30.10579	-1500	QRS-0
491	-13.01872	-183.07575	-170.8707	97.6404	78.92599	-177.38006	-173.31171	96.01306	97.6404	231.08228	482.50631	32.5468	0
492	-8.1367	-178.19373	-170.8707	92.75838	81.367	-174.93905	-173.31171	98.45407	97.6404	235.9643	480.0653	32.5468	0
493	-5.69569	-173.31171	-168.42969	87.87636	81.367	-172.49804	-168.42969	103.33609	102.52242	240.84632	480.0653	37.42882	0
494	-3.25468	-165.98868	-163.54767	82.99434	78.92599	-165.17501	-168.42969	103.33609	104.96343	243.28733	480.0653	42.31084	0
495	-3.25468	-161.10666	-158.66565	80.55333	76.48498	-160.29299	-165.98868	103.33609	107.40444	238.40531	472.74227	42.31084	0
496	0	-156.22464	-156.22464	78.11232	76.48498	-155.41097	-163.54767	105.7771	107.40444	238.40531	467.86025	42.31084	0
497	2.44101	-153.78363	-156.22464	75.67131	78.92599	-155.41097	-161.10666	110.65912	109.84545	238.40531	465.41924	44.75185	0
498	2.44101	-151.34262	-153.78363	73.2303	76.48498	-152.96996	-156.22464	110.65912	112.28646	240.84632	462.97823	49.63387	0
499	2.44101	-148.90161	-151.34262	73.2303	76.48498	-150.52895	-151.34262	115.54114	112.28646	243.28733	458.09621	56.9569	0
500	2.44101	-148.90161	-151.34262	73.2303	76.48498	-150.52895	-144.01959	117.98215	112.28646	245.72834	455.6552	64.27993	0
501	2.44101	-151.34262	-153.78363	73.2303	76.48498	-152.96996	-141.57858	117.98215	114.72747	245.72834	455.6552	66.72094	0
502	0	-153.78363	-153.78363	75.67131	76.48498	-152.96996	-134.25555	117.98215	114.72747	243.28733	450.77318	66.72094	0
503	0	-153.78363	-153.78363	75.67131	76.48498	-152.96996	-129.37353	120.42316	114.72747	248.16935	448.33217	71.60296	0
504	0	-148.90161	-148.90161	73.2303	74.04397	-148.08794	-129.37353	120.42316	114.72747	250.61036	445.89116	76.48498	0
505	0	-146.4606	-146.4606	73.2303	71.60296	-145.64693	-126.93252	117.98215	119.60949	248.16935	441.00914	81.367	0
506	0	-144.01959	-144.01959	70.78929	71.60296	-143.20592	-122.0505	117.98215	119.60949	245.72834	433.68611	86.24902	0
507	0	-141.57858	-141.57858	70.78929	69.16195	-140.76491	-117.16848	122.86417	119.60949	243.28733	431.2451	91.13104	0
508	0	-141.57858	-141.57858	70.78929	69.16195	-140.76491	-114.72747	122.86417	119.60949	240.84632	423.92207	96.01306	0
509	-3.25468	-141.57858	-139.13757	70.78929	66.72094	-140.76491	-109.84545	117.98215	119.60949	240.84632	416.59904	98.45407	0
510	-3.25468	-139.13757	-136.69656	70.78929	66.72094	-138.3239	-109.84545	113.10013	114.72747	238.40531	406.835	103.33609	0
511	0	-134.25555	-134.25555	65.90727	66.72094	-133.44188	-107.40444	113.10013	114.72747	235.9643	399.51197	108.21811	0
512	-3.25468	-134.25555	-131.81454	68.34828	64.27993	-133.44188	-102.52242	113.10013	114.72747	235.9643	394.62995	110.65912	0
513	-3.25468	-136.69656	-134.25555	68.34828	64.27993	-135.88289	-95.19939	115.54114	114.72747	240.84632	387.30692	113.10013	0
514	-3.25468	-136.69656	-134.25555	68.34828	64.27993	-135.88289	-90.31737	115.54114	114.72747	240.84632	382.4249	117.98215	0
515	-3.25468	-134.25555	-131.81454	68.34828	64.27993	-133.44188	-87.87636	113.10013	117.16848	238.40531	375.10187	120.42316	0
516	-3.25468	-134.25555	-131.81454	68.34828	64.27993	-133.44188	-87.87636	113.10013	117.16848	238.40531	365.33783	122.86417	0
517	-3.25468	-131.81454	-129.37353	65.90727	61.83892	-131.00087	-87.87636	115.54114	117.16848	235.9643	358.0148	127.74619	0
518	0	-129.37353	-129.37353	63.46626	64.27993	-128.55986	-90.31737	117.98215	117.16848	235.9643	350.69177	132.62821	0
519	0	-126.93252	-126.93252	63.46626	61.83892	-126.11885	-92.75838	117.98215	117.16848	238.40531	345.80975	137.51023	0
520	0	-124.49151	-124.49151	61.02525	61.83892	-123.67784	-95.19939	115.54114	112.28646	233.52329	336.04571	144.83326	0
521	0	-124.49151	-124.49151	61.02525	61.83892	-123.67784	-95.19939	115.54114	112.28646	233.52329	331.16369	154.5973	0
522	0	-122.0505	-122.0505	61.02525	59.39791	-121.23683	-92.75838	115.54114	114.72747	233.52329	328.72268	164.36134	0
523	2.44101	-119.60949	-122.0505	58.58424	61.83892	-121.23683	-95.19939	115.54114	114.72747	235.9643	318.95864	171.68437	0
524	2.44101	-114.72747	-117.16848	56.14323	59.39791	-116.35481	-95.19939	115.54114	117.16848	235.9643	314.07662	176.56639	0
525	2.44101	-114.72747	-117.16848	56.14323	59.39791	-116.35481	-95.19939	115.54114	117.16848	231.08228	306.75359	183.88942	0
526	0	-114.72747	-114.72747	56.14323	56.9569	-113.9138	-95.19939	115.54114	119.60949	226.20026	299.43056	188.77144	0
527	0	-117.16848	-117.16848	58.58424	56.9569	-116.35481	-90.31737	120.42316	122.0505	226.20026	294.54854	193.65346	0
528	0	-119.60949	-119.60949	58.58424	59.39791	-118.79582	-85.43535	122.86417	124.49151	231.08228	289.66652	198.53548	0
529	-3.25468	-119.60949	-117.16848	61.02525	56.9569	-118.79582	-82.99434	120.42316	126.93252	233.52329	282.34349	198.53548	0
530	0	-119.60949	-119.60949	58.58424	59.39791	-118.79582	-78.11232	120.42316	126.93252	233.52329	275.02046	200.97649	0
531	4.88202	-117.16848	-122.0505	56.14323	61.83892	-118.79582	-70.78929	120.42316	129.37353	235.9643	267.69743	200.97649	0
532	4.88202	-114.72747	-119.60949	53.70222	61.83892	-116.35481	-63.46626	120.42316	129.37353	235.9643	262.81541	198.53548	0
533	2.44101	-114.72747	-117.16848	56.14323	59.39791	-116.35481	-51.26121	120.42316	131.81454	240.84632	253.05137	196.09447	0
534	0	-117.16848	-117.16848	58.58424	56.9569	-116.35481	-41.49717	120.42316	136.69656	240.84632	243.28733	191.21245	0
535	-3.25468	-119.60949	-117.16848	61.02525	56.9569	-118.79582	-29.29212	122.86417	141.57858	235.9643	231.08228	183.88942	0
536	-5.69569	-126.93252	-122.0505	65.90727	56.9569	-126.11885	-16.2734	127.74619	148.90161	233.52329	218.87723	176.56639	0
537	-5.69569	-134.25555	-129.37353	68.34828	61.83892	-133.44188	-1.62734	139.95124	158.66565	235.9643	209.11319	179.0074	0
538	-8.1367	-141.57858	-134.25555	73.2303	61.83892	-138.3239	10.57771	152.15629	153.78363	243.28733	196.90814	159.47932	0
539	-13.01872	-153.78363	-141.57858	82.99434	64.27993	-148.08794	22.78276	169.24336	178.19373	206.67218	167.61602	152.15629	0
540	-13.01872	-168.42969	-156.22464	90.31737	71.60296	-162.734	30.10579	193.65346	195.2808	240.84632	160.29299	130.1872	0
541	-13.01872	-190.39878	-178.19373	100.08141	81.367	-184.70309	37.42882	215.62255	229.45494	292.10753	199.34915	122.86417	0
542	-10.57771	-209.92686	-200.16282	109.84545	93.57205	-206.67218	39.86983	210.74053	270.95211	314.07662	187.1441	103.33609	0
543	-3.25468	-224.57292	-222.13191	112.28646	108.21811	-223.75925	49.63387	264.44275	297.80322	265.25642	221.31824	154.5973	0
544	4.88202	-236.77797	-241.65999	114.72747	122.86417	-238.40531	56.9569	264.44275	285.59817	289.66652	233.52329	203.4175	0
545	14.64606	-248.98302	-263.62908	117.16848	137.51023	-255.49238	66.72094	242.47366	319.77231	318.95864	377.54288	232.70962	0
546	29.29212	-261.18807	-290.48019	114.72747	159.47932	-275.02046	74.04397	274.20679	356.38746	353.13278	470.30126	489.01567	0
547	46.37919	-268.5111	-314.89029	109.84545	179.0074	-292.10753	83.80801	354.76012	395.44362	394.62995	489.82934	557.36395	0
548	63.46626	-270.95211	-334.41837	102.52242	198.53548	-301.87157	93.57205	388.93426	434.49978	438.56813	741.25337	779.49586	0
549	82.99434	-266.07009	-349.06443	90.31737	215.62255	-306.75359	105.7771	447.5185	512.6121	526.44449	895.037	977.21767	0
550	97.6404	-266.07009	-363.71049	82.99434	230.26861	-314.07662	117.98215	518.30779	578.51937	619.20287	1014.64649	1118.79625	0
551	117.16848	-275.83413	-393.00261	78.11232	254.67871	-333.6047	130.1872	542.71789	610.2525	668.02307	1119.60992	1221.31867	0
552	144.01959	-224.57292	-368.59251	39.05616	254.67871	-296.98955	132.62821	547.59991	622.45755	670.46408	1087.87679	1209.11362	0
553	156.22464	-227.01393	-383.23857	34.17414	269.32477	-304.31258	132.62821	572.01001	578.51937	555.73661	948.73922	1082.1811	0
554	148.90161	-297.80322	-446.70483	73.2303	296.17588	-372.66086	125.30518	545.1589	512.6121	421.48106	729.04832	906.42838	0
555	180.63474	-371.03352	-551.66826	95.19939	364.52416	-460.53722	115.54114	540.27688	458.90988	311.63561	492.27035	698.94253	0
556	202.60383	-373.47453	-576.07836	85.43535	388.93426	-475.18328	117.98215	552.48193	461.35089	294.54854	353.13278	576.89203	0
557	212.36787	-351.50544	-563.87331	68.34828	386.49325	-458.09621	100.89508	572.01001	463.7919	316.51763	257.93339	515.86678	0
558	209.92686	-329.53635	-539.46321	58.58424	374.2882	-433.68611	54.51589	535.39486	449.14584	343.36874	306.75359	498.77971	0
559	212.36787	-219.6909	-432.05877	4.06835	320.58598	-326.28167	61.83892	540.27688	483.31998	641.17196	436.12712	574.45102	0
560	219.6909	-87.87636	-307.56726	-66.72094	262.00174	-196.90814	69.16195	552.48193	578.51937	704.63822	624.08489	684.29647	0
561	209.92686	0.81367	-209.92686	-105.7771	210.74053	-104.14976	71.60296	564.68698	661.51371	934.09316	863.30387	796.58293	0
562	207.48585	147.27427	-61.02525	-176.56639	135.06922	43.12451	142.39225	698.94253	861.67653	1217.25032	1156.22507	1006.50979	0
563	207.48585	247.35568	39.86983	-227.8276	83.80801	143.20592	183.88942	772.17283	934.90683	1319.77274	1400.32607	1248.16978	0
564	183.07575	376.72921	193.65346	-279.08881	-4.88202	284.7845	247.35568	825.87505	1113.10056	1439.38223	1615.13495	1497.1528	0
565	207.48585	486.57466	279.08881	-347.43709	-36.61515	382.4249	335.23204	947.92555	1293.7353	1434.50021	1753.45885	1762.40922	0
566	165.98868	567.12799	401.13931	-366.96517	-117.16848	484.94732	418.22638	1087.06312	1464.606	1324.65476	1746.13582	1952.808	0
567	163.54767	642.7993	479.25163	-403.58032	-158.66565	560.61863	506.10274	1179.8215	1567.12842	1026.85154	1446.70526	2040.68436	0
568	136.69656	672.09142	535.39486	-403.58032	-200.16282	604.55681	537.83587	1223.75968	1620.83064	782.75054	1261.1885	2138.32476	0
569	100.08141	669.65041	569.569	-384.05224	-234.33696	619.20287	603.74314	1194.46756	1530.51327	480.0653	829.12973	1979.65911	0
570	29.29212	674.53243	645.24031	-352.31911	-307.56726	660.70004	625.71223	1030.91989	1242.47409	-4.06835	84.62168	1462.97866	0
571	-78.92599	679.41445	757.52677	-301.0579	-417.41271	716.84327	652.56334	862.4902	966.63996	-370.21985	-594.79277	791.70091	0
572	-115.54114	730.67566	845.40313	-308.38093	-480.87897	787.63256	674.53243	650.12233	876.32259	-531.32651	-960.94427	332.79103	0
573	-157.03831	728.23465	884.45929	-286.41184	-519.93513	804.71963	667.2094	510.98476	505.28907	-709.52024	-1197.72224	-92.75838	0
574	-188.77144	559.80496	747.76273	-186.33043	-468.67392	653.37701	694.06051	542.71789	441.82281	-785.19155	-1280.71658	-322.21332	0
575	-186.33043	415.78537	601.30213	-115.54114	-393.00261	506.91641	759.96778	633.03526	466.23291	-770.54549	-1246.54244	-471.11493	0
576	-157.03831	296.17588	452.40052	-69.16195	-305.12625	372.66086	762.40879	662.32738	439.3818	-716.84327	-1156.22507	-515.05311	0
577	-164.36134	244.91467	408.46234	-39.86983	-285.59817	326.28167	786.81889	669.65041	397.88463	-687.55115	-1114.7279	-546.78624	0
578	-191.21245	218.06356	408.46234	-13.01872	-300.24423	311.63561	820.99303	694.06051	371.03352	-736.37135	-1073.23073	-556.55028	0
579	-181.44841	205.85851	386.49325	-13.01872	-283.15716	294.54854	855.16717	730.67566	356.38746	-775.42751	-1092.75881	-605.37048	0
580	-176.56639	196.09447	371.84719	-10.57771	-273.39312	282.34349	886.9003	862.4902	417.41271	-729.04832	-1075.67174	-600.48846	0
581	-203.4175	161.92033	364.52416	19.52808	-283.15716	262.81541	947.92555	916.19242	466.23291	-670.46408	-1004.88245	-561.4323	0
582	-183.88942	161.92033	344.99608	9.76404	-263.62908	253.05137	982.09969	1023.59686	495.52503	-614.32085	-975.59033	-541.90422	0
583	-181.44841	108.21811	288.85285	36.61515	-234.33696	196.90814	1008.9508	1082.1811	473.55594	-587.46974	-917.00609	-471.11493	0
584	-183.88942	61.83892	244.91467	61.02525	-214.80888	152.96996	1038.24292	1121.23726	488.202	-499.59338	-836.45276	-441.82281	0
585	-215.62255	37.42882	252.2377	87.87636	-234.33696	143.20592	1055.32999	1084.62211	456.46887	-428.80409	-755.89943	-407.64867	0
586	-171.68437	88.69003	259.56073	41.49717	-214.80888	172.49804	1021.15585	1082.1811	402.76665	-406.835	-726.60731	-373.47453	0
587	-166.80235	83.80801	249.79669	41.49717	-207.48585	165.17501	1023.59686	1045.56595	358.82847	-355.57379	-709.52024	-339.30039	0
588	-164.36134	86.24902	249.79669	39.05616	-207.48585	167.61602	1028.47888	1043.12494	339.30039	-314.07662	-638.73095	-317.3313	0
589	-154.5973	96.01306	249.79669	29.29212	-202.60383	172.49804	1013.83282	1028.47888	285.59817	-301.87157	-636.28994	-288.03918	0
590	-139.95124	108.21811	247.35568	14.64606	-192.83979	177.38006	1006.50979	923.51545	202.60383	-267.69743	-616.76186	-263.62908	0
591	-135.06922	120.42316	254.67871	7.32303	-195.2808	187.1441	989.42272	796.58293	109.84545	-255.49238	-585.02873	-248.98302	0
592	-132.62821	130.1872	262.00174	1.62734	-197.72181	194.46713	952.80757	633.03526	26.85111	-255.49238	-594.79277	-256.30605	0
593	-132.62821	139.95124	271.76578	-3.25468	-202.60383	204.23117	882.01828	493.89769	-64.27993	-262.81541	-580.14671	-239.21898	0
594	-130.1872	149.71528	279.08881	-10.57771	-205.04484	213.99521	838.0801	327.90901	-127.74619	-255.49238	-570.38267	-229.45494	0
595	-127.74619	157.03831	283.97083	-15.45973	-205.04484	218.87723	835.63909	191.21245	-186.33043	-262.81541	-563.05964	-224.57292	0
596	-127.74619	166.80235	293.73487	-20.34175	-209.92686	228.64127	830.75707	88.69003	-232.70962	-270.13844	-563.05964	-219.6909	0
597	-127.74619	171.68437	298.61689	-22.78276	-212.36787	233.52329	772.17283	-26.03744	-262.00174	-272.57945	-558.17762	-212.36787	0
598	-127.74619	179.0074	305.93992	-25.22377	-217.24989	240.84632	676.97344	-102.52242	-288.85285	-272.57945	-553.2956	-207.48585	0
599	-127.74619	181.44841	308.38093	-27.66478	-217.24989	243.28733	613.50718	-158.66565	-337.67305	-272.57945	-548.41358	-200.16282	0
600	-120.42316	181.44841	301.0579	-30.10579	-209.92686	240.84632	542.71789	-197.72181	-354.76012	-267.69743	-541.09055	-187.95777	0
601	-113.10013	174.12538	286.41184	-30.10579	-200.16282	228.64127	467.04658	-224.57292	-364.52416	-267.69743	-533.76752	-178.19373	0
602	-105.7771	164.36134	269.32477	-30.10579	-187.95777	216.43622	423.1084	-261.18807	-320.58598	-267.69743	-528.8855	-170.8707	0
603	-100.89508	154.5973	254.67871	-27.66478	-178.19373	204.23117	381.61123	-217.24989	-323.02699	-265.25642	-528.8855	-163.54767	0
604	-91.13104	149.71528	240.03265	-30.10579	-165.98868	194.46713	349.8781	-219.6909	-315.70396	-255.49238	-521.56247	-153.78363	0
605	-81.367	144.83326	225.38659	-32.5468	-153.78363	184.70309	347.43709	-224.57292	-303.49891	-248.16935	-511.79843	-141.57858	0
606	-74.04397	137.51023	210.74053	-32.5468	-141.57858	172.49804	342.55507	-200.16282	-291.29386	-243.28733	-509.35742	-131.81454	0
607	-71.60296	125.30518	196.09447	-27.66478	-134.25555	160.29299	327.90901	-202.60383	-286.41184	-238.40531	-504.4754	-124.49151	0
608	-69.16195	115.54114	183.88942	-22.78276	-126.93252	148.08794	325.468	-202.60383	-279.08881	-233.52329	-504.4754	-122.0505	0
609	-64.27993	110.65912	174.12538	-22.78276	-119.60949	140.76491	313.26295	-202.60383	-274.20679	-228.64127	-502.03439	-117.16848	0
610	-56.9569	110.65912	166.80235	-27.66478	-112.28646	138.3239	303.49891	-202.60383	-269.32477	-223.75925	-499.59338	-112.28646	0
611	-52.07488	108.21811	159.47932	-27.66478	-104.96343	133.44188	296.17588	-202.60383	-262.00174	-218.87723	-494.71136	-107.40444	0
612	-47.19286	108.21811	154.5973	-30.10579	-100.08141	131.00087	288.85285	-202.60383	-257.11972	-211.5542	-487.38833	-102.52242	0
613	-47.19286	105.7771	152.15629	-30.10579	-100.08141	128.55986	281.52982	-209.92686	-257.11972	-206.67218	-489.82934	-102.52242	0
614	-47.19286	105.7771	152.15629	-30.10579	-100.08141	128.55986	271.76578	-217.24989	-257.11972	-204.23117	-489.82934	-104.96343	0
615	-47.19286	108.21811	154.5973	-30.10579	-100.08141	131.00087	259.56073	-224.57292	-259.56073	-209.11319	-492.27035	-100.08141	0
616	-42.31084	113.10013	154.5973	-34.98781	-97.6404	133.44188	252.2377	-227.01393	-262.00174	-209.11319	-492.27035	-97.6404	0
617	-42.31084	113.10013	154.5973	-34.98781	-97.6404	133.44188	244.91467	-227.01393	-262.00174	-206.67218	-489.82934	-92.75838	0
618	-44.75185	113.10013	157.03831	-34.98781	-100.08141	133.44188	235.15063	-234.33696	-262.00174	-204.23117	-489.82934	-90.31737	0
619	-42.31084	113.10013	154.5973	-34.98781	-97.6404	133.44188	227.8276	-241.65999	-266.88376	-204.23117	-492.27035	-90.31737	0
620	-42.31084	113.10013	154.5973	-34.98781	-97.6404	133.44188	220.50457	-248.98302	-271.76578	-206.67218	-497.15237	-85.43535	0
621	-39.86983	117.98215	157.03831	-39.86983	-97.6404	135.88289	215.62255	-253.86504	-276.6478	-211.5542	-499.59338	-82.99434	0
622	-37.42882	120.42316	157.03831	-42.31084	-97.6404	138.3239	210.74053	-256.30605	-279.08881	-213.99521	-497.15237	-78.11232	0
623	-37.42882	122.86417	159.47932	-42.31084	-97.6404	140.76491	210.74053	-263.62908	-283.97083	-216.43622	-502.03439	-80.55333	0
624	-37.42882	122.86417	159.47932	-42.31084	-97.6404	140.76491	205.85851	-270.95211	-286.41184	-216.43622	-502.03439	-80.55333	0
625	-37.42882	122.86417	159.47932	-42.31084	-97.6404	140.76491	200.97649	-275.83413	-288.85285	-223.75925	-506.91641	-82.99434	0
626	-34.98781	127.74619	161.92033	-47.19286	-97.6404	143.20592	193.65346	-283.15716	-293.73487	-235.9643	-516.68045	-87.87636	0
627	-37.42882	127.74619	164.36134	-44.75185	-100.08141	145.64693	188.77144	-288.03918	-301.0579	-245.72834	-519.12146	-87.87636	0
628	-39.86983	132.62821	171.68437	-47.19286	-104.96343	150.52895	188.77144	-292.9212	-303.49891	-245.72834	-521.56247	-90.31737	0
629	-37.42882	135.06922	171.68437	-49.63387	-104.96343	152.96996	183.88942	-297.80322	-308.38093	-250.61036	-524.00348	-92.75838	0
630	-39.86983	139.95124	179.0074	-49.63387	-109.84545	157.85198	176.56639	-305.12625	-313.26295	-253.05137	-528.8855	-90.31737	0
631	-42.31084	142.39225	183.88942	-49.63387	-112.28646	162.734	171.68437	-307.56726	-315.70396	-257.93339	-531.32651	-90.31737	0
632	-42.31084	142.39225	183.88942	-49.63387	-112.28646	162.734	169.24336	-314.89029	-320.58598	-260.3744	-531.32651	-90.31737	0
633	-42.31084	144.83326	186.33043	-52.07488	-114.72747	165.17501	169.24336	-319.77231	-327.90901	-267.69743	-543.53156	-95.19939	0
634	-47.19286	144.83326	191.21245	-49.63387	-119.60949	167.61602	169.24336	-327.09534	-335.23204	-277.46147	-550.85459	-102.52242	0
635	-47.19286	144.83326	191.21245	-49.63387	-119.60949	167.61602	166.80235	-334.41837	-340.11406	-287.22551	-555.73661	-104.96343	0
636	-47.19286	147.27427	193.65346	-49.63387	-119.60949	170.05703	164.36134	-339.30039	-344.99608	-296.98955	-565.50065	-109.84545	0
637	-49.63387	147.27427	196.09447	-49.63387	-122.0505	170.05703	157.03831	-341.7414	-354.76012	-306.75359	-572.82368	-112.28646	0
638	-52.07488	147.27427	198.53548	-47.19286	-124.49151	172.49804	152.15629	-349.06443	-359.64214	-314.07662	-582.58772	-119.60949	0
639	-54.51589	147.27427	200.97649	-47.19286	-126.93252	172.49804	147.27427	-358.82847	-369.40618	-321.39965	-592.35176	-126.93252	0
640	-54.51589	152.15629	205.85851	-49.63387	-129.37353	177.38006	147.27427	-363.71049	-376.72921	-331.16369	-604.55681	-131.81454	0
641	-56.9569	154.5973	210.74053	-49.63387	-134.25555	182.26208	142.39225	-368.59251	-381.61123	-338.48672	-611.87984	-134.25555	0
642	-56.9569	161.92033	218.06356	-52.07488	-136.69656	189.58511	137.51023	-375.91554	-388.93426	-340.92773	-614.32085	-136.69656	0
643	-56.9569	169.24336	225.38659	-56.9569	-141.57858	196.90814	132.62821	-380.79756	-393.81628	-340.92773	-621.64388	-139.13757	0
644	-61.83892	171.68437	232.70962	-54.51589	-146.4606	201.79016	127.74619	-388.12059	-401.13931	-350.69177	-628.96691	-144.01959	0
645	-61.83892	176.56639	237.59164	-56.9569	-148.90161	206.67218	122.86417	-397.88463	-408.46234	-362.89682	-641.17196	-148.90161	0
646	-61.83892	181.44841	242.47366	-59.39791	-151.34262	211.5542	117.98215	-402.76665	-415.78537	-375.10187	-650.936	-151.34262	0
647	-61.83892	186.33043	247.35568	-61.83892	-153.78363	216.43622	115.54114	-402.76665	-423.1084	-382.4249	-658.25903	-151.34262	0
648	-61.83892	191.21245	252.2377	-64.27993	-156.22464	221.31824	108.21811	-412.53069	-430.43143	-387.30692	-665.58206	-156.22464	0
649	-61.83892	198.53548	259.56073	-69.16195	-161.10666	228.64127	100.89508	-422.29473	-442.63648	-399.51197	-675.3461	-163.54767	0
650	-61.83892	200.97649	262.00174	-69.16195	-161.10666	231.08228	93.57205	-429.61776	-452.40052	-411.71702	-687.55115	-168.42969	0
651	-61.83892	203.4175	264.44275	-71.60296	-163.54767	233.52329	88.69003	-436.94079	-462.16456	-423.92207	-699.7562	-175.75272	0
652	-64.27993	208.29952	271.76578	-71.60296	-168.42969	238.40531	88.69003	-446.70483	-476.81062	-436.12712	-709.52024	-183.07575	0
653	-61.83892	215.62255	276.6478	-76.48498	-168.42969	245.72834	83.80801	-454.02786	-486.57466	-443.45015	-721.72529	-192.83979	0
654	-66.72094	220.50457	286.41184	-76.48498	-175.75272	253.05137	76.48498	-463.7919	-496.3387	-450.77318	-729.04832	-200.16282	0
655	-66.72094	225.38659	291.29386	-78.92599	-178.19373	257.93339	71.60296	-471.11493	-506.10274	-465.41924	-738.81236	-207.48585	0
656	-66.72094	232.70962	298.61689	-83.80801	-183.07575	265.25642	66.72094	-480.87897	-518.30779	-482.50631	-755.89943	-219.6909	0
657	-69.16195	237.59164	305.93992	-83.80801	-187.95777	270.13844	64.27993	-483.31998	-528.07183	-492.27035	-763.22246	-224.57292	0
658	-71.60296	240.03265	310.82194	-83.80801	-190.39878	275.02046	61.83892	-490.64301	-535.39486	-497.15237	-768.10448	-231.89595	0
659	-71.60296	244.91467	315.70396	-86.24902	-192.83979	279.90248	56.9569	-500.40705	-547.59991	-506.91641	-777.86852	-236.77797	0
660	-76.48498	244.91467	320.58598	-83.80801	-197.72181	282.34349	49.63387	-505.28907	-557.36395	-514.23944	-787.63256	-241.65999	0
661	-76.48498	244.91467	320.58598	-83.80801	-197.72181	282.34349	47.19286	-510.17109	-567.12799	-521.56247	-792.51458	-244.101	0
662	-78.92599	244.91467	323.02699	-83.80801	-200.16282	282.34349	42.31084	-517.49412	-579.33304	-528.8855	-799.83761	-251.42403	0
663	-78.92599	247.35568	325.468	-83.80801	-202.60383	284.7845	39.86983	-527.25816	-591.53809	-538.64954	-814.48367	-263.62908	0
664	-83.80801	247.35568	330.35002	-81.367	-207.48585	287.22551	37.42882	-537.0222	-601.30213	-543.53156	-821.8067	-270.95211	0
665	-86.24902	249.79669	335.23204	-81.367	-209.92686	292.10753	32.5468	-541.90422	-608.62516	-555.73661	-831.57074	-278.27514	0
666	-88.69003	254.67871	342.55507	-83.80801	-214.80888	296.98955	27.66478	-546.78624	-620.83021	-565.50065	-841.33478	-285.59817	0
667	-88.69003	259.56073	347.43709	-86.24902	-217.24989	301.87157	20.34175	-549.22725	-630.59425	-575.26469	-851.09882	-295.36221	0
668	-88.69003	266.88376	354.76012	-88.69003	-222.13191	309.1946	15.45973	-556.55028	-640.35829	-582.58772	-860.86286	-305.12625	0
669	-91.13104	271.76578	362.08315	-91.13104	-227.01393	316.51763	13.01872	-566.31432	-655.00435	-597.23378	-875.50892	-319.77231	0
670	-91.13104	274.20679	364.52416	-91.13104	-227.01393	318.95864	8.1367	-571.19634	-667.2094	-606.99782	-887.71397	-327.09534	0
671	-96.01306	276.6478	371.84719	-91.13104	-234.33696	323.84066	5.69569	-573.63735	-672.09142	-614.32085	-890.15498	-331.97736	0
672	-96.01306	276.6478	371.84719	-91.13104	-234.33696	323.84066	5.69569	-578.51937	-684.29647	-621.64388	-895.037	-339.30039	0
673	-98.45407	279.08881	376.72921	-91.13104	-236.77797	326.28167	3.25468	-585.8424	-694.06051	-628.96691	-904.80104	-351.50544	0
674	-98.45407	279.08881	376.72921	-91.13104	-236.77797	326.28167	-4.06835	-593.16543	-703.82455	-641.17196	-917.00609	-363.71049	0
675	-105.7771	276.6478	381.61123	-86.24902	-244.101	328.72268	-8.95037	-598.04745	-713.58859	-658.25903	-931.65215	-373.47453	0
676	-110.65912	276.6478	386.49325	-83.80801	-248.98302	331.16369	-8.95037	-602.92947	-723.35263	-675.3461	-946.29821	-383.23857	0
677	-110.65912	274.20679	384.05224	-81.367	-246.54201	328.72268	-13.83239	-602.92947	-730.67566	-685.11014	-951.18023	-393.00261	0
678	-113.10013	274.20679	386.49325	-81.367	-248.98302	328.72268	-18.71441	-607.81149	-737.99869	-687.55115	-956.06225	-400.32564	0
679	-113.10013	276.6478	388.93426	-81.367	-251.42403	331.16369	-24.4101	-615.13452	-745.32172	-697.31519	-965.82629	-407.64867	0
680	-113.10013	279.08881	391.37527	-83.80801	-251.42403	333.6047	-29.29212	-617.57553	-755.08576	-709.52024	-978.03134	-414.9717	0
681	-113.10013	279.08881	391.37527	-83.80801	-251.42403	333.6047	-34.17414	-622.45755	-759.96778	-721.72529	-987.79538	-419.85372	0
682	-113.10013	279.08881	391.37527	-83.80801	-251.42403	333.6047	-36.61515	-624.89856	-767.29081	-726.60731	-990.23639	-427.17675	0
683	-113.10013	276.6478	388.93426	-81.367	-251.42403	331.16369	-36.61515	-629.78058	-772.17283	-731.48933	-997.55942	-434.49978	0
684	-113.10013	276.6478	388.93426	-81.367	-251.42403	331.16369	-41.49717	-634.6626	-779.49586	-738.81236	-1002.44144	-441.82281	0
685	-113.10013	276.6478	388.93426	-81.367	-251.42403	331.16369	-48.8202	-637.10361	-784.37788	-751.01741	-1009.76447	-451.58685	0
686	-115.54114	276.6478	391.37527	-81.367	-253.86504	333.6047	-58.58424	-639.54462	-789.2599	-765.66347	-1019.52851	-461.35089	0
687	-117.98215	276.6478	393.81628	-78.92599	-256.30605	333.6047	-65.90727	-637.10361	-794.14192	-777.86852	-1026.85154	-468.67392	0
688	-117.98215	274.20679	391.37527	-78.92599	-253.86504	331.16369	-68.34828	-639.54462	-794.14192	-782.75054	-1031.73356	-478.43796	0
689	-117.98215	271.76578	388.93426	-76.48498	-253.86504	328.72268	-70.78929	-639.54462	-799.02394	-787.63256	-1034.17457	-485.76099	0
690	-117.98215	264.44275	381.61123	-74.04397	-248.98302	321.39965	-78.11232	-641.98563	-803.90596	-792.51458	-1041.4976	-493.08402	0
691	-117.98215	262.00174	379.17022	-71.60296	-248.98302	318.95864	-85.43535	-641.98563	-806.34697	-799.83761	-1043.93861	-497.96604	0
692	-120.42316	259.56073	379.17022	-69.16195	-248.98302	318.95864	-87.87636	-639.54462	-803.90596	-794.95559	-1036.61558	-497.96604	0
693	-117.98215	254.67871	371.84719	-69.16195	-244.101	311.63561	-87.87636	-637.10361	-801.46495	-790.07357	-1036.61558	-500.40705	0
694	-117.98215	249.79669	366.96517	-66.72094	-241.65999	306.75359	-85.43535	-637.10361	-799.02394	-790.07357	-1031.73356	-500.40705	0
695	-117.98215	242.47366	359.64214	-61.83892	-239.21898	299.43056	-85.43535	-632.22159	-794.14192	-790.07357	-1029.29255	-500.40705	0
696	-117.98215	237.59164	354.76012	-59.39791	-236.77797	294.54854	-85.43535	-629.78058	-791.70091	-792.51458	-1026.85154	-500.40705	0
697	-120.42316	225.38659	344.99608	-52.07488	-231.89595	284.7845	-87.87636	-622.45755	-789.2599	-790.07357	-1017.0875	-500.40705	0
698	-120.42316	215.62255	335.23204	-47.19286	-227.01393	275.02046	-87.87636	-615.13452	-779.49586	-782.75054	-1007.32346	-497.96604	0
699	-115.54114	210.74053	325.468	-47.19286	-219.6909	267.69743	-87.87636	-607.81149	-772.17283	-775.42751	-997.55942	-490.64301	0
700	-113.10013	203.4175	315.70396	-44.75185	-214.80888	257.93339	-87.87636	-598.04745	-762.40879	-772.9865	-995.11841	-485.76099	0
701	-113.10013	196.09447	308.38093	-42.31084	-209.92686	250.61036	-90.31737	-588.28341	-752.64475	-768.10448	-987.79538	-483.31998	0
702	-110.65912	186.33043	296.17588	-37.42882	-202.60383	240.84632	-90.31737	-578.51937	-740.4397	-758.34044	-973.14932	-475.99695	0
703	-105.7771	179.0074	283.97083	-37.42882	-195.2808	231.08228	-90.31737	-566.31432	-728.23465	-748.5764	-965.82629	-473.55594	0
704	-103.33609	171.68437	274.20679	-34.98781	-187.95777	221.31824	-90.31737	-554.10927	-711.14758	-738.81236	-951.18023	-463.7919	0
705	-98.45407	166.80235	264.44275	-34.98781	-180.63474	213.99521	-90.31737	-539.46321	-694.06051	-729.04832	-936.53417	-454.02786	0
706	-91.13104	161.92033	252.2377	-34.98781	-170.8707	206.67218	-85.43535	-522.37614	-674.53243	-719.28428	-924.32912	-446.70483	0
707	-91.13104	149.71528	240.03265	-30.10579	-165.98868	194.46713	-85.43535	-505.28907	-657.44536	-704.63822	-907.24205	-434.49978	0
708	-83.80801	142.39225	225.38659	-30.10579	-153.78363	182.26208	-82.99434	-490.64301	-637.91728	-685.11014	-890.15498	-427.17675	0
709	-81.367	132.62821	213.18154	-25.22377	-146.4606	172.49804	-82.99434	-473.55594	-618.3892	-668.02307	-870.6269	-414.9717	0
710	-78.92599	122.86417	200.97649	-22.78276	-139.13757	160.29299	-82.99434	-456.46887	-596.42011	-650.936	-853.53983	-400.32564	0
711	-74.04397	115.54114	188.77144	-20.34175	-131.81454	150.52895	-80.55333	-439.3818	-589.09708	-633.84893	-814.48367	-385.67958	0
712	-66.72094	108.21811	174.12538	-20.34175	-119.60949	140.76491	-75.67131	-419.85372	-550.04092	-606.99782	-814.48367	-366.1515	0
713	-61.83892	100.89508	161.92033	-20.34175	-112.28646	131.00087	-70.78929	-400.32564	-535.39486	-594.79277	-799.83761	-351.50544	0
714	-59.39791	88.69003	147.27427	-15.45973	-102.52242	116.35481	-65.90727	-383.23857	-508.54375	-582.58772	-782.75054	-334.41837	0
715	-56.9569	78.92599	135.06922	-10.57771	-95.19939	106.59077	-63.46626	-361.26948	-479.25163	-538.64954	-719.28428	-317.3313	0
716	-54.51589	66.72094	120.42316	-5.69569	-87.87636	91.94471	-58.58424	-336.85938	-442.63648	-516.68045	-677.78711	-297.80322	0
717	-47.19286	54.51589	100.89508	-3.25468	-73.2303	77.29865	-53.70222	-312.44928	-418.22638	-492.27035	-668.02307	-275.83413	0
718	-42.31084	44.75185	86.24902	-0.81367	-63.46626	65.0936	-46.37919	-292.9212	-396.25729	-462.97823	-628.96691	-253.86504	0
719	-37.42882	34.98781	71.60296	1.62734	-53.70222	52.88855	-39.05616	-270.95211	-359.64214	-433.68611	-609.43883	-229.45494	0
720	-32.5468	20.34175	52.07488	4.06835	-41.49717	35.80148	-34.17414	-248.98302	-335.23204	-406.835	-589.91075	-205.04484	0
721	-32.5468	8.1367	39.86983	12.20505	-36.61515	23.59643	-24.4101	-227.01393	-313.26295	-370.21985	-521.56247	-180.63474	0
722	-27.66478	-1.62734	25.22377	14.64606	-26.85111	11.39138	-16.2734	-202.60383	-279.08881	-355.57379	-504.4754	-158.66565	0
723	-22.78276	-7.32303	15.45973	14.64606	-19.52808	4.06835	-4.06835	-180.63474	-252.2377	-316.51763	-477.62429	-134.25555	0
724	-13.01872	-7.32303	5.69569	9.76404	-9.76404	-0.81367	5.69569	-161.10666	-220.50457	-299.43056	-458.09621	-112.28646	0
725	-8.1367	-7.32303	0.81367	7.32303	-4.88202	-3.25468	17.90074	-139.13757	-196.09447	-270.13844	-414.15803	-90.31737	0
726	-5.69569	-9.76404	-4.88202	7.32303	-2.44101	-8.95037	30.10579	-117.16848	-161.92033	-250.61036	-372.66086	-70.78929	0
727	0	-12.20505	-12.20505	4.06835	5.69569	-11.39138	42.31084	-92.75838	-122.86417	-223.75925	-358.0148	-46.37919	0
728	2.44101	-12.20505	-14.64606	4.06835	8.1367	-13.83239	54.51589	-70.78929	-103.33609	-196.90814	-331.16369	-28.47845	0
729	9.76404	-12.20505	-21.96909	1.62734	15.45973	-16.2734	61.83892	-51.26121	-74.04397	-172.49804	-323.84066	-11.39138	0
730	14.64606	-17.08707	-31.73313	1.62734	22.78276	-23.59643	71.60296	-33.36047	-59.39791	-150.52895	-299.43056	10.57771	0
731	19.52808	-19.52808	-39.05616	-0.81367	27.66478	-28.47845	81.367	-13.83239	-34.98781	-94.38572	-221.31824	27.66478	0
732	21.96909	-26.85111	-48.8202	1.62734	34.98781	-38.24249	88.69003	3.25468	-10.57771	-111.47279	-216.43622	42.31084	0
733	21.96909	-36.61515	-58.58424	7.32303	39.86983	-48.00653	100.89508	20.34175	8.95037	-87.06269	-216.43622	59.39791	0
734	24.4101	-43.93818	-68.34828	9.76404	44.75185	-55.32956	105.7771	34.98781	31.73313	-65.0936	-192.02612	74.04397	0
735	24.4101	-48.8202	-73.2303	12.20505	47.19286	-60.21158	113.10013	49.63387	53.70222	-48.00653	-172.49804	86.24902	0
736	24.4101	-53.70222	-78.11232	14.64606	49.63387	-65.0936	122.86417	64.27993	70.78929	-35.80148	-157.85198	98.45407	0
737	24.4101	-58.58424	-82.99434	17.08707	52.07488	-69.97562	130.1872	81.367	90.31737	-21.15542	-140.76491	110.65912	0
738	24.4101	-61.02525	-85.43535	17.08707	54.51589	-72.41663	135.06922	91.13104	104.96343	-6.50936	-128.55986	117.98215	0
739	24.4101	-58.58424	-82.99434	17.08707	52.07488	-69.97562	137.51023	98.45407	119.60949	10.57771	-113.9138	127.74619	0
740	24.4101	-58.58424	-82.99434	17.08707	52.07488	-69.97562	142.39225	108.21811	129.37353	25.22377	-101.70875	137.51023	0
741	26.85111	-61.02525	-87.87636	17.08707	56.9569	-74.85764	147.27427	115.54114	141.57858	37.42882	-87.06269	144.83326	0
742	29.29212	-61.02525	-90.31737	14.64606	59.39791	-74.85764	152.15629	122.86417	153.78363	48.00653	-69.97562	154.5973	0
743	31.73313	-61.02525	-92.75838	14.64606	61.83892	-77.29865	154.5973	130.1872	163.54767	60.21158	-60.21158	161.92033	0
744	34.17414	-61.02525	-95.19939	12.20505	64.27993	-77.29865	154.5973	132.62821	170.8707	69.97562	-50.44754	169.24336	0
745	34.17414	-61.02525	-95.19939	12.20505	64.27993	-77.29865	154.5973	135.06922	180.63474	79.73966	-35.80148	174.12538	0
746	34.17414	-65.90727	-100.08141	14.64606	66.72094	-82.18067	154.5973	137.51023	187.95777	87.06269	-28.47845	181.44841	0
747	31.73313	-73.2303	-104.96343	19.52808	66.72094	-89.5037	159.47932	144.83326	192.83979	94.38572	-18.71441	188.77144	0
748	31.73313	-78.11232	-109.84545	21.96909	69.16195	-94.38572	159.47932	147.27427	200.16282	101.70875	-11.39138	191.21245	0
749	31.73313	-75.67131	-107.40444	21.96909	69.16195	-91.94471	159.47932	147.27427	205.04484	109.03178	-4.06835	196.09447	0
750	34.17414	-70.78929	-104.96343	17.08707	69.16195	-87.06269	159.47932	147.27427	207.48585	113.9138	0.81367	200.97649	0
751	34.17414	-70.78929	-104.96343	17.08707	69.16195	-87.06269	157.03831	147.27427	209.92686	121.23683	3.25468	200.97649	0
752	31.73313	-68.34828	-100.08141	17.08707	64.27993	-84.62168	161.92033	147.27427	212.36787	128.55986	10.57771	203.4175	0
753	31.73313	-63.46626	-95.19939	14.64606	61.83892	-79.73966	164.36134	144.83326	209.92686	133.44188	13.01872	200.97649	0
754	31.73313	-63.46626	-95.19939	14.64606	61.83892	-79.73966	164.36134	142.39225	209.92686	135.88289	17.90074	200.97649	0
755	31.73313	-61.02525	-92.75838	14.64606	61.83892	-77.29865	164.36134	139.95124	209.92686	140.76491	22.78276	203.4175	0
756	31.73313	-61.02525	-92.75838	14.64606	61.83892	-77.29865	164.36134	137.51023	209.92686	145.64693	30.91946	205.85851	0
757	31.73313	-65.90727	-97.6404	17.08707	64.27993	-82.18067	164.36134	142.39225	209.92686	150.52895	38.24249	208.29952	0
758	29.29212	-73.2303	-102.52242	21.96909	64.27993	-87.06269	166.80235	144.83326	212.36787	157.85198	45.56552	210.74053	0
759	24.4101	-78.11232	-102.52242	26.85111	61.83892	-89.5037	166.80235	142.39225	209.92686	162.734	52.88855	210.74053	0
760	24.4101	-85.43535	-109.84545	29.29212	66.72094	-96.82673	166.80235	142.39225	207.48585	167.61602	55.32956	210.74053	0
761	24.4101	-92.75838	-117.16848	34.17414	69.16195	-104.14976	169.24336	144.83326	209.92686	172.49804	60.21158	213.18154	0
762	24.4101	-95.19939	-119.60949	34.17414	71.60296	-106.59077	171.68437	147.27427	207.48585	174.93905	65.0936	213.18154	0
763	21.96909	-95.19939	-117.16848	36.61515	69.16195	-106.59077	174.12538	147.27427	205.04484	177.38006	65.0936	210.74053	0
764	21.96909	-92.75838	-114.72747	34.17414	66.72094	-104.14976	176.56639	142.39225	197.72181	177.38006	65.0936	205.85851	0
765	21.96909	-85.43535	-107.40444	31.73313	64.27993	-96.82673	176.56639	135.06922	192.83979	177.38006	67.53461	203.4175	0
766	21.96909	-80.55333	-102.52242	29.29212	61.83892	-91.94471	174.12538	132.62821	187.95777	172.49804	65.0936	200.97649	0
767	24.4101	-78.11232	-102.52242	26.85111	61.83892	-89.5037	171.68437	130.1872	185.51676	172.49804	67.53461	200.97649	0
768	26.85111	-75.67131	-102.52242	24.4101	64.27993	-89.5037	169.24336	127.74619	183.07575	179.82107	72.41663	200.97649	0
769	26.85111	-73.2303	-100.08141	21.96909	61.83892	-87.06269	166.80235	122.86417	178.19373	184.70309	74.85764	200.97649	0
770	24.4101	-78.11232	-102.52242	26.85111	61.83892	-89.5037	161.92033	120.42316	173.31171	182.26208	69.97562	200.97649	0
771	24.4101	-82.99434	-107.40444	29.29212	64.27993	-94.38572	159.47932	120.42316	173.31171	184.70309	72.41663	200.97649	0
772	24.4101	-82.99434	-107.40444	29.29212	64.27993	-94.38572	154.5973	117.98215	173.31171	187.1441	74.85764	198.53548	0
773	24.4101	-87.87636	-112.28646	31.73313	66.72094	-99.26774	154.5973	120.42316	173.31171	192.02612	77.29865	198.53548	0
774	24.4101	-90.31737	-114.72747	31.73313	69.16195	-101.70875	149.71528	117.98215	173.31171	196.90814	82.18067	196.09447	0
775	24.4101	-90.31737	-114.72747	31.73313	69.16195	-101.70875	144.83326	115.54114	168.42969	196.90814	84.62168	196.09447	0
776	21.96909	-87.87636	-109.84545	31.73313	64.27993	-99.26774	144.83326	110.65912	165.98868	192.02612	82.18067	193.65346	0
777	19.52808	-90.31737	-109.84545	34.17414	64.27993	-99.26774	142.39225	110.65912	163.54767	192.02612	79.73966	193.65346	0
778	19.52808	-90.31737	-109.84545	34.17414	64.27993	-99.26774	139.95124	110.65912	163.54767	196.90814	82.18067	193.65346	0
779	21.96909	-87.87636	-109.84545	31.73313	64.27993	-99.26774	137.51023	108.21811	161.10666	199.34915	87.06269	193.65346	0
780	24.4101	-87.87636	-112.28646	31.73313	66.72094	-99.26774	135.06922	108.21811	158.66565	201.79016	87.06269	196.09447	0
781	26.85111	-87.87636	-114.72747	29.29212	69.16195	-101.70875	132.62821	108.21811	156.22464	201.79016	87.06269	196.09447	0
782	26.85111	-87.87636	-114.72747	29.29212	69.16195	-101.70875	132.62821	108.21811	156.22464	196.90814	87.06269	193.65346	0
783	24.4101	-92.75838	-117.16848	34.17414	69.16195	-104.14976	135.06922	110.65912	153.78363	196.90814	84.62168	191.21245	0
784	26.85111	-95.19939	-122.0505	34.17414	74.04397	-109.03178	135.06922	105.7771	151.34262	201.79016	91.94471	188.77144	0
785	29.29212	-95.19939	-124.49151	31.73313	76.48498	-109.03178	132.62821	103.33609	148.90161	201.79016	94.38572	186.33043	0
786	26.85111	-95.19939	-122.0505	34.17414	74.04397	-109.03178	130.1872	98.45407	146.4606	199.34915	94.38572	183.88942	0
787	29.29212	-92.75838	-122.0505	31.73313	74.04397	-106.59077	127.74619	98.45407	144.01959	199.34915	96.82673	186.33043	0
788	29.29212	-92.75838	-122.0505	31.73313	74.04397	-106.59077	125.30518	98.45407	144.01959	204.23117	99.26774	186.33043	0
789	29.29212	-92.75838	-122.0505	31.73313	74.04397	-106.59077	122.86417	96.01306	139.13757	206.67218	99.26774	183.88942	0
790	29.29212	-92.75838	-122.0505	31.73313	74.04397	-106.59077	120.42316	96.01306	139.13757	211.5542	101.70875	188.77144	0
791	31.73313	-97.6404	-129.37353	31.73313	78.92599	-113.9138	120.42316	96.01306	136.69656	213.99521	104.14976	188.77144	0
792	34.17414	-95.19939	-129.37353	29.29212	81.367	-111.47279	120.42316	96.01306	136.69656	213.99521	109.03178	188.77144	0
793	34.17414	-97.6404	-131.81454	31.73313	81.367	-113.9138	115.54114	96.01306	134.25555	213.99521	106.59077	186.33043	0
794	36.61515	-100.08141	-136.69656	31.73313	86.24902	-118.79582	115.54114	96.01306	134.25555	213.99521	106.59077	181.44841	0
795	36.61515	-97.6404	-134.25555	29.29212	83.80801	-116.35481	113.10013	96.01306	134.25555	216.43622	106.59077	179.0074	0
796	36.61515	-95.19939	-131.81454	29.29212	83.80801	-113.9138	110.65912	96.01306	134.25555	216.43622	109.03178	179.0074	0
797	36.61515	-97.6404	-134.25555	29.29212	83.80801	-116.35481	105.7771	98.45407	136.69656	221.31824	109.03178	181.44841	0
798	39.05616	-97.6404	-136.69656	29.29212	86.24902	-116.35481	103.33609	100.89508	136.69656	226.20026	109.03178	179.0074	0
799	41.49717	-97.6404	-139.13757	26.85111	88.69003	-118.79582	98.45407	98.45407	134.25555	228.64127	106.59077	179.0074	0
800	41.49717	-100.08141	-141.57858	29.29212	91.13104	-121.23683	98.45407	100.89508	136.69656	235.9643	104.14976	179.0074	0
801	39.05616	-104.96343	-144.01959	31.73313	91.13104	-123.67784	96.01306	100.89508	136.69656	235.9643	104.14976	179.0074	0
802	39.05616	-104.96343	-144.01959	31.73313	91.13104	-123.67784	96.01306	105.7771	141.57858	240.84632	109.03178	181.44841	0
803	39.05616	-109.84545	-148.90161	34.17414	93.57205	-128.55986	98.45407	110.65912	144.01959	245.72834	111.47279	183.88942	0
804	43.93818	-114.72747	-158.66565	34.17414	100.89508	-135.88289	98.45407	113.10013	144.01959	248.16935	116.35481	183.88942	0
805	43.93818	-114.72747	-158.66565	34.17414	100.89508	-135.88289	100.89508	113.10013	144.01959	245.72834	116.35481	181.44841	0
806	43.93818	-117.16848	-161.10666	36.61515	100.89508	-138.3239	100.89508	110.65912	144.01959	248.16935	116.35481	181.44841	0
807	43.93818	-119.60949	-163.54767	36.61515	103.33609	-140.76491	98.45407	115.54114	146.4606	253.05137	121.23683	186.33043	0
808	43.93818	-119.60949	-163.54767	36.61515	103.33609	-140.76491	96.01306	115.54114	146.4606	260.3744	121.23683	186.33043	0
809	46.37919	-117.16848	-163.54767	34.17414	103.33609	-140.76491	93.57205	110.65912	144.01959	265.25642	121.23683	186.33043	0
810	46.37919	-117.16848	-163.54767	34.17414	103.33609	-140.76491	93.57205	110.65912	144.01959	272.57945	118.79582	183.88942	0
811	51.26121	-117.16848	-168.42969	31.73313	108.21811	-143.20592	91.13104	108.21811	144.01959	275.02046	118.79582	183.88942	0
812	51.26121	-112.28646	-163.54767	29.29212	105.7771	-138.3239	91.13104	108.21811	144.01959	275.02046	118.79582	181.44841	0
813	51.26121	-109.84545	-161.10666	29.29212	105.7771	-135.88289	88.69003	105.7771	141.57858	282.34349	118.79582	179.0074	0
814	53.70222	-107.40444	-161.10666	26.85111	105.7771	-133.44188	88.69003	103.33609	141.57858	284.7845	123.67784	179.0074	0
815	53.70222	-104.96343	-158.66565	24.4101	105.7771	-131.00087	88.69003	103.33609	139.13757	287.22551	126.11885	179.0074	0
816	51.26121	-102.52242	-153.78363	24.4101	100.89508	-128.55986	88.69003	98.45407	136.69656	284.7845	128.55986	181.44841	0
817	48.8202	-102.52242	-151.34262	26.85111	98.45407	-126.11885	86.24902	98.45407	136.69656	284.7845	128.55986	183.88942	0
818	51.26121	-102.52242	-153.78363	24.4101	100.89508	-128.55986	83.80801	100.89508	136.69656	289.66652	128.55986	183.88942	0
819	53.70222	-102.52242	-156.22464	24.4101	103.33609	-128.55986	83.80801	103.33609	139.13757	294.54854	131.00087	183.88942	0
820	56.14323	-102.52242	-158.66565	21.96909	105.7771	-131.00087	83.80801	105.7771	139.13757	299.43056	131.00087	188.77144	-1250	T-0
821	58.58424	-104.96343	-163.54767	21.96909	110.65912	-133.44188	86.24902	110.65912	144.01959	304.31258	133.44188	188.77144	0
822	58.58424	-104.96343	-163.54767	21.96909	110.65912	-133.44188	86.24902	113.10013	146.4606	304.31258	133.44188	191.21245	0
823	61.02525	-104.96343	-165.98868	21.96909	113.10013	-135.88289	86.24902	117.98215	148.90161	304.31258	133.44188	188.77144	0
824	63.46626	-104.96343	-168.42969	19.52808	115.54114	-135.88289	83.80801	120.42316	151.34262	309.1946	138.3239	188.77144	0
825	68.34828	-102.52242	-170.8707	17.08707	117.98215	-135.88289	81.367	122.86417	153.78363	314.07662	143.20592	186.33043	0
826	68.34828	-102.52242	-170.8707	17.08707	117.98215	-135.88289	78.92599	122.86417	158.66565	316.51763	148.08794	191.21245	0
827	68.34828	-104.96343	-173.31171	17.08707	120.42316	-138.3239	76.48498	125.30518	158.66565	316.51763	148.08794	193.65346	0
828	68.34828	-107.40444	-175.75272	19.52808	120.42316	-140.76491	74.04397	125.30518	161.10666	316.51763	148.08794	193.65346	0
829	63.46626	-112.28646	-175.75272	24.4101	117.98215	-143.20592	71.60296	127.74619	163.54767	321.39965	150.52895	196.09447	0
830	63.46626	-112.28646	-175.75272	24.4101	117.98215	-143.20592	66.72094	127.74619	168.42969	326.28167	152.96996	200.97649	0
831	63.46626	-114.72747	-178.19373	24.4101	120.42316	-145.64693	66.72094	132.62821	170.8707	328.72268	152.96996	200.97649	0
832	63.46626	-109.84545	-173.31171	21.96909	117.98215	-140.76491	69.16195	135.06922	175.75272	328.72268	152.96996	200.97649	0
833	61.02525	-109.84545	-170.8707	24.4101	115.54114	-140.76491	74.04397	135.06922	178.19373	323.84066	148.08794	200.97649	0
834	61.02525	-112.28646	-173.31171	24.4101	115.54114	-143.20592	74.04397	137.51023	178.19373	323.84066	150.52895	200.97649	0
835	61.02525	-109.84545	-170.8707	24.4101	115.54114	-140.76491	71.60296	137.51023	180.63474	323.84066	150.52895	200.97649	0
836	61.02525	-107.40444	-168.42969	21.96909	113.10013	-138.3239	69.16195	137.51023	183.07575	316.51763	152.96996	200.97649	0
837	61.02525	-109.84545	-170.8707	24.4101	115.54114	-140.76491	69.16195	139.95124	185.51676	309.1946	150.52895	203.4175	0
838	63.46626	-109.84545	-173.31171	21.96909	117.98215	-140.76491	69.16195	142.39225	190.39878	304.31258	150.52895	205.85851	0
839	65.90727	-109.84545	-175.75272	21.96909	120.42316	-143.20592	66.72094	144.83326	190.39878	296.98955	150.52895	208.29952	0
840	65.90727	-112.28646	-178.19373	21.96909	120.42316	-145.64693	66.72094	147.27427	195.2808	294.54854	152.96996	213.18154	0
841	65.90727	-114.72747	-180.63474	24.4101	122.86417	-148.08794	64.27993	149.71528	197.72181	287.22551	152.96996	215.62255	0
842	65.90727	-112.28646	-178.19373	21.96909	120.42316	-145.64693	61.83892	149.71528	197.72181	277.46147	152.96996	215.62255	0
843	63.46626	-112.28646	-175.75272	24.4101	117.98215	-143.20592	61.83892	152.15629	202.60383	267.69743	150.52895	215.62255	0
844	63.46626	-112.28646	-175.75272	24.4101	117.98215	-143.20592	64.27993	154.5973	205.04484	262.81541	152.96996	213.18154	0
845	65.90727	-104.96343	-170.8707	19.52808	117.98215	-138.3239	64.27993	157.03831	205.04484	265.25642	155.41097	213.18154	0
846	65.90727	-102.52242	-168.42969	17.08707	115.54114	-135.88289	61.83892	157.03831	207.48585	265.25642	157.85198	215.62255	0
847	63.46626	-102.52242	-165.98868	19.52808	113.10013	-133.44188	61.83892	154.5973	207.48585	260.3744	155.41097	215.62255	0
848	63.46626	-102.52242	-165.98868	19.52808	113.10013	-133.44188	61.83892	154.5973	207.48585	260.3744	150.52895	215.62255	0
849	63.46626	-102.52242	-165.98868	19.52808	113.10013	-133.44188	61.83892	157.03831	209.92686	260.3744	150.52895	215.62255	0
850	63.46626	-102.52242	-165.98868	19.52808	113.10013	-133.44188	61.83892	157.03831	212.36787	265.25642	150.52895	220.50457	0
851	63.46626	-102.52242	-165.98868	19.52808	113.10013	-133.44188	66.72094	161.92033	214.80888	270.13844	155.41097	222.94558	0
852	63.46626	-100.08141	-163.54767	17.08707	113.10013	-131.00087	66.72094	164.36134	219.6909	270.13844	155.41097	222.94558	0
853	63.46626	-100.08141	-163.54767	17.08707	113.10013	-131.00087	71.60296	169.24336	222.13191	270.13844	155.41097	222.94558	0
854	63.46626	-100.08141	-163.54767	17.08707	113.10013	-131.00087	76.48498	174.12538	227.01393	270.13844	157.85198	220.50457	0
855	63.46626	-90.31737	-153.78363	12.20505	108.21811	-121.23683	78.92599	176.56639	229.45494	277.46147	162.734	220.50457	0
856	63.46626	-82.99434	-146.4606	9.76404	103.33609	-113.9138	83.80801	179.0074	236.77797	287.22551	170.05703	225.38659	0
857	65.90727	-75.67131	-141.57858	4.06835	103.33609	-109.03178	93.57205	183.88942	241.65999	292.10753	174.93905	230.26861	0
858	65.90727	-68.34828	-134.25555	1.62734	98.45407	-101.70875	105.7771	188.77144	248.98302	299.43056	174.93905	232.70962	0
859	65.90727	-58.58424	-124.49151	-3.25468	93.57205	-91.94471	120.42316	193.65346	253.86504	306.75359	179.82107	237.59164	0
860	65.90727	-46.37919	-112.28646	-10.57771	88.69003	-79.73966	132.62821	198.53548	261.18807	314.07662	184.70309	242.47366	0
861	65.90727	-39.05616	-104.96343	-13.01872	83.80801	-72.41663	147.27427	203.4175	270.95211	326.28167	194.46713	249.79669	0
862	65.90727	-29.29212	-95.19939	-17.90074	78.92599	-62.65259	159.47932	208.29952	278.27514	333.6047	201.79016	254.67871	0
863	65.90727	-21.96909	-87.87636	-22.78276	76.48498	-55.32956	169.24336	213.18154	283.15716	338.48672	206.67218	257.11972	0
864	68.34828	-17.08707	-85.43535	-25.22377	76.48498	-50.44754	174.12538	215.62255	285.59817	343.36874	213.99521	257.11972	0
865	68.34828	-9.76404	-78.11232	-30.10579	71.60296	-43.12451	174.12538	215.62255	285.59817	345.80975	216.43622	259.56073	0
866	65.90727	-7.32303	-73.2303	-30.10579	69.16195	-40.6835	169.24336	208.29952	285.59817	345.80975	218.87723	262.00174	0
867	65.90727	-4.06835	-70.78929	-30.10579	69.16195	-38.24249	161.92033	203.4175	283.15716	348.25076	223.75925	264.44275	0
868	63.46626	-4.06835	-68.34828	-30.10579	66.72094	-35.80148	154.5973	196.09447	280.71615	350.69177	223.75925	264.44275	0
869	63.46626	-7.32303	-70.78929	-27.66478	66.72094	-38.24249	144.83326	188.77144	273.39312	348.25076	223.75925	262.00174	0
870	65.90727	-7.32303	-73.2303	-30.10579	69.16195	-40.6835	135.06922	176.56639	263.62908	343.36874	218.87723	259.56073	0
871	65.90727	-7.32303	-73.2303	-30.10579	69.16195	-40.6835	125.30518	164.36134	256.30605	338.48672	213.99521	254.67871	0
872	65.90727	-12.20505	-78.11232	-27.66478	71.60296	-45.56552	120.42316	152.15629	248.98302	328.72268	209.11319	252.2377	0
873	65.90727	-17.08707	-82.99434	-25.22377	74.04397	-50.44754	113.10013	142.39225	241.65999	318.95864	204.23117	247.35568	0
874	65.90727	-21.96909	-87.87636	-22.78276	76.48498	-55.32956	105.7771	132.62821	231.89595	316.51763	204.23117	242.47366	0
875	63.46626	-29.29212	-92.75838	-17.90074	76.48498	-60.21158	93.57205	125.30518	224.57292	311.63561	201.79016	237.59164	0
876	65.90727	-34.17414	-100.08141	-15.45973	81.367	-67.53461	78.92599	115.54114	214.80888	301.87157	199.34915	232.70962	0
877	65.90727	-43.93818	-109.84545	-10.57771	86.24902	-77.29865	64.27993	110.65912	209.92686	294.54854	194.46713	232.70962	0
878	65.90727	-51.26121	-117.16848	-8.1367	91.13104	-84.62168	49.63387	108.21811	202.60383	294.54854	192.02612	232.70962	0
879	68.34828	-58.58424	-126.93252	-5.69569	96.01306	-91.94471	37.42882	108.21811	200.16282	292.10753	192.02612	232.70962	0
880	73.2303	-63.46626	-136.69656	-5.69569	103.33609	-99.26774	22.78276	108.21811	197.72181	289.66652	192.02612	232.70962	0
881	75.67131	-68.34828	-144.01959	-3.25468	108.21811	-106.59077	10.57771	108.21811	195.2808	289.66652	192.02612	232.70962	0
882	78.11232	-73.2303	-151.34262	-3.25468	113.10013	-111.47279	0.81367	108.21811	192.83979	284.7845	192.02612	232.70962	0
883	80.55333	-80.55333	-161.10666	-0.81367	120.42316	-121.23683	-4.06835	110.65912	190.39878	279.90248	189.58511	232.70962	0
884	85.43535	-87.87636	-173.31171	1.62734	127.74619	-131.00087	-8.95037	110.65912	187.95777	277.46147	192.02612	232.70962	0
885	85.43535	-97.6404	-183.07575	4.06835	132.62821	-140.76491	-13.83239	105.7771	183.07575	275.02046	192.02612	232.70962	0
886	90.31737	-107.40444	-197.72181	7.32303	142.39225	-152.96996	-13.83239	105.7771	180.63474	272.57945	194.46713	235.15063	0
887	90.31737	-119.60949	-209.92686	14.64606	149.71528	-165.17501	-16.2734	103.33609	180.63474	272.57945	194.46713	237.59164	0
888	87.87636	-126.93252	-214.80888	19.52808	149.71528	-170.05703	-13.83239	103.33609	178.19373	272.57945	194.46713	240.03265	0
889	90.31737	-134.25555	-224.57292	21.96909	157.03831	-179.82107	-8.95037	100.89508	175.75272	272.57945	196.90814	242.47366	0
890	92.75838	-136.69656	-229.45494	21.96909	159.47932	-182.26208	-6.50936	100.89508	173.31171	272.57945	199.34915	242.47366	0
891	92.75838	-139.13757	-231.89595	21.96909	161.92033	-184.70309	-4.06835	103.33609	175.75272	275.02046	201.79016	247.35568	0
892	92.75838	-139.13757	-231.89595	21.96909	161.92033	-184.70309	-1.62734	105.7771	175.75272	272.57945	204.23117	247.35568	0
893	92.75838	-136.69656	-229.45494	21.96909	159.47932	-182.26208	3.25468	108.21811	180.63474	270.13844	204.23117	247.35568	0
894	90.31737	-134.25555	-224.57292	21.96909	157.03831	-179.82107	8.1367	113.10013	183.07575	270.13844	211.5542	247.35568	0
895	90.31737	-129.37353	-219.6909	19.52808	154.5973	-174.93905	10.57771	115.54114	183.07575	270.13844	213.99521	247.35568	0
896	90.31737	-124.49151	-214.80888	17.08707	152.15629	-170.05703	10.57771	113.10013	183.07575	267.69743	213.99521	247.35568	0
897	87.87636	-122.0505	-209.92686	17.08707	147.27427	-165.17501	10.57771	115.54114	183.07575	265.25642	213.99521	247.35568	0
898	85.43535	-122.0505	-207.48585	17.08707	144.83326	-165.17501	10.57771	117.98215	185.51676	265.25642	213.99521	247.35568	0
899	80.55333	-124.49151	-205.04484	21.96909	142.39225	-165.17501	10.57771	122.86417	187.95777	265.25642	213.99521	247.35568	0
900	75.67131	-129.37353	-205.04484	26.85111	139.95124	-167.61602	15.45973	122.86417	187.95777	267.69743	211.5542	249.79669	0
901	70.78929	-136.69656	-207.48585	31.73313	137.51023	-172.49804	17.90074	127.74619	190.39878	270.13844	211.5542	252.2377	0
902	68.34828	-136.69656	-205.04484	34.17414	135.06922	-170.05703	17.90074	127.74619	190.39878	267.69743	211.5542	252.2377	0
903	65.90727	-134.25555	-200.16282	34.17414	132.62821	-167.61602	22.78276	127.74619	190.39878	262.81541	209.11319	249.79669	0
904	61.02525	-136.69656	-197.72181	36.61515	127.74619	-167.61602	27.66478	132.62821	190.39878	262.81541	209.11319	249.79669	0
905	53.70222	-141.57858	-195.2808	43.93818	122.86417	-167.61602	27.66478	135.06922	187.95777	260.3744	206.67218	249.79669	0
906	51.26121	-141.57858	-192.83979	43.93818	120.42316	-167.61602	25.22377	130.1872	185.51676	257.93339	204.23117	249.79669	0
907	48.8202	-146.4606	-195.2808	48.8202	120.42316	-170.05703	25.22377	127.74619	183.07575	253.05137	201.79016	249.79669	0
908	46.37919	-151.34262	-197.72181	51.26121	120.42316	-174.93905	25.22377	127.74619	180.63474	253.05137	199.34915	249.79669	0
909	43.93818	-153.78363	-197.72181	53.70222	120.42316	-174.93905	25.22377	125.30518	178.19373	253.05137	199.34915	249.79669	0
910	43.93818	-153.78363	-197.72181	53.70222	120.42316	-174.93905	25.22377	125.30518	178.19373	253.05137	199.34915	252.2377	0
911	43.93818	-156.22464	-200.16282	56.14323	120.42316	-177.38006	25.22377	122.86417	175.75272	253.05137	199.34915	252.2377	0
912	46.37919	-153.78363	-200.16282	53.70222	122.86417	-177.38006	22.78276	122.86417	175.75272	250.61036	199.34915	249.79669	0
913	46.37919	-153.78363	-200.16282	53.70222	122.86417	-177.38006	22.78276	122.86417	175.75272	248.16935	199.34915	249.79669	0
914	43.93818	-153.78363	-197.72181	53.70222	120.42316	-174.93905	27.66478	125.30518	175.75272	250.61036	204.23117	247.35568	0
915	43.93818	-148.90161	-192.83979	51.26121	117.98215	-170.05703	30.10579	125.30518	170.8707	253.05137	209.11319	247.35568	0
916	48.8202	-141.57858	-190.39878	46.37919	117.98215	-165.17501	30.10579	125.30518	168.42969	253.05137	211.5542	247.35568	0
917	48.8202	-136.69656	-185.51676	43.93818	115.54114	-160.29299	32.5468	125.30518	168.42969	248.16935	211.5542	249.79669	0
918	48.8202	-131.81454	-180.63474	41.49717	113.10013	-155.41097	34.98781	125.30518	168.42969	248.16935	211.5542	249.79669	0
919	48.8202	-131.81454	-180.63474	41.49717	113.10013	-155.41097	34.98781	125.30518	165.98868	248.16935	213.99521	252.2377	0
920	51.26121	-129.37353	-180.63474	39.05616	115.54114	-155.41097	39.86983	127.74619	165.98868	245.72834	213.99521	252.2377	0
921	51.26121	-131.81454	-183.07575	39.05616	115.54114	-157.85198	39.86983	127.74619	165.98868	245.72834	213.99521	249.79669	0
922	53.70222	-129.37353	-183.07575	36.61515	117.98215	-155.41097	44.75185	125.30518	168.42969	243.28733	213.99521	247.35568	0
923	51.26121	-131.81454	-183.07575	39.05616	115.54114	-157.85198	47.19286	127.74619	170.8707	238.40531	213.99521	244.91467	0
924	48.8202	-131.81454	-180.63474	41.49717	113.10013	-155.41097	49.63387	127.74619	170.8707	235.9643	213.99521	240.03265	0
925	48.8202	-131.81454	-180.63474	41.49717	113.10013	-155.41097	52.07488	127.74619	170.8707	238.40531	213.99521	240.03265	0
926	48.8202	-129.37353	-178.19373	39.05616	113.10013	-152.96996	49.63387	122.86417	168.42969	238.40531	213.99521	240.03265	0
927	46.37919	-129.37353	-175.75272	41.49717	110.65912	-152.96996	47.19286	120.42316	168.42969	238.40531	213.99521	237.59164	0
928	43.93818	-129.37353	-173.31171	41.49717	108.21811	-150.52895	47.19286	117.98215	165.98868	235.9643	213.99521	237.59164	0
929	43.93818	-124.49151	-168.42969	39.05616	105.7771	-145.64693	47.19286	117.98215	163.54767	238.40531	213.99521	237.59164	0
930	41.49717	-122.0505	-163.54767	39.05616	100.89508	-143.20592	47.19286	115.54114	163.54767	240.84632	213.99521	235.15063	0
931	41.49717	-122.0505	-163.54767	39.05616	100.89508	-143.20592	44.75185	113.10013	163.54767	243.28733	213.99521	232.70962	0
932	41.49717	-119.60949	-161.10666	39.05616	100.89508	-140.76491	44.75185	113.10013	163.54767	243.28733	211.5542	230.26861	0
933	39.05616	-119.60949	-158.66565	39.05616	98.45407	-138.3239	42.31084	113.10013	163.54767	238.40531	211.5542	227.8276	0
934	39.05616	-122.0505	-161.10666	41.49717	98.45407	-140.76491	42.31084	110.65912	163.54767	235.9643	211.5542	222.94558	0
935	39.05616	-126.93252	-165.98868	43.93818	100.89508	-145.64693	44.75185	110.65912	163.54767	238.40531	211.5542	220.50457	0
936	39.05616	-129.37353	-168.42969	43.93818	103.33609	-148.08794	47.19286	108.21811	163.54767	238.40531	209.11319	220.50457	0
937	34.17414	-129.37353	-163.54767	46.37919	98.45407	-145.64693	47.19286	105.7771	163.54767	238.40531	201.79016	220.50457	0
938	34.17414	-131.81454	-165.98868	48.8202	98.45407	-148.08794	47.19286	105.7771	163.54767	235.9643	194.46713	222.94558	0
939	34.17414	-131.81454	-165.98868	48.8202	98.45407	-148.08794	47.19286	103.33609	163.54767	240.84632	189.58511	222.94558	0
940	31.73313	-129.37353	-161.10666	48.8202	96.01306	-145.64693	44.75185	103.33609	163.54767	245.72834	184.70309	222.94558	0
941	31.73313	-129.37353	-161.10666	48.8202	96.01306	-145.64693	44.75185	103.33609	165.98868	250.61036	174.93905	222.94558	0
942	34.17414	-126.93252	-161.10666	46.37919	96.01306	-143.20592	44.75185	100.89508	163.54767	245.72834	162.734	218.06356	0
943	34.17414	-124.49151	-158.66565	43.93818	96.01306	-140.76491	44.75185	98.45407	163.54767	240.84632	155.41097	215.62255	0
944	29.29212	-119.60949	-148.90161	43.93818	88.69003	-133.44188	42.31084	96.01306	161.10666	238.40531	145.64693	208.29952	0
945	26.85111	-117.16848	-144.01959	43.93818	83.80801	-131.00087	39.86983	93.57205	161.10666	238.40531	140.76491	205.85851	0
946	26.85111	-112.28646	-139.13757	41.49717	81.367	-126.11885	37.42882	91.13104	161.10666	238.40531	140.76491	205.85851	0
947	26.85111	-109.84545	-136.69656	41.49717	81.367	-123.67784	34.98781	86.24902	161.10666	235.9643	133.44188	203.4175	0
948	26.85111	-107.40444	-134.25555	39.05616	78.92599	-121.23683	37.42882	86.24902	158.66565	228.64127	123.67784	198.53548	0
949	26.85111	-107.40444	-134.25555	39.05616	78.92599	-121.23683	37.42882	81.367	153.78363	223.75925	116.35481	193.65346	0
950	26.85111	-107.40444	-134.25555	39.05616	78.92599	-121.23683	34.98781	81.367	153.78363	228.64127	113.9138	193.65346	0
951	24.4101	-112.28646	-136.69656	43.93818	78.92599	-123.67784	32.5468	81.367	156.22464	231.08228	113.9138	193.65346	0
952	24.4101	-112.28646	-136.69656	43.93818	78.92599	-123.67784	30.10579	78.92599	156.22464	231.08228	111.47279	193.65346	0
