samplenr	I	II	III	aVR	aVL	aVF	V1	V2	V3	V4	V5	V6	measurement
0	11.39138	10.57771	-2.44101	-11.39138	6.50936	4.88202	-8.1367	63.46626	84.62168	57.77057	8.95037	-17.90074	0
1	1.62734	3.25468	0.81367	-1.62734	1.62734	2.44101	-10.57771	58.58424	82.18067	57.77057	4.06835	-17.90074	0
2	-6.50936	-1.62734	3.25468	3.25468	-4.06835	0	-13.01872	53.70222	79.73966	55.32956	1.62734	-20.34175	0
3	-8.95037	-4.88202	3.25468	6.50936	-6.50936	0	-13.01872	53.70222	79.73966	55.32956	1.62734	-20.34175	0
4	-4.06835	0.81367	3.25468	0.81367	-4.06835	2.44101	-8.1367	53.70222	82.18067	55.32956	6.50936	-20.34175	0
5	-4.06835	3.25468	5.69569	0.81367	-4.06835	4.88202	-8.1367	53.70222	84.62168	55.32956	6.50936	-17.90074	0
6	-4.06835	10.57771	13.01872	-4.06835	-8.95037	12.20505	-5.69569	51.26121	84.62168	55.32956	6.50936	-17.90074	0
7	-0.81367	13.01872	13.01872	-6.50936	-6.50936	14.64606	-3.25468	53.70222	84.62168	55.32956	11.39138	-17.90074	0
8	-0.81367	15.45973	15.45973	-6.50936	-8.95037	17.08707	-0.81367	53.70222	87.06269	55.32956	11.39138	-15.45973	0
9	1.62734	20.34175	17.90074	-11.39138	-8.95037	19.52808	-0.81367	53.70222	89.5037	55.32956	13.83239	-15.45973	0
10	4.06835	22.78276	17.90074	-13.83239	-6.50936	21.96909	-0.81367	53.70222	94.38572	57.77057	13.83239	-13.01872	0
11	-4.06835	20.34175	22.78276	-8.95037	-13.83239	21.96909	-0.81367	53.70222	94.38572	60.21158	11.39138	-15.45973	0
12	-6.50936	20.34175	25.22377	-6.50936	-16.2734	21.96909	-3.25468	48.8202	91.94471	60.21158	8.95037	-17.90074	0
13	-6.50936	17.90074	22.78276	-6.50936	-13.83239	19.52808	-8.1367	46.37919	89.5037	60.21158	8.95037	-17.90074	0
14	-4.06835	15.45973	17.90074	-6.50936	-11.39138	17.08707	-8.1367	43.93818	89.5037	60.21158	8.95037	-17.90074	0
15	-4.06835	10.57771	13.01872	-4.06835	-8.95037	12.20505	-8.1367	41.49717	89.5037	57.77057	6.50936	-17.90074	0
16	-4.06835	8.1367	10.57771	-1.62734	-6.50936	9.76404	-10.57771	39.05616	87.06269	55.32956	6.50936	-20.34175	0
17	-4.06835	8.1367	10.57771	-1.62734	-6.50936	9.76404	-10.57771	41.49717	84.62168	55.32956	6.50936	-20.34175	0
18	-4.06835	8.1367	10.57771	-1.62734	-6.50936	9.76404	-10.57771	41.49717	84.62168	52.88855	6.50936	-20.34175	0
19	1.62734	15.45973	13.01872	-8.95037	-6.50936	14.64606	-10.57771	39.05616	87.06269	52.88855	8.95037	-17.90074	0
20	6.50936	20.34175	13.01872	-13.83239	-4.06835	17.08707	-10.57771	39.05616	87.06269	52.88855	8.95037	-17.90074	0
21	1.62734	17.90074	15.45973	-8.95037	-6.50936	17.08707	-10.57771	34.17414	84.62168	52.88855	6.50936	-20.34175	0
22	-4.06835	13.01872	15.45973	-4.06835	-8.95037	14.64606	-10.57771	31.73313	82.18067	50.44754	4.06835	-22.78276	0
23	-8.95037	5.69569	13.01872	0.81367	-11.39138	9.76404	-13.01872	26.85111	79.73966	47.19286	1.62734	-22.78276	0
24	-11.39138	3.25468	13.01872	3.25468	-11.39138	7.32303	-15.45973	24.4101	77.29865	47.19286	1.62734	-25.22377	0
25	-13.83239	-1.62734	10.57771	6.50936	-11.39138	4.88202	-17.90074	19.52808	74.85764	47.19286	1.62734	-28.47845	0
26	-16.2734	-4.88202	10.57771	8.95037	-13.83239	2.44101	-17.90074	17.08707	74.85764	44.75185	1.62734	-28.47845	0
27	-16.2734	-4.88202	10.57771	8.95037	-13.83239	2.44101	-17.90074	19.52808	74.85764	44.75185	4.06835	-25.22377	0
28	-16.2734	-4.88202	10.57771	8.95037	-13.83239	2.44101	-20.34175	19.52808	77.29865	47.19286	6.50936	-22.78276	0
29	-13.83239	-1.62734	10.57771	6.50936	-11.39138	4.88202	-17.90074	21.96909	82.18067	47.19286	11.39138	-20.34175	0
30	-8.95037	3.25468	10.57771	3.25468	-8.95037	7.32303	-17.90074	21.96909	84.62168	50.44754	13.83239	-20.34175	0
31	-4.06835	8.1367	10.57771	-1.62734	-6.50936	9.76404	-17.90074	21.96909	84.62168	50.44754	13.83239	-20.34175	0
32	-0.81367	13.01872	13.01872	-6.50936	-6.50936	14.64606	-15.45973	19.52808	87.06269	55.32956	16.2734	-17.90074	0
33	-0.81367	13.01872	13.01872	-6.50936	-6.50936	14.64606	-13.01872	21.96909	89.5037	57.77057	18.71441	-15.45973	0
34	4.06835	17.90074	13.01872	-11.39138	-4.06835	17.08707	-10.57771	21.96909	91.94471	60.21158	23.59643	-13.01872	0
35	4.06835	17.90074	13.01872	-11.39138	-4.06835	17.08707	-8.1367	21.96909	91.94471	62.65259	23.59643	-10.57771	0
36	6.50936	17.90074	10.57771	-11.39138	-1.62734	14.64606	-5.69569	21.96909	91.94471	62.65259	23.59643	-10.57771	0
37	4.06835	15.45973	10.57771	-8.95037	-4.06835	14.64606	-5.69569	24.4101	91.94471	60.21158	23.59643	-10.57771	0
38	4.06835	20.34175	15.45973	-11.39138	-6.50936	19.52808	-5.69569	24.4101	94.38572	60.21158	23.59643	-10.57771	0
39	-0.81367	20.34175	20.34175	-8.95037	-11.39138	21.96909	-3.25468	26.85111	96.82673	60.21158	23.59643	-10.57771	0
40	-4.06835	17.90074	20.34175	-6.50936	-11.39138	19.52808	-3.25468	29.29212	99.26774	62.65259	23.59643	-10.57771	0
41	-4.06835	17.90074	20.34175	-6.50936	-11.39138	19.52808	-0.81367	29.29212	99.26774	65.0936	21.15542	-10.57771	0
42	-0.81367	20.34175	20.34175	-8.95037	-11.39138	21.96909	-0.81367	29.29212	101.70875	67.53461	21.15542	-10.57771	0
43	-0.81367	22.78276	22.78276	-11.39138	-11.39138	24.4101	-0.81367	26.85111	101.70875	67.53461	21.15542	-10.57771	0
44	4.06835	25.22377	20.34175	-13.83239	-8.95037	24.4101	-0.81367	26.85111	104.14976	72.41663	28.47845	-8.1367	0
45	4.06835	27.66478	22.78276	-16.2734	-8.95037	26.85111	-0.81367	24.4101	104.14976	74.85764	28.47845	-5.69569	0
46	6.50936	27.66478	20.34175	-16.2734	-6.50936	24.4101	-0.81367	24.4101	104.14976	77.29865	33.36047	-0.81367	0
47	16.2734	37.42882	20.34175	-26.03744	-1.62734	29.29212	4.06835	26.85111	109.84545	79.73966	38.24249	4.06835	0
48	23.59643	49.63387	25.22377	-35.80148	-1.62734	39.05616	8.95037	29.29212	114.72747	84.62168	43.12451	8.95037	0
49	28.47845	59.39791	30.10579	-43.12451	-1.62734	46.37919	11.39138	31.73313	119.60949	87.06269	50.44754	13.83239	0
50	28.47845	64.27993	34.98781	-45.56552	-4.06835	51.26121	16.2734	34.17414	126.93252	94.38572	52.88855	18.71441	0
51	23.59643	64.27993	39.86983	-43.12451	-8.95037	53.70222	18.71441	34.17414	129.37353	99.26774	55.32956	21.15542	0
52	21.15542	64.27993	42.31084	-43.12451	-11.39138	53.70222	23.59643	36.61515	131.81454	99.26774	55.32956	23.59643	0
53	21.15542	64.27993	42.31084	-43.12451	-11.39138	53.70222	26.03744	36.61515	134.25555	101.70875	57.77057	23.59643	0
54	21.15542	66.72094	44.75185	-43.12451	-11.39138	56.14323	28.47845	39.05616	136.69656	101.70875	62.65259	26.03744	0
55	18.71441	61.83892	42.31084	-40.6835	-11.39138	53.70222	28.47845	36.61515	139.13757	104.14976	62.65259	28.47845	0
56	13.83239	59.39791	44.75185	-35.80148	-16.2734	53.70222	28.47845	36.61515	141.57858	104.14976	65.0936	28.47845	0
57	13.83239	59.39791	44.75185	-35.80148	-16.2734	53.70222	30.91946	41.49717	144.01959	106.59077	69.97562	30.91946	0
58	18.71441	59.39791	39.86983	-38.24249	-11.39138	51.26121	33.36047	46.37919	148.90161	109.03178	72.41663	33.36047	0
59	26.03744	66.72094	39.86983	-45.56552	-6.50936	53.70222	33.36047	46.37919	153.78363	109.03178	74.85764	35.80148	0
60	30.91946	69.16195	37.42882	-50.44754	-4.06835	53.70222	33.36047	46.37919	156.22464	113.9138	74.85764	35.80148	0
61	35.80148	71.60296	34.98781	-52.88855	1.62734	53.70222	35.80148	46.37919	161.10666	116.35481	74.85764	35.80148	0
62	40.6835	74.04397	32.5468	-57.77057	4.06835	53.70222	30.91946	46.37919	161.10666	118.79582	74.85764	38.24249	0
63	45.56552	74.04397	27.66478	-60.21158	8.95037	51.26121	23.59643	43.93818	163.54767	118.79582	74.85764	38.24249	0
64	48.00653	74.04397	25.22377	-60.21158	11.39138	51.26121	13.83239	36.61515	158.66565	116.35481	74.85764	35.80148	0
65	48.00653	66.72094	17.90074	-57.77057	16.2734	43.93818	4.06835	26.85111	153.78363	113.9138	69.97562	35.80148	0
66	48.00653	66.72094	17.90074	-57.77057	16.2734	43.93818	-8.1367	17.08707	146.4606	111.47279	67.53461	35.80148	0
67	45.56552	64.27993	17.90074	-55.32956	13.83239	41.49717	-20.34175	7.32303	139.13757	106.59077	67.53461	33.36047	0
68	43.12451	61.83892	17.90074	-52.88855	13.83239	41.49717	-37.42882	-2.44101	131.81454	101.70875	65.0936	33.36047	0
69	48.00653	64.27993	15.45973	-55.32956	16.2734	41.49717	-52.07488	-12.20505	129.37353	99.26774	62.65259	33.36047	0
70	48.00653	64.27993	15.45973	-55.32956	16.2734	41.49717	-64.27993	-21.96909	124.49151	96.82673	60.21158	33.36047	0
71	48.00653	69.16195	20.34175	-57.77057	13.83239	46.37919	-71.60296	-31.73313	122.0505	96.82673	57.77057	33.36047	0
72	50.44754	74.04397	22.78276	-62.65259	13.83239	48.8202	-76.48498	-39.05616	119.60949	96.82673	57.77057	38.24249	0
73	55.32956	76.48498	20.34175	-65.0936	18.71441	48.8202	-76.48498	-43.93818	117.16848	96.82673	57.77057	40.6835	0
74	65.0936	81.367	15.45973	-72.41663	26.03744	48.8202	-78.92599	-48.8202	117.16848	99.26774	62.65259	40.6835	0
75	72.41663	86.24902	13.01872	-79.73966	30.91946	51.26121	-78.92599	-51.26121	117.16848	99.26774	62.65259	43.12451	0
76	82.18067	96.01306	13.01872	-89.5037	35.80148	56.14323	-74.04397	-51.26121	117.16848	99.26774	65.0936	45.56552	0
77	87.06269	100.89508	13.01872	-94.38572	38.24249	58.58424	-71.60296	-51.26121	117.16848	99.26774	65.0936	48.00653	0
78	87.06269	100.89508	13.01872	-94.38572	38.24249	58.58424	-69.16195	-53.70222	112.28646	94.38572	65.0936	48.00653	0
79	87.06269	100.89508	13.01872	-94.38572	38.24249	58.58424	-66.72094	-58.58424	109.84545	89.5037	62.65259	45.56552	0
80	87.06269	96.01306	8.1367	-91.94471	40.6835	53.70222	-66.72094	-63.46626	107.40444	87.06269	60.21158	40.6835	0
81	89.5037	103.33609	13.01872	-96.82673	38.24249	58.58424	-61.83892	-63.46626	104.14976	87.06269	60.21158	40.6835	0
82	91.94471	103.33609	10.57771	-96.82673	40.6835	58.58424	-56.9569	-65.90727	104.14976	87.06269	60.21158	40.6835	0
83	89.5037	96.01306	5.69569	-91.94471	43.12451	51.26121	-56.9569	-70.78929	101.70875	82.18067	57.77057	38.24249	0
84	82.18067	81.367	-2.44101	-82.18067	43.12451	41.49717	-59.39791	-75.67131	96.82673	77.29865	52.88855	33.36047	0
85	77.29865	74.04397	-4.88202	-74.85764	40.6835	36.61515	-59.39791	-82.99434	91.94471	72.41663	50.44754	30.91946	0
86	74.85764	64.27993	-12.20505	-69.97562	43.12451	26.85111	-59.39791	-87.87636	84.62168	67.53461	48.00653	30.91946	0
87	69.97562	59.39791	-12.20505	-65.0936	40.6835	24.4101	-56.9569	-87.87636	82.18067	65.0936	45.56552	30.91946	0
88	67.53461	56.9569	-12.20505	-62.65259	40.6835	24.4101	-54.51589	-90.31737	79.73966	65.0936	45.56552	30.91946	0
89	60.21158	54.51589	-7.32303	-57.77057	33.36047	24.4101	-52.07488	-90.31737	79.73966	62.65259	45.56552	30.91946	0
90	50.44754	47.19286	-4.88202	-48.00653	28.47845	21.96909	-49.63387	-95.19939	79.73966	60.21158	40.6835	28.47845	0
91	40.6835	42.31084	0.81367	-40.6835	21.15542	21.96909	-47.19286	-95.19939	77.29865	57.77057	38.24249	28.47845	0
92	35.80148	39.86983	3.25468	-38.24249	16.2734	21.96909	-39.86983	-97.6404	77.29865	57.77057	38.24249	28.47845	0
93	28.47845	39.86983	10.57771	-33.36047	8.95037	26.85111	-34.98781	-97.6404	79.73966	57.77057	38.24249	28.47845	0
94	23.59643	37.42882	13.01872	-30.91946	6.50936	26.85111	-27.66478	-97.6404	79.73966	57.77057	38.24249	26.03744	0
95	21.15542	37.42882	15.45973	-28.47845	4.06835	26.85111	-22.78276	-97.6404	79.73966	57.77057	35.80148	23.59643	0
96	13.83239	30.10579	15.45973	-21.15542	-1.62734	24.4101	-22.78276	-97.6404	79.73966	55.32956	33.36047	23.59643	0
97	4.06835	22.78276	17.90074	-13.83239	-6.50936	21.96909	-17.90074	-95.19939	79.73966	55.32956	33.36047	21.15542	0
98	1.62734	20.34175	17.90074	-11.39138	-8.95037	19.52808	-13.01872	-92.75838	82.18067	55.32956	30.91946	18.71441	0
99	-4.06835	17.90074	20.34175	-6.50936	-11.39138	19.52808	-13.01872	-90.31737	84.62168	52.88855	28.47845	16.2734	0
100	-4.06835	15.45973	17.90074	-6.50936	-11.39138	17.08707	-8.1367	-90.31737	84.62168	52.88855	23.59643	11.39138	1000	P+0
101	-4.06835	15.45973	17.90074	-6.50936	-11.39138	17.08707	-5.69569	-90.31737	82.18067	50.44754	18.71441	6.50936	0
102	1.62734	17.90074	15.45973	-8.95037	-6.50936	17.08707	-0.81367	-85.43535	79.73966	50.44754	16.2734	4.06835	0
103	1.62734	17.90074	15.45973	-8.95037	-6.50936	17.08707	1.62734	-85.43535	79.73966	47.19286	13.83239	-0.81367	0
104	6.50936	22.78276	15.45973	-13.83239	-4.06835	19.52808	4.06835	-82.99434	77.29865	47.19286	13.83239	-3.25468	0
105	13.83239	27.66478	13.01872	-21.15542	1.62734	21.96909	8.95037	-82.99434	77.29865	47.19286	13.83239	-3.25468	0
106	13.83239	25.22377	10.57771	-18.71441	1.62734	19.52808	11.39138	-82.99434	74.85764	47.19286	13.83239	-3.25468	0
107	11.39138	22.78276	10.57771	-16.2734	1.62734	17.08707	11.39138	-82.99434	72.41663	44.75185	13.83239	-3.25468	0
108	8.95037	22.78276	13.01872	-16.2734	-1.62734	19.52808	8.95037	-82.99434	72.41663	42.31084	13.83239	-3.25468	0
109	4.06835	17.90074	13.01872	-11.39138	-4.06835	17.08707	6.50936	-82.99434	74.85764	42.31084	13.83239	-3.25468	0
110	-4.06835	13.01872	15.45973	-4.06835	-8.95037	14.64606	6.50936	-82.99434	74.85764	42.31084	13.83239	-3.25468	0
111	-8.95037	8.1367	15.45973	0.81367	-11.39138	12.20505	4.06835	-82.99434	77.29865	44.75185	13.83239	-3.25468	0
112	-11.39138	5.69569	15.45973	3.25468	-13.83239	9.76404	4.06835	-82.99434	79.73966	44.75185	11.39138	-3.25468	0
113	-13.83239	5.69569	17.90074	3.25468	-16.2734	12.20505	4.06835	-80.55333	82.18067	44.75185	11.39138	-3.25468	0
114	-13.83239	5.69569	17.90074	3.25468	-16.2734	12.20505	4.06835	-80.55333	82.18067	44.75185	13.83239	-3.25468	0
115	-8.95037	5.69569	13.01872	0.81367	-11.39138	9.76404	4.06835	-78.11232	84.62168	44.75185	11.39138	-3.25468	0
116	-4.06835	8.1367	10.57771	-1.62734	-6.50936	9.76404	6.50936	-73.2303	84.62168	44.75185	11.39138	-3.25468	0
117	1.62734	13.01872	10.57771	-6.50936	-4.06835	12.20505	11.39138	-68.34828	84.62168	44.75185	16.2734	-0.81367	0
118	6.50936	20.34175	13.01872	-13.83239	-4.06835	17.08707	13.83239	-65.90727	87.06269	47.19286	18.71441	4.06835	0
119	13.83239	30.10579	15.45973	-21.15542	-1.62734	24.4101	16.2734	-63.46626	91.94471	47.19286	21.15542	4.06835	0
120	16.2734	32.5468	15.45973	-23.59643	1.62734	24.4101	16.2734	-61.02525	91.94471	47.19286	21.15542	6.50936	0
121	16.2734	32.5468	15.45973	-23.59643	1.62734	24.4101	16.2734	-61.02525	91.94471	47.19286	21.15542	6.50936	0
122	13.83239	27.66478	13.01872	-21.15542	1.62734	21.96909	16.2734	-61.02525	91.94471	47.19286	18.71441	6.50936	0
123	13.83239	25.22377	10.57771	-18.71441	1.62734	19.52808	13.83239	-61.02525	89.5037	47.19286	18.71441	6.50936	0
124	11.39138	20.34175	8.1367	-16.2734	1.62734	14.64606	11.39138	-65.90727	87.06269	44.75185	18.71441	4.06835	0
125	8.95037	15.45973	5.69569	-11.39138	1.62734	12.20505	8.95037	-68.34828	82.18067	39.86983	16.2734	-0.81367	0
126	1.62734	8.1367	5.69569	-4.06835	-1.62734	7.32303	4.06835	-70.78929	77.29865	34.98781	11.39138	-5.69569	0
127	-4.06835	3.25468	5.69569	0.81367	-4.06835	4.88202	1.62734	-68.34828	74.85764	34.98781	11.39138	-8.1367	0
128	-4.06835	-1.62734	0.81367	3.25468	-1.62734	0	1.62734	-65.90727	74.85764	34.98781	11.39138	-10.57771	0
129	-6.50936	-4.88202	0.81367	3.25468	-4.06835	-3.25468	4.06835	-58.58424	79.73966	34.98781	13.83239	-13.01872	0
130	-8.95037	-12.20505	-4.88202	8.95037	-4.06835	-8.1367	8.95037	-46.37919	84.62168	39.86983	13.83239	-17.90074	0
131	-4.06835	-17.08707	-14.64606	8.95037	4.06835	-15.45973	6.50936	-36.61515	99.26774	39.86983	8.95037	-22.78276	0
132	11.39138	5.69569	-7.32303	-8.95037	8.95037	0	23.59643	-34.17414	109.84545	39.86983	21.15542	-28.47845	0
133	6.50936	-9.76404	-17.08707	0.81367	11.39138	-13.01872	45.56552	-12.20505	131.81454	39.86983	23.59643	-20.34175	0
134	-4.06835	-58.58424	-56.14323	30.91946	26.03744	-56.9569	30.91946	-26.85111	99.26774	44.75185	-5.69569	-43.12451	0
135	18.71441	-85.43535	-104.96343	33.36047	60.21158	-93.57205	13.83239	-73.2303	62.65259	50.44754	-11.39138	-57.77057	0
136	50.44754	-90.31737	-141.57858	18.71441	94.38572	-115.54114	-44.75185	-158.66565	21.15542	10.57771	-0.81367	-57.77057	0
137	74.85764	-102.52242	-178.19373	13.83239	126.11885	-139.95124	-86.24902	-214.80888	23.59643	30.10579	26.03744	-40.6835	0
138	111.47279	-136.69656	-248.98302	11.39138	179.82107	-191.21245	-100.89508	-219.6909	45.56552	74.85764	67.53461	-13.01872	0
139	143.20592	-129.37353	-273.39312	-6.50936	206.67218	-200.97649	-132.62821	-331.97736	-34.98781	72.41663	82.18067	13.83239	0
140	170.05703	-134.25555	-305.12625	-18.71441	235.9643	-218.06356	-196.09447	-475.99695	-183.88942	39.86983	126.11885	38.24249	0
141	199.34915	-170.8707	-371.03352	-13.83239	284.7845	-269.32477	-310.82194	-659.0727	-308.38093	91.94471	192.02612	96.82673	0
142	318.95864	-151.34262	-471.11493	-84.62168	394.62995	-310.82194	-396.25729	-803.09229	-423.1084	116.35481	316.51763	192.02612	0
143	465.41924	-109.84545	-576.07836	-177.38006	519.12146	-342.55507	-518.30779	-964.19895	-567.12799	145.64693	462.97823	326.28167	0
144	570.38267	-39.05616	-610.2525	-265.25642	589.91075	-323.02699	-625.71223	-1132.62864	-730.67566	143.20592	624.08489	480.0653	0
145	648.49499	30.10579	-620.01654	-338.48672	633.84893	-293.73487	-740.4397	-1323.02742	-855.16717	199.34915	836.45276	658.25903	0
146	763.22246	161.92033	-602.92947	-462.97823	682.66913	-220.50457	-872.25424	-1530.51327	-982.09969	287.22551	1107.40487	897.47801	0
147	799.83761	262.00174	-539.46321	-531.32651	670.46408	-137.51023	-979.65868	-1718.47104	-1116.35524	336.04571	1341.74183	1124.49194	0
148	792.51458	415.78537	-378.35655	-604.55681	585.02873	19.52808	-1074.85807	-1930.83891	-1292.10796	367.77884	1556.55071	1366.15193	0
149	682.66913	603.74314	-80.55333	-643.61297	382.4249	263.62908	-1213.99564	-2343.3696	-1587.47017	358.0148	1692.4336	1568.75576	0
150	524.00348	779.49586	254.67871	-650.936	135.88289	517.49412	-1265.25685	-2670.46494	-1829.13016	321.39965	1785.19198	1716.8437	0
151	411.71702	842.96212	430.43143	-626.5259	-8.95037	637.10361	-1377.54331	-2956.06311	-1992.67783	328.72268	1890.15541	1851.09925	0
152	377.54288	838.0801	459.72355	-606.99782	-40.6835	649.30866	-1436.12755	-3185.51805	-2197.72267	206.67218	1836.45319	1851.09925	0
153	309.1946	764.8498	454.84153	-536.20853	-72.41663	610.2525	-1358.01523	-3187.95906	-2339.30125	-74.85764	1480.8794	1632.22202	0
154	182.26208	645.24031	462.16456	-414.15803	-140.76491	554.10927	-1221.31867	-3068.34957	-2441.82367	-458.09621	941.41619	1290.48062	0
155	91.94471	615.94819	523.18981	-353.13278	-216.43622	571.19634	-1060.21201	-2929.212	-2539.46407	-926.77013	331.16369	924.32912	0
156	-18.71441	503.66173	520.7488	-243.28733	-270.13844	512.6121	-979.65868	-2873.06877	-2673.71962	-1322.21375	-133.44188	621.64388	0
157	-116.35481	418.22638	532.95385	-150.52895	-323.84066	475.99695	-899.10535	-2733.9312	-2705.45275	-1590.72485	-453.21419	406.835	0
158	-157.85198	332.79103	489.01567	-87.06269	-323.84066	410.08968	-877.13626	-2589.91161	-2649.30952	-1720.09838	-631.40792	257.93339	0
159	-157.85198	225.38659	381.61123	-33.36047	-270.13844	302.68524	-874.69525	-2419.04091	-2522.377	-1749.3905	-765.66347	109.03178	0
160	-140.76491	110.65912	249.79669	13.83239	-194.46713	180.63474	-894.22333	-2231.08314	-2353.94731	-1703.01131	-824.24771	-17.90074	0
161	-116.35481	5.69569	120.42316	55.32956	-118.79582	63.46626	-913.75141	-2084.62254	-2187.95863	-1620.01697	-863.30387	-133.44188	0
162	-121.23683	-51.26121	69.16195	84.62168	-96.82673	9.76404	-882.01828	-1996.74618	-2063.46712	-1561.43273	-877.94993	-192.02612	0
163	-138.3239	-95.19939	42.31084	116.35481	-91.94471	-27.66478	-806.34697	-1864.93164	-1934.09359	-1497.96647	-902.36003	-262.81541	0
164	-174.93905	-183.07575	-9.76404	177.38006	-84.62168	-96.01306	-706.26556	-1725.79407	-1821.80713	-1441.82324	-931.65215	-340.92773	0
165	-206.67218	-217.24989	-12.20505	211.5542	-99.26774	-115.54114	-606.18415	-1576.89246	-1685.11057	-1385.68001	-929.21114	-397.07096	0
166	-213.99521	-261.18807	-48.8202	235.9643	-84.62168	-154.5973	-467.04658	-1357.20156	-1492.27078	-1283.15759	-892.59599	-443.45015	0
167	-245.72834	-297.80322	-53.70222	270.13844	-96.82673	-176.56639	-362.08315	-1154.59773	-1316.51806	-1175.75315	-841.33478	-448.33217	0
168	-218.87723	-312.44928	-95.19939	265.25642	-62.65259	-203.4175	-313.26295	-986.16804	-1148.08837	-1070.78972	-799.83761	-462.97823	0
169	-201.79016	-319.77231	-119.60949	260.3744	-43.12451	-220.50457	-269.32477	-812.85633	-974.77666	-953.62124	-755.89943	-458.09621	0
170	-170.05703	-273.39312	-104.96343	221.31824	-33.36047	-188.77144	-215.62255	-620.01654	-801.46495	-829.12973	-675.3461	-438.56813	0
171	-143.20592	-251.42403	-109.84545	196.90814	-18.71441	-181.44841	-139.95124	-446.70483	-598.86112	-663.14105	-575.26469	-382.4249	0
172	-121.23683	-236.77797	-117.16848	177.38006	-4.06835	-176.56639	-69.16195	-319.77231	-430.43143	-528.8855	-484.94732	-328.72268	0
173	-101.70875	-219.6909	-119.60949	160.29299	8.95037	-169.24336	26.03744	-170.8707	-249.79669	-372.66086	-379.98389	-292.10753	0
174	-82.18067	-195.2808	-114.72747	138.3239	16.2734	-154.5973	63.46626	-97.6404	-144.83326	-265.25642	-311.63561	-253.05137	0
175	-67.53461	-178.19373	-112.28646	121.23683	21.15542	-144.83326	100.08141	-21.96909	-39.86983	-179.82107	-240.84632	-216.43622	0
176	-57.77057	-165.98868	-109.84545	111.47279	26.03744	-137.51023	114.72747	36.61515	43.12451	-111.47279	-174.93905	-184.70309	0
177	-48.00653	-148.90161	-102.52242	96.82673	26.03744	-125.30518	129.37353	75.67131	91.94471	-67.53461	-133.44188	-148.08794	0
178	-40.6835	-134.25555	-95.19939	87.06269	26.03744	-115.54114	156.22464	117.16848	144.01959	-26.03744	-99.26774	-113.9138	0
179	-28.47845	-107.40444	-80.55333	67.53461	26.03744	-93.57205	158.66565	149.71528	178.19373	3.25468	-82.18067	-106.59077	0
180	-21.15542	-90.31737	-70.78929	55.32956	23.59643	-81.367	170.8707	193.65346	217.24989	32.5468	-48.00653	-87.06269	0
181	-13.83239	-73.2303	-61.02525	43.12451	23.59643	-66.72094	173.31171	208.29952	248.98302	65.0936	-43.12451	-84.62168	0
182	-8.95037	-61.02525	-53.70222	33.36047	21.15542	-56.9569	175.75272	205.85851	268.5111	89.5037	-30.91946	-79.73966	0
183	-6.50936	-53.70222	-48.8202	28.47845	21.15542	-52.07488	178.19373	213.18154	288.03918	113.9138	-13.83239	-72.41663	0
184	-4.06835	-43.93818	-41.49717	23.59643	18.71441	-42.31084	180.63474	205.85851	278.27514	118.79582	-23.59643	-67.53461	0
185	-4.06835	-39.05616	-36.61515	21.15542	16.2734	-37.42882	180.63474	220.50457	290.48019	116.35481	-11.39138	-67.53461	0
186	-8.95037	-39.05616	-31.73313	23.59643	11.39138	-34.98781	180.63474	225.38659	297.80322	118.79582	-8.95037	-65.0936	0
187	-11.39138	-41.49717	-31.73313	26.03744	8.95037	-37.42882	180.63474	235.15063	305.12625	126.11885	-3.25468	-65.0936	0
188	-16.2734	-43.93818	-29.29212	28.47845	6.50936	-37.42882	180.63474	242.47366	314.89029	133.44188	1.62734	-60.21158	0
189	-16.2734	-39.05616	-24.4101	26.03744	4.06835	-32.5468	178.19373	247.35568	322.21332	138.3239	4.06835	-60.21158	0
190	-16.2734	-39.05616	-24.4101	26.03744	4.06835	-32.5468	180.63474	254.67871	329.53635	145.64693	6.50936	-57.77057	0
191	-23.59643	-43.93818	-21.96909	33.36047	-1.62734	-32.5468	183.07575	259.56073	334.41837	152.96996	8.95037	-57.77057	0
192	-26.03744	-48.8202	-24.4101	35.80148	-1.62734	-37.42882	185.51676	264.44275	341.7414	157.85198	11.39138	-57.77057	0
193	-26.03744	-48.8202	-24.4101	35.80148	-1.62734	-37.42882	187.95777	271.76578	349.06443	165.17501	13.83239	-55.32956	0
194	-21.15542	-48.8202	-29.29212	33.36047	4.06835	-39.86983	192.83979	276.6478	356.38746	172.49804	21.15542	-52.88855	0
195	-16.2734	-46.37919	-31.73313	30.91946	6.50936	-39.86983	197.72181	281.52982	363.71049	177.38006	23.59643	-48.00653	0
196	-16.2734	-46.37919	-31.73313	30.91946	6.50936	-39.86983	197.72181	286.41184	363.71049	179.82107	26.03744	-48.00653	0
197	-16.2734	-46.37919	-31.73313	30.91946	6.50936	-39.86983	200.16282	291.29386	366.1515	182.26208	28.47845	-48.00653	0
198	-16.2734	-51.26121	-36.61515	33.36047	8.95037	-44.75185	202.60383	293.73487	371.03352	184.70309	30.91946	-45.56552	0
199	-18.71441	-51.26121	-34.17414	33.36047	6.50936	-42.31084	200.16282	296.17588	375.91554	184.70309	33.36047	-45.56552	0
200	-16.2734	-46.37919	-31.73313	30.91946	6.50936	-39.86983	200.16282	301.0579	380.79756	189.58511	33.36047	-48.00653	0
201	-13.83239	-41.49717	-29.29212	26.03744	6.50936	-34.98781	200.16282	303.49891	383.23857	194.46713	35.80148	-45.56552	0
202	-13.83239	-39.05616	-26.85111	26.03744	6.50936	-32.5468	200.16282	305.93992	385.67958	199.34915	35.80148	-45.56552	0
203	-16.2734	-39.05616	-24.4101	26.03744	4.06835	-32.5468	197.72181	305.93992	385.67958	201.79016	35.80148	-48.00653	0
204	-18.71441	-41.49717	-24.4101	28.47845	1.62734	-32.5468	195.2808	303.49891	385.67958	204.23117	40.6835	-50.44754	0
205	-13.83239	-43.93818	-31.73313	28.47845	8.95037	-37.42882	195.2808	303.49891	388.12059	206.67218	40.6835	-50.44754	0
206	-11.39138	-41.49717	-31.73313	26.03744	8.95037	-37.42882	195.2808	308.38093	390.5616	206.67218	40.6835	-52.88855	0
207	-13.83239	-41.49717	-29.29212	26.03744	6.50936	-34.98781	197.72181	313.26295	390.5616	209.11319	40.6835	-52.88855	0
208	-11.39138	-36.61515	-26.85111	23.59643	6.50936	-32.5468	197.72181	315.70396	393.00261	211.5542	43.12451	-50.44754	0
209	-16.2734	-36.61515	-21.96909	26.03744	1.62734	-30.10579	197.72181	318.14497	395.44362	211.5542	43.12451	-52.88855	0
210	-18.71441	-39.05616	-21.96909	28.47845	1.62734	-30.10579	197.72181	318.14497	397.88463	211.5542	38.24249	-55.32956	0
211	-18.71441	-39.05616	-21.96909	28.47845	1.62734	-30.10579	200.16282	320.58598	400.32564	213.99521	38.24249	-57.77057	0
212	-13.83239	-36.61515	-24.4101	23.59643	4.06835	-30.10579	200.16282	325.468	405.20766	216.43622	38.24249	-57.77057	0
213	-11.39138	-31.73313	-21.96909	21.15542	4.06835	-27.66478	200.16282	327.90901	407.64867	221.31824	40.6835	-57.77057	0
214	-13.83239	-31.73313	-19.52808	21.15542	1.62734	-25.22377	200.16282	332.79103	410.08968	226.20026	43.12451	-55.32956	0
215	-11.39138	-31.73313	-21.96909	21.15542	4.06835	-27.66478	200.16282	332.79103	414.9717	228.64127	43.12451	-55.32956	0
216	-6.50936	-29.29212	-24.4101	16.2734	8.95037	-27.66478	197.72181	335.23204	417.41271	233.52329	48.00653	-52.88855	0
217	-6.50936	-29.29212	-24.4101	16.2734	8.95037	-27.66478	195.2808	337.67305	419.85372	235.9643	50.44754	-52.88855	0
218	-8.95037	-31.73313	-24.4101	18.71441	6.50936	-27.66478	192.83979	340.11406	422.29473	235.9643	52.88855	-50.44754	0
219	-13.83239	-31.73313	-19.52808	21.15542	1.62734	-25.22377	190.39878	342.55507	424.73574	238.40531	55.32956	-48.00653	0
220	-21.15542	-29.29212	-9.76404	23.59643	-6.50936	-20.34175	190.39878	347.43709	429.61776	240.84632	55.32956	-45.56552	0
221	-28.47845	-34.17414	-7.32303	30.91946	-11.39138	-20.34175	187.95777	349.8781	432.05877	240.84632	55.32956	-45.56552	0
222	-26.03744	-34.17414	-9.76404	28.47845	-8.95037	-22.78276	187.95777	352.31911	434.49978	245.72834	55.32956	-40.6835	0
223	-23.59643	-29.29212	-7.32303	26.03744	-8.95037	-17.90074	187.95777	357.20113	436.94079	248.16935	60.21158	-38.24249	0
224	-21.15542	-24.4101	-4.88202	21.15542	-8.95037	-15.45973	190.39878	359.64214	439.3818	250.61036	62.65259	-35.80148	0
225	-21.15542	-24.4101	-4.88202	21.15542	-8.95037	-15.45973	190.39878	362.08315	439.3818	250.61036	62.65259	-35.80148	0
226	-16.2734	-21.96909	-7.32303	18.71441	-6.50936	-15.45973	190.39878	364.52416	439.3818	253.05137	65.0936	-30.91946	0
227	-8.95037	-19.52808	-12.20505	13.83239	1.62734	-15.45973	192.83979	371.84719	441.82281	255.49238	69.97562	-30.91946	0
228	-4.06835	-17.08707	-14.64606	8.95037	4.06835	-15.45973	192.83979	371.84719	441.82281	255.49238	69.97562	-28.47845	0
229	-0.81367	-14.64606	-14.64606	6.50936	6.50936	-13.01872	192.83979	374.2882	444.26382	257.93339	72.41663	-28.47845	0
230	1.62734	-9.76404	-12.20505	3.25468	6.50936	-10.57771	195.2808	374.2882	446.70483	260.3744	72.41663	-28.47845	0
231	-0.81367	-9.76404	-9.76404	3.25468	4.06835	-8.1367	195.2808	374.2882	446.70483	262.81541	69.97562	-28.47845	0
232	-4.06835	-14.64606	-12.20505	8.95037	4.06835	-13.01872	195.2808	374.2882	444.26382	262.81541	69.97562	-30.91946	0
233	-4.06835	-19.52808	-17.08707	11.39138	6.50936	-17.90074	195.2808	374.2882	444.26382	262.81541	67.53461	-30.91946	0
234	-4.06835	-19.52808	-17.08707	11.39138	6.50936	-17.90074	192.83979	376.72921	441.82281	262.81541	69.97562	-30.91946	0
235	-4.06835	-24.4101	-21.96909	13.83239	8.95037	-22.78276	190.39878	376.72921	441.82281	262.81541	67.53461	-33.36047	0
236	-8.95037	-29.29212	-21.96909	18.71441	6.50936	-25.22377	190.39878	376.72921	439.3818	262.81541	67.53461	-33.36047	0
237	-8.95037	-29.29212	-21.96909	18.71441	6.50936	-25.22377	190.39878	381.61123	439.3818	260.3744	69.97562	-30.91946	0
238	-8.95037	-31.73313	-24.4101	18.71441	6.50936	-27.66478	190.39878	386.49325	439.3818	260.3744	69.97562	-30.91946	0
239	-11.39138	-34.17414	-24.4101	21.15542	6.50936	-30.10579	185.51676	388.93426	439.3818	257.93339	69.97562	-30.91946	0
240	-11.39138	-34.17414	-24.4101	21.15542	6.50936	-30.10579	185.51676	388.93426	439.3818	257.93339	72.41663	-30.91946	0
241	-11.39138	-34.17414	-24.4101	21.15542	6.50936	-30.10579	185.51676	391.37527	436.94079	257.93339	72.41663	-30.91946	0
242	-8.95037	-29.29212	-21.96909	18.71441	6.50936	-25.22377	187.95777	393.81628	436.94079	257.93339	72.41663	-28.47845	0
243	-6.50936	-26.85111	-21.96909	16.2734	6.50936	-25.22377	187.95777	396.25729	439.3818	260.3744	74.85764	-25.22377	0
244	-0.81367	-19.52808	-19.52808	8.95037	8.95037	-17.90074	187.95777	398.6983	439.3818	257.93339	74.85764	-25.22377	0
245	-0.81367	-21.96909	-21.96909	11.39138	8.95037	-20.34175	185.51676	398.6983	436.94079	257.93339	74.85764	-22.78276	0
246	-4.06835	-24.4101	-21.96909	13.83239	8.95037	-22.78276	183.07575	403.58032	436.94079	255.49238	77.29865	-20.34175	0
247	-4.06835	-24.4101	-21.96909	13.83239	8.95037	-22.78276	183.07575	408.46234	436.94079	255.49238	82.18067	-17.90074	0
248	-4.06835	-26.85111	-24.4101	13.83239	8.95037	-25.22377	178.19373	408.46234	436.94079	253.05137	84.62168	-15.45973	0
249	-4.06835	-21.96909	-19.52808	11.39138	6.50936	-20.34175	175.75272	410.90335	436.94079	253.05137	89.5037	-13.01872	0
250	1.62734	-19.52808	-21.96909	8.95037	11.39138	-20.34175	173.31171	415.78537	439.3818	253.05137	91.94471	-10.57771	0
251	1.62734	-19.52808	-21.96909	8.95037	11.39138	-20.34175	173.31171	418.22638	436.94079	255.49238	91.94471	-8.1367	0
252	1.62734	-19.52808	-21.96909	8.95037	11.39138	-20.34175	173.31171	420.66739	436.94079	253.05137	94.38572	-5.69569	0
253	6.50936	-17.08707	-24.4101	3.25468	13.83239	-20.34175	175.75272	425.54941	436.94079	253.05137	96.82673	-3.25468	0
254	11.39138	-12.20505	-24.4101	0.81367	16.2734	-17.90074	175.75272	425.54941	429.61776	250.61036	99.26774	-0.81367	0
255	13.83239	-14.64606	-29.29212	0.81367	21.15542	-20.34175	173.31171	423.1084	424.73574	245.72834	99.26774	-0.81367	0
256	13.83239	-17.08707	-31.73313	0.81367	21.15542	-22.78276	170.8707	423.1084	417.41271	238.40531	96.82673	-0.81367	0
257	16.2734	-14.64606	-31.73313	-1.62734	23.59643	-22.78276	170.8707	423.1084	410.08968	231.08228	94.38572	-0.81367	0
258	16.2734	-14.64606	-31.73313	-1.62734	23.59643	-22.78276	168.42969	423.1084	402.76665	226.20026	94.38572	-0.81367	0
259	16.2734	-14.64606	-31.73313	-1.62734	23.59643	-22.78276	163.54767	420.66739	400.32564	223.75925	94.38572	1.62734	0
260	16.2734	-14.64606	-31.73313	-1.62734	23.59643	-22.78276	163.54767	420.66739	397.88463	223.75925	94.38572	6.50936	0
261	16.2734	-14.64606	-31.73313	-1.62734	23.59643	-22.78276	161.10666	418.22638	393.00261	221.31824	94.38572	8.95037	0
262	23.59643	-7.32303	-31.73313	-8.95037	26.03744	-17.90074	158.66565	418.22638	388.12059	218.87723	96.82673	13.83239	0
263	28.47845	-1.62734	-31.73313	-13.83239	30.91946	-15.45973	156.22464	418.22638	383.23857	216.43622	99.26774	18.71441	0
264	35.80148	0.81367	-36.61515	-18.71441	35.80148	-17.90074	153.78363	415.78537	378.35655	211.5542	104.14976	23.59643	0
265	43.12451	5.69569	-39.05616	-23.59643	40.6835	-15.45973	151.34262	413.34436	373.47453	209.11319	106.59077	28.47845	0
266	45.56552	3.25468	-43.93818	-23.59643	45.56552	-20.34175	146.4606	410.90335	366.1515	201.79016	106.59077	33.36047	0
267	45.56552	0.81367	-46.37919	-23.59643	45.56552	-22.78276	141.57858	408.46234	356.38746	192.02612	106.59077	35.80148	0
268	50.44754	5.69569	-46.37919	-28.47845	48.00653	-20.34175	136.69656	403.58032	344.18241	179.82107	106.59077	38.24249	0
269	50.44754	5.69569	-46.37919	-28.47845	48.00653	-20.34175	129.37353	398.6983	331.97736	167.61602	106.59077	43.12451	0
270	50.44754	-1.62734	-53.70222	-23.59643	52.88855	-27.66478	124.49151	391.37527	319.77231	160.29299	101.70875	43.12451	0
271	45.56552	-4.88202	-51.26121	-21.15542	48.00653	-27.66478	119.60949	381.61123	305.12625	150.52895	99.26774	45.56552	0
272	43.12451	-7.32303	-51.26121	-18.71441	45.56552	-27.66478	114.72747	371.84719	288.03918	138.3239	94.38572	45.56552	0
273	40.6835	-12.20505	-53.70222	-13.83239	45.56552	-32.5468	107.40444	357.20113	268.5111	126.11885	89.5037	45.56552	0
274	40.6835	-17.08707	-58.58424	-11.39138	48.00653	-37.42882	100.08141	342.55507	248.98302	111.47279	84.62168	45.56552	0
275	35.80148	-19.52808	-56.14323	-8.95037	45.56552	-37.42882	92.75838	327.90901	227.01393	96.82673	79.73966	45.56552	0
276	35.80148	-19.52808	-56.14323	-8.95037	45.56552	-37.42882	85.43535	313.26295	205.04484	82.18067	74.85764	45.56552	0
277	35.80148	-19.52808	-56.14323	-8.95037	45.56552	-37.42882	80.55333	301.0579	183.07575	67.53461	69.97562	45.56552	0
278	35.80148	-17.08707	-53.70222	-8.95037	43.12451	-34.98781	75.67131	286.41184	161.10666	50.44754	65.0936	45.56552	0
279	40.6835	-12.20505	-53.70222	-13.83239	45.56552	-32.5468	68.34828	269.32477	139.13757	32.5468	60.21158	45.56552	0
280	43.12451	-9.76404	-53.70222	-16.2734	48.00653	-30.10579	63.46626	254.67871	117.16848	17.90074	52.88855	45.56552	0
281	50.44754	-4.88202	-56.14323	-23.59643	52.88855	-30.10579	61.02525	240.03265	99.26774	3.25468	45.56552	48.00653	0
282	55.32956	0.81367	-56.14323	-28.47845	55.32956	-27.66478	56.14323	225.38659	77.29865	-11.39138	38.24249	50.44754	0
283	60.21158	3.25468	-58.58424	-30.91946	60.21158	-27.66478	51.26121	210.74053	55.32956	-28.47845	33.36047	52.88855	0
284	65.0936	3.25468	-63.46626	-33.36047	65.0936	-30.10579	45.56552	193.65346	30.91946	-45.56552	28.47845	55.32956	0
285	65.0936	-1.62734	-68.34828	-30.91946	67.53461	-34.98781	35.80148	174.12538	6.50936	-62.65259	21.15542	55.32956	0
286	62.65259	-4.88202	-68.34828	-28.47845	65.0936	-34.98781	28.47845	157.03831	-20.34175	-82.18067	13.83239	57.77057	1500	QRS+0
287	65.0936	-4.88202	-70.78929	-30.91946	67.53461	-37.42882	21.15542	142.39225	-42.31084	-101.70875	8.95037	60.21158	0
288	60.21158	-7.32303	-68.34828	-26.03744	62.65259	-37.42882	11.39138	125.30518	-66.72094	-121.23683	1.62734	62.65259	0
289	55.32956	-9.76404	-65.90727	-23.59643	60.21158	-37.42882	1.62734	104.96343	-93.57205	-143.20592	-8.95037	62.65259	0
290	50.44754	-12.20505	-63.46626	-18.71441	55.32956	-37.42882	-8.1367	82.99434	-120.42316	-162.734	-18.71441	60.21158	0
291	48.00653	-17.08707	-65.90727	-16.2734	55.32956	-39.86983	-13.01872	58.58424	-147.27427	-184.70309	-30.91946	55.32956	0
292	48.00653	-19.52808	-68.34828	-13.83239	57.77057	-42.31084	-17.90074	39.05616	-171.68437	-206.67218	-43.12451	52.88855	0
293	48.00653	-17.08707	-65.90727	-16.2734	55.32956	-39.86983	-25.22377	19.52808	-198.53548	-226.20026	-52.88855	45.56552	0
294	48.00653	-17.08707	-65.90727	-16.2734	55.32956	-39.86983	-30.10579	2.44101	-220.50457	-243.28733	-60.21158	43.12451	0
295	48.00653	-17.08707	-65.90727	-16.2734	55.32956	-39.86983	-34.98781	-14.64606	-244.91467	-260.3744	-72.41663	38.24249	0
296	45.56552	-14.64606	-61.02525	-16.2734	52.88855	-37.42882	-37.42882	-31.73313	-269.32477	-277.46147	-79.73966	35.80148	0
297	45.56552	-14.64606	-61.02525	-16.2734	52.88855	-37.42882	-39.86983	-43.93818	-288.85285	-289.66652	-84.62168	35.80148	0
298	40.6835	-12.20505	-53.70222	-13.83239	45.56552	-32.5468	-42.31084	-53.70222	-303.49891	-301.87157	-89.5037	35.80148	0
299	35.80148	-9.76404	-46.37919	-13.83239	40.6835	-27.66478	-42.31084	-65.90727	-320.58598	-314.07662	-94.38572	35.80148	0
300	30.91946	-7.32303	-39.05616	-11.39138	33.36047	-22.78276	-42.31084	-73.2303	-332.79103	-321.39965	-99.26774	35.80148	0
301	28.47845	-1.62734	-31.73313	-13.83239	30.91946	-15.45973	-39.86983	-80.55333	-344.99608	-328.72268	-104.14976	38.24249	0
302	21.15542	-4.88202	-26.85111	-8.95037	23.59643	-15.45973	-39.86983	-90.31737	-359.64214	-340.92773	-111.47279	38.24249	0
303	16.2734	-4.88202	-21.96909	-6.50936	18.71441	-13.01872	-39.86983	-100.08141	-374.2882	-350.69177	-118.79582	35.80148	0
304	11.39138	-7.32303	-19.52808	-1.62734	13.83239	-13.01872	-39.86983	-109.84545	-388.93426	-360.45581	-123.67784	33.36047	0
305	6.50936	-9.76404	-17.08707	0.81367	11.39138	-13.01872	-42.31084	-119.60949	-403.58032	-372.66086	-133.44188	28.47845	0
306	-0.81367	-12.20505	-12.20505	6.50936	4.06835	-10.57771	-42.31084	-129.37353	-418.22638	-384.86591	-140.76491	23.59643	0
307	-0.81367	-12.20505	-12.20505	6.50936	4.06835	-10.57771	-42.31084	-134.25555	-427.99042	-392.18894	-145.64693	21.15542	0
308	-0.81367	-9.76404	-9.76404	3.25468	4.06835	-8.1367	-42.31084	-141.57858	-437.75446	-397.07096	-150.52895	16.2734	0
309	-6.50936	-9.76404	-4.88202	6.50936	-1.62734	-8.1367	-44.75185	-148.90161	-445.07749	-404.39399	-155.41097	11.39138	0
310	-11.39138	-4.88202	5.69569	6.50936	-8.95037	0	-44.75185	-153.78363	-447.5185	-406.835	-160.29299	6.50936	0
311	-16.2734	-4.88202	10.57771	8.95037	-13.83239	2.44101	-42.31084	-156.22464	-452.40052	-404.39399	-165.17501	1.62734	0
312	-18.71441	-1.62734	15.45973	8.95037	-16.2734	7.32303	-42.31084	-158.66565	-452.40052	-404.39399	-167.61602	-0.81367	0
313	-18.71441	0.81367	17.90074	8.95037	-18.71441	9.76404	-39.86983	-158.66565	-452.40052	-404.39399	-170.05703	-5.69569	0
314	-16.2734	5.69569	20.34175	3.25468	-18.71441	12.20505	-37.42882	-158.66565	-449.95951	-401.95298	-170.05703	-10.57771	0
315	-18.71441	5.69569	22.78276	6.50936	-21.15542	14.64606	-34.98781	-161.10666	-447.5185	-397.07096	-170.05703	-13.01872	0
316	-21.15542	5.69569	25.22377	6.50936	-23.59643	14.64606	-32.5468	-158.66565	-445.07749	-394.62995	-172.49804	-15.45973	0
317	-26.03744	5.69569	30.10579	8.95037	-28.47845	17.08707	-30.10579	-153.78363	-440.19547	-389.74793	-172.49804	-17.90074	0
318	-30.91946	5.69569	34.98781	11.39138	-33.36047	19.52808	-27.66478	-151.34262	-435.31345	-382.4249	-172.49804	-22.78276	0
319	-35.80148	3.25468	37.42882	16.2734	-35.80148	19.52808	-25.22377	-148.90161	-427.99042	-377.54288	-170.05703	-25.22377	0
320	-40.6835	3.25468	42.31084	18.71441	-40.6835	21.96909	-20.34175	-144.01959	-420.66739	-367.77884	-170.05703	-28.47845	0
321	-48.00653	0.81367	47.19286	23.59643	-48.00653	24.4101	-17.90074	-141.57858	-415.78537	-360.45581	-172.49804	-30.91946	0
322	-52.88855	0.81367	52.07488	26.03744	-52.88855	26.85111	-13.01872	-134.25555	-406.02133	-350.69177	-172.49804	-33.36047	0
323	-52.88855	0.81367	52.07488	26.03744	-52.88855	26.85111	-8.1367	-126.93252	-393.81628	-338.48672	-167.61602	-35.80148	0
324	-52.88855	0.81367	52.07488	26.03744	-52.88855	26.85111	-5.69569	-119.60949	-381.61123	-328.72268	-165.17501	-38.24249	0
325	-52.88855	0.81367	52.07488	26.03744	-52.88855	26.85111	-0.81367	-109.84545	-369.40618	-316.51763	-162.734	-38.24249	0
326	-52.88855	0.81367	52.07488	26.03744	-52.88855	26.85111	4.06835	-100.08141	-357.20113	-304.31258	-157.85198	-38.24249	0
327	-50.44754	0.81367	49.63387	23.59643	-50.44754	24.4101	8.95037	-87.87636	-342.55507	-294.54854	-152.96996	-40.6835	0
328	-45.56552	8.1367	52.07488	18.71441	-48.00653	29.29212	11.39138	-78.11232	-330.35002	-282.34349	-145.64693	-40.6835	0
329	-43.12451	10.57771	52.07488	16.2734	-48.00653	31.73313	13.83239	-68.34828	-310.82194	-267.69743	-138.3239	-40.6835	0
330	-40.6835	10.57771	49.63387	13.83239	-45.56552	29.29212	16.2734	-58.58424	-296.17588	-255.49238	-135.88289	-43.12451	0
331	-40.6835	10.57771	49.63387	13.83239	-45.56552	29.29212	21.15542	-48.8202	-281.52982	-245.72834	-135.88289	-43.12451	0
332	-40.6835	8.1367	47.19286	16.2734	-43.12451	26.85111	23.59643	-39.05616	-269.32477	-233.52329	-133.44188	-43.12451	0
333	-38.24249	8.1367	44.75185	13.83239	-40.6835	26.85111	23.59643	-31.73313	-257.11972	-226.20026	-131.00087	-45.56552	0
334	-35.80148	8.1367	42.31084	13.83239	-38.24249	24.4101	23.59643	-24.4101	-244.91467	-218.87723	-126.11885	-50.44754	0
335	-35.80148	5.69569	39.86983	13.83239	-38.24249	21.96909	26.03744	-14.64606	-230.26861	-206.67218	-123.67784	-50.44754	0
336	-40.6835	-1.62734	37.42882	21.15542	-38.24249	17.08707	26.03744	-4.88202	-218.06356	-196.90814	-121.23683	-50.44754	0
337	-43.12451	-4.88202	37.42882	23.59643	-40.6835	17.08707	26.03744	4.88202	-205.85851	-187.1441	-116.35481	-50.44754	0
338	-40.6835	-4.88202	34.98781	21.15542	-38.24249	14.64606	28.47845	19.52808	-188.77144	-172.49804	-109.03178	-48.00653	0
339	-40.6835	-1.62734	37.42882	21.15542	-38.24249	17.08707	30.91946	31.73313	-171.68437	-157.85198	-99.26774	-45.56552	0
340	-40.6835	0.81367	39.86983	18.71441	-40.6835	19.52808	33.36047	43.93818	-154.5973	-140.76491	-94.38572	-45.56552	0
341	-38.24249	3.25468	39.86983	16.2734	-38.24249	21.96909	38.24249	56.14323	-137.51023	-126.11885	-87.06269	-43.12451	0
342	-35.80148	3.25468	37.42882	16.2734	-35.80148	19.52808	43.12451	68.34828	-117.98215	-109.03178	-77.29865	-38.24249	0
343	-30.91946	3.25468	32.5468	13.83239	-30.91946	17.08707	48.8202	80.55333	-103.33609	-94.38572	-69.97562	-33.36047	0
344	-26.03744	5.69569	30.10579	8.95037	-28.47845	17.08707	53.70222	90.31737	-86.24902	-82.18067	-62.65259	-33.36047	0
345	-21.15542	3.25468	22.78276	8.95037	-21.15542	12.20505	58.58424	100.08141	-74.04397	-72.41663	-57.77057	-33.36047	0
346	-21.15542	-1.62734	17.90074	11.39138	-18.71441	7.32303	61.02525	109.84545	-59.39791	-65.0936	-55.32956	-30.91946	0
347	-21.15542	-4.88202	15.45973	11.39138	-18.71441	4.88202	65.90727	119.60949	-49.63387	-57.77057	-50.44754	-30.91946	0
348	-26.03744	-7.32303	17.90074	16.2734	-23.59643	4.88202	65.90727	125.30518	-39.86983	-50.44754	-45.56552	-33.36047	0
349	-28.47845	-9.76404	17.90074	18.71441	-23.59643	4.88202	65.90727	132.62821	-25.22377	-40.6835	-43.12451	-33.36047	0
350	-35.80148	-17.08707	17.90074	26.03744	-28.47845	0	65.90727	139.95124	-15.45973	-30.91946	-40.6835	-35.80148	0
351	-38.24249	-17.08707	20.34175	26.03744	-30.91946	2.44101	68.34828	147.27427	-5.69569	-23.59643	-40.6835	-38.24249	0
352	-38.24249	-19.52808	17.90074	28.47845	-28.47845	0	70.78929	152.15629	4.06835	-16.2734	-40.6835	-43.12451	0
353	-38.24249	-19.52808	17.90074	28.47845	-28.47845	0	70.78929	159.47932	13.83239	-8.95037	-40.6835	-45.56552	0
354	-33.36047	-17.08707	15.45973	23.59643	-26.03744	0	73.2303	164.36134	23.59643	-4.06835	-38.24249	-48.00653	0
355	-30.91946	-17.08707	13.01872	23.59643	-23.59643	-3.25468	75.67131	166.80235	30.91946	3.25468	-38.24249	-48.00653	0
356	-23.59643	-9.76404	13.01872	16.2734	-18.71441	2.44101	80.55333	174.12538	40.6835	8.1367	-35.80148	-48.00653	0
357	-16.2734	-4.88202	10.57771	8.95037	-13.83239	2.44101	80.55333	183.88942	52.88855	15.45973	-33.36047	-48.00653	0
358	-11.39138	3.25468	13.01872	3.25468	-11.39138	7.32303	85.43535	193.65346	65.0936	22.78276	-28.47845	-48.00653	0
359	-6.50936	3.25468	8.1367	0.81367	-6.50936	4.88202	87.87636	205.85851	79.73966	30.10579	-23.59643	-45.56552	0
360	-11.39138	3.25468	13.01872	3.25468	-11.39138	7.32303	90.31737	213.18154	91.94471	37.42882	-23.59643	-45.56552	0
361	-16.2734	0.81367	15.45973	6.50936	-16.2734	7.32303	95.19939	218.06356	101.70875	44.75185	-23.59643	-45.56552	0
362	-18.71441	0.81367	17.90074	8.95037	-18.71441	9.76404	100.08141	222.94558	109.84545	47.19286	-23.59643	-48.00653	0
363	-21.15542	-4.88202	15.45973	11.39138	-18.71441	4.88202	100.08141	227.8276	117.16848	55.32956	-21.15542	-48.00653	0
364	-18.71441	-4.88202	13.01872	11.39138	-16.2734	4.88202	102.52242	232.70962	124.49151	57.77057	-18.71441	-48.00653	0
365	-18.71441	-4.88202	13.01872	11.39138	-16.2734	4.88202	104.96343	237.59164	131.81454	62.65259	-18.71441	-48.00653	0
366	-18.71441	-9.76404	8.1367	13.83239	-13.83239	0	109.84545	242.47366	136.69656	62.65259	-16.2734	-48.00653	0
367	-23.59643	-14.64606	8.1367	18.71441	-16.2734	-3.25468	109.84545	244.91467	139.13757	62.65259	-16.2734	-50.44754	0
368	-23.59643	-12.20505	10.57771	16.2734	-18.71441	0	109.84545	247.35568	144.01959	62.65259	-16.2734	-52.88855	0
369	-21.15542	-9.76404	10.57771	13.83239	-16.2734	0	112.28646	252.2377	151.34262	62.65259	-16.2734	-52.88855	0
370	-23.59643	-9.76404	13.01872	16.2734	-18.71441	2.44101	112.28646	257.11972	156.22464	65.0936	-16.2734	-52.88855	0
371	-30.91946	-14.64606	15.45973	21.15542	-23.59643	0	114.72747	259.56073	161.10666	69.97562	-16.2734	-52.88855	0
372	-38.24249	-19.52808	17.90074	28.47845	-28.47845	0	117.16848	262.00174	168.42969	72.41663	-18.71441	-55.32956	0
373	-45.56552	-26.85111	17.90074	35.80148	-33.36047	-5.69569	117.16848	259.56073	170.8707	77.29865	-21.15542	-57.77057	0
374	-45.56552	-29.29212	15.45973	35.80148	-30.91946	-8.1367	117.16848	257.11972	170.8707	77.29865	-18.71441	-60.21158	0
375	-43.12451	-31.73313	10.57771	35.80148	-28.47845	-10.57771	119.60949	254.67871	173.31171	82.18067	-18.71441	-60.21158	0
376	-43.12451	-31.73313	10.57771	35.80148	-28.47845	-10.57771	119.60949	252.2377	173.31171	82.18067	-18.71441	-60.21158	0
377	-45.56552	-34.17414	10.57771	38.24249	-28.47845	-13.01872	122.0505	254.67871	175.75272	84.62168	-18.71441	-60.21158	0
378	-45.56552	-34.17414	10.57771	38.24249	-28.47845	-13.01872	126.93252	257.11972	178.19373	87.06269	-16.2734	-60.21158	0
379	-40.6835	-29.29212	10.57771	33.36047	-26.03744	-10.57771	129.37353	257.11972	185.51676	89.5037	-11.39138	-57.77057	0
380	-33.36047	-21.96909	10.57771	26.03744	-23.59643	-5.69569	131.81454	262.00174	190.39878	94.38572	-11.39138	-55.32956	0
381	-28.47845	-12.20505	15.45973	18.71441	-23.59643	2.44101	136.69656	264.44275	192.83979	96.82673	-11.39138	-55.32956	0
382	-23.59643	-7.32303	15.45973	13.83239	-21.15542	4.88202	141.57858	266.88376	197.72181	101.70875	-11.39138	-52.88855	0
383	-26.03744	-9.76404	15.45973	16.2734	-21.15542	2.44101	144.01959	266.88376	200.16282	104.14976	-13.83239	-52.88855	0
384	-23.59643	-12.20505	10.57771	16.2734	-18.71441	0	148.90161	269.32477	205.04484	106.59077	-11.39138	-52.88855	0
385	-18.71441	-12.20505	5.69569	13.83239	-13.83239	-3.25468	151.34262	269.32477	207.48585	109.03178	-11.39138	-50.44754	0
386	-21.15542	-14.64606	5.69569	16.2734	-13.83239	-5.69569	151.34262	266.88376	205.04484	109.03178	-8.95037	-48.00653	0
387	-21.15542	-19.52808	0.81367	18.71441	-11.39138	-10.57771	151.34262	262.00174	202.60383	109.03178	-8.95037	-45.56552	0
388	-26.03744	-24.4101	0.81367	23.59643	-13.83239	-13.01872	146.4606	259.56073	197.72181	106.59077	-8.95037	-45.56552	0
389	-33.36047	-31.73313	0.81367	30.91946	-18.71441	-15.45973	141.57858	259.56073	197.72181	106.59077	-8.95037	-45.56552	0
390	-43.12451	-41.49717	0.81367	40.6835	-23.59643	-20.34175	136.69656	259.56073	197.72181	109.03178	-5.69569	-45.56552	-1500	QRS-0
391	-48.00653	-43.93818	3.25468	45.56552	-26.03744	-20.34175	136.69656	254.67871	197.72181	113.9138	-5.69569	-43.12451	0
392	-48.00653	-41.49717	5.69569	43.12451	-28.47845	-17.90074	136.69656	252.2377	200.16282	118.79582	-5.69569	-43.12451	0
393	-50.44754	-39.05616	10.57771	43.12451	-30.91946	-15.45973	134.25555	249.79669	200.16282	118.79582	-8.95037	-48.00653	0
394	-48.00653	-39.05616	8.1367	43.12451	-28.47845	-15.45973	134.25555	247.35568	197.72181	116.35481	-8.95037	-50.44754	0
395	-40.6835	-31.73313	8.1367	35.80148	-26.03744	-13.01872	136.69656	247.35568	197.72181	118.79582	-8.95037	-52.88855	0
396	-40.6835	-31.73313	8.1367	35.80148	-26.03744	-13.01872	136.69656	244.91467	195.2808	116.35481	-11.39138	-55.32956	0
397	-33.36047	-29.29212	3.25468	30.91946	-18.71441	-13.01872	136.69656	240.03265	192.83979	116.35481	-11.39138	-57.77057	0
398	-26.03744	-21.96909	3.25468	23.59643	-16.2734	-10.57771	136.69656	237.59164	187.95777	111.47279	-11.39138	-57.77057	0
399	-21.15542	-19.52808	0.81367	18.71441	-11.39138	-10.57771	136.69656	237.59164	187.95777	109.03178	-13.83239	-55.32956	0
400	-16.2734	-19.52808	-4.88202	16.2734	-6.50936	-13.01872	134.25555	235.15063	183.07575	106.59077	-13.83239	-52.88855	0
401	-21.15542	-17.08707	3.25468	18.71441	-13.83239	-8.1367	129.37353	230.26861	178.19373	104.14976	-16.2734	-52.88855	0
402	-26.03744	-19.52808	5.69569	21.15542	-16.2734	-8.1367	126.93252	225.38659	178.19373	104.14976	-16.2734	-50.44754	0
403	-30.91946	-24.4101	5.69569	26.03744	-18.71441	-10.57771	122.0505	220.50457	173.31171	104.14976	-16.2734	-48.00653	0
404	-33.36047	-24.4101	8.1367	28.47845	-21.15542	-8.1367	122.0505	213.18154	170.8707	101.70875	-18.71441	-48.00653	0
405	-30.91946	-21.96909	8.1367	26.03744	-21.15542	-8.1367	117.16848	208.29952	168.42969	101.70875	-16.2734	-45.56552	0
406	-30.91946	-21.96909	8.1367	26.03744	-21.15542	-8.1367	117.16848	203.4175	165.98868	101.70875	-13.83239	-45.56552	0
407	-30.91946	-21.96909	8.1367	26.03744	-21.15542	-8.1367	117.16848	198.53548	163.54767	101.70875	-11.39138	-43.12451	0
408	-30.91946	-21.96909	8.1367	26.03744	-21.15542	-8.1367	112.28646	196.09447	158.66565	99.26774	-11.39138	-43.12451	0
409	-30.91946	-19.52808	10.57771	23.59643	-21.15542	-5.69569	109.84545	193.65346	156.22464	99.26774	-11.39138	-45.56552	0
410	-30.91946	-17.08707	13.01872	23.59643	-23.59643	-3.25468	107.40444	193.65346	156.22464	99.26774	-8.95037	-45.56552	0
411	-30.91946	-14.64606	15.45973	21.15542	-23.59643	0	102.52242	188.77144	153.78363	99.26774	-8.95037	-45.56552	0
412	-33.36047	-14.64606	17.90074	23.59643	-26.03744	2.44101	100.08141	186.33043	153.78363	99.26774	-8.95037	-48.00653	0
413	-38.24249	-17.08707	20.34175	26.03744	-30.91946	2.44101	97.6404	181.44841	153.78363	101.70875	-8.95037	-48.00653	0
414	-43.12451	-21.96909	20.34175	30.91946	-33.36047	0	95.19939	176.56639	151.34262	101.70875	-8.95037	-48.00653	0
415	-45.56552	-26.85111	17.90074	35.80148	-33.36047	-5.69569	92.75838	171.68437	146.4606	101.70875	-8.95037	-48.00653	0
416	-45.56552	-29.29212	15.45973	35.80148	-30.91946	-8.1367	87.87636	164.36134	141.57858	99.26774	-8.95037	-50.44754	0
417	-48.00653	-31.73313	15.45973	38.24249	-33.36047	-8.1367	87.87636	159.47932	139.13757	99.26774	-8.95037	-50.44754	0
418	-48.00653	-31.73313	15.45973	38.24249	-33.36047	-8.1367	85.43535	154.5973	136.69656	94.38572	-8.95037	-50.44754	0
419	-45.56552	-31.73313	13.01872	38.24249	-30.91946	-10.57771	85.43535	152.15629	134.25555	94.38572	-11.39138	-50.44754	0
420	-40.6835	-29.29212	10.57771	33.36047	-26.03744	-10.57771	82.99434	152.15629	131.81454	89.5037	-11.39138	-50.44754	0
421	-38.24249	-24.4101	13.01872	30.91946	-26.03744	-5.69569	80.55333	149.71528	129.37353	89.5037	-11.39138	-48.00653	0
422	-38.24249	-26.85111	10.57771	30.91946	-26.03744	-8.1367	78.11232	144.83326	129.37353	87.06269	-11.39138	-48.00653	0
423	-38.24249	-24.4101	13.01872	30.91946	-26.03744	-5.69569	75.67131	142.39225	129.37353	87.06269	-11.39138	-48.00653	0
424	-38.24249	-24.4101	13.01872	30.91946	-26.03744	-5.69569	73.2303	139.95124	129.37353	87.06269	-11.39138	-45.56552	0
425	-35.80148	-24.4101	10.57771	28.47845	-23.59643	-8.1367	70.78929	137.51023	124.49151	84.62168	-8.95037	-45.56552	0
426	-28.47845	-21.96909	5.69569	23.59643	-18.71441	-8.1367	70.78929	132.62821	124.49151	84.62168	-8.95037	-43.12451	0
427	-21.15542	-19.52808	0.81367	18.71441	-11.39138	-10.57771	70.78929	130.1872	122.0505	84.62168	-5.69569	-40.6835	0
428	-16.2734	-17.08707	-2.44101	16.2734	-8.95037	-10.57771	70.78929	127.74619	119.60949	82.18067	-5.69569	-35.80148	0
429	-16.2734	-14.64606	0.81367	13.83239	-8.95037	-8.1367	68.34828	127.74619	119.60949	82.18067	-3.25468	-33.36047	0
430	-16.2734	-14.64606	0.81367	13.83239	-8.95037	-8.1367	68.34828	127.74619	117.16848	82.18067	1.62734	-33.36047	0
431	-16.2734	-12.20505	3.25468	13.83239	-11.39138	-5.69569	65.90727	125.30518	117.16848	82.18067	1.62734	-30.91946	0
432	-18.71441	-12.20505	5.69569	13.83239	-13.83239	-3.25468	61.02525	119.60949	114.72747	82.18067	1.62734	-30.91946	0
433	-21.15542	-14.64606	5.69569	16.2734	-13.83239	-5.69569	58.58424	114.72747	112.28646	77.29865	-3.25468	-33.36047	0
434	-26.03744	-19.52808	5.69569	21.15542	-16.2734	-8.1367	56.14323	109.84545	112.28646	77.29865	-5.69569	-33.36047	0
435	-30.91946	-24.4101	5.69569	26.03744	-18.71441	-10.57771	53.70222	104.96343	109.84545	74.85764	-5.69569	-35.80148	0
436	-40.6835	-29.29212	10.57771	33.36047	-26.03744	-10.57771	48.8202	100.08141	107.40444	72.41663	-5.69569	-38.24249	0
437	-40.6835	-31.73313	8.1367	35.80148	-26.03744	-13.01872	45.56552	95.19939	104.14976	69.97562	-5.69569	-40.6835	0
438	-40.6835	-31.73313	8.1367	35.80148	-26.03744	-13.01872	45.56552	92.75838	104.14976	67.53461	-8.95037	-40.6835	0
439	-38.24249	-29.29212	8.1367	33.36047	-23.59643	-10.57771	43.12451	90.31737	99.26774	62.65259	-8.95037	-43.12451	0
440	-35.80148	-26.85111	8.1367	30.91946	-23.59643	-10.57771	40.6835	90.31737	99.26774	60.21158	-8.95037	-43.12451	0
441	-35.80148	-21.96909	13.01872	28.47845	-26.03744	-5.69569	40.6835	90.31737	99.26774	60.21158	-11.39138	-45.56552	0
442	-33.36047	-19.52808	13.01872	26.03744	-23.59643	-3.25468	40.6835	90.31737	99.26774	60.21158	-11.39138	-45.56552	0
443	-33.36047	-14.64606	17.90074	23.59643	-26.03744	2.44101	38.24249	90.31737	99.26774	60.21158	-16.2734	-45.56552	0
444	-26.03744	-9.76404	15.45973	16.2734	-21.15542	2.44101	35.80148	90.31737	96.82673	60.21158	-18.71441	-48.00653	0
445	-23.59643	-7.32303	15.45973	13.83239	-21.15542	4.88202	35.80148	87.87636	94.38572	60.21158	-18.71441	-48.00653	0
446	-21.15542	-7.32303	13.01872	13.83239	-18.71441	2.44101	33.36047	82.99434	91.94471	57.77057	-18.71441	-50.44754	0
447	-21.15542	-9.76404	10.57771	13.83239	-16.2734	0	33.36047	80.55333	87.06269	57.77057	-21.15542	-52.88855	0
448	-18.71441	-9.76404	8.1367	13.83239	-13.83239	0	35.80148	80.55333	87.06269	55.32956	-21.15542	-52.88855	0
449	-16.2734	-9.76404	5.69569	11.39138	-11.39138	-3.25468	38.24249	82.99434	87.06269	52.88855	-21.15542	-50.44754	0
450	-13.83239	-7.32303	5.69569	8.95037	-11.39138	0	38.24249	82.99434	87.06269	57.77057	-18.71441	-48.00653	0
451	-13.83239	-4.88202	8.1367	8.95037	-11.39138	2.44101	38.24249	82.99434	89.5037	60.21158	-13.83239	-45.56552	0
452	-16.2734	-7.32303	8.1367	11.39138	-13.83239	0	40.6835	82.99434	91.94471	62.65259	-11.39138	-43.12451	0
453	-18.71441	-9.76404	8.1367	13.83239	-13.83239	0	40.6835	85.43535	96.82673	65.0936	-8.95037	-40.6835	0
454	-21.15542	-9.76404	10.57771	13.83239	-16.2734	0	40.6835	87.87636	96.82673	67.53461	-8.95037	-40.6835	0
455	-23.59643	-9.76404	13.01872	16.2734	-18.71441	2.44101	40.6835	90.31737	99.26774	69.97562	-5.69569	-40.6835	0
456	-28.47845	-12.20505	15.45973	18.71441	-23.59643	2.44101	40.6835	90.31737	99.26774	69.97562	-3.25468	-43.12451	0
457	-28.47845	-12.20505	15.45973	18.71441	-23.59643	2.44101	38.24249	87.87636	99.26774	69.97562	-3.25468	-43.12451	0
458	-30.91946	-14.64606	15.45973	21.15542	-23.59643	0	38.24249	87.87636	96.82673	67.53461	-5.69569	-45.56552	0
459	-33.36047	-19.52808	13.01872	26.03744	-23.59643	-3.25468	35.80148	87.87636	96.82673	62.65259	-5.69569	-45.56552	0
460	-35.80148	-24.4101	10.57771	28.47845	-23.59643	-8.1367	33.36047	87.87636	96.82673	57.77057	-8.95037	-48.00653	0
461	-38.24249	-24.4101	13.01872	30.91946	-26.03744	-5.69569	30.91946	85.43535	91.94471	55.32956	-11.39138	-50.44754	0
462	-38.24249	-24.4101	13.01872	30.91946	-26.03744	-5.69569	26.03744	80.55333	91.94471	52.88855	-16.2734	-52.88855	0
463	-40.6835	-29.29212	10.57771	33.36047	-26.03744	-10.57771	26.03744	78.11232	91.94471	52.88855	-16.2734	-52.88855	0
464	-43.12451	-29.29212	13.01872	35.80148	-28.47845	-8.1367	23.59643	75.67131	91.94471	55.32956	-16.2734	-50.44754	0
465	-45.56552	-29.29212	15.45973	35.80148	-30.91946	-8.1367	21.15542	73.2303	89.5037	55.32956	-13.83239	-50.44754	0
466	-38.24249	-26.85111	10.57771	30.91946	-26.03744	-8.1367	21.15542	70.78929	89.5037	57.77057	-11.39138	-48.00653	0
467	-33.36047	-21.96909	10.57771	26.03744	-23.59643	-5.69569	21.15542	68.34828	89.5037	60.21158	-8.95037	-45.56552	0
468	-30.91946	-17.08707	13.01872	23.59643	-23.59643	-3.25468	21.15542	68.34828	89.5037	62.65259	-8.95037	-43.12451	0
469	-28.47845	-17.08707	10.57771	21.15542	-21.15542	-3.25468	21.15542	65.90727	87.06269	60.21158	-8.95037	-43.12451	0
470	-26.03744	-14.64606	10.57771	18.71441	-18.71441	-3.25468	21.15542	70.78929	87.06269	60.21158	-8.95037	-43.12451	0
471	-21.15542	-9.76404	10.57771	13.83239	-16.2734	0	21.15542	70.78929	89.5037	57.77057	-8.95037	-43.12451	0
472	-16.2734	-7.32303	8.1367	11.39138	-13.83239	0	18.71441	70.78929	89.5037	55.32956	-13.83239	-43.12451	0
473	-8.95037	-1.62734	5.69569	3.25468	-6.50936	2.44101	21.15542	70.78929	91.94471	55.32956	-13.83239	-45.56552	0
474	-11.39138	-4.88202	5.69569	6.50936	-8.95037	0	21.15542	70.78929	89.5037	52.88855	-18.71441	-48.00653	0
475	-16.2734	-4.88202	10.57771	8.95037	-13.83239	2.44101	18.71441	68.34828	87.06269	52.88855	-18.71441	-50.44754	0
476	-16.2734	-4.88202	10.57771	8.95037	-13.83239	2.44101	18.71441	65.90727	87.06269	52.88855	-16.2734	-50.44754	0
477	-16.2734	-1.62734	13.01872	8.95037	-13.83239	4.88202	21.15542	65.90727	89.5037	57.77057	-11.39138	-45.56552	0
478	-16.2734	-1.62734	13.01872	8.95037	-13.83239	4.88202	23.59643	68.34828	91.94471	57.77057	-8.95037	-43.12451	0
479	-21.15542	-1.62734	17.90074	11.39138	-18.71441	7.32303	23.59643	68.34828	91.94471	60.21158	-8.95037	-38.24249	0
480	-21.15542	0.81367	20.34175	8.95037	-21.15542	9.76404	23.59643	73.2303	94.38572	62.65259	-5.69569	-35.80148	0
481	-26.03744	3.25468	27.66478	11.39138	-26.03744	14.64606	23.59643	73.2303	94.38572	62.65259	-5.69569	-33.36047	0
482	-30.91946	-4.88202	25.22377	16.2734	-28.47845	9.76404	23.59643	68.34828	94.38572	62.65259	-5.69569	-33.36047	0
483	-28.47845	-1.62734	25.22377	13.83239	-26.03744	12.20505	23.59643	68.34828	96.82673	62.65259	-8.95037	-33.36047	0
484	-30.91946	-1.62734	27.66478	16.2734	-28.47845	12.20505	21.15542	65.90727	96.82673	62.65259	-8.95037	-35.80148	0
485	-30.91946	-4.88202	25.22377	16.2734	-28.47845	9.76404	16.2734	65.90727	96.82673	57.77057	-11.39138	-40.6835	0
486	-30.91946	-4.88202	25.22377	16.2734	-28.47845	9.76404	16.2734	65.90727	96.82673	57.77057	-13.83239	-40.6835	0
487	-30.91946	-7.32303	22.78276	18.71441	-28.47845	7.32303	11.39138	63.46626	96.82673	55.32956	-13.83239	-43.12451	0
488	-28.47845	-7.32303	20.34175	16.2734	-26.03744	7.32303	8.95037	63.46626	91.94471	52.88855	-18.71441	-45.56552	0
489	-26.03744	-4.88202	20.34175	13.83239	-23.59643	7.32303	8.95037	63.46626	91.94471	52.88855	-18.71441	-45.56552	0
490	-21.15542	-1.62734	17.90074	11.39138	-18.71441	7.32303	8.95037	63.46626	89.5037	52.88855	-18.71441	-45.56552	0
491	-18.71441	0.81367	17.90074	8.95037	-18.71441	9.76404	8.95037	63.46626	89.5037	50.44754	-18.71441	-48.00653	0
492	-21.15542	-4.88202	15.45973	11.39138	-18.71441	4.88202	8.95037	65.90727	89.5037	50.44754	-18.71441	-50.44754	0
493	-21.15542	-4.88202	15.45973	11.39138	-18.71441	4.88202	8.95037	65.90727	89.5037	50.44754	-21.15542	-50.44754	0
494	-21.15542	-4.88202	15.45973	11.39138	-18.71441	4.88202	8.95037	65.90727	89.5037	50.44754	-21.15542	-52.88855	0
495	-21.15542	0.81367	20.34175	8.95037	-21.15542	9.76404	11.39138	63.46626	89.5037	50.44754	-21.15542	-52.88855	0
496	-18.71441	3.25468	20.34175	6.50936	-18.71441	12.20505	16.2734	63.46626	89.5037	52.88855	-18.71441	-52.88855	0
497	-21.15542	0.81367	20.34175	8.95037	-21.15542	9.76404	16.2734	63.46626	89.5037	52.88855	-18.71441	-52.88855	0
498	-23.59643	-4.88202	17.90074	13.83239	-21.15542	7.32303	16.2734	63.46626	89.5037	52.88855	-18.71441	-50.44754	0
499	-23.59643	-4.88202	17.90074	13.83239	-21.15542	7.32303	18.71441	65.90727	91.94471	50.44754	-18.71441	-48.00653	0
500	-23.59643	-4.88202	17.90074	13.83239	-21.15542	7.32303	21.15542	68.34828	94.38572	50.44754	-18.71441	-45.56552	0
501	-21.15542	3.25468	22.78276	8.95037	-21.15542	12.20505	21.15542	68.34828	94.38572	50.44754	-18.71441	-43.12451	0
502	-21.15542	5.69569	25.22377	6.50936	-23.59643	14.64606	23.59643	68.34828	99.26774	52.88855	-18.71441	-40.6835	0
503	-23.59643	0.81367	22.78276	11.39138	-23.59643	12.20505	26.03744	68.34828	104.14976	52.88855	-16.2734	-35.80148	0
504	-26.03744	-1.62734	22.78276	13.83239	-23.59643	9.76404	26.03744	68.34828	104.14976	52.88855	-16.2734	-35.80148	0
505	-33.36047	-7.32303	25.22377	18.71441	-30.91946	9.76404	23.59643	65.90727	104.14976	52.88855	-16.2734	-35.80148	0
506	-40.6835	-9.76404	30.10579	23.59643	-35.80148	9.76404	18.71441	63.46626	104.14976	52.88855	-16.2734	-35.80148	0
507	-43.12451	-14.64606	27.66478	28.47845	-35.80148	7.32303	18.71441	63.46626	104.14976	55.32956	-13.83239	-35.80148	0
508	-48.00653	-17.08707	30.10579	30.91946	-40.6835	7.32303	16.2734	63.46626	104.14976	55.32956	-13.83239	-38.24249	0
509	-48.00653	-19.52808	27.66478	33.36047	-38.24249	4.88202	13.83239	63.46626	104.14976	57.77057	-11.39138	-40.6835	0
510	-50.44754	-24.4101	25.22377	35.80148	-38.24249	0	13.83239	65.90727	104.14976	60.21158	-11.39138	-40.6835	0
511	-50.44754	-24.4101	25.22377	35.80148	-38.24249	0	11.39138	65.90727	104.14976	60.21158	-11.39138	-43.12451	0
512	-50.44754	-19.52808	30.10579	33.36047	-40.6835	4.88202	11.39138	65.90727	107.40444	62.65259	-13.83239	-45.56552	0
513	-48.00653	-14.64606	32.5468	30.91946	-40.6835	9.76404	13.83239	68.34828	109.84545	65.0936	-13.83239	-48.00653	0
514	-43.12451	-7.32303	34.98781	23.59643	-40.6835	14.64606	18.71441	70.78929	112.28646	67.53461	-13.83239	-48.00653	0
515	-35.80148	-1.62734	32.5468	18.71441	-33.36047	14.64606	21.15542	73.2303	117.16848	69.97562	-11.39138	-45.56552	0
516	-30.91946	3.25468	32.5468	13.83239	-30.91946	17.08707	23.59643	73.2303	119.60949	72.41663	-8.95037	-43.12451	0
517	-28.47845	3.25468	30.10579	11.39138	-28.47845	17.08707	26.03744	73.2303	122.0505	74.85764	-8.95037	-38.24249	0
518	-23.59643	13.01872	34.98781	3.25468	-28.47845	24.4101	30.91946	75.67131	122.0505	74.85764	-8.95037	-33.36047	0
519	-18.71441	20.34175	37.42882	-1.62734	-28.47845	29.29212	35.80148	80.55333	124.49151	74.85764	-8.95037	-28.47845	0
520	-13.83239	30.10579	42.31084	-8.95037	-28.47845	36.61515	40.6835	82.99434	129.37353	77.29865	-3.25468	-28.47845	0
521	-8.95037	34.98781	42.31084	-13.83239	-26.03744	39.05616	45.56552	87.87636	134.25555	79.73966	-0.81367	-22.78276	0
522	-4.06835	42.31084	44.75185	-18.71441	-23.59643	43.93818	48.8202	92.75838	141.57858	89.5037	4.06835	-17.90074	0
523	-4.06835	47.19286	49.63387	-21.15542	-26.03744	48.8202	53.70222	95.19939	148.90161	94.38572	6.50936	-15.45973	0
524	-4.06835	49.63387	52.07488	-23.59643	-28.47845	51.26121	58.58424	100.08141	153.78363	99.26774	6.50936	-15.45973	0
525	-4.06835	56.9569	59.39791	-26.03744	-30.91946	58.58424	61.02525	104.96343	158.66565	104.14976	13.83239	-13.01872	0
526	-4.06835	59.39791	61.83892	-28.47845	-33.36047	61.02525	63.46626	107.40444	165.98868	106.59077	13.83239	-13.01872	0
527	-4.06835	54.51589	56.9569	-26.03744	-30.91946	56.14323	63.46626	107.40444	168.42969	111.47279	16.2734	-15.45973	0
528	-6.50936	52.07488	56.9569	-23.59643	-30.91946	53.70222	65.90727	112.28646	170.8707	113.9138	18.71441	-15.45973	0
529	-8.95037	47.19286	54.51589	-18.71441	-30.91946	51.26121	65.90727	117.16848	173.31171	116.35481	18.71441	-15.45973	0
530	-8.95037	47.19286	54.51589	-18.71441	-30.91946	51.26121	65.90727	122.0505	175.75272	116.35481	21.15542	-15.45973	0
531	-8.95037	44.75185	52.07488	-18.71441	-30.91946	48.8202	65.90727	127.74619	180.63474	121.23683	23.59643	-13.01872	0
532	-0.81367	52.07488	52.07488	-26.03744	-26.03744	53.70222	65.90727	132.62821	187.95777	126.11885	26.03744	-8.1367	0
533	8.95037	56.9569	47.19286	-33.36047	-18.71441	53.70222	65.90727	137.51023	192.83979	128.55986	28.47845	-5.69569	0
534	11.39138	56.9569	44.75185	-33.36047	-16.2734	51.26121	58.58424	137.51023	192.83979	131.00087	28.47845	-3.25468	0
535	13.83239	59.39791	44.75185	-35.80148	-16.2734	53.70222	51.26121	137.51023	192.83979	131.00087	33.36047	-0.81367	0
536	16.2734	61.83892	44.75185	-38.24249	-13.83239	53.70222	40.6835	130.1872	192.83979	133.44188	35.80148	1.62734	0
537	18.71441	61.83892	42.31084	-40.6835	-11.39138	53.70222	28.47845	122.0505	190.39878	131.00087	38.24249	4.06835	0
538	23.59643	61.83892	37.42882	-43.12451	-6.50936	51.26121	13.83239	117.16848	185.51676	126.11885	38.24249	4.06835	0
539	26.03744	61.83892	34.98781	-43.12451	-4.06835	48.8202	-0.81367	109.84545	180.63474	121.23683	35.80148	4.06835	0
540	28.47845	61.83892	32.5468	-45.56552	-1.62734	48.8202	-15.45973	102.52242	173.31171	113.9138	35.80148	4.06835	0
541	28.47845	61.83892	32.5468	-45.56552	-1.62734	48.8202	-27.66478	92.75838	168.42969	106.59077	30.91946	4.06835	0
542	28.47845	61.83892	32.5468	-45.56552	-1.62734	48.8202	-37.42882	85.43535	165.98868	104.14976	30.91946	4.06835	0
543	35.80148	64.27993	27.66478	-50.44754	4.06835	46.37919	-44.75185	82.99434	163.54767	101.70875	30.91946	6.50936	0
544	43.12451	69.16195	25.22377	-55.32956	8.95037	48.8202	-49.63387	80.55333	163.54767	101.70875	30.91946	8.95037	0
545	48.00653	71.60296	22.78276	-60.21158	13.83239	48.8202	-49.63387	78.11232	161.10666	99.26774	33.36047	8.95037	0
546	52.88855	76.48498	22.78276	-65.0936	16.2734	51.26121	-52.07488	78.11232	161.10666	99.26774	38.24249	13.83239	0
547	57.77057	78.92599	20.34175	-67.53461	18.71441	51.26121	-49.63387	75.67131	161.10666	99.26774	38.24249	16.2734	0
548	52.88855	76.48498	22.78276	-65.0936	16.2734	51.26121	-49.63387	73.2303	156.22464	96.82673	35.80148	16.2734	0
549	45.56552	71.60296	25.22377	-57.77057	11.39138	48.8202	-49.63387	70.78929	151.34262	94.38572	35.80148	16.2734	0
550	40.6835	66.72094	25.22377	-52.88855	8.95037	46.37919	-49.63387	70.78929	148.90161	89.5037	35.80148	16.2734	0
551	35.80148	61.83892	25.22377	-48.00653	6.50936	43.93818	-49.63387	70.78929	146.4606	87.06269	30.91946	16.2734	0
552	30.91946	59.39791	27.66478	-45.56552	1.62734	43.93818	-47.19286	68.34828	146.4606	84.62168	28.47845	13.83239	0
553	30.91946	59.39791	27.66478	-45.56552	1.62734	43.93818	-44.75185	68.34828	146.4606	84.62168	23.59643	13.83239	0
554	26.03744	52.07488	25.22377	-38.24249	1.62734	39.05616	-44.75185	68.34828	144.01959	84.62168	21.15542	13.83239	0
555	21.15542	42.31084	20.34175	-30.91946	1.62734	31.73313	-44.75185	65.90727	141.57858	79.73966	18.71441	8.95037	0
556	21.15542	39.86983	17.90074	-30.91946	1.62734	29.29212	-44.75185	63.46626	136.69656	77.29865	18.71441	6.50936	0
557	28.47845	42.31084	13.01872	-35.80148	8.95037	29.29212	-42.31084	61.02525	134.25555	74.85764	16.2734	4.06835	0
558	33.36047	47.19286	13.01872	-40.6835	11.39138	31.73313	-42.31084	58.58424	129.37353	72.41663	11.39138	1.62734	0
559	35.80148	47.19286	10.57771	-40.6835	13.83239	29.29212	-37.42882	58.58424	126.93252	72.41663	8.95037	-0.81367	0
560	33.36047	49.63387	15.45973	-40.6835	8.95037	34.17414	-37.42882	61.02525	124.49151	67.53461	6.50936	-3.25468	0
561	23.59643	39.86983	15.45973	-30.91946	4.06835	29.29212	-32.5468	61.02525	119.60949	65.0936	1.62734	-5.69569	0
562	13.83239	32.5468	17.90074	-23.59643	-1.62734	26.85111	-30.10579	58.58424	117.16848	60.21158	-3.25468	-13.01872	0
563	8.95037	30.10579	20.34175	-18.71441	-6.50936	26.85111	-27.66478	58.58424	114.72747	57.77057	-8.95037	-15.45973	0
564	4.06835	30.10579	25.22377	-16.2734	-11.39138	29.29212	-22.78276	58.58424	114.72747	57.77057	-11.39138	-20.34175	0
565	-4.06835	25.22377	27.66478	-11.39138	-16.2734	26.85111	-20.34175	58.58424	114.72747	57.77057	-11.39138	-22.78276	0
566	-13.83239	17.90074	30.10579	-1.62734	-21.15542	24.4101	-15.45973	61.02525	114.72747	57.77057	-11.39138	-28.47845	0
567	-21.15542	10.57771	30.10579	3.25468	-26.03744	19.52808	-10.57771	58.58424	112.28646	55.32956	-11.39138	-28.47845	0
568	-26.03744	8.1367	32.5468	8.95037	-28.47845	19.52808	-8.1367	63.46626	112.28646	55.32956	-11.39138	-28.47845	0
569	-28.47845	8.1367	34.98781	8.95037	-30.91946	21.96909	-5.69569	65.90727	112.28646	55.32956	-11.39138	-28.47845	0
570	-33.36047	8.1367	39.86983	11.39138	-35.80148	24.4101	-0.81367	68.34828	112.28646	55.32956	-11.39138	-33.36047	0
571	-35.80148	8.1367	42.31084	13.83239	-38.24249	24.4101	1.62734	70.78929	112.28646	55.32956	-13.83239	-33.36047	0
572	-38.24249	5.69569	42.31084	16.2734	-40.6835	24.4101	4.06835	73.2303	114.72747	55.32956	-18.71441	-35.80148	0
573	-40.6835	0.81367	39.86983	18.71441	-40.6835	19.52808	4.06835	73.2303	114.72747	52.88855	-21.15542	-38.24249	0
574	-43.12451	-4.88202	37.42882	23.59643	-40.6835	17.08707	6.50936	78.11232	114.72747	52.88855	-23.59643	-40.6835	0
575	-45.56552	-4.88202	39.86983	23.59643	-43.12451	17.08707	6.50936	80.55333	114.72747	50.44754	-23.59643	-43.12451	0
576	-48.00653	-7.32303	39.86983	26.03744	-45.56552	17.08707	8.95037	80.55333	114.72747	47.19286	-26.03744	-45.56552	0
577	-50.44754	-12.20505	37.42882	30.91946	-45.56552	12.20505	6.50936	78.11232	109.84545	47.19286	-28.47845	-48.00653	0
578	-45.56552	-12.20505	32.5468	28.47845	-40.6835	9.76404	6.50936	75.67131	104.14976	42.31084	-30.91946	-48.00653	0
579	-45.56552	-14.64606	30.10579	28.47845	-38.24249	7.32303	6.50936	75.67131	104.14976	42.31084	-30.91946	-48.00653	0
580	-45.56552	-14.64606	30.10579	28.47845	-38.24249	7.32303	6.50936	80.55333	104.14976	39.86983	-30.91946	-48.00653	0
581	-43.12451	-9.76404	32.5468	26.03744	-38.24249	12.20505	6.50936	82.99434	104.14976	42.31084	-28.47845	-45.56552	0
582	-40.6835	-7.32303	32.5468	23.59643	-38.24249	12.20505	6.50936	82.99434	104.14976	44.75185	-26.03744	-45.56552	0
583	-40.6835	-7.32303	32.5468	23.59643	-38.24249	12.20505	6.50936	85.43535	107.40444	47.19286	-26.03744	-45.56552	0
584	-40.6835	-7.32303	32.5468	23.59643	-38.24249	12.20505	6.50936	82.99434	104.14976	47.19286	-26.03744	-48.00653	0
585	-35.80148	-4.88202	30.10579	18.71441	-33.36047	12.20505	6.50936	82.99434	104.14976	47.19286	-26.03744	-48.00653	0
586	-30.91946	-1.62734	27.66478	16.2734	-28.47845	12.20505	6.50936	85.43535	107.40444	50.44754	-23.59643	-48.00653	0
587	-28.47845	-1.62734	25.22377	13.83239	-26.03744	12.20505	6.50936	85.43535	107.40444	50.44754	-21.15542	-45.56552	0
588	-28.47845	-1.62734	25.22377	13.83239	-26.03744	12.20505	6.50936	85.43535	107.40444	52.88855	-21.15542	-45.56552	0
589	-26.03744	-1.62734	22.78276	13.83239	-23.59643	9.76404	6.50936	87.87636	107.40444	52.88855	-21.15542	-48.00653	0
590	-26.03744	-1.62734	22.78276	13.83239	-23.59643	9.76404	6.50936	87.87636	104.14976	50.44754	-21.15542	-48.00653	0
591	-26.03744	-1.62734	22.78276	13.83239	-23.59643	9.76404	6.50936	87.87636	104.14976	50.44754	-21.15542	-48.00653	0
592	-26.03744	-4.88202	20.34175	13.83239	-23.59643	7.32303	6.50936	87.87636	107.40444	50.44754	-23.59643	-48.00653	0
593	-28.47845	-7.32303	20.34175	16.2734	-26.03744	7.32303	6.50936	87.87636	107.40444	50.44754	-23.59643	-48.00653	0
594	-30.91946	-7.32303	22.78276	18.71441	-28.47845	7.32303	6.50936	87.87636	107.40444	50.44754	-26.03744	-50.44754	0
595	-28.47845	-4.88202	22.78276	16.2734	-26.03744	9.76404	11.39138	90.31737	107.40444	52.88855	-23.59643	-50.44754	0
596	-26.03744	-4.88202	20.34175	13.83239	-23.59643	7.32303	11.39138	90.31737	107.40444	52.88855	-23.59643	-50.44754	0
597	-23.59643	-4.88202	17.90074	13.83239	-21.15542	7.32303	11.39138	90.31737	107.40444	52.88855	-23.59643	-50.44754	0
598	-23.59643	-4.88202	17.90074	13.83239	-21.15542	7.32303	11.39138	90.31737	104.14976	50.44754	-23.59643	-50.44754	0
599	-21.15542	-1.62734	17.90074	11.39138	-18.71441	7.32303	13.83239	90.31737	104.14976	50.44754	-23.59643	-50.44754	0
600	-16.2734	0.81367	15.45973	6.50936	-16.2734	7.32303	13.83239	97.6404	104.14976	50.44754	-23.59643	-50.44754	0
601	-13.83239	0.81367	13.01872	6.50936	-13.83239	7.32303	18.71441	104.96343	112.28646	50.44754	-23.59643	-52.88855	0
602	-8.95037	-1.62734	5.69569	3.25468	-6.50936	2.44101	23.59643	102.52242	101.70875	52.88855	-23.59643	-55.32956	0
603	-8.95037	-14.64606	-7.32303	11.39138	-1.62734	-10.57771	21.15542	117.16848	129.37353	52.88855	-28.47845	-60.21158	0
604	-21.15542	-19.52808	0.81367	18.71441	-11.39138	-10.57771	16.2734	127.74619	131.81454	52.88855	-33.36047	-62.65259	0
605	-13.83239	-24.4101	-12.20505	18.71441	-1.62734	-17.90074	35.80148	142.39225	151.34262	52.88855	-40.6835	-74.85764	0
606	-4.06835	-63.46626	-61.02525	33.36047	28.47845	-61.83892	43.12451	144.83326	153.78363	60.21158	-26.03744	-82.18067	0
607	-8.95037	-119.60949	-112.28646	62.65259	50.44754	-115.54114	13.83239	90.31737	99.26774	37.42882	-48.00653	-84.62168	0
608	-11.39138	-151.34262	-141.57858	79.73966	65.0936	-147.27427	-44.75185	7.32303	72.41663	39.86983	-26.03744	-91.94471	0
609	-0.81367	-158.66565	-158.66565	79.73966	77.29865	-157.03831	-103.33609	-56.14323	57.77057	60.21158	1.62734	-72.41663	0
610	72.41663	-131.81454	-205.04484	28.47845	138.3239	-166.80235	-100.89508	-48.8202	89.5037	113.9138	45.56552	-35.80148	0
611	77.29865	-183.07575	-261.18807	52.88855	167.61602	-220.50457	-147.27427	-175.75272	-22.78276	96.82673	62.65259	-15.45973	0
612	126.11885	-146.4606	-273.39312	8.95037	199.34915	-208.29952	-232.70962	-346.62342	-183.88942	79.73966	101.70875	18.71441	0
613	211.5542	-161.10666	-373.47453	-26.03744	292.10753	-266.88376	-303.49891	-493.08402	-262.00174	157.85198	228.64127	111.47279	0
614	304.31258	-173.31171	-478.43796	-65.0936	389.74793	-325.468	-423.1084	-634.6626	-376.72921	226.20026	370.21985	213.99521	0
615	438.56813	-87.87636	-527.25816	-174.93905	482.50631	-305.93992	-532.95385	-773.80017	-493.89769	277.46147	541.09055	362.89682	0
616	514.23944	-12.20505	-527.25816	-250.61036	519.12146	-269.32477	-611.06617	-917.81976	-608.62516	309.1946	743.69438	533.76752	0
617	528.8855	49.63387	-480.87897	-289.66652	504.4754	-215.62255	-742.88071	-1137.51066	-750.20374	389.74793	973.14932	736.37135	0
618	599.67479	139.95124	-461.35089	-370.21985	531.32651	-159.47932	-864.93121	-1310.82237	-845.40313	502.03439	1253.86547	968.2673	0
619	665.58206	293.73487	-373.47453	-480.0653	519.12146	-39.86983	-945.48454	-1486.57509	-967.45363	572.82368	1502.84849	1212.3683	0
620	675.3461	476.81062	-200.16282	-575.26469	438.56813	139.13757	-1018.71484	-1698.94296	-1145.64736	609.43883	1685.11057	1439.38223	0
621	558.17762	652.56334	93.57205	-604.55681	233.52329	373.47453	-1148.08837	-2101.70961	-1438.56856	572.82368	1787.63299	1600.48889	0
622	433.68611	818.55202	384.05224	-626.5259	26.03744	602.92947	-1192.02655	-2406.83586	-1675.34653	514.23944	1836.45319	1714.40269	0
623	377.54288	896.66434	518.30779	-636.28994	-69.97562	707.8929	-1309.19503	-2682.66999	-1834.01218	543.53156	1948.73965	1829.13016	0
624	304.31258	884.45929	579.33304	-594.79277	-138.3239	732.303	-1372.66129	-2875.50978	-2043.93904	367.77884	1809.60208	1777.86895	0
625	206.67218	742.88071	535.39486	-475.18328	-165.17501	639.54462	-1260.37483	-2846.21766	-2180.6356	30.10579	1380.79799	1507.73051	0
626	84.62168	645.24031	559.80496	-365.33783	-238.40531	602.92947	-1126.11928	-2736.37221	-2307.56812	-438.56813	772.9865	1119.60992	0
627	-30.91946	598.86112	628.15324	-284.7845	-328.72268	612.69351	-982.09969	-2624.08575	-2478.43882	-973.14932	143.20592	760.78145	0
628	-140.76491	491.45668	630.59425	-174.93905	-384.86591	561.4323	-913.75141	-2582.58858	-2617.57639	-1361.26991	-289.66652	465.41924	0
629	-243.28733	391.37527	633.03526	-74.85764	-438.56813	512.6121	-850.28515	-2484.94818	-2666.39659	-1629.78101	-575.26469	267.69743	0
630	-260.3744	301.0579	559.80496	-21.15542	-409.27601	429.61776	-799.02394	-2323.84152	-2598.04831	-1751.83151	-775.42751	113.9138	0
631	-255.49238	161.92033	415.78537	45.56552	-336.04571	288.03918	-786.81889	-2150.52981	-2461.35175	-1778.68262	-887.71397	-38.24249	0
632	-196.90814	78.92599	274.20679	57.77057	-235.9643	175.75272	-803.90596	-1960.13103	-2292.92206	-1732.30343	-953.62124	-165.17501	0
633	-209.11319	-36.61515	171.68437	121.23683	-192.02612	68.34828	-872.25424	-1864.93164	-2148.90247	-1673.71919	-985.35437	-272.57945	0
634	-235.9643	-139.13757	96.01306	187.1441	-167.61602	-22.78276	-891.78232	-1806.3474	-2063.46712	-1639.54505	-1029.29255	-350.69177	0
635	-248.16935	-183.07575	64.27993	213.99521	-157.85198	-59.39791	-842.96212	-1706.26599	-1936.5346	-1573.63778	-1046.37962	-414.15803	0
636	-255.49238	-222.13191	32.5468	238.40531	-145.64693	-96.01306	-767.29081	-1593.97953	-1829.13016	-1522.37657	-1058.58467	-477.62429	0
637	-262.81541	-258.74706	3.25468	260.3744	-133.44188	-127.74619	-640.35829	-1437.75489	-1687.55158	-1444.26425	-1041.4976	-504.4754	0
638	-262.81541	-312.44928	-51.26121	287.22551	-106.59077	-181.44841	-481.69264	-1225.38702	-1494.71179	-1324.65476	-992.6774	-521.56247	0
639	-296.98955	-349.06443	-53.70222	321.39965	-123.67784	-200.97649	-388.93426	-1059.39834	-1343.36917	-1241.66042	-968.2673	-550.85459	0
640	-260.3744	-366.1515	-107.40444	311.63561	-77.29865	-237.59164	-335.23204	-895.85067	-1179.8215	-1131.81497	-929.21114	-550.85459	0
641	-201.79016	-368.59251	-168.42969	284.7845	-18.71441	-269.32477	-274.20679	-712.77492	-989.42272	-992.6774	-846.2168	-528.8855	0
642	-196.90814	-307.56726	-112.28646	250.61036	-43.12451	-210.74053	-218.06356	-532.14018	-811.22899	-855.98084	-763.22246	-492.27035	-1250	T-0
643	-165.17501	-292.9212	-129.37353	228.64127	-18.71441	-210.74053	-159.47932	-358.82847	-608.62516	-687.55115	-653.37701	-438.56813	0
644	-140.76491	-278.27514	-139.13757	209.11319	-1.62734	-208.29952	-71.60296	-185.51676	-413.34436	-538.64954	-545.97257	-392.18894	0
645	-123.67784	-256.30605	-134.25555	189.58511	4.06835	-196.09447	21.15542	-61.02525	-235.15063	-382.4249	-438.56813	-353.13278	0
646	-104.14976	-229.45494	-126.93252	165.17501	11.39138	-179.0074	75.67131	26.85111	-113.10013	-270.13844	-362.89682	-314.07662	0
647	-87.06269	-212.36787	-126.93252	148.08794	18.71441	-169.24336	97.6404	73.2303	-37.42882	-192.02612	-304.31258	-277.46147	0
648	-74.85764	-197.72181	-124.49151	135.88289	23.59643	-161.92033	102.52242	117.16848	26.03744	-135.88289	-257.93339	-245.72834	0
649	-72.41663	-183.07575	-112.28646	126.11885	18.71441	-147.27427	129.37353	176.56639	112.28646	-60.21158	-192.02612	-211.5542	0
650	-65.0936	-163.54767	-100.08141	113.9138	16.2734	-132.62821	141.57858	227.8276	165.98868	-11.39138	-165.17501	-187.1441	0
651	-57.77057	-144.01959	-87.87636	99.26774	13.83239	-115.54114	151.34262	262.00174	209.92686	25.22377	-138.3239	-162.734	0
652	-55.32956	-126.93252	-73.2303	89.5037	8.95037	-100.89508	156.22464	293.73487	239.21898	50.44754	-123.67784	-148.08794	0
653	-52.88855	-117.16848	-65.90727	84.62168	6.50936	-91.13104	146.4606	301.0579	273.39312	74.85764	-106.59077	-155.41097	0
654	-55.32956	-109.84545	-56.14323	82.18067	-1.62734	-83.80801	161.10666	318.14497	292.9212	101.70875	-94.38572	-148.08794	0
655	-55.32956	-104.96343	-51.26121	79.73966	-4.06835	-78.92599	163.54767	323.02699	310.00827	118.79582	-87.06269	-143.20592	0
656	-55.32956	-95.19939	-41.49717	74.85764	-8.95037	-69.16195	168.42969	313.26295	307.56726	118.79582	-87.06269	-138.3239	0
657	-48.00653	-87.87636	-41.49717	67.53461	-4.06835	-64.27993	170.8707	323.02699	302.68524	111.47279	-77.29865	-133.44188	0
658	-45.56552	-85.43535	-41.49717	65.0936	-4.06835	-64.27993	175.75272	330.35002	312.44928	126.11885	-72.41663	-128.55986	0
659	-45.56552	-85.43535	-41.49717	65.0936	-4.06835	-64.27993	175.75272	337.67305	331.97736	133.44188	-65.0936	-126.11885	0
660	-48.00653	-80.55333	-34.17414	62.65259	-8.95037	-56.9569	175.75272	342.55507	339.30039	140.76491	-60.21158	-123.67784	0
661	-43.12451	-75.67131	-34.17414	57.77057	-6.50936	-54.51589	175.75272	349.8781	346.62342	145.64693	-55.32956	-118.79582	0
662	-35.80148	-70.78929	-36.61515	52.88855	-1.62734	-54.51589	180.63474	357.20113	358.82847	157.85198	-48.00653	-116.35481	0
663	-26.03744	-68.34828	-43.93818	45.56552	8.95037	-56.9569	183.07575	364.52416	366.1515	165.17501	-43.12451	-113.9138	0
664	-23.59643	-68.34828	-46.37919	45.56552	11.39138	-56.9569	185.51676	371.84719	373.47453	170.05703	-40.6835	-111.47279	0
665	-23.59643	-65.90727	-43.93818	43.12451	8.95037	-54.51589	185.51676	376.72921	380.79756	174.93905	-35.80148	-111.47279	0
666	-23.59643	-65.90727	-43.93818	43.12451	8.95037	-54.51589	187.95777	379.17022	383.23857	179.82107	-33.36047	-111.47279	0
667	-23.59643	-70.78929	-48.8202	45.56552	11.39138	-59.39791	190.39878	379.17022	385.67958	182.26208	-30.91946	-111.47279	0
668	-23.59643	-70.78929	-48.8202	45.56552	11.39138	-59.39791	192.83979	384.05224	388.12059	182.26208	-30.91946	-109.03178	0
669	-23.59643	-73.2303	-51.26121	48.00653	13.83239	-61.83892	195.2808	388.93426	395.44362	187.1441	-28.47845	-109.03178	0
670	-23.59643	-68.34828	-46.37919	45.56552	11.39138	-56.9569	197.72181	393.81628	400.32564	189.58511	-28.47845	-109.03178	0
671	-23.59643	-63.46626	-41.49717	43.12451	8.95037	-52.07488	200.16282	393.81628	402.76665	192.02612	-26.03744	-109.03178	0
672	-28.47845	-63.46626	-36.61515	45.56552	4.06835	-49.63387	202.60383	393.81628	407.64867	196.90814	-26.03744	-109.03178	0
673	-30.91946	-65.90727	-36.61515	48.00653	1.62734	-52.07488	202.60383	393.81628	410.08968	201.79016	-26.03744	-109.03178	0
674	-33.36047	-65.90727	-34.17414	48.00653	-1.62734	-49.63387	205.04484	393.81628	414.9717	206.67218	-26.03744	-109.03178	0
675	-30.91946	-63.46626	-34.17414	45.56552	1.62734	-49.63387	207.48585	393.81628	414.9717	209.11319	-26.03744	-109.03178	0
676	-30.91946	-61.02525	-31.73313	45.56552	-1.62734	-47.19286	207.48585	391.37527	417.41271	209.11319	-23.59643	-109.03178	0
677	-28.47845	-61.02525	-34.17414	43.12451	1.62734	-47.19286	207.48585	391.37527	419.85372	209.11319	-21.15542	-109.03178	0
678	-28.47845	-61.02525	-34.17414	43.12451	1.62734	-47.19286	209.92686	391.37527	419.85372	206.67218	-23.59643	-109.03178	0
679	-28.47845	-65.90727	-39.05616	45.56552	4.06835	-52.07488	209.92686	391.37527	419.85372	206.67218	-23.59643	-109.03178	0
680	-30.91946	-68.34828	-39.05616	48.00653	4.06835	-54.51589	207.48585	391.37527	419.85372	201.79016	-23.59643	-109.03178	0
681	-33.36047	-68.34828	-36.61515	50.44754	1.62734	-52.07488	207.48585	391.37527	422.29473	204.23117	-21.15542	-106.59077	0
682	-35.80148	-70.78929	-36.61515	52.88855	-1.62734	-54.51589	205.04484	391.37527	422.29473	206.67218	-21.15542	-104.14976	0
683	-38.24249	-70.78929	-34.17414	52.88855	-4.06835	-52.07488	205.04484	391.37527	427.17675	209.11319	-21.15542	-101.70875	0
684	-35.80148	-68.34828	-34.17414	50.44754	-1.62734	-52.07488	205.04484	393.81628	429.61776	213.99521	-16.2734	-99.26774	0
685	-35.80148	-65.90727	-31.73313	50.44754	-4.06835	-49.63387	205.04484	396.25729	432.05877	218.87723	-11.39138	-96.82673	0
686	-43.12451	-73.2303	-31.73313	57.77057	-6.50936	-52.07488	202.60383	393.81628	432.05877	218.87723	-8.95037	-96.82673	0
687	-48.00653	-78.11232	-31.73313	62.65259	-8.95037	-54.51589	202.60383	391.37527	429.61776	221.31824	-8.95037	-94.38572	0
688	-52.88855	-78.11232	-26.85111	65.0936	-13.83239	-52.07488	202.60383	391.37527	429.61776	221.31824	-8.95037	-91.94471	0
689	-52.88855	-78.11232	-26.85111	65.0936	-13.83239	-52.07488	202.60383	396.25729	432.05877	223.75925	-8.95037	-89.5037	0
690	-52.88855	-78.11232	-26.85111	65.0936	-13.83239	-52.07488	202.60383	398.6983	432.05877	223.75925	-8.95037	-89.5037	0
691	-50.44754	-73.2303	-24.4101	60.21158	-13.83239	-49.63387	205.04484	398.6983	434.49978	223.75925	-8.95037	-87.06269	0
692	-50.44754	-70.78929	-21.96909	60.21158	-16.2734	-47.19286	205.04484	398.6983	434.49978	223.75925	-8.95037	-87.06269	0
693	-50.44754	-73.2303	-24.4101	60.21158	-13.83239	-49.63387	205.04484	398.6983	434.49978	223.75925	-11.39138	-87.06269	0
694	-48.00653	-70.78929	-24.4101	57.77057	-13.83239	-47.19286	207.48585	398.6983	436.94079	223.75925	-11.39138	-87.06269	0
695	-43.12451	-65.90727	-24.4101	52.88855	-11.39138	-44.75185	209.92686	401.13931	441.82281	228.64127	-8.95037	-84.62168	0
696	-40.6835	-65.90727	-26.85111	52.88855	-8.95037	-47.19286	209.92686	403.58032	444.26382	231.08228	-3.25468	-82.18067	0
697	-35.80148	-61.02525	-26.85111	48.00653	-6.50936	-44.75185	209.92686	403.58032	446.70483	231.08228	-0.81367	-82.18067	0
698	-28.47845	-56.14323	-29.29212	40.6835	-1.62734	-42.31084	207.48585	406.02133	446.70483	228.64127	-0.81367	-82.18067	0
699	-26.03744	-53.70222	-29.29212	38.24249	1.62734	-42.31084	207.48585	408.46234	446.70483	226.20026	-0.81367	-82.18067	0
700	-28.47845	-61.02525	-34.17414	43.12451	1.62734	-47.19286	205.04484	413.34436	449.14584	223.75925	-0.81367	-82.18067	0
701	-26.03744	-58.58424	-34.17414	40.6835	4.06835	-47.19286	202.60383	415.78537	449.14584	223.75925	1.62734	-79.73966	0
702	-26.03744	-56.14323	-31.73313	40.6835	1.62734	-44.75185	200.16282	418.22638	454.02786	226.20026	1.62734	-79.73966	0
703	-26.03744	-56.14323	-31.73313	40.6835	1.62734	-44.75185	200.16282	418.22638	454.02786	226.20026	4.06835	-77.29865	0
704	-23.59643	-51.26121	-29.29212	35.80148	1.62734	-39.86983	200.16282	418.22638	454.02786	228.64127	6.50936	-77.29865	0
705	-18.71441	-48.8202	-31.73313	33.36047	6.50936	-39.86983	200.16282	420.66739	456.46887	228.64127	11.39138	-72.41663	0
706	-16.2734	-48.8202	-34.17414	30.91946	8.95037	-42.31084	202.60383	423.1084	458.90988	228.64127	13.83239	-72.41663	0
707	-21.15542	-51.26121	-31.73313	35.80148	4.06835	-42.31084	202.60383	423.1084	461.35089	231.08228	18.71441	-69.97562	0
708	-21.15542	-51.26121	-31.73313	35.80148	4.06835	-42.31084	202.60383	427.99042	463.7919	233.52329	21.15542	-65.0936	0
709	-21.15542	-48.8202	-29.29212	33.36047	4.06835	-39.86983	205.04484	430.43143	463.7919	238.40531	26.03744	-62.65259	0
710	-16.2734	-41.49717	-26.85111	28.47845	4.06835	-34.98781	207.48585	435.31345	468.67392	240.84632	33.36047	-57.77057	0
711	-8.95037	-31.73313	-24.4101	18.71441	6.50936	-27.66478	207.48585	440.19547	473.55594	245.72834	38.24249	-55.32956	0
712	-8.95037	-31.73313	-24.4101	18.71441	6.50936	-27.66478	207.48585	442.63648	475.99695	248.16935	38.24249	-55.32956	0
713	-6.50936	-31.73313	-26.85111	18.71441	8.95037	-30.10579	207.48585	447.5185	478.43796	248.16935	35.80148	-55.32956	0
714	-8.95037	-31.73313	-24.4101	18.71441	6.50936	-27.66478	207.48585	447.5185	475.99695	245.72834	35.80148	-57.77057	0
715	-8.95037	-34.17414	-26.85111	21.15542	8.95037	-30.10579	207.48585	447.5185	473.55594	245.72834	35.80148	-57.77057	0
716	-8.95037	-31.73313	-24.4101	18.71441	6.50936	-27.66478	207.48585	445.07749	471.11493	243.28733	35.80148	-57.77057	0
717	-8.95037	-34.17414	-26.85111	21.15542	8.95037	-30.10579	207.48585	445.07749	468.67392	238.40531	35.80148	-57.77057	0
718	-11.39138	-36.61515	-26.85111	23.59643	6.50936	-32.5468	205.04484	442.63648	466.23291	233.52329	35.80148	-57.77057	0
719	-16.2734	-41.49717	-26.85111	28.47845	4.06835	-34.98781	202.60383	442.63648	463.7919	228.64127	33.36047	-57.77057	0
720	-16.2734	-43.93818	-29.29212	28.47845	6.50936	-37.42882	200.16282	442.63648	463.7919	226.20026	35.80148	-55.32956	0
721	-16.2734	-43.93818	-29.29212	28.47845	6.50936	-37.42882	197.72181	440.19547	463.7919	223.75925	35.80148	-52.88855	0
722	-13.83239	-43.93818	-31.73313	28.47845	8.95037	-37.42882	195.2808	440.19547	466.23291	226.20026	40.6835	-48.00653	0
723	-11.39138	-41.49717	-31.73313	26.03744	8.95037	-37.42882	192.83979	440.19547	466.23291	226.20026	40.6835	-43.12451	0
724	-8.95037	-41.49717	-34.17414	23.59643	11.39138	-37.42882	192.83979	440.19547	466.23291	226.20026	45.56552	-40.6835	0
725	-6.50936	-36.61515	-31.73313	21.15542	11.39138	-34.98781	192.83979	437.75446	466.23291	228.64127	50.44754	-35.80148	0
726	-4.06835	-31.73313	-29.29212	16.2734	11.39138	-30.10579	192.83979	437.75446	463.7919	228.64127	55.32956	-30.91946	0
727	1.62734	-31.73313	-34.17414	13.83239	16.2734	-32.5468	192.83979	432.87244	461.35089	228.64127	60.21158	-28.47845	0
728	1.62734	-31.73313	-34.17414	13.83239	16.2734	-32.5468	190.39878	430.43143	454.02786	226.20026	60.21158	-25.22377	0
729	1.62734	-31.73313	-34.17414	13.83239	16.2734	-32.5468	187.95777	430.43143	449.14584	223.75925	62.65259	-22.78276	0
730	1.62734	-31.73313	-34.17414	13.83239	16.2734	-32.5468	187.95777	430.43143	446.70483	221.31824	65.0936	-20.34175	0
731	4.06835	-31.73313	-36.61515	13.83239	18.71441	-32.5468	187.95777	427.99042	441.82281	218.87723	67.53461	-15.45973	0
732	6.50936	-31.73313	-39.05616	11.39138	21.15542	-34.98781	185.51676	425.54941	436.94079	218.87723	67.53461	-13.01872	0
733	8.95037	-29.29212	-39.05616	8.95037	23.59643	-32.5468	180.63474	420.66739	432.05877	213.99521	67.53461	-8.1367	0
734	8.95037	-31.73313	-41.49717	11.39138	23.59643	-34.98781	178.19373	415.78537	424.73574	209.11319	67.53461	-8.1367	0
735	8.95037	-36.61515	-46.37919	13.83239	26.03744	-39.86983	170.8707	410.90335	414.9717	201.79016	69.97562	-3.25468	0
736	6.50936	-36.61515	-43.93818	13.83239	23.59643	-39.86983	165.98868	403.58032	405.20766	194.46713	72.41663	-0.81367	0
737	8.95037	-41.49717	-51.26121	16.2734	28.47845	-44.75185	161.10666	396.25729	395.44362	187.1441	74.85764	1.62734	0
738	11.39138	-41.49717	-53.70222	13.83239	30.91946	-47.19286	156.22464	391.37527	383.23857	177.38006	74.85764	6.50936	0
739	16.2734	-36.61515	-53.70222	8.95037	33.36047	-44.75185	153.78363	386.49325	373.47453	170.05703	74.85764	8.95037	0
740	18.71441	-29.29212	-48.8202	3.25468	33.36047	-37.42882	148.90161	381.61123	363.71049	160.29299	77.29865	16.2734	0
741	18.71441	-29.29212	-48.8202	3.25468	33.36047	-37.42882	144.01959	374.2882	349.06443	150.52895	74.85764	18.71441	0
742	18.71441	-29.29212	-48.8202	3.25468	33.36047	-37.42882	141.57858	366.96517	339.30039	143.20592	74.85764	21.15542	0
743	23.59643	-24.4101	-48.8202	0.81367	35.80148	-34.98781	139.13757	359.64214	327.09534	133.44188	72.41663	26.03744	0
744	30.91946	-19.52808	-51.26121	-6.50936	40.6835	-34.98781	134.25555	349.8781	312.44928	123.67784	67.53461	26.03744	0
745	35.80148	-14.64606	-51.26121	-11.39138	43.12451	-32.5468	131.81454	340.11406	297.80322	111.47279	67.53461	30.91946	0
746	40.6835	-12.20505	-53.70222	-13.83239	45.56552	-32.5468	126.93252	327.90901	278.27514	96.82673	65.0936	30.91946	0
747	38.24249	-17.08707	-56.14323	-11.39138	45.56552	-34.98781	119.60949	313.26295	258.74706	84.62168	60.21158	33.36047	0
748	35.80148	-21.96909	-58.58424	-6.50936	45.56552	-39.86983	109.84545	296.17588	234.33696	67.53461	55.32956	33.36047	0
749	38.24249	-24.4101	-63.46626	-6.50936	50.44754	-42.31084	102.52242	283.97083	212.36787	50.44754	50.44754	35.80148	0
750	45.56552	-17.08707	-63.46626	-13.83239	52.88855	-39.86983	92.75838	269.32477	190.39878	34.98781	48.00653	35.80148	0
751	45.56552	-12.20505	-58.58424	-16.2734	50.44754	-34.98781	82.99434	252.2377	173.31171	17.90074	40.6835	38.24249	0
752	43.12451	-9.76404	-53.70222	-16.2734	48.00653	-30.10579	73.2303	232.70962	141.57858	0.81367	33.36047	38.24249	0
753	48.00653	-7.32303	-56.14323	-21.15542	50.44754	-30.10579	65.90727	215.62255	119.60949	-13.83239	28.47845	40.6835	0
754	50.44754	-4.88202	-56.14323	-23.59643	52.88855	-30.10579	56.14323	196.09447	96.82673	-33.36047	21.15542	40.6835	0
755	52.88855	-4.88202	-58.58424	-23.59643	55.32956	-30.10579	48.8202	176.56639	72.41663	-52.88855	16.2734	40.6835	0
756	55.32956	-4.88202	-61.02525	-26.03744	57.77057	-32.5468	40.6835	154.5973	55.32956	-74.85764	8.95037	40.6835	0
757	57.77057	-1.62734	-61.02525	-28.47845	60.21158	-30.10579	33.36047	130.1872	23.59643	-96.82673	-0.81367	40.6835	0
758	60.21158	0.81367	-61.02525	-30.91946	60.21158	-30.10579	28.47845	112.28646	-10.57771	-118.79582	-8.95037	40.6835	0
759	62.65259	0.81367	-63.46626	-30.91946	62.65259	-30.10579	18.71441	90.31737	-39.86983	-140.76491	-16.2734	40.6835	0
760	62.65259	-4.88202	-68.34828	-28.47845	65.0936	-34.98781	13.83239	73.2303	-64.27993	-160.29299	-23.59643	43.12451	0
761	57.77057	-4.88202	-63.46626	-26.03744	60.21158	-32.5468	4.06835	51.26121	-103.33609	-182.26208	-35.80148	43.12451	0
762	50.44754	-9.76404	-61.02525	-21.15542	55.32956	-34.98781	-5.69569	29.29212	-120.42316	-201.79016	-45.56552	40.6835	0
763	50.44754	-9.76404	-61.02525	-21.15542	55.32956	-34.98781	-10.57771	9.76404	-147.27427	-218.87723	-52.88855	43.12451	0
764	52.88855	-7.32303	-61.02525	-23.59643	55.32956	-32.5468	-17.90074	-9.76404	-171.68437	-235.9643	-60.21158	43.12451	0
765	52.88855	-4.88202	-58.58424	-23.59643	55.32956	-30.10579	-22.78276	-26.85111	-196.09447	-253.05137	-67.53461	43.12451	0
766	48.00653	-7.32303	-56.14323	-21.15542	50.44754	-30.10579	-30.10579	-46.37919	-222.94558	-272.57945	-74.85764	40.6835	0
767	43.12451	-12.20505	-56.14323	-16.2734	48.00653	-32.5468	-37.42882	-65.90727	-252.2377	-292.10753	-84.62168	38.24249	0
768	38.24249	-14.64606	-53.70222	-11.39138	45.56552	-32.5468	-42.31084	-82.99434	-271.76578	-309.1946	-94.38572	35.80148	0
769	38.24249	-9.76404	-48.8202	-13.83239	43.12451	-27.66478	-44.75185	-97.6404	-296.17588	-326.28167	-101.70875	35.80148	0
770	38.24249	-7.32303	-46.37919	-16.2734	40.6835	-25.22377	-44.75185	-109.84545	-315.70396	-340.92773	-106.59077	33.36047	0
771	30.91946	-4.88202	-36.61515	-13.83239	33.36047	-20.34175	-49.63387	-124.49151	-335.23204	-355.57379	-116.35481	30.91946	0
772	21.15542	-9.76404	-31.73313	-6.50936	26.03744	-20.34175	-52.07488	-141.57858	-352.31911	-367.77884	-126.11885	26.03744	0
773	11.39138	-12.20505	-24.4101	0.81367	16.2734	-17.90074	-52.07488	-153.78363	-366.96517	-379.98389	-135.88289	23.59643	0
774	1.62734	-14.64606	-17.08707	6.50936	8.95037	-15.45973	-52.07488	-165.98868	-384.05224	-389.74793	-143.20592	18.71441	0
775	-4.06835	-14.64606	-12.20505	8.95037	4.06835	-13.01872	-52.07488	-175.75272	-396.25729	-399.51197	-148.08794	16.2734	0
776	-8.95037	-17.08707	-9.76404	11.39138	-1.62734	-13.01872	-54.51589	-190.39878	-408.46234	-406.835	-155.41097	11.39138	0
777	-16.2734	-21.96909	-7.32303	18.71441	-6.50936	-15.45973	-59.39791	-202.60383	-420.66739	-416.59904	-162.734	6.50936	0
778	-23.59643	-21.96909	0.81367	21.15542	-13.83239	-10.57771	-59.39791	-212.36787	-432.87244	-423.92207	-167.61602	4.06835	0
779	-30.91946	-21.96909	8.1367	26.03744	-21.15542	-8.1367	-61.83892	-217.24989	-440.19547	-428.80409	-172.49804	-0.81367	0
780	-33.36047	-19.52808	13.01872	26.03744	-23.59643	-3.25468	-61.83892	-224.57292	-447.5185	-433.68611	-177.38006	-3.25468	0
781	-38.24249	-19.52808	17.90074	28.47845	-28.47845	0	-66.72094	-234.33696	-454.84153	-438.56813	-184.70309	-8.1367	0
782	-43.12451	-19.52808	22.78276	30.91946	-33.36047	2.44101	-66.72094	-241.65999	-462.16456	-438.56813	-192.02612	-15.45973	0
783	-50.44754	-19.52808	30.10579	33.36047	-40.6835	4.88202	-66.72094	-248.98302	-467.04658	-443.45015	-199.34915	-22.78276	0
784	-50.44754	-17.08707	32.5468	33.36047	-43.12451	7.32303	-66.72094	-251.42403	-467.04658	-443.45015	-204.23117	-28.47845	0
785	-50.44754	-9.76404	39.86983	28.47845	-45.56552	14.64606	-59.39791	-251.42403	-464.60557	-438.56813	-204.23117	-28.47845	0
786	-50.44754	-7.32303	42.31084	28.47845	-48.00653	17.08707	-54.51589	-248.98302	-462.16456	-438.56813	-204.23117	-30.91946	0
787	-52.88855	-4.88202	47.19286	28.47845	-50.44754	21.96909	-49.63387	-251.42403	-459.72355	-433.68611	-206.67218	-33.36047	0
788	-52.88855	-4.88202	47.19286	28.47845	-50.44754	21.96909	-44.75185	-248.98302	-457.28254	-431.2451	-206.67218	-35.80148	0
789	-50.44754	-1.62734	47.19286	26.03744	-48.00653	21.96909	-39.86983	-244.101	-449.95951	-426.36308	-206.67218	-35.80148	0
790	-50.44754	5.69569	54.51589	21.15542	-52.88855	29.29212	-34.98781	-236.77797	-440.19547	-419.04005	-201.79016	-35.80148	0
791	-50.44754	8.1367	56.9569	21.15542	-52.88855	31.73313	-32.5468	-231.89595	-432.87244	-409.27601	-201.79016	-35.80148	0
792	-55.32956	8.1367	61.83892	23.59643	-57.77057	34.17414	-30.10579	-227.01393	-423.1084	-399.51197	-199.34915	-35.80148	0
793	-60.21158	5.69569	64.27993	26.03744	-62.65259	34.17414	-30.10579	-224.57292	-413.34436	-392.18894	-199.34915	-40.6835	0
794	-62.65259	0.81367	61.83892	30.91946	-62.65259	31.73313	-32.5468	-222.13191	-406.02133	-382.4249	-199.34915	-43.12451	0
795	-69.97562	-4.88202	64.27993	35.80148	-67.53461	29.29212	-32.5468	-219.6909	-398.6983	-372.66086	-196.90814	-48.00653	0
796	-72.41663	-12.20505	59.39791	40.6835	-67.53461	24.4101	-32.5468	-214.80888	-391.37527	-362.89682	-192.02612	-50.44754	0
797	-74.85764	-17.08707	56.9569	45.56552	-67.53461	19.52808	-32.5468	-209.92686	-384.05224	-350.69177	-189.58511	-52.88855	0
798	-77.29865	-17.08707	59.39791	45.56552	-69.97562	21.96909	-32.5468	-205.04484	-374.2882	-343.36874	-189.58511	-52.88855	0
799	-77.29865	-19.52808	56.9569	48.00653	-67.53461	19.52808	-32.5468	-197.72181	-362.08315	-331.16369	-187.1441	-52.88855	0
800	-69.97562	-12.20505	56.9569	40.6835	-65.0936	21.96909	-30.10579	-185.51676	-347.43709	-318.95864	-179.82107	-52.88855	0
801	-65.0936	-4.88202	59.39791	33.36047	-62.65259	26.85111	-27.66478	-173.31171	-332.79103	-306.75359	-174.93905	-52.88855	0
802	-62.65259	0.81367	61.83892	30.91946	-62.65259	31.73313	-22.78276	-163.54767	-315.70396	-294.54854	-172.49804	-55.32956	0
803	-55.32956	8.1367	61.83892	23.59643	-57.77057	34.17414	-17.90074	-151.34262	-296.17588	-279.90248	-167.61602	-52.88855	0
804	-52.88855	10.57771	61.83892	21.15542	-57.77057	36.61515	-13.01872	-139.13757	-279.08881	-265.25642	-162.734	-52.88855	0
805	-52.88855	13.01872	64.27993	18.71441	-57.77057	39.05616	-10.57771	-124.49151	-262.00174	-253.05137	-160.29299	-52.88855	0
806	-52.88855	15.45973	66.72094	18.71441	-60.21158	41.49717	-5.69569	-112.28646	-247.35568	-238.40531	-152.96996	-52.88855	0
807	-48.00653	15.45973	61.83892	16.2734	-55.32956	39.05616	-0.81367	-100.08141	-227.8276	-226.20026	-145.64693	-50.44754	0
808	-50.44754	10.57771	59.39791	18.71441	-55.32956	34.17414	1.62734	-87.87636	-215.62255	-213.99521	-143.20592	-50.44754	0
809	-57.77057	3.25468	59.39791	26.03744	-57.77057	31.73313	6.50936	-75.67131	-200.97649	-204.23117	-138.3239	-50.44754	0
810	-60.21158	3.25468	61.83892	28.47845	-60.21158	31.73313	11.39138	-61.02525	-181.44841	-189.58511	-131.00087	-48.00653	0
811	-62.65259	-1.62734	59.39791	30.91946	-60.21158	29.29212	13.83239	-48.8202	-166.80235	-177.38006	-126.11885	-48.00653	0
812	-62.65259	0.81367	61.83892	30.91946	-62.65259	31.73313	16.2734	-39.05616	-152.15629	-162.734	-121.23683	-50.44754	0
813	-57.77057	8.1367	64.27993	23.59643	-60.21158	36.61515	21.15542	-26.85111	-132.62821	-148.08794	-116.35481	-45.56552	0
814	-55.32956	3.25468	56.9569	26.03744	-55.32956	29.29212	21.15542	-19.52808	-120.42316	-135.88289	-111.47279	-48.00653	0
815	-52.88855	0.81367	52.07488	26.03744	-52.88855	26.85111	18.71441	-14.64606	-108.21811	-128.55986	-106.59077	-52.88855	0
816	-52.88855	-1.62734	49.63387	26.03744	-50.44754	24.4101	18.71441	-9.76404	-98.45407	-118.79582	-104.14976	-55.32956	0
817	-52.88855	-1.62734	49.63387	26.03744	-50.44754	24.4101	18.71441	-2.44101	-86.24902	-111.47279	-101.70875	-55.32956	0
818	-50.44754	-1.62734	47.19286	26.03744	-48.00653	21.96909	23.59643	7.32303	-74.04397	-101.70875	-96.82673	-55.32956	0
819	-43.12451	0.81367	42.31084	21.15542	-43.12451	21.96909	26.03744	19.52808	-59.39791	-89.5037	-91.94471	-50.44754	0
820	-43.12451	0.81367	42.31084	21.15542	-43.12451	21.96909	28.47845	34.17414	-47.19286	-79.73966	-87.06269	-50.44754	0
821	-45.56552	-4.88202	39.86983	23.59643	-43.12451	17.08707	28.47845	41.49717	-37.42882	-74.85764	-84.62168	-50.44754	0
822	-48.00653	-7.32303	39.86983	26.03744	-45.56552	17.08707	30.91946	51.26121	-22.78276	-65.0936	-82.18067	-50.44754	0
823	-48.00653	-4.88202	42.31084	26.03744	-45.56552	19.52808	38.24249	63.46626	-5.69569	-52.88855	-77.29865	-45.56552	0
824	-48.00653	-1.62734	44.75185	23.59643	-45.56552	21.96909	43.12451	78.11232	11.39138	-43.12451	-72.41663	-43.12451	0
825	-45.56552	-1.62734	42.31084	23.59643	-43.12451	19.52808	45.56552	92.75838	23.59643	-30.91946	-65.0936	-38.24249	0
826	-50.44754	-9.76404	39.86983	28.47845	-45.56552	14.64606	45.56552	97.6404	33.36047	-23.59643	-60.21158	-38.24249	0
827	-55.32956	-14.64606	39.86983	33.36047	-48.00653	12.20505	45.56552	102.52242	40.6835	-18.71441	-60.21158	-43.12451	0
828	-55.32956	-17.08707	37.42882	35.80148	-48.00653	9.76404	45.56552	107.40444	48.00653	-16.2734	-60.21158	-43.12451	0
829	-52.88855	-17.08707	34.98781	33.36047	-45.56552	9.76404	45.56552	117.16848	55.32956	-8.95037	-57.77057	-43.12451	0
830	-52.88855	-17.08707	34.98781	33.36047	-45.56552	9.76404	48.8202	127.74619	67.53461	-1.62734	-52.88855	-43.12451	0
831	-52.88855	-14.64606	37.42882	33.36047	-45.56552	12.20505	51.26121	135.06922	74.85764	3.25468	-52.88855	-43.12451	0
832	-48.00653	-9.76404	37.42882	28.47845	-43.12451	14.64606	53.70222	142.39225	87.06269	13.01872	-48.00653	-43.12451	0
833	-45.56552	-4.88202	39.86983	23.59643	-43.12451	17.08707	56.14323	147.27427	96.82673	20.34175	-48.00653	-43.12451	0
834	-43.12451	-1.62734	39.86983	21.15542	-40.6835	19.52808	58.58424	154.5973	104.14976	27.66478	-45.56552	-43.12451	0
835	-43.12451	-1.62734	39.86983	21.15542	-40.6835	19.52808	58.58424	161.92033	112.28646	32.5468	-43.12451	-45.56552	0
836	-43.12451	-4.88202	37.42882	23.59643	-40.6835	17.08707	61.02525	169.24336	119.60949	37.42882	-40.6835	-45.56552	0
837	-45.56552	-4.88202	39.86983	23.59643	-43.12451	17.08707	63.46626	174.12538	126.93252	39.86983	-38.24249	-45.56552	0
838	-45.56552	-4.88202	39.86983	23.59643	-43.12451	17.08707	65.90727	176.56639	131.81454	42.31084	-40.6835	-45.56552	0
839	-48.00653	-4.88202	42.31084	26.03744	-45.56552	19.52808	65.90727	181.44841	134.25555	44.75185	-40.6835	-45.56552	0
840	-52.88855	-4.88202	47.19286	28.47845	-50.44754	21.96909	70.78929	186.33043	139.13757	44.75185	-40.6835	-45.56552	0
841	-57.77057	-4.88202	52.07488	30.91946	-55.32956	24.4101	73.2303	188.77144	144.01959	47.19286	-40.6835	-48.00653	0
842	-60.21158	-9.76404	49.63387	33.36047	-55.32956	19.52808	73.2303	193.65346	148.90161	47.19286	-40.6835	-48.00653	0
843	-60.21158	-9.76404	49.63387	33.36047	-55.32956	19.52808	78.11232	196.09447	156.22464	50.44754	-40.6835	-45.56552	0
844	-55.32956	-4.88202	49.63387	28.47845	-52.88855	21.96909	80.55333	196.09447	161.10666	55.32956	-38.24249	-43.12451	0
845	-55.32956	-4.88202	49.63387	28.47845	-52.88855	21.96909	82.99434	196.09447	165.98868	57.77057	-35.80148	-43.12451	0
846	-55.32956	-4.88202	49.63387	28.47845	-52.88855	21.96909	85.43535	198.53548	170.8707	60.21158	-33.36047	-43.12451	0
847	-50.44754	-7.32303	42.31084	28.47845	-48.00653	17.08707	87.87636	200.97649	175.75272	60.21158	-30.91946	-43.12451	0
848	-43.12451	-7.32303	34.98781	23.59643	-40.6835	14.64606	87.87636	203.4175	180.63474	60.21158	-30.91946	-43.12451	0
849	-43.12451	-9.76404	32.5468	26.03744	-38.24249	12.20505	87.87636	203.4175	183.07575	60.21158	-33.36047	-45.56552	0
850	-43.12451	-14.64606	27.66478	28.47845	-35.80148	7.32303	90.31737	205.85851	185.51676	62.65259	-35.80148	-48.00653	0
851	-50.44754	-19.52808	30.10579	33.36047	-40.6835	4.88202	90.31737	205.85851	187.95777	65.0936	-35.80148	-48.00653	0
852	-55.32956	-26.85111	27.66478	40.6835	-43.12451	0	90.31737	205.85851	190.39878	67.53461	-35.80148	-52.88855	0
853	-60.21158	-34.17414	25.22377	45.56552	-43.12451	-5.69569	90.31737	205.85851	192.83979	67.53461	-38.24249	-55.32956	0
854	-62.65259	-41.49717	20.34175	50.44754	-43.12451	-10.57771	90.31737	205.85851	192.83979	67.53461	-38.24249	-57.77057	0
855	-57.77057	-39.05616	17.90074	48.00653	-38.24249	-10.57771	92.75838	205.85851	195.2808	72.41663	-33.36047	-57.77057	0
856	-57.77057	-41.49717	15.45973	48.00653	-38.24249	-13.01872	95.19939	205.85851	197.72181	72.41663	-33.36047	-55.32956	0
857	-55.32956	-41.49717	13.01872	48.00653	-35.80148	-15.45973	95.19939	210.74053	200.16282	74.85764	-30.91946	-52.88855	0
858	-50.44754	-36.61515	13.01872	43.12451	-33.36047	-13.01872	95.19939	213.18154	200.16282	74.85764	-30.91946	-50.44754	0
859	-40.6835	-29.29212	10.57771	33.36047	-26.03744	-10.57771	97.6404	215.62255	202.60383	77.29865	-28.47845	-45.56552	0
860	-30.91946	-17.08707	13.01872	23.59643	-23.59643	-3.25468	102.52242	220.50457	205.04484	79.73966	-26.03744	-43.12451	0
861	-23.59643	-4.88202	17.90074	13.83239	-21.15542	7.32303	104.96343	225.38659	205.04484	82.18067	-23.59643	-38.24249	0
862	-16.2734	0.81367	15.45973	6.50936	-16.2734	7.32303	107.40444	230.26861	205.04484	84.62168	-21.15542	-35.80148	0
863	-18.71441	-4.88202	13.01872	11.39138	-16.2734	4.88202	107.40444	230.26861	205.04484	84.62168	-21.15542	-35.80148	0
864	-21.15542	-7.32303	13.01872	13.83239	-18.71441	2.44101	107.40444	227.8276	200.16282	84.62168	-23.59643	-40.6835	0
865	-23.59643	-9.76404	13.01872	16.2734	-18.71441	2.44101	104.96343	227.8276	195.2808	82.18067	-23.59643	-40.6835	0
866	-28.47845	-14.64606	13.01872	21.15542	-21.15542	0	100.08141	225.38659	195.2808	82.18067	-21.15542	-43.12451	0
867	-28.47845	-17.08707	10.57771	21.15542	-21.15542	-3.25468	100.08141	225.38659	195.2808	82.18067	-18.71441	-43.12451	0
868	-30.91946	-19.52808	10.57771	23.59643	-21.15542	-5.69569	97.6404	225.38659	195.2808	82.18067	-18.71441	-43.12451	0
869	-35.80148	-26.85111	8.1367	30.91946	-23.59643	-10.57771	95.19939	222.94558	192.83979	82.18067	-18.71441	-45.56552	0
870	-38.24249	-31.73313	5.69569	33.36047	-23.59643	-13.01872	95.19939	220.50457	190.39878	79.73966	-18.71441	-45.56552	0
871	-35.80148	-29.29212	5.69569	30.91946	-21.15542	-13.01872	92.75838	218.06356	190.39878	79.73966	-21.15542	-45.56552	0
872	-33.36047	-29.29212	3.25468	30.91946	-18.71441	-13.01872	87.87636	218.06356	187.95777	79.73966	-18.71441	-43.12451	0
873	-33.36047	-29.29212	3.25468	30.91946	-18.71441	-13.01872	87.87636	218.06356	185.51676	82.18067	-16.2734	-40.6835	0
874	-33.36047	-26.85111	5.69569	28.47845	-21.15542	-10.57771	87.87636	213.18154	185.51676	84.62168	-16.2734	-38.24249	0
875	-30.91946	-24.4101	5.69569	26.03744	-18.71441	-10.57771	90.31737	210.74053	180.63474	87.06269	-11.39138	-33.36047	0
876	-28.47845	-19.52808	8.1367	23.59643	-18.71441	-5.69569	92.75838	210.74053	178.19373	89.5037	-8.95037	-28.47845	0
877	-26.03744	-14.64606	10.57771	18.71441	-18.71441	-3.25468	92.75838	208.29952	173.31171	89.5037	-5.69569	-28.47845	0
878	-23.59643	-7.32303	15.45973	13.83239	-21.15542	4.88202	90.31737	205.85851	173.31171	89.5037	-3.25468	-25.22377	0
879	-26.03744	-4.88202	20.34175	13.83239	-23.59643	7.32303	90.31737	203.4175	170.8707	91.94471	-3.25468	-25.22377	0
880	-26.03744	-1.62734	22.78276	13.83239	-23.59643	9.76404	92.75838	200.97649	168.42969	91.94471	-0.81367	-22.78276	0
881	-26.03744	5.69569	30.10579	8.95037	-28.47845	17.08707	92.75838	198.53548	165.98868	94.38572	-0.81367	-20.34175	0
882	-26.03744	8.1367	32.5468	8.95037	-28.47845	19.52808	90.31737	193.65346	163.54767	91.94471	-0.81367	-20.34175	0
883	-23.59643	8.1367	30.10579	6.50936	-26.03744	19.52808	87.87636	188.77144	161.10666	89.5037	-0.81367	-20.34175	0
884	-21.15542	5.69569	25.22377	6.50936	-23.59643	14.64606	82.99434	181.44841	156.22464	87.06269	-0.81367	-22.78276	0
885	-21.15542	0.81367	20.34175	8.95037	-21.15542	9.76404	82.99434	176.56639	151.34262	84.62168	-0.81367	-22.78276	0
886	-18.71441	0.81367	17.90074	8.95037	-18.71441	9.76404	78.11232	171.68437	146.4606	82.18067	1.62734	-22.78276	0
887	-18.71441	-1.62734	15.45973	8.95037	-16.2734	7.32303	73.2303	169.24336	144.01959	82.18067	1.62734	-22.78276	0
888	-16.2734	0.81367	15.45973	6.50936	-16.2734	7.32303	68.34828	161.92033	139.13757	77.29865	4.06835	-22.78276	0
889	-16.2734	0.81367	15.45973	6.50936	-16.2734	7.32303	65.90727	157.03831	134.25555	77.29865	4.06835	-22.78276	0
890	-16.2734	-1.62734	13.01872	8.95037	-13.83239	4.88202	68.34828	154.5973	131.81454	74.85764	4.06835	-22.78276	0
891	-18.71441	-4.88202	13.01872	11.39138	-16.2734	4.88202	68.34828	152.15629	126.93252	72.41663	1.62734	-22.78276	0
892	-23.59643	-4.88202	17.90074	13.83239	-21.15542	7.32303	65.90727	147.27427	122.0505	69.97562	-0.81367	-22.78276	0
893	-28.47845	-12.20505	15.45973	18.71441	-23.59643	2.44101	63.46626	142.39225	117.16848	65.0936	-3.25468	-28.47845	0
894	-30.91946	-17.08707	13.01872	23.59643	-23.59643	-3.25468	61.02525	137.51023	112.28646	62.65259	-5.69569	-28.47845	0
895	-30.91946	-19.52808	10.57771	23.59643	-21.15542	-5.69569	58.58424	135.06922	107.40444	60.21158	-5.69569	-28.47845	0
896	-26.03744	-19.52808	5.69569	21.15542	-16.2734	-8.1367	61.02525	135.06922	107.40444	60.21158	-3.25468	-28.47845	0
897	-23.59643	-14.64606	8.1367	18.71441	-16.2734	-3.25468	61.02525	137.51023	109.84545	60.21158	-0.81367	-25.22377	0
898	-23.59643	-12.20505	10.57771	16.2734	-18.71441	0	58.58424	135.06922	109.84545	62.65259	1.62734	-25.22377	0
899	-33.36047	-17.08707	15.45973	23.59643	-26.03744	0	51.26121	130.1872	107.40444	62.65259	1.62734	-25.22377	0
900	-35.80148	-17.08707	17.90074	26.03744	-28.47845	0	48.8202	125.30518	104.14976	65.0936	-3.25468	-25.22377	0
901	-38.24249	-19.52808	17.90074	28.47845	-28.47845	0	45.56552	125.30518	104.14976	65.0936	-3.25468	-25.22377	0
902	-38.24249	-17.08707	20.34175	26.03744	-30.91946	2.44101	45.56552	125.30518	101.70875	67.53461	-3.25468	-25.22377	0
903	-33.36047	-12.20505	20.34175	21.15542	-28.47845	4.88202	43.12451	125.30518	101.70875	69.97562	1.62734	-22.78276	0
904	-30.91946	-9.76404	20.34175	18.71441	-26.03744	4.88202	40.6835	122.0505	99.26774	69.97562	1.62734	-22.78276	0
905	-33.36047	-14.64606	17.90074	23.59643	-26.03744	2.44101	38.24249	117.16848	91.94471	67.53461	-0.81367	-22.78276	0
906	-30.91946	-19.52808	10.57771	23.59643	-21.15542	-5.69569	35.80148	114.72747	89.5037	67.53461	-0.81367	-22.78276	0
907	-23.59643	-14.64606	8.1367	18.71441	-16.2734	-3.25468	35.80148	117.16848	89.5037	67.53461	1.62734	-20.34175	0
908	-13.83239	-9.76404	3.25468	11.39138	-8.95037	-3.25468	35.80148	119.60949	94.38572	69.97562	6.50936	-17.90074	0
909	-8.95037	-1.62734	5.69569	3.25468	-6.50936	2.44101	38.24249	119.60949	96.82673	72.41663	6.50936	-13.01872	0
910	-6.50936	3.25468	8.1367	0.81367	-6.50936	4.88202	40.6835	117.16848	96.82673	74.85764	6.50936	-13.01872	0
911	-8.95037	0.81367	8.1367	3.25468	-8.95037	4.88202	40.6835	114.72747	96.82673	74.85764	4.06835	-13.01872	0
912	-8.95037	0.81367	8.1367	3.25468	-8.95037	4.88202	38.24249	109.84545	94.38572	72.41663	4.06835	-13.01872	0
913	-4.06835	3.25468	5.69569	0.81367	-4.06835	4.88202	35.80148	109.84545	94.38572	72.41663	4.06835	-13.01872	0
914	-4.06835	3.25468	5.69569	0.81367	-4.06835	4.88202	35.80148	104.96343	89.5037	69.97562	1.62734	-15.45973	0
915	-6.50936	3.25468	8.1367	0.81367	-6.50936	4.88202	33.36047	102.52242	87.06269	67.53461	-0.81367	-15.45973	0
916	-8.95037	3.25468	10.57771	3.25468	-8.95037	7.32303	33.36047	102.52242	87.06269	67.53461	-0.81367	-15.45973	0
917	-11.39138	0.81367	10.57771	3.25468	-11.39138	4.88202	30.91946	104.96343	87.06269	65.0936	1.62734	-15.45973	0
918	-13.83239	-1.62734	10.57771	6.50936	-11.39138	4.88202	28.47845	104.96343	87.06269	65.0936	1.62734	-15.45973	0
919	-13.83239	0.81367	13.01872	6.50936	-13.83239	7.32303	26.03744	104.96343	87.06269	65.0936	4.06835	-15.45973	0
920	-16.2734	-1.62734	13.01872	8.95037	-13.83239	4.88202	28.47845	104.96343	87.06269	67.53461	4.06835	-13.01872	0
921	-16.2734	0.81367	15.45973	6.50936	-16.2734	7.32303	28.47845	104.96343	87.06269	67.53461	4.06835	-13.01872	0
922	-13.83239	0.81367	13.01872	6.50936	-13.83239	7.32303	28.47845	102.52242	87.06269	67.53461	1.62734	-13.01872	0
923	-8.95037	0.81367	8.1367	3.25468	-8.95037	4.88202	28.47845	102.52242	87.06269	69.97562	4.06835	-13.01872	0
924	-6.50936	0.81367	5.69569	3.25468	-6.50936	2.44101	26.03744	95.19939	87.06269	72.41663	1.62734	-13.01872	0
925	-6.50936	-1.62734	3.25468	3.25468	-4.06835	0	26.03744	90.31737	82.18067	69.97562	1.62734	-13.01872	0
926	-4.06835	3.25468	5.69569	0.81367	-4.06835	4.88202	26.03744	90.31737	82.18067	69.97562	4.06835	-10.57771	0
927	-0.81367	3.25468	3.25468	-1.62734	-1.62734	4.88202	28.47845	92.75838	84.62168	72.41663	8.95037	-8.1367	0
928	1.62734	8.1367	5.69569	-4.06835	-1.62734	7.32303	26.03744	92.75838	84.62168	72.41663	8.95037	-8.1367	0
929	4.06835	13.01872	8.1367	-8.95037	-1.62734	12.20505	23.59643	90.31737	84.62168	72.41663	6.50936	-8.1367	0
930	4.06835	13.01872	8.1367	-8.95037	-1.62734	12.20505	23.59643	90.31737	87.06269	74.85764	6.50936	-8.1367	0
931	1.62734	13.01872	10.57771	-6.50936	-4.06835	12.20505	23.59643	87.87636	87.06269	74.85764	6.50936	-8.1367	0
932	-0.81367	8.1367	8.1367	-4.06835	-4.06835	9.76404	23.59643	85.43535	84.62168	74.85764	4.06835	-10.57771	0
933	-4.06835	8.1367	10.57771	-1.62734	-6.50936	9.76404	23.59643	82.99434	82.18067	72.41663	4.06835	-10.57771	0
934	-6.50936	3.25468	8.1367	0.81367	-6.50936	4.88202	21.15542	78.11232	79.73966	69.97562	1.62734	-15.45973	0
935	-8.95037	-1.62734	5.69569	3.25468	-6.50936	2.44101	16.2734	73.2303	74.85764	67.53461	-0.81367	-17.90074	0
936	-11.39138	-1.62734	8.1367	6.50936	-8.95037	2.44101	13.83239	70.78929	69.97562	65.0936	-3.25468	-20.34175	0
937	-16.2734	-4.88202	10.57771	8.95037	-13.83239	2.44101	13.83239	70.78929	67.53461	65.0936	-0.81367	-20.34175	0
938	-23.59643	-7.32303	15.45973	13.83239	-21.15542	4.88202	11.39138	65.90727	67.53461	65.0936	-0.81367	-20.34175	0
939	-23.59643	-7.32303	15.45973	13.83239	-21.15542	4.88202	8.95037	65.90727	67.53461	65.0936	-0.81367	-20.34175	0
940	-23.59643	-7.32303	15.45973	13.83239	-21.15542	4.88202	11.39138	65.90727	67.53461	67.53461	-0.81367	-20.34175	0
941	-18.71441	-4.88202	13.01872	11.39138	-16.2734	4.88202	11.39138	65.90727	67.53461	69.97562	1.62734	-17.90074	0
942	-8.95037	3.25468	10.57771	3.25468	-8.95037	7.32303	11.39138	65.90727	69.97562	72.41663	4.06835	-15.45973	0
943	-4.06835	8.1367	10.57771	-1.62734	-6.50936	9.76404	8.95037	65.90727	69.97562	72.41663	6.50936	-15.45973	0
944	-0.81367	8.1367	8.1367	-4.06835	-4.06835	9.76404	8.95037	65.90727	69.97562	74.85764	8.95037	-15.45973	0
945	1.62734	8.1367	5.69569	-4.06835	-1.62734	7.32303	8.95037	65.90727	69.97562	74.85764	8.95037	-13.01872	0
946	8.95037	15.45973	5.69569	-11.39138	1.62734	12.20505	8.95037	68.34828	69.97562	72.41663	8.95037	-10.57771	0
947	8.95037	17.90074	8.1367	-13.83239	1.62734	14.64606	6.50936	70.78929	69.97562	72.41663	8.95037	-10.57771	0
948	6.50936	15.45973	8.1367	-11.39138	-1.62734	12.20505	1.62734	68.34828	67.53461	69.97562	8.95037	-10.57771	0
949	4.06835	15.45973	10.57771	-8.95037	-4.06835	14.64606	1.62734	68.34828	69.97562	69.97562	8.95037	-13.01872	0
950	-0.81367	13.01872	13.01872	-6.50936	-6.50936	14.64606	1.62734	68.34828	69.97562	72.41663	4.06835	-13.01872	0
951	-8.95037	5.69569	13.01872	0.81367	-11.39138	9.76404	1.62734	68.34828	69.97562	72.41663	4.06835	-15.45973	0
952	-13.83239	5.69569	17.90074	3.25468	-16.2734	12.20505	1.62734	68.34828	69.97562	74.85764	1.62734	-17.90074	0
953	-13.83239	5.69569	17.90074	3.25468	-16.2734	12.20505	1.62734	65.90727	67.53461	69.97562	1.62734	-20.34175	0
954	-16.2734	0.81367	15.45973	6.50936	-16.2734	7.32303	1.62734	61.02525	65.0936	67.53461	-0.81367	-22.78276	0
955	-21.15542	-4.88202	15.45973	11.39138	-18.71441	4.88202	-0.81367	56.14323	62.65259	65.0936	-3.25468	-25.22377	0
956	-21.15542	-4.88202	15.45973	11.39138	-18.71441	4.88202	-0.81367	56.14323	62.65259	62.65259	-3.25468	-25.22377	0
957	-21.15542	-4.88202	15.45973	11.39138	-18.71441	4.88202	-0.81367	56.14323	62.65259	62.65259	-0.81367	-25.22377	0
958	-18.71441	-4.88202	13.01872	11.39138	-16.2734	4.88202	-0.81367	56.14323	62.65259	60.21158	1.62734	-25.22377	0
959	-11.39138	3.25468	13.01872	3.25468	-11.39138	7.32303	-0.81367	56.14323	62.65259	60.21158	1.62734	-22.78276	0
960	-6.50936	10.57771	15.45973	-1.62734	-11.39138	12.20505	1.62734	58.58424	62.65259	60.21158	1.62734	-22.78276	0
961	-0.81367	15.45973	15.45973	-6.50936	-8.95037	17.08707	6.50936	58.58424	62.65259	65.0936	1.62734	-22.78276	0
962	11.39138	22.78276	10.57771	-16.2734	1.62734	17.08707	6.50936	61.02525	67.53461	69.97562	4.06835	-20.34175	0
963	18.71441	27.66478	8.1367	-23.59643	6.50936	19.52808	6.50936	61.02525	67.53461	72.41663	8.95037	-17.90074	0
964	18.71441	27.66478	8.1367	-23.59643	6.50936	19.52808	8.95037	61.02525	67.53461	77.29865	11.39138	-15.45973	0
965	21.15542	27.66478	5.69569	-23.59643	8.95037	17.08707	6.50936	58.58424	65.0936	77.29865	11.39138	-15.45973	0
966	18.71441	22.78276	3.25468	-21.15542	8.95037	14.64606	4.06835	58.58424	60.21158	69.97562	8.95037	-17.90074	0
967	13.83239	17.90074	3.25468	-16.2734	6.50936	12.20505	1.62734	58.58424	60.21158	69.97562	8.95037	-20.34175	0
968	8.95037	10.57771	0.81367	-8.95037	4.06835	7.32303	-0.81367	56.14323	60.21158	65.0936	8.95037	-22.78276	0
969	-0.81367	0.81367	0.81367	0.81367	-1.62734	2.44101	-3.25468	53.70222	62.65259	65.0936	8.95037	-22.78276	0
970	-8.95037	-4.88202	3.25468	6.50936	-6.50936	0	-3.25468	48.8202	57.77057	62.65259	4.06835	-25.22377	0
971	-11.39138	-4.88202	5.69569	6.50936	-8.95037	0	-0.81367	48.8202	60.21158	62.65259	4.06835	-25.22377	0
972	-8.95037	-4.88202	3.25468	6.50936	-6.50936	0	4.06835	51.26121	62.65259	65.0936	6.50936	-22.78276	0
973	-4.06835	0.81367	3.25468	0.81367	-4.06835	2.44101	6.50936	51.26121	65.0936	65.0936	8.95037	-22.78276	0
974	-0.81367	5.69569	5.69569	-1.62734	-4.06835	7.32303	11.39138	51.26121	67.53461	65.0936	8.95037	-20.34175	0
975	1.62734	10.57771	8.1367	-6.50936	-4.06835	9.76404	11.39138	46.37919	67.53461	67.53461	8.95037	-20.34175	0
976	4.06835	13.01872	8.1367	-8.95037	-1.62734	12.20505	11.39138	46.37919	67.53461	67.53461	11.39138	-20.34175	0
977	1.62734	10.57771	8.1367	-6.50936	-4.06835	9.76404	6.50936	46.37919	67.53461	67.53461	13.83239	-17.90074	0
978	-0.81367	10.57771	10.57771	-4.06835	-6.50936	12.20505	4.06835	46.37919	69.97562	67.53461	13.83239	-17.90074	0
979	-4.06835	8.1367	10.57771	-1.62734	-6.50936	9.76404	1.62734	41.49717	72.41663	67.53461	11.39138	-17.90074	0
980	-8.95037	3.25468	10.57771	3.25468	-8.95037	7.32303	-0.81367	36.61515	69.97562	65.0936	6.50936	-20.34175	0
981	-13.83239	0.81367	13.01872	6.50936	-13.83239	7.32303	-3.25468	36.61515	69.97562	65.0936	1.62734	-22.78276	0
982	-13.83239	3.25468	15.45973	3.25468	-13.83239	9.76404	-3.25468	36.61515	69.97562	65.0936	1.62734	-22.78276	0
983	-11.39138	3.25468	13.01872	3.25468	-11.39138	7.32303	-3.25468	36.61515	72.41663	67.53461	6.50936	-22.78276	0
984	-8.95037	0.81367	8.1367	3.25468	-8.95037	4.88202	-0.81367	39.05616	74.85764	69.97562	6.50936	-20.34175	0
985	-4.06835	5.69569	8.1367	-1.62734	-6.50936	7.32303	1.62734	41.49717	77.29865	72.41663	8.95037	-17.90074	0
986	6.50936	15.45973	8.1367	-11.39138	-1.62734	12.20505	6.50936	46.37919	79.73966	74.85764	11.39138	-15.45973	0
987	11.39138	20.34175	8.1367	-16.2734	1.62734	14.64606	6.50936	53.70222	84.62168	77.29865	16.2734	-15.45973	0
988	16.2734	27.66478	10.57771	-21.15542	4.06835	19.52808	8.95037	53.70222	89.5037	79.73966	18.71441	-13.01872	0
989	21.15542	30.10579	8.1367	-26.03744	6.50936	19.52808	8.95037	53.70222	94.38572	82.18067	21.15542	-13.01872	0
990	21.15542	25.22377	3.25468	-23.59643	8.95037	14.64606	8.95037	53.70222	94.38572	82.18067	21.15542	-13.01872	0
991	18.71441	25.22377	5.69569	-21.15542	6.50936	17.08707	8.95037	53.70222	96.82673	84.62168	21.15542	-13.01872	0
992	13.83239	27.66478	13.01872	-21.15542	1.62734	21.96909	8.95037	53.70222	99.26774	87.06269	21.15542	-13.01872	0
993	13.83239	30.10579	15.45973	-21.15542	-1.62734	24.4101	11.39138	53.70222	99.26774	89.5037	23.59643	-10.57771	0
994	11.39138	30.10579	17.90074	-21.15542	-4.06835	24.4101	11.39138	51.26121	101.70875	89.5037	26.03744	-8.1367	0
995	6.50936	25.22377	17.90074	-16.2734	-6.50936	21.96909	11.39138	48.8202	101.70875	91.94471	26.03744	-8.1367	0
996	6.50936	27.66478	20.34175	-16.2734	-6.50936	24.4101	11.39138	51.26121	104.14976	94.38572	28.47845	-5.69569	0
997	6.50936	32.5468	25.22377	-18.71441	-8.95037	29.29212	13.83239	56.14323	107.40444	96.82673	33.36047	-3.25468	0
998	11.39138	39.86983	27.66478	-26.03744	-8.95037	34.17414	18.71441	58.58424	112.28646	101.70875	35.80148	-0.81367	0
999	16.2734	47.19286	30.10579	-30.91946	-6.50936	39.05616	21.15542	61.02525	117.16848	106.59077	40.6835	4.06835	0
1000	16.2734	49.63387	32.5468	-33.36047	-8.95037	41.49717	26.03744	63.46626	122.0505	111.47279	40.6835	4.06835	0
1001	18.71441	52.07488	32.5468	-35.80148	-6.50936	43.93818	28.47845	68.34828	126.93252	116.35481	40.6835	6.50936	0
1002	23.59643	56.9569	32.5468	-40.6835	-4.06835	46.37919	30.91946	70.78929	129.37353	118.79582	40.6835	4.06835	0
1003	30.91946	61.83892	30.10579	-45.56552	1.62734	46.37919	35.80148	75.67131	131.81454	121.23683	45.56552	6.50936	0
1004	35.80148	66.72094	30.10579	-50.44754	4.06835	48.8202	40.6835	80.55333	136.69656	126.11885	50.44754	8.95037	0
1005	35.80148	66.72094	30.10579	-50.44754	4.06835	48.8202	45.56552	82.99434	139.13757	128.55986	50.44754	8.95037	0
1006	33.36047	66.72094	32.5468	-50.44754	1.62734	51.26121	45.56552	85.43535	141.57858	128.55986	52.88855	11.39138	0
1007	33.36047	66.72094	32.5468	-50.44754	1.62734	51.26121	45.56552	90.31737	144.01959	133.44188	55.32956	13.83239	0
1008	35.80148	71.60296	34.98781	-52.88855	1.62734	53.70222	45.56552	92.75838	148.90161	135.88289	60.21158	16.2734	0
1009	40.6835	78.92599	37.42882	-60.21158	1.62734	58.58424	45.56552	95.19939	156.22464	140.76491	65.0936	21.15542	0
