samplenr	I	II	III	aVR	aVL	aVF	V1	V2	V3	V4	V5	V6	measurement
0	-112.28646	-174.93905	-63.46626	143.20592	-26.03744	-120.42316	171.68437	-1528.07226	100.89508	147.27427	46.37919	47.19286	0
1	-114.72747	-174.93905	-61.02525	143.20592	-28.47845	-117.98215	174.12538	-1532.95428	103.33609	147.27427	46.37919	47.19286	0
2	-117.16848	-179.82107	-63.46626	148.08794	-28.47845	-122.86417	176.56639	-1537.8363	103.33609	147.27427	46.37919	44.75185	0
3	-117.16848	-182.26208	-65.90727	148.08794	-26.03744	-125.30518	179.0074	-1535.39529	105.7771	147.27427	43.93818	42.31084	0
4	-119.60949	-182.26208	-63.46626	150.52895	-28.47845	-122.86417	179.0074	-1523.19024	108.21811	147.27427	43.93818	39.86983	0
5	-122.0505	-182.26208	-61.02525	150.52895	-30.91946	-122.86417	183.88942	-1515.86721	110.65912	147.27427	43.93818	39.86983	0
6	-122.0505	-182.26208	-61.02525	150.52895	-30.91946	-122.86417	186.33043	-1598.86155	113.10013	147.27427	46.37919	39.86983	0
7	-119.60949	-182.26208	-63.46626	150.52895	-28.47845	-122.86417	188.77144	-1659.8868	113.10013	149.71528	48.8202	39.86983	0
8	-119.60949	-182.26208	-63.46626	150.52895	-28.47845	-122.86417	193.65346	-1635.4767	115.54114	152.15629	48.8202	39.86983	0
9	-114.72747	-182.26208	-68.34828	148.08794	-23.59643	-125.30518	198.53548	-1618.38963	117.98215	154.5973	51.26121	39.86983	0
10	-112.28646	-177.38006	-65.90727	143.20592	-23.59643	-122.86417	203.4175	-1735.55811	120.42316	157.03831	53.70222	42.31084	0
11	-109.84545	-174.93905	-65.90727	140.76491	-23.59643	-120.42316	205.85851	-927.5838	125.30518	159.47932	53.70222	42.31084	0
12	-107.40444	-170.05703	-63.46626	138.3239	-23.59643	-117.98215	210.74053	-746.94906	125.30518	161.92033	53.70222	42.31084	0
13	-104.96343	-170.05703	-65.90727	135.88289	-21.15542	-117.98215	213.18154	-1071.60339	127.74619	161.92033	53.70222	42.31084	0
14	-104.96343	-167.61602	-63.46626	135.88289	-21.15542	-115.54114	218.06356	-1769.73225	132.62821	166.80235	53.70222	42.31084	0
15	-104.96343	-165.17501	-61.02525	133.44188	-23.59643	-113.10013	222.94558	-1694.06094	137.51023	169.24336	56.14323	42.31084	0
16	-104.96343	-162.734	-58.58424	133.44188	-23.59643	-110.65912	230.26861	-1513.4262	139.95124	171.68437	56.14323	47.19286	0
17	-107.40444	-157.85198	-51.26121	131.00087	-28.47845	-105.7771	232.70962	-1335.23247	142.39225	171.68437	58.58424	47.19286	0
18	-107.40444	-155.41097	-48.8202	131.00087	-30.91946	-103.33609	237.59164	-1244.9151	147.27427	176.56639	58.58424	49.63387	0
19	-107.40444	-152.96996	-46.37919	128.55986	-30.91946	-100.89508	242.47366	-1262.00217	149.71528	179.0074	58.58424	49.63387	0
20	-109.84545	-152.96996	-43.93818	131.00087	-33.36047	-98.45407	247.35568	-1310.82237	152.15629	181.44841	61.02525	52.07488	0
21	-112.28646	-150.52895	-39.05616	131.00087	-38.24249	-96.01306	252.2377	-412.53069	154.5973	183.88942	63.46626	52.07488	0
22	-107.40444	-145.64693	-39.05616	126.11885	-35.80148	-93.57205	257.11972	-207.48585	157.03831	183.88942	65.90727	52.07488	0
23	-102.52242	-138.3239	-36.61515	118.79582	-33.36047	-88.69003	262.00174	-524.81715	159.47932	183.88942	65.90727	49.63387	0
24	-97.6404	-133.44188	-36.61515	113.9138	-30.91946	-86.24902	266.88376	-1205.85894	161.92033	186.33043	65.90727	49.63387	0
25	-97.6404	-131.00087	-34.17414	113.9138	-33.36047	-83.80801	269.32477	-1008.13713	164.36134	186.33043	65.90727	49.63387	0
26	-92.75838	-126.11885	-34.17414	109.03178	-30.91946	-81.367	274.20679	-751.83108	164.36134	188.77144	68.34828	49.63387	0
27	-87.87636	-121.23683	-34.17414	104.14976	-28.47845	-78.92599	276.6478	-602.92947	166.80235	188.77144	68.34828	49.63387	0
28	-78.11232	-113.9138	-36.61515	94.38572	-21.15542	-76.48498	279.08881	-500.40705	166.80235	188.77144	70.78929	52.07488	0
29	-68.34828	-106.59077	-39.05616	87.06269	-16.2734	-74.04397	281.52982	-527.25816	166.80235	188.77144	70.78929	52.07488	0
30	-63.46626	-99.26774	-36.61515	79.73966	-13.83239	-69.16195	286.41184	-656.63169	169.24336	191.21245	73.2303	54.51589	0
31	-58.58424	-91.94471	-34.17414	74.85764	-13.83239	-64.27993	291.29386	252.2377	174.12538	193.65346	75.67131	56.9569	0
32	-53.70222	-84.62168	-31.73313	67.53461	-11.39138	-59.39791	293.73487	459.72355	174.12538	193.65346	75.67131	56.9569	0
33	-46.37919	-77.29865	-31.73313	60.21158	-8.95037	-54.51589	296.17588	115.54114	176.56639	196.09447	78.11232	54.51589	0
34	-36.61515	-67.53461	-31.73313	50.44754	-4.06835	-49.63387	298.61689	-710.33391	176.56639	196.09447	78.11232	52.07488	0
35	-31.73313	-60.21158	-29.29212	45.56552	-1.62734	-44.75185	301.0579	-651.74967	176.56639	196.09447	78.11232	49.63387	0
36	-24.4101	-48.00653	-24.4101	35.80148	-1.62734	-37.42882	305.93992	-414.9717	181.44841	200.97649	78.11232	49.63387	0
37	-17.08707	-40.6835	-24.4101	28.47845	4.06835	-32.5468	305.93992	-473.55594	181.44841	200.97649	80.55333	47.19286	0
38	-9.76404	-30.91946	-21.96909	18.71441	6.50936	-27.66478	308.38093	-400.32564	181.44841	203.4175	80.55333	42.31084	0
39	-4.88202	-26.03744	-21.96909	13.83239	8.95037	-25.22377	308.38093	-292.9212	181.44841	200.97649	78.11232	39.86983	0
40	-2.44101	-23.59643	-21.96909	11.39138	8.95037	-22.78276	305.93992	-297.80322	179.0074	200.97649	78.11232	34.98781	0
41	0.81367	-21.15542	-21.96909	8.95037	11.39138	-20.34175	305.93992	-327.09534	176.56639	198.53548	75.67131	32.5468	0
42	3.25468	-21.15542	-24.4101	8.95037	13.83239	-22.78276	305.93992	-341.7414	174.12538	198.53548	73.2303	30.10579	0
43	3.25468	-18.71441	-21.96909	6.50936	11.39138	-20.34175	305.93992	-353.94645	171.68437	196.09447	70.78929	27.66478	0
44	3.25468	-16.2734	-19.52808	6.50936	11.39138	-17.90074	303.49891	-361.26948	171.68437	193.65346	70.78929	22.78276	0
45	3.25468	-13.83239	-17.08707	4.06835	8.95037	-15.45973	303.49891	-378.35655	169.24336	193.65346	68.34828	22.78276	0
46	5.69569	-8.95037	-14.64606	0.81367	8.95037	-10.57771	303.49891	-512.6121	169.24336	193.65346	68.34828	22.78276	0
47	10.57771	-1.62734	-12.20505	-4.06835	11.39138	-5.69569	303.49891	-573.63735	169.24336	191.21245	68.34828	22.78276	0
48	22.78276	11.39138	-12.20505	-16.2734	18.71441	-0.81367	303.49891	-483.31998	164.36134	188.77144	68.34828	25.22377	0
49	34.98781	23.59643	-12.20505	-28.47845	23.59643	7.32303	301.0579	-349.06443	164.36134	188.77144	68.34828	27.66478	0
50	42.31084	38.24249	-4.88202	-40.6835	23.59643	17.08707	301.0579	-334.41837	164.36134	186.33043	68.34828	27.66478	0
51	52.07488	50.44754	-2.44101	-50.44754	28.47845	24.4101	301.0579	-346.62342	161.92033	186.33043	70.78929	27.66478	0
52	64.27993	65.0936	0	-65.0936	33.36047	34.17414	298.61689	-353.94645	159.47932	183.88942	70.78929	27.66478	0
53	74.04397	72.41663	-2.44101	-72.41663	38.24249	36.61515	293.73487	-361.26948	157.03831	181.44841	68.34828	25.22377	0
54	83.80801	79.73966	-4.88202	-82.18067	45.56552	39.05616	288.85285	-356.38746	152.15629	179.0074	65.90727	17.90074	0
55	88.69003	84.62168	-4.88202	-87.06269	48.00653	41.49717	283.97083	-358.82847	149.71528	176.56639	61.02525	13.01872	0
56	88.69003	89.5037	0	-89.5037	45.56552	46.37919	279.08881	-488.202	144.83326	171.68437	58.58424	8.1367	0
57	93.57205	94.38572	0	-94.38572	48.00653	48.8202	274.20679	-541.90422	142.39225	169.24336	53.70222	5.69569	0
58	96.01306	99.26774	3.25468	-96.82673	48.00653	51.26121	264.44275	-436.94079	135.06922	166.80235	48.8202	2.44101	0
59	100.89508	104.14976	3.25468	-101.70875	50.44754	53.70222	254.67871	-283.15716	130.1872	161.92033	46.37919	2.44101	0
60	105.7771	109.03178	3.25468	-106.59077	52.88855	56.14323	247.35568	-256.30605	122.86417	159.47932	43.93818	2.44101	0
61	108.21811	118.79582	10.57771	-113.9138	50.44754	65.90727	240.03265	-251.42403	120.42316	159.47932	43.93818	5.69569	0
62	113.10013	128.55986	15.45973	-121.23683	50.44754	73.2303	232.70962	-236.77797	117.98215	159.47932	46.37919	15.45973	0
63	115.54114	138.3239	22.78276	-126.11885	48.00653	80.55333	225.38659	-219.6909	113.10013	157.03831	46.37919	20.34175	0
64	117.98215	145.64693	27.66478	-131.00087	45.56552	87.87636	215.62255	-195.2808	108.21811	154.5973	51.26121	27.66478	0
65	117.98215	152.96996	34.98781	-135.88289	43.12451	95.19939	205.85851	-183.07575	103.33609	152.15629	51.26121	32.5468	0
66	115.54114	157.85198	42.31084	-135.88289	38.24249	100.08141	193.65346	-307.56726	96.01306	149.71528	51.26121	32.5468	0
67	120.42316	165.17501	44.75185	-143.20592	38.24249	104.96343	181.44841	-356.38746	91.13104	144.83326	51.26121	34.98781	0
68	122.86417	172.49804	49.63387	-148.08794	38.24249	112.28646	169.24336	-246.54201	86.24902	142.39225	51.26121	32.5468	0
69	120.42316	174.93905	54.51589	-148.08794	33.36047	114.72747	159.47932	-87.87636	81.367	142.39225	51.26121	32.5468	0
70	115.54114	174.93905	59.39791	-145.64693	28.47845	117.16848	147.27427	-58.58424	76.48498	137.51023	48.8202	27.66478	0
71	113.10013	179.82107	66.72094	-145.64693	23.59643	124.49151	137.51023	-65.90727	71.60296	135.06922	46.37919	27.66478	0
72	113.10013	182.26208	69.16195	-148.08794	23.59643	126.93252	127.74619	-75.67131	66.72094	130.1872	43.93818	25.22377	0
73	110.65912	187.1441	76.48498	-148.08794	18.71441	131.81454	117.98215	-87.87636	61.83892	130.1872	43.93818	25.22377	0
74	110.65912	192.02612	81.367	-150.52895	16.2734	136.69656	110.65912	-97.6404	61.83892	130.1872	43.93818	27.66478	0
75	108.21811	192.02612	83.80801	-150.52895	13.83239	139.13757	103.33609	-126.93252	59.39791	127.74619	43.93818	27.66478	0
76	100.89508	189.58511	88.69003	-145.64693	6.50936	139.13757	96.01306	-295.36221	54.51589	125.30518	43.93818	27.66478	0
77	96.01306	189.58511	93.57205	-143.20592	1.62734	141.57858	86.24902	-371.03352	49.63387	122.86417	41.49717	27.66478	0
78	96.01306	187.1441	91.13104	-140.76491	4.06835	139.13757	74.04397	-270.95211	42.31084	115.54114	36.61515	22.78276	0
79	96.01306	182.26208	86.24902	-138.3239	6.50936	134.25555	64.27993	-109.84545	34.98781	110.65912	34.17414	20.34175	0
80	91.13104	179.82107	88.69003	-135.88289	1.62734	134.25555	56.9569	-80.55333	30.10579	103.33609	31.73313	15.45973	0
81	83.80801	172.49804	88.69003	-128.55986	-1.62734	131.81454	47.19286	-87.87636	25.22377	93.57205	26.85111	10.57771	0
82	71.60296	162.734	91.13104	-116.35481	-8.95037	126.93252	39.86983	-92.75838	20.34175	83.80801	21.96909	5.69569	0
83	61.83892	152.96996	91.13104	-106.59077	-13.83239	122.0505	32.5468	-90.31737	15.45973	71.60296	19.52808	2.44101	0
84	54.51589	143.20592	88.69003	-99.26774	-16.2734	117.16848	27.66478	-80.55333	10.57771	61.83892	14.64606	0	0
85	44.75185	135.88289	91.13104	-89.5037	-23.59643	114.72747	22.78276	-90.31737	8.1367	52.07488	12.20505	-2.44101	0
86	37.42882	128.55986	91.13104	-82.18067	-26.03744	109.84545	17.90074	-251.42403	5.69569	42.31084	9.76404	-4.88202	0
87	30.10579	121.23683	91.13104	-74.85764	-30.91946	107.40444	13.01872	-327.09534	3.25468	30.10579	7.32303	-7.32303	0
88	25.22377	113.9138	88.69003	-69.97562	-30.91946	102.52242	8.1367	-217.24989	-2.44101	17.90074	2.44101	-12.20505	0
89	20.34175	104.14976	83.80801	-62.65259	-30.91946	95.19939	5.69569	-468.67392	-4.88202	10.57771	0	-17.08707	0
90	17.90074	101.70875	83.80801	-60.21158	-33.36047	92.75838	0.81367	-532.14018	-7.32303	3.25468	-3.25468	-19.52808	0
91	17.90074	94.38572	76.48498	-55.32956	-28.47845	85.43535	-2.44101	801.46495	-9.76404	0	-5.69569	-24.4101	0
92	17.90074	87.06269	69.16195	-52.88855	-26.03744	78.11232	-2.44101	1143.20635	-12.20505	-2.44101	-10.57771	-26.85111	0
93	13.01872	79.73966	66.72094	-45.56552	-26.03744	73.2303	-4.88202	679.41445	-14.64606	-7.32303	-13.01872	-29.29212	0
94	13.01872	72.41663	59.39791	-43.12451	-23.59643	65.90727	-7.32303	-485.76099	-17.08707	-9.76404	-17.90074	-31.73313	0
95	15.45973	67.53461	52.07488	-40.6835	-18.71441	61.02525	-9.76404	-427.17675	-21.96909	-14.64606	-20.34175	-31.73313	0
96	13.01872	62.65259	49.63387	-38.24249	-18.71441	56.14323	-12.20505	-317.3313	-24.4101	-14.64606	-22.78276	-31.73313	0
97	10.57771	57.77057	47.19286	-33.36047	-18.71441	53.70222	-17.08707	-278.27514	-26.85111	-14.64606	-22.78276	-31.73313	0
98	5.69569	50.44754	44.75185	-28.47845	-18.71441	48.8202	-19.52808	39.86983	-26.85111	-14.64606	-22.78276	-29.29212	0
99	0.81367	40.6835	39.86983	-21.15542	-18.71441	41.49717	-21.96909	-183.07575	-26.85111	-14.64606	-22.78276	-26.85111	0
100	-2.44101	35.80148	37.42882	-16.2734	-18.71441	36.61515	-21.96909	-227.01393	-29.29212	-14.64606	-22.78276	-24.4101	1000	P+0
101	0.81367	35.80148	34.98781	-18.71441	-16.2734	36.61515	-26.85111	1201.79059	-31.73313	-14.64606	-22.78276	-24.4101	0
102	0.81367	35.80148	34.98781	-18.71441	-16.2734	36.61515	-29.29212	1541.09098	-31.73313	-14.64606	-22.78276	-24.4101	0
103	-4.88202	28.47845	32.5468	-11.39138	-18.71441	29.29212	-29.29212	1060.21201	-31.73313	-14.64606	-22.78276	-26.85111	0
104	-12.20505	23.59643	34.98781	-6.50936	-23.59643	29.29212	-31.73313	-170.8707	-31.73313	-14.64606	-25.22377	-29.29212	0
105	-17.08707	21.15542	37.42882	-1.62734	-26.03744	29.29212	-34.17414	-144.01959	-31.73313	-14.64606	-25.22377	-29.29212	0
106	-21.96909	21.15542	42.31084	0.81367	-30.91946	31.73313	-34.17414	-40.6835	-31.73313	-14.64606	-25.22377	-29.29212	0
107	-21.96909	21.15542	42.31084	0.81367	-30.91946	31.73313	-39.05616	5.69569	-34.17414	-14.64606	-30.10579	-29.29212	0
108	-24.4101	23.59643	47.19286	0.81367	-35.80148	34.17414	-39.05616	291.29386	-34.17414	-14.64606	-30.10579	-29.29212	0
109	-24.4101	23.59643	47.19286	0.81367	-35.80148	34.17414	-39.05616	496.3387	-34.17414	-14.64606	-30.10579	-29.29212	0
110	-24.4101	23.59643	47.19286	0.81367	-35.80148	34.17414	-39.05616	547.59991	-34.17414	-14.64606	-30.10579	-24.4101	0
111	-21.96909	26.03744	47.19286	-1.62734	-33.36047	36.61515	-39.05616	1441.00957	-34.17414	-14.64606	-27.66478	-21.96909	0
112	-17.08707	28.47845	44.75185	-6.50936	-30.91946	36.61515	-36.61515	1816.11144	-34.17414	-14.64606	-27.66478	-17.08707	0
113	-14.64606	28.47845	42.31084	-6.50936	-28.47845	34.17414	-34.17414	1333.60513	-31.73313	-14.64606	-25.22377	-12.20505	0
114	-14.64606	28.47845	42.31084	-6.50936	-28.47845	34.17414	-34.17414	633.03526	-29.29212	-12.20505	-25.22377	-12.20505	0
115	-12.20505	28.47845	39.86983	-8.95037	-26.03744	34.17414	-34.17414	633.03526	-26.85111	-12.20505	-22.78276	-7.32303	0
116	-7.32303	33.36047	39.86983	-13.83239	-23.59643	36.61515	-31.73313	471.9286	-24.4101	-9.76404	-17.90074	-2.44101	0
117	-7.32303	38.24249	44.75185	-16.2734	-26.03744	41.49717	-29.29212	410.90335	-21.96909	-7.32303	-15.45973	2.44101	0
118	-7.32303	38.24249	44.75185	-16.2734	-26.03744	41.49717	-29.29212	554.92294	-19.52808	-4.88202	-10.57771	2.44101	0
119	-12.20505	38.24249	49.63387	-13.83239	-30.91946	43.93818	-29.29212	769.73182	-19.52808	-4.88202	-8.1367	2.44101	0
120	-14.64606	35.80148	49.63387	-11.39138	-30.91946	41.49717	-31.73313	823.43404	-17.08707	-4.88202	-5.69569	5.69569	0
121	-14.64606	33.36047	47.19286	-8.95037	-30.91946	39.05616	-31.73313	1808.78841	-17.08707	-4.88202	-3.25468	8.1367	0
122	-14.64606	33.36047	47.19286	-8.95037	-30.91946	39.05616	-31.73313	2177.38092	-17.08707	-4.88202	-3.25468	8.1367	0
123	-7.32303	38.24249	44.75185	-16.2734	-26.03744	41.49717	-34.17414	1637.91771	-17.08707	-4.88202	0	8.1367	0
124	-4.88202	40.6835	44.75185	-18.71441	-23.59643	41.49717	-34.17414	903.98737	-17.08707	-7.32303	0	5.69569	0
125	-7.32303	33.36047	39.86983	-13.83239	-23.59643	36.61515	-39.05616	891.78232	-19.52808	-12.20505	-3.25468	2.44101	0
126	-7.32303	30.91946	37.42882	-11.39138	-21.15542	34.17414	-43.93818	703.82455	-21.96909	-19.52808	-8.1367	-2.44101	0
127	-7.32303	30.91946	37.42882	-11.39138	-21.15542	34.17414	-46.37919	625.71223	-21.96909	-21.96909	-8.1367	-2.44101	0
128	-7.32303	30.91946	37.42882	-11.39138	-21.15542	34.17414	-48.8202	759.96778	-21.96909	-24.4101	-10.57771	-2.44101	0
129	-7.32303	30.91946	37.42882	-11.39138	-21.15542	34.17414	-48.8202	965.01262	-24.4101	-26.85111	-10.57771	-4.88202	0
130	-9.76404	30.91946	39.86983	-11.39138	-23.59643	34.17414	-51.26121	1006.50979	-24.4101	-29.29212	-10.57771	-4.88202	0
131	-14.64606	30.91946	44.75185	-8.95037	-28.47845	36.61515	-51.26121	1011.39181	-21.96909	-29.29212	-10.57771	-2.44101	0
132	-19.52808	28.47845	47.19286	-4.06835	-33.36047	36.61515	-51.26121	1018.71484	-21.96909	-29.29212	-10.57771	0	0
133	-24.4101	28.47845	52.07488	-1.62734	-38.24249	39.05616	-48.8202	1021.15585	-21.96909	-31.73313	-10.57771	2.44101	0
134	-24.4101	28.47845	52.07488	-1.62734	-38.24249	39.05616	-48.8202	1030.91989	-19.52808	-31.73313	-10.57771	2.44101	0
135	-24.4101	28.47845	52.07488	-1.62734	-38.24249	39.05616	-48.8202	1001.62777	-19.52808	-31.73313	-13.01872	0	0
136	-24.4101	30.91946	54.51589	-4.06835	-38.24249	41.49717	-48.8202	799.02394	-19.52808	-36.61515	-15.45973	-2.44101	0
137	-24.4101	30.91946	54.51589	-4.06835	-38.24249	41.49717	-51.26121	711.14758	-21.96909	-41.49717	-15.45973	-2.44101	0
138	-21.96909	30.91946	52.07488	-4.06835	-35.80148	41.49717	-51.26121	852.72616	-24.4101	-43.93818	-17.90074	-4.88202	0
139	-21.96909	28.47845	49.63387	-4.06835	-35.80148	39.05616	-53.70222	1074.85807	-24.4101	-48.8202	-17.90074	-4.88202	0
140	-21.96909	28.47845	49.63387	-4.06835	-35.80148	39.05616	-56.14323	1128.56029	-24.4101	-51.26121	-17.90074	-4.88202	0
141	-21.96909	26.03744	47.19286	-1.62734	-33.36047	36.61515	-56.14323	1148.08837	-26.85111	-56.14323	-20.34175	-7.32303	0
142	-24.4101	23.59643	47.19286	0.81367	-35.80148	34.17414	-58.58424	1172.49847	-26.85111	-58.58424	-20.34175	-7.32303	0
143	-24.4101	21.15542	44.75185	0.81367	-33.36047	31.73313	-58.58424	1201.79059	-26.85111	-61.02525	-17.90074	-4.88202	0
144	-24.4101	21.15542	44.75185	0.81367	-33.36047	31.73313	-58.58424	1235.96473	-26.85111	-61.02525	-17.90074	-2.44101	0
145	-26.85111	21.15542	47.19286	0.81367	-35.80148	34.17414	-58.58424	1228.6417	-26.85111	-61.02525	-17.90074	-2.44101	0
146	-29.29212	26.03744	54.51589	0.81367	-40.6835	39.05616	-58.58424	1028.47888	-21.96909	-61.02525	-15.45973	-2.44101	0
147	-29.29212	28.47845	56.9569	0.81367	-43.12451	41.49717	-58.58424	938.16151	-21.96909	-58.58424	-15.45973	-4.88202	0
148	-29.29212	30.91946	59.39791	-1.62734	-43.12451	43.93818	-58.58424	1077.29908	-21.96909	-61.02525	-17.90074	-7.32303	0
149	-29.29212	30.91946	59.39791	-1.62734	-43.12451	43.93818	-58.58424	1294.54897	-21.96909	-61.02525	-20.34175	-9.76404	0
150	-29.29212	30.91946	59.39791	-1.62734	-43.12451	43.93818	-61.02525	1336.04614	-19.52808	-63.46626	-20.34175	-12.20505	0
151	-29.29212	30.91946	59.39791	-1.62734	-43.12451	43.93818	-61.02525	1340.92816	-19.52808	-63.46626	-20.34175	-12.20505	0
152	-29.29212	28.47845	56.9569	0.81367	-43.12451	41.49717	-61.02525	1345.81018	-17.08707	-63.46626	-22.78276	-12.20505	0
153	-34.17414	26.03744	59.39791	4.06835	-45.56552	41.49717	-63.46626	1350.6922	-17.08707	-63.46626	-22.78276	-9.76404	0
154	-39.05616	21.15542	59.39791	8.95037	-48.00653	39.05616	-65.90727	1367.77927	-17.08707	-65.90727	-22.78276	-7.32303	0
155	-41.49717	21.15542	61.83892	8.95037	-50.44754	41.49717	-65.90727	1353.13321	-17.08707	-65.90727	-22.78276	-2.44101	0
156	-43.93818	16.2734	59.39791	13.83239	-50.44754	36.61515	-68.34828	1145.64736	-17.08707	-65.90727	-20.34175	2.44101	0
157	-48.8202	11.39138	59.39791	18.71441	-52.88855	34.17414	-70.78929	1055.32999	-17.08707	-65.90727	-17.90074	5.69569	0
158	-48.8202	11.39138	59.39791	18.71441	-52.88855	34.17414	-70.78929	1204.2316	-17.08707	-65.90727	-15.45973	8.1367	0
159	-43.93818	11.39138	54.51589	16.2734	-48.00653	31.73313	-73.2303	1438.56856	-17.08707	-65.90727	-15.45973	10.57771	0
160	-43.93818	11.39138	54.51589	16.2734	-48.00653	31.73313	-75.67131	1484.94775	-19.52808	-68.34828	-15.45973	10.57771	0
161	-39.05616	11.39138	49.63387	13.83239	-43.12451	29.29212	-78.11232	1494.71179	-21.96909	-70.78929	-20.34175	8.1367	0
162	-34.17414	11.39138	44.75185	11.39138	-38.24249	26.85111	-78.11232	1504.47583	-21.96909	-73.2303	-22.78276	5.69569	0
163	-31.73313	11.39138	42.31084	8.95037	-35.80148	26.85111	-80.55333	1509.35785	-24.4101	-73.2303	-25.22377	2.44101	0
164	-31.73313	8.95037	39.86983	11.39138	-35.80148	24.4101	-80.55333	1516.68088	-24.4101	-73.2303	-25.22377	2.44101	0
165	-31.73313	8.95037	39.86983	11.39138	-35.80148	24.4101	-80.55333	1487.38876	-21.96909	-73.2303	-25.22377	2.44101	0
166	-34.17414	11.39138	44.75185	11.39138	-38.24249	26.85111	-80.55333	1260.37483	-21.96909	-73.2303	-30.10579	0	0
167	-41.49717	8.95037	49.63387	16.2734	-45.56552	29.29212	-80.55333	1152.97039	-21.96909	-73.2303	-30.10579	-2.44101	0
168	-46.37919	8.95037	54.51589	18.71441	-50.44754	31.73313	-82.99434	1294.54897	-21.96909	-73.2303	-32.5468	-4.88202	0
169	-51.26121	6.50936	56.9569	21.15542	-52.88855	31.73313	-82.99434	1526.44492	-21.96909	-70.78929	-32.5468	-4.88202	0
170	-58.58424	4.06835	61.83892	26.03744	-60.21158	31.73313	-80.55333	1563.06007	-19.52808	-68.34828	-32.5468	-4.88202	0
171	-61.02525	-1.62734	59.39791	30.91946	-60.21158	29.29212	-80.55333	1555.73704	-19.52808	-68.34828	-32.5468	-4.88202	0
172	-61.02525	-1.62734	59.39791	30.91946	-60.21158	29.29212	-85.43535	1550.85502	-21.96909	-68.34828	-32.5468	-7.32303	0
173	-58.58424	-1.62734	56.9569	28.47845	-57.77057	26.85111	-87.87636	1545.973	-24.4101	-70.78929	-34.98781	-7.32303	0
174	-53.70222	-1.62734	52.07488	26.03744	-52.88855	24.4101	-90.31737	1541.09098	-26.85111	-70.78929	-34.98781	-7.32303	0
175	-48.8202	-1.62734	47.19286	23.59643	-48.00653	21.96909	-90.31737	1502.03482	-26.85111	-70.78929	-34.98781	-7.32303	0
176	-46.37919	-1.62734	44.75185	23.59643	-45.56552	21.96909	-90.31737	1255.49281	-26.85111	-68.34828	-32.5468	-7.32303	0
177	-48.8202	-1.62734	47.19286	23.59643	-48.00653	21.96909	-90.31737	1140.76534	-26.85111	-68.34828	-30.10579	-4.88202	0
178	-51.26121	-4.06835	47.19286	26.03744	-50.44754	21.96909	-90.31737	1282.34392	-26.85111	-65.90727	-27.66478	-2.44101	0
179	-56.14323	-6.50936	49.63387	30.91946	-52.88855	21.96909	-92.75838	1521.5629	-26.85111	-63.46626	-27.66478	-2.44101	0
180	-61.02525	-11.39138	49.63387	35.80148	-55.32956	19.52808	-95.19939	1565.50108	-26.85111	-63.46626	-25.22377	-2.44101	0
181	-63.46626	-16.2734	47.19286	38.24249	-55.32956	14.64606	-95.19939	1567.94209	-26.85111	-63.46626	-25.22377	-2.44101	0
182	-68.34828	-16.2734	52.07488	40.6835	-60.21158	17.08707	-95.19939	1575.26512	-26.85111	-63.46626	-25.22377	-2.44101	0
183	-70.78929	-18.71441	52.07488	43.12451	-62.65259	17.08707	-95.19939	1580.14714	-26.85111	-63.46626	-25.22377	0	0
184	-73.2303	-21.15542	52.07488	45.56552	-62.65259	14.64606	-95.19939	1587.47017	-26.85111	-63.46626	-25.22377	2.44101	0
185	-70.78929	-18.71441	52.07488	43.12451	-62.65259	17.08707	-95.19939	1553.29603	-24.4101	-63.46626	-22.78276	2.44101	0
186	-65.90727	-16.2734	49.63387	40.6835	-57.77057	17.08707	-92.75838	1306.75402	-21.96909	-63.46626	-20.34175	5.69569	0
187	-58.58424	-4.06835	54.51589	30.91946	-57.77057	24.4101	-92.75838	1192.02655	-21.96909	-61.02525	-20.34175	8.1367	0
188	-53.70222	4.06835	56.9569	23.59643	-55.32956	29.29212	-90.31737	1343.36917	-17.08707	-56.14323	-15.45973	13.01872	0
189	-46.37919	16.2734	61.83892	13.83239	-52.88855	39.05616	-85.43535	1592.35219	-12.20505	-51.26121	-8.1367	20.34175	0
190	-41.49717	23.59643	64.27993	8.95037	-52.88855	43.93818	-82.99434	1633.03569	-9.76404	-46.37919	-3.25468	25.22377	0
191	-34.17414	35.80148	69.16195	-1.62734	-50.44754	51.26121	-78.11232	1633.03569	-4.88202	-41.49717	0	30.10579	0
192	-26.85111	45.56552	71.60296	-8.95037	-48.00653	58.58424	-75.67131	1640.35872	-2.44101	-36.61515	7.32303	32.5468	0
193	-21.96909	55.32956	76.48498	-16.2734	-48.00653	65.90727	-73.2303	1647.68175	3.25468	-31.73313	9.76404	34.98781	0
194	-19.52808	62.65259	81.367	-21.15542	-50.44754	70.78929	-70.78929	1655.00478	5.69569	-29.29212	14.64606	34.98781	0
195	-12.20505	67.53461	78.92599	-28.47845	-45.56552	73.2303	-68.34828	1623.27165	5.69569	-29.29212	14.64606	34.98781	0
196	-9.76404	69.97562	78.92599	-30.91946	-43.12451	73.2303	-68.34828	1372.66129	8.1367	-26.85111	17.08707	37.42882	0
197	-9.76404	69.97562	78.92599	-30.91946	-43.12451	73.2303	-68.34828	1255.49281	8.1367	-26.85111	17.08707	37.42882	0
198	-7.32303	72.41663	78.92599	-33.36047	-43.12451	75.67131	-68.34828	1419.04048	8.1367	-26.85111	17.08707	37.42882	0
199	-4.88202	72.41663	76.48498	-33.36047	-40.6835	73.2303	-68.34828	1686.73791	8.1367	-26.85111	17.08707	37.42882	0
200	-4.88202	72.41663	76.48498	-33.36047	-40.6835	73.2303	-73.2303	1745.32215	5.69569	-29.29212	14.64606	37.42882	0
201	-2.44101	72.41663	74.04397	-35.80148	-38.24249	73.2303	-73.2303	1755.08619	5.69569	-29.29212	12.20505	37.42882	0
202	0.81367	69.97562	69.16195	-35.80148	-33.36047	70.78929	-78.11232	1764.85023	3.25468	-34.17414	7.32303	32.5468	0
203	3.25468	67.53461	64.27993	-35.80148	-30.91946	65.90727	-82.99434	1774.61427	0.81367	-36.61515	4.88202	27.66478	0
204	8.1367	67.53461	59.39791	-38.24249	-26.03744	63.46626	-87.87636	1784.37831	-2.44101	-41.49717	0	25.22377	0
205	15.45973	69.97562	54.51589	-43.12451	-18.71441	63.46626	-90.31737	1755.08619	-7.32303	-46.37919	-3.25468	22.78276	0
206	17.90074	74.85764	56.9569	-45.56552	-18.71441	65.90727	-95.19939	1497.1528	-9.76404	-48.8202	-3.25468	20.34175	0
207	17.90074	77.29865	59.39791	-48.00653	-21.15542	68.34828	-100.08141	1375.1023	-12.20505	-51.26121	-3.25468	17.90074	0
208	15.45973	77.29865	61.83892	-45.56552	-23.59643	70.78929	-104.96343	1536.20896	-17.08707	-51.26121	-3.25468	17.90074	0
209	13.01872	79.73966	66.72094	-45.56552	-26.03744	73.2303	-107.40444	1799.02437	-19.52808	-56.14323	-3.25468	17.90074	0
210	13.01872	79.73966	66.72094	-45.56552	-26.03744	73.2303	-114.72747	1847.84457	-21.96909	-58.58424	-5.69569	17.90074	0
211	8.1367	82.18067	74.04397	-45.56552	-33.36047	78.11232	-117.16848	1850.28558	-26.85111	-61.02525	-5.69569	20.34175	0
212	5.69569	82.18067	76.48498	-43.12451	-35.80148	80.55333	-119.60949	1852.72659	-26.85111	-63.46626	-5.69569	20.34175	0
213	3.25468	79.73966	76.48498	-40.6835	-35.80148	78.11232	-122.0505	1850.28558	-29.29212	-68.34828	-8.1367	20.34175	0
214	0.81367	77.29865	76.48498	-38.24249	-38.24249	78.11232	-126.93252	1847.84457	-31.73313	-73.2303	-13.01872	17.90074	0
215	0.81367	74.85764	74.04397	-38.24249	-35.80148	75.67131	-126.93252	1801.46538	-34.17414	-75.67131	-15.45973	15.45973	0
216	0.81367	72.41663	71.60296	-35.80148	-35.80148	73.2303	-129.37353	1524.00391	-36.61515	-80.55333	-20.34175	13.01872	0
217	-2.44101	69.97562	71.60296	-33.36047	-35.80148	70.78929	-131.81454	1384.86634	-36.61515	-82.99434	-22.78276	8.1367	0
218	-4.88202	67.53461	71.60296	-30.91946	-38.24249	68.34828	-131.81454	1541.09098	-36.61515	-85.43535	-27.66478	5.69569	0
219	-7.32303	60.21158	66.72094	-26.03744	-35.80148	63.46626	-134.25555	1801.46538	-39.05616	-87.87636	-30.10579	2.44101	0
220	-9.76404	57.77057	66.72094	-23.59643	-38.24249	61.02525	-134.25555	1840.52154	-41.49717	-87.87636	-34.98781	0	0
221	-7.32303	57.77057	64.27993	-26.03744	-35.80148	61.02525	-136.69656	1835.63952	-41.49717	-90.31737	-37.42882	0	0
222	-4.88202	57.77057	61.83892	-26.03744	-33.36047	58.58424	-136.69656	1830.7575	-41.49717	-90.31737	-39.86983	-4.88202	0
223	-4.88202	55.32956	59.39791	-26.03744	-30.91946	56.14323	-141.57858	1820.99346	-46.37919	-95.19939	-44.75185	-9.76404	0
224	-2.44101	50.44754	52.07488	-23.59643	-26.03744	51.26121	-146.4606	1811.22942	-53.70222	-100.08141	-49.63387	-14.64606	0
225	3.25468	45.56552	42.31084	-23.59643	-18.71441	43.93818	-148.90161	1755.08619	-58.58424	-107.40444	-56.9569	-21.96909	0
226	3.25468	38.24249	34.98781	-21.15542	-16.2734	36.61515	-151.34262	1460.53765	-63.46626	-109.84545	-59.39791	-24.4101	0
227	3.25468	33.36047	30.10579	-18.71441	-13.83239	31.73313	-151.34262	1304.31301	-65.90727	-112.28646	-61.83892	-26.85111	0
228	5.69569	26.03744	20.34175	-16.2734	-6.50936	24.4101	-151.34262	1460.53765	-65.90727	-114.72747	-61.83892	-31.73313	0
229	5.69569	18.71441	13.01872	-11.39138	-4.06835	17.08707	-153.78363	1718.47104	-65.90727	-117.16848	-61.83892	-34.17414	0
230	3.25468	8.95037	5.69569	-6.50936	-1.62734	7.32303	-153.78363	1750.20417	-68.34828	-119.60949	-64.27993	-36.61515	0
231	-2.44101	-1.62734	0	0.81367	-1.62734	-0.81367	-153.78363	1737.99912	-68.34828	-119.60949	-64.27993	-39.05616	0
232	-4.88202	-6.50936	-2.44101	4.06835	-1.62734	-5.69569	-151.34262	1723.35306	-65.90727	-114.72747	-61.83892	-39.05616	0
233	-9.76404	-11.39138	-2.44101	8.95037	-4.06835	-8.1367	-146.4606	1713.58902	-61.02525	-109.84545	-54.51589	-36.61515	0
234	-12.20505	-13.83239	-2.44101	11.39138	-6.50936	-8.1367	-141.57858	1703.82498	-56.14323	-104.96343	-49.63387	-31.73313	0
235	-12.20505	-13.83239	-2.44101	11.39138	-6.50936	-8.1367	-141.57858	1647.68175	-56.14323	-104.96343	-47.19286	-31.73313	0
236	-12.20505	-13.83239	-2.44101	11.39138	-6.50936	-8.1367	-141.57858	1348.25119	-56.14323	-100.08141	-44.75185	-29.29212	0
237	-14.64606	-18.71441	-4.88202	16.2734	-6.50936	-13.01872	-139.13757	1194.46756	-56.14323	-97.6404	-39.86983	-26.85111	0
238	-21.96909	-21.15542	0	21.15542	-11.39138	-10.57771	-139.13757	1365.33826	-53.70222	-97.6404	-37.42882	-26.85111	0
239	-26.85111	-26.03744	0	26.03744	-13.83239	-13.01872	-136.69656	1647.68175	-53.70222	-95.19939	-34.98781	-26.85111	0
240	-26.85111	-28.47845	-2.44101	26.03744	-13.83239	-15.45973	-136.69656	1694.06094	-53.70222	-95.19939	-34.98781	-26.85111	0
241	-31.73313	-30.91946	0	30.91946	-16.2734	-15.45973	-136.69656	1694.06094	-56.14323	-97.6404	-34.98781	-29.29212	0
242	-36.61515	-38.24249	-2.44101	35.80148	-18.71441	-20.34175	-141.57858	1691.61993	-61.02525	-100.08141	-37.42882	-34.17414	0
243	-39.05616	-43.12451	-4.88202	40.6835	-18.71441	-25.22377	-141.57858	1694.06094	-63.46626	-102.52242	-39.86983	-36.61515	0
244	-41.49717	-50.44754	-9.76404	45.56552	-16.2734	-30.10579	-141.57858	1694.06094	-65.90727	-104.96343	-42.31084	-36.61515	0
245	-41.49717	-55.32956	-14.64606	48.00653	-13.83239	-34.98781	-141.57858	1647.68175	-68.34828	-104.96343	-42.31084	-39.05616	0
246	-43.93818	-60.21158	-17.08707	50.44754	-13.83239	-39.86983	-141.57858	1343.36917	-68.34828	-107.40444	-44.75185	-39.05616	0
247	-39.05616	-60.21158	-21.96909	48.00653	-8.95037	-42.31084	-139.13757	1184.70352	-70.78929	-107.40444	-44.75185	-34.17414	0
248	-36.61515	-57.77057	-21.96909	45.56552	-8.95037	-39.86983	-136.69656	1365.33826	-70.78929	-104.96343	-42.31084	-31.73313	0
249	-34.17414	-57.77057	-24.4101	45.56552	-6.50936	-42.31084	-134.25555	1652.56377	-70.78929	-104.96343	-39.86983	-31.73313	0
250	-26.85111	-57.77057	-31.73313	40.6835	1.62734	-44.75185	-134.25555	1691.61993	-70.78929	-102.52242	-37.42882	-31.73313	0
251	-19.52808	-57.77057	-39.05616	38.24249	8.95037	-49.63387	-129.37353	1681.85589	-68.34828	-100.08141	-34.98781	-31.73313	0
252	-17.08707	-57.77057	-41.49717	35.80148	11.39138	-49.63387	-126.93252	1672.09185	-68.34828	-97.6404	-32.5468	-31.73313	0
253	-12.20505	-55.32956	-43.93818	33.36047	16.2734	-49.63387	-126.93252	1662.32781	-65.90727	-95.19939	-32.5468	-31.73313	0
254	-9.76404	-55.32956	-46.37919	30.91946	18.71441	-52.07488	-126.93252	1652.56377	-63.46626	-95.19939	-32.5468	-36.61515	0
255	-7.32303	-57.77057	-51.26121	30.91946	21.15542	-54.51589	-126.93252	1597.23421	-63.46626	-95.19939	-32.5468	-39.05616	0
256	-12.20505	-62.65259	-51.26121	35.80148	18.71441	-56.9569	-126.93252	1277.4619	-61.02525	-95.19939	-34.98781	-41.49717	0
257	-21.96909	-69.97562	-48.8202	45.56552	13.83239	-59.39791	-124.49151	1111.47322	-58.58424	-95.19939	-34.98781	-43.93818	0
258	-29.29212	-69.97562	-41.49717	48.00653	6.50936	-56.9569	-124.49151	1301.872	-56.14323	-92.75838	-34.98781	-43.93818	0
259	-31.73313	-69.97562	-39.05616	50.44754	4.06835	-54.51589	-122.0505	1606.99825	-53.70222	-92.75838	-34.98781	-41.49717	0
260	-36.61515	-69.97562	-34.17414	52.88855	-1.62734	-52.07488	-122.0505	1655.00478	-53.70222	-92.75838	-34.98781	-41.49717	0
261	-39.05616	-74.85764	-36.61515	55.32956	-1.62734	-56.9569	-122.0505	1659.8868	-51.26121	-92.75838	-34.98781	-41.49717	0
262	-39.05616	-74.85764	-36.61515	55.32956	-1.62734	-56.9569	-122.0505	1664.76882	-48.8202	-92.75838	-37.42882	-41.49717	0
263	-39.05616	-74.85764	-36.61515	55.32956	-1.62734	-56.9569	-117.16848	1674.53286	-46.37919	-90.31737	-37.42882	-39.05616	0
264	-36.61515	-72.41663	-36.61515	52.88855	-1.62734	-54.51589	-117.16848	1686.73791	-43.93818	-87.87636	-34.98781	-39.05616	0
265	-29.29212	-69.97562	-41.49717	48.00653	6.50936	-56.9569	-114.72747	1647.68175	-41.49717	-85.43535	-32.5468	-34.17414	0
266	-21.96909	-65.0936	-43.93818	43.12451	11.39138	-54.51589	-109.84545	1336.04614	-36.61515	-82.99434	-30.10579	-34.17414	0
267	-19.52808	-65.0936	-46.37919	40.6835	13.83239	-56.9569	-109.84545	1177.38049	-34.17414	-80.55333	-27.66478	-31.73313	0
268	-24.4101	-69.97562	-46.37919	45.56552	11.39138	-59.39791	-109.84545	1389.74836	-34.17414	-78.11232	-27.66478	-31.73313	0
269	-34.17414	-72.41663	-39.05616	52.88855	1.62734	-56.9569	-107.40444	1716.03003	-31.73313	-75.67131	-27.66478	-31.73313	0
270	-36.61515	-72.41663	-36.61515	52.88855	-1.62734	-54.51589	-104.96343	1777.05528	-29.29212	-73.2303	-22.78276	-29.29212	0
271	-41.49717	-74.85764	-34.17414	57.77057	-4.06835	-54.51589	-102.52242	1786.81932	-26.85111	-70.78929	-22.78276	-29.29212	0
272	-46.37919	-79.73966	-34.17414	62.65259	-6.50936	-56.9569	-102.52242	1791.70134	-24.4101	-70.78929	-20.34175	-29.29212	0
273	-48.8202	-84.62168	-36.61515	65.0936	-6.50936	-61.83892	-102.52242	1794.14235	-24.4101	-70.78929	-20.34175	-31.73313	0
274	-51.26121	-87.06269	-36.61515	67.53461	-8.95037	-61.83892	-102.52242	1796.58336	-24.4101	-68.34828	-20.34175	-34.17414	0
275	-53.70222	-91.94471	-39.05616	72.41663	-8.95037	-66.72094	-100.08141	1750.20417	-24.4101	-68.34828	-20.34175	-34.17414	0
276	-56.14323	-91.94471	-36.61515	72.41663	-11.39138	-64.27993	-100.08141	1419.04048	-21.96909	-68.34828	-20.34175	-34.17414	0
277	-51.26121	-89.5037	-39.05616	69.97562	-6.50936	-64.27993	-100.08141	1248.16978	-19.52808	-63.46626	-20.34175	-34.17414	0
278	-46.37919	-84.62168	-39.05616	65.0936	-4.06835	-61.83892	-100.08141	1460.53765	-19.52808	-63.46626	-20.34175	-34.17414	0
279	-46.37919	-84.62168	-39.05616	65.0936	-4.06835	-61.83892	-100.08141	1789.26033	-17.08707	-61.02525	-20.34175	-34.17414	0
280	-43.93818	-84.62168	-41.49717	62.65259	-1.62734	-64.27993	-97.6404	1842.96255	-17.08707	-61.02525	-20.34175	-36.61515	0
281	-41.49717	-84.62168	-43.93818	62.65259	1.62734	-64.27993	-97.6404	1845.40356	-14.64606	-58.58424	-22.78276	-39.05616	0
282	-26.85111	-72.41663	-46.37919	48.00653	8.95037	-59.39791	-97.6404	1842.96255	-14.64606	-58.58424	-25.22377	-41.49717	0
283	-31.73313	-79.73966	-48.8202	55.32956	8.95037	-64.27993	-100.08141	3190.40007	-19.52808	-61.02525	-27.66478	-43.93818	0
284	-36.61515	-94.38572	-58.58424	65.0936	11.39138	-76.48498	-97.6404	894.22333	-17.08707	-65.90727	-34.98781	-48.8202	0
285	-29.29212	-99.26774	-70.78929	62.65259	21.15542	-86.24902	-97.6404	852.72616	-14.64606	-70.78929	-39.86983	-53.70222	0
286	-14.64606	-87.06269	-73.2303	50.44754	28.47845	-81.367	-109.84545	818.55202	-29.29212	-70.78929	-44.75185	-56.14323	0
287	20.34175	-72.41663	-92.75838	26.03744	55.32956	-81.367	-126.93252	808.78798	-48.8202	-90.31737	-54.51589	-63.46626	0
288	47.19286	-69.97562	-117.16848	11.39138	82.18067	-93.57205	-119.60949	838.0801	-48.8202	-97.6404	-64.27993	-70.78929	0
289	78.92599	-33.36047	-112.28646	-23.59643	94.38572	-71.60296	-119.60949	813.67	-46.37919	-95.19939	-78.92599	-78.11232	0
290	139.95124	35.80148	-104.96343	-87.06269	123.67784	-34.98781	-146.4606	757.52677	-70.78929	-107.40444	-93.57205	-87.87636	0
291	186.33043	121.23683	-65.90727	-152.96996	126.11885	29.29212	-209.92686	1659.8868	-112.28646	-165.98868	-115.54114	-102.52242	0
292	259.56073	218.87723	-41.49717	-238.40531	150.52895	90.31737	-317.3313	1599.67522	-192.83979	-197.72181	-137.51023	-117.16848	0
293	342.55507	331.16369	-12.20505	-336.04571	177.38006	161.10666	-373.47453	2914.56594	-236.77797	-229.45494	-161.92033	-136.69656	0
294	425.54941	416.59904	-9.76404	-421.48106	218.87723	205.04484	-475.99695	420.66739	-305.12625	-263.62908	-186.33043	-153.78363	1500	QRS+0
295	489.01567	450.77318	-39.05616	-470.30126	265.25642	207.48585	-554.10927	323.02699	-371.03352	-300.24423	-213.18154	-173.31171	0
296	542.71789	443.45015	-100.08141	-492.27035	321.39965	173.31171	-580.96038	298.61689	-397.88463	-353.94645	-242.47366	-195.2808	0
297	574.45102	450.77318	-124.49151	-511.79843	350.69177	163.54767	-602.92947	288.85285	-429.61776	-388.12059	-264.44275	-214.80888	0
298	603.74314	497.15237	-107.40444	-550.85459	355.57379	195.2808	-617.57553	320.58598	-441.82281	-390.5616	-276.6478	-224.57292	0
299	598.86112	365.33783	-234.33696	-482.50631	416.59904	65.90727	-620.01654	347.43709	-458.90988	-419.85372	-283.97083	-231.89595	0
300	574.45102	240.84632	-334.41837	-406.835	455.6552	-47.19286	-602.92947	354.76012	-463.7919	-429.61776	-286.41184	-231.89595	0
301	484.13365	194.46713	-290.48019	-338.48672	387.30692	-47.19286	-554.10927	3126.93381	-419.85372	-378.35655	-286.41184	-231.89595	0
302	364.52416	167.61602	-197.72181	-265.25642	282.34349	-15.45973	-507.73008	3978.8463	-410.08968	-373.47453	-283.97083	-229.45494	0
303	249.79669	94.38572	-156.22464	-172.49804	204.23117	-30.10579	-510.17109	2968.26816	-395.44362	-361.26948	-276.6478	-222.13191	0
304	149.71528	21.15542	-129.37353	-84.62168	140.76491	-54.51589	-505.28907	1558.17805	-395.44362	-344.18241	-262.00174	-209.92686	0
305	39.86983	-35.80148	-75.67131	-1.62734	57.77057	-54.51589	-473.55594	1541.09098	-375.91554	-319.77231	-242.47366	-192.83979	0
306	22.78276	-87.06269	-109.84545	30.91946	65.0936	-98.45407	-449.14584	579.33304	-363.71049	-302.68524	-227.8276	-180.63474	0
307	32.5468	-96.82673	-129.37353	30.91946	79.73966	-113.10013	-388.12059	593.9791	-314.89029	-285.59817	-218.06356	-173.31171	0
308	0.81367	-148.08794	-148.90161	72.41663	74.85764	-147.27427	-312.44928	655.00435	-263.62908	-268.5111	-205.85851	-165.98868	0
309	-19.52808	-199.34915	-180.63474	109.03178	79.73966	-191.21245	-248.98302	706.26556	-244.101	-251.42403	-196.09447	-161.10666	0
310	20.34175	-187.1441	-207.48585	82.18067	113.9138	-196.09447	-207.48585	737.99869	-214.80888	-231.89595	-183.88942	-153.78363	0
311	30.10579	-182.26208	-212.36787	74.85764	121.23683	-196.09447	-170.8707	3639.54591	-180.63474	-207.48585	-166.80235	-144.01959	0
312	27.66478	-211.5542	-239.21898	91.94471	133.44188	-225.38659	-146.4606	4506.10446	-148.90161	-185.51676	-152.15629	-134.25555	0
313	17.90074	-231.08228	-248.98302	106.59077	133.44188	-240.03265	-114.72747	3375.91683	-117.16848	-163.54767	-137.51023	-122.0505	0
314	-2.44101	-211.5542	-209.92686	106.59077	104.14976	-210.74053	-78.11232	1933.27992	-104.96343	-139.13757	-120.42316	-112.28646	0
315	-12.20505	-209.11319	-197.72181	109.03178	91.94471	-203.4175	-29.29212	1906.42881	-58.58424	-119.60949	-105.7771	-100.08141	0
316	-24.4101	-206.67218	-183.07575	113.9138	79.73966	-196.09447	13.01872	891.78232	-19.52808	-97.6404	-91.13104	-90.31737	0
317	-31.73313	-201.79016	-170.8707	116.35481	69.97562	-186.33043	54.51589	960.1306	20.34175	-78.11232	-76.48498	-75.67131	0
318	-39.05616	-194.46713	-156.22464	116.35481	57.77057	-176.56639	71.60296	1006.50979	39.86983	-61.02525	-64.27993	-63.46626	0
319	-46.37919	-184.70309	-139.13757	113.9138	45.56552	-161.92033	59.39791	1016.27383	17.90074	-46.37919	-52.07488	-53.70222	0
320	-53.70222	-172.49804	-119.60949	111.47279	33.36047	-147.27427	52.07488	-698.12886	30.10579	-36.61515	-42.31084	-43.93818	0
321	-58.58424	-162.734	-104.96343	109.03178	23.59643	-135.06922	56.9569	3966.64125	37.42882	-31.73313	-37.42882	-36.61515	0
322	-58.58424	-155.41097	-97.6404	106.59077	18.71441	-127.74619	59.39791	-11157.04304	42.31084	-26.85111	-32.5468	-31.73313	0
323	-61.02525	-150.52895	-90.31737	104.14976	13.83239	-120.42316	59.39791	3685.9251	44.75185	-24.4101	-27.66478	-24.4101	0
324	-65.90727	-150.52895	-85.43535	106.59077	8.95037	-117.98215	61.83892	-671.27775	49.63387	-19.52808	-20.34175	-14.64606	0
325	-68.34828	-145.64693	-78.11232	106.59077	4.06835	-113.10013	64.27993	-727.42098	54.51589	-14.64606	-13.01872	-4.88202	0
326	-70.78929	-143.20592	-73.2303	106.59077	1.62734	-108.21811	69.16195	-180.63474	59.39791	-7.32303	-3.25468	2.44101	0
327	-75.67131	-140.76491	-65.90727	106.59077	-6.50936	-103.33609	71.60296	1494.71179	64.27993	-2.44101	4.88202	10.57771	0
328	-80.55333	-140.76491	-61.02525	109.03178	-11.39138	-100.89508	76.48498	-136.69656	66.72094	0	9.76404	17.90074	0
329	-80.55333	-140.76491	-61.02525	109.03178	-11.39138	-100.89508	76.48498	-681.04179	69.16195	3.25468	14.64606	22.78276	0
330	-80.55333	-143.20592	-63.46626	111.47279	-8.95037	-103.33609	81.367	-612.69351	71.60296	5.69569	17.08707	27.66478	0
331	-80.55333	-143.20592	-63.46626	111.47279	-8.95037	-103.33609	86.24902	4093.57377	74.04397	5.69569	17.08707	27.66478	0
332	-80.55333	-143.20592	-63.46626	111.47279	-8.95037	-103.33609	91.13104	-605.37048	74.04397	5.69569	17.08707	30.10579	0
333	-80.55333	-143.20592	-63.46626	111.47279	-8.95037	-103.33609	93.57205	-605.37048	74.04397	5.69569	17.08707	30.10579	0
334	-80.55333	-143.20592	-63.46626	111.47279	-8.95037	-103.33609	96.01306	-602.92947	74.04397	5.69569	17.08707	25.22377	0
335	-78.11232	-143.20592	-65.90727	109.03178	-6.50936	-105.7771	100.89508	-666.39573	76.48498	5.69569	14.64606	22.78276	0
336	-73.2303	-143.20592	-70.78929	106.59077	-1.62734	-108.21811	105.7771	-139.13757	78.92599	5.69569	14.64606	20.34175	0
337	-73.2303	-143.20592	-70.78929	106.59077	-1.62734	-108.21811	110.65912	581.77405	81.367	8.1367	12.20505	17.90074	0
338	-75.67131	-145.64693	-70.78929	109.03178	-4.06835	-108.21811	115.54114	-1047.19329	83.80801	8.1367	12.20505	17.90074	0
339	-75.67131	-148.08794	-73.2303	111.47279	-1.62734	-110.65912	115.54114	-1589.09751	86.24902	10.57771	12.20505	15.45973	0
340	-78.11232	-148.08794	-70.78929	111.47279	-4.06835	-110.65912	120.42316	-1528.07226	88.69003	13.01872	14.64606	15.45973	0
341	-80.55333	-150.52895	-70.78929	113.9138	-6.50936	-110.65912	125.30518	-11842.96685	93.57205	15.45973	17.08707	17.90074	0
342	-82.99434	-150.52895	-68.34828	116.35481	-8.95037	-110.65912	130.1872	-1537.8363	98.45407	20.34175	17.08707	20.34175	0
343	-87.87636	-152.96996	-65.90727	118.79582	-11.39138	-110.65912	135.06922	3859.23681	100.89508	20.34175	17.08707	22.78276	0
344	-95.19939	-155.41097	-61.02525	123.67784	-18.71441	-108.21811	139.95124	-1545.15933	105.7771	22.78276	19.52808	25.22377	0
345	-102.52242	-155.41097	-53.70222	128.55986	-26.03744	-105.7771	147.27427	-1608.62559	108.21811	25.22377	24.4101	27.66478	0
346	-104.96343	-152.96996	-48.8202	128.55986	-28.47845	-100.89508	152.15629	-151.34262	113.10013	30.10579	26.85111	32.5468	0
347	-107.40444	-150.52895	-43.93818	128.55986	-33.36047	-98.45407	157.03831	569.569	115.54114	32.5468	29.29212	34.98781	0
348	-112.28646	-152.96996	-41.49717	131.00087	-35.80148	-98.45407	161.92033	-1056.95733	117.98215	34.98781	29.29212	34.98781	0
349	-112.28646	-152.96996	-41.49717	131.00087	-35.80148	-98.45407	164.36134	-2526.44535	120.42316	34.98781	29.29212	34.98781	0
350	-114.72747	-152.96996	-39.05616	133.44188	-38.24249	-96.01306	166.80235	-2460.53808	120.42316	37.42882	29.29212	34.98781	0
351	-114.72747	-155.41097	-41.49717	133.44188	-38.24249	-98.45407	171.68437	-2458.09707	122.86417	42.31084	31.73313	39.86983	0
352	-117.16848	-157.85198	-41.49717	135.88289	-38.24249	-100.89508	176.56639	-2458.09707	125.30518	42.31084	34.17414	42.31084	0
353	-119.60949	-162.734	-43.93818	140.76491	-38.24249	-103.33609	176.56639	-12067.53977	125.30518	44.75185	34.17414	42.31084	0
354	-122.0505	-165.17501	-43.93818	143.20592	-40.6835	-105.7771	179.0074	-2458.09707	125.30518	44.75185	34.17414	44.75185	0
355	-124.49151	-170.05703	-46.37919	145.64693	-40.6835	-108.21811	181.44841	-2524.00434	127.74619	47.19286	34.17414	44.75185	0
356	-126.93252	-170.05703	-43.93818	148.08794	-43.12451	-108.21811	186.33043	-1076.48541	130.1872	49.63387	36.61515	47.19286	0
357	-129.37353	-170.05703	-41.49717	148.08794	-45.56552	-105.7771	191.21245	-356.38746	135.06922	52.07488	39.05616	52.07488	0
358	-131.81454	-170.05703	-39.05616	150.52895	-48.00653	-105.7771	198.53548	-1034.98824	139.95124	56.9569	41.49717	54.51589	0
359	-136.69656	-172.49804	-36.61515	152.96996	-50.44754	-105.7771	203.4175	-2487.38919	144.83326	59.39791	43.93818	54.51589	0
360	-136.69656	-172.49804	-36.61515	152.96996	-50.44754	-105.7771	210.74053	-2411.71788	149.71528	64.27993	46.37919	54.51589	0
361	-139.13757	-172.49804	-34.17414	155.41097	-52.88855	-103.33609	215.62255	-2409.27687	154.5973	69.16195	48.8202	54.51589	0
362	-139.13757	-172.49804	-34.17414	155.41097	-52.88855	-103.33609	220.50457	-2404.39485	157.03831	71.60296	51.26121	54.51589	0
363	-139.13757	-172.49804	-34.17414	155.41097	-52.88855	-103.33609	225.38659	-2401.95384	161.92033	74.04397	53.70222	56.9569	0
364	-139.13757	-174.93905	-36.61515	155.41097	-52.88855	-105.7771	227.8276	-2399.51283	164.36134	76.48498	56.14323	56.9569	0
365	-144.01959	-174.93905	-31.73313	157.85198	-57.77057	-103.33609	230.26861	-2465.4201	166.80235	78.92599	56.14323	56.9569	0
366	-146.4606	-177.38006	-31.73313	160.29299	-57.77057	-105.7771	235.15063	-1025.2242	171.68437	83.80801	56.14323	56.9569	0
367	-144.01959	-174.93905	-31.73313	157.85198	-57.77057	-103.33609	237.59164	-312.44928	171.68437	83.80801	56.14323	54.51589	0
368	-139.13757	-172.49804	-34.17414	155.41097	-52.88855	-103.33609	240.03265	-995.93208	174.12538	86.24902	56.14323	52.07488	0
369	-136.69656	-170.05703	-34.17414	152.96996	-52.88855	-103.33609	244.91467	-2448.33303	174.12538	88.69003	56.14323	52.07488	0
370	-134.25555	-167.61602	-34.17414	150.52895	-50.44754	-100.89508	249.79669	-2372.66172	179.0074	93.57205	56.14323	52.07488	0
371	-134.25555	-162.734	-29.29212	148.08794	-52.88855	-96.01306	257.11972	-2370.22071	183.88942	98.45407	58.58424	52.07488	0
372	-134.25555	-157.85198	-24.4101	145.64693	-55.32956	-91.13104	264.44275	-2365.33869	188.77144	103.33609	61.02525	52.07488	0
373	-129.37353	-150.52895	-21.96909	138.3239	-55.32956	-86.24902	271.76578	-2362.89768	193.65346	108.21811	63.46626	52.07488	0
374	-126.93252	-148.08794	-21.96909	135.88289	-52.88855	-86.24902	276.6478	-2355.57465	196.09447	110.65912	63.46626	52.07488	0
375	-126.93252	-145.64693	-19.52808	135.88289	-55.32956	-83.80801	281.52982	-2423.92293	198.53548	115.54114	63.46626	52.07488	0
376	-124.49151	-140.76491	-17.08707	131.00087	-55.32956	-78.92599	286.41184	-983.72703	200.97649	117.98215	65.90727	54.51589	0
377	-117.16848	-131.00087	-14.64606	123.67784	-52.88855	-74.04397	291.29386	-266.07009	203.4175	122.86417	68.34828	54.51589	0
378	-112.28646	-126.11885	-14.64606	118.79582	-50.44754	-71.60296	296.17588	-944.67087	203.4175	122.86417	68.34828	56.9569	-1500	QRS-0
379	-104.96343	-121.23683	-17.08707	111.47279	-45.56552	-69.16195	296.17588	-2389.74879	203.4175	122.86417	68.34828	54.51589	0
380	-92.75838	-118.79582	-26.85111	104.14976	-33.36047	-74.04397	298.61689	-2311.63647	200.97649	122.86417	65.90727	49.63387	0
381	-85.43535	-113.9138	-29.29212	99.26774	-28.47845	-71.60296	298.61689	-2309.19546	196.09447	122.86417	63.46626	47.19286	0
382	-75.67131	-106.59077	-31.73313	89.5037	-23.59643	-69.16195	301.0579	-2306.75445	196.09447	122.86417	63.46626	44.75185	0
383	-65.90727	-99.26774	-34.17414	82.18067	-16.2734	-66.72094	301.0579	-2304.31344	193.65346	122.86417	61.02525	39.86983	0
384	-56.14323	-94.38572	-39.05616	74.85764	-8.95037	-66.72094	301.0579	-2301.87243	191.21245	122.86417	58.58424	37.42882	0
385	-51.26121	-91.94471	-41.49717	69.97562	-6.50936	-66.72094	301.0579	-2377.54374	188.77144	120.42316	56.14323	30.10579	0
386	-48.8202	-87.06269	-39.05616	67.53461	-6.50936	-64.27993	301.0579	-944.67087	186.33043	120.42316	53.70222	27.66478	0
387	-43.93818	-82.18067	-39.05616	62.65259	-4.06835	-61.83892	301.0579	-1174.12581	186.33043	120.42316	53.70222	27.66478	0
388	-39.05616	-72.41663	-34.17414	55.32956	-4.06835	-54.51589	303.49891	-1852.72659	186.33043	122.86417	56.14323	27.66478	0
389	-31.73313	-62.65259	-31.73313	45.56552	-1.62734	-47.19286	305.93992	-3288.04047	186.33043	125.30518	61.02525	30.10579	0
390	-24.4101	-52.88855	-29.29212	38.24249	1.62734	-42.31084	305.93992	-4144.83498	186.33043	127.74619	61.02525	30.10579	0
391	-19.52808	-45.56552	-26.85111	30.91946	4.06835	-37.42882	308.38093	-4137.51195	183.88942	127.74619	61.02525	30.10579	0
392	-14.64606	-38.24249	-24.4101	26.03744	4.06835	-32.5468	310.82194	-4127.74791	183.88942	127.74619	63.46626	30.10579	0
393	-7.32303	-30.91946	-24.4101	18.71441	8.95037	-27.66478	310.82194	-4117.98387	183.88942	130.1872	68.34828	30.10579	0
394	0.81367	-21.15542	-21.96909	8.95037	11.39138	-20.34175	310.82194	-4105.77882	183.88942	132.62821	68.34828	30.10579	0
395	15.45973	-11.39138	-26.85111	-1.62734	21.15542	-17.90074	308.38093	-3234.33825	181.44841	130.1872	68.34828	27.66478	0
396	27.66478	-4.06835	-31.73313	-11.39138	28.47845	-17.90074	305.93992	-1803.90639	179.0074	127.74619	68.34828	25.22377	0
397	34.98781	1.62734	-34.17414	-18.71441	35.80148	-15.45973	301.0579	-2035.80234	174.12538	125.30518	68.34828	22.78276	0
398	39.86983	4.06835	-36.61515	-21.15542	38.24249	-15.45973	298.61689	-1779.49629	171.68437	122.86417	68.34828	17.90074	0
399	44.75185	11.39138	-34.17414	-28.47845	40.6835	-10.57771	296.17588	-3214.81017	169.24336	122.86417	65.90727	17.90074	0
400	54.51589	21.15542	-34.17414	-38.24249	45.56552	-5.69569	293.73487	-4071.60468	166.80235	120.42316	65.90727	13.01872	0
401	61.83892	30.91946	-31.73313	-45.56552	48.00653	-0.81367	288.85285	-4069.16367	161.92033	117.98215	63.46626	8.1367	0
402	66.72094	38.24249	-29.29212	-52.88855	48.00653	4.88202	286.41184	-4066.72266	159.47932	115.54114	61.02525	2.44101	0
403	69.16195	43.12451	-26.85111	-55.32956	48.00653	9.76404	283.97083	-4064.28165	157.03831	113.10013	61.02525	2.44101	0
404	66.72094	45.56552	-21.96909	-55.32956	45.56552	12.20505	281.52982	-4064.28165	152.15629	110.65912	56.14323	-2.44101	0
405	69.16195	50.44754	-19.52808	-60.21158	45.56552	17.08707	276.6478	-3200.16411	149.71528	108.21811	51.26121	-7.32303	0
406	74.04397	60.21158	-14.64606	-67.53461	45.56552	24.4101	271.76578	-1777.05528	144.83326	105.7771	48.8202	-9.76404	0
407	83.80801	67.53461	-17.08707	-74.85764	50.44754	26.85111	264.44275	-2021.15628	139.95124	100.89508	46.37919	-9.76404	0
408	91.13104	77.29865	-14.64606	-84.62168	52.88855	31.73313	257.11972	-1777.05528	137.51023	98.45407	46.37919	-12.20505	0
409	98.45407	84.62168	-14.64606	-91.94471	57.77057	36.61515	252.2377	-3227.01522	132.62821	96.01306	43.93818	-12.20505	0
410	98.45407	91.94471	-7.32303	-94.38572	52.88855	43.93818	244.91467	-4103.33781	130.1872	93.57205	43.93818	-12.20505	0
411	103.33609	99.26774	-4.88202	-101.70875	55.32956	48.8202	240.03265	-4115.54286	127.74619	93.57205	43.93818	-12.20505	0
412	108.21811	111.47279	3.25468	-109.03178	52.88855	58.58424	235.15063	-4132.62993	125.30518	93.57205	46.37919	-7.32303	0
413	113.10013	121.23683	8.1367	-116.35481	52.88855	65.90727	230.26861	-11730.68039	125.30518	93.57205	51.26121	-2.44101	0
414	117.98215	133.44188	15.45973	-126.11885	52.88855	75.67131	225.38659	1113.91423	125.30518	96.01306	53.70222	-2.44101	0
415	120.42316	140.76491	20.34175	-131.00087	50.44754	80.55333	220.50457	1079.74009	122.86417	96.01306	56.14323	-2.44101	0
416	115.54114	143.20592	27.66478	-128.55986	45.56552	85.43535	213.18154	1055.32999	117.98215	96.01306	56.14323	-2.44101	0
417	110.65912	145.64693	34.98781	-128.55986	38.24249	90.31737	205.85851	1030.91989	113.10013	91.13104	53.70222	-4.88202	0
418	110.65912	152.96996	42.31084	-131.00087	35.80148	97.6404	196.09447	1018.71484	108.21811	88.69003	53.70222	-4.88202	0
419	113.10013	160.29299	47.19286	-135.88289	33.36047	104.96343	186.33043	996.74575	103.33609	86.24902	51.26121	-7.32303	0
420	115.54114	165.17501	49.63387	-140.76491	33.36047	107.40444	176.56639	947.92555	96.01306	83.80801	48.8202	-9.76404	0
421	115.54114	167.61602	52.07488	-140.76491	33.36047	109.84545	164.36134	-11703.82928	88.69003	78.92599	43.93818	-12.20505	0
422	110.65912	167.61602	56.9569	-138.3239	28.47845	112.28646	152.15629	-10734.74831	81.367	71.60296	41.49717	-14.64606	0
423	103.33609	167.61602	64.27993	-135.88289	21.15542	117.16848	142.39225	-12043.12967	74.04397	69.16195	36.61515	-14.64606	0
424	98.45407	167.61602	69.16195	-133.44188	16.2734	119.60949	132.62821	799.02394	69.16195	66.72094	36.61515	-14.64606	0
425	93.57205	170.05703	76.48498	-131.00087	8.95037	124.49151	122.86417	737.99869	61.83892	61.83892	36.61515	-14.64606	0
426	91.13104	170.05703	78.92599	-131.00087	6.50936	124.49151	110.65912	689.17849	54.51589	56.9569	31.73313	-14.64606	0
427	91.13104	167.61602	76.48498	-128.55986	8.95037	122.0505	100.89508	652.56334	49.63387	56.9569	31.73313	-12.20505	0
428	86.24902	167.61602	81.367	-126.11885	4.06835	124.49151	93.57205	611.06617	47.19286	56.9569	34.17414	-9.76404	0
429	78.92599	167.61602	88.69003	-123.67784	-4.06835	129.37353	88.69003	564.68698	44.75185	56.9569	36.61515	-7.32303	0
430	76.48498	167.61602	91.13104	-121.23683	-6.50936	129.37353	81.367	542.71789	42.31084	59.39791	36.61515	-4.88202	0
431	76.48498	167.61602	91.13104	-121.23683	-6.50936	129.37353	74.04397	3866.55984	39.86983	59.39791	36.61515	-4.88202	0
432	71.60296	162.734	91.13104	-116.35481	-8.95037	126.93252	66.72094	4855.16889	34.98781	56.9569	36.61515	-4.88202	0
433	69.16195	155.41097	86.24902	-111.47279	-8.95037	122.0505	59.39791	3561.43359	34.98781	59.39791	39.05616	0	0
434	61.83892	148.08794	86.24902	-104.14976	-11.39138	117.16848	56.9569	413.34436	34.98781	59.39791	43.93818	2.44101	0
435	52.07488	138.3239	86.24902	-94.38572	-16.2734	112.28646	52.07488	369.40618	32.5468	61.83892	43.93818	5.69569	0
436	47.19286	128.55986	81.367	-87.06269	-16.2734	104.96343	44.75185	354.76012	27.66478	59.39791	41.49717	5.69569	0
437	42.31084	116.35481	74.04397	-79.73966	-16.2734	95.19939	39.86983	325.468	22.78276	56.9569	39.05616	5.69569	0
438	37.42882	106.59077	69.16195	-72.41663	-16.2734	87.87636	30.10579	323.02699	15.45973	54.51589	36.61515	5.69569	0
439	30.10579	99.26774	69.16195	-65.0936	-18.71441	85.43535	25.22377	1524.00391	10.57771	52.07488	36.61515	2.44101	0
440	22.78276	89.5037	66.72094	-55.32956	-21.15542	78.11232	22.78276	1582.58815	10.57771	52.07488	36.61515	2.44101	0
441	15.45973	82.18067	66.72094	-48.00653	-26.03744	75.67131	17.90074	1560.61906	5.69569	49.63387	34.17414	2.44101	0
442	13.01872	79.73966	66.72094	-45.56552	-26.03744	73.2303	15.45973	1541.09098	5.69569	49.63387	31.73313	0	0
443	10.57771	77.29865	66.72094	-43.12451	-28.47845	73.2303	13.01872	1524.00391	3.25468	49.63387	31.73313	-4.88202	0
444	3.25468	72.41663	69.16195	-38.24249	-33.36047	70.78929	13.01872	1509.35785	3.25468	49.63387	31.73313	-7.32303	0
445	-2.44101	69.97562	71.60296	-33.36047	-35.80148	70.78929	10.57771	1416.59947	3.25468	49.63387	31.73313	-9.76404	0
446	-9.76404	65.0936	74.04397	-28.47845	-40.6835	68.34828	10.57771	952.80757	3.25468	49.63387	31.73313	-9.76404	0
447	-14.64606	60.21158	74.04397	-23.59643	-43.12451	65.90727	10.57771	703.82455	3.25468	52.07488	31.73313	-9.76404	0
448	-19.52808	55.32956	74.04397	-18.71441	-45.56552	63.46626	8.1367	950.36656	3.25468	52.07488	34.17414	-7.32303	0
449	-17.08707	52.88855	69.16195	-18.71441	-43.12451	61.02525	8.1367	1384.86634	3.25468	49.63387	34.17414	-7.32303	0
450	-17.08707	52.88855	69.16195	-18.71441	-43.12451	61.02525	5.69569	1458.09664	0.81367	49.63387	34.17414	-4.88202	0
451	-14.64606	50.44754	64.27993	-18.71441	-38.24249	56.14323	3.25468	1448.3326	-2.44101	47.19286	34.17414	-2.44101	0
452	-9.76404	45.56552	54.51589	-18.71441	-30.91946	48.8202	-2.44101	1436.12755	-2.44101	44.75185	31.73313	-2.44101	0
453	-7.32303	43.12451	49.63387	-18.71441	-28.47845	46.37919	-2.44101	1423.9225	-4.88202	39.86983	31.73313	0	0
454	-12.20505	38.24249	49.63387	-13.83239	-30.91946	43.93818	-2.44101	1416.59947	-7.32303	34.98781	29.29212	0	0
455	-14.64606	35.80148	49.63387	-11.39138	-30.91946	41.49717	-4.88202	1328.72311	-7.32303	27.66478	29.29212	0	0
456	-14.64606	35.80148	49.63387	-11.39138	-30.91946	41.49717	-4.88202	869.81323	-7.32303	20.34175	26.85111	0	0
457	-17.08707	35.80148	52.07488	-8.95037	-33.36047	43.93818	-4.88202	623.27122	-9.76404	10.57771	24.4101	0	0
458	-19.52808	30.91946	49.63387	-6.50936	-33.36047	39.05616	-9.76404	869.81323	-12.20505	0	21.96909	-2.44101	0
459	-24.4101	26.03744	49.63387	-1.62734	-35.80148	36.61515	-9.76404	1309.19503	-12.20505	-4.88202	21.96909	-2.44101	0
460	-29.29212	26.03744	54.51589	0.81367	-40.6835	39.05616	-9.76404	1389.74836	-12.20505	-14.64606	24.4101	-2.44101	0
461	-29.29212	26.03744	54.51589	0.81367	-40.6835	39.05616	-9.76404	1384.86634	-12.20505	-21.96909	26.85111	-2.44101	0
462	-29.29212	28.47845	56.9569	0.81367	-43.12451	41.49717	-9.76404	1377.54331	-12.20505	-24.4101	26.85111	0	0
463	-24.4101	33.36047	56.9569	-4.06835	-40.6835	43.93818	-9.76404	1372.66129	-12.20505	-26.85111	26.85111	0	0
464	-24.4101	33.36047	56.9569	-4.06835	-40.6835	43.93818	-9.76404	1367.77927	-14.64606	-31.73313	26.85111	0	0
465	-24.4101	30.91946	54.51589	-4.06835	-38.24249	41.49717	-9.76404	1279.90291	-17.08707	-31.73313	29.29212	2.44101	0
466	-29.29212	28.47845	56.9569	0.81367	-43.12451	41.49717	-9.76404	823.43404	-14.64606	-31.73313	31.73313	2.44101	0
467	-29.29212	28.47845	56.9569	0.81367	-43.12451	41.49717	-7.32303	579.33304	-14.64606	-34.17414	31.73313	2.44101	0
468	-29.29212	28.47845	56.9569	0.81367	-43.12451	41.49717	-7.32303	825.87505	-14.64606	-39.05616	29.29212	2.44101	0
469	-26.85111	30.91946	56.9569	-1.62734	-40.6835	43.93818	-7.32303	1262.81584	-17.08707	-43.93818	29.29212	0	0
470	-24.4101	28.47845	52.07488	-1.62734	-38.24249	39.05616	-7.32303	1340.92816	-17.08707	-46.37919	26.85111	0	0
471	-26.85111	23.59643	49.63387	0.81367	-38.24249	36.61515	-9.76404	1333.60513	-19.52808	-48.8202	26.85111	0	0
472	-29.29212	18.71441	47.19286	4.06835	-38.24249	31.73313	-9.76404	1323.84109	-19.52808	-51.26121	26.85111	-2.44101	0
473	-29.29212	18.71441	47.19286	4.06835	-38.24249	31.73313	-9.76404	1311.63604	-19.52808	-53.70222	26.85111	-4.88202	0
474	-29.29212	16.2734	44.75185	6.50936	-35.80148	29.29212	-12.20505	1301.872	-21.96909	-56.14323	24.4101	-4.88202	0
475	-26.85111	16.2734	42.31084	4.06835	-33.36047	29.29212	-12.20505	1201.79059	-21.96909	-58.58424	24.4101	-4.88202	0
476	-26.85111	13.83239	39.86983	6.50936	-33.36047	26.85111	-12.20505	740.4397	-21.96909	-58.58424	24.4101	-4.88202	0
477	-31.73313	11.39138	42.31084	8.95037	-35.80148	26.85111	-12.20505	489.01567	-21.96909	-58.58424	21.96909	-4.88202	0
478	-34.17414	11.39138	44.75185	11.39138	-38.24249	26.85111	-12.20505	733.11667	-24.4101	-58.58424	21.96909	-7.32303	0
479	-36.61515	13.83239	49.63387	11.39138	-43.12451	31.73313	-12.20505	1165.17544	-24.4101	-58.58424	21.96909	-9.76404	0
480	-39.05616	16.2734	54.51589	11.39138	-45.56552	34.17414	-14.64606	1238.40574	-24.4101	-58.58424	19.52808	-9.76404	0
481	-41.49717	13.83239	54.51589	13.83239	-48.00653	34.17414	-14.64606	1226.20069	-26.85111	-58.58424	19.52808	-9.76404	0
482	-46.37919	13.83239	59.39791	16.2734	-52.88855	36.61515	-14.64606	1221.31867	-24.4101	-56.14323	21.96909	-9.76404	0
483	-48.8202	13.83239	61.83892	16.2734	-55.32956	36.61515	-12.20505	1213.99564	-24.4101	-56.14323	21.96909	-12.20505	0
484	-48.8202	13.83239	61.83892	16.2734	-55.32956	36.61515	-12.20505	1209.11362	-24.4101	-51.26121	21.96909	-12.20505	0
485	-43.93818	16.2734	59.39791	13.83239	-50.44754	36.61515	-12.20505	1116.35524	-24.4101	-51.26121	21.96909	-12.20505	0
486	-43.93818	11.39138	54.51589	16.2734	-48.00653	31.73313	-12.20505	662.32738	-24.4101	-51.26121	21.96909	-12.20505	0
487	-46.37919	8.95037	54.51589	18.71441	-50.44754	31.73313	-14.64606	418.22638	-24.4101	-53.70222	21.96909	-14.64606	0
488	-43.93818	6.50936	49.63387	18.71441	-45.56552	26.85111	-14.64606	664.76839	-26.85111	-53.70222	21.96909	-14.64606	0
489	-43.93818	6.50936	49.63387	18.71441	-45.56552	26.85111	-17.08707	1104.15019	-29.29212	-53.70222	21.96909	-12.20505	0
490	-46.37919	4.06835	49.63387	21.15542	-48.00653	26.85111	-19.52808	1182.26251	-29.29212	-56.14323	21.96909	-12.20505	0
491	-41.49717	4.06835	44.75185	18.71441	-43.12451	24.4101	-21.96909	1174.93948	-29.29212	-56.14323	21.96909	-9.76404	0
492	-41.49717	6.50936	47.19286	16.2734	-43.12451	26.85111	-21.96909	1170.05746	-29.29212	-56.14323	24.4101	-7.32303	0
493	-46.37919	6.50936	52.07488	18.71441	-48.00653	29.29212	-21.96909	1162.73443	-29.29212	-56.14323	26.85111	-7.32303	0
494	-46.37919	4.06835	49.63387	21.15542	-48.00653	26.85111	-21.96909	1155.4114	-29.29212	-53.70222	29.29212	-4.88202	0
495	-46.37919	8.95037	54.51589	18.71441	-50.44754	31.73313	-17.08707	1060.21201	-24.4101	-48.8202	31.73313	-4.88202	0
496	-51.26121	8.95037	59.39791	21.15542	-55.32956	34.17414	-14.64606	608.62516	-24.4101	-46.37919	34.17414	-4.88202	0
497	-51.26121	11.39138	61.83892	18.71441	-55.32956	36.61515	-14.64606	364.52416	-19.52808	-46.37919	36.61515	-4.88202	0
498	-48.8202	16.2734	64.27993	16.2734	-55.32956	39.05616	-12.20505	618.3892	-19.52808	-43.93818	36.61515	-4.88202	0
499	-43.93818	16.2734	59.39791	13.83239	-50.44754	36.61515	-14.64606	1062.65302	-19.52808	-46.37919	36.61515	-4.88202	0
500	-41.49717	16.2734	56.9569	11.39138	-48.00653	36.61515	-14.64606	1145.64736	-19.52808	-46.37919	36.61515	-4.88202	0
501	-39.05616	16.2734	54.51589	11.39138	-45.56552	34.17414	-14.64606	1143.20635	-19.52808	-46.37919	36.61515	-7.32303	0
502	-39.05616	16.2734	54.51589	11.39138	-45.56552	34.17414	-17.08707	1143.20635	-19.52808	-46.37919	36.61515	-7.32303	0
503	-36.61515	18.71441	54.51589	8.95037	-45.56552	36.61515	-19.52808	1140.76534	-19.52808	-46.37919	36.61515	-7.32303	0
504	-34.17414	18.71441	52.07488	6.50936	-43.12451	34.17414	-21.96909	1138.32433	-21.96909	-46.37919	36.61515	-7.32303	0
505	-34.17414	18.71441	52.07488	6.50936	-43.12451	34.17414	-24.4101	1126.11928	-21.96909	-46.37919	36.61515	-4.88202	0
506	-34.17414	18.71441	52.07488	6.50936	-43.12451	34.17414	-26.85111	842.96212	-24.4101	-46.37919	36.61515	-2.44101	0
507	-34.17414	18.71441	52.07488	6.50936	-43.12451	34.17414	-29.29212	410.90335	-24.4101	-46.37919	36.61515	-2.44101	0
508	-36.61515	18.71441	54.51589	8.95037	-45.56552	36.61515	-31.73313	418.22638	-24.4101	-46.37919	36.61515	0	0
509	-39.05616	18.71441	56.9569	8.95037	-48.00653	36.61515	-34.17414	852.72616	-24.4101	-46.37919	36.61515	0	0
510	-39.05616	16.2734	54.51589	11.39138	-45.56552	34.17414	-36.61515	1116.35524	-24.4101	-46.37919	36.61515	0	0
511	-41.49717	16.2734	56.9569	11.39138	-48.00653	36.61515	-39.05616	1113.91423	-26.85111	-46.37919	34.17414	-2.44101	0
512	-43.93818	13.83239	56.9569	13.83239	-50.44754	34.17414	-43.93818	1109.03221	-29.29212	-48.8202	31.73313	-2.44101	0
513	-46.37919	13.83239	59.39791	16.2734	-52.88855	36.61515	-43.93818	1101.70918	-29.29212	-48.8202	31.73313	-2.44101	0
514	-46.37919	13.83239	59.39791	16.2734	-52.88855	36.61515	-46.37919	1096.82716	-29.29212	-48.8202	31.73313	-4.88202	0
515	-46.37919	13.83239	59.39791	16.2734	-52.88855	36.61515	-48.8202	1082.1811	-31.73313	-51.26121	29.29212	-7.32303	0
516	-41.49717	13.83239	54.51589	13.83239	-48.00653	34.17414	-51.26121	799.02394	-31.73313	-53.70222	29.29212	-7.32303	0
517	-39.05616	13.83239	52.07488	11.39138	-45.56552	31.73313	-53.70222	369.40618	-34.17414	-53.70222	26.85111	-9.76404	0
518	-39.05616	13.83239	52.07488	11.39138	-45.56552	31.73313	-56.14323	376.72921	-36.61515	-53.70222	24.4101	-12.20505	0
519	-39.05616	13.83239	52.07488	11.39138	-45.56552	31.73313	-56.14323	811.22899	-36.61515	-53.70222	24.4101	-12.20505	0
520	-39.05616	13.83239	52.07488	11.39138	-45.56552	31.73313	-56.14323	1074.85807	-39.05616	-56.14323	24.4101	-14.64606	0
521	-41.49717	11.39138	52.07488	13.83239	-45.56552	31.73313	-61.02525	1072.41706	-41.49717	-56.14323	19.52808	-17.08707	0
522	-43.93818	8.95037	52.07488	16.2734	-48.00653	29.29212	-61.02525	1069.97605	-43.93818	-58.58424	19.52808	-19.52808	0
523	-43.93818	6.50936	49.63387	18.71441	-45.56552	26.85111	-63.46626	1065.09403	-43.93818	-58.58424	17.08707	-21.96909	0
524	-48.8202	4.06835	52.07488	21.15542	-50.44754	26.85111	-63.46626	1057.771	-43.93818	-58.58424	17.08707	-21.96909	0
525	-53.70222	4.06835	56.9569	23.59643	-55.32956	29.29212	-63.46626	1043.12494	-43.93818	-58.58424	14.64606	-21.96909	0
526	-53.70222	1.62734	54.51589	26.03744	-52.88855	26.85111	-65.90727	755.08576	-46.37919	-61.02525	12.20505	-24.4101	0
527	-53.70222	1.62734	54.51589	26.03744	-52.88855	26.85111	-68.34828	323.02699	-46.37919	-63.46626	12.20505	-24.4101	0
528	-56.14323	-1.62734	54.51589	28.47845	-55.32956	26.85111	-70.78929	325.468	-48.8202	-63.46626	9.76404	-26.85111	0
529	-56.14323	-1.62734	54.51589	28.47845	-55.32956	26.85111	-70.78929	759.96778	-46.37919	-63.46626	9.76404	-26.85111	0
530	-56.14323	-1.62734	54.51589	28.47845	-55.32956	26.85111	-70.78929	1026.03787	-43.93818	-63.46626	9.76404	-21.96909	0
531	-56.14323	-1.62734	54.51589	28.47845	-55.32956	26.85111	-70.78929	1026.03787	-41.49717	-63.46626	12.20505	-21.96909	0
532	-56.14323	-1.62734	54.51589	28.47845	-55.32956	26.85111	-70.78929	1026.03787	-36.61515	-58.58424	17.08707	-19.52808	0
533	-56.14323	-1.62734	54.51589	28.47845	-55.32956	26.85111	-68.34828	1026.03787	-34.17414	-56.14323	17.08707	-17.08707	0
534	-53.70222	-1.62734	52.07488	26.03744	-52.88855	24.4101	-68.34828	1023.59686	-31.73313	-56.14323	19.52808	-17.08707	0
535	-53.70222	-4.06835	49.63387	28.47845	-52.88855	21.96909	-70.78929	1011.39181	-31.73313	-56.14323	19.52808	-19.52808	0
536	-56.14323	-6.50936	49.63387	30.91946	-52.88855	21.96909	-73.2303	733.11667	-31.73313	-56.14323	19.52808	-19.52808	0
537	-56.14323	-6.50936	49.63387	30.91946	-52.88855	21.96909	-75.67131	308.38093	-34.17414	-58.58424	17.08707	-21.96909	0
538	-56.14323	-13.83239	42.31084	33.36047	-50.44754	14.64606	-80.55333	315.70396	-36.61515	-61.02525	14.64606	-24.4101	0
539	-58.58424	-18.71441	39.86983	38.24249	-50.44754	9.76404	-85.43535	747.76273	-41.49717	-63.46626	9.76404	-26.85111	0
540	-58.58424	-21.15542	37.42882	38.24249	-48.00653	7.32303	-90.31737	1013.83282	-43.93818	-68.34828	7.32303	-31.73313	0
541	-61.02525	-23.59643	37.42882	40.6835	-50.44754	7.32303	-92.75838	1011.39181	-48.8202	-70.78929	4.88202	-31.73313	0
542	-61.02525	-23.59643	37.42882	40.6835	-50.44754	7.32303	-95.19939	1011.39181	-51.26121	-70.78929	4.88202	-31.73313	0
543	-58.58424	-21.15542	37.42882	38.24249	-48.00653	7.32303	-95.19939	1008.9508	-51.26121	-70.78929	4.88202	-31.73313	0
544	-48.8202	-16.2734	32.5468	30.91946	-40.6835	7.32303	-95.19939	1008.9508	-51.26121	-70.78929	4.88202	-31.73313	0
545	-43.93818	-11.39138	32.5468	26.03744	-38.24249	9.76404	-95.19939	996.74575	-51.26121	-68.34828	4.88202	-31.73313	0
546	-36.61515	-6.50936	30.10579	21.15542	-33.36047	12.20505	-92.75838	720.91162	-48.8202	-65.90727	7.32303	-29.29212	0
547	-31.73313	-1.62734	30.10579	16.2734	-30.91946	14.64606	-90.31737	298.61689	-46.37919	-65.90727	9.76404	-29.29212	0
548	-26.85111	-1.62734	25.22377	13.83239	-26.03744	12.20505	-90.31737	310.82194	-46.37919	-63.46626	9.76404	-29.29212	0
549	-19.52808	1.62734	20.34175	8.95037	-18.71441	9.76404	-90.31737	747.76273	-46.37919	-63.46626	9.76404	-34.17414	0
550	-17.08707	1.62734	17.90074	6.50936	-16.2734	9.76404	-95.19939	1016.27383	-48.8202	-65.90727	4.88202	-39.05616	0
551	-19.52808	-1.62734	17.90074	8.95037	-18.71441	7.32303	-100.08141	1018.71484	-53.70222	-70.78929	2.44101	-46.37919	0
552	-19.52808	-4.06835	15.45973	11.39138	-18.71441	4.88202	-104.96343	1023.59686	-56.14323	-75.67131	-3.25468	-51.26121	0
553	-21.96909	-11.39138	10.57771	16.2734	-16.2734	-0.81367	-107.40444	1026.03787	-58.58424	-78.11232	-5.69569	-56.14323	0
554	-26.85111	-16.2734	10.57771	21.15542	-18.71441	-3.25468	-109.84545	1028.47888	-61.02525	-82.99434	-10.57771	-58.58424	0
555	-26.85111	-18.71441	8.1367	21.15542	-18.71441	-5.69569	-112.28646	1016.27383	-63.46626	-85.43535	-13.01872	-61.02525	0
556	-24.4101	-16.2734	8.1367	18.71441	-16.2734	-5.69569	-112.28646	745.32172	-63.46626	-85.43535	-15.45973	-61.02525	0
557	-24.4101	-13.83239	10.57771	18.71441	-18.71441	-3.25468	-112.28646	327.90901	-63.46626	-85.43535	-15.45973	-58.58424	0
558	-24.4101	-8.95037	15.45973	16.2734	-21.15542	2.44101	-107.40444	344.99608	-61.02525	-82.99434	-13.01872	-53.70222	0
559	-21.96909	-1.62734	20.34175	11.39138	-21.15542	9.76404	-104.96343	784.37788	-58.58424	-78.11232	-10.57771	-48.8202	0
560	-21.96909	1.62734	22.78276	8.95037	-21.15542	12.20505	-100.08141	1060.21201	-51.26121	-70.78929	-5.69569	-39.05616	0
561	-21.96909	8.95037	30.10579	6.50936	-26.03744	19.52808	-95.19939	1065.09403	-43.93818	-63.46626	0	-29.29212	0
562	-19.52808	16.2734	34.98781	0.81367	-26.03744	24.4101	-90.31737	1072.41706	-39.05616	-58.58424	4.88202	-24.4101	0
563	-19.52808	21.15542	39.86983	-1.62734	-28.47845	29.29212	-85.43535	1079.74009	-34.17414	-53.70222	9.76404	-19.52808	0
564	-19.52808	28.47845	47.19286	-4.06835	-33.36047	36.61515	-80.55333	1084.62211	-29.29212	-48.8202	12.20505	-19.52808	0
565	-19.52808	33.36047	52.07488	-6.50936	-35.80148	41.49717	-75.67131	1072.41706	-21.96909	-43.93818	14.64606	-17.08707	0
566	-19.52808	35.80148	54.51589	-8.95037	-35.80148	43.93818	-73.2303	796.58293	-17.08707	-39.05616	19.52808	-14.64606	0
567	-17.08707	38.24249	54.51589	-11.39138	-35.80148	46.37919	-68.34828	379.17022	-14.64606	-36.61515	21.96909	-14.64606	0
568	-19.52808	38.24249	56.9569	-8.95037	-38.24249	46.37919	-68.34828	391.37527	-9.76404	-34.17414	21.96909	-12.20505	0
569	-21.96909	40.6835	61.83892	-8.95037	-40.6835	51.26121	-65.90727	828.31606	-7.32303	-31.73313	24.4101	-12.20505	0
570	-21.96909	45.56552	66.72094	-11.39138	-43.12451	56.14323	-61.02525	1099.26817	-4.88202	-29.29212	26.85111	-9.76404	0
571	-17.08707	50.44754	66.72094	-16.2734	-40.6835	58.58424	-61.02525	1104.15019	-4.88202	-26.85111	29.29212	-9.76404	0
572	-14.64606	50.44754	64.27993	-18.71441	-38.24249	56.14323	-61.02525	1109.03221	-2.44101	-26.85111	29.29212	-7.32303	0
573	-12.20505	52.88855	64.27993	-21.15542	-38.24249	58.58424	-61.02525	1116.35524	-2.44101	-26.85111	26.85111	-9.76404	0
574	-9.76404	55.32956	64.27993	-23.59643	-35.80148	58.58424	-61.02525	1123.67827	-4.88202	-26.85111	24.4101	-12.20505	0
575	-9.76404	55.32956	64.27993	-23.59643	-35.80148	58.58424	-63.46626	1113.91423	-7.32303	-29.29212	21.96909	-14.64606	0
576	-7.32303	55.32956	61.83892	-23.59643	-33.36047	58.58424	-65.90727	840.52111	-9.76404	-31.73313	17.08707	-19.52808	0
577	0.81367	60.21158	59.39791	-30.91946	-28.47845	61.02525	-68.34828	425.54941	-14.64606	-34.17414	12.20505	-26.85111	0
578	8.1367	62.65259	54.51589	-35.80148	-23.59643	58.58424	-75.67131	437.75446	-19.52808	-39.05616	4.88202	-34.17414	0
579	13.01872	62.65259	49.63387	-38.24249	-18.71441	56.14323	-80.55333	877.13626	-24.4101	-43.93818	0	-39.05616	0
580	17.90074	67.53461	49.63387	-43.12451	-16.2734	58.58424	-85.43535	1148.08837	-29.29212	-46.37919	0	-41.49717	0
581	20.34175	69.97562	49.63387	-45.56552	-13.83239	61.02525	-90.31737	1148.08837	-31.73313	-46.37919	-3.25468	-41.49717	0
582	15.45973	69.97562	54.51589	-43.12451	-18.71441	63.46626	-92.75838	1148.08837	-34.17414	-46.37919	-3.25468	-36.61515	0
583	10.57771	72.41663	61.83892	-40.6835	-26.03744	68.34828	-95.19939	1155.4114	-36.61515	-46.37919	0	-31.73313	0
584	8.1367	77.29865	69.16195	-43.12451	-30.91946	73.2303	-97.6404	1160.29342	-36.61515	-46.37919	4.88202	-24.4101	0
585	5.69569	77.29865	71.60296	-40.6835	-33.36047	75.67131	-97.6404	1148.08837	-36.61515	-43.93818	7.32303	-19.52808	0
586	0.81367	77.29865	76.48498	-38.24249	-38.24249	78.11232	-97.6404	872.25424	-34.17414	-43.93818	7.32303	-17.08707	0
587	-2.44101	74.85764	76.48498	-35.80148	-38.24249	75.67131	-97.6404	452.40052	-34.17414	-43.93818	9.76404	-14.64606	0
588	-4.88202	69.97562	74.04397	-33.36047	-38.24249	70.78929	-100.08141	464.60557	-34.17414	-43.93818	7.32303	-14.64606	0
589	-9.76404	67.53461	76.48498	-28.47845	-43.12451	70.78929	-102.52242	906.42838	-36.61515	-46.37919	4.88202	-17.08707	0
590	-9.76404	65.0936	74.04397	-28.47845	-40.6835	68.34828	-104.96343	1172.49847	-36.61515	-48.8202	2.44101	-21.96909	0
591	-4.88202	60.21158	64.27993	-28.47845	-33.36047	61.02525	-107.40444	1170.05746	-39.05616	-51.26121	-3.25468	-26.85111	0
592	-2.44101	57.77057	59.39791	-28.47845	-30.91946	58.58424	-109.84545	1162.73443	-43.93818	-56.14323	-8.1367	-34.17414	0
593	-2.44101	52.88855	54.51589	-26.03744	-28.47845	53.70222	-114.72747	1157.85241	-48.8202	-63.46626	-13.01872	-39.05616	0
594	0.81367	48.00653	47.19286	-23.59643	-23.59643	48.8202	-117.16848	1150.52938	-53.70222	-68.34828	-20.34175	-43.93818	0
595	3.25468	48.00653	44.75185	-26.03744	-21.15542	46.37919	-119.60949	1128.56029	-58.58424	-73.2303	-25.22377	-48.8202	0
596	10.57771	48.00653	37.42882	-28.47845	-13.83239	43.93818	-124.49151	840.52111	-61.02525	-78.11232	-32.5468	-53.70222	0
597	13.01872	45.56552	32.5468	-28.47845	-8.95037	39.05616	-126.93252	410.90335	-68.34828	-82.99434	-39.86983	-61.02525	0
598	15.45973	40.6835	25.22377	-28.47845	-4.06835	34.17414	-131.81454	418.22638	-73.2303	-87.87636	-47.19286	-65.90727	0
599	17.90074	35.80148	17.90074	-26.03744	1.62734	26.85111	-131.81454	857.60818	-75.67131	-92.75838	-52.07488	-70.78929	0
600	17.90074	28.47845	10.57771	-23.59643	4.06835	19.52808	-134.25555	1131.0013	-78.11232	-95.19939	-54.51589	-73.2303	0
601	17.90074	21.15542	3.25468	-18.71441	8.95037	12.20505	-134.25555	1131.0013	-78.11232	-95.19939	-59.39791	-75.67131	0
602	15.45973	13.83239	-2.44101	-13.83239	8.95037	7.32303	-136.69656	1131.0013	-78.11232	-97.6404	-61.83892	-78.11232	0
603	10.57771	6.50936	-4.88202	-8.95037	8.95037	2.44101	-136.69656	1131.0013	-78.11232	-97.6404	-61.83892	-80.55333	0
604	3.25468	-4.06835	-7.32303	0.81367	4.06835	-5.69569	-136.69656	1131.0013	-78.11232	-97.6404	-64.27993	-80.55333	0
605	-2.44101	-11.39138	-9.76404	6.50936	4.06835	-10.57771	-134.25555	1121.23726	-78.11232	-97.6404	-64.27993	-80.55333	0
606	-7.32303	-18.71441	-12.20505	11.39138	1.62734	-15.45973	-131.81454	840.52111	-73.2303	-95.19939	-59.39791	-78.11232	0
607	-9.76404	-23.59643	-14.64606	16.2734	1.62734	-20.34175	-129.37353	418.22638	-68.34828	-92.75838	-54.51589	-75.67131	0
608	-14.64606	-26.03744	-12.20505	18.71441	-1.62734	-20.34175	-129.37353	432.87244	-68.34828	-92.75838	-54.51589	-73.2303	0
609	-17.08707	-26.03744	-9.76404	21.15542	-4.06835	-17.90074	-129.37353	879.57727	-65.90727	-92.75838	-52.07488	-73.2303	0
610	-19.52808	-26.03744	-7.32303	21.15542	-6.50936	-17.90074	-126.93252	1157.85241	-65.90727	-92.75838	-49.63387	-73.2303	0
611	-19.52808	-26.03744	-7.32303	21.15542	-6.50936	-17.90074	-126.93252	1157.85241	-63.46626	-92.75838	-49.63387	-73.2303	0
612	-19.52808	-30.91946	-12.20505	23.59643	-4.06835	-22.78276	-126.93252	1162.73443	-63.46626	-92.75838	-49.63387	-73.2303	0
613	-17.08707	-30.91946	-14.64606	23.59643	-1.62734	-22.78276	-126.93252	1167.61645	-63.46626	-92.75838	-49.63387	-73.2303	0
614	-14.64606	-30.91946	-17.08707	21.15542	1.62734	-25.22377	-126.93252	1170.05746	-63.46626	-92.75838	-49.63387	-73.2303	0
615	-14.64606	-35.80148	-21.96909	23.59643	4.06835	-30.10579	-126.93252	1157.85241	-63.46626	-95.19939	-52.07488	-73.2303	0
616	-17.08707	-40.6835	-24.4101	28.47845	4.06835	-32.5468	-126.93252	874.69525	-63.46626	-95.19939	-54.51589	-73.2303	0
617	-19.52808	-45.56552	-26.85111	30.91946	4.06835	-37.42882	-126.93252	449.95951	-63.46626	-95.19939	-54.51589	-73.2303	0
618	-21.96909	-55.32956	-34.17414	38.24249	6.50936	-44.75185	-126.93252	467.04658	-63.46626	-97.6404	-56.9569	-75.67131	0
619	-26.85111	-60.21158	-34.17414	43.12451	4.06835	-47.19286	-124.49151	918.63343	-63.46626	-97.6404	-59.39791	-78.11232	0
620	-34.17414	-67.53461	-34.17414	50.44754	-1.62734	-52.07488	-122.0505	1196.90857	-63.46626	-97.6404	-59.39791	-78.11232	0
621	-39.05616	-69.97562	-31.73313	52.88855	-4.06835	-52.07488	-122.0505	1201.79059	-63.46626	-97.6404	-59.39791	-80.55333	0
622	-41.49717	-74.85764	-34.17414	57.77057	-4.06835	-54.51589	-122.0505	1201.79059	-63.46626	-97.6404	-61.83892	-82.99434	0
623	-41.49717	-77.29865	-36.61515	57.77057	-4.06835	-56.9569	-122.0505	1204.2316	-63.46626	-97.6404	-64.27993	-85.43535	0
624	-39.05616	-79.73966	-41.49717	57.77057	1.62734	-61.83892	-122.0505	1206.67261	-65.90727	-100.08141	-64.27993	-87.87636	0
625	-39.05616	-82.18067	-43.93818	60.21158	1.62734	-64.27993	-124.49151	1189.58554	-65.90727	-100.08141	-66.72094	-90.31737	0
626	-39.05616	-82.18067	-43.93818	60.21158	1.62734	-64.27993	-126.93252	901.54636	-65.90727	-100.08141	-66.72094	-92.75838	0
627	-39.05616	-82.18067	-43.93818	60.21158	1.62734	-64.27993	-124.49151	471.9286	-65.90727	-100.08141	-66.72094	-92.75838	0
628	-41.49717	-84.62168	-43.93818	62.65259	1.62734	-64.27993	-122.0505	486.57466	-63.46626	-97.6404	-66.72094	-92.75838	0
629	-41.49717	-87.06269	-46.37919	62.65259	1.62734	-66.72094	-119.60949	943.04353	-63.46626	-95.19939	-64.27993	-90.31737	0
630	-43.93818	-87.06269	-43.93818	65.0936	-1.62734	-66.72094	-119.60949	1223.75968	-63.46626	-95.19939	-64.27993	-87.87636	0
631	-43.93818	-84.62168	-41.49717	62.65259	-1.62734	-64.27993	-119.60949	1226.20069	-61.02525	-92.75838	-64.27993	-85.43535	0
632	-41.49717	-79.73966	-39.05616	60.21158	-1.62734	-59.39791	-117.16848	1233.52372	-58.58424	-90.31737	-59.39791	-80.55333	0
633	-36.61515	-74.85764	-39.05616	55.32956	1.62734	-56.9569	-112.28646	1243.28776	-53.70222	-85.43535	-54.51589	-73.2303	0
634	-31.73313	-69.97562	-39.05616	50.44754	4.06835	-54.51589	-107.40444	1253.0518	-48.8202	-80.55333	-52.07488	-70.78929	0
635	-31.73313	-69.97562	-39.05616	50.44754	4.06835	-54.51589	-104.96343	1243.28776	-48.8202	-80.55333	-49.63387	-65.90727	0
636	-31.73313	-67.53461	-36.61515	48.00653	1.62734	-52.07488	-102.52242	962.57161	-46.37919	-80.55333	-49.63387	-65.90727	0
637	-26.85111	-65.0936	-39.05616	45.56552	6.50936	-52.07488	-102.52242	535.39486	-46.37919	-80.55333	-49.63387	-65.90727	0
638	-24.4101	-62.65259	-39.05616	43.12451	6.50936	-52.07488	-100.08141	557.36395	-43.93818	-78.11232	-49.63387	-65.90727	0
639	-21.96909	-60.21158	-39.05616	40.6835	8.95037	-49.63387	-97.6404	1023.59686	-43.93818	-75.67131	-49.63387	-65.90727	0
640	-21.96909	-65.0936	-43.93818	43.12451	11.39138	-54.51589	-97.6404	1311.63604	-41.49717	-73.2303	-47.19286	-63.46626	0
641	-29.29212	-67.53461	-39.05616	48.00653	4.06835	-54.51589	-97.6404	1311.63604	-41.49717	-73.2303	-47.19286	-63.46626	0
642	-31.73313	-69.97562	-39.05616	50.44754	4.06835	-54.51589	-97.6404	1311.63604	-43.93818	-75.67131	-47.19286	-63.46626	0
643	-34.17414	-72.41663	-39.05616	52.88855	1.62734	-56.9569	-97.6404	1311.63604	-43.93818	-73.2303	-47.19286	-63.46626	0
644	-34.17414	-72.41663	-39.05616	52.88855	1.62734	-56.9569	-97.6404	1311.63604	-41.49717	-73.2303	-44.75185	-61.02525	0
645	-34.17414	-69.97562	-36.61515	50.44754	1.62734	-54.51589	-97.6404	1296.98998	-39.05616	-68.34828	-39.86983	-58.58424	0
646	-36.61515	-69.97562	-34.17414	52.88855	-1.62734	-52.07488	-95.19939	1004.06878	-36.61515	-65.90727	-37.42882	-58.58424	-1250	T-0
647	-43.93818	-72.41663	-29.29212	57.77057	-8.95037	-52.07488	-92.75838	572.01001	-36.61515	-65.90727	-34.98781	-56.14323	0
648	-48.8202	-72.41663	-24.4101	60.21158	-13.83239	-49.63387	-92.75838	591.53809	-36.61515	-63.46626	-34.98781	-56.14323	0
649	-51.26121	-74.85764	-24.4101	62.65259	-13.83239	-49.63387	-92.75838	1057.771	-36.61515	-63.46626	-34.98781	-56.14323	0
650	-53.70222	-74.85764	-21.96909	62.65259	-16.2734	-49.63387	-95.19939	1345.81018	-36.61515	-65.90727	-37.42882	-58.58424	0
651	-56.14323	-74.85764	-19.52808	65.0936	-18.71441	-47.19286	-97.6404	1348.25119	-39.05616	-65.90727	-42.31084	-61.02525	0
652	-58.58424	-74.85764	-17.08707	65.0936	-21.15542	-47.19286	-100.08141	1350.6922	-41.49717	-70.78929	-44.75185	-63.46626	0
653	-58.58424	-77.29865	-19.52808	67.53461	-21.15542	-49.63387	-100.08141	1353.13321	-41.49717	-70.78929	-47.19286	-65.90727	0
654	-53.70222	-77.29865	-24.4101	65.0936	-16.2734	-52.07488	-104.96343	1345.81018	-41.49717	-73.2303	-49.63387	-68.34828	0
655	-58.58424	-62.65259	-4.88202	60.21158	-28.47845	-34.98781	-107.40444	1318.95907	-46.37919	-75.67131	-54.51589	-70.78929	0
656	-61.02525	-79.73966	-19.52808	69.97562	-21.15542	-49.63387	-109.84545	1008.9508	-48.8202	-78.11232	-54.51589	-73.2303	0
657	-36.61515	-79.73966	-43.93818	57.77057	4.06835	-61.83892	-104.96343	-119.60949	-36.61515	-80.55333	-56.9569	-75.67131	0
658	-12.20505	-89.5037	-78.11232	50.44754	33.36047	-83.80801	-109.84545	-153.78363	-41.49717	-80.55333	-56.9569	-75.67131	0
659	5.69569	-87.06269	-92.75838	40.6835	48.00653	-88.69003	-117.16848	-173.31171	-48.8202	-78.11232	-56.9569	-78.11232	0
660	32.5468	-79.73966	-112.28646	23.59643	72.41663	-96.01306	-126.93252	-146.4606	-58.58424	-85.43535	-56.9569	-80.55333	0
661	66.72094	-67.53461	-134.25555	0.81367	99.26774	-100.89508	-131.81454	1620.83064	-63.46626	-95.19939	-64.27993	-90.31737	0
662	93.57205	-26.03744	-119.60949	-33.36047	106.59077	-71.60296	-114.72747	4694.06223	-53.70222	-80.55333	-56.9569	-97.6404	0
663	127.74619	26.03744	-102.52242	-77.29865	116.35481	-37.42882	-129.37353	4684.29819	-63.46626	-82.99434	-54.51589	-109.84545	0
664	191.21245	96.82673	-95.19939	-143.20592	143.20592	2.44101	-205.04484	1494.71179	-112.28646	-122.0505	-78.92599	-126.93252	0
665	269.32477	196.90814	-73.2303	-233.52329	172.49804	63.46626	-322.21332	1123.67827	-202.60383	-190.39878	-132.62821	-148.90161	0
666	320.58598	284.7845	-36.61515	-301.87157	179.82107	124.49151	-385.67958	755.08576	-248.98302	-224.57292	-161.92033	-170.8707	0
667	376.72921	370.21985	-7.32303	-372.66086	192.02612	183.07575	-485.76099	-485.76099	-317.3313	-263.62908	-191.21245	-197.72181	0
668	481.69264	431.2451	-51.26121	-455.6552	267.69743	190.39878	-576.07836	-593.16543	-383.23857	-305.12625	-225.38659	-224.57292	0
669	557.36395	438.56813	-119.60949	-497.15237	338.48672	161.10666	-627.33957	-649.30866	-432.05877	-368.59251	-257.11972	-251.42403	0
670	591.53809	426.36308	-165.98868	-509.35742	379.98389	131.81454	-656.63169	-654.19068	-468.67392	-402.76665	-283.97083	-275.83413	0
671	669.65041	484.94732	-185.51676	-577.7057	428.80409	151.34262	-681.04179	1162.73443	-493.08402	-417.41271	-301.0579	-288.03918	0
672	679.41445	401.95298	-278.27514	-541.09055	480.0653	63.46626	-683.4828	4274.20851	-502.84806	-436.94079	-342.55507	-295.36221	0
673	633.03526	245.72834	-388.12059	-438.56813	511.79843	-71.60296	-666.39573	4310.82366	-510.17109	-451.58685	-369.40618	-297.80322	0
674	567.12799	179.82107	-388.12059	-372.66086	477.62429	-103.33609	-632.22159	1160.29342	-488.202	-429.61776	-354.76012	-295.36221	0
675	430.43143	143.20592	-288.03918	-287.22551	360.45581	-71.60296	-568.75533	-502.84806	-458.90988	-395.44362	-313.26295	-285.59817	0
676	327.90901	74.85764	-253.86504	-201.79016	292.10753	-88.69003	-578.51937	-461.35089	-441.82281	-385.67958	-305.93992	-275.83413	0
677	208.29952	-11.39138	-219.6909	-99.26774	213.99521	-115.54114	-573.63735	-427.17675	-446.70483	-366.1515	-288.85285	-256.30605	0
678	108.21811	-55.32956	-163.54767	-26.03744	135.88289	-108.21811	-539.46321	-385.67958	-422.29473	-341.7414	-266.88376	-234.33696	0
679	71.60296	-84.62168	-156.22464	6.50936	113.9138	-120.42316	-500.40705	-351.50544	-393.00261	-319.77231	-249.79669	-219.6909	0
680	30.10579	-138.3239	-168.42969	52.88855	99.26774	-152.15629	-454.02786	-307.56726	-358.82847	-312.44928	-237.59164	-209.92686	0
681	10.57771	-150.52895	-161.10666	69.97562	84.62168	-154.5973	-371.03352	1609.43926	-297.80322	-283.15716	-225.38659	-200.16282	0
682	-9.76404	-196.90814	-187.95777	101.70875	89.5037	-193.65346	-290.48019	4769.73354	-275.83413	-261.18807	-210.74053	-192.83979	0
683	-7.32303	-226.20026	-219.6909	116.35481	106.59077	-222.94558	-241.65999	4808.7897	-224.57292	-239.21898	-198.53548	-187.95777	0
684	20.34175	-218.87723	-239.21898	99.26774	128.55986	-227.8276	-214.80888	1657.44579	-212.36787	-214.80888	-183.88942	-183.07575	0
685	22.78276	-226.20026	-248.98302	101.70875	135.88289	-237.59164	-178.19373	-73.2303	-175.75272	-190.39878	-166.80235	-175.75272	0
686	27.66478	-228.64127	-256.30605	99.26774	140.76491	-242.47366	-139.13757	-51.26121	-161.10666	-163.54767	-149.71528	-165.98868	0
687	-2.44101	-223.75925	-222.13191	111.47279	109.03178	-222.94558	-109.84545	-56.14323	-136.69656	-141.57858	-132.62821	-156.22464	0
688	-7.32303	-218.87723	-212.36787	111.47279	101.70875	-215.62255	-63.46626	-48.00653	-90.31737	-114.72747	-113.10013	-144.01959	0
689	-19.52808	-211.5542	-192.83979	113.9138	87.06269	-203.4175	-12.20505	3.25468	-39.05616	-87.87636	-91.13104	-126.93252	0
690	-34.17414	-206.67218	-173.31171	118.79582	69.97562	-191.21245	25.22377	86.24902	-4.88202	-36.61515	-71.60296	-109.84545	0
691	-51.26121	-199.34915	-148.90161	123.67784	48.00653	-174.12538	47.19286	2038.24335	17.90074	-41.49717	-49.63387	-92.75838	0
692	-68.34828	-192.02612	-124.49151	128.55986	28.47845	-159.47932	54.51589	5217.25204	8.1367	-21.96909	-32.5468	-75.67131	0
693	-80.55333	-182.26208	-102.52242	131.00087	11.39138	-142.39225	59.39791	5229.45709	22.78276	-4.88202	-17.90074	-61.02525	0
694	-85.43535	-172.49804	-87.87636	128.55986	1.62734	-130.1872	52.07488	1994.30517	32.5468	0	-8.1367	-51.26121	0
695	-87.87636	-165.17501	-78.11232	126.11885	-6.50936	-122.86417	54.51589	1713.58902	37.42882	8.1367	0	-43.93818	0
696	-90.31737	-157.85198	-68.34828	123.67784	-11.39138	-113.10013	54.51589	1401.95341	39.86983	15.45973	4.88202	-34.17414	0
697	-97.6404	-155.41097	-58.58424	126.11885	-21.15542	-108.21811	54.51589	220.50457	42.31084	17.90074	9.76404	-29.29212	0
698	-97.6404	-150.52895	-53.70222	123.67784	-23.59643	-103.33609	56.9569	39.86983	44.75185	22.78276	14.64606	-24.4101	0
699	-95.19939	-145.64693	-51.26121	118.79582	-23.59643	-98.45407	59.39791	-1340.11449	47.19286	25.22377	19.52808	-19.52808	0
700	-95.19939	-143.20592	-48.8202	118.79582	-23.59643	-96.01306	59.39791	-1020.34218	49.63387	30.10579	21.96909	-14.64606	0
701	-92.75838	-138.3239	-46.37919	113.9138	-23.59643	-93.57205	61.83892	-1013.01915	49.63387	32.5468	24.4101	-14.64606	0
702	-92.75838	-135.88289	-43.93818	113.9138	-26.03744	-91.13104	64.27993	-10639.54892	54.51589	34.98781	26.85111	-12.20505	0
703	-92.75838	-135.88289	-43.93818	113.9138	-26.03744	-91.13104	66.72094	-10641.98993	54.51589	37.42882	26.85111	-12.20505	0
704	-95.19939	-140.76491	-46.37919	116.35481	-26.03744	-93.57205	66.72094	-993.49107	54.51589	37.42882	26.85111	-14.64606	0
705	-95.19939	-143.20592	-48.8202	118.79582	-23.59643	-96.01306	69.16195	-1013.01915	56.9569	37.42882	26.85111	-17.08707	0
706	-92.75838	-143.20592	-51.26121	116.35481	-21.15542	-98.45407	71.60296	-1337.67348	56.9569	37.42882	26.85111	-17.08707	0
707	-90.31737	-143.20592	-53.70222	116.35481	-18.71441	-98.45407	71.60296	88.69003	59.39791	37.42882	29.29212	-19.52808	0
708	-90.31737	-143.20592	-53.70222	116.35481	-18.71441	-98.45407	76.48498	110.65912	61.83892	39.86983	29.29212	-19.52808	0
709	-92.75838	-143.20592	-51.26121	116.35481	-21.15542	-98.45407	78.92599	-1269.3252	64.27993	42.31084	34.17414	-19.52808	0
710	-97.6404	-145.64693	-48.8202	121.23683	-26.03744	-98.45407	81.367	-949.55289	64.27993	42.31084	36.61515	-19.52808	0
711	-102.52242	-148.08794	-46.37919	123.67784	-28.47845	-98.45407	83.80801	-947.11188	66.72094	44.75185	39.05616	-17.08707	0
712	-107.40444	-148.08794	-41.49717	126.11885	-33.36047	-96.01306	88.69003	-942.22986	71.60296	47.19286	43.93818	-12.20505	0
713	-114.72747	-150.52895	-36.61515	131.00087	-40.6835	-93.57205	93.57205	-934.90683	78.92599	52.07488	48.8202	-7.32303	0
714	-122.0505	-150.52895	-29.29212	135.88289	-48.00653	-91.13104	98.45407	-927.5838	83.80801	56.9569	53.70222	-2.44101	0
715	-129.37353	-155.41097	-26.85111	140.76491	-52.88855	-91.13104	103.33609	-947.11188	88.69003	59.39791	58.58424	0	0
716	-134.25555	-155.41097	-21.96909	143.20592	-57.77057	-88.69003	108.21811	-1274.20722	93.57205	61.83892	58.58424	2.44101	0
717	-134.25555	-152.96996	-19.52808	143.20592	-57.77057	-86.24902	113.10013	157.03831	96.01306	64.27993	63.46626	2.44101	0
718	-131.81454	-150.52895	-19.52808	140.76491	-57.77057	-86.24902	117.98215	183.88942	100.89508	66.72094	65.90727	2.44101	0
719	-129.37353	-148.08794	-19.52808	138.3239	-55.32956	-83.80801	122.86417	-1188.77187	103.33609	69.16195	65.90727	5.69569	0
720	-124.49151	-143.20592	-19.52808	133.44188	-52.88855	-81.367	127.74619	-859.23552	110.65912	71.60296	70.78929	5.69569	0
721	-119.60949	-138.3239	-19.52808	128.55986	-50.44754	-78.92599	132.62821	-851.91249	113.10013	74.04397	70.78929	8.1367	0
722	-117.16848	-135.88289	-19.52808	126.11885	-50.44754	-78.92599	137.51023	-844.58946	115.54114	76.48498	70.78929	8.1367	0
723	-117.16848	-133.44188	-17.08707	123.67784	-50.44754	-76.48498	139.95124	-834.82542	117.98215	76.48498	70.78929	8.1367	0
724	-122.0505	-135.88289	-14.64606	128.55986	-55.32956	-76.48498	142.39225	-825.06138	122.86417	76.48498	70.78929	8.1367	0
725	-124.49151	-135.88289	-12.20505	128.55986	-57.77057	-74.04397	147.27427	-847.03047	125.30518	76.48498	73.2303	10.57771	0
726	-126.93252	-135.88289	-9.76404	131.00087	-60.21158	-74.04397	149.71528	-1176.56682	127.74619	76.48498	73.2303	13.01872	0
727	-129.37353	-143.20592	-14.64606	135.88289	-57.77057	-78.92599	152.15629	252.2377	130.1872	76.48498	73.2303	13.01872	0
728	-134.25555	-145.64693	-12.20505	138.3239	-62.65259	-78.92599	154.5973	-659.0727	130.1872	76.48498	73.2303	10.57771	0
729	-136.69656	-145.64693	-9.76404	140.76491	-65.0936	-78.92599	157.03831	-2028.47931	130.1872	74.04397	70.78929	8.1367	0
730	-136.69656	-145.64693	-9.76404	140.76491	-65.0936	-78.92599	159.47932	-2631.40878	132.62821	74.04397	68.34828	5.69569	0
731	-134.25555	-143.20592	-9.76404	138.3239	-62.65259	-76.48498	164.36134	-2619.20373	135.06922	74.04397	68.34828	2.44101	0
732	-126.93252	-138.3239	-12.20505	131.00087	-57.77057	-76.48498	169.24336	-2609.43969	137.51023	76.48498	68.34828	2.44101	0
733	-122.0505	-133.44188	-12.20505	126.11885	-55.32956	-74.04397	174.12538	-2597.23464	139.95124	78.92599	68.34828	2.44101	0
734	-122.0505	-131.00087	-9.76404	126.11885	-57.77057	-71.60296	179.0074	-2582.58858	144.83326	83.80801	70.78929	2.44101	0
735	-119.60949	-126.11885	-7.32303	121.23683	-57.77057	-66.72094	186.33043	-2602.11666	152.15629	86.24902	73.2303	5.69569	0
736	-117.16848	-123.67784	-7.32303	118.79582	-55.32956	-66.72094	196.09447	-1991.86416	157.03831	91.13104	78.11232	13.01872	0
737	-117.16848	-123.67784	-7.32303	118.79582	-55.32956	-66.72094	203.4175	-556.55028	161.92033	96.01306	80.55333	17.90074	0
738	-117.16848	-123.67784	-7.32303	118.79582	-55.32956	-66.72094	210.74053	-524.81715	166.80235	100.89508	82.99434	22.78276	0
739	-119.60949	-123.67784	-4.88202	121.23683	-57.77057	-64.27993	215.62255	-1891.78275	171.68437	103.33609	87.87636	27.66478	0
740	-122.0505	-123.67784	-2.44101	121.23683	-60.21158	-64.27993	220.50457	-2487.38919	174.12538	105.7771	90.31737	32.5468	0
741	-124.49151	-121.23683	3.25468	121.23683	-65.0936	-59.39791	227.8276	2768.10534	179.0074	110.65912	90.31737	34.98781	0
742	-122.0505	-118.79582	3.25468	118.79582	-62.65259	-59.39791	232.70962	-2458.09707	181.44841	110.65912	92.75838	39.86983	0
743	-119.60949	-116.35481	3.25468	116.35481	-62.65259	-56.9569	235.15063	-2443.45101	183.88942	110.65912	92.75838	42.31084	0
744	-114.72747	-109.03178	5.69569	111.47279	-60.21158	-52.07488	240.03265	2670.46494	186.33043	113.10013	92.75838	42.31084	0
745	-109.84545	-101.70875	8.1367	104.14976	-60.21158	-47.19286	244.91467	-2441.01	191.21245	115.54114	95.19939	42.31084	0
746	-109.84545	-99.26774	10.57771	104.14976	-60.21158	-44.75185	249.79669	-1833.19851	193.65346	120.42316	95.19939	44.75185	0
747	-107.40444	-91.94471	15.45973	99.26774	-62.65259	-39.86983	254.67871	-1330.35045	193.65346	122.86417	97.6404	44.75185	0
748	-107.40444	-87.06269	20.34175	96.82673	-65.0936	-34.98781	259.56073	-1296.17631	196.09447	125.30518	97.6404	44.75185	0
749	-102.52242	-82.18067	20.34175	91.94471	-62.65259	-32.5468	264.44275	-2658.25989	196.09447	125.30518	97.6404	44.75185	0
750	-97.6404	-74.85764	22.78276	84.62168	-60.21158	-27.66478	269.32477	-4183.89114	193.65346	127.74619	97.6404	44.75185	0
751	-92.75838	-69.97562	22.78276	79.73966	-57.77057	-25.22377	274.20679	-13000.00559	193.65346	127.74619	97.6404	44.75185	0
752	-92.75838	-67.53461	25.22377	79.73966	-60.21158	-22.78276	276.6478	-4144.83498	193.65346	130.1872	97.6404	44.75185	0
753	-92.75838	-67.53461	25.22377	79.73966	-60.21158	-22.78276	276.6478	-4125.3069	188.77144	130.1872	97.6404	44.75185	0
754	-85.43535	-65.0936	20.34175	74.85764	-52.88855	-22.78276	279.08881	-13102.52801	186.33043	130.1872	97.6404	44.75185	0
755	-75.67131	-57.77057	17.90074	65.0936	-48.00653	-20.34175	281.52982	-4125.3069	183.88942	127.74619	97.6404	44.75185	0
756	-68.34828	-50.44754	17.90074	57.77057	-43.12451	-17.90074	283.97083	-2582.58858	183.88942	127.74619	97.6404	44.75185	0
757	-58.58424	-45.56552	13.01872	50.44754	-35.80148	-17.90074	286.41184	-2082.18153	181.44841	127.74619	97.6404	44.75185	0
758	-53.70222	-40.6835	13.01872	45.56552	-33.36047	-15.45973	286.41184	-2048.00739	181.44841	127.74619	95.19939	44.75185	0
759	-46.37919	-35.80148	10.57771	40.6835	-28.47845	-13.01872	286.41184	-2475.18414	179.0074	125.30518	95.19939	42.31084	0
760	-39.05616	-28.47845	10.57771	33.36047	-26.03744	-10.57771	286.41184	-4005.69741	179.0074	122.86417	92.75838	37.42882	0
761	-29.29212	-21.15542	8.1367	23.59643	-18.71441	-8.1367	286.41184	-3991.05135	179.0074	122.86417	90.31737	34.98781	0
762	-17.08707	-11.39138	5.69569	13.83239	-11.39138	-3.25468	288.85285	-3973.96428	176.56639	120.42316	90.31737	32.5468	0
763	-9.76404	-1.62734	8.1367	4.06835	-8.95037	2.44101	288.85285	-3956.87721	176.56639	120.42316	87.87636	32.5468	0
764	-4.88202	4.06835	8.1367	0.81367	-6.50936	4.88202	293.73487	-3942.23115	176.56639	117.98215	87.87636	32.5468	0
765	-2.44101	6.50936	8.1367	-1.62734	-4.06835	7.32303	293.73487	-3969.08226	174.12538	117.98215	87.87636	30.10579	0
766	5.69569	16.2734	10.57771	-11.39138	-1.62734	14.64606	293.73487	-2436.12798	174.12538	115.54114	85.43535	30.10579	0
767	13.01872	26.03744	13.01872	-18.71441	1.62734	19.52808	293.73487	-2880.3918	171.68437	113.10013	82.99434	30.10579	0
768	25.22377	33.36047	8.1367	-28.47845	8.95037	21.96909	296.17588	-2855.9817	171.68437	113.10013	82.99434	30.10579	0
769	30.10579	40.6835	10.57771	-35.80148	11.39138	26.85111	296.17588	-3295.3635	169.24336	113.10013	80.55333	30.10579	0
770	34.98781	45.56552	10.57771	-40.6835	13.83239	29.29212	293.73487	-4835.64081	164.36134	105.7771	78.11232	27.66478	0
771	44.75185	52.88855	8.1367	-48.00653	18.71441	31.73313	291.29386	-4830.75879	161.92033	100.89508	75.67131	25.22377	0
772	56.9569	60.21158	3.25468	-57.77057	28.47845	31.73313	288.85285	-4825.87677	157.03831	98.45407	70.78929	22.78276	0
773	69.16195	69.97562	0	-69.97562	35.80148	36.61515	283.97083	-4820.99475	152.15629	93.57205	68.34828	20.34175	0
774	78.92599	74.85764	-4.88202	-77.29865	43.12451	36.61515	281.52982	-4818.55374	149.71528	91.13104	68.34828	20.34175	0
775	91.13104	79.73966	-12.20505	-84.62168	52.88855	34.17414	279.08881	-3910.49802	144.83326	88.69003	65.90727	20.34175	0
776	96.01306	84.62168	-12.20505	-89.5037	55.32956	36.61515	276.6478	-2389.74879	142.39225	83.80801	65.90727	17.90074	0
777	103.33609	89.5037	-14.64606	-96.82673	60.21158	39.05616	271.76578	-2843.77665	139.95124	81.367	63.46626	15.45973	0
778	108.21811	96.82673	-12.20505	-101.70875	60.21158	43.93818	266.88376	-2831.5716	137.51023	78.92599	63.46626	15.45973	0
779	108.21811	101.70875	-7.32303	-104.14976	57.77057	48.8202	264.44275	-3283.15845	132.62821	76.48498	61.02525	15.45973	0
780	108.21811	106.59077	-2.44101	-106.59077	55.32956	53.70222	259.56073	-4835.64081	130.1872	71.60296	58.58424	13.01872	0
781	108.21811	109.03178	0	-109.03178	55.32956	56.14323	252.2377	-4840.52283	127.74619	69.16195	56.14323	8.1367	0
782	110.65912	113.9138	3.25468	-111.47279	55.32956	58.58424	247.35568	-4845.40485	122.86417	64.27993	51.26121	5.69569	0
783	115.54114	121.23683	5.69569	-118.79582	55.32956	63.46626	240.03265	-4850.28687	120.42316	59.39791	48.8202	2.44101	0
784	120.42316	128.55986	8.1367	-123.67784	57.77057	68.34828	235.15063	-4862.49192	115.54114	54.51589	41.49717	-2.44101	0
785	127.74619	138.3239	10.57771	-133.44188	60.21158	75.67131	227.8276	-3971.52327	108.21811	49.63387	36.61515	-7.32303	0
786	132.62821	145.64693	13.01872	-138.3239	60.21158	80.55333	218.06356	-2462.97909	103.33609	42.31084	31.73313	-9.76404	0
787	137.51023	152.96996	15.45973	-145.64693	62.65259	85.43535	210.74053	-1984.54113	96.01306	37.42882	24.4101	-12.20505	0
788	144.83326	160.29299	15.45973	-152.96996	65.0936	87.87636	200.97649	-1989.42315	91.13104	32.5468	21.96909	-14.64606	0
789	152.15629	170.05703	17.90074	-160.29299	67.53461	95.19939	196.09447	-2462.97909	88.69003	32.5468	21.96909	-9.76404	0
790	154.5973	182.26208	27.66478	-167.61602	65.0936	104.96343	188.77144	913.75141	83.80801	32.5468	24.4101	-7.32303	0
791	154.5973	189.58511	34.98781	-172.49804	60.21158	112.28646	179.0074	-12814.48883	81.367	32.5468	26.85111	-2.44101	0
792	152.15629	194.46713	42.31084	-172.49804	55.32956	119.60949	171.68437	-9913.75528	76.48498	30.10579	29.29212	2.44101	0
793	149.71528	201.79016	52.07488	-174.93905	50.44754	126.93252	164.36134	-9979.66255	76.48498	32.5468	34.17414	8.1367	0
794	147.27427	209.11319	61.83892	-177.38006	43.12451	136.69656	157.03831	-13080.55892	74.04397	32.5468	39.05616	15.45973	0
795	147.27427	216.43622	69.16195	-182.26208	40.6835	144.01959	149.71528	813.67	71.60296	34.98781	43.93818	20.34175	0
796	147.27427	221.31824	74.04397	-184.70309	38.24249	148.90161	142.39225	784.37788	69.16195	34.98781	43.93818	25.22377	0
797	144.83326	223.75925	78.92599	-184.70309	33.36047	151.34262	132.62821	755.08576	66.72094	32.5468	43.93818	25.22377	0
798	142.39225	223.75925	81.367	-182.26208	30.91946	153.78363	120.42316	696.50152	59.39791	25.22377	39.05616	22.78276	0
799	139.95124	223.75925	83.80801	-182.26208	28.47845	153.78363	108.21811	650.12233	49.63387	20.34175	31.73313	17.90074	0
800	142.39225	226.20026	83.80801	-184.70309	30.91946	156.22464	96.01306	623.27122	39.86983	13.01872	29.29212	13.01872	0
801	142.39225	228.64127	86.24902	-184.70309	28.47845	158.66565	83.80801	2870.62776	32.5468	5.69569	21.96909	8.1367	0
802	137.51023	226.20026	88.69003	-182.26208	26.03744	158.66565	71.60296	-10278.27944	22.78276	0	17.08707	2.44101	0
803	130.1872	221.31824	91.13104	-174.93905	21.15542	156.22464	59.39791	-10395.44792	13.01872	-4.88202	14.64606	2.44101	0
804	125.30518	216.43622	91.13104	-170.05703	18.71441	153.78363	49.63387	2538.6504	8.1367	-9.76404	12.20505	0	0
805	120.42316	209.11319	88.69003	-165.17501	16.2734	148.90161	39.86983	442.63648	0.81367	-14.64606	9.76404	0	0
806	115.54114	204.23117	88.69003	-160.29299	13.83239	146.4606	32.5468	410.90335	-2.44101	-17.08707	9.76404	-2.44101	0
807	113.10013	199.34915	86.24902	-155.41097	13.83239	144.01959	25.22377	376.72921	-7.32303	-19.52808	9.76404	-2.44101	0
808	108.21811	192.02612	83.80801	-150.52895	13.83239	139.13757	20.34175	337.67305	-9.76404	-19.52808	12.20505	0	0
809	98.45407	182.26208	83.80801	-140.76491	8.95037	134.25555	13.01872	303.49891	-14.64606	-21.96909	12.20505	2.44101	0
810	86.24902	172.49804	86.24902	-128.55986	1.62734	129.37353	8.1367	286.41184	-17.08707	-24.4101	12.20505	2.44101	0
811	78.92599	165.17501	86.24902	-121.23683	-4.06835	126.93252	0.81367	2563.0605	-21.96909	-26.85111	12.20505	2.44101	0
812	71.60296	152.96996	81.367	-111.47279	-4.06835	117.16848	-2.44101	-10612.69781	-24.4101	-29.29212	9.76404	2.44101	0
813	61.83892	143.20592	81.367	-101.70875	-8.95037	112.28646	-9.76404	-10707.8972	-29.29212	-34.17414	7.32303	2.44101	0
814	54.51589	135.88289	81.367	-94.38572	-13.83239	109.84545	-14.64606	-991.05006	-34.17414	-39.05616	4.88202	2.44101	0
815	47.19286	128.55986	81.367	-87.06269	-16.2734	104.96343	-19.52808	-1049.6343	-39.05616	-41.49717	2.44101	2.44101	0
816	37.42882	118.79582	81.367	-77.29865	-21.15542	100.08141	-24.4101	-1423.10883	-41.49717	-46.37919	0	2.44101	0
817	27.66478	111.47279	83.80801	-69.97562	-28.47845	97.6404	-26.85111	10.57771	-46.37919	-48.8202	0	2.44101	0
818	22.78276	104.14976	81.367	-62.65259	-28.47845	92.75838	-29.29212	950.36656	-48.8202	-51.26121	-3.25468	2.44101	0
819	17.90074	101.70875	83.80801	-60.21158	-33.36047	92.75838	-34.17414	1406.83543	-51.26121	-53.70222	-3.25468	2.44101	0
820	17.90074	96.82673	78.92599	-57.77057	-30.91946	87.87636	-34.17414	1713.58902	-53.70222	-53.70222	-3.25468	5.69569	0
821	15.45973	94.38572	78.92599	-55.32956	-30.91946	87.87636	-36.61515	1698.94296	-56.14323	-56.14323	-3.25468	5.69569	0
822	15.45973	89.5037	74.04397	-52.88855	-28.47845	82.99434	-39.05616	5173.31386	-58.58424	-56.14323	-3.25468	5.69569	0
823	13.01872	87.06269	74.04397	-50.44754	-30.91946	80.55333	-39.05616	5065.90942	-58.58424	-56.14323	0	8.1367	0
824	10.57771	82.18067	71.60296	-45.56552	-30.91946	78.11232	-39.05616	1664.76882	-61.02525	-56.14323	0	8.1367	0
825	10.57771	79.73966	69.16195	-45.56552	-28.47845	75.67131	-39.05616	1611.88027	-61.02525	-58.58424	2.44101	5.69569	0
826	10.57771	74.85764	64.27993	-43.12451	-26.03744	70.78929	-39.05616	1245.72877	-61.02525	-58.58424	2.44101	2.44101	0
827	10.57771	69.97562	59.39791	-40.6835	-23.59643	65.90727	-39.05616	813.67	-63.46626	-58.58424	2.44101	2.44101	0
828	8.1367	65.0936	56.9569	-35.80148	-23.59643	61.02525	-41.49717	820.99303	-63.46626	-61.02525	2.44101	0	0
829	5.69569	62.65259	56.9569	-33.36047	-26.03744	61.02525	-43.93818	1279.90291	-63.46626	-63.46626	0	-2.44101	0
830	3.25468	60.21158	56.9569	-30.91946	-26.03744	58.58424	-46.37919	1589.91118	-68.34828	-68.34828	0	-4.88202	0
831	0.81367	60.21158	59.39791	-30.91946	-28.47845	61.02525	-48.8202	1582.58815	-70.78929	-70.78929	-3.25468	-7.32303	0
832	0.81367	55.32956	54.51589	-28.47845	-26.03744	56.14323	-51.26121	1577.70613	-70.78929	-75.67131	-5.69569	-9.76404	0
833	5.69569	55.32956	49.63387	-30.91946	-21.15542	53.70222	-53.70222	1572.82411	-70.78929	-78.11232	-5.69569	-12.20505	0
834	3.25468	52.88855	49.63387	-28.47845	-23.59643	51.26121	-56.14323	1567.94209	-70.78929	-80.55333	-8.1367	-12.20505	0
835	0.81367	52.88855	52.07488	-26.03744	-26.03744	53.70222	-56.14323	1519.12189	-68.34828	-82.99434	-10.57771	-12.20505	0
836	0.81367	52.88855	52.07488	-26.03744	-26.03744	53.70222	-58.58424	1160.29342	-65.90727	-85.43535	-13.01872	-17.08707	0
837	0.81367	48.00653	47.19286	-23.59643	-23.59643	48.8202	-61.02525	737.99869	-63.46626	-87.87636	-13.01872	-17.08707	0
838	-2.44101	45.56552	47.19286	-21.15542	-23.59643	46.37919	-63.46626	750.20374	-61.02525	-87.87636	-13.01872	-17.08707	0
839	-4.88202	45.56552	49.63387	-21.15542	-26.03744	46.37919	-63.46626	1209.11362	-58.58424	-90.31737	-13.01872	-17.08707	0
840	-4.88202	48.00653	52.07488	-21.15542	-28.47845	48.8202	-63.46626	1524.00391	-56.14323	-90.31737	-13.01872	-17.08707	0
841	-7.32303	48.00653	54.51589	-21.15542	-30.91946	51.26121	-63.46626	1519.12189	-53.70222	-90.31737	-10.57771	-17.08707	0
842	-9.76404	48.00653	56.9569	-18.71441	-33.36047	51.26121	-63.46626	1516.68088	-51.26121	-90.31737	-8.1367	-17.08707	0
843	-4.88202	52.88855	56.9569	-23.59643	-30.91946	53.70222	-63.46626	1516.68088	-51.26121	-90.31737	-8.1367	-17.08707	0
844	0.81367	57.77057	56.9569	-28.47845	-28.47845	58.58424	-63.46626	1514.23987	-51.26121	-90.31737	-5.69569	-17.08707	0
845	0.81367	60.21158	59.39791	-30.91946	-28.47845	61.02525	-63.46626	1465.41967	-51.26121	-92.75838	-3.25468	-17.08707	0
846	8.1367	62.65259	54.51589	-35.80148	-23.59643	58.58424	-58.58424	1109.03221	-51.26121	-92.75838	-3.25468	-21.96909	0
847	13.01872	65.0936	52.07488	-38.24249	-18.71441	58.58424	-56.14323	696.50152	-51.26121	-95.19939	-3.25468	-21.96909	0
848	13.01872	65.0936	52.07488	-38.24249	-18.71441	58.58424	-51.26121	711.14758	-51.26121	-95.19939	-3.25468	-21.96909	0
849	13.01872	62.65259	49.63387	-38.24249	-18.71441	56.14323	-48.8202	1167.61645	-53.70222	-97.6404	-3.25468	-24.4101	0
850	13.01872	62.65259	49.63387	-38.24249	-18.71441	56.14323	-46.37919	1482.50674	-56.14323	-100.08141	-5.69569	-26.85111	0
851	10.57771	60.21158	49.63387	-35.80148	-18.71441	56.14323	-41.49717	1480.06573	-56.14323	-102.52242	-5.69569	-26.85111	0
852	0.81367	55.32956	54.51589	-28.47845	-26.03744	56.14323	-36.61515	1480.06573	-58.58424	-104.96343	-8.1367	-26.85111	0
853	-2.44101	55.32956	56.9569	-26.03744	-28.47845	56.14323	-29.29212	1484.94775	-56.14323	-104.96343	-8.1367	-26.85111	0
854	-7.32303	55.32956	61.83892	-23.59643	-33.36047	58.58424	-24.4101	1487.38876	-53.70222	-104.96343	-5.69569	-24.4101	0
855	-12.20505	55.32956	66.72094	-21.15542	-38.24249	61.02525	-21.96909	1441.00957	-53.70222	-104.96343	-5.69569	-21.96909	0
856	-14.64606	55.32956	69.16195	-21.15542	-40.6835	61.02525	-19.52808	1089.50413	-53.70222	-104.96343	-3.25468	-21.96909	0
857	-17.08707	52.88855	69.16195	-18.71441	-43.12451	61.02525	-17.08707	681.85546	-53.70222	-104.96343	-3.25468	-21.96909	0
858	-21.96909	52.88855	74.04397	-16.2734	-48.00653	63.46626	-17.08707	698.94253	-53.70222	-104.96343	-3.25468	-19.52808	0
859	-21.96909	52.88855	74.04397	-16.2734	-48.00653	63.46626	-17.08707	1152.97039	-51.26121	-107.40444	0	-19.52808	0
860	-19.52808	52.88855	71.60296	-16.2734	-45.56552	61.02525	-17.08707	1460.53765	-53.70222	-109.84545	0	-19.52808	0
861	-17.08707	52.88855	69.16195	-18.71441	-43.12451	61.02525	-19.52808	1455.65563	-58.58424	-112.28646	0	-19.52808	0
862	-19.52808	48.00653	66.72094	-13.83239	-43.12451	56.14323	-21.96909	1453.21462	-61.02525	-117.16848	-3.25468	-19.52808	0
863	-19.52808	48.00653	66.72094	-13.83239	-43.12451	56.14323	-21.96909	1453.21462	-63.46626	-119.60949	-3.25468	-21.96909	0
864	-19.52808	43.12451	61.83892	-11.39138	-40.6835	51.26121	-24.4101	1450.77361	-65.90727	-122.0505	-3.25468	-24.4101	0
865	-19.52808	43.12451	61.83892	-11.39138	-40.6835	51.26121	-24.4101	1401.95341	-65.90727	-124.49151	-3.25468	-26.85111	0
866	-17.08707	43.12451	59.39791	-13.83239	-38.24249	51.26121	-24.4101	1048.00696	-68.34828	-126.93252	-5.69569	-26.85111	0
867	-14.64606	43.12451	56.9569	-13.83239	-35.80148	48.8202	-21.96909	645.24031	-68.34828	-129.37353	-5.69569	-26.85111	0
868	-17.08707	40.6835	56.9569	-11.39138	-35.80148	48.8202	-21.96909	664.76839	-70.78929	-129.37353	-5.69569	-29.29212	0
869	-17.08707	40.6835	56.9569	-11.39138	-35.80148	48.8202	-19.52808	1121.23726	-70.78929	-129.37353	-5.69569	-29.29212	0
870	-14.64606	43.12451	56.9569	-13.83239	-35.80148	48.8202	-17.08707	1431.24553	-68.34828	-129.37353	-3.25468	-29.29212	0
871	-14.64606	43.12451	56.9569	-13.83239	-35.80148	48.8202	-17.08707	1431.24553	-68.34828	-131.81454	-3.25468	-29.29212	0
872	-12.20505	45.56552	56.9569	-16.2734	-33.36047	51.26121	-17.08707	1433.68654	-70.78929	-131.81454	-3.25468	-29.29212	0
873	-12.20505	45.56552	56.9569	-16.2734	-33.36047	51.26121	-19.52808	1436.12755	-73.2303	-134.25555	-3.25468	-29.29212	0
874	-14.64606	43.12451	56.9569	-13.83239	-35.80148	48.8202	-19.52808	1436.12755	-73.2303	-136.69656	-3.25468	-31.73313	0
875	-17.08707	38.24249	54.51589	-11.39138	-35.80148	46.37919	-21.96909	1387.30735	-78.11232	-139.13757	-3.25468	-34.17414	0
876	-21.96909	38.24249	59.39791	-8.95037	-40.6835	48.8202	-21.96909	1035.80191	-80.55333	-141.57858	-5.69569	-36.61515	0
877	-24.4101	38.24249	61.83892	-6.50936	-43.12451	48.8202	-24.4101	635.47627	-85.43535	-144.01959	-8.1367	-36.61515	0
878	-24.4101	35.80148	59.39791	-6.50936	-40.6835	46.37919	-26.85111	655.00435	-90.31737	-146.4606	-8.1367	-39.05616	0
879	-26.85111	33.36047	59.39791	-4.06835	-43.12451	46.37919	-29.29212	1106.5912	-92.75838	-146.4606	-8.1367	-39.05616	0
880	-29.29212	30.91946	59.39791	-1.62734	-43.12451	43.93818	-31.73313	1411.71745	-97.6404	-148.90161	-8.1367	-39.05616	0
881	-31.73313	30.91946	61.83892	0.81367	-45.56552	46.37919	-34.17414	1409.27644	-102.52242	-151.34262	-8.1367	-39.05616	0
882	-29.29212	33.36047	61.83892	-1.62734	-45.56552	46.37919	-36.61515	1409.27644	-104.96343	-153.78363	-8.1367	-41.49717	0
883	-26.85111	35.80148	61.83892	-4.06835	-43.12451	48.8202	-36.61515	1409.27644	-107.40444	-153.78363	-8.1367	-41.49717	0
884	-21.96909	38.24249	59.39791	-8.95037	-40.6835	48.8202	-36.61515	1409.27644	-109.84545	-153.78363	-8.1367	-41.49717	0
885	-19.52808	40.6835	59.39791	-11.39138	-38.24249	48.8202	-36.61515	1358.01523	-109.84545	-153.78363	-5.69569	-41.49717	0
886	-19.52808	40.6835	59.39791	-11.39138	-38.24249	48.8202	-36.61515	1006.50979	-107.40444	-153.78363	-3.25468	-39.05616	0
887	-24.4101	35.80148	59.39791	-6.50936	-40.6835	46.37919	-36.61515	608.62516	-104.96343	-153.78363	-3.25468	-39.05616	0
888	-26.85111	33.36047	59.39791	-4.06835	-43.12451	46.37919	-36.61515	633.03526	-104.96343	-153.78363	-3.25468	-39.05616	0
889	-29.29212	35.80148	64.27993	-4.06835	-45.56552	48.8202	-36.61515	1084.62211	-102.52242	-153.78363	-3.25468	-39.05616	0
890	-36.61515	30.91946	66.72094	0.81367	-50.44754	48.8202	-36.61515	1389.74836	-102.52242	-153.78363	-3.25468	-36.61515	0
891	-41.49717	28.47845	69.16195	6.50936	-55.32956	48.8202	-36.61515	1389.74836	-102.52242	-153.78363	-3.25468	-36.61515	0
892	-43.93818	26.03744	69.16195	8.95037	-55.32956	46.37919	-41.49717	1387.30735	-102.52242	-158.66565	-5.69569	-34.17414	0
893	-46.37919	18.71441	64.27993	13.83239	-55.32956	41.49717	-43.93818	1389.74836	-107.40444	-163.54767	-8.1367	-34.17414	0
894	-48.8202	13.83239	61.83892	16.2734	-55.32956	36.61515	-48.8202	1392.18937	-109.84545	-168.42969	-13.01872	-39.05616	0
895	-48.8202	8.95037	56.9569	18.71441	-52.88855	31.73313	-51.26121	1340.92816	-114.72747	-173.31171	-17.90074	-39.05616	0
896	-48.8202	8.95037	56.9569	18.71441	-52.88855	31.73313	-53.70222	991.86373	-117.16848	-175.75272	-20.34175	-41.49717	0
897	-46.37919	6.50936	52.07488	18.71441	-48.00653	29.29212	-53.70222	598.86112	-117.16848	-180.63474	-22.78276	-41.49717	0
898	-41.49717	6.50936	47.19286	16.2734	-43.12451	26.85111	-53.70222	628.15324	-119.60949	-180.63474	-25.22377	-43.93818	0
899	-41.49717	6.50936	47.19286	16.2734	-43.12451	26.85111	-53.70222	1082.1811	-119.60949	-183.07575	-27.66478	-46.37919	0
900	-41.49717	6.50936	47.19286	16.2734	-43.12451	26.85111	-56.14323	1389.74836	-122.0505	-185.51676	-27.66478	-46.37919	0
901	-41.49717	6.50936	47.19286	16.2734	-43.12451	26.85111	-56.14323	1389.74836	-119.60949	-185.51676	-27.66478	-46.37919	0
902	-46.37919	6.50936	52.07488	18.71441	-48.00653	29.29212	-56.14323	1389.74836	-117.16848	-185.51676	-27.66478	-46.37919	0
903	-43.93818	11.39138	54.51589	16.2734	-48.00653	31.73313	-56.14323	1389.74836	-117.16848	-185.51676	-25.22377	-46.37919	0
904	-41.49717	13.83239	54.51589	13.83239	-48.00653	34.17414	-53.70222	1387.30735	-114.72747	-185.51676	-25.22377	-46.37919	0
905	-39.05616	16.2734	54.51589	11.39138	-45.56552	34.17414	-56.14323	1331.16412	-114.72747	-185.51676	-25.22377	-48.8202	0
906	-36.61515	16.2734	52.07488	8.95037	-43.12451	34.17414	-56.14323	977.21767	-114.72747	-183.07575	-25.22377	-48.8202	0
907	-31.73313	18.71441	49.63387	6.50936	-40.6835	34.17414	-53.70222	581.77405	-114.72747	-180.63474	-25.22377	-48.8202	0
908	-31.73313	18.71441	49.63387	6.50936	-40.6835	34.17414	-53.70222	608.62516	-114.72747	-180.63474	-25.22377	-48.8202	0
909	-29.29212	18.71441	47.19286	4.06835	-38.24249	31.73313	-53.70222	1060.21201	-114.72747	-180.63474	-27.66478	-48.8202	0
910	-24.4101	21.15542	44.75185	0.81367	-33.36047	31.73313	-56.14323	1365.33826	-114.72747	-180.63474	-27.66478	-48.8202	0
911	-19.52808	18.71441	37.42882	0.81367	-28.47845	26.85111	-58.58424	1367.77927	-117.16848	-183.07575	-30.10579	-51.26121	0
912	-12.20505	18.71441	30.10579	-4.06835	-21.15542	24.4101	-61.02525	1372.66129	-117.16848	-185.51676	-30.10579	-51.26121	0
913	-9.76404	21.15542	30.10579	-6.50936	-18.71441	24.4101	-63.46626	1375.1023	-119.60949	-185.51676	-32.5468	-53.70222	0
914	-9.76404	18.71441	27.66478	-4.06835	-18.71441	21.96909	-65.90727	1377.54331	-119.60949	-187.95777	-34.98781	-53.70222	0
915	-12.20505	18.71441	30.10579	-4.06835	-21.15542	24.4101	-68.34828	1326.2821	-119.60949	-187.95777	-34.98781	-56.14323	0
916	-12.20505	21.15542	32.5468	-4.06835	-21.15542	26.85111	-68.34828	979.65868	-122.0505	-187.95777	-34.98781	-56.14323	0
917	-12.20505	26.03744	37.42882	-6.50936	-23.59643	31.73313	-68.34828	601.30213	-117.16848	-185.51676	-30.10579	-53.70222	0
918	-12.20505	30.91946	42.31084	-8.95037	-26.03744	36.61515	-65.90727	640.35829	-114.72747	-183.07575	-27.66478	-53.70222	0
919	-12.20505	38.24249	49.63387	-13.83239	-30.91946	43.93818	-63.46626	1104.15019	-112.28646	-180.63474	-25.22377	-48.8202	0
920	-12.20505	43.12451	54.51589	-16.2734	-33.36047	48.8202	-61.02525	1419.04048	-109.84545	-178.19373	-22.78276	-48.8202	0
921	-14.64606	45.56552	59.39791	-16.2734	-35.80148	51.26121	-61.02525	1426.36351	-107.40444	-175.75272	-20.34175	-43.93818	0
922	-14.64606	50.44754	64.27993	-18.71441	-38.24249	56.14323	-58.58424	1436.12755	-102.52242	-173.31171	-15.45973	-41.49717	0
923	-14.64606	55.32956	69.16195	-21.15542	-40.6835	61.02525	-58.58424	1445.89159	-100.08141	-173.31171	-13.01872	-39.05616	0
924	-17.08707	55.32956	71.60296	-18.71441	-43.12451	63.46626	-56.14323	1448.3326	-97.6404	-170.8707	-13.01872	-36.61515	0
925	-14.64606	57.77057	71.60296	-21.15542	-43.12451	63.46626	-56.14323	1394.63038	-97.6404	-173.31171	-13.01872	-36.61515	0
926	-7.32303	60.21158	66.72094	-26.03744	-35.80148	63.46626	-58.58424	1035.80191	-100.08141	-175.75272	-13.01872	-36.61515	0
927	-4.88202	60.21158	64.27993	-28.47845	-33.36047	61.02525	-58.58424	647.68132	-100.08141	-180.63474	-15.45973	-36.61515	0
928	-4.88202	62.65259	66.72094	-28.47845	-35.80148	63.46626	-58.58424	679.41445	-100.08141	-180.63474	-17.90074	-36.61515	0
929	-4.88202	65.0936	69.16195	-30.91946	-35.80148	65.90727	-58.58424	1138.32433	-100.08141	-180.63474	-17.90074	-34.17414	0
930	-2.44101	65.0936	66.72094	-30.91946	-33.36047	65.90727	-58.58424	1450.77361	-100.08141	-183.07575	-17.90074	-34.17414	0
931	0.81367	67.53461	66.72094	-33.36047	-33.36047	68.34828	-58.58424	1453.21462	-100.08141	-185.51676	-15.45973	-31.73313	0
932	3.25468	72.41663	69.16195	-38.24249	-33.36047	70.78929	-58.58424	1455.65563	-100.08141	-185.51676	-15.45973	-31.73313	0
933	3.25468	74.85764	71.60296	-38.24249	-33.36047	73.2303	-61.02525	1460.53765	-100.08141	-187.95777	-15.45973	-31.73313	0
934	-2.44101	74.85764	76.48498	-35.80148	-38.24249	75.67131	-61.02525	1462.97866	-100.08141	-187.95777	-15.45973	-31.73313	0
935	-2.44101	74.85764	76.48498	-35.80148	-38.24249	75.67131	-63.46626	1406.83543	-100.08141	-187.95777	-13.01872	-29.29212	0
936	-2.44101	77.29865	78.92599	-38.24249	-40.6835	78.11232	-65.90727	1043.12494	-100.08141	-187.95777	-10.57771	-29.29212	0
937	3.25468	79.73966	76.48498	-40.6835	-35.80148	78.11232	-70.78929	652.56334	-100.08141	-187.95777	-8.1367	-26.85111	0
938	5.69569	84.62168	78.92599	-45.56552	-35.80148	82.99434	-73.2303	684.29647	-102.52242	-187.95777	-5.69569	-24.4101	0
939	5.69569	84.62168	78.92599	-45.56552	-35.80148	82.99434	-75.67131	1140.76534	-102.52242	-187.95777	-5.69569	-21.96909	0
940	8.1367	87.06269	78.92599	-48.00653	-35.80148	82.99434	-80.55333	1455.65563	-107.40444	-190.39878	-5.69569	-21.96909	0
941	13.01872	89.5037	76.48498	-50.44754	-30.91946	82.99434	-85.43535	1455.65563	-109.84545	-192.83979	-8.1367	-24.4101	0
942	20.34175	94.38572	74.04397	-57.77057	-26.03744	85.43535	-92.75838	1460.53765	-114.72747	-197.72181	-10.57771	-26.85111	0
943	25.22377	96.82673	71.60296	-60.21158	-23.59643	85.43535	-95.19939	1467.86068	-117.16848	-200.16282	-10.57771	-31.73313	0
944	25.22377	96.82673	71.60296	-60.21158	-23.59643	85.43535	-97.6404	1470.30169	-119.60949	-205.04484	-15.45973	-34.17414	0
945	30.10579	96.82673	66.72094	-62.65259	-18.71441	82.99434	-100.08141	1419.04048	-122.0505	-207.48585	-17.90074	-39.05616	0
946	27.66478	94.38572	66.72094	-60.21158	-18.71441	80.55333	-100.08141	1057.771	-124.49151	-212.36787	-25.22377	-43.93818	0
947	27.66478	91.94471	64.27993	-60.21158	-18.71441	78.11232	-102.52242	669.65041	-129.37353	-217.24989	-30.10579	-51.26121	0
948	27.66478	89.5037	61.83892	-57.77057	-16.2734	75.67131	-104.96343	701.38354	-131.81454	-224.57292	-34.98781	-56.14323	0
949	22.78276	84.62168	61.83892	-52.88855	-18.71441	73.2303	-107.40444	1155.4114	-131.81454	-229.45494	-39.86983	-63.46626	0
950	15.45973	77.29865	61.83892	-45.56552	-23.59643	70.78929	-107.40444	1465.41967	-134.25555	-231.89595	-42.31084	-65.90727	0
951	10.57771	69.97562	59.39791	-40.6835	-23.59643	65.90727	-107.40444	1465.41967	-136.69656	-234.33696	-44.75185	-68.34828	0
952	8.1367	67.53461	59.39791	-38.24249	-26.03744	63.46626	-109.84545	1470.30169	-139.13757	-239.21898	-49.63387	-73.2303	0
953	5.69569	62.65259	56.9569	-33.36047	-26.03744	61.02525	-112.28646	1467.86068	-144.01959	-244.101	-52.07488	-78.11232	0
954	3.25468	57.77057	54.51589	-30.91946	-26.03744	56.14323	-117.16848	1462.97866	-148.90161	-251.42403	-56.9569	-85.43535	0
955	3.25468	55.32956	52.07488	-28.47845	-23.59643	53.70222	-119.60949	1401.95341	-153.78363	-256.30605	-61.83892	-90.31737	0
956	5.69569	45.56552	39.86983	-26.03744	-16.2734	43.93818	-122.0505	1038.24292	-156.22464	-261.18807	-66.72094	-95.19939	0
957	10.57771	38.24249	27.66478	-23.59643	-8.95037	34.17414	-124.49151	650.12233	-161.10666	-266.07009	-69.16195	-102.52242	0
958	17.90074	30.91946	13.01872	-23.59643	4.06835	21.96909	-126.93252	684.29647	-165.98868	-263.62908	-74.04397	-107.40444	0
959	22.78276	26.03744	3.25468	-23.59643	11.39138	14.64606	-129.37353	1140.76534	-168.42969	-261.18807	-78.92599	-112.28646	0
960	22.78276	16.2734	-7.32303	-18.71441	16.2734	4.88202	-129.37353	1450.77361	-173.31171	-258.74706	-83.80801	-117.16848	0
961	25.22377	8.95037	-17.08707	-16.2734	21.15542	-3.25468	-129.37353	1455.65563	-173.31171	-248.98302	-83.80801	-117.16848	0
962	27.66478	1.62734	-26.85111	-13.83239	28.47845	-13.01872	-126.93252	1467.86068	-170.8707	-239.21898	-83.80801	-117.16848	0
963	27.66478	-8.95037	-36.61515	-8.95037	30.91946	-22.78276	-124.49151	1477.62472	-170.8707	-229.45494	-83.80801	-117.16848	0
964	27.66478	-16.2734	-43.93818	-6.50936	35.80148	-30.10579	-124.49151	1482.50674	-168.42969	-219.6909	-81.367	-117.16848	0
965	20.34175	-21.15542	-41.49717	0.81367	30.91946	-30.10579	-122.0505	1428.80452	-165.98868	-209.92686	-81.367	-114.72747	0
966	13.01872	-26.03744	-39.05616	6.50936	26.03744	-32.5468	-119.60949	1065.09403	-165.98868	-202.60383	-78.92599	-112.28646	0
967	8.1367	-28.47845	-36.61515	8.95037	21.15542	-32.5468	-119.60949	676.97344	-163.54767	-197.72181	-76.48498	-109.84545	0
968	3.25468	-30.91946	-34.17414	13.83239	18.71441	-32.5468	-114.72747	718.47061	-161.10666	-195.2808	-71.60296	-107.40444	0
969	0.81367	-30.91946	-31.73313	13.83239	16.2734	-30.10579	-114.72747	1174.93948	-161.10666	-195.2808	-71.60296	-104.96343	0
970	-2.44101	-33.36047	-31.73313	16.2734	13.83239	-32.5468	-114.72747	1487.38876	-161.10666	-195.2808	-71.60296	-104.96343	0
971	-7.32303	-35.80148	-29.29212	21.15542	11.39138	-32.5468	-117.16848	1489.82977	-161.10666	-195.2808	-69.16195	-104.96343	0
972	-17.08707	-38.24249	-21.96909	26.03744	1.62734	-30.10579	-114.72747	1497.1528	-158.66565	-195.2808	-66.72094	-100.08141	0
973	-24.4101	-43.12451	-19.52808	33.36047	-4.06835	-32.5468	-114.72747	1502.03482	-158.66565	-195.2808	-66.72094	-100.08141	0
974	-21.96909	-45.56552	-24.4101	33.36047	1.62734	-34.98781	-114.72747	1504.47583	-158.66565	-195.2808	-64.27993	-95.19939	0
975	-26.85111	-50.44754	-24.4101	38.24249	-1.62734	-37.42882	-112.28646	1450.77361	-156.22464	-195.2808	-61.83892	-95.19939	0
976	-31.73313	-55.32956	-24.4101	43.12451	-4.06835	-39.86983	-109.84545	1087.06312	-156.22464	-192.83979	-61.83892	-92.75838	0
977	-36.61515	-65.0936	-29.29212	50.44754	-4.06835	-47.19286	-109.84545	698.94253	-153.78363	-192.83979	-61.83892	-92.75838	0
978	-41.49717	-72.41663	-31.73313	55.32956	-6.50936	-52.07488	-107.40444	737.99869	-153.78363	-192.83979	-61.83892	-92.75838	0
979	-43.93818	-77.29865	-34.17414	60.21158	-6.50936	-56.9569	-107.40444	1196.90857	-153.78363	-192.83979	-64.27993	-92.75838	0
980	-43.93818	-82.18067	-39.05616	62.65259	-4.06835	-61.83892	-107.40444	1504.47583	-153.78363	-192.83979	-69.16195	-95.19939	0
981	-41.49717	-84.62168	-43.93818	62.65259	1.62734	-64.27993	-109.84545	1499.59381	-158.66565	-195.2808	-74.04397	-100.08141	0
982	-41.49717	-84.62168	-43.93818	62.65259	1.62734	-64.27993	-109.84545	1499.59381	-158.66565	-195.2808	-76.48498	-102.52242	0
983	-36.61515	-84.62168	-48.8202	60.21158	6.50936	-66.72094	-109.84545	1499.59381	-161.10666	-195.2808	-81.367	-104.96343	0
984	-31.73313	-84.62168	-53.70222	57.77057	11.39138	-69.16195	-112.28646	1494.71179	-161.10666	-195.2808	-83.80801	-107.40444	0
