samplenr	I	II	III	aVR	aVL	aVF	V1	V2	V3	V4	V5	V6	measurement
0	-26.03744	-59.39791	-34.17414	40.6835	3.25468	-48.00653	691.6195	406.835	279.90248	283.97083	179.0074	-18.71441	0
1	35.80148	-39.86983	-75.67131	0.81367	55.32956	-57.77057	364.52416	165.17501	194.46713	14.64606	7.32303	-116.35481	0
2	33.36047	-74.04397	-107.40444	18.71441	69.97562	-89.5037	335.23204	167.61602	182.26208	20.34175	13.01872	-128.55986	0
3	33.36047	-103.33609	-136.69656	33.36047	84.62168	-118.79582	337.67305	179.82107	177.38006	44.75185	15.45973	-126.11885	0
4	23.59643	-86.24902	-109.84545	30.91946	65.0936	-96.82673	296.17588	162.734	160.29299	-2.44101	2.44101	-177.38006	0
5	33.36047	-71.60296	-104.96343	18.71441	67.53461	-87.06269	293.73487	187.1441	167.61602	12.20505	34.98781	-160.29299	0
6	23.59643	-91.13104	-114.72747	33.36047	67.53461	-101.70875	235.15063	206.67218	172.49804	12.20505	-7.32303	-187.1441	0
7	4.06835	-142.39225	-146.4606	67.53461	74.85764	-143.20592	166.80235	174.93905	145.64693	-46.37919	0	-196.90814	0
8	45.56552	-135.06922	-180.63474	43.12451	111.47279	-157.85198	144.83326	189.58511	145.64693	-31.73313	10.57771	-174.93905	0
9	38.24249	-130.1872	-168.42969	45.56552	101.70875	-148.08794	166.80235	233.52329	148.08794	0	25.22377	-138.3239	0
10	21.15542	-154.5973	-175.75272	65.0936	96.82673	-165.17501	181.44841	240.84632	160.29299	17.90074	27.66478	-143.20592	0
11	43.12451	-139.95124	-183.07575	48.00653	111.47279	-160.29299	161.92033	255.49238	165.17501	7.32303	27.66478	-140.76491	0
12	62.65259	-132.62821	-195.2808	33.36047	128.55986	-162.734	222.94558	316.51763	182.26208	66.72094	76.48498	-128.55986	0
13	40.6835	-149.71528	-190.39878	52.88855	113.9138	-170.05703	196.09447	326.28167	174.93905	56.9569	54.51589	-160.29299	0
14	30.91946	-147.27427	-178.19373	57.77057	104.14976	-162.734	176.56639	333.6047	189.58511	27.66478	44.75185	-194.46713	0
15	60.21158	-110.65912	-170.8707	23.59643	113.9138	-140.76491	174.12538	362.89682	206.67218	32.5468	49.63387	-182.26208	0
16	45.56552	-93.57205	-139.13757	23.59643	91.94471	-116.35481	127.74619	377.54288	196.90814	-4.88202	34.98781	-192.02612	0
17	35.80148	-115.54114	-151.34262	38.24249	91.94471	-133.44188	115.54114	372.66086	199.34915	-7.32303	32.5468	-194.46713	0
18	21.15542	-98.45407	-119.60949	38.24249	69.97562	-109.03178	88.69003	358.0148	187.1441	-26.85111	17.90074	-213.99521	0
19	8.95037	-103.33609	-112.28646	45.56552	60.21158	-106.59077	91.13104	399.51197	189.58511	-24.4101	25.22377	-194.46713	0
20	43.12451	-144.83326	-187.95777	50.44754	113.9138	-165.17501	108.21811	419.04005	223.75925	7.32303	39.86983	-167.61602	0
21	33.36047	-122.86417	-156.22464	43.12451	94.38572	-138.3239	132.62821	433.68611	226.20026	32.5468	37.42882	-177.38006	0
22	8.95037	-144.83326	-153.78363	67.53461	79.73966	-148.08794	98.45407	450.77318	213.99521	9.76404	10.57771	-221.31824	0
23	6.50936	-135.06922	-141.57858	62.65259	72.41663	-138.3239	122.86417	504.4754	245.72834	17.90074	10.57771	-243.28733	0
24	-6.50936	-139.95124	-134.25555	72.41663	62.65259	-138.3239	86.24902	497.15237	238.40531	-36.61515	-14.64606	-282.34349	0
25	-33.36047	-171.68437	-139.13757	101.70875	52.88855	-155.41097	54.51589	509.35742	226.20026	-46.37919	-19.52808	-282.34349	0
26	-26.03744	-171.68437	-146.4606	96.82673	60.21158	-160.29299	3.25468	519.12146	209.11319	-78.11232	-41.49717	-289.66652	0
27	-30.91946	-198.53548	-168.42969	113.9138	67.53461	-184.70309	-9.76404	509.35742	216.43622	-80.55333	-41.49717	-289.66652	0
28	-4.06835	-161.92033	-158.66565	82.18067	77.29865	-160.29299	-36.61515	499.59338	209.11319	-75.67131	-36.61515	-270.13844	0
29	-13.83239	-179.0074	-165.98868	94.38572	74.85764	-172.49804	-9.76404	533.76752	206.67218	-53.70222	-29.29212	-238.40531	0
30	0.81367	-181.44841	-183.07575	89.5037	91.94471	-182.26208	-12.20505	519.12146	206.67218	-63.46626	-21.96909	-240.84632	0
31	-18.71441	-176.56639	-158.66565	96.82673	69.97562	-167.61602	-14.64606	528.8855	213.99521	-68.34828	-43.93818	-248.16935	0
32	-6.50936	-142.39225	-136.69656	72.41663	65.0936	-140.76491	25.22377	570.38267	218.87723	-2.44101	4.88202	-235.9643	0
33	-16.2734	-169.24336	-153.78363	91.94471	67.53461	-162.734	10.57771	587.46974	231.08228	-26.85111	-7.32303	-240.84632	0
34	-16.2734	-186.33043	-170.8707	99.26774	77.29865	-179.82107	-26.85111	602.1158	238.40531	-70.78929	-17.08707	-267.69743	0
35	-18.71441	-166.80235	-148.90161	91.94471	65.0936	-157.85198	-46.37919	606.99782	245.72834	-29.29212	-21.96909	-265.25642	0
36	-21.15542	-159.47932	-139.13757	89.5037	57.77057	-150.52895	-85.43535	611.87984	223.75925	-58.58424	-17.08707	-279.90248	0
37	-11.39138	-166.80235	-156.22464	87.06269	72.41663	-162.734	-126.93252	597.23378	206.67218	-100.08141	-46.37919	-289.66652	0
38	-21.15542	-169.24336	-148.90161	94.38572	62.65259	-160.29299	-109.84545	602.1158	211.5542	-82.99434	-51.26121	-277.46147	0
39	-30.91946	-174.12538	-144.01959	101.70875	55.32956	-160.29299	-97.6404	604.55681	187.1441	-68.34828	-46.37919	-257.93339	0
40	-35.80148	-159.47932	-124.49151	96.82673	43.12451	-143.20592	-107.40444	609.43883	204.23117	-73.2303	-51.26121	-275.02046	0
41	-4.06835	-130.1872	-126.93252	65.0936	60.21158	-128.55986	-48.8202	628.96691	226.20026	-19.52808	-17.08707	-250.61036	0
42	-4.06835	-147.27427	-144.01959	74.85764	69.97562	-145.64693	-41.49717	641.17196	233.52329	-4.88202	-21.96909	-250.61036	0
43	-16.2734	-130.1872	-114.72747	72.41663	48.00653	-123.67784	-63.46626	663.14105	228.64127	-12.20505	-7.32303	-267.69743	0
44	-11.39138	-127.74619	-117.16848	67.53461	52.88855	-123.67784	-97.6404	660.70004	228.64127	-43.93818	-26.85111	-296.98955	0
45	-1.62734	-135.06922	-134.25555	67.53461	65.0936	-135.88289	-114.72747	663.14105	226.20026	-31.73313	-9.76404	-279.90248	0
46	4.06835	-127.74619	-131.81454	60.21158	67.53461	-128.55986	-165.98868	650.936	211.5542	-80.55333	-9.76404	-299.43056	0
47	-6.50936	-164.36134	-158.66565	84.62168	74.85764	-162.734	-136.69656	663.14105	228.64127	-48.8202	-31.73313	-282.34349	0
48	-11.39138	-137.51023	-126.93252	72.41663	57.77057	-133.44188	-161.10666	641.17196	209.11319	-63.46626	-31.73313	-279.90248	0
49	8.95037	-100.89508	-109.84545	45.56552	57.77057	-104.14976	-144.01959	646.05398	201.79016	-58.58424	-43.93818	-267.69743	0
50	-6.50936	-108.21811	-102.52242	55.32956	48.00653	-106.59077	-144.01959	641.17196	201.79016	-34.17414	-26.85111	-284.7845	0
51	-21.15542	-132.62821	-112.28646	74.85764	45.56552	-123.67784	-117.16848	648.49499	196.90814	-29.29212	-39.05616	-277.46147	0
52	-18.71441	-169.24336	-151.34262	91.94471	65.0936	-160.29299	-119.60949	670.46408	221.31824	9.76404	-36.61515	-257.93339	0
53	-35.80148	-176.56639	-141.57858	104.14976	52.88855	-160.29299	-107.40444	707.07923	233.52329	17.90074	-19.52808	-260.3744	0
54	-33.36047	-144.83326	-112.28646	87.06269	38.24249	-128.55986	-146.4606	719.28428	233.52329	0	-9.76404	-277.46147	0
55	-18.71441	-93.57205	-75.67131	55.32956	28.47845	-84.62168	-165.98868	704.63822	201.79016	-21.96909	-48.8202	-284.7845	0
56	0.81367	-125.30518	-126.93252	60.21158	62.65259	-126.11885	-187.95777	724.1663	218.87723	-31.73313	-26.85111	-270.13844	0
57	6.50936	-86.24902	-92.75838	38.24249	48.00653	-89.5037	-229.45494	694.87418	194.46713	-51.26121	-41.49717	-284.7845	0
58	-1.62734	-69.16195	-68.34828	33.36047	33.36047	-69.97562	-241.65999	670.46408	177.38006	-48.8202	-70.78929	-294.54854	0
59	-6.50936	-161.92033	-156.22464	82.18067	74.85764	-160.29299	-173.31171	709.52024	209.11319	-2.44101	-48.8202	-231.08228	0
60	-13.83239	-152.15629	-139.13757	82.18067	62.65259	-145.64693	-178.19373	704.63822	209.11319	-2.44101	-9.76404	-231.08228	0
61	-35.80148	-139.95124	-104.96343	87.06269	33.36047	-123.67784	-183.07575	685.11014	194.46713	-7.32303	-41.49717	-240.84632	0
62	-26.03744	-157.03831	-131.81454	89.5037	52.88855	-145.64693	-119.60949	711.96125	211.5542	32.5468	-21.96909	-228.64127	0
63	4.06835	-135.06922	-139.13757	65.0936	69.97562	-135.88289	-144.01959	736.37135	216.43622	34.98781	-4.88202	-223.75925	0
64	-8.95037	-130.1872	-122.0505	67.53461	55.32956	-126.11885	-175.75272	748.5764	221.31824	14.64606	-12.20505	-248.16935	0
65	-8.95037	-93.57205	-85.43535	50.44754	38.24249	-89.5037	-214.80888	724.1663	201.79016	22.78276	-19.52808	-245.72834	0
66	4.06835	-113.10013	-117.16848	52.88855	60.21158	-113.9138	-268.5111	719.28428	194.46713	-36.61515	-36.61515	-253.05137	0
67	-33.36047	-139.95124	-107.40444	84.62168	35.80148	-123.67784	-275.83413	721.72529	196.90814	-43.93818	-31.73313	-255.49238	0
68	-35.80148	-127.74619	-92.75838	79.73966	28.47845	-111.47279	-285.59817	716.84327	196.90814	-43.93818	-41.49717	-255.49238	0
69	-6.50936	-100.89508	-95.19939	52.88855	43.12451	-99.26774	-266.07009	721.72529	192.02612	-26.85111	-36.61515	-235.9643	0
70	-16.2734	-117.98215	-102.52242	65.0936	43.12451	-111.47279	-256.30605	707.07923	187.1441	-51.26121	-43.93818	-233.52329	0
71	-21.15542	-115.54114	-95.19939	67.53461	35.80148	-106.59077	-227.01393	709.52024	194.46713	-12.20505	-31.73313	-221.31824	0
72	4.06835	-110.65912	-114.72747	52.88855	57.77057	-111.47279	-231.89595	711.96125	196.90814	-21.96909	-17.08707	-221.31824	0
73	4.06835	-96.01306	-100.08141	45.56552	50.44754	-96.82673	-214.80888	755.89943	206.67218	2.44101	-4.88202	-206.67218	0
74	-23.59643	-115.54114	-92.75838	67.53461	33.36047	-104.14976	-241.65999	768.10448	213.99521	-4.88202	0	-218.87723	0
75	-11.39138	-105.7771	-95.19939	57.77057	40.6835	-101.70875	-285.59817	746.13539	199.34915	-12.20505	4.88202	-216.43622	0
76	8.95037	-91.13104	-100.08141	40.6835	52.88855	-94.38572	-312.44928	738.81236	187.1441	-58.58424	-14.64606	-223.75925	0
77	6.50936	-88.69003	-95.19939	40.6835	50.44754	-91.94471	-322.21332	731.48933	182.26208	-48.8202	-17.08707	-226.20026	0
78	-8.95037	-100.89508	-92.75838	52.88855	40.6835	-96.82673	-344.18241	719.28428	182.26208	-61.02525	-34.17414	-231.08228	0
79	-8.95037	-122.86417	-114.72747	65.0936	52.88855	-118.79582	-327.09534	711.96125	179.82107	-58.58424	-31.73313	-218.87723	0
80	-8.95037	-108.21811	-100.08141	57.77057	45.56552	-104.14976	-300.24423	714.40226	177.38006	-53.70222	-21.96909	-211.5542	0
81	8.95037	-76.48498	-85.43535	33.36047	45.56552	-79.73966	-258.74706	719.28428	187.1441	-14.64606	-29.29212	-206.67218	0
82	4.06835	-93.57205	-97.6404	43.12451	50.44754	-94.38572	-234.33696	738.81236	199.34915	14.64606	2.44101	-177.38006	0
83	4.06835	-93.57205	-97.6404	43.12451	50.44754	-94.38572	-253.86504	753.45842	196.90814	17.90074	-7.32303	-187.1441	0
84	8.95037	-88.69003	-97.6404	38.24249	52.88855	-91.94471	-270.95211	753.45842	194.46713	17.90074	0	-204.23117	0
85	0.81367	-93.57205	-95.19939	45.56552	48.00653	-94.38572	-295.36221	743.69438	189.58511	-4.88202	-7.32303	-196.90814	0
86	-13.83239	-86.24902	-73.2303	48.00653	28.47845	-79.73966	-314.89029	758.34044	194.46713	14.64606	2.44101	-192.02612	0
87	-21.15542	-88.69003	-68.34828	52.88855	23.59643	-79.73966	-366.1515	736.37135	177.38006	-31.73313	-17.08707	-199.34915	0
88	-4.06835	-100.89508	-97.6404	50.44754	45.56552	-99.26774	-351.50544	726.60731	179.82107	-46.37919	-7.32303	-199.34915	0
89	13.83239	-83.80801	-97.6404	33.36047	55.32956	-89.5037	-329.53635	724.1663	177.38006	-46.37919	-19.52808	-192.02612	0
90	-8.95037	-98.45407	-90.31737	52.88855	40.6835	-94.38572	-305.12625	726.60731	184.70309	-26.85111	-12.20505	-187.1441	0
91	0.81367	-103.33609	-104.96343	50.44754	52.88855	-104.14976	-278.27514	721.72529	172.49804	4.88202	0	-179.82107	0
92	-6.50936	-103.33609	-97.6404	52.88855	45.56552	-101.70875	-261.18807	729.04832	179.82107	20.34175	15.45973	-182.26208	0
93	-21.15542	-120.42316	-100.08141	69.97562	38.24249	-111.47279	-285.59817	746.13539	177.38006	22.78276	10.57771	-179.82107	0
94	-45.56552	-127.74619	-82.99434	84.62168	18.71441	-106.59077	-317.3313	741.25337	174.93905	12.20505	-2.44101	-194.46713	0
95	-65.0936	-108.21811	-43.93818	84.62168	-11.39138	-77.29865	-336.85938	731.48933	165.17501	2.44101	7.32303	-187.1441	0
96	-11.39138	-91.13104	-80.55333	50.44754	33.36047	-87.06269	-358.82847	736.37135	167.61602	-12.20505	-14.64606	-192.02612	0
97	43.12451	-56.9569	-100.08141	6.50936	69.97562	-77.29865	-351.50544	736.37135	167.61602	2.44101	17.90074	-174.93905	0
98	30.91946	-76.48498	-107.40444	21.15542	67.53461	-91.94471	-368.59251	719.28428	157.85198	-39.05616	-31.73313	-187.1441	0
99	-11.39138	-96.01306	-85.43535	52.88855	35.80148	-91.94471	-353.94645	704.63822	140.76491	-34.17414	-36.61515	-192.02612	0
100	-33.36047	-103.33609	-70.78929	67.53461	18.71441	-87.06269	-329.53635	711.96125	150.52895	-29.29212	-26.85111	-184.70309	1000	P+0
101	-23.59643	-69.16195	-46.37919	45.56552	11.39138	-57.77057	-283.15716	729.04832	170.05703	2.44101	-17.08707	-167.61602	0
102	-8.95037	-76.48498	-68.34828	40.6835	28.47845	-72.41663	-297.80322	741.25337	182.26208	-14.64606	2.44101	-152.96996	0
103	-21.15542	-98.45407	-78.11232	57.77057	28.47845	-89.5037	-278.27514	765.66347	179.82107	34.98781	-4.88202	-155.41097	0
104	-21.15542	-88.69003	-68.34828	52.88855	23.59643	-79.73966	-283.15716	785.19155	187.1441	39.86983	-9.76404	-162.734	0
105	-23.59643	-122.86417	-100.08141	72.41663	38.24249	-111.47279	-327.09534	765.66347	179.82107	-12.20505	-19.52808	-174.93905	0
106	-23.59643	-137.51023	-114.72747	79.73966	45.56552	-126.11885	-336.85938	777.86852	174.93905	-41.49717	-39.05616	-182.26208	0
107	-33.36047	-157.03831	-124.49151	94.38572	45.56552	-140.76491	-336.85938	780.30953	172.49804	-73.2303	-58.58424	-201.79016	0
108	-40.6835	-161.92033	-122.0505	99.26774	40.6835	-143.20592	-339.30039	763.22246	170.05703	-107.40444	-85.43535	-209.11319	0
109	-21.15542	-152.15629	-131.81454	84.62168	55.32956	-143.20592	-307.56726	765.66347	165.17501	-136.69656	-107.40444	-206.67218	0
110	-38.24249	-203.4175	-165.98868	118.79582	62.65259	-184.70309	-270.95211	755.89943	165.17501	-122.0505	-97.6404	-209.11319	0
111	-48.00653	-213.18154	-165.98868	128.55986	57.77057	-189.58511	-292.9212	729.04832	145.64693	-122.0505	-109.84545	-201.79016	0
112	-35.80148	-266.88376	-231.89595	150.52895	96.82673	-250.61036	-295.36221	709.52024	131.00087	-70.78929	-61.02525	-174.93905	0
113	-11.39138	-281.52982	-270.95211	145.64693	128.55986	-277.46147	-324.65433	702.19721	111.47279	-36.61515	-39.05616	-150.52895	0
114	18.71441	-283.97083	-302.68524	131.00087	160.29299	-292.10753	-344.18241	702.19721	106.59077	7.32303	4.88202	-116.35481	0
115	16.2734	-264.44275	-280.71615	123.67784	148.08794	-272.57945	-400.32564	658.25903	69.97562	2.44101	13.01872	-104.14976	0
116	55.32956	-215.62255	-270.95211	79.73966	162.734	-243.28733	-436.94079	633.84893	38.24249	27.66478	27.66478	-113.9138	0
117	72.41663	-240.03265	-312.44928	82.18067	192.02612	-275.02046	-466.23291	606.99782	16.2734	27.66478	25.22377	-113.9138	0
118	77.29865	-244.91467	-322.21332	82.18067	199.34915	-282.34349	-480.87897	585.02873	4.06835	66.72094	34.98781	-96.82673	0
119	82.18067	-247.35568	-329.53635	82.18067	204.23117	-287.22551	-480.87897	565.50065	-13.83239	96.01306	49.63387	-65.0936	0
120	77.29865	-235.15063	-312.44928	77.29865	194.46713	-272.57945	-463.7919	543.53156	-21.15542	152.15629	91.13104	-43.12451	0
121	79.73966	-244.91467	-324.65433	82.18067	201.79016	-284.7845	-449.14584	519.12146	-35.80148	188.77144	120.42316	-4.06835	0
122	145.64693	-310.82194	-456.46887	82.18067	299.43056	-382.4249	-478.43796	497.15237	-50.44754	200.97649	181.44841	60.21158	0
123	155.41097	-401.13931	-556.55028	121.23683	355.57379	-477.62429	-478.43796	511.79843	-50.44754	276.6478	257.11972	133.44188	0
124	160.29299	-393.81628	-554.10927	116.35481	355.57379	-472.74227	-519.93513	506.91641	-67.53461	313.26295	288.85285	165.17501	0
125	165.17501	-374.2882	-539.46321	104.14976	350.69177	-455.6552	-571.19634	458.09621	-96.82673	342.55507	318.14497	199.34915	0
126	182.26208	-308.38093	-490.64301	62.65259	336.04571	-399.51197	-600.48846	453.21419	-91.94471	342.55507	347.43709	228.64127	0
127	172.49804	-159.47932	-331.97736	-6.50936	250.61036	-245.72834	-598.04745	460.53722	-87.06269	369.40618	349.8781	228.64127	0
128	199.34915	-30.10579	-229.45494	-84.62168	213.99521	-128.55986	-573.63735	492.27035	-57.77057	386.49325	371.84719	248.16935	0
129	228.64127	109.84545	-119.60949	-170.05703	174.93905	-3.25468	-549.22725	524.00348	-35.80148	420.66739	384.05224	272.57945	0
130	211.5542	219.6909	8.1367	-216.43622	101.70875	113.9138	-458.90988	577.7057	18.71441	474.36961	384.05224	248.16935	0
131	192.02612	353.94645	161.92033	-272.57945	16.2734	257.93339	-378.35655	633.84893	67.53461	479.25163	362.08315	228.64127	0
132	177.38006	446.70483	269.32477	-311.63561	-45.56552	358.0148	-280.71615	724.1663	148.08794	515.86678	349.8781	206.67218	0
133	143.20592	554.10927	410.90335	-348.25076	-133.44188	482.50631	-170.8707	851.09882	223.75925	515.86678	310.82194	157.85198	0
134	109.03178	627.33957	518.30779	-367.77884	-204.23117	572.82368	-78.11232	941.41619	284.7845	481.69264	269.32477	84.62168	0
135	109.03178	722.53896	613.50718	-416.59904	-253.05137	668.02307	-21.96909	987.79538	345.80975	427.99042	215.62255	35.80148	0
136	79.73966	717.65694	637.91728	-399.51197	-279.90248	677.78711	52.07488	1053.70265	394.62995	379.17022	149.71528	-4.06835	0
137	62.65259	744.50805	681.85546	-404.39399	-309.1946	714.40226	32.5468	1068.34871	416.59904	308.38093	108.21811	-45.56552	0
138	4.06835	751.83108	747.76273	-377.54288	-372.66086	751.01741	93.57205	1102.52285	458.09621	210.74053	52.07488	-57.77057	0
139	-57.77057	749.39007	806.34697	-345.80975	-431.2451	777.86852	137.51023	1139.138	472.74227	105.7771	10.57771	-74.85764	0
140	-101.70875	788.44623	889.34131	-343.36874	-494.71136	838.89377	161.92033	1156.22507	502.03439	56.9569	-19.52808	-69.97562	0
141	-131.00087	724.97997	855.16717	-296.98955	-492.27035	790.07357	166.80235	1126.93295	502.03439	12.20505	-36.61515	-72.41663	0
142	-150.52895	558.99129	708.70657	-204.23117	-428.80409	633.84893	193.65346	1117.16891	502.03439	-34.17414	-80.55333	-89.5037	0
143	-143.20592	456.46887	598.86112	-157.85198	-370.21985	526.44449	210.74053	1124.49194	487.38833	-90.31737	-117.16848	-133.44188	0
144	-143.20592	297.80322	440.19547	-77.29865	-292.10753	367.77884	186.33043	1097.64083	445.89116	-126.93252	-144.01959	-184.70309	0
145	-160.29299	248.98302	408.46234	-45.56552	-284.7845	328.72268	147.27427	1058.58467	421.48106	-187.95777	-190.39878	-211.5542	0
146	-157.85198	234.33696	391.37527	-38.24249	-275.02046	311.63561	159.47932	1065.9077	426.36308	-234.33696	-219.6909	-221.31824	0
147	-167.61602	187.95777	354.76012	-11.39138	-260.3744	270.13844	230.26861	1104.96386	458.09621	-222.13191	-205.04484	-221.31824	0
148	-177.38006	170.8707	347.43709	0.81367	-262.81541	257.93339	288.85285	1129.37396	477.62429	-248.98302	-231.89595	-240.84632	0
149	-209.11319	148.90161	357.20113	28.47845	-282.34349	253.05137	308.38093	1126.93295	470.30126	-295.36221	-253.86504	-260.3744	0
150	-213.99521	75.67131	288.85285	67.53461	-250.61036	182.26208	352.31911	1129.37396	475.18328	-251.42403	-231.89595	-248.16935	0
151	-184.70309	29.29212	213.18154	77.29865	-199.34915	121.23683	413.34436	1141.57901	489.82934	-200.16282	-202.60383	-216.43622	0
152	-170.05703	-30.10579	139.95124	99.26774	-155.41097	55.32956	432.87244	1156.22507	504.4754	-197.72181	-202.60383	-218.87723	0
153	-167.61602	-32.5468	135.06922	99.26774	-152.96996	50.44754	484.13365	1190.39921	509.35742	-158.66565	-190.39878	-206.67218	0
154	-189.58511	-49.63387	139.95124	118.79582	-165.17501	45.56552	513.42577	1222.13234	521.56247	-134.25555	-180.63474	-204.23117	0
155	-162.734	-13.01872	149.71528	87.06269	-157.85198	67.53461	520.7488	1224.57335	536.20853	-148.90161	-178.19373	-194.46713	0
156	-157.85198	-8.1367	149.71528	82.18067	-155.41097	69.97562	525.63082	1236.7784	538.64954	-146.4606	-180.63474	-201.79016	0
157	-160.29299	46.37919	205.85851	55.32956	-182.26208	126.11885	525.63082	1234.33739	531.32651	-165.98868	-180.63474	-211.5542	0
158	-155.41097	73.2303	227.8276	40.6835	-192.02612	150.52895	503.66173	1209.92729	502.03439	-180.63474	-219.6909	-223.75925	0
159	-140.76491	-22.78276	117.98215	79.73966	-131.00087	48.00653	510.98476	1236.7784	531.32651	-180.63474	-187.95777	-189.58511	0
160	-133.44188	26.85111	159.47932	52.88855	-145.64693	91.94471	518.30779	1222.13234	521.56247	-139.13757	-161.10666	-182.26208	0
161	-152.96996	0	152.15629	74.85764	-152.96996	74.85764	481.69264	1202.60426	514.23944	-122.0505	-183.07575	-170.05703	0
162	-113.9138	75.67131	188.77144	18.71441	-150.52895	131.00087	508.54375	1205.04527	516.68045	-92.75838	-131.81454	-138.3239	0
163	-99.26774	117.16848	215.62255	-8.95037	-157.85198	165.17501	481.69264	1231.89638	524.00348	-73.2303	-119.60949	-118.79582	0
164	-94.38572	158.66565	252.2377	-33.36047	-172.49804	204.23117	496.3387	1268.51153	545.97257	-36.61515	-112.28646	-96.82673	0
165	-96.82673	180.63474	276.6478	-43.12451	-187.1441	228.64127	452.40052	1261.1885	553.2956	-65.90727	-122.0505	-94.38572	0
166	-96.82673	183.07575	279.08881	-43.12451	-187.1441	231.08228	403.58032	1234.33739	528.8855	-68.34828	-117.16848	-91.94471	0
167	-104.14976	170.8707	274.20679	-33.36047	-189.58511	221.31824	310.82194	1200.16325	516.68045	-87.87636	-117.16848	-91.94471	0
168	-67.53461	163.54767	230.26861	-48.00653	-148.08794	196.90814	252.2377	1173.31214	511.79843	-80.55333	-117.16848	-72.41663	0
169	-77.29865	156.22464	232.70962	-40.6835	-155.41097	194.46713	171.68437	1122.05093	470.30126	-107.40444	-131.81454	-72.41663	0
170	-72.41663	173.31171	244.91467	-50.44754	-157.85198	209.11319	122.86417	1063.46669	431.2451	-92.75838	-109.84545	-65.0936	0
171	-77.29865	146.4606	222.94558	-35.80148	-150.52895	184.70309	100.89508	1031.73356	419.04005	-43.93818	-87.87636	-38.24249	0
172	-55.32956	151.34262	205.85851	-48.00653	-131.00087	177.38006	52.07488	987.79538	397.07096	-41.49717	-82.99434	-28.47845	0
173	-48.00653	139.13757	186.33043	-45.56552	-116.35481	162.734	27.66478	978.03134	387.30692	-26.85111	-61.02525	-16.2734	0
174	-50.44754	109.84545	159.47932	-30.91946	-104.14976	133.44188	0.81367	948.73922	365.33783	20.34175	-39.05616	11.39138	0
175	-65.0936	82.99434	147.27427	-8.95037	-106.59077	113.9138	-92.75838	851.09882	318.95864	-9.76404	-46.37919	5.69569	0
176	-77.29865	75.67131	152.15629	0.81367	-113.9138	113.9138	-136.69656	819.36569	289.66652	-29.29212	-56.14323	11.39138	0
177	-52.88855	95.19939	147.27427	-21.15542	-99.26774	121.23683	-161.10666	768.10448	253.05137	-29.29212	-46.37919	16.2734	0
178	-60.21158	80.55333	139.95124	-11.39138	-99.26774	109.03178	-187.95777	716.84327	218.87723	-24.4101	-29.29212	23.59643	0
179	-50.44754	53.70222	103.33609	-1.62734	-77.29865	77.29865	-224.57292	663.14105	179.82107	-48.8202	-31.73313	18.71441	0
180	-33.36047	80.55333	113.10013	-23.59643	-72.41663	96.82673	-234.33696	631.40792	162.734	-31.73313	-56.14323	16.2734	0
181	-40.6835	80.55333	120.42316	-21.15542	-79.73966	99.26774	-246.54201	594.79277	135.88289	-31.73313	-41.49717	23.59643	0
182	-26.03744	75.67131	100.89508	-26.03744	-62.65259	87.06269	-236.77797	565.50065	126.11885	9.76404	-21.96909	43.12451	0
183	-43.12451	85.43535	127.74619	-21.15542	-84.62168	106.59077	-248.98302	560.61863	116.35481	25.22377	-4.88202	50.44754	0
184	-48.00653	75.67131	122.86417	-13.83239	-84.62168	99.26774	-251.42403	563.05964	111.47279	27.66478	-12.20505	57.77057	0
185	-57.77057	68.34828	125.30518	-6.50936	-91.94471	96.82673	-258.74706	528.8855	96.82673	4.88202	2.44101	60.21158	0
186	-52.88855	53.70222	105.7771	-1.62734	-79.73966	79.73966	-280.71615	536.20853	99.26774	17.90074	-2.44101	62.65259	0
187	-21.15542	107.40444	127.74619	-43.12451	-74.85764	116.35481	-334.41837	506.91641	84.62168	-4.88202	-17.08707	50.44754	0
188	-28.47845	100.08141	127.74619	-35.80148	-77.29865	113.9138	-334.41837	489.82934	72.41663	-31.73313	-21.96909	38.24249	0
189	-52.88855	48.8202	100.89508	0.81367	-77.29865	74.85764	-361.26948	467.86025	55.32956	-63.46626	-29.29212	26.03744	0
190	-28.47845	92.75838	120.42316	-33.36047	-74.85764	106.59077	-327.09534	467.86025	62.65259	-26.85111	-24.4101	43.12451	0
191	-43.12451	78.11232	120.42316	-18.71441	-82.18067	99.26774	-341.7414	441.00914	55.32956	-43.93818	-21.96909	40.6835	0
192	-79.73966	41.49717	120.42316	18.71441	-99.26774	79.73966	-307.56726	443.45015	60.21158	0	-14.64606	48.00653	0
193	-33.36047	70.78929	103.33609	-18.71441	-67.53461	87.06269	-292.9212	458.09621	67.53461	4.88202	2.44101	62.65259	0
194	-18.71441	102.52242	120.42316	-43.12451	-69.97562	111.47279	-278.27514	480.0653	72.41663	14.64606	32.5468	82.18067	0
195	-13.83239	114.72747	127.74619	-50.44754	-69.97562	121.23683	-305.12625	455.6552	67.53461	-24.4101	0	65.0936	0
196	-26.03744	92.75838	117.98215	-33.36047	-72.41663	104.14976	-307.56726	445.89116	57.77057	-24.4101	10.57771	50.44754	0
197	-35.80148	97.6404	132.62821	-30.91946	-84.62168	113.9138	-334.41837	428.80409	48.00653	-41.49717	-4.88202	30.91946	0
198	-26.03744	117.16848	142.39225	-45.56552	-84.62168	128.55986	-356.38746	406.835	43.12451	-61.02525	-7.32303	33.36047	0
199	8.95037	136.69656	127.74619	-72.41663	-60.21158	133.44188	-371.03352	389.74793	50.44754	-68.34828	-12.20505	35.80148	0
200	-4.06835	134.25555	137.51023	-65.0936	-69.97562	135.88289	-339.30039	387.30692	43.12451	-43.93818	-2.44101	43.12451	0
201	-18.71441	119.60949	137.51023	-50.44754	-77.29865	128.55986	-317.3313	392.18894	57.77057	-24.4101	7.32303	57.77057	0
202	-30.91946	73.2303	103.33609	-21.15542	-67.53461	87.06269	-329.53635	387.30692	62.65259	-17.08707	17.90074	65.0936	0
203	-23.59643	104.96343	127.74619	-40.6835	-74.85764	116.35481	-292.9212	404.39399	60.21158	0	10.57771	67.53461	0
204	-8.95037	119.60949	127.74619	-55.32956	-67.53461	123.67784	-295.36221	409.27601	60.21158	22.78276	27.66478	69.97562	0
205	-6.50936	129.37353	135.06922	-62.65259	-69.97562	131.00087	-336.85938	382.4249	52.88855	-12.20505	2.44101	62.65259	0
206	-1.62734	124.49151	125.30518	-62.65259	-62.65259	123.67784	-327.09534	387.30692	55.32956	-21.96909	10.57771	72.41663	0
207	-6.50936	144.01959	149.71528	-69.97562	-77.29865	145.64693	-344.18241	370.21985	45.56552	-36.61515	-7.32303	67.53461	0
208	21.15542	151.34262	130.1872	-87.06269	-55.32956	140.76491	-358.82847	360.45581	45.56552	-41.49717	-12.20505	72.41663	0
209	-13.83239	153.78363	166.80235	-69.97562	-89.5037	160.29299	-368.59251	345.80975	40.6835	-73.2303	-9.76404	60.21158	0
210	-30.91946	141.57858	171.68437	-55.32956	-101.70875	155.41097	-339.30039	340.92773	45.56552	-43.93818	-7.32303	67.53461	0
211	-21.15542	165.98868	186.33043	-72.41663	-104.14976	174.93905	-363.71049	326.28167	48.00653	-68.34828	-26.85111	62.65259	0
212	-38.24249	112.28646	149.71528	-38.24249	-94.38572	131.00087	-322.21332	336.04571	60.21158	-12.20505	4.88202	84.62168	0
213	-16.2734	153.78363	169.24336	-69.97562	-91.94471	160.29299	-324.65433	345.80975	57.77057	-21.96909	0	84.62168	0
214	-16.2734	136.69656	152.15629	-60.21158	-84.62168	143.20592	-312.44928	358.0148	65.0936	-4.88202	13.01872	101.70875	0
215	-16.2734	141.57858	157.03831	-62.65259	-87.06269	148.08794	-341.7414	328.72268	62.65259	-31.73313	13.01872	99.26774	0
216	-40.6835	148.90161	188.77144	-55.32956	-113.9138	167.61602	-341.7414	328.72268	55.32956	-34.17414	-2.44101	84.62168	0
217	-26.03744	180.63474	205.85851	-77.29865	-116.35481	192.02612	-393.00261	306.75359	35.80148	-78.11232	-29.29212	74.85764	0
218	-21.15542	153.78363	174.12538	-67.53461	-96.82673	162.734	-363.71049	314.07662	45.56552	-51.26121	-12.20505	89.5037	0
219	-6.50936	183.07575	188.77144	-89.5037	-96.82673	184.70309	-410.08968	287.22551	33.36047	-78.11232	-14.64606	84.62168	0
220	-50.44754	168.42969	218.06356	-60.21158	-133.44188	192.02612	-390.5616	292.10753	33.36047	-58.58424	-14.64606	89.5037	0
221	-33.36047	185.51676	218.06356	-77.29865	-126.11885	201.79016	-390.5616	267.69743	30.91946	-53.70222	-9.76404	84.62168	0
222	-45.56552	170.8707	215.62255	-62.65259	-131.00087	192.02612	-368.59251	260.3744	26.03744	-41.49717	-21.96909	74.85764	0
223	-40.6835	129.37353	169.24336	-45.56552	-104.14976	148.08794	-363.71049	294.54854	45.56552	-17.08707	13.01872	99.26774	0
224	-4.06835	175.75272	179.0074	-87.06269	-91.94471	177.38006	-336.85938	318.95864	65.0936	17.90074	39.86983	135.88289	0
225	-28.47845	195.2808	222.94558	-84.62168	-126.11885	209.11319	-380.79756	279.90248	50.44754	-24.4101	17.90074	121.23683	0
226	-16.2734	227.01393	242.47366	-106.59077	-128.55986	233.52329	-380.79756	275.02046	45.56552	-53.70222	15.45973	113.9138	0
227	-8.95037	234.33696	242.47366	-113.9138	-126.11885	238.40531	-400.32564	284.7845	52.88855	-21.96909	13.01872	118.79582	0
228	-30.91946	197.72181	227.8276	-84.62168	-128.55986	211.5542	-417.41271	270.13844	43.12451	-68.34828	4.88202	111.47279	0
229	-26.03744	195.2808	220.50457	-84.62168	-123.67784	206.67218	-446.70483	248.16935	38.24249	-68.34828	15.45973	101.70875	0
230	-16.2734	248.98302	264.44275	-116.35481	-140.76491	255.49238	-412.53069	240.84632	38.24249	-46.37919	-4.88202	99.26774	0
231	-30.91946	209.92686	240.03265	-89.5037	-135.88289	223.75925	-410.08968	248.16935	50.44754	-46.37919	15.45973	121.23683	0
232	-28.47845	173.31171	200.97649	-72.41663	-113.9138	187.1441	-402.76665	253.05137	60.21158	-29.29212	30.10579	123.67784	0
233	-60.21158	180.63474	240.03265	-60.21158	-150.52895	209.11319	-378.35655	272.57945	55.32956	-31.73313	20.34175	118.79582	0
234	-52.88855	190.39878	242.47366	-69.97562	-148.08794	216.43622	-390.5616	270.13844	50.44754	-19.52808	10.57771	128.55986	0
235	-35.80148	217.24989	252.2377	-91.94471	-143.20592	233.52329	-414.9717	250.61036	52.88855	-31.73313	15.45973	131.00087	0
236	-33.36047	234.33696	266.88376	-101.70875	-150.52895	250.61036	-388.12059	262.81541	60.21158	-4.88202	32.5468	133.44188	0
237	-30.91946	236.77797	266.88376	-104.14976	-148.08794	250.61036	-424.73574	253.05137	50.44754	-48.8202	2.44101	123.67784	0
238	-40.6835	234.33696	274.20679	-96.82673	-157.85198	253.05137	-434.49978	235.9643	33.36047	-63.46626	20.34175	121.23683	0
239	-6.50936	292.9212	298.61689	-143.20592	-152.96996	294.54854	-446.70483	228.64127	40.6835	-53.70222	0	118.79582	0
240	-48.00653	261.18807	308.38093	-106.59077	-177.38006	284.7845	-427.17675	221.31824	43.12451	-46.37919	0	123.67784	0
241	-40.6835	229.45494	269.32477	-94.38572	-155.41097	248.16935	-473.55594	206.67218	38.24249	-58.58424	-9.76404	121.23683	0
242	-33.36047	227.01393	259.56073	-96.82673	-145.64693	243.28733	-400.32564	226.20026	60.21158	-51.26121	20.34175	138.3239	0
243	-38.24249	229.45494	266.88376	-96.82673	-152.96996	248.16935	-405.20766	245.72834	60.21158	-31.73313	20.34175	143.20592	0
244	-35.80148	251.42403	286.41184	-109.03178	-160.29299	267.69743	-380.79756	262.81541	69.97562	4.88202	34.98781	157.85198	0
245	-30.91946	251.42403	281.52982	-111.47279	-155.41097	265.25642	-402.76665	245.72834	65.0936	-29.29212	22.78276	160.29299	0
246	-38.24249	258.74706	296.17588	-111.47279	-167.61602	277.46147	-402.76665	240.84632	60.21158	-39.05616	20.34175	148.08794	0
247	-43.12451	239.21898	281.52982	-99.26774	-162.734	260.3744	-417.41271	238.40531	55.32956	-51.26121	17.90074	152.96996	0
248	-50.44754	209.92686	259.56073	-79.73966	-155.41097	233.52329	-412.53069	235.9643	55.32956	-61.02525	7.32303	150.52895	0
249	-69.97562	200.16282	269.32477	-65.0936	-170.05703	233.52329	-483.31998	189.58511	28.47845	-85.43535	-24.4101	126.11885	0
250	-74.85764	195.2808	269.32477	-60.21158	-172.49804	231.08228	-427.17675	199.34915	40.6835	-41.49717	-2.44101	138.3239	0
251	-57.77057	239.21898	296.17588	-91.94471	-177.38006	267.69743	-427.17675	192.02612	43.12451	-56.14323	2.44101	145.64693	0
252	-52.88855	231.89595	283.97083	-89.5037	-167.61602	257.93339	-454.02786	182.26208	28.47845	-63.46626	-19.52808	143.20592	0
253	-45.56552	207.48585	252.2377	-82.18067	-148.08794	228.64127	-434.49978	211.5542	40.6835	-29.29212	7.32303	155.41097	0
254	-28.47845	239.21898	266.88376	-106.59077	-148.08794	253.05137	-385.67958	238.40531	57.77057	7.32303	32.5468	172.49804	0
255	-23.59643	241.65999	264.44275	-109.03178	-143.20592	253.05137	-424.73574	209.11319	52.88855	-26.85111	22.78276	172.49804	0
256	-28.47845	253.86504	281.52982	-113.9138	-155.41097	267.69743	-405.20766	213.99521	43.12451	-19.52808	20.34175	172.49804	0
257	-11.39138	253.86504	264.44275	-121.23683	-138.3239	257.93339	-407.64867	218.87723	55.32956	-7.32303	27.66478	179.82107	0
258	-26.03744	239.21898	264.44275	-106.59077	-145.64693	250.61036	-449.14584	196.90814	35.80148	-65.90727	10.57771	167.61602	0
259	-35.80148	217.24989	252.2377	-91.94471	-143.20592	233.52329	-505.28907	170.05703	26.03744	-92.75838	-17.08707	145.64693	0
260	-48.00653	200.16282	247.35568	-77.29865	-148.08794	223.75925	-446.70483	174.93905	30.91946	-53.70222	4.88202	145.64693	0
261	-16.2734	244.101	259.56073	-113.9138	-138.3239	250.61036	-488.202	162.734	23.59643	-61.02525	4.88202	145.64693	0
262	-23.59643	205.04484	227.8276	-91.94471	-126.11885	216.43622	-449.14584	170.05703	35.80148	-31.73313	15.45973	165.17501	0
263	-28.47845	200.16282	227.8276	-87.06269	-128.55986	213.99521	-427.17675	189.58511	33.36047	-14.64606	32.5468	174.93905	0
264	-30.91946	202.60383	232.70962	-87.06269	-131.00087	216.43622	-407.64867	199.34915	40.6835	9.76404	49.63387	187.1441	0
265	-23.59643	190.39878	213.18154	-84.62168	-118.79582	201.79016	-439.3818	179.82107	38.24249	-17.08707	30.10579	177.38006	0
266	-18.71441	178.19373	196.09447	-79.73966	-106.59077	187.1441	-397.88463	192.02612	43.12451	12.20505	42.31084	192.02612	0
267	-11.39138	214.80888	225.38659	-101.70875	-118.79582	218.87723	-458.90988	165.17501	18.71441	-31.73313	15.45973	170.05703	0
268	-8.95037	246.54201	254.67871	-118.79582	-131.00087	250.61036	-454.02786	152.96996	13.83239	-41.49717	20.34175	162.734	0
269	-18.71441	139.13757	157.03831	-60.21158	-87.06269	148.08794	-468.67392	138.3239	16.2734	-56.14323	27.66478	172.49804	0
270	-16.2734	141.57858	157.03831	-62.65259	-87.06269	148.08794	-407.64867	150.52895	28.47845	-2.44101	52.07488	189.58511	0
271	-13.83239	134.25555	147.27427	-60.21158	-79.73966	140.76491	-466.23291	131.00087	18.71441	-29.29212	42.31084	172.49804	0
272	-8.95037	129.37353	137.51023	-60.21158	-72.41663	133.44188	-414.9717	143.20592	28.47845	9.76404	47.19286	174.93905	0
273	-23.59643	100.08141	122.86417	-38.24249	-72.41663	111.47279	-456.46887	138.3239	11.39138	-19.52808	39.86983	172.49804	0
274	-21.15542	119.60949	139.95124	-50.44754	-79.73966	128.55986	-427.17675	140.76491	11.39138	-12.20505	49.63387	174.93905	0
275	0.81367	129.37353	127.74619	-65.0936	-62.65259	128.55986	-456.46887	113.9138	4.06835	-41.49717	49.63387	167.61602	0
276	-23.59643	85.43535	108.21811	-30.91946	-65.0936	96.82673	-419.85372	128.55986	13.83239	-14.64606	71.60296	170.05703	0
277	16.2734	112.28646	96.01306	-65.0936	-40.6835	104.14976	-424.73574	131.00087	18.71441	-24.4101	52.07488	179.82107	0
278	8.95037	82.99434	74.04397	-45.56552	-33.36047	79.73966	-441.82281	111.47279	4.06835	-17.08707	69.16195	160.29299	0
279	-18.71441	61.02525	78.92599	-21.15542	-48.00653	69.97562	-463.7919	87.06269	-16.2734	-46.37919	47.19286	138.3239	0
280	-8.95037	61.02525	69.16195	-26.03744	-38.24249	65.0936	-405.20766	91.94471	-5.69569	-7.32303	66.72094	140.76491	0
281	-13.83239	53.70222	66.72094	-21.15542	-40.6835	60.21158	-456.46887	69.97562	-21.15542	-39.05616	52.07488	126.11885	0
282	16.2734	34.17414	17.90074	-26.03744	-1.62734	26.03744	-424.73574	82.18067	-13.83239	-9.76404	74.04397	126.11885	0
283	0.81367	17.08707	15.45973	-8.95037	-6.50936	16.2734	-400.32564	96.82673	4.06835	27.66478	81.367	135.88289	0
284	16.2734	34.17414	17.90074	-26.03744	-1.62734	26.03744	-358.82847	116.35481	8.95037	56.9569	96.01306	148.08794	0
285	21.15542	24.4101	3.25468	-23.59643	8.95037	13.83239	-397.88463	79.73966	-11.39138	0	74.04397	118.79582	0
286	0.81367	12.20505	10.57771	-6.50936	-4.06835	11.39138	-361.26948	91.94471	-5.69569	49.63387	83.80801	113.9138	0
287	-30.91946	-8.1367	22.78276	18.71441	-28.47845	6.50936	-361.26948	96.82673	-5.69569	44.75185	81.367	113.9138	0
288	16.2734	24.4101	8.1367	-21.15542	3.25468	16.2734	-363.71049	91.94471	-3.25468	17.90074	81.367	106.59077	0
289	57.77057	51.26121	-7.32303	-55.32956	33.36047	23.59643	-390.5616	82.18067	-5.69569	7.32303	78.92599	96.82673	0
290	35.80148	9.76404	-26.85111	-23.59643	30.91946	-8.95037	-344.18241	89.5037	-5.69569	30.10579	81.367	99.26774	0
291	30.91946	9.76404	-21.96909	-21.15542	26.03744	-6.50936	-397.88463	79.73966	-16.2734	-19.52808	91.13104	84.62168	0
292	52.88855	21.96909	-31.73313	-38.24249	43.12451	-3.25468	-336.85938	101.70875	8.95037	54.51589	88.69003	96.82673	0
293	43.12451	-15.45973	-58.58424	-13.83239	50.44754	-35.80148	-327.09534	104.14976	4.06835	66.72094	91.13104	91.94471	0
294	18.71441	-27.66478	-46.37919	4.06835	30.91946	-35.80148	-317.3313	113.9138	4.06835	76.48498	103.33609	89.5037	0
295	26.03744	-17.90074	-43.93818	-4.06835	33.36047	-30.91946	-327.09534	91.94471	-0.81367	52.07488	78.92599	82.18067	0
296	30.91946	-13.01872	-43.93818	-8.95037	35.80148	-28.47845	-290.48019	121.23683	13.83239	86.24902	98.45407	89.5037	0
297	40.6835	-17.90074	-58.58424	-11.39138	48.00653	-38.24249	-300.24423	128.55986	16.2734	76.48498	96.01306	77.29865	0
298	35.80148	-44.75185	-80.55333	4.06835	57.77057	-62.65259	-302.68524	128.55986	1.62734	52.07488	83.80801	67.53461	0
299	26.03744	-27.66478	-53.70222	0.81367	38.24249	-40.6835	-319.77231	113.9138	-13.83239	17.90074	66.72094	48.00653	0
300	30.91946	0	-31.73313	-16.2734	30.91946	-16.2734	-273.39312	138.3239	13.83239	61.83892	83.80801	55.32956	0
301	26.03744	-30.10579	-56.14323	0.81367	40.6835	-43.12451	-285.59817	126.11885	4.06835	47.19286	66.72094	38.24249	0
302	28.47845	-86.24902	-114.72747	28.47845	69.97562	-99.26774	-258.74706	145.64693	21.15542	66.72094	74.04397	50.44754	0
303	35.80148	-71.60296	-107.40444	16.2734	69.97562	-89.5037	-246.54201	150.52895	26.03744	56.9569	61.83892	48.00653	0
304	33.36047	-59.39791	-92.75838	11.39138	62.65259	-74.85764	-224.57292	165.17501	28.47845	91.13104	69.16195	52.88855	0
305	21.15542	-61.83892	-82.99434	18.71441	50.44754	-72.41663	-253.86504	145.64693	18.71441	66.72094	49.63387	30.91946	0
306	26.03744	-49.63387	-75.67131	11.39138	50.44754	-62.65259	-241.65999	165.17501	28.47845	100.89508	47.19286	33.36047	0
307	23.59643	-34.98781	-58.58424	4.06835	40.6835	-45.56552	-227.01393	179.82107	33.36047	93.57205	52.07488	40.6835	0
308	23.59643	-42.31084	-65.90727	8.95037	43.12451	-52.88855	-239.21898	177.38006	28.47845	66.72094	39.86983	26.03744	0
309	35.80148	-71.60296	-107.40444	16.2734	69.97562	-89.5037	-229.45494	187.1441	30.91946	52.07488	37.42882	23.59643	0
310	28.47845	-47.19286	-75.67131	8.95037	50.44754	-60.21158	-207.48585	192.02612	40.6835	69.16195	39.86983	23.59643	0
311	18.71441	-39.86983	-58.58424	8.95037	38.24249	-48.00653	-229.45494	174.93905	26.03744	32.5468	20.34175	0.81367	0
312	21.15542	-69.16195	-90.31737	23.59643	55.32956	-79.73966	-202.60383	192.02612	35.80148	69.16195	39.86983	16.2734	0
313	18.71441	-88.69003	-107.40444	33.36047	62.65259	-96.82673	-190.39878	204.23117	50.44754	71.60296	39.86983	11.39138	0
314	57.77057	-49.63387	-107.40444	-4.06835	82.18067	-77.29865	-163.54767	223.75925	50.44754	117.98215	66.72094	16.2734	0
315	43.12451	-34.98781	-78.11232	-4.06835	60.21158	-55.32956	-187.95777	206.67218	50.44754	110.65912	22.78276	-13.83239	0
316	26.03744	-74.04397	-100.08141	23.59643	62.65259	-87.06269	-129.37353	233.52329	69.97562	96.01306	34.98781	3.25468	0
317	13.83239	-52.07488	-65.90727	18.71441	38.24249	-57.77057	-192.83979	204.23117	38.24249	32.5468	2.44101	-35.80148	0
318	13.83239	-71.60296	-85.43535	28.47845	48.00653	-77.29865	-165.98868	216.43622	50.44754	59.39791	4.88202	-35.80148	0
319	28.47845	-64.27993	-92.75838	16.2734	60.21158	-77.29865	-161.10666	213.99521	55.32956	71.60296	2.44101	-38.24249	0
320	50.44754	-22.78276	-73.2303	-13.83239	60.21158	-48.00653	-131.81454	233.52329	69.97562	93.57205	7.32303	-30.91946	0
321	48.00653	-56.9569	-104.96343	4.06835	74.85764	-79.73966	-185.51676	209.11319	50.44754	86.24902	13.01872	-30.91946	0
322	33.36047	-66.72094	-100.08141	16.2734	65.0936	-82.18067	-161.10666	221.31824	62.65259	103.33609	2.44101	-23.59643	0
323	30.91946	-52.07488	-82.99434	8.95037	55.32956	-67.53461	-161.10666	223.75925	60.21158	100.89508	17.90074	-13.83239	0
324	43.12451	-61.83892	-104.96343	8.95037	72.41663	-82.18067	-153.78363	235.9643	72.41663	86.24902	27.66478	23.59643	0
325	16.2734	-64.27993	-80.55333	23.59643	48.00653	-72.41663	-187.95777	209.11319	57.77057	47.19286	13.01872	3.25468	0
326	16.2734	-8.1367	-24.4101	-4.06835	18.71441	-16.2734	-151.34262	223.75925	57.77057	49.63387	7.32303	-6.50936	0
327	21.15542	-39.86983	-61.02525	8.95037	40.6835	-50.44754	-141.57858	231.08228	69.97562	54.51589	20.34175	11.39138	0
328	-4.06835	-52.07488	-48.8202	26.03744	21.15542	-50.44754	-153.78363	218.87723	62.65259	30.10579	-17.08707	-4.06835	0
329	-6.50936	-54.51589	-48.8202	28.47845	21.15542	-52.88855	-156.22464	206.67218	48.00653	17.90074	-9.76404	-26.03744	0
330	30.91946	-61.83892	-92.75838	13.83239	60.21158	-77.29865	-126.93252	235.9643	82.18067	20.34175	7.32303	-6.50936	0
331	18.71441	-83.80801	-102.52242	30.91946	60.21158	-91.94471	-148.90161	218.87723	67.53461	17.90074	10.57771	-21.15542	0
332	8.95037	-52.07488	-61.02525	21.15542	33.36047	-55.32956	-151.34262	192.02612	55.32956	-31.73313	-14.64606	-40.6835	1500	QRS+0
333	0.81367	-64.27993	-65.90727	30.91946	33.36047	-65.0936	-141.57858	194.46713	60.21158	2.44101	10.57771	-38.24249	0
334	-6.50936	-91.13104	-85.43535	48.00653	38.24249	-89.5037	-114.72747	211.5542	62.65259	20.34175	17.90074	-33.36047	0
335	8.95037	-64.27993	-73.2303	26.03744	40.6835	-67.53461	-126.93252	206.67218	69.97562	2.44101	7.32303	-33.36047	0
336	21.15542	-52.07488	-73.2303	13.83239	45.56552	-62.65259	-107.40444	204.23117	72.41663	27.66478	22.78276	-28.47845	0
337	13.83239	-76.48498	-90.31737	30.91946	50.44754	-82.18067	-107.40444	199.34915	69.97562	7.32303	27.66478	-28.47845	0
338	-4.06835	-56.9569	-53.70222	28.47845	23.59643	-55.32956	-134.25555	187.1441	67.53461	-9.76404	0	-30.91946	0
339	-4.06835	-83.80801	-80.55333	43.12451	38.24249	-82.18067	-139.13757	179.82107	60.21158	-29.29212	2.44101	-38.24249	0
340	6.50936	-42.31084	-48.8202	16.2734	26.03744	-45.56552	-126.93252	174.93905	67.53461	-7.32303	10.57771	-30.91946	0
341	-4.06835	-74.04397	-70.78929	38.24249	33.36047	-72.41663	-180.63474	150.52895	43.12451	-78.11232	-9.76404	-45.56552	0
342	-16.2734	-103.33609	-87.87636	57.77057	35.80148	-96.82673	-136.69656	155.41097	50.44754	-43.93818	7.32303	-35.80148	0
343	0.81367	-76.48498	-78.11232	35.80148	38.24249	-77.29865	-141.57858	157.85198	55.32956	-43.93818	20.34175	-28.47845	0
344	16.2734	-69.16195	-85.43535	26.03744	50.44754	-77.29865	-131.81454	160.29299	55.32956	-12.20505	22.78276	-30.91946	0
345	38.24249	-39.86983	-78.11232	0.81367	57.77057	-57.77057	-148.90161	138.3239	55.32956	-24.4101	37.42882	-33.36047	0
346	21.15542	-69.16195	-90.31737	23.59643	55.32956	-79.73966	-92.75838	150.52895	65.0936	-14.64606	25.22377	-33.36047	0
347	28.47845	-76.48498	-104.96343	23.59643	65.0936	-89.5037	-112.28646	148.08794	67.53461	-26.85111	20.34175	-28.47845	0
348	16.2734	-69.16195	-85.43535	26.03744	50.44754	-77.29865	-112.28646	145.64693	62.65259	-14.64606	22.78276	-40.6835	0
349	-11.39138	-78.92599	-68.34828	43.12451	28.47845	-74.85764	-144.01959	121.23683	50.44754	-43.93818	-4.88202	-57.77057	0
350	18.71441	-61.83892	-80.55333	21.15542	48.00653	-69.97562	-109.84545	138.3239	69.97562	-12.20505	20.34175	-33.36047	0
351	11.39138	-54.51589	-65.90727	21.15542	38.24249	-60.21158	-139.13757	113.9138	62.65259	-31.73313	7.32303	-38.24249	0
352	18.71441	-66.72094	-85.43535	23.59643	50.44754	-74.85764	-156.22464	94.38572	57.77057	-34.17414	7.32303	-38.24249	0
353	28.47845	-25.22377	-53.70222	-1.62734	40.6835	-38.24249	-165.98868	87.06269	55.32956	-29.29212	4.88202	-43.12451	0
354	8.95037	-88.69003	-97.6404	38.24249	52.88855	-91.94471	-107.40444	123.67784	82.18067	2.44101	27.66478	-16.2734	0
355	-8.95037	-88.69003	-80.55333	48.00653	35.80148	-84.62168	-151.34262	87.06269	55.32956	-39.05616	7.32303	-38.24249	0
356	-11.39138	-100.89508	-90.31737	55.32956	38.24249	-96.82673	-114.72747	91.94471	60.21158	-7.32303	25.22377	-28.47845	0
357	18.71441	-54.51589	-73.2303	16.2734	45.56552	-62.65259	-112.28646	94.38572	62.65259	-14.64606	30.10579	-23.59643	0
358	30.91946	-56.9569	-87.87636	11.39138	57.77057	-72.41663	-124.49151	87.06269	62.65259	-14.64606	27.66478	-21.15542	0
359	21.15542	-76.48498	-97.6404	26.03744	57.77057	-87.06269	-131.81454	84.62168	60.21158	-39.05616	-2.44101	-30.91946	0
360	4.06835	-69.16195	-73.2303	30.91946	38.24249	-69.97562	-117.16848	74.85764	55.32956	-21.96909	2.44101	-28.47845	0
361	13.83239	-66.72094	-80.55333	26.03744	45.56552	-72.41663	-168.42969	67.53461	52.88855	-51.26121	-2.44101	-38.24249	0
362	28.47845	-88.69003	-117.16848	28.47845	72.41663	-101.70875	-141.57858	79.73966	67.53461	-4.88202	4.88202	-21.15542	0
363	26.03744	-86.24902	-112.28646	28.47845	67.53461	-99.26774	-144.01959	96.82673	65.0936	-17.08707	2.44101	-23.59643	0
364	8.95037	-86.24902	-95.19939	38.24249	50.44754	-89.5037	-131.81454	84.62168	57.77057	-4.88202	0	-23.59643	0
365	0.81367	-83.80801	-85.43535	40.6835	43.12451	-84.62168	-146.4606	62.65259	52.88855	-12.20505	-4.88202	-26.03744	0
366	-21.15542	-86.24902	-65.90727	52.88855	21.15542	-77.29865	-97.6404	67.53461	60.21158	30.10579	7.32303	-16.2734	0
367	-21.15542	-93.57205	-73.2303	55.32956	26.03744	-84.62168	-156.22464	50.44754	43.12451	-19.52808	-26.85111	-38.24249	0
368	6.50936	-66.72094	-73.2303	28.47845	38.24249	-69.97562	-122.0505	74.85764	60.21158	-2.44101	-4.88202	-6.50936	0
369	11.39138	-76.48498	-87.87636	30.91946	48.00653	-82.18067	-139.13757	57.77057	50.44754	-14.64606	-14.64606	-26.03744	0
370	45.56552	-61.83892	-107.40444	6.50936	74.85764	-84.62168	-126.93252	50.44754	69.97562	7.32303	4.88202	-6.50936	0
371	50.44754	-83.80801	-134.25555	16.2734	91.94471	-109.03178	-168.42969	38.24249	62.65259	-24.4101	0	0.81367	0
372	16.2734	-110.65912	-126.93252	45.56552	69.97562	-118.79582	-141.57858	45.56552	57.77057	-4.88202	-4.88202	3.25468	0
373	16.2734	-105.7771	-122.0505	43.12451	67.53461	-113.9138	-163.54767	52.88855	33.36047	-19.52808	-7.32303	-8.95037	0
374	18.71441	-91.13104	-109.84545	35.80148	62.65259	-99.26774	-139.13757	50.44754	30.91946	9.76404	4.88202	-4.06835	0
375	21.15542	-76.48498	-97.6404	26.03744	57.77057	-87.06269	-141.57858	40.6835	33.36047	-7.32303	7.32303	-1.62734	0
376	8.95037	-96.01306	-104.96343	43.12451	55.32956	-99.26774	-117.16848	55.32956	45.56552	25.22377	15.45973	0.81367	0
377	16.2734	-100.89508	-117.16848	40.6835	65.0936	-109.03178	-114.72747	48.00653	43.12451	25.22377	25.22377	5.69569	0
378	21.15542	-98.45407	-119.60949	38.24249	69.97562	-109.03178	-129.37353	55.32956	38.24249	2.44101	25.22377	-6.50936	0
379	26.03744	-32.5468	-58.58424	0.81367	40.6835	-45.56552	-144.01959	45.56552	26.03744	-2.44101	-12.20505	-26.03744	0
380	18.71441	-74.04397	-92.75838	26.03744	55.32956	-82.18067	-117.16848	52.88855	45.56552	-4.88202	17.90074	-1.62734	0
381	-1.62734	-127.74619	-126.93252	62.65259	62.65259	-128.55986	-156.22464	33.36047	35.80148	-26.85111	-7.32303	-16.2734	0
382	18.71441	-110.65912	-129.37353	45.56552	72.41663	-118.79582	-195.2808	18.71441	28.47845	-43.93818	7.32303	-21.15542	0
383	13.83239	-115.54114	-129.37353	50.44754	69.97562	-121.23683	-161.10666	28.47845	38.24249	9.76404	20.34175	-8.95037	0
384	0.81367	-110.65912	-112.28646	52.88855	55.32956	-111.47279	-144.01959	23.59643	28.47845	2.44101	20.34175	-13.83239	0
385	16.2734	-91.13104	-107.40444	35.80148	60.21158	-99.26774	-187.95777	-5.69569	18.71441	-29.29212	15.45973	-26.03744	0
386	28.47845	-96.01306	-124.49151	33.36047	74.85764	-109.03178	-119.60949	23.59643	38.24249	42.31084	42.31084	-1.62734	0
387	11.39138	-113.10013	-124.49151	50.44754	67.53461	-118.79582	-87.87636	28.47845	43.12451	42.31084	49.63387	-1.62734	0
388	18.71441	-125.30518	-144.01959	52.88855	79.73966	-133.44188	-126.93252	26.03744	38.24249	2.44101	52.07488	0.81367	0
389	26.03744	-100.89508	-126.93252	35.80148	74.85764	-113.9138	-144.01959	13.83239	38.24249	-12.20505	32.5468	-8.95037	0
390	38.24249	-78.92599	-117.16848	18.71441	77.29865	-96.82673	-119.60949	4.06835	33.36047	14.64606	61.83892	5.69569	0
391	43.12451	-66.72094	-109.84545	11.39138	74.85764	-87.06269	-197.72181	-30.91946	6.50936	-58.58424	-2.44101	-38.24249	0
392	23.59643	-74.04397	-97.6404	23.59643	60.21158	-84.62168	-175.75272	-25.22377	16.2734	-31.73313	25.22377	-38.24249	0
393	13.83239	-78.92599	-92.75838	30.91946	52.88855	-84.62168	-156.22464	-13.01872	28.47845	-21.96909	32.5468	-28.47845	0
394	-6.50936	-115.54114	-109.84545	60.21158	50.44754	-113.9138	-122.0505	-5.69569	45.56552	14.64606	54.51589	-4.06835	0
395	28.47845	-96.01306	-124.49151	33.36047	74.85764	-109.03178	-141.57858	-22.78276	43.12451	-7.32303	54.51589	-13.83239	0
396	33.36047	-96.01306	-129.37353	30.91946	79.73966	-111.47279	-85.43535	-8.1367	50.44754	49.63387	66.72094	-4.06835	0
397	28.47845	-137.51023	-165.98868	52.88855	96.82673	-150.52895	-97.6404	-0.81367	57.77057	25.22377	54.51589	-11.39138	0
398	16.2734	-93.57205	-109.84545	38.24249	62.65259	-101.70875	-124.49151	-3.25468	52.88855	20.34175	49.63387	-16.2734	0
399	23.59643	-76.48498	-100.08141	26.03744	60.21158	-87.06269	-126.93252	-8.1367	48.00653	17.90074	32.5468	-30.91946	0
400	13.83239	-71.60296	-85.43535	28.47845	48.00653	-77.29865	-97.6404	-22.78276	45.56552	20.34175	37.42882	-18.71441	0
401	13.83239	-113.10013	-126.93252	48.00653	69.97562	-118.79582	-148.90161	-52.88855	38.24249	2.44101	34.98781	-30.91946	0
402	-13.83239	-142.39225	-129.37353	77.29865	57.77057	-135.88289	-170.8707	-57.77057	38.24249	7.32303	13.01872	-38.24249	0
403	6.50936	-125.30518	-131.81454	57.77057	67.53461	-128.55986	-146.4606	-38.24249	57.77057	17.90074	32.5468	-16.2734	0
404	13.83239	-96.01306	-109.84545	40.6835	60.21158	-101.70875	-119.60949	-38.24249	45.56552	44.75185	49.63387	-13.83239	0
405	16.2734	-103.33609	-119.60949	43.12451	67.53461	-111.47279	-158.66565	-62.65259	38.24249	2.44101	30.10579	-30.91946	0
406	21.15542	-113.10013	-134.25555	45.56552	77.29865	-123.67784	-104.96343	-57.77057	45.56552	34.98781	30.10579	-26.03744	0
407	26.03744	-96.01306	-122.0505	33.36047	72.41663	-109.03178	-97.6404	-62.65259	40.6835	54.51589	30.10579	-35.80148	0
408	26.03744	-83.80801	-109.84545	28.47845	67.53461	-96.82673	-119.60949	-52.88855	28.47845	32.5468	25.22377	-48.00653	0
409	18.71441	-103.33609	-122.0505	40.6835	69.97562	-111.47279	-122.0505	-57.77057	28.47845	27.66478	7.32303	-45.56552	0
410	30.91946	-83.80801	-114.72747	26.03744	72.41663	-99.26774	-82.99434	-57.77057	40.6835	47.19286	37.42882	-30.91946	0
411	23.59643	-86.24902	-109.84545	30.91946	65.0936	-96.82673	-126.93252	-74.85764	26.03744	4.88202	17.90074	-40.6835	0
412	21.15542	-91.13104	-112.28646	33.36047	65.0936	-101.70875	-148.90161	-79.73966	11.39138	20.34175	10.57771	-38.24249	0
413	38.24249	-91.13104	-129.37353	26.03744	82.18067	-109.03178	-97.6404	-65.0936	18.71441	52.07488	37.42882	-16.2734	0
414	33.36047	-96.01306	-129.37353	30.91946	79.73966	-111.47279	-92.75838	-60.21158	23.59643	52.07488	30.10579	-21.15542	0
415	11.39138	-117.98215	-129.37353	52.88855	69.97562	-123.67784	-139.13757	-87.06269	6.50936	32.5468	27.66478	-35.80148	0
416	4.06835	-115.54114	-119.60949	55.32956	60.21158	-116.35481	-56.14323	-57.77057	23.59643	96.01306	39.86983	-11.39138	0
417	11.39138	-105.7771	-117.16848	45.56552	62.65259	-111.47279	-63.46626	-62.65259	16.2734	61.83892	20.34175	-18.71441	0
418	21.15542	-105.7771	-126.93252	40.6835	72.41663	-116.35481	-87.87636	-55.32956	6.50936	56.9569	32.5468	-21.15542	0
419	16.2734	-100.89508	-117.16848	40.6835	65.0936	-109.03178	-87.87636	-62.65259	4.06835	44.75185	17.90074	-30.91946	0
420	13.83239	-76.48498	-90.31737	30.91946	50.44754	-82.18067	-39.05616	-57.77057	8.95037	83.80801	32.5468	-23.59643	0
421	11.39138	-91.13104	-102.52242	38.24249	55.32956	-96.82673	-124.49151	-77.29865	-0.81367	-2.44101	4.88202	-38.24249	0
422	26.03744	-76.48498	-102.52242	23.59643	62.65259	-89.5037	-75.67131	-48.00653	1.62734	52.07488	42.31084	-26.03744	0
423	38.24249	-61.83892	-100.08141	11.39138	67.53461	-79.73966	-90.31737	-52.88855	-21.15542	47.19286	2.44101	-23.59643	0
424	30.91946	-59.39791	-90.31737	13.83239	60.21158	-74.85764	-56.14323	-45.56552	-38.24249	59.39791	22.78276	-33.36047	0
425	13.83239	-74.04397	-87.87636	28.47845	50.44754	-79.73966	-56.14323	-33.36047	-52.88855	42.31084	13.01872	-33.36047	0
426	4.06835	-93.57205	-97.6404	43.12451	50.44754	-94.38572	3.25468	-3.25468	-38.24249	86.24902	32.5468	-21.15542	0
427	-28.47845	-115.54114	-87.87636	69.97562	28.47845	-101.70875	5.69569	-10.57771	-57.77057	88.69003	17.90074	-35.80148	0
428	-33.36047	-105.7771	-73.2303	67.53461	18.71441	-89.5037	-12.20505	1.62734	-65.0936	64.27993	2.44101	-43.12451	0
429	26.03744	-61.83892	-87.87636	16.2734	55.32956	-74.85764	-12.20505	13.83239	-65.0936	59.39791	7.32303	-38.24249	0
430	35.80148	-22.78276	-58.58424	-6.50936	45.56552	-40.6835	17.90074	23.59643	-50.44754	71.60296	20.34175	-35.80148	0
431	33.36047	0	-34.17414	-16.2734	33.36047	-16.2734	0.81367	23.59643	-57.77057	47.19286	0	-38.24249	0
432	18.71441	21.96909	3.25468	-21.15542	8.95037	13.83239	-36.61515	38.24249	-52.88855	27.66478	2.44101	-40.6835	0
433	33.36047	9.76404	-24.4101	-21.15542	28.47845	-6.50936	20.34175	67.53461	-38.24249	64.27993	13.01872	-30.91946	0
434	28.47845	4.88202	-24.4101	-16.2734	26.03744	-8.95037	59.39791	94.38572	-18.71441	66.72094	34.98781	-13.83239	0
435	40.6835	34.17414	-7.32303	-38.24249	23.59643	13.83239	32.5468	89.5037	-28.47845	76.48498	42.31084	-18.71441	0
436	40.6835	19.52808	-21.96909	-30.91946	30.91946	-0.81367	66.72094	96.82673	-38.24249	105.7771	32.5468	-18.71441	0
437	4.06835	-37.42882	-41.49717	16.2734	21.15542	-38.24249	110.65912	113.9138	-23.59643	142.39225	64.27993	5.69569	0
438	8.95037	-22.78276	-31.73313	6.50936	18.71441	-26.03744	49.63387	91.94471	-57.77057	100.89508	39.86983	-16.2734	0
439	6.50936	-5.69569	-12.20505	-1.62734	8.95037	-8.95037	10.57771	72.41663	-82.18067	54.51589	17.90074	-33.36047	0
440	13.83239	17.08707	3.25468	-16.2734	6.50936	11.39138	27.66478	65.0936	-72.41663	96.01306	34.98781	-16.2734	0
441	13.83239	-5.69569	-19.52808	-4.06835	16.2734	-11.39138	-36.61515	43.12451	-96.82673	37.42882	25.22377	-21.15542	0
442	33.36047	26.85111	-7.32303	-30.91946	21.15542	11.39138	-51.26121	23.59643	-123.67784	42.31084	25.22377	-21.15542	0
443	21.15542	4.88202	-17.08707	-13.83239	18.71441	-6.50936	-46.37919	16.2734	-131.00087	39.86983	34.98781	-30.91946	0
444	30.91946	-44.75185	-75.67131	6.50936	52.88855	-60.21158	10.57771	38.24249	-94.38572	86.24902	61.83892	3.25468	0
445	28.47845	-10.57771	-39.05616	-8.95037	33.36047	-23.59643	-34.17414	26.03744	-113.9138	66.72094	47.19286	-1.62734	0
446	18.71441	-27.66478	-46.37919	4.06835	30.91946	-35.80148	42.31084	40.6835	-94.38572	115.54114	74.04397	5.69569	0
447	26.03744	-30.10579	-56.14323	0.81367	40.6835	-43.12451	-17.08707	13.83239	-116.35481	42.31084	49.63387	-8.95037	0
448	30.91946	-20.34175	-51.26121	-6.50936	40.6835	-35.80148	-39.05616	11.39138	-118.79582	86.24902	71.60296	-11.39138	0
449	30.91946	-37.42882	-68.34828	0.81367	48.00653	-52.88855	-53.70222	8.95037	-121.23683	76.48498	56.9569	-6.50936	0
450	11.39138	-52.07488	-63.46626	18.71441	35.80148	-57.77057	-31.73313	-3.25468	-131.00087	105.7771	81.367	16.2734	0
451	26.03744	-54.51589	-80.55333	13.83239	52.88855	-67.53461	-102.52242	-38.24249	-157.85198	59.39791	66.72094	-1.62734	0
452	28.47845	-69.16195	-97.6404	18.71441	62.65259	-82.18067	-112.28646	-62.65259	-162.734	76.48498	71.60296	5.69569	0
453	28.47845	-42.31084	-70.78929	6.50936	48.00653	-55.32956	-141.57858	-87.06269	-174.93905	52.07488	76.48498	5.69569	0
454	43.12451	-20.34175	-63.46626	-11.39138	52.88855	-40.6835	-95.19939	-82.18067	-165.17501	108.21811	117.98215	30.91946	0
455	65.0936	9.76404	-56.14323	-38.24249	60.21158	-23.59643	-136.69656	-96.82673	-172.49804	59.39791	64.27993	5.69569	0
456	43.12451	-74.04397	-117.16848	13.83239	79.73966	-94.38572	-87.87636	-82.18067	-160.29299	120.42316	132.62821	33.36047	0
457	18.71441	-117.98215	-136.69656	48.00653	77.29865	-126.11885	-65.90727	-67.53461	-145.64693	122.86417	142.39225	45.56552	0
458	55.32956	-88.69003	-144.01959	16.2734	99.26774	-116.35481	-65.90727	-50.44754	-148.08794	122.86417	127.74619	57.77057	0
459	55.32956	-96.01306	-151.34262	18.71441	101.70875	-123.67784	-102.52242	-69.97562	-170.05703	96.01306	93.57205	38.24249	0
460	50.44754	-91.13104	-141.57858	18.71441	94.38572	-116.35481	-97.6404	-94.38572	-179.82107	127.74619	113.10013	33.36047	0
461	62.65259	-88.69003	-151.34262	11.39138	106.59077	-118.79582	-129.37353	-96.82673	-179.82107	88.69003	108.21811	28.47845	0
462	45.56552	-122.86417	-168.42969	38.24249	106.59077	-145.64693	-170.8707	-113.9138	-189.58511	66.72094	93.57205	21.15542	0
463	79.73966	-66.72094	-146.4606	-6.50936	111.47279	-106.59077	-119.60949	-89.5037	-167.61602	117.98215	120.42316	40.6835	0
464	57.77057	-98.45407	-156.22464	18.71441	106.59077	-126.11885	-90.31737	-77.29865	-160.29299	127.74619	122.86417	45.56552	0
465	26.03744	-115.54114	-141.57858	43.12451	82.18067	-128.55986	-122.0505	-82.18067	-167.61602	100.89508	108.21811	33.36047	0
466	35.80148	-100.89508	-136.69656	30.91946	84.62168	-118.79582	-41.49717	-55.32956	-143.20592	164.36134	132.62821	43.12451	0
467	13.83239	-108.21811	-122.0505	45.56552	67.53461	-113.9138	-46.37919	-52.88855	-145.64693	127.74619	113.10013	23.59643	0
468	8.95037	-100.89508	-109.84545	45.56552	57.77057	-104.14976	-68.34828	-45.56552	-145.64693	110.65912	110.65912	3.25468	0
469	11.39138	-105.7771	-117.16848	45.56552	62.65259	-111.47279	-85.43535	-55.32956	-152.96996	74.04397	66.72094	-13.83239	0
470	21.15542	-98.45407	-119.60949	38.24249	69.97562	-109.03178	-68.34828	-60.21158	-138.3239	100.89508	93.57205	8.95037	0
471	48.00653	-88.69003	-136.69656	18.71441	91.94471	-111.47279	-95.19939	-65.0936	-148.08794	71.60296	78.92599	-1.62734	0
472	23.59643	-93.57205	-117.16848	33.36047	69.97562	-104.14976	-102.52242	-67.53461	-145.64693	47.19286	64.27993	-23.59643	0
473	13.83239	-127.74619	-141.57858	55.32956	77.29865	-133.44188	-87.87636	-74.85764	-150.52895	42.31084	42.31084	-40.6835	0
474	-4.06835	-139.95124	-136.69656	69.97562	65.0936	-138.3239	-53.70222	-69.97562	-148.08794	49.63387	39.86983	-40.6835	0
475	-16.2734	-132.62821	-117.16848	72.41663	50.44754	-126.11885	-58.58424	-69.97562	-148.08794	20.34175	27.66478	-57.77057	0
476	-16.2734	-144.83326	-129.37353	79.73966	55.32956	-138.3239	-14.64606	-48.00653	-128.55986	74.04397	44.75185	-43.12451	0
477	4.06835	-139.95124	-144.01959	67.53461	72.41663	-140.76491	5.69569	-45.56552	-123.67784	91.13104	42.31084	-45.56552	0
478	-6.50936	-147.27427	-141.57858	74.85764	67.53461	-145.64693	-31.73313	-40.6835	-135.88289	61.83892	20.34175	-60.21158	0
479	-13.83239	-137.51023	-124.49151	74.85764	55.32956	-131.00087	0.81367	-35.80148	-128.55986	54.51589	37.42882	-57.77057	0
480	-6.50936	-137.51023	-131.81454	69.97562	62.65259	-135.88289	-4.06835	-55.32956	-131.00087	49.63387	34.98781	-50.44754	0
481	-26.03744	-125.30518	-100.08141	74.85764	35.80148	-113.9138	-34.17414	-62.65259	-135.88289	14.64606	0	-65.0936	0
482	-11.39138	-115.54114	-104.96343	62.65259	45.56552	-111.47279	-70.78929	-82.18067	-152.96996	-14.64606	-4.88202	-65.0936	0
483	-13.83239	-152.15629	-139.13757	82.18067	62.65259	-145.64693	-39.05616	-82.18067	-145.64693	22.78276	7.32303	-67.53461	0
484	-18.71441	-157.03831	-139.13757	87.06269	60.21158	-148.08794	-29.29212	-82.18067	-150.52895	14.64606	13.01872	-60.21158	0
485	0.81367	-127.74619	-129.37353	62.65259	65.0936	-128.55986	-24.4101	-77.29865	-152.96996	-4.88202	-12.20505	-77.29865	0
486	-11.39138	-174.12538	-163.54767	91.94471	74.85764	-170.05703	27.66478	-62.65259	-135.88289	52.07488	15.45973	-55.32956	0
487	0.81367	-122.86417	-124.49151	60.21158	62.65259	-123.67784	49.63387	-57.77057	-121.23683	66.72094	10.57771	-67.53461	0
488	-1.62734	-130.1872	-129.37353	65.0936	62.65259	-131.00087	25.22377	-57.77057	-128.55986	44.75185	4.88202	-60.21158	0
489	-11.39138	-152.15629	-141.57858	79.73966	65.0936	-148.08794	15.45973	-57.77057	-123.67784	34.98781	0	-67.53461	0
490	-50.44754	-164.36134	-114.72747	106.59077	30.91946	-140.76491	22.78276	-74.85764	-118.79582	39.86983	7.32303	-67.53461	0
491	-23.59643	-122.86417	-100.08141	72.41663	38.24249	-111.47279	-9.76404	-87.06269	-126.11885	12.20505	-2.44101	-82.18067	0
492	6.50936	-108.21811	-114.72747	50.44754	60.21158	-111.47279	-34.17414	-96.82673	-128.55986	4.88202	-7.32303	-79.73966	0
493	-1.62734	-147.27427	-146.4606	72.41663	72.41663	-148.08794	-1.62734	-87.06269	-121.23683	30.10579	2.44101	-72.41663	0
494	11.39138	-117.98215	-129.37353	52.88855	69.97562	-123.67784	15.45973	-89.5037	-123.67784	17.90074	-9.76404	-69.97562	0
495	8.95037	-108.21811	-117.16848	48.00653	62.65259	-111.47279	8.1367	-89.5037	-123.67784	17.90074	-2.44101	-74.85764	0
496	-6.50936	-142.39225	-136.69656	72.41663	65.0936	-140.76491	61.83892	-74.85764	-106.59077	74.04397	27.66478	-52.88855	0
497	-16.2734	-142.39225	-126.93252	77.29865	55.32956	-135.88289	30.10579	-77.29865	-118.79582	37.42882	4.88202	-69.97562	0
498	-16.2734	-122.86417	-107.40444	67.53461	45.56552	-116.35481	27.66478	-62.65259	-111.47279	17.90074	15.45973	-60.21158	0
499	6.50936	-91.13104	-97.6404	40.6835	50.44754	-94.38572	15.45973	-57.77057	-116.35481	12.20505	4.88202	-65.0936	0
500	-1.62734	-108.21811	-107.40444	52.88855	52.88855	-109.03178	27.66478	-57.77057	-111.47279	34.98781	30.10579	-52.88855	0
501	-50.44754	-96.01306	-46.37919	72.41663	-4.06835	-72.41663	142.39225	77.29865	-99.26774	83.80801	88.69003	-16.2734	0
502	0.81367	-78.92599	-80.55333	38.24249	40.6835	-79.73966	8.1367	-65.0936	-116.35481	27.66478	0	-65.0936	0
503	11.39138	-159.47932	-170.8707	72.41663	89.5037	-165.17501	17.90074	-33.36047	-94.38572	76.48498	34.98781	-52.88855	0
504	4.06835	-113.10013	-117.16848	52.88855	60.21158	-113.9138	56.9569	-65.0936	-116.35481	52.07488	22.78276	-55.32956	0
505	96.82673	-247.35568	-344.18241	74.85764	218.87723	-294.54854	-158.66565	-238.40531	-121.23683	-2.44101	-12.20505	-52.88855	0
506	-13.83239	-105.7771	-92.75838	57.77057	38.24249	-99.26774	37.42882	-57.77057	-109.03178	39.86983	34.98781	-52.88855	0
507	33.36047	-86.24902	-119.60949	26.03744	74.85764	-101.70875	-129.37353	-194.46713	-162.734	-158.66565	-95.19939	-118.79582	0
508	6.50936	-132.62821	-139.13757	62.65259	72.41663	-135.88289	-1.62734	-84.62168	-121.23683	22.78276	2.44101	-60.21158	0
509	-57.77057	-30.10579	27.66478	43.12451	-43.12451	-0.81367	64.27993	-35.80148	-148.08794	2.44101	-7.32303	-67.53461	0
510	-11.39138	-122.86417	-112.28646	65.0936	50.44754	-118.79582	13.01872	-55.32956	-126.11885	4.88202	2.44101	-74.85764	0
511	-72.41663	-120.42316	-48.8202	94.38572	-13.83239	-84.62168	171.68437	77.29865	-101.70875	108.21811	64.27993	-16.2734	0
512	6.50936	-103.33609	-109.84545	48.00653	57.77057	-106.59077	78.92599	-50.44754	-111.47279	81.367	22.78276	-48.00653	0
513	-11.39138	-218.06356	-207.48585	113.9138	96.82673	-213.99521	56.9569	-20.34175	-96.82673	103.33609	30.10579	-52.88855	0
514	8.95037	-88.69003	-97.6404	38.24249	52.88855	-91.94471	64.27993	-77.29865	-118.79582	42.31084	4.88202	-74.85764	0
515	84.62168	-254.67871	-339.30039	84.62168	211.5542	-296.98955	-153.78363	-260.3744	-133.44188	-9.76404	-41.49717	-74.85764	0
516	-30.91946	-142.39225	-112.28646	84.62168	40.6835	-128.55986	74.04397	-74.85764	-118.79582	52.07488	7.32303	-57.77057	0
517	60.21158	-27.66478	-87.87636	-16.2734	72.41663	-57.77057	-126.93252	-213.99521	-182.26208	-163.54767	-97.6404	-135.88289	0
518	26.03744	-88.69003	-114.72747	30.91946	69.97562	-101.70875	42.31084	-87.06269	-133.44188	17.90074	-14.64606	-62.65259	0
519	-55.32956	0	54.51589	26.03744	-55.32956	26.03744	71.60296	-45.56552	-152.96996	-14.64606	4.88202	-69.97562	0
520	-23.59643	-110.65912	-87.87636	65.0936	30.91946	-99.26774	30.10579	-74.85764	-133.44188	7.32303	-9.76404	-74.85764	0
521	-57.77057	-54.51589	3.25468	55.32956	-30.91946	-26.03744	154.5973	48.00653	-116.35481	103.33609	54.51589	-35.80148	0
522	28.47845	-10.57771	-39.05616	-8.95037	33.36047	-23.59643	59.39791	-79.73966	-123.67784	47.19286	-14.64606	-60.21158	0
523	-11.39138	-220.50457	-209.92686	113.9138	99.26774	-216.43622	61.83892	-25.22377	-87.06269	103.33609	61.83892	-23.59643	0
524	-28.47845	-135.06922	-107.40444	79.73966	38.24249	-121.23683	71.60296	-74.85764	-118.79582	49.63387	2.44101	-52.88855	0
525	91.94471	-247.35568	-339.30039	77.29865	213.99521	-292.10753	-153.78363	-250.61036	-126.11885	-4.88202	-19.52808	-57.77057	0
526	11.39138	-108.21811	-119.60949	48.00653	65.0936	-113.9138	61.83892	-82.18067	-111.47279	47.19286	15.45973	-45.56552	0
527	60.21158	-39.86983	-100.08141	-11.39138	79.73966	-69.97562	-117.16848	-221.31824	-179.82107	-151.34262	-92.75838	-123.67784	0
528	18.71441	-83.80801	-102.52242	30.91946	60.21158	-91.94471	-14.64606	-104.14976	-140.76491	2.44101	-12.20505	-72.41663	0
529	-48.00653	12.20505	59.39791	16.2734	-52.88855	35.80148	25.22377	-48.00653	-162.734	-43.93818	-21.96909	-69.97562	0
530	23.59643	-78.92599	-102.52242	26.03744	62.65259	-89.5037	5.69569	-60.21158	-118.79582	47.19286	7.32303	-55.32956	0
531	-43.12451	-37.42882	5.69569	38.24249	-26.03744	-16.2734	122.86417	52.88855	-116.35481	122.86417	49.63387	-18.71441	0
532	-26.03744	-81.367	-56.14323	52.88855	13.83239	-69.97562	-9.76404	-84.62168	-121.23683	66.72094	2.44101	-50.44754	0
533	-8.95037	-183.88942	-175.75272	94.38572	82.18067	-179.82107	47.19286	-17.90074	-79.73966	157.03831	54.51589	-23.59643	0
534	0.81367	-91.13104	-92.75838	43.12451	45.56552	-91.94471	39.86983	-60.21158	-111.47279	91.13104	27.66478	-38.24249	0
535	94.38572	-208.29952	-302.68524	55.32956	196.90814	-255.49238	-207.48585	-253.05137	-140.76491	-4.88202	-43.93818	-65.0936	0
536	-1.62734	-93.57205	-92.75838	45.56552	45.56552	-94.38572	44.75185	-65.0936	-118.79582	37.42882	-7.32303	-45.56552	0
537	30.91946	-47.19286	-78.11232	6.50936	52.88855	-62.65259	-153.78363	-199.34915	-174.93905	-165.98868	-114.72747	-128.55986	0
538	21.15542	-83.80801	-104.96343	30.91946	62.65259	-94.38572	-36.61515	-79.73966	-138.3239	-2.44101	-29.29212	-67.53461	0
539	-65.0936	26.85111	91.13104	18.71441	-77.29865	57.77057	-14.64606	-25.22377	-152.96996	-36.61515	-26.85111	-74.85764	0
540	11.39138	-47.19286	-58.58424	16.2734	33.36047	-52.88855	-1.62734	-45.56552	-126.11885	25.22377	-21.96909	-62.65259	0
541	-21.15542	-37.42882	-17.08707	28.47845	-4.06835	-28.47845	110.65912	74.85764	-111.47279	125.30518	64.27993	-18.71441	0
542	21.15542	-81.367	-102.52242	28.47845	60.21158	-91.94471	37.42882	-38.24249	-106.59077	96.01306	13.01872	-35.80148	-1500	QRS-0
543	8.95037	-183.88942	-192.83979	87.06269	99.26774	-187.1441	34.98781	1.62734	-84.62168	137.51023	44.75185	-30.91946	0
544	11.39138	-66.72094	-78.11232	26.03744	43.12451	-72.41663	27.66478	-43.12451	-116.35481	59.39791	15.45973	-55.32956	0
545	111.47279	-218.06356	-329.53635	52.88855	218.87723	-272.57945	-224.57292	-228.64127	-138.3239	0	-46.37919	-65.0936	0
546	18.71441	-81.367	-100.08141	30.91946	57.77057	-89.5037	-1.62734	-62.65259	-135.88289	32.5468	-26.85111	-74.85764	0
547	23.59643	-39.86983	-63.46626	6.50936	43.12451	-50.44754	-136.69656	-179.82107	-165.17501	-126.93252	-100.08141	-121.23683	0
548	6.50936	-71.60296	-78.11232	30.91946	40.6835	-74.85764	3.25468	-38.24249	-106.59077	39.86983	-9.76404	-48.00653	0
549	-43.12451	48.8202	91.13104	-4.06835	-67.53461	69.97562	-19.52808	-17.90074	-157.85198	-70.78929	-41.49717	-84.62168	0
550	-4.06835	-93.57205	-90.31737	48.00653	43.12451	-91.94471	15.45973	-27.66478	-121.23683	32.5468	-7.32303	-60.21158	0
551	-69.97562	-71.60296	-1.62734	69.97562	-35.80148	-38.24249	122.86417	94.38572	-104.14976	113.10013	66.72094	-16.2734	0
552	8.95037	-32.5468	-41.49717	11.39138	23.59643	-35.80148	0.81367	-35.80148	-113.9138	39.86983	0	-52.88855	0
553	38.24249	-120.42316	-158.66565	40.6835	96.82673	-138.3239	59.39791	26.03744	-72.41663	127.74619	47.19286	-26.03744	0
554	28.47845	-32.5468	-61.02525	0.81367	43.12451	-45.56552	47.19286	-22.78276	-106.59077	34.98781	-9.76404	-55.32956	0
555	118.79582	-154.5973	-273.39312	16.2734	194.46713	-213.99521	-209.92686	-221.31824	-133.44188	-56.14323	-61.02525	-77.29865	0
556	11.39138	-56.9569	-68.34828	21.15542	38.24249	-62.65259	52.07488	-22.78276	-96.82673	20.34175	17.90074	-50.44754	0
557	23.59643	-56.9569	-80.55333	16.2734	50.44754	-67.53461	-58.58424	-126.11885	-133.44188	-126.93252	-82.99434	-109.03178	0
558	-11.39138	-91.13104	-80.55333	50.44754	33.36047	-87.06269	-6.50936	-25.22377	-111.47279	-34.17414	-36.61515	-77.29865	0
559	-38.24249	65.90727	103.33609	-13.83239	-69.97562	84.62168	-4.06835	8.95037	-150.52895	-129.37353	-51.26121	-99.26774	0
560	28.47845	-42.31084	-70.78929	6.50936	48.00653	-55.32956	54.51589	8.95037	-94.38572	-24.4101	-34.17414	-74.85764	0
561	-38.24249	-91.13104	-53.70222	62.65259	6.50936	-72.41663	164.36134	135.88289	-77.29865	9.76404	15.45973	-28.47845	0
562	-18.71441	-144.83326	-126.93252	79.73966	52.88855	-135.88289	93.57205	23.59643	-77.29865	-7.32303	-26.85111	-72.41663	0
563	-33.36047	-249.79669	-217.24989	140.76491	91.94471	-233.52329	154.5973	82.18067	-38.24249	49.63387	-4.88202	-57.77057	0
564	-40.6835	-166.80235	-126.93252	101.70875	43.12451	-148.08794	125.30518	33.36047	-72.41663	-65.90727	-61.02525	-104.14976	0
565	69.97562	-315.70396	-385.67958	121.23683	226.20026	-350.69177	-126.93252	-145.64693	-94.38572	-148.90161	-109.84545	-113.9138	0
566	6.50936	-174.12538	-180.63474	82.18067	91.94471	-177.38006	113.10013	26.03744	-84.62168	-68.34828	-63.46626	-87.06269	0
567	57.77057	-154.5973	-212.36787	48.00653	133.44188	-182.26208	-78.11232	-138.3239	-179.82107	-219.6909	-134.25555	-145.64693	0
568	13.83239	-237.59164	-251.42403	111.47279	131.00087	-243.28733	-26.85111	-67.53461	-170.05703	-80.55333	-46.37919	-79.73966	0
569	-1.62734	-120.42316	-119.60949	60.21158	57.77057	-121.23683	-87.87636	-60.21158	-235.9643	-151.34262	-65.90727	-89.5037	0
570	69.97562	-203.4175	-273.39312	65.0936	170.05703	-238.40531	-36.61515	-69.97562	-192.02612	20.34175	13.01872	-52.88855	0
571	26.03744	-208.29952	-234.33696	89.5037	128.55986	-221.31824	76.48498	35.80148	-194.46713	135.06922	108.21811	-8.95037	0
572	74.85764	-220.50457	-295.36221	72.41663	184.70309	-257.93339	-51.26121	-101.70875	-218.87723	103.33609	52.07488	-33.36047	0
573	99.26774	-259.56073	-358.82847	79.73966	228.64127	-309.1946	3.25468	-57.77057	-204.23117	220.50457	113.10013	18.71441	0
574	96.82673	-227.8276	-324.65433	65.0936	209.11319	-275.02046	-17.08707	-99.26774	-223.75925	166.80235	108.21811	28.47845	0
575	182.26208	-393.81628	-576.07836	104.14976	377.54288	-484.94732	-310.00827	-304.31258	-265.25642	108.21811	86.24902	40.6835	0
576	106.59077	-274.20679	-380.79756	82.18067	243.28733	-326.28167	-68.34828	-140.76491	-255.49238	186.33043	154.5973	91.94471	0
577	194.46713	-252.2377	-446.70483	28.47845	318.95864	-348.25076	-197.72181	-279.90248	-311.63561	88.69003	117.98215	91.94471	0
578	143.20592	-364.52416	-507.73008	109.03178	323.84066	-436.12712	-185.51676	-206.67218	-321.39965	203.4175	215.62255	172.49804	0
579	118.79582	-291.29386	-410.08968	84.62168	262.81541	-350.69177	-253.86504	-199.34915	-387.30692	130.1872	232.70962	194.46713	0
580	182.26208	-347.43709	-529.69917	82.18067	355.57379	-438.56813	-178.19373	-196.90814	-323.84066	303.49891	327.90901	275.02046	0
581	155.41097	-213.18154	-368.59251	28.47845	260.3744	-289.66652	-90.31737	-74.85764	-306.75359	393.81628	418.22638	345.80975	0
582	228.64127	-98.45407	-327.09534	-65.0936	277.46147	-211.5542	-183.07575	-167.61602	-287.22551	376.72921	362.08315	328.72268	0
583	223.75925	-69.16195	-292.9212	-77.29865	257.93339	-179.82107	-46.37919	-57.77057	-199.34915	550.04092	459.72355	382.4249	0
584	235.9643	180.63474	-56.14323	-209.11319	145.64693	62.65259	-65.90727	-74.85764	-206.67218	476.81062	420.66739	345.80975	0
585	331.16369	153.78363	-178.19373	-243.28733	255.49238	-11.39138	-295.36221	-206.67218	-189.58511	388.93426	342.55507	309.1946	0
586	218.87723	393.00261	174.12538	-306.75359	23.59643	284.7845	59.39791	72.41663	-91.94471	506.10274	401.13931	316.51763	0
587	250.61036	578.51937	327.90901	-414.15803	-38.24249	453.21419	10.57771	16.2734	-82.18067	335.23204	257.11972	196.90814	0
588	155.41097	607.81149	452.40052	-382.4249	-148.08794	531.32651	161.92033	204.23117	16.2734	410.90335	279.08881	192.02612	0
589	57.77057	759.15411	701.38354	-409.27601	-321.39965	731.48933	200.97649	301.87157	30.91946	249.79669	183.88942	101.70875	0
590	109.03178	698.12886	589.09708	-404.39399	-240.84632	643.61297	408.46234	397.07096	160.29299	408.46234	203.4175	101.70875	0
591	48.00653	751.83108	703.82455	-399.51197	-328.72268	729.04832	537.83587	558.17762	206.67218	408.46234	213.18154	91.94471	0
592	40.6835	744.50805	703.82455	-392.18894	-331.16369	724.1663	513.42577	465.41924	240.84632	320.58598	137.51023	43.12451	0
593	-4.06835	646.86765	650.12233	-321.39965	-326.28167	648.49499	596.42011	563.05964	321.39965	362.08315	130.1872	60.21158	0
594	-55.32956	764.03613	818.55202	-355.57379	-436.12712	790.07357	608.62516	553.2956	331.16369	171.68437	44.75185	13.83239	0
595	-1.62734	659.0727	659.88637	-328.72268	-331.16369	658.25903	313.26295	370.21985	318.95864	-9.76404	-51.26121	-13.83239	0
596	-111.47279	734.74401	845.40313	-311.63561	-477.62429	790.07357	557.36395	533.76752	331.16369	-9.76404	-36.61515	-11.39138	0
597	-87.06269	624.89856	711.14758	-270.13844	-399.51197	668.02307	474.36961	406.835	275.02046	-200.16282	-161.10666	-109.03178	0
598	-135.88289	405.20766	540.27688	-135.88289	-338.48672	472.74227	525.63082	484.94732	277.46147	-148.90161	-158.66565	-123.67784	0
599	-179.82107	393.00261	572.01001	-106.59077	-375.10187	482.50631	440.19547	462.97823	196.90814	-344.18241	-234.33696	-187.1441	0
600	-152.96996	251.42403	403.58032	-50.44754	-277.46147	326.28167	572.01001	470.30126	253.05137	-185.51676	-190.39878	-162.734	0
601	-199.34915	295.36221	493.89769	-48.00653	-345.80975	394.62995	652.56334	577.7057	243.28733	-173.31171	-161.10666	-152.96996	0
602	-165.17501	209.92686	374.2882	-23.59643	-270.13844	292.10753	596.42011	480.0653	267.69743	-236.77797	-227.01393	-194.46713	0
603	-189.58511	90.31737	279.08881	48.00653	-233.52329	184.70309	772.17283	580.14671	340.92773	-129.37353	-178.19373	-157.85198	0
604	-199.34915	119.60949	318.14497	38.24249	-257.93339	218.87723	789.2599	555.73661	323.84066	-219.6909	-224.57292	-187.1441	0
605	-87.06269	-91.13104	-4.06835	87.06269	-43.12451	-48.00653	501.22072	367.77884	292.10753	-297.80322	-251.42403	-182.26208	0
606	-152.96996	34.17414	186.33043	57.77057	-170.05703	109.03178	779.49586	563.05964	321.39965	-207.48585	-202.60383	-170.05703	0
607	-116.35481	58.58424	174.12538	28.47845	-145.64693	116.35481	755.08576	489.82934	316.51763	-290.48019	-266.07009	-213.99521	0
608	-140.76491	-27.66478	113.10013	82.18067	-128.55986	43.12451	750.20374	575.26469	316.51763	-231.89595	-207.48585	-177.38006	0
609	-228.64127	85.43535	313.26295	69.97562	-270.13844	199.34915	694.06051	592.35176	260.3744	-390.5616	-273.39312	-235.9643	0
610	-174.93905	0	174.12538	87.06269	-174.93905	87.06269	899.10535	648.49499	365.33783	-151.34262	-178.19373	-148.08794	0
611	-194.46713	46.37919	240.03265	72.41663	-216.43622	143.20592	979.65868	768.10448	365.33783	-119.60949	-119.60949	-113.9138	0
612	-133.44188	24.4101	157.03831	52.88855	-145.64693	89.5037	918.63343	663.14105	387.30692	-112.28646	-139.13757	-126.11885	0
613	-128.55986	-49.63387	78.92599	87.06269	-104.14976	13.83239	1008.9508	724.1663	421.48106	12.20505	-97.6404	-99.26774	0
614	-126.11885	46.37919	171.68437	38.24249	-148.08794	109.03178	940.60252	665.58206	370.21985	-107.40444	-161.10666	-140.76491	0
615	-21.15542	-93.57205	-73.2303	55.32956	26.03744	-84.62168	606.18415	465.41924	328.72268	-227.01393	-217.24989	-160.29299	0
616	-113.9138	73.2303	186.33043	18.71441	-150.52895	128.55986	842.96212	638.73095	350.69177	-144.01959	-146.4606	-140.76491	0
617	-65.0936	141.57858	205.85851	-38.24249	-135.88289	172.49804	759.96778	543.53156	323.84066	-236.77797	-217.24989	-170.05703	0
618	-84.62168	136.69656	220.50457	-26.03744	-152.96996	177.38006	764.8498	646.05398	343.36874	-148.90161	-148.90161	-126.11885	0
619	-131.00087	297.80322	427.99042	-84.62168	-279.90248	362.89682	676.97344	668.02307	306.75359	-307.56726	-183.07575	-143.20592	0
620	-74.85764	192.83979	266.88376	-60.21158	-170.05703	228.64127	852.72616	716.84327	397.07096	-87.87636	-102.52242	-82.18067	0
621	-131.00087	197.72181	327.90901	-33.36047	-228.64127	262.81541	867.37222	787.63256	379.98389	-65.90727	-39.05616	-38.24249	0
622	-82.18067	187.95777	269.32477	-52.88855	-174.93905	228.64127	681.85546	636.28994	362.89682	-112.28646	-92.75838	-77.29865	0
623	-69.97562	78.11232	147.27427	-4.06835	-109.03178	111.47279	716.0296	663.14105	394.62995	44.75185	-14.64606	-23.59643	0
624	-69.97562	187.95777	257.11972	-60.21158	-162.734	221.31824	608.62516	558.17762	323.84066	-82.99434	-95.19939	-62.65259	0
625	30.91946	-17.90074	-48.8202	-6.50936	38.24249	-33.36047	254.67871	338.48672	277.46147	-158.66565	-112.28646	-50.44754	0
626	-50.44754	144.01959	193.65346	-48.00653	-121.23683	167.61602	467.04658	489.82934	282.34349	-46.37919	-53.70222	-30.91946	0
627	-6.50936	224.57292	230.26861	-109.03178	-118.79582	226.20026	398.6983	360.45581	245.72834	-131.81454	-114.72747	-57.77057	0
628	-57.77057	165.98868	222.94558	-55.32956	-140.76491	194.46713	357.20113	411.71702	238.40531	-95.19939	-53.70222	-26.03744	0
629	-106.59077	239.21898	344.99608	-67.53461	-226.20026	292.10753	171.68437	331.16369	123.67784	-290.48019	-131.81454	-82.18067	0
630	-62.65259	73.2303	135.06922	-6.50936	-99.26774	104.14976	323.02699	326.28167	179.82107	-17.08707	-26.85111	-6.50936	0
631	-84.62168	104.96343	188.77144	-11.39138	-135.88289	145.64693	342.55507	375.10187	133.44188	14.64606	30.10579	33.36047	0
632	-43.12451	82.99434	125.30518	-21.15542	-84.62168	104.14976	157.03831	172.49804	87.06269	-61.02525	-39.05616	-6.50936	0
633	-35.80148	-13.01872	22.78276	23.59643	-30.91946	4.06835	301.0579	226.20026	128.55986	135.06922	47.19286	52.88855	0
634	-43.12451	97.6404	139.95124	-28.47845	-91.94471	118.79582	193.65346	131.00087	55.32956	0	-19.52808	3.25468	0
635	87.06269	-42.31084	-129.37353	-23.59643	106.59077	-84.62168	-136.69656	-96.82673	4.06835	-109.84545	-68.34828	-6.50936	0
636	-28.47845	92.75838	120.42316	-33.36047	-74.85764	106.59077	127.74619	67.53461	8.95037	0	-2.44101	13.83239	0
637	18.71441	126.93252	108.21811	-72.41663	-45.56552	118.79582	78.92599	-40.6835	-16.2734	-63.46626	-53.70222	-8.95037	0
638	-6.50936	61.02525	66.72094	-28.47845	-35.80148	62.65259	34.98781	16.2734	-30.91946	-19.52808	-9.76404	23.59643	0
639	-69.97562	185.51676	254.67871	-57.77057	-162.734	218.87723	-117.16848	-17.90074	-113.9138	-239.21898	-92.75838	-43.12451	0
640	-43.12451	53.70222	96.01306	-6.50936	-69.97562	74.85764	91.13104	11.39138	-40.6835	9.76404	7.32303	26.03744	0
641	-79.73966	102.52242	181.44841	-11.39138	-131.00087	140.76491	115.54114	106.59077	-43.12451	-9.76404	54.51589	57.77057	0
642	-16.2734	90.31737	105.7771	-38.24249	-60.21158	96.82673	22.78276	-22.78276	-40.6835	-19.52808	-4.88202	40.6835	0
643	-21.15542	-5.69569	15.45973	11.39138	-18.71441	4.06835	100.89508	23.59643	-0.81367	120.42316	66.72094	79.73966	0
644	-4.06835	109.84545	113.10013	-52.88855	-57.77057	111.47279	39.86983	-35.80148	-38.24249	2.44101	15.45973	40.6835	0
645	55.32956	-81.367	-136.69656	11.39138	94.38572	-109.03178	-319.77231	-240.84632	-84.62168	-146.4606	-80.55333	5.69569	0
646	-28.47845	100.08141	127.74619	-35.80148	-77.29865	113.9138	-17.08707	-60.21158	-69.97562	-24.4101	-7.32303	26.03744	0
647	6.50936	141.57858	135.06922	-74.85764	-65.0936	138.3239	-34.17414	-143.20592	-82.18067	-70.78929	-68.34828	-1.62734	0
648	13.83239	97.6404	83.80801	-55.32956	-35.80148	91.94471	-31.73313	-55.32956	-52.88855	-12.20505	-7.32303	48.00653	0
649	-43.12451	224.57292	266.88376	-91.94471	-155.41097	245.72834	-222.13191	-89.5037	-143.20592	-248.98302	-95.19939	-30.91946	0
650	-1.62734	124.49151	125.30518	-62.65259	-62.65259	123.67784	22.78276	-48.00653	-55.32956	17.90074	4.88202	40.6835	0
651	-38.24249	156.22464	193.65346	-60.21158	-116.35481	174.93905	44.75185	55.32956	-60.21158	20.34175	71.60296	77.29865	0
652	4.06835	131.81454	127.74619	-67.53461	-62.65259	131.00087	-97.6404	-89.5037	-65.0936	-43.93818	-17.08707	35.80148	0
653	-21.15542	-5.69569	15.45973	11.39138	-18.71441	4.06835	27.66478	-10.57771	-11.39138	149.71528	78.92599	87.06269	0
654	-16.2734	100.08141	115.54114	-43.12451	-65.0936	106.59077	-31.73313	-77.29865	-55.32956	-2.44101	-2.44101	43.12451	0
655	69.97562	-34.98781	-104.96343	-18.71441	87.06269	-69.97562	-378.35655	-289.66652	-96.82673	-136.69656	-75.67131	0.81367	0
656	-28.47845	126.93252	154.5973	-50.44754	-91.94471	140.76491	-104.96343	-113.9138	-79.73966	-39.05616	-31.73313	11.39138	0
657	-1.62734	146.4606	147.27427	-72.41663	-74.85764	145.64693	-56.14323	-165.17501	-74.85764	-56.14323	-48.8202	5.69569	0
658	-18.71441	75.67131	93.57205	-28.47845	-55.32956	84.62168	-134.25555	-106.59077	-79.73966	-65.90727	-21.96909	28.47845	0
659	-79.73966	192.83979	271.76578	-57.77057	-174.93905	231.08228	-280.71615	-121.23683	-155.41097	-280.71615	-104.96343	-35.80148	0
660	-21.15542	107.40444	127.74619	-43.12451	-74.85764	116.35481	-19.52808	-55.32956	-45.56552	9.76404	10.57771	50.44754	0
661	-77.29865	139.13757	215.62255	-30.91946	-145.64693	177.38006	-29.29212	26.03744	-79.73966	-31.73313	39.86983	69.97562	0
662	-30.91946	109.84545	139.95124	-40.6835	-84.62168	123.67784	-146.4606	-111.47279	-82.18067	-68.34828	-12.20505	33.36047	0
663	-26.03744	19.52808	44.75185	0.81367	-35.80148	30.91946	-1.62734	-15.45973	-13.83239	142.39225	78.92599	104.14976	0
664	-23.59643	141.57858	164.36134	-60.21158	-94.38572	152.96996	-92.75838	-82.18067	-57.77057	-2.44101	7.32303	60.21158	0
665	84.62168	-17.90074	-102.52242	-33.36047	91.94471	-60.21158	-449.14584	-282.34349	-99.26774	-153.78363	-58.58424	35.80148	0
666	-6.50936	158.66565	164.36134	-77.29865	-84.62168	160.29299	-141.57858	-101.70875	-72.41663	-43.93818	2.44101	48.00653	0
667	38.24249	202.60383	164.36134	-121.23683	-62.65259	184.70309	-168.42969	-177.38006	-67.53461	-80.55333	-46.37919	30.91946	0
668	-6.50936	144.01959	149.71528	-69.97562	-77.29865	145.64693	-192.83979	-101.70875	-67.53461	-78.11232	-21.96909	43.12451	0
669	-74.85764	263.62908	337.67305	-94.38572	-206.67218	299.43056	-358.82847	-128.55986	-148.08794	-327.09534	-104.96343	-21.15542	0
670	-26.03744	156.22464	181.44841	-65.0936	-104.14976	167.61602	-65.90727	-62.65259	-52.88855	-19.52808	10.57771	67.53461	0
671	-79.73966	197.72181	276.6478	-60.21158	-177.38006	235.9643	-70.78929	26.03744	-77.29865	-43.93818	32.5468	82.18067	0
672	-16.2734	178.19373	193.65346	-82.18067	-104.14976	184.70309	-200.16282	-116.35481	-74.85764	-92.75838	-14.64606	62.65259	0
673	-43.12451	36.61515	78.92599	0.81367	-60.21158	57.77057	-70.78929	-40.6835	-16.2734	100.89508	66.72094	116.35481	0
674	-57.77057	141.57858	198.53548	-43.12451	-128.55986	170.05703	-139.13757	-99.26774	-55.32956	-29.29212	10.57771	69.97562	0
675	60.21158	-8.1367	-68.34828	-26.03744	62.65259	-38.24249	-522.37614	-314.07662	-96.82673	-165.98868	-65.90727	50.44754	0
676	-18.71441	187.95777	205.85851	-84.62168	-111.47279	196.90814	-212.36787	-104.14976	-57.77057	-48.8202	0	77.29865	0
677	23.59643	270.95211	247.35568	-148.08794	-111.47279	260.3744	-183.07575	-189.58511	-65.0936	-87.87636	-36.61515	45.56552	0
678	-11.39138	187.95777	198.53548	-89.5037	-104.14976	192.02612	-236.77797	-116.35481	-67.53461	-78.11232	-9.76404	69.97562	0
679	-96.82673	268.5111	364.52416	-87.06269	-231.08228	316.51763	-414.9717	-135.88289	-140.76491	-322.21332	-104.96343	-4.06835	0
680	-52.88855	185.51676	237.59164	-67.53461	-145.64693	211.5542	-129.37353	-87.06269	-55.32956	-7.32303	25.22377	87.06269	0
681	-89.5037	248.98302	337.67305	-79.73966	-213.99521	292.10753	-141.57858	4.06835	-74.85764	-51.26121	34.98781	89.5037	0
682	-21.15542	195.2808	215.62255	-87.06269	-118.79582	204.23117	-270.95211	-116.35481	-55.32956	-97.6404	10.57771	77.29865	0
683	-16.2734	119.60949	135.06922	-52.88855	-74.85764	126.11885	-90.31737	-27.66478	11.39138	122.86417	93.57205	157.85198	0
684	-33.36047	183.07575	215.62255	-74.85764	-123.67784	199.34915	-185.51676	-99.26774	-35.80148	-24.4101	30.10579	111.47279	0
685	65.0936	56.14323	-9.76404	-60.21158	38.24249	23.59643	-568.75533	-311.63561	-94.38572	-185.51676	-53.70222	57.77057	0
686	-30.91946	234.33696	264.44275	-101.70875	-148.08794	248.16935	-288.03918	-118.79582	-60.21158	-65.90727	-12.20505	60.21158	0
687	-4.06835	283.15716	286.41184	-140.76491	-145.64693	284.7845	-239.21898	-177.38006	-62.65259	-61.02525	-34.17414	50.44754	0
688	-33.36047	165.98868	198.53548	-67.53461	-116.35481	182.26208	-270.95211	-87.06269	-35.80148	-46.37919	17.90074	99.26774	0
689	-87.06269	305.12625	391.37527	-109.03178	-238.40531	348.25076	-471.11493	-121.23683	-140.76491	-319.77231	-87.87636	16.2734	0
690	-28.47845	224.57292	252.2377	-99.26774	-140.76491	238.40531	-173.31171	-50.44754	-38.24249	9.76404	30.10579	104.14976	0
691	-91.94471	258.74706	349.8781	-84.62168	-221.31824	304.31258	-185.51676	35.80148	-62.65259	-34.17414	56.9569	126.11885	0
692	-38.24249	229.45494	266.88376	-96.82673	-152.96996	248.16935	-280.71615	-89.5037	-60.21158	-56.14323	0	96.82673	0
693	-23.59643	129.37353	152.15629	-52.88855	-87.06269	140.76491	-192.83979	-8.1367	-3.25468	113.10013	96.01306	152.96996	0
694	-43.12451	200.16282	242.47366	-79.73966	-143.20592	221.31824	-241.65999	-60.21158	-38.24249	-7.32303	42.31084	113.9138	0
695	50.44754	68.34828	17.90074	-60.21158	16.2734	43.12451	-610.2525	-272.57945	-84.62168	-161.10666	-63.46626	74.85764	0
696	-35.80148	236.77797	271.76578	-101.70875	-152.96996	253.05137	-314.89029	-72.41663	-55.32956	-51.26121	-4.88202	96.82673	0
697	-45.56552	253.86504	298.61689	-104.14976	-172.49804	275.02046	-283.15716	-145.64693	-55.32956	-56.14323	-34.17414	82.18067	0
698	-65.0936	231.89595	296.17588	-84.62168	-179.82107	262.81541	-317.3313	-60.21158	-52.88855	-39.05616	15.45973	109.03178	0
699	-87.06269	353.94645	440.19547	-133.44188	-262.81541	397.07096	-522.37614	-101.70875	-135.88289	-322.21332	-95.19939	38.24249	0
700	-40.6835	253.86504	293.73487	-106.59077	-167.61602	272.57945	-224.57292	-35.80148	-33.36047	9.76404	27.66478	121.23683	0
701	-99.26774	278.27514	376.72921	-89.5037	-238.40531	326.28167	-236.77797	62.65259	-43.12451	-31.73313	52.07488	145.64693	0
702	-30.91946	258.74706	288.85285	-113.9138	-160.29299	272.57945	-344.18241	-65.0936	-55.32956	-78.11232	10.57771	123.67784	0
703	-38.24249	122.0505	159.47932	-43.12451	-99.26774	140.76491	-217.24989	13.83239	23.59643	122.86417	108.21811	184.70309	0
704	-35.80148	248.98302	283.97083	-106.59077	-160.29299	265.25642	-283.15716	-52.88855	-5.69569	-17.08707	27.66478	140.76491	0
705	52.88855	100.08141	47.19286	-77.29865	3.25468	74.85764	-651.74967	-245.72834	-16.2734	-165.98868	-34.17414	111.47279	0
706	-40.6835	222.13191	262.00174	-91.94471	-150.52895	240.84632	-327.09534	-40.6835	48.00653	-39.05616	32.5468	140.76491	0
707	-35.80148	256.30605	291.29386	-111.47279	-162.734	272.57945	-266.07009	-111.47279	65.0936	-46.37919	22.78276	126.11885	0
708	-55.32956	207.48585	262.00174	-77.29865	-157.85198	233.52329	-378.35655	-67.53461	55.32956	-112.28646	10.57771	131.00087	0
709	-89.5037	356.38746	445.07749	-133.44188	-267.69743	399.51197	-558.99129	-94.38572	-23.59643	-363.71049	-107.40444	50.44754	0
710	-16.2734	270.95211	286.41184	-128.55986	-150.52895	277.46147	-227.01393	-10.57771	104.14976	-2.44101	47.19286	157.85198	0
711	-94.38572	280.71615	374.2882	-94.38572	-233.52329	326.28167	-273.39312	50.44754	65.0936	-73.2303	56.9569	150.52895	0
712	-62.65259	180.63474	242.47366	-60.21158	-152.96996	211.5542	-358.82847	-65.0936	84.62168	-85.43535	15.45973	135.88289	0
713	-38.24249	114.72747	152.15629	-38.24249	-94.38572	133.44188	-207.48585	26.03744	157.85198	122.86417	135.06922	206.67218	0
714	-40.6835	212.36787	252.2377	-87.06269	-145.64693	231.08228	-305.12625	-40.6835	109.03178	-21.96909	54.51589	160.29299	0
715	60.21158	48.8202	-12.20505	-55.32956	35.80148	18.71441	-676.15977	-248.16935	62.65259	-175.75272	-31.73313	121.23683	0
716	-28.47845	202.60383	230.26861	-87.06269	-128.55986	216.43622	-371.03352	-48.00653	109.03178	-53.70222	44.75185	143.20592	0
717	4.06835	229.45494	225.38659	-116.35481	-111.47279	228.64127	-310.00827	-118.79582	109.03178	-43.93818	17.90074	140.76491	0
718	-23.59643	185.51676	208.29952	-82.18067	-116.35481	196.90814	-378.35655	-62.65259	91.94471	-75.67131	30.10579	135.88289	0
719	-67.53461	288.03918	354.76012	-111.47279	-211.5542	321.39965	-576.07836	-91.94471	4.06835	-339.30039	-80.55333	57.77057	0
720	-40.6835	168.42969	208.29952	-65.0936	-123.67784	187.1441	-246.54201	-20.34175	121.23683	17.90074	61.83892	160.29299	0
721	-79.73966	209.92686	288.85285	-65.0936	-184.70309	248.16935	-292.9212	55.32956	96.82673	-48.8202	71.60296	155.41097	0
722	-23.59643	173.31171	196.09447	-74.85764	-109.03178	184.70309	-393.00261	-72.41663	99.26774	-65.90727	32.5468	131.00087	0
723	0.81367	70.78929	69.16195	-35.80148	-33.36047	69.97562	-261.18807	11.39138	160.29299	137.51023	113.10013	196.90814	0
724	-6.50936	168.42969	174.12538	-82.18067	-89.5037	170.05703	-324.65433	-45.56552	123.67784	7.32303	64.27993	152.96996	0
725	77.29865	-5.69569	-82.99434	-35.80148	79.73966	-43.12451	-705.45189	-265.25642	67.53461	-141.57858	-12.20505	111.47279	0
726	-30.91946	131.81454	161.92033	-50.44754	-96.82673	145.64693	-361.26948	-67.53461	96.82673	-19.52808	54.51589	133.44188	0
727	-4.06835	173.31171	176.56639	-84.62168	-89.5037	174.93905	-310.00827	-131.00087	101.70875	2.44101	34.98781	121.23683	0
728	-11.39138	126.93252	137.51023	-57.77057	-74.85764	131.00087	-368.59251	-57.77057	106.59077	-29.29212	49.63387	133.44188	0
729	-67.53461	227.01393	293.73487	-79.73966	-179.82107	260.3744	-605.37048	-106.59077	-5.69569	-327.09534	-68.34828	43.12451	0
730	-4.06835	82.99434	86.24902	-40.6835	-45.56552	84.62168	-234.33696	-15.45973	128.55986	61.83892	93.57205	155.41097	0
731	-60.21158	112.28646	171.68437	-26.03744	-116.35481	140.76491	-253.86504	77.29865	113.9138	17.90074	108.21811	165.17501	0
732	-8.95037	109.84545	117.98215	-50.44754	-62.65259	113.9138	-402.76665	-77.29865	89.5037	-68.34828	37.42882	116.35481	0
733	-18.71441	-22.78276	-4.06835	18.71441	-8.95037	-13.83239	-219.6909	21.15542	165.17501	176.56639	154.5973	192.02612	0
734	-26.03744	65.90727	91.13104	-21.15542	-57.77057	77.29865	-312.44928	-57.77057	104.14976	30.10579	66.72094	126.11885	0
735	67.53461	-113.10013	-180.63474	21.15542	123.67784	-145.64693	-681.04179	-265.25642	55.32956	-134.25555	-9.76404	79.73966	0
736	18.71441	51.26121	32.5468	-35.80148	-6.50936	43.12451	-341.7414	-62.65259	96.82673	20.34175	81.367	116.35481	0
737	40.6835	75.67131	34.98781	-57.77057	3.25468	55.32956	-258.74706	-118.79582	116.35481	56.9569	59.39791	104.14976	0
738	-4.06835	31.73313	34.98781	-13.83239	-18.71441	33.36047	-356.38746	-72.41663	101.70875	-2.44101	54.51589	96.82673	0
739	-55.32956	141.57858	196.09447	-43.12451	-126.11885	167.61602	-561.4323	-118.79582	-8.95037	-314.89029	-73.2303	-1.62734	0
740	0.81367	9.76404	8.1367	-6.50936	-4.06835	8.95037	-190.39878	-17.90074	111.47279	76.48498	78.92599	111.47279	0
741	-55.32956	21.96909	76.48498	16.2734	-65.0936	48.00653	-236.77797	62.65259	74.85764	14.64606	100.89508	113.9138	0
742	13.83239	4.88202	-9.76404	-8.95037	11.39138	-0.81367	-280.71615	-45.56552	99.26774	20.34175	69.16195	99.26774	0
743	18.71441	-49.63387	-68.34828	13.83239	43.12451	-57.77057	-183.07575	13.83239	135.88289	179.0074	127.74619	133.44188	0
744	18.71441	17.08707	-1.62734	-18.71441	11.39138	8.95037	-241.65999	-40.6835	106.59077	49.63387	66.72094	82.18067	0
745	106.59077	-176.56639	-283.15716	33.36047	194.46713	-228.64127	-578.51937	-238.40531	69.97562	-78.11232	-4.88202	67.53461	0
746	21.15542	-8.1367	-29.29212	-6.50936	23.59643	-18.71441	-251.42403	-33.36047	106.59077	52.07488	54.51589	77.29865	0
747	60.21158	43.93818	-17.08707	-52.88855	38.24249	13.83239	-178.19373	-104.14976	113.9138	81.367	52.07488	57.77057	0
748	45.56552	-15.45973	-61.02525	-16.2734	52.88855	-38.24249	-258.74706	-40.6835	99.26774	44.75185	64.27993	57.77057	0
749	-4.06835	90.31737	93.57205	-43.12451	-48.00653	91.94471	-480.87897	-82.18067	4.06835	-258.74706	-63.46626	-35.80148	0
750	23.59643	-32.5468	-56.14323	4.06835	38.24249	-43.12451	-100.08141	6.50936	126.11885	108.21811	66.72094	74.85764	0
751	-30.91946	-10.57771	20.34175	18.71441	-26.03744	4.06835	-139.13757	79.73966	96.82673	47.19286	81.367	72.41663	0
752	30.91946	-30.10579	-61.02525	-1.62734	45.56552	-45.56552	-231.89595	-52.88855	89.5037	4.88202	25.22377	33.36047	0
753	23.59643	-132.62821	-156.22464	52.88855	89.5037	-143.20592	-85.43535	40.6835	150.52895	220.50457	120.42316	87.06269	0
754	45.56552	-39.86983	-85.43535	-4.06835	65.0936	-62.65259	-136.69656	-20.34175	116.35481	100.89508	66.72094	48.00653	0
755	118.79582	-183.88942	-302.68524	30.91946	209.11319	-243.28733	-490.64301	-228.64127	69.97562	-63.46626	-9.76404	5.69569	0
756	11.39138	-52.07488	-63.46626	18.71441	35.80148	-57.77057	-156.22464	-35.80148	104.14976	66.72094	39.86983	35.80148	0
757	50.44754	-20.34175	-70.78929	-16.2734	60.21158	-45.56552	-21.96909	-77.29865	131.00087	117.98215	44.75185	45.56552	0
758	40.6835	-49.63387	-90.31737	4.06835	65.0936	-69.97562	-173.31171	-48.00653	94.38572	12.20505	22.78276	21.15542	0
759	-33.36047	58.58424	91.13104	-13.83239	-62.65259	74.85764	-383.23857	-84.62168	-0.81367	-268.5111	-104.96343	-82.18067	0
760	8.95037	-59.39791	-68.34828	23.59643	38.24249	-62.65259	-14.64606	1.62734	116.35481	98.45407	42.31084	33.36047	0
761	-60.21158	-71.60296	-12.20505	65.0936	-26.03744	-43.12451	-61.02525	77.29865	94.38572	49.63387	54.51589	28.47845	0
762	-6.50936	-81.367	-75.67131	43.12451	33.36047	-79.73966	-124.49151	-45.56552	106.59077	22.78276	13.01872	8.95037	0
763	18.71441	-142.39225	-161.10666	60.21158	89.5037	-150.52895	10.57771	38.24249	170.05703	220.50457	115.54114	69.97562	0
764	35.80148	7.32303	-29.29212	-21.15542	33.36047	-11.39138	-68.34828	-35.80148	118.79582	59.39791	7.32303	0.81367	0
765	113.9138	-237.59164	-351.50544	60.21158	231.08228	-294.54854	-402.76665	-223.75925	89.5037	-87.87636	-39.05616	-21.15542	0
766	0.81367	-74.04397	-75.67131	35.80148	38.24249	-74.85764	-80.55333	-27.66478	133.44188	44.75185	22.78276	5.69569	0
767	55.32956	-25.22377	-80.55333	-16.2734	67.53461	-52.88855	-1.62734	-91.94471	143.20592	98.45407	25.22377	11.39138	0
768	35.80148	-93.57205	-129.37353	28.47845	82.18067	-111.47279	-87.87636	-38.24249	131.00087	30.10579	17.90074	3.25468	0
769	-18.71441	39.05616	56.9569	-11.39138	-38.24249	48.00653	-334.41837	-84.62168	18.71441	-305.12625	-136.69656	-101.70875	0
770	38.24249	-61.83892	-100.08141	11.39138	67.53461	-79.73966	15.45973	-3.25468	131.00087	91.13104	30.10579	13.83239	0
771	-45.56552	-39.86983	5.69569	40.6835	-26.03744	-18.71441	0.81367	84.62168	87.06269	27.66478	42.31084	16.2734	0
772	16.2734	-39.86983	-56.14323	11.39138	35.80148	-48.00653	-87.87636	-48.00653	40.6835	7.32303	-14.64606	-28.47845	0
773	23.59643	-154.5973	-178.19373	65.0936	99.26774	-165.17501	22.78276	23.59643	67.53461	174.12538	83.80801	45.56552	0
774	23.59643	-74.04397	-97.6404	23.59643	60.21158	-84.62168	-14.64606	-38.24249	21.15542	71.60296	25.22377	5.69569	-1250	T-0
775	106.59077	-227.8276	-334.41837	60.21158	218.87723	-279.90248	-371.03352	-248.16935	-38.24249	-82.99434	-53.70222	-35.80148	0
776	13.83239	-59.39791	-73.2303	21.15542	43.12451	-65.0936	-51.26121	-52.88855	-13.83239	54.51589	10.57771	-11.39138	0
777	72.41663	12.20505	-61.02525	-43.12451	67.53461	-23.59643	27.66478	-111.47279	4.06835	100.89508	7.32303	-6.50936	0
778	30.91946	-56.9569	-87.87636	11.39138	57.77057	-72.41663	-70.78929	-43.12451	-11.39138	34.98781	15.45973	3.25468	0
779	-43.12451	31.73313	74.04397	4.06835	-57.77057	52.88855	-334.41837	-94.38572	-126.11885	-307.56726	-134.25555	-106.59077	0
780	4.06835	-78.92599	-82.99434	35.80148	43.12451	-79.73966	30.10579	-8.1367	-0.81367	91.13104	25.22377	8.95037	0
781	-45.56552	-44.75185	0.81367	43.12451	-23.59643	-23.59643	-12.20505	77.29865	-28.47845	7.32303	22.78276	8.95037	0
782	16.2734	-66.72094	-82.99434	23.59643	48.00653	-74.85764	-100.08141	-55.32956	-30.91946	-24.4101	-19.52808	-26.03744	0
783	0.81367	-161.92033	-163.54767	79.73966	82.18067	-162.734	39.86983	30.91946	26.03744	188.77144	88.69003	43.12451	0
784	21.15542	-59.39791	-80.55333	18.71441	50.44754	-69.97562	-9.76404	-40.6835	-21.15542	59.39791	4.88202	-4.06835	0
785	121.23683	-200.97649	-322.21332	38.24249	221.31824	-260.3744	-361.26948	-240.84632	-52.88855	-92.75838	-63.46626	-35.80148	0
786	8.95037	-27.66478	-36.61515	8.95037	21.15542	-30.91946	-29.29212	-38.24249	-30.91946	42.31084	-17.08707	-18.71441	0
787	30.91946	19.52808	-12.20505	-26.03744	21.15542	4.06835	61.83892	-96.82673	-21.15542	83.80801	-12.20505	-23.59643	0
788	16.2734	-88.69003	-104.96343	35.80148	60.21158	-96.82673	-58.58424	-38.24249	-38.24249	9.76404	-14.64606	-26.03744	0
789	-40.6835	70.78929	110.65912	-16.2734	-74.85764	89.5037	-314.89029	-91.94471	-150.52895	-331.97736	-168.42969	-138.3239	0
790	13.83239	-64.27993	-78.11232	23.59643	45.56552	-69.97562	49.63387	6.50936	-18.71441	74.04397	17.90074	-6.50936	0
791	-45.56552	-30.10579	15.45973	35.80148	-30.91946	-8.95037	5.69569	96.82673	-33.36047	9.76404	4.88202	-13.83239	0
792	-6.50936	-74.04397	-68.34828	38.24249	30.91946	-72.41663	-36.61515	-10.57771	-30.91946	27.66478	-24.4101	-30.91946	0
793	-1.62734	-169.24336	-168.42969	84.62168	82.18067	-170.05703	54.51589	45.56552	8.95037	169.24336	59.39791	28.47845	0
794	26.03744	-47.19286	-73.2303	8.95037	48.00653	-60.21158	20.34175	-3.25468	-26.03744	56.9569	10.57771	-6.50936	0
795	123.67784	-188.77144	-312.44928	30.91946	216.43622	-250.61036	-327.09534	-221.31824	-77.29865	-122.0505	-80.55333	-60.21158	0
796	11.39138	-64.27993	-75.67131	26.03744	43.12451	-69.97562	-4.06835	-20.34175	-28.47845	12.20505	-14.64606	-26.03744	0
797	18.71441	-42.31084	-61.02525	11.39138	38.24249	-50.44754	93.57205	-89.5037	-18.71441	91.13104	-7.32303	-23.59643	0
798	-1.62734	-83.80801	-82.99434	40.6835	40.6835	-84.62168	-58.58424	-52.88855	-45.56552	12.20505	-17.08707	-40.6835	0
799	-38.24249	46.37919	83.80801	-4.06835	-60.21158	65.0936	-314.89029	-89.5037	-148.08794	-322.21332	-158.66565	-128.55986	0
800	16.2734	-61.83892	-78.11232	21.15542	45.56552	-69.97562	42.31084	6.50936	-13.83239	91.13104	2.44101	-8.95037	0
801	-38.24249	0	37.42882	18.71441	-38.24249	18.71441	3.25468	62.65259	-72.41663	-14.64606	-7.32303	-21.15542	0
802	8.95037	-61.83892	-70.78929	26.03744	38.24249	-65.0936	-73.2303	-57.77057	-60.21158	-21.96909	-53.70222	-45.56552	0
803	-4.06835	-191.21245	-187.95777	96.82673	91.94471	-189.58511	34.98781	18.71441	-8.95037	181.44841	49.63387	5.69569	0
804	4.06835	-100.89508	-104.96343	48.00653	52.88855	-101.70875	-26.85111	-43.12451	-43.12451	52.07488	-24.4101	-43.12451	0
805	118.79582	-240.03265	-358.82847	60.21158	238.40531	-299.43056	-331.97736	-238.40531	-84.62168	-82.99434	-92.75838	-72.41663	0
806	4.06835	-96.01306	-100.08141	45.56552	50.44754	-96.82673	-53.70222	-55.32956	-48.00653	34.98781	-31.73313	-38.24249	0
807	23.59643	-30.10579	-53.70222	0.81367	38.24249	-40.6835	91.13104	-91.94471	-18.71441	120.42316	-14.64606	-18.71441	0
808	0.81367	-71.60296	-73.2303	33.36047	35.80148	-72.41663	-109.84545	-79.73966	-69.97562	-29.29212	-51.26121	-50.44754	0
809	-26.03744	73.2303	98.45407	-23.59643	-62.65259	84.62168	-349.06443	-116.35481	-165.17501	-317.3313	-173.31171	-138.3239	0
810	26.03744	-54.51589	-80.55333	13.83239	52.88855	-67.53461	3.25468	-20.34175	-35.80148	74.04397	-14.64606	-13.83239	0
811	-35.80148	-25.22377	10.57771	28.47845	-23.59643	-8.95037	-41.49717	43.12451	-74.85764	-17.08707	-9.76404	-23.59643	0
812	-1.62734	-83.80801	-82.99434	40.6835	40.6835	-84.62168	-87.87636	-69.97562	-57.77057	-2.44101	-39.05616	-33.36047	0
813	4.06835	-191.21245	-195.2808	91.94471	99.26774	-192.02612	30.10579	11.39138	-0.81367	200.97649	56.9569	33.36047	0
814	26.03744	-81.367	-107.40444	26.03744	65.0936	-94.38572	-46.37919	-55.32956	-43.12451	54.51589	-7.32303	-4.06835	0
815	109.03178	-222.94558	-331.97736	55.32956	218.87723	-277.46147	-363.71049	-255.49238	-89.5037	-90.31737	-87.87636	-55.32956	0
816	4.06835	-76.48498	-80.55333	35.80148	40.6835	-77.29865	-63.46626	-72.41663	-52.88855	27.66478	-46.37919	-28.47845	0
817	57.77057	-13.01872	-70.78929	-23.59643	62.65259	-40.6835	34.98781	-133.44188	-38.24249	81.367	-9.76404	-18.71441	0
818	33.36047	-42.31084	-75.67131	4.06835	52.88855	-57.77057	-92.75838	-91.94471	-77.29865	-2.44101	-31.73313	-30.91946	0
819	-28.47845	70.78929	98.45407	-21.15542	-62.65259	84.62168	-339.30039	-133.44188	-177.38006	-324.65433	-163.54767	-128.55986	0
820	8.95037	-83.80801	-92.75838	35.80148	50.44754	-87.06269	5.69569	-38.24249	-40.6835	69.16195	20.34175	5.69569	0
821	-35.80148	-47.19286	-12.20505	40.6835	-13.83239	-30.91946	-43.93818	30.91946	-89.5037	-9.76404	7.32303	-4.06835	0
822	18.71441	-74.04397	-92.75838	26.03744	55.32956	-82.18067	-70.78929	-84.62168	-74.85764	7.32303	-14.64606	-23.59643	0
823	18.71441	-186.33043	-205.04484	82.18067	111.47279	-194.46713	-12.20505	-30.91946	-35.80148	127.74619	39.86983	21.15542	0
824	35.80148	-69.16195	-104.96343	16.2734	69.97562	-87.06269	-14.64606	-82.18067	-67.53461	34.98781	2.44101	-6.50936	0
825	101.70875	-240.03265	-341.7414	67.53461	221.31824	-289.66652	-305.12625	-289.66652	-104.14976	-112.28646	-51.26121	-45.56552	0
826	8.95037	-115.54114	-124.49151	52.88855	65.0936	-118.79582	-6.50936	-91.94471	-67.53461	22.78276	30.10579	0.81367	0
827	40.6835	-44.75185	-85.43535	0.81367	62.65259	-65.0936	88.69003	-148.08794	-55.32956	81.367	30.10579	0.81367	0
828	6.50936	-83.80801	-90.31737	38.24249	48.00653	-87.06269	-43.93818	-104.14976	-79.73966	0	17.90074	-8.95037	0
829	-43.12451	26.85111	69.16195	6.50936	-55.32956	48.00653	-307.56726	-174.93905	-192.02612	-327.09534	-109.84545	-104.14976	0
830	8.95037	-127.74619	-136.69656	57.77057	72.41663	-131.00087	3.25468	-101.70875	-67.53461	56.9569	42.31084	21.15542	0
831	-30.91946	-69.16195	-39.05616	48.00653	3.25468	-55.32956	-34.17414	11.39138	-104.14976	-12.20505	52.07488	13.83239	0
832	26.03744	-61.83892	-87.87636	16.2734	55.32956	-74.85764	-109.84545	-138.3239	-109.03178	-29.29212	4.88202	-21.15542	0
833	4.06835	-210.74053	-214.80888	101.70875	109.03178	-211.5542	32.5468	-62.65259	-50.44754	147.27427	105.7771	48.00653	0
834	8.95037	-113.10013	-122.0505	50.44754	65.0936	-116.35481	-21.96909	-111.47279	-82.18067	37.42882	27.66478	0.81367	0
835	101.70875	-257.11972	-358.82847	77.29865	228.64127	-306.75359	-312.44928	-309.1946	-118.79582	-100.08141	-43.93818	-40.6835	0
836	30.91946	-88.69003	-119.60949	28.47845	74.85764	-104.14976	-41.49717	-113.9138	-77.29865	25.22377	37.42882	0.81367	0
837	52.88855	-52.07488	-104.96343	-1.62734	77.29865	-77.29865	88.69003	-157.85198	-50.44754	91.13104	47.19286	13.83239	0
838	30.91946	-86.24902	-117.16848	26.03744	72.41663	-101.70875	-61.02525	-118.79582	-94.38572	4.88202	17.90074	-1.62734	0
839	-11.39138	39.05616	49.63387	-13.83239	-30.91946	43.12451	-317.3313	-187.1441	-201.79016	-305.12625	-114.72747	-111.47279	0
840	21.15542	-96.01306	-117.16848	35.80148	67.53461	-106.59077	-14.64606	-99.26774	-69.97562	69.16195	42.31084	8.95037	0
841	-11.39138	-69.16195	-58.58424	38.24249	23.59643	-65.0936	-39.05616	13.83239	-94.38572	2.44101	64.27993	3.25468	0
842	38.24249	-78.92599	-117.16848	18.71441	77.29865	-96.82673	-51.26121	-89.5037	-72.41663	49.63387	27.66478	-1.62734	0
843	13.83239	-215.62255	-229.45494	99.26774	121.23683	-221.31824	13.01872	-55.32956	-45.56552	159.47932	91.13104	40.6835	0
844	13.83239	-96.01306	-109.84545	40.6835	60.21158	-101.70875	-31.73313	-116.35481	-82.18067	42.31084	17.90074	-18.71441	0
845	111.47279	-257.11972	-368.59251	72.41663	238.40531	-311.63561	-285.59817	-294.54854	-101.70875	-73.2303	-31.73313	-26.03744	0
846	40.6835	-100.89508	-141.57858	28.47845	89.5037	-121.23683	-12.20505	-106.59077	-72.41663	22.78276	10.57771	-6.50936	0
847	57.77057	-54.51589	-112.28646	-1.62734	84.62168	-82.18067	103.33609	-155.41097	-55.32956	83.80801	32.5468	0.81367	0
848	28.47845	-81.367	-109.84545	26.03744	67.53461	-94.38572	-31.73313	-116.35481	-84.62168	-9.76404	-7.32303	-23.59643	0
849	-23.59643	39.05616	61.83892	-8.95037	-43.12451	50.44754	-310.00827	-196.90814	-199.34915	-319.77231	-134.25555	-131.00087	0
850	18.71441	-100.89508	-119.60949	40.6835	67.53461	-109.03178	8.1367	-96.82673	-57.77057	66.72094	47.19286	11.39138	0
851	-38.24249	-76.48498	-39.05616	55.32956	-1.62734	-57.77057	-21.96909	-20.34175	-116.35481	-31.73313	34.98781	-16.2734	0
852	28.47845	-69.16195	-97.6404	18.71441	62.65259	-82.18067	-41.49717	-128.55986	-94.38572	0	-2.44101	-30.91946	0
853	21.15542	-242.47366	-263.62908	109.03178	140.76491	-253.05137	44.75185	-52.88855	-35.80148	164.36134	88.69003	38.24249	0
854	-13.83239	-149.71528	-136.69656	79.73966	60.21158	-143.20592	-4.06835	-111.47279	-79.73966	34.98781	0	-11.39138	0
855	109.03178	-237.59164	-346.62342	62.65259	226.20026	-292.10753	-253.86504	-289.66652	-104.14976	-73.2303	-48.8202	-38.24249	0
856	40.6835	-93.57205	-134.25555	26.03744	87.06269	-113.9138	-4.06835	-111.47279	-72.41663	-2.44101	0	-11.39138	0
857	40.6835	-69.16195	-109.84545	13.83239	74.85764	-89.5037	135.06922	-155.41097	-52.88855	120.42316	15.45973	3.25468	0
858	13.83239	-93.57205	-107.40444	38.24249	60.21158	-99.26774	-53.70222	-143.20592	-104.14976	-19.52808	-26.85111	-30.91946	0
859	-48.00653	-17.90074	30.10579	30.91946	-40.6835	6.50936	-292.9212	-201.79016	-194.46713	-295.36221	-153.78363	-121.23683	0
860	30.91946	-110.65912	-141.57858	38.24249	84.62168	-126.11885	5.69569	-113.9138	-69.97562	78.92599	17.90074	5.69569	0
861	-30.91946	-98.45407	-68.34828	62.65259	18.71441	-84.62168	-14.64606	-15.45973	-104.14976	-14.64606	10.57771	-6.50936	0
862	13.83239	-127.74619	-141.57858	55.32956	77.29865	-133.44188	-36.61515	-121.23683	-82.18067	37.42882	-14.64606	-18.71441	0
863	38.24249	-183.88942	-222.13191	72.41663	128.55986	-201.79016	69.16195	-52.88855	-28.47845	196.09447	103.33609	43.12451	0
864	16.2734	-113.10013	-129.37353	48.00653	72.41663	-121.23683	10.57771	-111.47279	-74.85764	66.72094	2.44101	-23.59643	0
865	87.06269	-266.88376	-353.94645	89.5037	218.87723	-309.1946	-253.86504	-301.87157	-121.23683	-75.67131	-63.46626	-57.77057	0
866	0.81367	-132.62821	-134.25555	65.0936	67.53461	-133.44188	13.01872	-106.59077	-69.97562	44.75185	-2.44101	-21.15542	0
867	57.77057	-74.04397	-131.81454	6.50936	94.38572	-101.70875	110.65912	-160.29299	-57.77057	86.24902	-17.08707	-8.95037	0
868	33.36047	-100.89508	-134.25555	33.36047	82.18067	-116.35481	0.81367	-109.03178	-79.73966	44.75185	2.44101	-13.83239	0
869	-28.47845	24.4101	52.07488	0.81367	-40.6835	38.24249	-263.62908	-184.70309	-170.05703	-295.36221	-119.60949	-111.47279	0
870	16.2734	-88.69003	-104.96343	35.80148	60.21158	-96.82673	13.01872	-106.59077	-57.77057	66.72094	20.34175	-6.50936	0
871	-11.39138	-64.27993	-53.70222	35.80148	21.15542	-60.21158	-4.06835	1.62734	-104.14976	12.20505	32.5468	-1.62734	0
872	18.71441	-100.89508	-119.60949	40.6835	67.53461	-109.03178	0.81367	-99.26774	-79.73966	69.16195	4.88202	-18.71441	0
873	4.06835	-222.94558	-227.01393	109.03178	113.9138	-223.75925	39.86983	-60.21158	-55.32956	154.5973	56.9569	21.15542	0
874	8.95037	-120.42316	-129.37353	55.32956	67.53461	-123.67784	15.45973	-104.14976	-79.73966	54.51589	-9.76404	-23.59643	0
875	128.55986	-208.29952	-336.85938	38.24249	231.08228	-272.57945	-227.01393	-267.69743	-99.26774	-46.37919	-63.46626	-45.56552	0
876	40.6835	-103.33609	-144.01959	30.91946	91.94471	-123.67784	27.66478	-67.53461	-60.21158	69.16195	13.01872	-8.95037	0
877	40.6835	-69.16195	-109.84545	13.83239	74.85764	-89.5037	108.21811	-135.88289	-57.77057	115.54114	0	-13.83239	0
878	4.06835	-115.54114	-119.60949	55.32956	60.21158	-116.35481	13.01872	-77.29865	-57.77057	54.51589	4.88202	-16.2734	0
879	-13.83239	26.85111	39.86983	-6.50936	-26.03744	33.36047	-256.30605	-157.85198	-162.734	-256.30605	-122.0505	-121.23683	0
880	38.24249	-76.48498	-114.72747	18.71441	74.85764	-94.38572	-4.06835	-91.94471	-65.0936	74.04397	13.01872	-16.2734	0
881	-13.83239	-61.83892	-48.8202	35.80148	16.2734	-55.32956	-4.06835	23.59643	-87.06269	20.34175	17.90074	-26.03744	0
882	33.36047	-66.72094	-100.08141	16.2734	65.0936	-82.18067	-17.08707	-74.85764	-67.53461	37.42882	-2.44101	-43.12451	0
883	28.47845	-169.24336	-197.72181	69.97562	111.47279	-182.26208	113.10013	8.95037	1.62734	205.85851	91.13104	23.59643	0
884	48.00653	-44.75185	-92.75838	-1.62734	69.97562	-67.53461	64.27993	-33.36047	-30.91946	66.72094	13.01872	-28.47845	0
885	106.59077	-176.56639	-283.15716	33.36047	194.46713	-228.64127	-109.84545	-165.17501	-30.91946	-17.08707	-29.29212	-43.12451	0
886	33.36047	-34.98781	-68.34828	0.81367	50.44754	-50.44754	120.42316	26.03744	8.95037	66.72094	25.22377	-8.95037	0
887	50.44754	17.08707	-34.17414	-33.36047	43.12451	-8.95037	227.8276	-15.45973	23.59643	103.33609	13.01872	-16.2734	0
888	35.80148	17.08707	-19.52808	-26.03744	28.47845	-0.81367	98.45407	35.80148	8.95037	37.42882	0	-21.15542	0
889	-13.83239	129.37353	142.39225	-57.77057	-77.29865	135.88289	-134.25555	-22.78276	-65.0936	-239.21898	-117.16848	-126.11885	0
890	11.39138	29.29212	17.90074	-21.15542	-4.06835	23.59643	120.42316	50.44754	28.47845	71.60296	17.90074	-21.15542	0
891	-38.24249	46.37919	83.80801	-4.06835	-60.21158	65.0936	117.98215	150.52895	-0.81367	20.34175	20.34175	-21.15542	0
892	33.36047	19.52808	-14.64606	-26.03744	23.59643	4.06835	144.83326	69.97562	30.91946	88.69003	27.66478	-6.50936	0
893	45.56552	-61.83892	-107.40444	6.50936	74.85764	-84.62168	183.88942	109.03178	57.77057	191.21245	81.367	28.47845	0
894	28.47845	-22.78276	-51.26121	-4.06835	38.24249	-35.80148	142.39225	50.44754	11.39138	91.13104	49.63387	-8.95037	0
895	104.14976	-117.98215	-222.13191	6.50936	162.734	-170.05703	-82.99434	-123.67784	-18.71441	2.44101	-21.96909	-35.80148	0
896	48.00653	14.64606	-34.17414	-30.91946	40.6835	-8.95037	139.95124	50.44754	6.50936	115.54114	49.63387	-6.50936	0
897	57.77057	43.93818	-14.64606	-50.44754	35.80148	16.2734	218.06356	-3.25468	11.39138	127.74619	20.34175	-8.95037	0
898	38.24249	21.96909	-17.08707	-30.91946	28.47845	4.06835	105.7771	30.91946	-21.15542	56.9569	17.90074	-23.59643	0
899	-6.50936	144.01959	149.71528	-69.97562	-77.29865	145.64693	-173.31171	-89.5037	-143.20592	-268.5111	-122.0505	-123.67784	0
900	30.91946	-37.42882	-68.34828	0.81367	48.00653	-52.88855	64.27993	-17.90074	-35.80148	76.48498	39.86983	-4.06835	0
901	6.50936	4.88202	-1.62734	-6.50936	3.25468	1.62734	61.83892	89.5037	-50.44754	39.86983	54.51589	0.81367	0
902	38.24249	-20.34175	-58.58424	-8.95037	48.00653	-38.24249	71.60296	-8.1367	-35.80148	78.92599	42.31084	-4.06835	0
903	30.91946	-132.62821	-163.54767	50.44754	96.82673	-148.08794	115.54114	26.03744	-18.71441	179.0074	93.57205	40.6835	0
904	55.32956	-22.78276	-78.11232	-16.2734	65.0936	-50.44754	86.24902	-3.25468	-26.03744	93.57205	49.63387	5.69569	0
905	109.03178	-149.71528	-258.74706	18.71441	182.26208	-204.23117	-141.57858	-187.1441	-69.97562	-7.32303	-17.08707	-28.47845	0
906	40.6835	-17.90074	-58.58424	-11.39138	48.00653	-38.24249	27.66478	-57.77057	-74.85764	71.60296	22.78276	-13.83239	0
907	55.32956	-54.51589	-109.84545	-1.62734	82.18067	-82.18067	132.62821	-99.26774	-55.32956	157.03831	49.63387	26.03744	0
908	30.91946	-98.45407	-129.37353	33.36047	79.73966	-113.9138	-41.49717	-79.73966	-82.18067	56.9569	34.98781	21.15542	0
909	45.56552	65.90727	20.34175	-55.32956	13.83239	43.12451	-278.27514	-160.29299	-177.38006	-212.36787	-68.34828	-60.21158	0
910	74.85764	-44.75185	-119.60949	-16.2734	96.82673	-82.18067	-43.93818	-101.70875	-89.5037	105.7771	74.04397	45.56552	0
911	26.03744	-30.10579	-56.14323	0.81367	40.6835	-43.12451	-46.37919	-0.81367	-116.35481	56.9569	64.27993	40.6835	0
912	48.00653	-66.72094	-114.72747	8.95037	79.73966	-89.5037	-65.90727	-104.14976	-96.82673	91.13104	66.72094	30.91946	0
913	35.80148	-196.09447	-231.89595	79.73966	133.44188	-213.99521	5.69569	-62.65259	-72.41663	218.06356	144.83326	84.62168	0
914	33.36047	-125.30518	-158.66565	45.56552	94.38572	-140.76491	-51.26121	-116.35481	-116.35481	105.7771	71.60296	38.24249	0
915	128.55986	-242.47366	-371.03352	55.32956	248.16935	-306.75359	-227.01393	-253.05137	-123.67784	27.66478	32.5468	38.24249	0
916	87.06269	-98.45407	-185.51676	4.06835	135.88289	-140.76491	-21.96909	-82.18067	-89.5037	108.21811	74.04397	55.32956	0
917	84.62168	-61.83892	-146.4606	-11.39138	113.9138	-104.14976	42.31084	-118.79582	-84.62168	135.06922	74.04397	45.56552	0
918	52.88855	-117.98215	-170.8707	30.91946	111.47279	-143.20592	-70.78929	-77.29865	-99.26774	69.16195	74.04397	45.56552	0
919	33.36047	9.76404	-24.4101	-21.15542	28.47845	-6.50936	-305.12625	-150.52895	-192.02612	-205.04484	-48.8202	-48.00653	0
920	52.88855	-76.48498	-129.37353	11.39138	89.5037	-101.70875	-63.46626	-89.5037	-96.82673	98.45407	76.48498	52.88855	0
921	23.59643	-30.10579	-53.70222	0.81367	38.24249	-40.6835	-73.2303	18.71441	-104.14976	42.31084	76.48498	52.88855	0
922	69.97562	-98.45407	-168.42969	13.83239	118.79582	-133.44188	-17.08707	-40.6835	-57.77057	103.33609	93.57205	62.65259	0
923	57.77057	-191.21245	-248.98302	65.0936	152.96996	-218.87723	-1.62734	8.95037	-33.36047	181.44841	137.51023	84.62168	0
924	67.53461	-88.69003	-156.22464	8.95037	111.47279	-121.23683	10.57771	-17.90074	-48.00653	110.65912	96.01306	45.56552	0
925	145.64693	-191.21245	-336.85938	21.15542	240.84632	-262.81541	-183.07575	-172.49804	-69.97562	34.98781	34.98781	23.59643	0
926	48.00653	-108.21811	-156.22464	28.47845	101.70875	-131.00087	3.25468	-35.80148	-60.21158	110.65912	59.39791	30.91946	0
927	52.88855	-64.27993	-117.16848	4.06835	84.62168	-89.5037	91.13104	-77.29865	-45.56552	135.06922	44.75185	11.39138	0
928	55.32956	-86.24902	-141.57858	13.83239	96.82673	-113.9138	-31.73313	-40.6835	-67.53461	56.9569	17.90074	-16.2734	0
929	-18.71441	-2.44101	15.45973	8.95037	-16.2734	6.50936	-275.83413	-123.67784	-162.734	-258.74706	-136.69656	-133.44188	0
930	13.83239	-110.65912	-124.49151	48.00653	67.53461	-116.35481	-51.26121	-65.0936	-74.85764	32.5468	-7.32303	-48.00653	0
931	-16.2734	-113.10013	-97.6404	62.65259	40.6835	-106.59077	-39.05616	48.00653	-77.29865	-2.44101	15.45973	-33.36047	0
932	-1.62734	-130.1872	-129.37353	65.0936	62.65259	-131.00087	-39.05616	-48.00653	-62.65259	30.10579	-12.20505	-50.44754	0
933	11.39138	-222.94558	-234.33696	104.14976	121.23683	-228.64127	39.86983	11.39138	-21.15542	164.36134	59.39791	-4.06835	0
934	4.06835	-152.15629	-156.22464	72.41663	79.73966	-152.96996	15.45973	-33.36047	-45.56552	42.31084	-9.76404	-50.44754	0
935	82.18067	-232.70962	-314.89029	74.85764	196.90814	-272.57945	-161.10666	-179.82107	-77.29865	-17.08707	-48.8202	-69.97562	0
936	28.47845	-108.21811	-136.69656	38.24249	82.18067	-121.23683	34.98781	-20.34175	-48.00653	56.9569	-2.44101	-45.56552	0
937	38.24249	-86.24902	-124.49151	23.59643	79.73966	-104.14976	105.7771	-72.41663	-40.6835	88.69003	-9.76404	-45.56552	0
938	16.2734	-130.1872	-146.4606	55.32956	79.73966	-138.3239	-36.61515	-45.56552	-65.0936	7.32303	-29.29212	-67.53461	0
939	-18.71441	-17.90074	0.81367	16.2734	-11.39138	-8.95037	-246.54201	-104.14976	-145.64693	-244.101	-151.34262	-152.96996	0
940	6.50936	-113.10013	-119.60949	52.88855	62.65259	-116.35481	-41.49717	-55.32956	-72.41663	37.42882	-12.20505	-65.0936	0
941	-13.83239	-132.62821	-119.60949	72.41663	52.88855	-126.11885	-29.29212	55.32956	-67.53461	-14.64606	-4.88202	-50.44754	0
942	16.2734	-137.51023	-153.78363	60.21158	84.62168	-145.64693	15.45973	-33.36047	-45.56552	71.60296	-4.88202	-50.44754	0
943	4.06835	-227.8276	-231.89595	111.47279	116.35481	-228.64127	17.90074	-0.81367	-28.47845	137.51023	47.19286	-23.59643	0
944	-8.95037	-161.92033	-153.78363	84.62168	72.41663	-157.85198	10.57771	-25.22377	-45.56552	56.9569	-19.52808	-67.53461	0
945	84.62168	-247.35568	-331.97736	79.73966	206.67218	-289.66652	-134.25555	-155.41097	-65.0936	4.88202	-41.49717	-62.65259	0
946	-1.62734	-142.39225	-141.57858	69.97562	69.97562	-143.20592	30.10579	-22.78276	-50.44754	54.51589	-9.76404	-60.21158	0
947	8.95037	-115.54114	-124.49151	52.88855	65.0936	-118.79582	88.69003	-79.73966	-50.44754	61.83892	-39.05616	-62.65259	0
948	-40.6835	-166.80235	-126.93252	101.70875	43.12451	-148.08794	-4.06835	-35.80148	-69.97562	17.90074	-34.17414	-74.85764	0
949	-50.44754	-34.98781	15.45973	40.6835	-33.36047	-11.39138	-266.07009	-121.23683	-155.41097	-266.07009	-175.75272	-167.61602	0
950	-1.62734	-135.06922	-134.25555	67.53461	65.0936	-135.88289	-41.49717	-52.88855	-50.44754	25.22377	-48.8202	-60.21158	0
951	-13.83239	-74.04397	-61.02525	43.12451	23.59643	-67.53461	-24.4101	48.00653	-57.77057	9.76404	-9.76404	-50.44754	0
952	30.91946	-100.89508	-131.81454	33.36047	79.73966	-116.35481	-9.76404	-33.36047	-35.80148	42.31084	-17.08707	-48.00653	0
953	23.59643	-179.0074	-202.60383	77.29865	111.47279	-189.58511	-4.06835	4.06835	-21.15542	125.30518	22.78276	-21.15542	0
954	23.59643	-98.45407	-122.0505	35.80148	72.41663	-109.03178	8.1367	-13.01872	-38.24249	42.31084	-7.32303	-48.00653	0
955	87.06269	-235.15063	-322.21332	72.41663	204.23117	-277.46147	-173.31171	-160.29299	-60.21158	-31.73313	-56.14323	-65.0936	0
956	26.03744	-115.54114	-141.57858	43.12451	82.18067	-128.55986	10.57771	-25.22377	-43.12451	30.10579	-17.08707	-48.00653	0
957	26.03744	-74.04397	-100.08141	23.59643	62.65259	-87.06269	76.48498	-82.18067	-40.6835	66.72094	-26.85111	-57.77057	0
958	23.59643	-86.24902	-109.84545	30.91946	65.0936	-96.82673	-51.26121	-50.44754	-60.21158	-14.64606	-46.37919	-69.97562	0
959	-23.59643	12.20505	34.98781	4.06835	-28.47845	23.59643	-261.18807	-121.23683	-140.76491	-285.59817	-148.90161	-148.08794	0
960	13.83239	-98.45407	-112.28646	40.6835	62.65259	-104.14976	-41.49717	-55.32956	-45.56552	14.64606	-21.96909	-52.88855	0
961	-28.47845	-93.57205	-65.90727	60.21158	18.71441	-79.73966	-36.61515	35.80148	-67.53461	-14.64606	-17.08707	-55.32956	0
962	-11.39138	-127.74619	-117.16848	67.53461	52.88855	-123.67784	-31.73313	-45.56552	-48.00653	32.5468	-24.4101	-60.21158	0
963	-8.95037	-179.0074	-170.8707	91.94471	79.73966	-174.93905	47.19286	8.95037	-18.71441	130.1872	30.10579	-21.15542	0
964	6.50936	-88.69003	-95.19939	40.6835	50.44754	-91.94471	8.1367	-40.6835	-55.32956	22.78276	-29.29212	-55.32956	0
965	77.29865	-198.53548	-275.83413	60.21158	174.93905	-235.9643	-119.60949	-172.49804	-50.44754	-4.88202	-48.8202	-57.77057	0
966	4.06835	-135.06922	-139.13757	65.0936	69.97562	-135.88289	20.34175	-48.00653	-40.6835	49.63387	-19.52808	-55.32956	0
967	26.03744	-86.24902	-112.28646	28.47845	67.53461	-99.26774	88.69003	-82.18067	-23.59643	64.27993	-29.29212	-55.32956	0
968	13.83239	-98.45407	-112.28646	40.6835	62.65259	-104.14976	-1.62734	-55.32956	-43.12451	25.22377	-26.85111	-55.32956	0
969	-35.80148	-25.22377	10.57771	28.47845	-23.59643	-8.95037	-219.6909	-128.55986	-126.11885	-229.45494	-131.81454	-138.3239	0
970	-11.39138	-105.7771	-95.19939	57.77057	40.6835	-101.70875	-29.29212	-69.97562	-48.00653	9.76404	-26.85111	-50.44754	0
971	-48.00653	-69.16195	-21.96909	57.77057	-13.83239	-45.56552	-12.20505	18.71441	-77.29865	-24.4101	-24.4101	-57.77057	0
972	-4.06835	-83.80801	-80.55333	43.12451	38.24249	-82.18067	-1.62734	-65.0936	-50.44754	22.78276	-31.73313	-65.0936	0
973	-11.39138	-196.09447	-185.51676	101.70875	87.06269	-192.02612	-9.76404	-38.24249	-38.24249	71.60296	-2.44101	-35.80148	0
974	8.95037	-88.69003	-97.6404	38.24249	52.88855	-91.94471	0.81367	-55.32956	-40.6835	34.98781	-26.85111	-52.88855	0
975	55.32956	-191.21245	-246.54201	67.53461	150.52895	-218.87723	-97.6404	-170.05703	-43.12451	2.44101	-46.37919	-43.12451	0
976	-26.03744	-147.27427	-122.0505	84.62168	48.00653	-135.88289	8.1367	-69.97562	-45.56552	32.5468	-26.85111	-50.44754	0
977	13.83239	-76.48498	-90.31737	30.91946	50.44754	-82.18067	96.01306	-99.26774	-30.91946	74.04397	-29.29212	-50.44754	0
978	-1.62734	-81.367	-80.55333	40.6835	38.24249	-82.18067	-26.85111	-77.29865	-50.44754	14.64606	-41.49717	-72.41663	0
