samplenr	I	II	III	aVR	aVL	aVF	V1	V2	V3	V4	V5	V6	measurement
0	2098.45493	-198.53548	296.98955	71.60296	2095.20025	-218.87723	-34.17414	40.6835	-8.95037	-78.11232	8.95037	663.95472	0
1	2098.45493	-176.56639	296.98955	71.60296	2095.20025	-218.87723	-34.17414	61.83892	-8.95037	-78.11232	30.10579	663.95472	0
2	2098.45493	-176.56639	296.98955	71.60296	2095.20025	-218.87723	-34.17414	40.6835	-8.95037	-78.11232	30.10579	663.95472	0
3	2098.45493	-176.56639	296.98955	71.60296	2095.20025	-218.87723	-34.17414	40.6835	-8.95037	-78.11232	30.10579	663.95472	0
4	2098.45493	-176.56639	296.98955	71.60296	2095.20025	-218.87723	-34.17414	40.6835	-8.95037	-78.11232	8.95037	663.95472	0
5	2098.45493	-176.56639	296.98955	71.60296	2095.20025	-218.87723	-34.17414	40.6835	-8.95037	-78.11232	8.95037	663.95472	0
6	2098.45493	-198.53548	296.98955	71.60296	2095.20025	-240.03265	-34.17414	19.52808	-8.95037	-100.08141	8.95037	663.95472	0
7	2098.45493	-219.6909	296.98955	92.75838	2095.20025	-240.03265	-55.32956	-2.44101	-8.95037	-100.08141	-13.01872	663.95472	0
8	2098.45493	-241.65999	296.98955	92.75838	2095.20025	-240.03265	-55.32956	-2.44101	-30.10579	-100.08141	-13.01872	663.95472	0
9	2098.45493	-241.65999	296.98955	113.9138	2095.20025	-240.03265	-55.32956	-2.44101	-30.10579	-100.08141	-34.17414	663.95472	0
10	2098.45493	-241.65999	296.98955	113.9138	2095.20025	-240.03265	-77.29865	-2.44101	-51.26121	-100.08141	-34.17414	663.95472	0
11	2098.45493	-241.65999	296.98955	113.9138	2095.20025	-240.03265	-77.29865	-2.44101	-51.26121	-100.08141	-34.17414	663.95472	0
12	2098.45493	-198.53548	296.98955	113.9138	2095.20025	-218.87723	-77.29865	-2.44101	-51.26121	-100.08141	-13.01872	663.95472	0
13	2098.45493	-198.53548	296.98955	113.9138	2095.20025	-218.87723	-77.29865	-23.59643	-51.26121	-100.08141	-13.01872	663.95472	0
14	2098.45493	-241.65999	296.98955	135.88289	2095.20025	-218.87723	-77.29865	-23.59643	-51.26121	-121.23683	-13.01872	663.95472	0
15	2098.45493	-241.65999	296.98955	135.88289	2095.20025	-218.87723	-77.29865	-23.59643	-51.26121	-121.23683	-13.01872	663.95472	0
16	2098.45493	-241.65999	296.98955	135.88289	2095.20025	-218.87723	-77.29865	-23.59643	-51.26121	-121.23683	-34.17414	663.95472	0
17	2098.45493	-198.53548	296.98955	92.75838	2095.20025	-218.87723	-77.29865	-23.59643	-51.26121	-121.23683	-34.17414	663.95472	0
18	2098.45493	-241.65999	296.98955	92.75838	2095.20025	-218.87723	-77.29865	-23.59643	-30.10579	-121.23683	-34.17414	663.95472	0
19	2098.45493	-262.81541	296.98955	135.88289	2095.20025	-240.03265	-77.29865	-23.59643	-30.10579	-121.23683	-34.17414	663.95472	0
20	2098.45493	-262.81541	296.98955	135.88289	2095.20025	-240.03265	-77.29865	-23.59643	-51.26121	-121.23683	-34.17414	663.95472	0
21	2098.45493	-262.81541	296.98955	135.88289	2095.20025	-240.03265	-77.29865	-44.75185	-51.26121	-121.23683	-34.17414	663.95472	0
22	2098.45493	-283.97083	296.98955	135.88289	2095.20025	-262.00174	-77.29865	-44.75185	-73.2303	-121.23683	-55.32956	663.95472	0
23	2098.45493	-283.97083	296.98955	135.88289	2095.20025	-218.87723	-77.29865	-44.75185	-73.2303	-121.23683	-55.32956	663.95472	0
24	2098.45493	-219.6909	296.98955	135.88289	2095.20025	-218.87723	-77.29865	-44.75185	-73.2303	-121.23683	-55.32956	663.95472	0
25	2098.45493	-198.53548	296.98955	135.88289	2095.20025	-218.87723	-77.29865	-44.75185	-73.2303	-121.23683	-55.32956	663.95472	0
26	2098.45493	-198.53548	296.98955	113.9138	2095.20025	-218.87723	-77.29865	-44.75185	-51.26121	-143.20592	-34.17414	663.95472	0
27	2098.45493	-198.53548	296.98955	113.9138	2095.20025	-218.87723	-77.29865	-44.75185	-51.26121	-143.20592	-34.17414	663.95472	0
28	2098.45493	-241.65999	296.98955	135.88289	2095.20025	-218.87723	-77.29865	-44.75185	-51.26121	-143.20592	-34.17414	663.95472	0
29	2098.45493	-241.65999	296.98955	135.88289	2095.20025	-218.87723	-77.29865	-44.75185	-73.2303	-143.20592	-55.32956	663.95472	0
30	2098.45493	-262.81541	296.98955	135.88289	2095.20025	-218.87723	-77.29865	-44.75185	-73.2303	-143.20592	-55.32956	663.95472	0
31	2098.45493	-262.81541	296.98955	135.88289	2095.20025	-218.87723	-77.29865	-44.75185	-73.2303	-121.23683	-55.32956	663.95472	0
32	2098.45493	-262.81541	296.98955	135.88289	2095.20025	-218.87723	-77.29865	-44.75185	-73.2303	-121.23683	-55.32956	663.95472	0
33	2098.45493	-219.6909	296.98955	113.9138	2095.20025	-218.87723	-55.32956	-44.75185	-51.26121	-121.23683	-34.17414	663.95472	0
34	2098.45493	-198.53548	296.98955	113.9138	2095.20025	-218.87723	-77.29865	-44.75185	-51.26121	-121.23683	-13.01872	663.95472	0
35	2098.45493	-198.53548	296.98955	92.75838	2095.20025	-218.87723	-77.29865	-44.75185	-51.26121	-121.23683	-13.01872	663.95472	0
36	2098.45493	-198.53548	296.98955	92.75838	2095.20025	-218.87723	-77.29865	-66.72094	-73.2303	-143.20592	-13.01872	663.95472	0
37	2098.45493	-241.65999	296.98955	92.75838	2095.20025	-240.03265	-77.29865	-66.72094	-94.38572	-143.20592	-34.17414	663.95472	0
38	2098.45493	-241.65999	296.98955	135.88289	2095.20025	-240.03265	-77.29865	-66.72094	-94.38572	-121.23683	-13.01872	663.95472	0
39	2098.45493	-176.56639	296.98955	92.75838	2095.20025	-197.72181	-34.17414	-23.59643	-51.26121	-121.23683	-13.01872	663.95472	0
40	2098.45493	-176.56639	296.98955	92.75838	2095.20025	-197.72181	-34.17414	-23.59643	-51.26121	-121.23683	-13.01872	663.95472	0
41	2098.45493	-176.56639	296.98955	92.75838	2095.20025	-197.72181	-77.29865	-23.59643	-51.26121	-143.20592	-13.01872	663.95472	0
42	2098.45493	-176.56639	296.98955	135.88289	2095.20025	-197.72181	-77.29865	-23.59643	-51.26121	-143.20592	-55.32956	663.95472	0
43	2098.45493	-241.65999	296.98955	135.88289	2095.20025	-240.03265	-77.29865	-23.59643	-51.26121	-143.20592	-55.32956	663.95472	0
44	2098.45493	-241.65999	296.98955	135.88289	2095.20025	-240.03265	-77.29865	-23.59643	-51.26121	-143.20592	-55.32956	663.95472	0
45	2098.45493	-198.53548	296.98955	135.88289	2095.20025	-240.03265	-77.29865	-23.59643	-51.26121	-143.20592	-55.32956	663.95472	0
46	2098.45493	-198.53548	296.98955	135.88289	2095.20025	-175.75272	-77.29865	-23.59643	-30.10579	-143.20592	-13.01872	663.95472	0
47	2098.45493	-176.56639	296.98955	135.88289	2095.20025	-175.75272	-77.29865	-23.59643	-30.10579	-121.23683	-13.01872	663.95472	0
48	2098.45493	-176.56639	296.98955	135.88289	2095.20025	-175.75272	-77.29865	-23.59643	-30.10579	-121.23683	-13.01872	663.95472	0
49	2098.45493	-176.56639	296.98955	113.9138	2095.20025	-175.75272	-55.32956	-23.59643	-30.10579	-121.23683	-13.01872	663.95472	0
50	2098.45493	-176.56639	296.98955	113.9138	2095.20025	-175.75272	-34.17414	-23.59643	-30.10579	-100.08141	-13.01872	663.95472	0
51	2098.45493	-176.56639	296.98955	113.9138	2095.20025	-175.75272	-34.17414	-23.59643	-30.10579	-100.08141	-13.01872	663.95472	0
52	2098.45493	-176.56639	296.98955	92.75838	2095.20025	-175.75272	-34.17414	-23.59643	-8.95037	-100.08141	-13.01872	663.95472	0
53	2098.45493	-155.41097	296.98955	92.75838	2095.20025	-154.5973	-55.32956	-23.59643	-8.95037	-100.08141	8.95037	663.95472	0
54	2098.45493	-155.41097	296.98955	92.75838	2095.20025	-154.5973	-55.32956	-23.59643	-8.95037	-100.08141	8.95037	663.95472	0
55	2098.45493	-219.6909	296.98955	135.88289	2095.20025	-197.72181	-77.29865	-23.59643	-8.95037	-121.23683	8.95037	663.95472	0
56	2098.45493	-219.6909	296.98955	135.88289	2095.20025	-218.87723	-34.17414	-23.59643	-8.95037	-121.23683	-13.01872	663.95472	0
57	2098.45493	-219.6909	296.98955	135.88289	2095.20025	-218.87723	-34.17414	-23.59643	-8.95037	-78.11232	-13.01872	663.95472	0
58	2098.45493	-176.56639	296.98955	135.88289	2095.20025	-218.87723	-34.17414	-23.59643	-8.95037	-78.11232	-13.01872	663.95472	0
59	2098.45493	-176.56639	296.98955	135.88289	2095.20025	-218.87723	-34.17414	-23.59643	-8.95037	-78.11232	-13.01872	663.95472	0
60	2098.45493	-176.56639	296.98955	92.75838	2095.20025	-197.72181	-34.17414	-23.59643	-8.95037	-78.11232	-13.01872	663.95472	0
61	2098.45493	-176.56639	296.98955	92.75838	2095.20025	-175.75272	-34.17414	-23.59643	-30.10579	-78.11232	8.95037	663.95472	0
62	2098.45493	-176.56639	296.98955	92.75838	2095.20025	-175.75272	-34.17414	-23.59643	-30.10579	-78.11232	8.95037	663.95472	0
63	2098.45493	-198.53548	296.98955	135.88289	2095.20025	-175.75272	-34.17414	-23.59643	-30.10579	-78.11232	8.95037	663.95472	0
64	2098.45493	-198.53548	296.98955	135.88289	2095.20025	-175.75272	-34.17414	-23.59643	-30.10579	-78.11232	8.95037	663.95472	0
65	2098.45493	-198.53548	296.98955	135.88289	2095.20025	-175.75272	-34.17414	-23.59643	-30.10579	-100.08141	8.95037	663.95472	0
66	2098.45493	-198.53548	296.98955	135.88289	2095.20025	-175.75272	-34.17414	-23.59643	-51.26121	-100.08141	8.95037	663.95472	0
67	2098.45493	-198.53548	296.98955	135.88289	2095.20025	-175.75272	-34.17414	-23.59643	-51.26121	-100.08141	8.95037	663.95472	0
68	2098.45493	-198.53548	296.98955	135.88289	2095.20025	-175.75272	-34.17414	-23.59643	-51.26121	-78.11232	8.95037	663.95472	0
69	2098.45493	-155.41097	296.98955	92.75838	2095.20025	-154.5973	-34.17414	-2.44101	-51.26121	-78.11232	8.95037	663.95472	0
70	2098.45493	-155.41097	296.98955	92.75838	2095.20025	-154.5973	-13.01872	-2.44101	-8.95037	-56.9569	8.95037	663.95472	0
71	2098.45493	-198.53548	296.98955	135.88289	2095.20025	-154.5973	-13.01872	-2.44101	-8.95037	-56.9569	8.95037	663.95472	0
72	2098.45493	-219.6909	296.98955	135.88289	2095.20025	-197.72181	-34.17414	-2.44101	-8.95037	-100.08141	8.95037	663.95472	0
73	2098.45493	-241.65999	296.98955	157.03831	2095.20025	-197.72181	-55.32956	-23.59643	-51.26121	-100.08141	8.95037	663.95472	0
74	2098.45493	-241.65999	296.98955	157.03831	2095.20025	-197.72181	-55.32956	-44.75185	-51.26121	-121.23683	-13.01872	663.95472	0
75	2098.45493	-176.56639	296.98955	157.03831	2095.20025	-175.75272	-55.32956	-44.75185	-51.26121	-121.23683	-13.01872	663.95472	0
76	2098.45493	-176.56639	296.98955	92.75838	2095.20025	-175.75272	-55.32956	-44.75185	-51.26121	-78.11232	-13.01872	663.95472	0
77	2098.45493	-176.56639	296.98955	92.75838	2095.20025	-175.75272	-34.17414	-23.59643	-30.10579	-78.11232	8.95037	663.95472	0
78	2098.45493	-155.41097	296.98955	92.75838	2095.20025	-175.75272	-34.17414	-23.59643	-8.95037	-78.11232	30.10579	663.95472	0
79	2098.45493	-155.41097	296.98955	92.75838	2095.20025	-154.5973	-13.01872	-2.44101	-8.95037	-78.11232	30.10579	663.95472	0
80	2098.45493	-155.41097	296.98955	92.75838	2095.20025	-154.5973	-13.01872	-2.44101	-8.95037	-56.9569	30.10579	663.95472	0
81	2098.45493	-155.41097	296.98955	92.75838	2095.20025	-154.5973	-13.01872	-2.44101	-8.95037	-56.9569	30.10579	663.95472	0
82	2098.45493	-155.41097	296.98955	135.88289	2095.20025	-154.5973	-13.01872	-2.44101	-8.95037	-56.9569	30.10579	663.95472	0
83	2098.45493	-134.25555	296.98955	135.88289	2095.20025	-111.47279	-13.01872	-2.44101	-8.95037	-56.9569	30.10579	663.95472	0
84	2098.45493	-134.25555	296.98955	92.75838	2095.20025	-111.47279	8.95037	19.52808	-8.95037	-56.9569	51.26121	663.95472	0
85	2098.45493	-112.28646	296.98955	71.60296	2095.20025	-90.31737	8.95037	19.52808	-8.95037	-56.9569	51.26121	663.95472	0
86	2098.45493	-112.28646	296.98955	71.60296	2095.20025	-90.31737	8.95037	19.52808	-8.95037	-56.9569	51.26121	663.95472	0
87	2098.45493	-91.13104	296.98955	71.60296	2095.20025	-90.31737	8.95037	19.52808	-8.95037	-56.9569	51.26121	663.95472	0
88	2098.45493	-91.13104	296.98955	49.63387	2095.20025	-68.34828	30.10579	19.52808	13.01872	-56.9569	51.26121	663.95472	0
89	2098.45493	-69.97562	296.98955	49.63387	2095.20025	-68.34828	51.26121	19.52808	13.01872	-56.9569	51.26121	663.95472	0
90	2098.45493	-48.00653	296.98955	28.47845	2095.20025	-68.34828	51.26121	19.52808	13.01872	-56.9569	51.26121	663.95472	0
91	2098.45493	-48.00653	296.98955	28.47845	2095.20025	-47.19286	51.26121	19.52808	13.01872	-56.9569	51.26121	663.95472	0
92	2098.45493	-48.00653	296.98955	28.47845	2095.20025	-47.19286	51.26121	-2.44101	13.01872	-35.80148	51.26121	663.95472	0
93	2098.45493	-48.00653	296.98955	28.47845	2095.20025	-47.19286	51.26121	-2.44101	13.01872	-35.80148	73.2303	663.95472	0
94	2098.45493	-26.85111	296.98955	28.47845	2095.20025	-26.03744	30.10579	-2.44101	13.01872	-13.83239	73.2303	663.95472	0
95	2098.45493	-26.85111	296.98955	49.63387	2095.20025	-26.03744	8.95037	19.52808	13.01872	-13.83239	73.2303	663.95472	0
96	2098.45493	-26.85111	296.98955	49.63387	2095.20025	17.08707	8.95037	19.52808	13.01872	-13.83239	73.2303	663.95472	0
97	2098.45493	-5.69569	296.98955	49.63387	2095.20025	17.08707	8.95037	19.52808	13.01872	-13.83239	73.2303	663.95472	0
98	2098.45493	16.2734	296.98955	7.32303	2095.20025	38.24249	8.95037	19.52808	13.01872	7.32303	73.2303	663.95472	0
99	2098.45493	58.58424	296.98955	-14.64606	2095.20025	60.21158	-13.01872	-23.59643	13.01872	7.32303	73.2303	663.95472	0
100	2098.45493	58.58424	296.98955	-14.64606	2095.20025	60.21158	-34.17414	-23.59643	13.01872	-13.83239	73.2303	663.95472	1000	P+0
101	2098.45493	58.58424	296.98955	-14.64606	2095.20025	60.21158	-55.32956	-23.59643	13.01872	-13.83239	73.2303	663.95472	0
102	2098.45493	80.55333	296.98955	-14.64606	2095.20025	81.367	-55.32956	-44.75185	13.01872	-13.83239	73.2303	663.95472	0
103	2098.45493	101.70875	296.98955	-14.64606	2095.20025	102.52242	-77.29865	-44.75185	13.01872	7.32303	94.38572	663.95472	0
104	2098.45493	101.70875	296.98955	-14.64606	2095.20025	124.49151	-77.29865	-44.75185	13.01872	7.32303	94.38572	663.95472	0
105	2098.45493	122.86417	296.98955	-35.80148	2095.20025	145.64693	-77.29865	-44.75185	13.01872	7.32303	94.38572	663.95472	0
106	2098.45493	122.86417	296.98955	-35.80148	2095.20025	145.64693	-77.29865	-44.75185	13.01872	7.32303	94.38572	663.95472	0
107	2098.45493	101.70875	296.98955	-35.80148	2095.20025	145.64693	-77.29865	-44.75185	13.01872	7.32303	94.38572	663.95472	0
108	2098.45493	101.70875	296.98955	-57.77057	2095.20025	102.52242	-77.29865	-44.75185	-8.95037	7.32303	94.38572	663.95472	0
109	2098.45493	80.55333	296.98955	-57.77057	2095.20025	102.52242	-77.29865	-44.75185	-8.95037	-13.83239	94.38572	663.95472	0
110	2098.45493	58.58424	296.98955	28.47845	2095.20025	60.21158	-98.45407	-66.72094	-51.26121	-13.83239	94.38572	663.95472	0
111	2098.45493	37.42882	296.98955	28.47845	2095.20025	38.24249	-119.60949	-66.72094	-51.26121	-35.80148	73.2303	663.95472	0
112	2098.45493	16.2734	296.98955	28.47845	2095.20025	17.08707	-119.60949	-66.72094	-51.26121	-35.80148	73.2303	663.95472	0
113	2098.45493	-5.69569	296.98955	28.47845	2095.20025	17.08707	-119.60949	-66.72094	-73.2303	-56.9569	73.2303	663.95472	0
114	2098.45493	-5.69569	296.98955	28.47845	2095.20025	17.08707	-119.60949	-66.72094	-73.2303	-56.9569	73.2303	663.95472	0
115	2098.45493	-5.69569	296.98955	-14.64606	2095.20025	-4.06835	-77.29865	-44.75185	-73.2303	-56.9569	73.2303	663.95472	0
116	2098.45493	-26.85111	296.98955	-14.64606	2095.20025	-4.06835	-55.32956	-44.75185	-73.2303	-56.9569	51.26121	663.95472	0
117	2098.45493	-48.00653	296.98955	49.63387	2095.20025	-26.03744	-55.32956	-44.75185	-73.2303	-78.11232	51.26121	663.95472	0
118	2098.45493	-69.97562	296.98955	71.60296	2095.20025	-47.19286	-55.32956	-44.75185	-73.2303	-78.11232	51.26121	663.95472	0
119	2098.45493	-91.13104	296.98955	71.60296	2095.20025	-68.34828	-55.32956	-44.75185	-73.2303	-78.11232	51.26121	663.95472	0
120	2098.45493	-91.13104	296.98955	71.60296	2095.20025	-90.31737	-55.32956	-44.75185	-73.2303	-78.11232	30.10579	663.95472	0
121	2098.45493	-155.41097	296.98955	113.9138	2095.20025	-133.44188	-55.32956	-44.75185	-73.2303	-100.08141	30.10579	663.95472	0
122	2098.45493	-176.56639	296.98955	113.9138	2095.20025	-133.44188	-55.32956	-44.75185	-94.38572	-100.08141	30.10579	663.95472	0
123	2098.45493	-176.56639	296.98955	113.9138	2095.20025	-133.44188	-55.32956	-44.75185	-94.38572	-100.08141	8.95037	663.95472	0
124	2098.45493	-176.56639	296.98955	113.9138	2095.20025	-154.5973	-55.32956	-44.75185	-115.54114	-100.08141	8.95037	663.95472	0
125	2098.45493	-176.56639	296.98955	135.88289	2095.20025	-175.75272	-55.32956	-44.75185	-115.54114	-100.08141	8.95037	663.95472	0
126	2098.45493	-198.53548	296.98955	135.88289	2095.20025	-175.75272	-55.32956	-44.75185	-115.54114	-121.23683	-13.01872	663.95472	0
127	2098.45493	-219.6909	296.98955	157.03831	2095.20025	-197.72181	-34.17414	-44.75185	-115.54114	-121.23683	-13.01872	663.95472	0
128	2098.45493	-219.6909	296.98955	157.03831	2095.20025	-197.72181	-34.17414	-44.75185	-115.54114	-78.11232	-13.01872	663.95472	0
129	2098.45493	-219.6909	296.98955	157.03831	2095.20025	-197.72181	-13.01872	-23.59643	-94.38572	-78.11232	8.95037	663.95472	0
130	2098.45493	-219.6909	296.98955	157.03831	2095.20025	-175.75272	-55.32956	-23.59643	-115.54114	-78.11232	8.95037	663.95472	0
131	2098.45493	-219.6909	296.98955	157.03831	2095.20025	-197.72181	-55.32956	-23.59643	-115.54114	-78.11232	8.95037	663.95472	0
132	2098.45493	-219.6909	296.98955	135.88289	2095.20025	-218.87723	-55.32956	-66.72094	-115.54114	-78.11232	8.95037	663.95472	0
133	2098.45493	-241.65999	296.98955	157.03831	2095.20025	-218.87723	-55.32956	-66.72094	-137.51023	-78.11232	-13.01872	663.95472	0
134	2098.45493	-262.81541	296.98955	157.03831	2095.20025	-218.87723	-55.32956	-87.87636	-137.51023	-78.11232	-13.01872	663.95472	0
135	2098.45493	-262.81541	296.98955	157.03831	2095.20025	-218.87723	-55.32956	-87.87636	-137.51023	-78.11232	-13.01872	663.95472	0
136	2098.45493	-262.81541	296.98955	157.03831	2095.20025	-240.03265	-55.32956	-87.87636	-137.51023	-100.08141	-34.17414	663.95472	0
137	2098.45493	-262.81541	296.98955	157.03831	2095.20025	-240.03265	-55.32956	-87.87636	-137.51023	-100.08141	-34.17414	663.95472	0
138	2098.45493	-241.65999	296.98955	157.03831	2095.20025	-240.03265	-55.32956	-66.72094	-137.51023	-100.08141	-34.17414	663.95472	0
139	2098.45493	-241.65999	296.98955	157.03831	2095.20025	-240.03265	-55.32956	-66.72094	-94.38572	-100.08141	-34.17414	663.95472	0
140	2098.45493	-219.6909	296.98955	157.03831	2095.20025	-218.87723	-34.17414	-44.75185	-94.38572	-100.08141	-13.01872	663.95472	0
141	2098.45493	-219.6909	296.98955	157.03831	2095.20025	-197.72181	-34.17414	-44.75185	-94.38572	-100.08141	8.95037	663.95472	0
142	2098.45493	-262.81541	296.98955	157.03831	2095.20025	-240.03265	-34.17414	-44.75185	-94.38572	-100.08141	8.95037	663.95472	0
143	2098.45493	-283.97083	296.98955	157.03831	2095.20025	-240.03265	-34.17414	-44.75185	-94.38572	-121.23683	8.95037	663.95472	0
144	2098.45493	-283.97083	296.98955	157.03831	2095.20025	-240.03265	-55.32956	-66.72094	-94.38572	-121.23683	-13.01872	663.95472	0
145	2098.45493	-283.97083	296.98955	113.9138	2095.20025	-240.03265	-55.32956	-66.72094	-137.51023	-121.23683	-34.17414	663.95472	0
146	2098.45493	-241.65999	296.98955	113.9138	2095.20025	-240.03265	-55.32956	-87.87636	-137.51023	-143.20592	-34.17414	663.95472	0
147	2098.45493	-241.65999	296.98955	113.9138	2095.20025	-240.03265	-55.32956	-87.87636	-137.51023	-143.20592	-55.32956	663.95472	0
148	2098.45493	-262.81541	296.98955	113.9138	2095.20025	-240.03265	-55.32956	-87.87636	-137.51023	-143.20592	-55.32956	663.95472	0
149	2098.45493	-283.97083	296.98955	178.19373	2095.20025	-262.00174	-34.17414	-87.87636	-137.51023	-143.20592	-55.32956	663.95472	0
150	2098.45493	-283.97083	296.98955	178.19373	2095.20025	-262.00174	-34.17414	-87.87636	-137.51023	-143.20592	-55.32956	663.95472	0
151	2098.45493	-283.97083	296.98955	178.19373	2095.20025	-262.00174	-13.01872	-66.72094	-137.51023	-143.20592	-34.17414	663.95472	0
152	2098.45493	-283.97083	296.98955	178.19373	2095.20025	-262.00174	-13.01872	-66.72094	-137.51023	-121.23683	-34.17414	663.95472	0
153	2098.45493	-262.81541	296.98955	157.03831	2095.20025	-240.03265	-13.01872	-66.72094	-94.38572	-121.23683	-13.01872	663.95472	0
154	2098.45493	-262.81541	296.98955	135.88289	2095.20025	-240.03265	-13.01872	-44.75185	-94.38572	-121.23683	-13.01872	663.95472	0
155	2098.45493	-262.81541	296.98955	135.88289	2095.20025	-240.03265	-13.01872	-44.75185	-94.38572	-121.23683	-13.01872	663.95472	0
156	2098.45493	-262.81541	296.98955	135.88289	2095.20025	-240.03265	-13.01872	-23.59643	-94.38572	-121.23683	-34.17414	663.95472	0
157	2098.45493	-262.81541	296.98955	135.88289	2095.20025	-283.15716	-13.01872	-2.44101	-94.38572	-121.23683	-34.17414	663.95472	0
158	2098.45493	-305.93992	296.98955	157.03831	2095.20025	-304.31258	30.10579	40.6835	-51.26121	-143.20592	-55.32956	663.95472	0
159	2098.45493	-305.93992	296.98955	157.03831	2095.20025	-326.28167	73.2303	104.96343	-8.95037	-143.20592	-55.32956	663.95472	0
160	2098.45493	-305.93992	296.98955	178.19373	2095.20025	-326.28167	179.82107	297.80322	141.57858	-56.9569	-13.01872	663.95472	0
161	2098.45493	-262.81541	296.98955	178.19373	2095.20025	-262.00174	201.79016	405.20766	248.16935	7.32303	30.10579	663.95472	0
162	2098.45493	-241.65999	296.98955	113.9138	2095.20025	-218.87723	222.94558	448.33217	334.41837	71.60296	73.2303	663.95472	0
163	2098.45493	-198.53548	296.98955	92.75838	2095.20025	-218.87723	222.94558	448.33217	377.54288	135.88289	94.38572	663.95472	0
164	2098.45493	-134.25555	296.98955	49.63387	2095.20025	-175.75272	222.94558	448.33217	419.85372	200.16282	158.66565	663.95472	0
165	2098.45493	16.2734	296.98955	-78.92599	2095.20025	-47.19286	51.26121	448.33217	506.10274	414.9717	330.35002	663.95472	0
166	2098.45493	101.70875	296.98955	-122.0505	2095.20025	17.08707	-13.01872	276.6478	548.41358	521.56247	415.78537	663.95472	0
167	2098.45493	209.11319	296.98955	-186.33043	2095.20025	102.52242	-98.45407	169.24336	570.38267	650.12233	544.34523	663.95472	0
168	2098.45493	337.67305	296.98955	-250.61036	2095.20025	253.05137	-291.29386	-2.44101	591.53809	800.65128	673.71876	663.95472	0
169	2098.45493	487.38833	296.98955	-357.20113	2095.20025	381.61123	-441.82281	-174.12538	612.69351	929.21114	780.30953	663.95472	0
170	2098.45493	637.91728	296.98955	-443.45015	2095.20025	489.01567	-613.50718	-366.96517	612.69351	1036.61558	887.71397	663.95472	0
171	2098.45493	873.88158	296.98955	-572.01001	2095.20025	724.1663	-891.78232	-773.80017	377.54288	1165.17544	1059.39834	663.95472	0
172	2098.45493	1023.59686	296.98955	-593.16543	2095.20025	895.85067	-1063.46669	-1117.16891	119.60949	1186.33086	1123.67827	663.95472	0
173	2098.45493	1131.0013	296.98955	-657.44536	2095.20025	1046.37962	-1213.18197	-1374.28863	-137.51023	1208.29995	1123.67827	663.95472	0
174	2098.45493	1238.40574	296.98955	-700.56987	2095.20025	1153.78406	-1341.74183	-1610.25293	-373.47453	1208.29995	1123.67827	663.95472	0
175	2098.45493	1280.71658	296.98955	-721.72529	2095.20025	1196.0949	-1492.27078	-1781.9373	-587.46974	972.33565	1123.67827	663.95472	0
176	2098.45493	1302.68567	296.98955	-743.69438	2095.20025	1196.0949	-1599.67522	-1825.06181	-844.58946	672.09142	908.86939	663.95472	0
177	2098.45493	1002.44144	296.98955	-572.01001	2095.20025	917.81976	-1620.83064	-1846.21723	-951.9939	479.25163	759.15411	663.95472	0
178	2098.45493	809.60165	296.98955	-464.60557	2095.20025	767.29081	-1620.83064	-1846.21723	-1059.39834	243.28733	608.62516	663.95472	0
179	2098.45493	594.79277	296.98955	-336.04571	2095.20025	574.45102	-1277.4619	-1567.12842	-1144.83369	-78.11232	373.47453	663.95472	0
180	2098.45493	445.07749	296.98955	-228.64127	2095.20025	445.89116	-1127.74662	-1438.56856	-1187.9582	-271.76578	179.82107	663.95472	0
181	2098.45493	294.54854	296.98955	-143.20592	2095.20025	317.3313	-977.21767	-1310.0087	-1209.11362	-442.63648	30.10579	663.95472	0
182	2098.45493	80.55333	296.98955	-14.64606	2095.20025	102.52242	-655.81802	-924.32912	-1209.11362	-507.73008	-141.57858	663.95472	0
183	2098.45493	16.2734	296.98955	28.47845	2095.20025	60.21158	-548.41358	-795.76926	-887.71397	-528.8855	-183.88942	663.95472	0
184	2098.45493	-26.85111	296.98955	71.60296	2095.20025	17.08707	-441.82281	-667.2094	-802.27862	-528.8855	-205.85851	663.95472	0
185	2098.45493	-48.00653	296.98955	113.9138	2095.20025	-4.06835	-355.57379	-538.64954	-694.87418	-528.8855	-205.85851	663.95472	0
186	2098.45493	-69.97562	296.98955	135.88289	2095.20025	-4.06835	-270.13844	-431.2451	-566.31432	-421.48106	-205.85851	663.95472	0
187	2098.45493	-91.13104	296.98955	135.88289	2095.20025	-4.06835	-141.57858	-259.56073	-394.62995	-336.04571	-205.85851	663.95472	0
188	2098.45493	-91.13104	296.98955	135.88289	2095.20025	38.24249	-98.45407	-216.43622	-330.35002	-292.9212	-141.57858	663.95472	0
189	2098.45493	-5.69569	296.98955	135.88289	2095.20025	60.21158	-55.32956	-195.2808	-266.07009	-271.76578	-98.45407	663.95472	0
190	2098.45493	-5.69569	296.98955	92.75838	2095.20025	60.21158	-55.32956	-174.12538	-244.91467	-249.79669	-77.29865	663.95472	0
191	2098.45493	-5.69569	296.98955	92.75838	2095.20025	60.21158	-34.17414	-152.15629	-222.94558	-228.64127	-55.32956	663.95472	0
192	2098.45493	-5.69569	296.98955	92.75838	2095.20025	60.21158	-34.17414	-152.15629	-222.94558	-207.48585	-55.32956	663.95472	0
193	2098.45493	16.2734	296.98955	71.60296	2095.20025	81.367	30.10579	-109.84545	-222.94558	-185.51676	-34.17414	663.95472	0
194	2098.45493	16.2734	296.98955	71.60296	2095.20025	81.367	51.26121	-87.87636	-222.94558	-185.51676	-34.17414	663.95472	0
195	2098.45493	16.2734	296.98955	71.60296	2095.20025	81.367	73.2303	-87.87636	-222.94558	-185.51676	-77.29865	663.95472	0
196	2098.45493	-26.85111	296.98955	71.60296	2095.20025	81.367	73.2303	-66.72094	-222.94558	-185.51676	-77.29865	663.95472	0
197	2098.45493	-26.85111	296.98955	71.60296	2095.20025	81.367	73.2303	-66.72094	-222.94558	-185.51676	-77.29865	663.95472	0
198	2098.45493	-26.85111	296.98955	49.63387	2095.20025	81.367	94.38572	-66.72094	-222.94558	-228.64127	-77.29865	663.95472	0
199	2098.45493	-26.85111	296.98955	49.63387	2095.20025	81.367	94.38572	-66.72094	-222.94558	-228.64127	-77.29865	663.95472	0
200	2098.45493	16.2734	296.98955	49.63387	2095.20025	81.367	51.26121	-66.72094	-201.79016	-228.64127	-77.29865	663.95472	0
201	2098.45493	16.2734	296.98955	92.75838	2095.20025	81.367	30.10579	-109.84545	-201.79016	-228.64127	-77.29865	663.95472	0
202	2098.45493	16.2734	296.98955	92.75838	2095.20025	81.367	30.10579	-109.84545	-201.79016	-228.64127	-77.29865	663.95472	0
203	2098.45493	16.2734	296.98955	49.63387	2095.20025	81.367	30.10579	-109.84545	-201.79016	-207.48585	-77.29865	663.95472	0
204	2098.45493	37.42882	296.98955	49.63387	2095.20025	81.367	30.10579	-109.84545	-201.79016	-207.48585	-77.29865	663.95472	0
205	2098.45493	-26.85111	296.98955	92.75838	2095.20025	60.21158	30.10579	-66.72094	-201.79016	-207.48585	-77.29865	663.95472	0
206	2098.45493	-26.85111	296.98955	92.75838	2095.20025	60.21158	94.38572	-44.75185	-201.79016	-207.48585	-77.29865	663.95472	0
207	2098.45493	-26.85111	296.98955	92.75838	2095.20025	60.21158	94.38572	-44.75185	-180.63474	-207.48585	-77.29865	663.95472	0
208	2098.45493	16.2734	296.98955	92.75838	2095.20025	60.21158	94.38572	-44.75185	-180.63474	-207.48585	-55.32956	663.95472	0
209	2098.45493	58.58424	296.98955	49.63387	2095.20025	124.49151	94.38572	-23.59643	-137.51023	-207.48585	-55.32956	663.95472	0
210	2098.45493	58.58424	296.98955	49.63387	2095.20025	124.49151	94.38572	-23.59643	-137.51023	-207.48585	-55.32956	663.95472	0
211	2098.45493	58.58424	296.98955	28.47845	2095.20025	124.49151	94.38572	-23.59643	-137.51023	-207.48585	-55.32956	663.95472	0
212	2098.45493	80.55333	296.98955	28.47845	2095.20025	124.49151	94.38572	-23.59643	-137.51023	-185.51676	-55.32956	663.95472	0
213	2098.45493	80.55333	296.98955	28.47845	2095.20025	124.49151	94.38572	-23.59643	-137.51023	-185.51676	-55.32956	663.95472	0
214	2098.45493	80.55333	296.98955	28.47845	2095.20025	124.49151	94.38572	-23.59643	-115.54114	-185.51676	-55.32956	663.95472	0
215	2098.45493	16.2734	296.98955	71.60296	2095.20025	124.49151	94.38572	-23.59643	-115.54114	-185.51676	-55.32956	663.95472	0
216	2098.45493	16.2734	296.98955	92.75838	2095.20025	124.49151	94.38572	-23.59643	-115.54114	-185.51676	-55.32956	663.95472	0
217	2098.45493	16.2734	296.98955	92.75838	2095.20025	124.49151	94.38572	-23.59643	-115.54114	-185.51676	-55.32956	663.95472	0
218	2098.45493	16.2734	296.98955	92.75838	2095.20025	124.49151	94.38572	-23.59643	-115.54114	-185.51676	-55.32956	663.95472	0
219	2098.45493	16.2734	296.98955	49.63387	2095.20025	124.49151	94.38572	-23.59643	-115.54114	-185.51676	-55.32956	663.95472	0
220	2098.45493	101.70875	296.98955	7.32303	2095.20025	145.64693	115.54114	-23.59643	-94.38572	-185.51676	-55.32956	663.95472	0
221	2098.45493	101.70875	296.98955	7.32303	2095.20025	145.64693	137.51023	-2.44101	-94.38572	-185.51676	-55.32956	663.95472	0
222	2098.45493	101.70875	296.98955	7.32303	2095.20025	145.64693	137.51023	-2.44101	-94.38572	-164.36134	-55.32956	663.95472	1500	QRS+0
223	2098.45493	101.70875	296.98955	7.32303	2095.20025	145.64693	137.51023	-2.44101	-94.38572	-164.36134	-55.32956	663.95472	0
224	2098.45493	101.70875	296.98955	7.32303	2095.20025	145.64693	137.51023	-2.44101	-94.38572	-164.36134	-55.32956	663.95472	0
225	2098.45493	58.58424	296.98955	71.60296	2095.20025	145.64693	137.51023	-2.44101	-94.38572	-164.36134	-55.32956	663.95472	0
226	2098.45493	37.42882	296.98955	92.75838	2095.20025	145.64693	137.51023	19.52808	-94.38572	-164.36134	-55.32956	663.95472	0
227	2098.45493	37.42882	296.98955	92.75838	2095.20025	145.64693	158.66565	40.6835	-73.2303	-143.20592	-34.17414	663.95472	0
228	2098.45493	80.55333	296.98955	49.63387	2095.20025	166.80235	179.82107	61.83892	-51.26121	-143.20592	-34.17414	663.95472	0
229	2098.45493	101.70875	296.98955	49.63387	2095.20025	166.80235	179.82107	61.83892	-30.10579	-121.23683	-13.01872	663.95472	0
230	2098.45493	101.70875	296.98955	49.63387	2095.20025	166.80235	179.82107	61.83892	-30.10579	-121.23683	-13.01872	663.95472	0
231	2098.45493	101.70875	296.98955	49.63387	2095.20025	209.92686	201.79016	83.80801	13.01872	-100.08141	-13.01872	663.95472	0
232	2098.45493	101.70875	296.98955	49.63387	2095.20025	209.92686	201.79016	83.80801	13.01872	-100.08141	8.95037	663.95472	0
233	2098.45493	101.70875	296.98955	49.63387	2095.20025	209.92686	201.79016	83.80801	13.01872	-100.08141	8.95037	663.95472	0
234	2098.45493	101.70875	296.98955	71.60296	2095.20025	209.92686	201.79016	83.80801	13.01872	-100.08141	8.95037	663.95472	0
235	2098.45493	101.70875	296.98955	92.75838	2095.20025	209.92686	201.79016	104.96343	13.01872	-78.11232	8.95037	663.95472	0
236	2098.45493	101.70875	296.98955	92.75838	2095.20025	209.92686	222.94558	126.11885	34.17414	-78.11232	-13.01872	663.95472	0
237	2098.45493	101.70875	296.98955	92.75838	2095.20025	231.08228	244.91467	148.08794	77.29865	-78.11232	8.95037	663.95472	0
238	2098.45493	101.70875	296.98955	92.75838	2095.20025	231.08228	244.91467	148.08794	77.29865	-56.9569	8.95037	663.95472	0
239	2098.45493	122.86417	296.98955	49.63387	2095.20025	231.08228	244.91467	169.24336	77.29865	-56.9569	8.95037	663.95472	0
240	2098.45493	122.86417	296.98955	28.47845	2095.20025	231.08228	244.91467	169.24336	98.45407	-56.9569	8.95037	663.95472	0
241	2098.45493	144.83326	296.98955	28.47845	2095.20025	231.08228	266.07009	190.39878	119.60949	-100.08141	8.95037	663.95472	0
242	2098.45493	144.83326	296.98955	28.47845	2095.20025	209.92686	287.22551	212.36787	141.57858	-56.9569	30.10579	663.95472	0
243	2098.45493	144.83326	296.98955	28.47845	2095.20025	209.92686	309.1946	233.52329	162.734	-56.9569	30.10579	663.95472	0
244	2098.45493	144.83326	296.98955	28.47845	2095.20025	253.05137	309.1946	254.67871	162.734	-56.9569	30.10579	663.95472	0
245	2098.45493	165.98868	296.98955	-14.64606	2095.20025	253.05137	309.1946	254.67871	183.88942	-35.80148	30.10579	663.95472	0
246	2098.45493	187.95777	296.98955	-14.64606	2095.20025	253.05137	309.1946	276.6478	183.88942	-13.83239	30.10579	663.95472	0
247	2098.45493	209.11319	296.98955	-35.80148	2095.20025	253.05137	309.1946	297.80322	205.85851	7.32303	30.10579	663.95472	0
248	2098.45493	209.11319	296.98955	-35.80148	2095.20025	253.05137	309.1946	318.95864	227.01393	7.32303	51.26121	663.95472	0
249	2098.45493	209.11319	296.98955	7.32303	2095.20025	253.05137	309.1946	318.95864	248.16935	7.32303	51.26121	663.95472	0
250	2098.45493	209.11319	296.98955	7.32303	2095.20025	253.05137	309.1946	318.95864	248.16935	7.32303	51.26121	663.95472	0
251	2098.45493	209.11319	296.98955	28.47845	2095.20025	274.20679	309.1946	340.92773	248.16935	7.32303	51.26121	663.95472	0
252	2098.45493	209.11319	296.98955	28.47845	2095.20025	295.36221	309.1946	362.08315	270.13844	28.47845	51.26121	663.95472	0
253	2098.45493	230.26861	296.98955	-35.80148	2095.20025	317.3313	351.50544	405.20766	313.26295	50.44754	73.2303	663.95472	0
254	2098.45493	252.2377	296.98955	-35.80148	2095.20025	338.48672	351.50544	426.36308	313.26295	50.44754	73.2303	663.95472	0
255	2098.45493	273.39312	296.98955	-57.77057	2095.20025	338.48672	351.50544	448.33217	334.41837	50.44754	73.2303	663.95472	0
256	2098.45493	294.54854	296.98955	-57.77057	2095.20025	360.45581	351.50544	448.33217	355.57379	71.60296	73.2303	663.95472	0
257	2098.45493	316.51763	296.98955	-78.92599	2095.20025	381.61123	351.50544	469.48759	377.54288	92.75838	73.2303	663.95472	0
258	2098.45493	337.67305	296.98955	-100.08141	2095.20025	381.61123	373.47453	469.48759	377.54288	92.75838	73.2303	663.95472	0
259	2098.45493	337.67305	296.98955	-100.08141	2095.20025	402.76665	373.47453	490.64301	398.6983	114.72747	73.2303	663.95472	0
260	2098.45493	337.67305	296.98955	-100.08141	2095.20025	402.76665	373.47453	512.6121	419.85372	135.88289	73.2303	663.95472	0
261	2098.45493	337.67305	296.98955	-100.08141	2095.20025	424.73574	394.62995	533.76752	441.82281	135.88289	94.38572	663.95472	0
262	2098.45493	358.82847	296.98955	-122.0505	2095.20025	424.73574	394.62995	554.92294	462.97823	157.03831	115.54114	663.95472	0
263	2098.45493	380.79756	296.98955	-122.0505	2095.20025	445.89116	394.62995	554.92294	484.13365	179.0074	115.54114	663.95472	0
264	2098.45493	401.95298	296.98955	-122.0505	2095.20025	467.04658	394.62995	576.89203	506.10274	179.0074	137.51023	663.95472	0
265	2098.45493	423.1084	296.98955	-122.0505	2095.20025	467.04658	394.62995	598.04745	506.10274	200.16282	158.66565	663.95472	0
266	2098.45493	423.1084	296.98955	-143.20592	2095.20025	489.01567	394.62995	598.04745	527.25816	221.31824	179.82107	663.95472	0
267	2098.45493	445.07749	296.98955	-143.20592	2095.20025	489.01567	394.62995	619.20287	548.41358	243.28733	179.82107	663.95472	0
268	2098.45493	445.07749	296.98955	-143.20592	2095.20025	489.01567	394.62995	619.20287	570.38267	264.44275	179.82107	663.95472	0
269	2098.45493	445.07749	296.98955	-143.20592	2095.20025	489.01567	394.62995	619.20287	591.53809	264.44275	201.79016	663.95472	0
270	2098.45493	445.07749	296.98955	-143.20592	2095.20025	489.01567	394.62995	619.20287	591.53809	264.44275	222.94558	663.95472	0
271	2098.45493	445.07749	296.98955	-143.20592	2095.20025	489.01567	394.62995	598.04745	591.53809	285.59817	222.94558	663.95472	0
272	2098.45493	445.07749	296.98955	-143.20592	2095.20025	489.01567	394.62995	598.04745	612.69351	285.59817	244.91467	663.95472	0
273	2098.45493	445.07749	296.98955	-164.36134	2095.20025	489.01567	373.47453	598.04745	612.69351	285.59817	244.91467	663.95472	0
274	2098.45493	466.23291	296.98955	-186.33043	2095.20025	510.17109	373.47453	598.04745	612.69351	307.56726	266.07009	663.95472	0
275	2098.45493	466.23291	296.98955	-207.48585	2095.20025	510.17109	351.50544	576.89203	612.69351	328.72268	287.22551	663.95472	0
276	2098.45493	466.23291	296.98955	-207.48585	2095.20025	510.17109	330.35002	576.89203	612.69351	328.72268	287.22551	663.95472	0
277	2098.45493	466.23291	296.98955	-207.48585	2095.20025	510.17109	309.1946	554.92294	612.69351	328.72268	287.22551	663.95472	0
278	2098.45493	445.07749	296.98955	-164.36134	2095.20025	489.01567	309.1946	554.92294	591.53809	328.72268	287.22551	663.95472	0
279	2098.45493	445.07749	296.98955	-164.36134	2095.20025	489.01567	309.1946	554.92294	591.53809	328.72268	309.1946	663.95472	0
280	2098.45493	445.07749	296.98955	-164.36134	2095.20025	489.01567	287.22551	533.76752	591.53809	328.72268	309.1946	663.95472	0
281	2098.45493	423.1084	296.98955	-164.36134	2095.20025	467.04658	287.22551	533.76752	570.38267	350.69177	309.1946	663.95472	0
282	2098.45493	423.1084	296.98955	-143.20592	2095.20025	467.04658	266.07009	533.76752	570.38267	350.69177	309.1946	663.95472	0
283	2098.45493	401.95298	296.98955	-143.20592	2095.20025	445.89116	266.07009	512.6121	570.38267	350.69177	309.1946	663.95472	0
284	2098.45493	401.95298	296.98955	-143.20592	2095.20025	445.89116	244.91467	512.6121	570.38267	350.69177	309.1946	663.95472	0
285	2098.45493	380.79756	296.98955	-143.20592	2095.20025	424.73574	244.91467	490.64301	548.41358	350.69177	309.1946	663.95472	0
286	2098.45493	380.79756	296.98955	-143.20592	2095.20025	402.76665	222.94558	448.33217	527.25816	350.69177	309.1946	663.95472	0
287	2098.45493	316.51763	296.98955	-100.08141	2095.20025	360.45581	222.94558	448.33217	527.25816	350.69177	309.1946	663.95472	0
288	2098.45493	294.54854	296.98955	-100.08141	2095.20025	338.48672	201.79016	426.36308	506.10274	328.72268	309.1946	663.95472	0
289	2098.45493	273.39312	296.98955	-78.92599	2095.20025	317.3313	201.79016	405.20766	506.10274	328.72268	309.1946	663.95472	0
290	2098.45493	252.2377	296.98955	-78.92599	2095.20025	295.36221	201.79016	405.20766	484.13365	307.56726	309.1946	663.95472	0
291	2098.45493	230.26861	296.98955	-57.77057	2095.20025	274.20679	179.82107	405.20766	462.97823	285.59817	287.22551	663.95472	0
292	2098.45493	187.95777	296.98955	-35.80148	2095.20025	231.08228	158.66565	362.08315	462.97823	264.44275	266.07009	663.95472	0
293	2098.45493	165.98868	296.98955	-35.80148	2095.20025	209.92686	158.66565	340.92773	441.82281	264.44275	266.07009	663.95472	0
294	2098.45493	144.83326	296.98955	-14.64606	2095.20025	188.77144	158.66565	318.95864	398.6983	264.44275	266.07009	663.95472	0
295	2098.45493	122.86417	296.98955	-14.64606	2095.20025	145.64693	137.51023	297.80322	377.54288	264.44275	244.91467	663.95472	0
296	2098.45493	101.70875	296.98955	7.32303	2095.20025	124.49151	137.51023	297.80322	355.57379	264.44275	222.94558	663.95472	0
297	2098.45493	58.58424	296.98955	7.32303	2095.20025	102.52242	137.51023	254.67871	334.41837	221.31824	222.94558	663.95472	0
298	2098.45493	37.42882	296.98955	28.47845	2095.20025	60.21158	115.54114	233.52329	313.26295	200.16282	201.79016	663.95472	0
299	2098.45493	16.2734	296.98955	28.47845	2095.20025	38.24249	94.38572	212.36787	291.29386	179.0074	179.82107	663.95472	0
300	2098.45493	-5.69569	296.98955	49.63387	2095.20025	17.08707	94.38572	212.36787	291.29386	157.03831	179.82107	663.95472	0
301	2098.45493	-26.85111	296.98955	49.63387	2095.20025	17.08707	94.38572	212.36787	270.13844	135.88289	158.66565	663.95472	0
302	2098.45493	-48.00653	296.98955	71.60296	2095.20025	-4.06835	94.38572	190.39878	270.13844	135.88289	158.66565	663.95472	0
303	2098.45493	-48.00653	296.98955	92.75838	2095.20025	-26.03744	73.2303	169.24336	227.01393	114.72747	158.66565	663.95472	0
304	2098.45493	-48.00653	296.98955	92.75838	2095.20025	-26.03744	73.2303	169.24336	227.01393	114.72747	158.66565	663.95472	0
305	2098.45493	-48.00653	296.98955	28.47845	2095.20025	-26.03744	73.2303	169.24336	227.01393	114.72747	158.66565	663.95472	0
306	2098.45493	-91.13104	296.98955	28.47845	2095.20025	-68.34828	73.2303	148.08794	183.88942	92.75838	137.51023	663.95472	0
307	2098.45493	-134.25555	296.98955	113.9138	2095.20025	-90.31737	51.26121	126.11885	162.734	71.60296	115.54114	663.95472	0
308	2098.45493	-176.56639	296.98955	135.88289	2095.20025	-133.44188	30.10579	83.80801	119.60949	28.47845	73.2303	663.95472	0
309	2098.45493	-176.56639	296.98955	135.88289	2095.20025	-133.44188	30.10579	61.83892	119.60949	28.47845	73.2303	663.95472	0
310	2098.45493	-176.56639	296.98955	135.88289	2095.20025	-133.44188	30.10579	61.83892	98.45407	28.47845	73.2303	663.95472	0
311	2098.45493	-176.56639	296.98955	135.88289	2095.20025	-133.44188	30.10579	61.83892	98.45407	7.32303	73.2303	663.95472	0
312	2098.45493	-134.25555	296.98955	135.88289	2095.20025	-90.31737	30.10579	61.83892	98.45407	7.32303	51.26121	663.95472	-1500	QRS-0
313	2098.45493	-134.25555	296.98955	135.88289	2095.20025	-90.31737	30.10579	61.83892	98.45407	7.32303	51.26121	663.95472	0
314	2098.45493	-134.25555	296.98955	135.88289	2095.20025	-90.31737	30.10579	61.83892	98.45407	-13.83239	51.26121	663.95472	0
315	2098.45493	-134.25555	296.98955	135.88289	2095.20025	-90.31737	30.10579	61.83892	98.45407	-13.83239	51.26121	663.95472	0
316	2098.45493	-134.25555	296.98955	135.88289	2095.20025	-90.31737	30.10579	61.83892	98.45407	-13.83239	51.26121	663.95472	0
317	2098.45493	-198.53548	296.98955	135.88289	2095.20025	-154.5973	30.10579	61.83892	77.29865	-13.83239	30.10579	663.95472	0
318	2098.45493	-219.6909	296.98955	157.03831	2095.20025	-175.75272	30.10579	40.6835	55.32956	-35.80148	30.10579	663.95472	0
319	2098.45493	-241.65999	296.98955	178.19373	2095.20025	-197.72181	8.95037	40.6835	34.17414	-35.80148	30.10579	663.95472	0
320	2098.45493	-262.81541	296.98955	178.19373	2095.20025	-197.72181	8.95037	40.6835	34.17414	-56.9569	30.10579	663.95472	0
321	2098.45493	-262.81541	296.98955	178.19373	2095.20025	-218.87723	30.10579	40.6835	34.17414	-56.9569	30.10579	663.95472	0
322	2098.45493	-262.81541	296.98955	178.19373	2095.20025	-218.87723	30.10579	19.52808	34.17414	-56.9569	30.10579	663.95472	0
323	2098.45493	-219.6909	296.98955	135.88289	2095.20025	-218.87723	30.10579	19.52808	55.32956	-56.9569	30.10579	663.95472	0
324	2098.45493	-198.53548	296.98955	113.9138	2095.20025	-218.87723	51.26121	19.52808	55.32956	-35.80148	30.10579	663.95472	0
325	2098.45493	-198.53548	296.98955	113.9138	2095.20025	-175.75272	51.26121	19.52808	55.32956	-35.80148	30.10579	663.95472	0
326	2098.45493	-198.53548	296.98955	113.9138	2095.20025	-175.75272	51.26121	19.52808	34.17414	-35.80148	30.10579	663.95472	0
327	2098.45493	-198.53548	296.98955	113.9138	2095.20025	-175.75272	30.10579	19.52808	34.17414	-35.80148	30.10579	663.95472	0
328	2098.45493	-198.53548	296.98955	113.9138	2095.20025	-175.75272	30.10579	19.52808	34.17414	-56.9569	30.10579	663.95472	0
329	2098.45493	-198.53548	296.98955	157.03831	2095.20025	-197.72181	30.10579	19.52808	13.01872	-56.9569	30.10579	663.95472	0
330	2098.45493	-262.81541	296.98955	178.19373	2095.20025	-218.87723	8.95037	-23.59643	-8.95037	-78.11232	8.95037	663.95472	0
331	2098.45493	-262.81541	296.98955	178.19373	2095.20025	-218.87723	8.95037	-23.59643	-8.95037	-78.11232	8.95037	663.95472	0
332	2098.45493	-262.81541	296.98955	178.19373	2095.20025	-218.87723	8.95037	-23.59643	-8.95037	-78.11232	8.95037	663.95472	0
333	2098.45493	-219.6909	296.98955	135.88289	2095.20025	-218.87723	30.10579	-23.59643	-8.95037	-78.11232	8.95037	663.95472	0
334	2098.45493	-219.6909	296.98955	135.88289	2095.20025	-218.87723	30.10579	-23.59643	-8.95037	-78.11232	8.95037	663.95472	0
335	2098.45493	-219.6909	296.98955	135.88289	2095.20025	-218.87723	30.10579	-23.59643	-8.95037	-78.11232	30.10579	663.95472	0
336	2098.45493	-198.53548	296.98955	135.88289	2095.20025	-175.75272	51.26121	-23.59643	13.01872	-78.11232	30.10579	663.95472	0
337	2098.45493	-176.56639	296.98955	113.9138	2095.20025	-175.75272	51.26121	-2.44101	34.17414	-56.9569	30.10579	663.95472	0
338	2098.45493	-176.56639	296.98955	113.9138	2095.20025	-154.5973	51.26121	-2.44101	34.17414	-35.80148	30.10579	663.95472	0
339	2098.45493	-176.56639	296.98955	113.9138	2095.20025	-154.5973	73.2303	-2.44101	34.17414	-35.80148	30.10579	663.95472	0
340	2098.45493	-219.6909	296.98955	157.03831	2095.20025	-154.5973	73.2303	-2.44101	-8.95037	-35.80148	30.10579	663.95472	0
341	2098.45493	-219.6909	296.98955	157.03831	2095.20025	-197.72181	73.2303	-2.44101	-8.95037	-78.11232	8.95037	663.95472	0
342	2098.45493	-219.6909	296.98955	157.03831	2095.20025	-197.72181	30.10579	-23.59643	-8.95037	-78.11232	8.95037	663.95472	0
343	2098.45493	-241.65999	296.98955	157.03831	2095.20025	-197.72181	30.10579	-23.59643	-8.95037	-78.11232	8.95037	663.95472	0
344	2098.45493	-241.65999	296.98955	157.03831	2095.20025	-197.72181	30.10579	-23.59643	-8.95037	-78.11232	8.95037	663.95472	0
345	2098.45493	-198.53548	296.98955	135.88289	2095.20025	-154.5973	30.10579	-2.44101	-8.95037	-78.11232	30.10579	663.95472	0
346	2098.45493	-176.56639	296.98955	135.88289	2095.20025	-154.5973	73.2303	-2.44101	-8.95037	-78.11232	30.10579	663.95472	0
347	2098.45493	-176.56639	296.98955	113.9138	2095.20025	-133.44188	73.2303	-2.44101	13.01872	-56.9569	30.10579	663.95472	0
348	2098.45493	-176.56639	296.98955	113.9138	2095.20025	-175.75272	73.2303	-2.44101	13.01872	-56.9569	30.10579	663.95472	0
349	2098.45493	-176.56639	296.98955	113.9138	2095.20025	-175.75272	73.2303	-23.59643	13.01872	-35.80148	8.95037	663.95472	0
350	2098.45493	-176.56639	296.98955	113.9138	2095.20025	-175.75272	73.2303	-23.59643	13.01872	-13.83239	8.95037	663.95472	0
351	2098.45493	-155.41097	296.98955	113.9138	2095.20025	-133.44188	73.2303	-23.59643	13.01872	-13.83239	30.10579	663.95472	0
352	2098.45493	-155.41097	296.98955	157.03831	2095.20025	-133.44188	73.2303	-23.59643	-8.95037	-13.83239	30.10579	663.95472	0
353	2098.45493	-155.41097	296.98955	157.03831	2095.20025	-133.44188	73.2303	-23.59643	-8.95037	-13.83239	30.10579	663.95472	0
354	2098.45493	-198.53548	296.98955	157.03831	2095.20025	-133.44188	73.2303	-23.59643	-8.95037	-13.83239	30.10579	663.95472	0
355	2098.45493	-198.53548	296.98955	157.03831	2095.20025	-133.44188	73.2303	-23.59643	-8.95037	-13.83239	30.10579	663.95472	0
356	2098.45493	-198.53548	296.98955	157.03831	2095.20025	-133.44188	73.2303	-2.44101	-8.95037	7.32303	30.10579	663.95472	0
357	2098.45493	-198.53548	296.98955	135.88289	2095.20025	-133.44188	73.2303	-2.44101	-8.95037	7.32303	30.10579	663.95472	0
358	2098.45493	-155.41097	296.98955	135.88289	2095.20025	-90.31737	73.2303	19.52808	-8.95037	7.32303	51.26121	663.95472	0
359	2098.45493	-155.41097	296.98955	135.88289	2095.20025	-90.31737	73.2303	19.52808	-8.95037	7.32303	51.26121	663.95472	0
360	2098.45493	-155.41097	296.98955	135.88289	2095.20025	-90.31737	94.38572	19.52808	13.01872	7.32303	51.26121	663.95472	0
361	2098.45493	-155.41097	296.98955	135.88289	2095.20025	-90.31737	94.38572	19.52808	13.01872	7.32303	51.26121	663.95472	0
362	2098.45493	-176.56639	296.98955	157.03831	2095.20025	-133.44188	94.38572	19.52808	13.01872	-13.83239	30.10579	663.95472	0
363	2098.45493	-198.53548	296.98955	178.19373	2095.20025	-133.44188	94.38572	-2.44101	13.01872	-13.83239	30.10579	663.95472	0
364	2098.45493	-198.53548	296.98955	178.19373	2095.20025	-90.31737	94.38572	-2.44101	13.01872	-13.83239	30.10579	663.95472	0
365	2098.45493	-155.41097	296.98955	135.88289	2095.20025	-90.31737	94.38572	-2.44101	13.01872	-13.83239	30.10579	663.95472	0
366	2098.45493	-155.41097	296.98955	135.88289	2095.20025	-90.31737	94.38572	-2.44101	13.01872	-13.83239	30.10579	663.95472	0
367	2098.45493	-155.41097	296.98955	135.88289	2095.20025	-90.31737	73.2303	-2.44101	13.01872	-13.83239	30.10579	685.11014	0
368	2098.45493	-155.41097	296.98955	135.88289	2095.20025	-90.31737	73.2303	-2.44101	13.01872	-13.83239	30.10579	663.95472	0
369	2098.45493	-176.56639	296.98955	157.03831	2095.20025	-90.31737	73.2303	19.52808	55.32956	7.32303	51.26121	620.83021	0
370	2098.45493	-155.41097	296.98955	157.03831	2095.20025	-90.31737	73.2303	19.52808	77.29865	7.32303	51.26121	620.83021	0
371	2098.45493	-155.41097	296.98955	157.03831	2095.20025	-90.31737	73.2303	19.52808	77.29865	7.32303	51.26121	599.67479	0
372	2098.45493	-155.41097	296.98955	178.19373	2095.20025	-90.31737	94.38572	19.52808	77.29865	7.32303	51.26121	599.67479	0
373	2098.45493	-155.41097	296.98955	178.19373	2095.20025	-133.44188	94.38572	40.6835	77.29865	7.32303	51.26121	599.67479	0
374	2098.45493	-176.56639	296.98955	178.19373	2095.20025	-133.44188	94.38572	-2.44101	77.29865	-13.83239	51.26121	556.55028	0
375	2098.45493	-176.56639	296.98955	157.03831	2095.20025	-133.44188	94.38572	-2.44101	77.29865	-13.83239	51.26121	492.27035	0
376	2098.45493	-176.56639	296.98955	157.03831	2095.20025	-133.44188	94.38572	-2.44101	77.29865	-13.83239	51.26121	471.11493	0
377	2098.45493	-176.56639	296.98955	157.03831	2095.20025	-133.44188	73.2303	-2.44101	77.29865	-13.83239	51.26121	471.11493	0
378	2098.45493	-176.56639	296.98955	157.03831	2095.20025	-133.44188	73.2303	-2.44101	77.29865	-13.83239	51.26121	449.95951	0
379	2098.45493	-176.56639	296.98955	157.03831	2095.20025	-133.44188	73.2303	-2.44101	77.29865	-13.83239	51.26121	406.835	0
380	2098.45493	-176.56639	296.98955	135.88289	2095.20025	-111.47279	51.26121	-2.44101	77.29865	-13.83239	30.10579	363.71049	0
381	2098.45493	-155.41097	296.98955	135.88289	2095.20025	-111.47279	51.26121	-23.59643	77.29865	-13.83239	30.10579	363.71049	0
382	2098.45493	-155.41097	296.98955	135.88289	2095.20025	-90.31737	51.26121	-23.59643	77.29865	-13.83239	30.10579	342.55507	0
383	2098.45493	-155.41097	296.98955	135.88289	2095.20025	-90.31737	51.26121	-23.59643	55.32956	-13.83239	30.10579	320.58598	0
384	2098.45493	-155.41097	296.98955	135.88289	2095.20025	-90.31737	51.26121	19.52808	55.32956	7.32303	51.26121	320.58598	0
385	2098.45493	-134.25555	296.98955	113.9138	2095.20025	-90.31737	51.26121	19.52808	77.29865	7.32303	51.26121	299.43056	0
386	2098.45493	-112.28646	296.98955	113.9138	2095.20025	-90.31737	73.2303	19.52808	98.45407	7.32303	73.2303	256.30605	0
387	2098.45493	-112.28646	296.98955	113.9138	2095.20025	-90.31737	73.2303	19.52808	98.45407	7.32303	73.2303	235.15063	0
388	2098.45493	-112.28646	296.98955	113.9138	2095.20025	-90.31737	73.2303	-2.44101	98.45407	7.32303	73.2303	235.15063	0
389	2098.45493	-112.28646	296.98955	113.9138	2095.20025	-90.31737	94.38572	-2.44101	98.45407	7.32303	30.10579	213.99521	0
390	2098.45493	-112.28646	296.98955	92.75838	2095.20025	-68.34828	94.38572	-2.44101	98.45407	28.47845	73.2303	213.99521	0
391	2098.45493	-91.13104	296.98955	92.75838	2095.20025	-47.19286	137.51023	40.6835	98.45407	28.47845	73.2303	192.02612	0
392	2098.45493	-91.13104	296.98955	92.75838	2095.20025	-26.03744	137.51023	40.6835	98.45407	28.47845	73.2303	192.02612	0
393	2098.45493	-91.13104	296.98955	92.75838	2095.20025	-26.03744	137.51023	40.6835	98.45407	28.47845	73.2303	170.8707	0
394	2098.45493	-91.13104	296.98955	92.75838	2095.20025	-26.03744	137.51023	40.6835	98.45407	28.47845	73.2303	170.8707	0
395	2098.45493	-69.97562	296.98955	92.75838	2095.20025	-26.03744	137.51023	40.6835	98.45407	28.47845	73.2303	149.71528	0
396	2098.45493	-69.97562	296.98955	92.75838	2095.20025	-4.06835	158.66565	61.83892	119.60949	28.47845	73.2303	127.74619	0
397	2098.45493	-69.97562	296.98955	92.75838	2095.20025	-4.06835	158.66565	61.83892	119.60949	28.47845	73.2303	127.74619	0
398	2098.45493	-69.97562	296.98955	92.75838	2095.20025	-4.06835	158.66565	61.83892	119.60949	28.47845	73.2303	106.59077	0
399	2098.45493	-48.00653	296.98955	92.75838	2095.20025	-4.06835	158.66565	61.83892	119.60949	28.47845	73.2303	85.43535	0
400	2098.45493	-26.85111	296.98955	71.60296	2095.20025	17.08707	137.51023	40.6835	119.60949	28.47845	73.2303	63.46626	0
401	2098.45493	-26.85111	296.98955	49.63387	2095.20025	17.08707	137.51023	40.6835	119.60949	28.47845	73.2303	63.46626	0
402	2098.45493	16.2734	296.98955	28.47845	2095.20025	60.21158	137.51023	40.6835	141.57858	50.44754	73.2303	42.31084	0
403	2098.45493	16.2734	296.98955	28.47845	2095.20025	60.21158	115.54114	19.52808	141.57858	50.44754	73.2303	42.31084	0
404	2098.45493	37.42882	296.98955	7.32303	2095.20025	81.367	94.38572	-2.44101	141.57858	50.44754	73.2303	42.31084	0
405	2098.45493	58.58424	296.98955	7.32303	2095.20025	81.367	73.2303	-23.59643	141.57858	50.44754	73.2303	42.31084	0
406	2098.45493	58.58424	296.98955	7.32303	2095.20025	81.367	51.26121	-23.59643	141.57858	50.44754	73.2303	42.31084	0
407	2098.45493	58.58424	296.98955	7.32303	2095.20025	102.52242	30.10579	-23.59643	77.29865	50.44754	73.2303	21.15542	0
408	2098.45493	58.58424	296.98955	7.32303	2095.20025	102.52242	30.10579	-23.59643	77.29865	50.44754	73.2303	21.15542	0
409	2098.45493	58.58424	296.98955	7.32303	2095.20025	102.52242	8.95037	-44.75185	77.29865	50.44754	73.2303	-0.81367	0
410	2098.45493	58.58424	296.98955	7.32303	2095.20025	102.52242	-13.01872	-44.75185	55.32956	50.44754	73.2303	-0.81367	0
411	2098.45493	58.58424	296.98955	28.47845	2095.20025	124.49151	-13.01872	-66.72094	55.32956	50.44754	73.2303	-0.81367	0
412	2098.45493	80.55333	296.98955	7.32303	2095.20025	124.49151	-13.01872	-66.72094	55.32956	50.44754	94.38572	-0.81367	0
413	2098.45493	101.70875	296.98955	-14.64606	2095.20025	124.49151	-34.17414	-66.72094	55.32956	50.44754	115.54114	-0.81367	0
414	2098.45493	101.70875	296.98955	-14.64606	2095.20025	124.49151	-34.17414	-66.72094	55.32956	50.44754	115.54114	42.31084	0
415	2098.45493	101.70875	296.98955	-14.64606	2095.20025	124.49151	-34.17414	-66.72094	55.32956	50.44754	115.54114	63.46626	0
416	2098.45493	101.70875	296.98955	-35.80148	2095.20025	124.49151	-34.17414	-66.72094	55.32956	50.44754	115.54114	85.43535	0
417	2098.45493	58.58424	296.98955	-35.80148	2095.20025	81.367	-34.17414	-23.59643	77.29865	50.44754	115.54114	85.43535	0
418	2098.45493	16.2734	296.98955	28.47845	2095.20025	38.24249	-77.29865	-23.59643	34.17414	50.44754	73.2303	85.43535	0
419	2098.45493	16.2734	296.98955	28.47845	2095.20025	38.24249	-77.29865	-23.59643	34.17414	50.44754	73.2303	85.43535	0
420	2098.45493	16.2734	296.98955	28.47845	2095.20025	38.24249	-77.29865	-66.72094	13.01872	28.47845	73.2303	85.43535	0
421	2098.45493	-26.85111	296.98955	49.63387	2095.20025	38.24249	-77.29865	-66.72094	13.01872	28.47845	73.2303	106.59077	0
422	2098.45493	-48.00653	296.98955	71.60296	2095.20025	17.08707	-34.17414	-66.72094	13.01872	7.32303	51.26121	106.59077	0
423	2098.45493	-48.00653	296.98955	92.75838	2095.20025	-4.06835	-34.17414	-66.72094	-8.95037	7.32303	51.26121	106.59077	0
424	2098.45493	-69.97562	296.98955	92.75838	2095.20025	-4.06835	-13.01872	-66.72094	-8.95037	7.32303	30.10579	85.43535	0
425	2098.45493	-91.13104	296.98955	113.9138	2095.20025	-26.03744	-13.01872	-66.72094	-8.95037	-13.83239	30.10579	85.43535	0
426	2098.45493	-91.13104	296.98955	113.9138	2095.20025	-47.19286	-13.01872	-23.59643	-8.95037	-13.83239	73.2303	85.43535	0
427	2098.45493	-112.28646	296.98955	113.9138	2095.20025	-68.34828	-13.01872	-23.59643	34.17414	-13.83239	73.2303	63.46626	0
428	2098.45493	-134.25555	296.98955	135.88289	2095.20025	-90.31737	8.95037	-23.59643	34.17414	-13.83239	73.2303	42.31084	0
429	2098.45493	-176.56639	296.98955	135.88289	2095.20025	-133.44188	8.95037	-23.59643	34.17414	-35.80148	30.10579	42.31084	0
430	2098.45493	-176.56639	296.98955	157.03831	2095.20025	-133.44188	8.95037	-23.59643	13.01872	-56.9569	8.95037	42.31084	0
431	2098.45493	-198.53548	296.98955	178.19373	2095.20025	-133.44188	8.95037	-23.59643	13.01872	-56.9569	8.95037	42.31084	0
432	2098.45493	-198.53548	296.98955	178.19373	2095.20025	-154.5973	-13.01872	-23.59643	-8.95037	-56.9569	8.95037	42.31084	0
433	2098.45493	-219.6909	296.98955	178.19373	2095.20025	-175.75272	8.95037	-23.59643	-8.95037	-56.9569	8.95037	42.31084	0
434	2098.45493	-219.6909	296.98955	178.19373	2095.20025	-175.75272	8.95037	-66.72094	-8.95037	-78.11232	8.95037	42.31084	0
435	2098.45493	-241.65999	296.98955	178.19373	2095.20025	-197.72181	8.95037	-66.72094	-8.95037	-78.11232	-13.01872	63.46626	0
436	2098.45493	-241.65999	296.98955	178.19373	2095.20025	-197.72181	8.95037	-66.72094	-8.95037	-78.11232	-13.01872	63.46626	0
437	2098.45493	-241.65999	296.98955	178.19373	2095.20025	-154.5973	-13.01872	-66.72094	-8.95037	-78.11232	-13.01872	63.46626	0
438	2098.45493	-241.65999	296.98955	178.19373	2095.20025	-154.5973	-13.01872	-66.72094	-8.95037	-78.11232	-13.01872	85.43535	0
439	2098.45493	-219.6909	296.98955	178.19373	2095.20025	-154.5973	-13.01872	-66.72094	-8.95037	-78.11232	-13.01872	85.43535	0
440	2098.45493	-219.6909	296.98955	157.03831	2095.20025	-154.5973	-13.01872	-66.72094	-8.95037	-100.08141	-34.17414	106.59077	0
441	2098.45493	-219.6909	296.98955	157.03831	2095.20025	-175.75272	-13.01872	-66.72094	-8.95037	-100.08141	-34.17414	106.59077	0
442	2098.45493	-241.65999	296.98955	157.03831	2095.20025	-197.72181	-13.01872	-66.72094	-8.95037	-100.08141	-34.17414	106.59077	0
443	2098.45493	-241.65999	296.98955	157.03831	2095.20025	-197.72181	-13.01872	-66.72094	-8.95037	-100.08141	-34.17414	127.74619	0
444	2098.45493	-241.65999	296.98955	178.19373	2095.20025	-197.72181	-13.01872	-44.75185	-8.95037	-100.08141	-34.17414	127.74619	0
445	2098.45493	-262.81541	296.98955	200.16282	2095.20025	-197.72181	-13.01872	-44.75185	-8.95037	-100.08141	-34.17414	127.74619	0
446	2098.45493	-283.97083	296.98955	242.47366	2095.20025	-175.75272	-13.01872	-44.75185	-8.95037	-78.11232	-34.17414	149.71528	0
447	2098.45493	-283.97083	296.98955	242.47366	2095.20025	-175.75272	-13.01872	-44.75185	-8.95037	-78.11232	-34.17414	149.71528	0
448	2098.45493	-283.97083	296.98955	242.47366	2095.20025	-197.72181	-13.01872	-44.75185	-8.95037	-78.11232	-13.01872	149.71528	0
449	2098.45493	-283.97083	296.98955	242.47366	2095.20025	-175.75272	-13.01872	-44.75185	-8.95037	-78.11232	-13.01872	149.71528	0
450	2098.45493	-283.97083	296.98955	242.47366	2095.20025	-175.75272	-13.01872	-44.75185	-8.95037	-78.11232	-13.01872	170.8707	0
451	2098.45493	-219.6909	296.98955	178.19373	2095.20025	-154.5973	-13.01872	-23.59643	13.01872	-78.11232	-13.01872	192.02612	0
452	2098.45493	-219.6909	296.98955	178.19373	2095.20025	-154.5973	-13.01872	-23.59643	13.01872	-78.11232	-13.01872	192.02612	0
453	2098.45493	-219.6909	296.98955	178.19373	2095.20025	-197.72181	-13.01872	-23.59643	13.01872	-78.11232	-34.17414	192.02612	0
454	2098.45493	-283.97083	296.98955	178.19373	2095.20025	-197.72181	-13.01872	-66.72094	13.01872	-78.11232	-34.17414	192.02612	0
455	2098.45493	-283.97083	296.98955	221.31824	2095.20025	-197.72181	-13.01872	-66.72094	-8.95037	-78.11232	-34.17414	213.99521	0
456	2098.45493	-283.97083	296.98955	242.47366	2095.20025	-197.72181	8.95037	-23.59643	13.01872	-78.11232	-34.17414	235.15063	0
457	2098.45493	-283.97083	296.98955	264.44275	2095.20025	-197.72181	8.95037	-23.59643	13.01872	-78.11232	-34.17414	256.30605	0
458	2098.45493	-283.97083	296.98955	264.44275	2095.20025	-197.72181	8.95037	-23.59643	13.01872	-78.11232	-34.17414	256.30605	0
459	2098.45493	-283.97083	296.98955	264.44275	2095.20025	-197.72181	-13.01872	-23.59643	13.01872	-78.11232	-34.17414	278.27514	0
460	2098.45493	-283.97083	296.98955	264.44275	2095.20025	-197.72181	-13.01872	-23.59643	13.01872	-78.11232	-34.17414	278.27514	0
461	2098.45493	-283.97083	296.98955	200.16282	2095.20025	-197.72181	-13.01872	-23.59643	13.01872	-78.11232	-34.17414	278.27514	0
462	2098.45493	-283.97083	296.98955	178.19373	2095.20025	-218.87723	30.10579	-2.44101	13.01872	-100.08141	-34.17414	299.43056	0
463	2098.45493	-283.97083	296.98955	178.19373	2095.20025	-240.03265	51.26121	61.83892	55.32956	-100.08141	-34.17414	299.43056	0
464	2098.45493	-283.97083	296.98955	178.19373	2095.20025	-240.03265	73.2303	126.11885	98.45407	-78.11232	-55.32956	299.43056	0
465	2098.45493	-305.93992	296.98955	221.31824	2095.20025	-240.03265	137.51023	212.36787	162.734	-56.9569	-55.32956	299.43056	0
466	2098.45493	-305.93992	296.98955	221.31824	2095.20025	-240.03265	179.82107	362.08315	270.13844	7.32303	-13.01872	320.58598	0
467	2098.45493	-305.93992	296.98955	221.31824	2095.20025	-240.03265	201.79016	448.33217	377.54288	50.44754	8.95037	342.55507	0
468	2098.45493	-241.65999	296.98955	178.19373	2095.20025	-197.72181	244.91467	512.6121	506.10274	157.03831	73.2303	406.835	0
469	2098.45493	-134.25555	296.98955	113.9138	2095.20025	-133.44188	244.91467	512.6121	570.38267	243.28733	137.51023	471.11493	0
470	2098.45493	-69.97562	296.98955	49.63387	2095.20025	-90.31737	244.91467	533.76752	612.69351	307.56726	201.79016	535.39486	0
471	2098.45493	-5.69569	296.98955	-14.64606	2095.20025	-26.03744	137.51023	384.05224	655.81802	414.9717	287.22551	599.67479	0
472	2098.45493	80.55333	296.98955	-35.80148	2095.20025	38.24249	73.2303	297.80322	676.97344	500.40705	373.47453	642.7993	0
473	2098.45493	294.54854	296.98955	-164.36134	2095.20025	253.05137	-141.57858	83.80801	742.06704	757.52677	587.46974	642.7993	0
474	2098.45493	445.07749	296.98955	-250.61036	2095.20025	381.61123	-291.29386	-66.72094	763.22246	886.08663	716.0296	642.7993	0
475	2098.45493	573.63735	296.98955	-336.04571	2095.20025	510.17109	-462.97823	-302.68524	763.22246	993.49107	823.43404	642.7993	0
476	2098.45493	681.04179	296.98955	-379.17022	2095.20025	617.57553	-634.6626	-495.52503	634.6626	1100.89551	908.86939	663.95472	0
477	2098.45493	830.75707	296.98955	-486.57466	2095.20025	767.29081	-784.37788	-773.80017	462.97823	1165.17544	1016.27383	663.95472	0
478	2098.45493	959.31693	296.98955	-550.85459	2095.20025	874.69525	-912.93774	-1009.76447	270.13844	1186.33086	1059.39834	663.95472	0
479	2098.45493	1216.43665	296.98955	-636.28994	2095.20025	1174.93948	-1192.02655	-1589.09751	-244.91467	1208.29995	1080.55376	663.95472	0
480	2098.45493	1280.71658	296.98955	-657.44536	2095.20025	1239.21941	-1384.86634	-1825.06181	-502.03439	972.33565	1080.55376	663.95472	0
481	2098.45493	1302.68567	296.98955	-679.41445	2095.20025	1260.37483	-1471.11536	-1889.34174	-630.59425	843.77579	1080.55376	663.95472	0
482	2098.45493	1302.68567	296.98955	-679.41445	2095.20025	1282.34392	-1535.39529	-1910.49716	-759.15411	714.40226	908.86939	663.95472	0
483	2098.45493	1302.68567	296.98955	-550.85459	2095.20025	1282.34392	-1556.55071	-1931.65258	-887.71397	500.40705	802.27862	663.95472	0
484	2098.45493	659.0727	296.98955	-292.9212	2095.20025	703.01088	-1577.70613	-1931.65258	-1080.55376	7.32303	394.62995	663.95472	0
485	2098.45493	487.38833	296.98955	-186.33043	2095.20025	553.2956	-1192.02655	-1545.973	-1144.83369	-207.48585	179.82107	663.95472	0
486	2098.45493	316.51763	296.98955	-100.08141	2095.20025	402.76665	-1020.34218	-1374.28863	-1166.80278	-378.35655	30.10579	663.95472	0
487	2098.45493	165.98868	296.98955	7.32303	2095.20025	253.05137	-848.65781	-1181.44884	-1187.9582	-485.76099	-98.45407	663.95472	0
488	2098.45493	58.58424	296.98955	49.63387	2095.20025	166.80235	-720.09795	-1009.76447	-1187.9582	-507.73008	-205.85851	663.95472	0
489	2098.45493	16.2734	296.98955	92.75838	2095.20025	102.52242	-591.53809	-860.04919	-866.55855	-528.8855	-227.01393	663.95472	0
490	2098.45493	-69.97562	296.98955	135.88289	2095.20025	17.08707	-398.6983	-624.08489	-651.74967	-528.8855	-270.13844	663.95472	0
491	2098.45493	-91.13104	296.98955	157.03831	2095.20025	-4.06835	-291.29386	-495.52503	-523.18981	-528.8855	-270.13844	642.7993	0
492	2098.45493	-91.13104	296.98955	157.03831	2095.20025	-4.06835	-248.98302	-388.12059	-415.78537	-400.32564	-270.13844	620.83021	0
493	2098.45493	-91.13104	296.98955	157.03831	2095.20025	-4.06835	-162.734	-323.84066	-330.35002	-357.20113	-205.85851	620.83021	0
494	2098.45493	-91.13104	296.98955	157.03831	2095.20025	81.367	-141.57858	-259.56073	-244.91467	-292.9212	-162.734	620.83021	0
495	2098.45493	-5.69569	296.98955	113.9138	2095.20025	124.49151	-55.32956	-152.15629	-115.54114	-207.48585	-119.60949	620.83021	0
496	2098.45493	-5.69569	296.98955	113.9138	2095.20025	124.49151	-34.17414	-152.15629	-94.38572	-185.51676	-98.45407	620.83021	0
497	2098.45493	-5.69569	296.98955	113.9138	2095.20025	145.64693	-13.01872	-131.00087	-94.38572	-185.51676	-77.29865	620.83021	0
498	2098.45493	-5.69569	296.98955	113.9138	2095.20025	145.64693	8.95037	-109.84545	-94.38572	-164.36134	-77.29865	642.7993	0
499	2098.45493	16.2734	296.98955	113.9138	2095.20025	145.64693	51.26121	-87.87636	-94.38572	-164.36134	-77.29865	642.7993	0
500	2098.45493	16.2734	296.98955	135.88289	2095.20025	145.64693	73.2303	-66.72094	-94.38572	-164.36134	-77.29865	642.7993	0
501	2098.45493	16.2734	296.98955	135.88289	2095.20025	145.64693	94.38572	-44.75185	-94.38572	-164.36134	-77.29865	642.7993	0
502	2098.45493	16.2734	296.98955	113.9138	2095.20025	145.64693	115.54114	-23.59643	-73.2303	-185.51676	-77.29865	663.95472	0
503	2098.45493	16.2734	296.98955	113.9138	2095.20025	145.64693	115.54114	-23.59643	-51.26121	-185.51676	-77.29865	663.95472	0
504	2098.45493	16.2734	296.98955	157.03831	2095.20025	166.80235	115.54114	-23.59643	-51.26121	-185.51676	-77.29865	663.95472	0
505	2098.45493	16.2734	296.98955	178.19373	2095.20025	166.80235	115.54114	-23.59643	-51.26121	-207.48585	-77.29865	663.95472	0
506	2098.45493	-26.85111	296.98955	178.19373	2095.20025	166.80235	73.2303	-66.72094	-51.26121	-207.48585	-98.45407	663.95472	0
507	2098.45493	-26.85111	296.98955	157.03831	2095.20025	166.80235	73.2303	-66.72094	-51.26121	-207.48585	-98.45407	663.95472	0
508	2098.45493	16.2734	296.98955	157.03831	2095.20025	166.80235	73.2303	-23.59643	-51.26121	-207.48585	-77.29865	663.95472	0
509	2098.45493	16.2734	296.98955	157.03831	2095.20025	188.77144	115.54114	-23.59643	-51.26121	-164.36134	-77.29865	663.95472	0
510	2098.45493	16.2734	296.98955	157.03831	2095.20025	188.77144	115.54114	-23.59643	-30.10579	-164.36134	-55.32956	663.95472	0
511	2098.45493	16.2734	296.98955	178.19373	2095.20025	188.77144	137.51023	-2.44101	-8.95037	-143.20592	-55.32956	663.95472	0
512	2098.45493	37.42882	296.98955	178.19373	2095.20025	188.77144	158.66565	19.52808	-8.95037	-143.20592	-55.32956	663.95472	0
513	2098.45493	58.58424	296.98955	157.03831	2095.20025	209.92686	158.66565	19.52808	13.01872	-121.23683	-55.32956	663.95472	0
514	2098.45493	58.58424	296.98955	157.03831	2095.20025	209.92686	158.66565	19.52808	13.01872	-121.23683	-55.32956	663.95472	0
515	2098.45493	58.58424	296.98955	157.03831	2095.20025	209.92686	158.66565	19.52808	13.01872	-121.23683	-55.32956	663.95472	0
516	2098.45493	16.2734	296.98955	200.16282	2095.20025	209.92686	158.66565	19.52808	13.01872	-121.23683	-55.32956	663.95472	0
517	2098.45493	16.2734	296.98955	200.16282	2095.20025	209.92686	179.82107	19.52808	13.01872	-121.23683	-55.32956	663.95472	0
518	2098.45493	-5.69569	296.98955	221.31824	2095.20025	209.92686	179.82107	40.6835	13.01872	-121.23683	-34.17414	663.95472	0
519	2098.45493	-5.69569	296.98955	221.31824	2095.20025	209.92686	179.82107	40.6835	13.01872	-121.23683	-34.17414	663.95472	0
520	2098.45493	-5.69569	296.98955	221.31824	2095.20025	209.92686	179.82107	40.6835	13.01872	-121.23683	-77.29865	663.95472	0
521	2098.45493	-5.69569	296.98955	221.31824	2095.20025	209.92686	179.82107	40.6835	13.01872	-121.23683	-77.29865	663.95472	0
522	2098.45493	-5.69569	296.98955	178.19373	2095.20025	209.92686	179.82107	40.6835	13.01872	-121.23683	-77.29865	663.95472	0
523	2098.45493	37.42882	296.98955	178.19373	2095.20025	209.92686	179.82107	40.6835	13.01872	-121.23683	-77.29865	663.95472	0
524	2098.45493	58.58424	296.98955	157.03831	2095.20025	231.08228	179.82107	61.83892	34.17414	-121.23683	-77.29865	663.95472	0
525	2098.45493	58.58424	296.98955	157.03831	2095.20025	231.08228	179.82107	61.83892	34.17414	-121.23683	-77.29865	663.95472	0
526	2098.45493	58.58424	296.98955	157.03831	2095.20025	231.08228	179.82107	61.83892	34.17414	-100.08141	-77.29865	663.95472	0
527	2098.45493	58.58424	296.98955	157.03831	2095.20025	253.05137	179.82107	61.83892	55.32956	-100.08141	-55.32956	663.95472	0
528	2098.45493	37.42882	296.98955	157.03831	2095.20025	253.05137	179.82107	61.83892	55.32956	-100.08141	-77.29865	663.95472	0
529	2098.45493	37.42882	296.98955	178.19373	2095.20025	231.08228	179.82107	61.83892	34.17414	-121.23683	-77.29865	663.95472	0
530	2098.45493	37.42882	296.98955	178.19373	2095.20025	231.08228	179.82107	83.80801	34.17414	-121.23683	-77.29865	663.95472	0
531	2098.45493	37.42882	296.98955	178.19373	2095.20025	231.08228	201.79016	83.80801	34.17414	-121.23683	-77.29865	663.95472	0
532	2098.45493	58.58424	296.98955	157.03831	2095.20025	231.08228	201.79016	83.80801	34.17414	-121.23683	-77.29865	663.95472	0
533	2098.45493	101.70875	296.98955	113.9138	2095.20025	231.08228	201.79016	83.80801	55.32956	-121.23683	-77.29865	663.95472	0
534	2098.45493	101.70875	296.98955	92.75838	2095.20025	209.92686	201.79016	83.80801	55.32956	-121.23683	-77.29865	663.95472	0
535	2098.45493	101.70875	296.98955	92.75838	2095.20025	188.77144	201.79016	83.80801	55.32956	-121.23683	-77.29865	663.95472	0
536	2098.45493	101.70875	296.98955	92.75838	2095.20025	188.77144	201.79016	83.80801	55.32956	-121.23683	-77.29865	663.95472	0
537	2098.45493	101.70875	296.98955	71.60296	2095.20025	166.80235	201.79016	83.80801	55.32956	-121.23683	-77.29865	685.11014	0
538	2098.45493	58.58424	296.98955	71.60296	2095.20025	166.80235	179.82107	83.80801	55.32956	-143.20592	-98.45407	642.7993	0
539	2098.45493	58.58424	296.98955	49.63387	2095.20025	145.64693	179.82107	83.80801	55.32956	-164.36134	-98.45407	620.83021	0
540	2098.45493	58.58424	296.98955	49.63387	2095.20025	124.49151	179.82107	83.80801	55.32956	-164.36134	-98.45407	599.67479	0
541	2098.45493	58.58424	296.98955	28.47845	2095.20025	124.49151	201.79016	83.80801	55.32956	-164.36134	-98.45407	599.67479	0
542	2098.45493	58.58424	296.98955	28.47845	2095.20025	124.49151	201.79016	83.80801	55.32956	-164.36134	-98.45407	599.67479	0
543	2098.45493	101.70875	296.98955	7.32303	2095.20025	124.49151	201.79016	83.80801	55.32956	-164.36134	-98.45407	599.67479	0
544	2098.45493	122.86417	296.98955	-14.64606	2095.20025	166.80235	222.94558	104.96343	77.29865	-143.20592	-98.45407	642.7993	0
545	2098.45493	122.86417	296.98955	-14.64606	2095.20025	166.80235	222.94558	126.11885	98.45407	-121.23683	-98.45407	642.7993	0
546	2098.45493	122.86417	296.98955	-14.64606	2095.20025	166.80235	222.94558	126.11885	98.45407	-121.23683	-98.45407	642.7993	-1250	T-0
547	2098.45493	122.86417	296.98955	-35.80148	2095.20025	145.64693	222.94558	148.08794	119.60949	-121.23683	-98.45407	642.7993	0
548	2098.45493	144.83326	296.98955	-57.77057	2095.20025	145.64693	222.94558	148.08794	119.60949	-121.23683	-98.45407	642.7993	0
549	2098.45493	144.83326	296.98955	-57.77057	2095.20025	145.64693	222.94558	169.24336	119.60949	-121.23683	-98.45407	663.95472	0
550	2098.45493	144.83326	296.98955	-57.77057	2095.20025	124.49151	222.94558	190.39878	141.57858	-121.23683	-98.45407	663.95472	0
551	2098.45493	144.83326	296.98955	-57.77057	2095.20025	166.80235	222.94558	212.36787	141.57858	-100.08141	-77.29865	663.95472	0
552	2098.45493	144.83326	296.98955	-35.80148	2095.20025	166.80235	222.94558	212.36787	162.734	-100.08141	-77.29865	663.95472	0
553	2098.45493	144.83326	296.98955	-35.80148	2095.20025	166.80235	222.94558	212.36787	162.734	-100.08141	-77.29865	663.95472	0
554	2098.45493	144.83326	296.98955	-35.80148	2095.20025	145.64693	244.91467	233.52329	183.88942	-78.11232	-77.29865	663.95472	0
555	2098.45493	187.95777	296.98955	-100.08141	2095.20025	166.80235	244.91467	276.6478	205.85851	-56.9569	-77.29865	663.95472	0
556	2098.45493	209.11319	296.98955	-122.0505	2095.20025	166.80235	266.07009	297.80322	227.01393	-56.9569	-77.29865	663.95472	0
557	2098.45493	209.11319	296.98955	-122.0505	2095.20025	166.80235	287.22551	318.95864	248.16935	-56.9569	-55.32956	663.95472	0
558	2098.45493	209.11319	296.98955	-122.0505	2095.20025	166.80235	287.22551	318.95864	248.16935	-56.9569	-55.32956	663.95472	0
559	2098.45493	209.11319	296.98955	-122.0505	2095.20025	166.80235	287.22551	318.95864	248.16935	-56.9569	-55.32956	663.95472	0
560	2098.45493	209.11319	296.98955	-122.0505	2095.20025	188.77144	287.22551	340.92773	270.13844	-56.9569	-55.32956	663.95472	0
561	2098.45493	252.2377	296.98955	-164.36134	2095.20025	209.92686	309.1946	384.05224	313.26295	-13.83239	-55.32956	663.95472	0
562	2098.45493	273.39312	296.98955	-186.33043	2095.20025	209.92686	309.1946	384.05224	313.26295	-13.83239	-55.32956	663.95472	0
563	2098.45493	294.54854	296.98955	-207.48585	2095.20025	209.92686	309.1946	405.20766	334.41837	-13.83239	-55.32956	663.95472	0
564	2098.45493	294.54854	296.98955	-207.48585	2095.20025	188.77144	309.1946	405.20766	355.57379	-13.83239	-55.32956	663.95472	0
565	2098.45493	294.54854	296.98955	-207.48585	2095.20025	188.77144	309.1946	426.36308	377.54288	7.32303	-34.17414	663.95472	0
566	2098.45493	316.51763	296.98955	-207.48585	2095.20025	253.05137	309.1946	448.33217	398.6983	50.44754	-13.01872	663.95472	0
567	2098.45493	316.51763	296.98955	-228.64127	2095.20025	253.05137	309.1946	469.48759	419.85372	50.44754	8.95037	663.95472	0
568	2098.45493	337.67305	296.98955	-228.64127	2095.20025	274.20679	309.1946	490.64301	441.82281	71.60296	8.95037	663.95472	0
569	2098.45493	337.67305	296.98955	-228.64127	2095.20025	274.20679	309.1946	512.6121	462.97823	71.60296	30.10579	663.95472	0
570	2098.45493	358.82847	296.98955	-228.64127	2095.20025	295.36221	309.1946	533.76752	462.97823	92.75838	30.10579	663.95472	0
571	2098.45493	358.82847	296.98955	-228.64127	2095.20025	317.3313	309.1946	533.76752	462.97823	114.72747	51.26121	663.95472	0
572	2098.45493	401.95298	296.98955	-250.61036	2095.20025	338.48672	330.35002	554.92294	484.13365	135.88289	73.2303	663.95472	0
573	2098.45493	401.95298	296.98955	-250.61036	2095.20025	360.45581	330.35002	554.92294	484.13365	157.03831	73.2303	663.95472	0
574	2098.45493	423.1084	296.98955	-271.76578	2095.20025	360.45581	330.35002	554.92294	484.13365	157.03831	73.2303	663.95472	0
575	2098.45493	445.07749	296.98955	-292.9212	2095.20025	360.45581	330.35002	554.92294	484.13365	157.03831	73.2303	663.95472	0
576	2098.45493	445.07749	296.98955	-292.9212	2095.20025	360.45581	309.1946	554.92294	506.10274	179.0074	73.2303	663.95472	0
577	2098.45493	445.07749	296.98955	-314.89029	2095.20025	381.61123	309.1946	533.76752	506.10274	179.0074	73.2303	663.95472	0
578	2098.45493	445.07749	296.98955	-314.89029	2095.20025	381.61123	309.1946	533.76752	506.10274	179.0074	73.2303	663.95472	0
579	2098.45493	445.07749	296.98955	-314.89029	2095.20025	381.61123	287.22551	512.6121	484.13365	179.0074	94.38572	663.95472	0
580	2098.45493	445.07749	296.98955	-314.89029	2095.20025	381.61123	266.07009	512.6121	484.13365	179.0074	94.38572	663.95472	0
581	2098.45493	445.07749	296.98955	-314.89029	2095.20025	381.61123	266.07009	512.6121	484.13365	179.0074	115.54114	663.95472	0
582	2098.45493	445.07749	296.98955	-314.89029	2095.20025	338.48672	266.07009	490.64301	462.97823	179.0074	115.54114	663.95472	0
583	2098.45493	445.07749	296.98955	-314.89029	2095.20025	338.48672	266.07009	448.33217	462.97823	200.16282	115.54114	663.95472	0
584	2098.45493	445.07749	296.98955	-314.89029	2095.20025	317.3313	244.91467	448.33217	462.97823	200.16282	115.54114	663.95472	0
585	2098.45493	445.07749	296.98955	-314.89029	2095.20025	317.3313	222.94558	448.33217	462.97823	200.16282	115.54114	663.95472	0
586	2098.45493	445.07749	296.98955	-336.04571	2095.20025	295.36221	201.79016	426.36308	462.97823	200.16282	137.51023	663.95472	0
587	2098.45493	445.07749	296.98955	-336.04571	2095.20025	295.36221	201.79016	405.20766	462.97823	200.16282	137.51023	663.95472	0
588	2098.45493	423.1084	296.98955	-336.04571	2095.20025	295.36221	158.66565	405.20766	441.82281	200.16282	137.51023	663.95472	0
589	2098.45493	401.95298	296.98955	-336.04571	2095.20025	274.20679	158.66565	384.05224	419.85372	179.0074	137.51023	663.95472	0
590	2098.45493	380.79756	296.98955	-336.04571	2095.20025	253.05137	158.66565	384.05224	419.85372	179.0074	137.51023	663.95472	0
591	2098.45493	358.82847	296.98955	-336.04571	2095.20025	231.08228	158.66565	362.08315	398.6983	179.0074	137.51023	663.95472	0
592	2098.45493	358.82847	296.98955	-314.89029	2095.20025	231.08228	137.51023	340.92773	398.6983	179.0074	137.51023	663.95472	0
593	2098.45493	337.67305	296.98955	-336.04571	2095.20025	209.92686	137.51023	340.92773	377.54288	179.0074	137.51023	663.95472	0
594	2098.45493	252.2377	296.98955	-250.61036	2095.20025	124.49151	94.38572	297.80322	334.41837	157.03831	115.54114	663.95472	0
595	2098.45493	230.26861	296.98955	-228.64127	2095.20025	102.52242	73.2303	297.80322	334.41837	135.88289	94.38572	663.95472	0
596	2098.45493	209.11319	296.98955	-207.48585	2095.20025	81.367	73.2303	276.6478	313.26295	135.88289	94.38572	663.95472	0
597	2098.45493	187.95777	296.98955	-207.48585	2095.20025	60.21158	51.26121	254.67871	313.26295	114.72747	73.2303	663.95472	0
598	2098.45493	165.98868	296.98955	-186.33043	2095.20025	38.24249	51.26121	254.67871	313.26295	114.72747	73.2303	663.95472	0
599	2098.45493	122.86417	296.98955	-164.36134	2095.20025	-4.06835	51.26121	233.52329	291.29386	114.72747	73.2303	663.95472	0
600	2098.45493	101.70875	296.98955	-164.36134	2095.20025	-4.06835	30.10579	212.36787	270.13844	92.75838	73.2303	663.95472	0
601	2098.45493	80.55333	296.98955	-143.20592	2095.20025	-26.03744	30.10579	190.39878	248.16935	71.60296	73.2303	663.95472	0
602	2098.45493	58.58424	296.98955	-143.20592	2095.20025	-47.19286	30.10579	169.24336	227.01393	50.44754	51.26121	663.95472	0
603	2098.45493	58.58424	296.98955	-143.20592	2095.20025	-68.34828	30.10579	169.24336	227.01393	50.44754	51.26121	663.95472	0
604	2098.45493	16.2734	296.98955	-122.0505	2095.20025	-90.31737	8.95037	169.24336	205.85851	28.47845	30.10579	663.95472	0
605	2098.45493	-26.85111	296.98955	-100.08141	2095.20025	-133.44188	-13.01872	126.11885	162.734	7.32303	8.95037	663.95472	0
606	2098.45493	-48.00653	296.98955	-100.08141	2095.20025	-154.5973	-13.01872	104.96343	141.57858	7.32303	-13.01872	663.95472	0
607	2098.45493	-48.00653	296.98955	-100.08141	2095.20025	-175.75272	-13.01872	61.83892	119.60949	-13.83239	-13.01872	663.95472	0
608	2098.45493	-48.00653	296.98955	-100.08141	2095.20025	-197.72181	-34.17414	61.83892	98.45407	-35.80148	-34.17414	663.95472	0
609	2098.45493	-48.00653	296.98955	-100.08141	2095.20025	-240.03265	-55.32956	40.6835	77.29865	-56.9569	-55.32956	663.95472	0
610	2098.45493	-91.13104	296.98955	-100.08141	2095.20025	-262.00174	-77.29865	-2.44101	34.17414	-100.08141	-77.29865	663.95472	0
611	2098.45493	-112.28646	296.98955	-100.08141	2095.20025	-283.15716	-77.29865	-2.44101	34.17414	-100.08141	-77.29865	663.95472	0
612	2098.45493	-112.28646	296.98955	-100.08141	2095.20025	-304.31258	-77.29865	-2.44101	34.17414	-100.08141	-98.45407	663.95472	0
613	2098.45493	-134.25555	296.98955	-100.08141	2095.20025	-304.31258	-77.29865	-23.59643	13.01872	-100.08141	-98.45407	663.95472	0
614	2098.45493	-155.41097	296.98955	-78.92599	2095.20025	-304.31258	-77.29865	-23.59643	13.01872	-100.08141	-98.45407	663.95472	0
615	2098.45493	-176.56639	296.98955	-57.77057	2095.20025	-326.28167	-77.29865	-23.59643	-8.95037	-121.23683	-119.60949	663.95472	0
616	2098.45493	-198.53548	296.98955	-14.64606	2095.20025	-347.43709	-98.45407	-23.59643	-8.95037	-143.20592	-119.60949	663.95472	0
617	2098.45493	-219.6909	296.98955	-14.64606	2095.20025	-347.43709	-98.45407	-44.75185	-8.95037	-164.36134	-119.60949	663.95472	0
618	2098.45493	-219.6909	296.98955	-14.64606	2095.20025	-368.59251	-98.45407	-44.75185	-8.95037	-164.36134	-141.57858	663.95472	0
619	2098.45493	-241.65999	296.98955	7.32303	2095.20025	-368.59251	-98.45407	-44.75185	-8.95037	-164.36134	-141.57858	663.95472	0
620	2098.45493	-241.65999	296.98955	7.32303	2095.20025	-368.59251	-77.29865	-44.75185	-8.95037	-164.36134	-141.57858	663.95472	0
621	2098.45493	-198.53548	296.98955	7.32303	2095.20025	-368.59251	-55.32956	-44.75185	-8.95037	-164.36134	-141.57858	663.95472	0
622	2098.45493	-176.56639	296.98955	-14.64606	2095.20025	-368.59251	-55.32956	-44.75185	-8.95037	-164.36134	-141.57858	663.95472	0
623	2098.45493	-176.56639	296.98955	-35.80148	2095.20025	-326.28167	-55.32956	-44.75185	-8.95037	-164.36134	-141.57858	663.95472	0
624	2098.45493	-176.56639	296.98955	-35.80148	2095.20025	-326.28167	-55.32956	-44.75185	-8.95037	-164.36134	-141.57858	663.95472	0
625	2098.45493	-219.6909	296.98955	7.32303	2095.20025	-326.28167	-55.32956	-66.72094	-30.10579	-185.51676	-141.57858	663.95472	0
626	2098.45493	-241.65999	296.98955	28.47845	2095.20025	-368.59251	-55.32956	-66.72094	-51.26121	-185.51676	-141.57858	663.95472	0
627	2098.45493	-262.81541	296.98955	28.47845	2095.20025	-368.59251	-77.29865	-66.72094	-51.26121	-185.51676	-162.734	663.95472	0
628	2098.45493	-262.81541	296.98955	28.47845	2095.20025	-368.59251	-77.29865	-66.72094	-51.26121	-185.51676	-162.734	663.95472	0
629	2098.45493	-262.81541	296.98955	28.47845	2095.20025	-368.59251	-77.29865	-87.87636	-51.26121	-185.51676	-162.734	663.95472	0
630	2098.45493	-262.81541	296.98955	28.47845	2095.20025	-368.59251	-77.29865	-87.87636	-51.26121	-185.51676	-162.734	663.95472	0
631	2098.45493	-262.81541	296.98955	28.47845	2095.20025	-368.59251	-77.29865	-87.87636	-73.2303	-207.48585	-162.734	663.95472	0
632	2098.45493	-262.81541	296.98955	-14.64606	2095.20025	-390.5616	-98.45407	-109.84545	-73.2303	-207.48585	-183.88942	663.95472	0
633	2098.45493	-241.65999	296.98955	-14.64606	2095.20025	-390.5616	-98.45407	-109.84545	-94.38572	-207.48585	-183.88942	663.95472	0
634	2098.45493	-241.65999	296.98955	-14.64606	2095.20025	-390.5616	-98.45407	-109.84545	-94.38572	-207.48585	-183.88942	663.95472	0
635	2098.45493	-241.65999	296.98955	-14.64606	2095.20025	-411.71702	-98.45407	-109.84545	-94.38572	-207.48585	-183.88942	663.95472	0
636	2098.45493	-262.81541	296.98955	-14.64606	2095.20025	-411.71702	-119.60949	-109.84545	-94.38572	-207.48585	-183.88942	663.95472	0
637	2098.45493	-283.97083	296.98955	-14.64606	2095.20025	-411.71702	-119.60949	-109.84545	-94.38572	-207.48585	-183.88942	663.95472	0
638	2098.45493	-219.6909	296.98955	-14.64606	2095.20025	-368.59251	-77.29865	-87.87636	-73.2303	-207.48585	-183.88942	663.95472	0
639	2098.45493	-219.6909	296.98955	-35.80148	2095.20025	-368.59251	-77.29865	-87.87636	-73.2303	-207.48585	-183.88942	663.95472	0
640	2098.45493	-219.6909	296.98955	-35.80148	2095.20025	-368.59251	-77.29865	-131.00087	-73.2303	-207.48585	-162.734	663.95472	0
641	2098.45493	-262.81541	296.98955	28.47845	2095.20025	-368.59251	-77.29865	-131.00087	-73.2303	-207.48585	-162.734	663.95472	0
642	2098.45493	-262.81541	296.98955	28.47845	2095.20025	-390.5616	-77.29865	-131.00087	-73.2303	-207.48585	-162.734	663.95472	0
643	2098.45493	-262.81541	296.98955	28.47845	2095.20025	-390.5616	-98.45407	-131.00087	-115.54114	-228.64127	-183.88942	663.95472	0
644	2098.45493	-262.81541	318.14497	-14.64606	2095.20025	-411.71702	-119.60949	-152.15629	-137.51023	-249.79669	-205.85851	663.95472	0
645	2098.45493	-262.81541	296.98955	-14.64606	2095.20025	-411.71702	-141.57858	-174.12538	-137.51023	-249.79669	-205.85851	663.95472	0
646	2098.45493	-262.81541	296.98955	-35.80148	2095.20025	-411.71702	-141.57858	-174.12538	-137.51023	-249.79669	-205.85851	663.95472	0
647	2098.45493	-241.65999	275.83413	-57.77057	2095.20025	-411.71702	-141.57858	-174.12538	-137.51023	-249.79669	-205.85851	663.95472	0
648	2098.45493	-219.6909	275.83413	-78.92599	2095.20025	-432.87244	-141.57858	-174.12538	-137.51023	-249.79669	-205.85851	663.95472	0
649	2098.45493	-219.6909	253.86504	-78.92599	2095.20025	-432.87244	-162.734	-174.12538	-137.51023	-249.79669	-205.85851	663.95472	0
650	2098.45493	-219.6909	253.86504	-78.92599	2095.20025	-432.87244	-162.734	-174.12538	-158.66565	-249.79669	-205.85851	663.95472	0
651	2098.45493	-219.6909	275.83413	-78.92599	2095.20025	-411.71702	-141.57858	-174.12538	-158.66565	-249.79669	-205.85851	663.95472	0
652	2098.45493	-198.53548	275.83413	-100.08141	2095.20025	-411.71702	-119.60949	-174.12538	-158.66565	-249.79669	-183.88942	663.95472	0
653	2098.45493	-198.53548	275.83413	-100.08141	2095.20025	-411.71702	-119.60949	-174.12538	-158.66565	-249.79669	-183.88942	663.95472	0
654	2098.45493	-198.53548	253.86504	-100.08141	2095.20025	-411.71702	-119.60949	-174.12538	-180.63474	-271.76578	-227.01393	663.95472	0
655	2098.45493	-241.65999	253.86504	-57.77057	2095.20025	-411.71702	-141.57858	-174.12538	-180.63474	-292.9212	-227.01393	663.95472	0
656	2098.45493	-241.65999	253.86504	-57.77057	2095.20025	-432.87244	-141.57858	-174.12538	-180.63474	-292.9212	-227.01393	663.95472	0
657	2098.45493	-241.65999	253.86504	-57.77057	2095.20025	-432.87244	-141.57858	-174.12538	-180.63474	-292.9212	-227.01393	663.95472	0
658	2098.45493	-219.6909	275.83413	-57.77057	2095.20025	-411.71702	-119.60949	-152.15629	-180.63474	-292.9212	-183.88942	663.95472	0
659	2098.45493	-198.53548	275.83413	-100.08141	2095.20025	-390.5616	-119.60949	-152.15629	-158.66565	-292.9212	-183.88942	663.95472	0
660	2098.45493	-176.56639	275.83413	-100.08141	2095.20025	-390.5616	-119.60949	-152.15629	-158.66565	-271.76578	-183.88942	663.95472	0
661	2098.45493	-176.56639	253.86504	-100.08141	2095.20025	-390.5616	-119.60949	-152.15629	-158.66565	-271.76578	-183.88942	663.95472	0
662	2098.45493	-219.6909	253.86504	-100.08141	2095.20025	-432.87244	-119.60949	-152.15629	-158.66565	-271.76578	-183.88942	663.95472	0
663	2098.45493	-219.6909	253.86504	-100.08141	2095.20025	-432.87244	-119.60949	-152.15629	-158.66565	-271.76578	-183.88942	663.95472	0
664	2098.45493	-219.6909	253.86504	-78.92599	2095.20025	-432.87244	-119.60949	-152.15629	-158.66565	-271.76578	-183.88942	663.95472	0
665	2098.45493	-219.6909	253.86504	-78.92599	2095.20025	-411.71702	-119.60949	-152.15629	-158.66565	-249.79669	-183.88942	663.95472	0
666	2098.45493	-241.65999	253.86504	-78.92599	2095.20025	-432.87244	-98.45407	-152.15629	-137.51023	-228.64127	-183.88942	663.95472	0
667	2098.45493	-241.65999	232.70962	-78.92599	2095.20025	-432.87244	-98.45407	-152.15629	-137.51023	-228.64127	-183.88942	663.95472	0
668	2098.45493	-241.65999	232.70962	-100.08141	2095.20025	-432.87244	-98.45407	-152.15629	-137.51023	-228.64127	-183.88942	663.95472	0
669	2098.45493	-241.65999	275.83413	-100.08141	2095.20025	-432.87244	-77.29865	-152.15629	-137.51023	-228.64127	-162.734	663.95472	0
670	2098.45493	-198.53548	275.83413	-57.77057	2095.20025	-432.87244	-77.29865	-131.00087	-115.54114	-228.64127	-162.734	663.95472	0
671	2098.45493	-241.65999	275.83413	-14.64606	2095.20025	-390.5616	-77.29865	-109.84545	-115.54114	-228.64127	-162.734	663.95472	0
672	2098.45493	-241.65999	275.83413	-14.64606	2095.20025	-347.43709	-77.29865	-109.84545	-115.54114	-228.64127	-162.734	663.95472	0
673	2098.45493	-198.53548	296.98955	-14.64606	2095.20025	-326.28167	-55.32956	-109.84545	-94.38572	-207.48585	-162.734	663.95472	0
674	2098.45493	-198.53548	296.98955	-14.64606	2095.20025	-326.28167	-55.32956	-87.87636	-94.38572	-185.51676	-141.57858	663.95472	0
675	2098.45493	-176.56639	296.98955	-14.64606	2095.20025	-326.28167	-55.32956	-87.87636	-94.38572	-185.51676	-141.57858	663.95472	0
676	2098.45493	-176.56639	296.98955	-14.64606	2095.20025	-326.28167	-55.32956	-87.87636	-94.38572	-185.51676	-141.57858	663.95472	0
677	2098.45493	-198.53548	296.98955	7.32303	2095.20025	-326.28167	-55.32956	-87.87636	-94.38572	-185.51676	-141.57858	663.95472	0
678	2098.45493	-219.6909	296.98955	7.32303	2095.20025	-326.28167	-55.32956	-87.87636	-94.38572	-185.51676	-141.57858	663.95472	0
679	2098.45493	-241.65999	296.98955	28.47845	2095.20025	-326.28167	-55.32956	-109.84545	-94.38572	-185.51676	-141.57858	663.95472	0
680	2098.45493	-241.65999	296.98955	28.47845	2095.20025	-368.59251	-55.32956	-109.84545	-94.38572	-185.51676	-141.57858	663.95472	0
681	2098.45493	-241.65999	296.98955	28.47845	2095.20025	-368.59251	-55.32956	-109.84545	-94.38572	-207.48585	-141.57858	663.95472	0
682	2098.45493	-176.56639	296.98955	-35.80148	2095.20025	-368.59251	-55.32956	-87.87636	-94.38572	-207.48585	-141.57858	663.95472	0
683	2098.45493	-176.56639	296.98955	-57.77057	2095.20025	-368.59251	-55.32956	-87.87636	-94.38572	-185.51676	-141.57858	663.95472	0
684	2098.45493	-134.25555	296.98955	-122.0505	2095.20025	-326.28167	-55.32956	-87.87636	-94.38572	-185.51676	-141.57858	663.95472	0
685	2098.45493	-134.25555	275.83413	-143.20592	2095.20025	-326.28167	-55.32956	-87.87636	-94.38572	-185.51676	-141.57858	663.95472	0
686	2098.45493	-112.28646	275.83413	-164.36134	2095.20025	-368.59251	-77.29865	-109.84545	-137.51023	-185.51676	-162.734	663.95472	0
687	2098.45493	-112.28646	253.86504	-164.36134	2095.20025	-390.5616	-77.29865	-131.00087	-137.51023	-228.64127	-183.88942	663.95472	0
688	2098.45493	-112.28646	253.86504	-164.36134	2095.20025	-390.5616	-77.29865	-131.00087	-137.51023	-228.64127	-183.88942	663.95472	0
689	2098.45493	-155.41097	253.86504	-164.36134	2095.20025	-390.5616	-77.29865	-131.00087	-137.51023	-207.48585	-183.88942	663.95472	0
690	2098.45493	-155.41097	253.86504	-164.36134	2095.20025	-347.43709	-77.29865	-131.00087	-137.51023	-207.48585	-183.88942	663.95472	0
691	2098.45493	-112.28646	275.83413	-143.20592	2095.20025	-326.28167	-77.29865	-131.00087	-137.51023	-207.48585	-162.734	663.95472	0
692	2098.45493	-112.28646	275.83413	-164.36134	2095.20025	-326.28167	-77.29865	-131.00087	-137.51023	-207.48585	-162.734	663.95472	0
693	2098.45493	-69.97562	296.98955	-207.48585	2095.20025	-326.28167	-77.29865	-109.84545	-137.51023	-207.48585	-141.57858	663.95472	0
694	2098.45493	-48.00653	296.98955	-228.64127	2095.20025	-304.31258	-34.17414	-87.87636	-115.54114	-207.48585	-119.60949	663.95472	0
695	2098.45493	-48.00653	296.98955	-228.64127	2095.20025	-283.15716	-13.01872	-87.87636	-94.38572	-185.51676	-119.60949	663.95472	0
696	2098.45493	-48.00653	296.98955	-228.64127	2095.20025	-262.00174	-13.01872	-66.72094	-94.38572	-185.51676	-98.45407	663.95472	0
697	2098.45493	-48.00653	296.98955	-164.36134	2095.20025	-240.03265	-13.01872	-66.72094	-94.38572	-185.51676	-98.45407	663.95472	0
698	2098.45493	-26.85111	296.98955	-164.36134	2095.20025	-218.87723	-13.01872	-66.72094	-94.38572	-185.51676	-77.29865	663.95472	0
699	2098.45493	-26.85111	296.98955	-164.36134	2095.20025	-197.72181	-34.17414	-66.72094	-94.38572	-164.36134	-77.29865	663.95472	0
700	2098.45493	-26.85111	296.98955	-164.36134	2095.20025	-197.72181	-34.17414	-87.87636	-94.38572	-164.36134	-77.29865	663.95472	0
701	2098.45493	-26.85111	296.98955	-164.36134	2095.20025	-197.72181	-34.17414	-87.87636	-94.38572	-164.36134	-77.29865	663.95472	0
702	2098.45493	-5.69569	296.98955	-186.33043	2095.20025	-175.75272	-55.32956	-109.84545	-94.38572	-164.36134	-77.29865	663.95472	0
703	2098.45493	16.2734	296.98955	-186.33043	2095.20025	-175.75272	-77.29865	-131.00087	-137.51023	-185.51676	-77.29865	663.95472	0
704	2098.45493	58.58424	296.98955	-186.33043	2095.20025	-111.47279	-77.29865	-152.15629	-137.51023	-185.51676	-55.32956	663.95472	0
705	2098.45493	101.70875	296.98955	-207.48585	2095.20025	-90.31737	-77.29865	-152.15629	-137.51023	-143.20592	-55.32956	663.95472	0
706	2098.45493	101.70875	296.98955	-228.64127	2095.20025	-90.31737	-77.29865	-131.00087	-137.51023	-121.23683	-55.32956	663.95472	0
707	2098.45493	101.70875	296.98955	-228.64127	2095.20025	-90.31737	-98.45407	-131.00087	-137.51023	-121.23683	-55.32956	663.95472	0
708	2098.45493	101.70875	296.98955	-228.64127	2095.20025	-90.31737	-98.45407	-131.00087	-137.51023	-121.23683	-55.32956	663.95472	0
709	2098.45493	101.70875	296.98955	-186.33043	2095.20025	-90.31737	-119.60949	-174.12538	-137.51023	-164.36134	-55.32956	663.95472	0
710	2098.45493	58.58424	296.98955	-186.33043	2095.20025	-90.31737	-119.60949	-174.12538	-137.51023	-164.36134	-55.32956	663.95472	0
711	2098.45493	58.58424	296.98955	-186.33043	2095.20025	-133.44188	-141.57858	-174.12538	-158.66565	-164.36134	-55.32956	663.95472	0
712	2098.45493	37.42882	296.98955	-186.33043	2095.20025	-133.44188	-162.734	-174.12538	-158.66565	-185.51676	-55.32956	663.95472	0
713	2098.45493	16.2734	296.98955	-186.33043	2095.20025	-154.5973	-162.734	-195.2808	-180.63474	-207.48585	-77.29865	663.95472	0
714	2098.45493	-5.69569	296.98955	-186.33043	2095.20025	-175.75272	-162.734	-195.2808	-201.79016	-207.48585	-77.29865	663.95472	0
715	2098.45493	-26.85111	296.98955	-164.36134	2095.20025	-218.87723	-162.734	-195.2808	-201.79016	-207.48585	-77.29865	663.95472	0
716	2098.45493	-26.85111	296.98955	-164.36134	2095.20025	-218.87723	-141.57858	-195.2808	-201.79016	-207.48585	-77.29865	663.95472	0
717	2098.45493	-26.85111	296.98955	-164.36134	2095.20025	-218.87723	-119.60949	-174.12538	-180.63474	-207.48585	-77.29865	663.95472	0
718	2098.45493	-5.69569	296.98955	-186.33043	2095.20025	-197.72181	-119.60949	-174.12538	-158.66565	-207.48585	-77.29865	663.95472	0
719	2098.45493	-48.00653	296.98955	-186.33043	2095.20025	-240.03265	-119.60949	-174.12538	-158.66565	-207.48585	-98.45407	663.95472	0
720	2098.45493	-155.41097	296.98955	-100.08141	2095.20025	-326.28167	-119.60949	-174.12538	-201.79016	-228.64127	-119.60949	663.95472	0
721	2098.45493	-176.56639	296.98955	-78.92599	2095.20025	-347.43709	-119.60949	-195.2808	-222.94558	-249.79669	-141.57858	663.95472	0
722	2098.45493	-176.56639	296.98955	-78.92599	2095.20025	-368.59251	-119.60949	-195.2808	-244.91467	-271.76578	-162.734	663.95472	0
723	2098.45493	-176.56639	296.98955	-57.77057	2095.20025	-368.59251	-119.60949	-195.2808	-244.91467	-271.76578	-162.734	663.95472	0
724	2098.45493	-176.56639	296.98955	-57.77057	2095.20025	-368.59251	-98.45407	-174.12538	-244.91467	-271.76578	-162.734	663.95472	0
725	2098.45493	-176.56639	318.14497	-100.08141	2095.20025	-368.59251	-77.29865	-174.12538	-244.91467	-271.76578	-162.734	663.95472	0
726	2098.45493	-198.53548	275.83413	-100.08141	2095.20025	-390.5616	-77.29865	-174.12538	-244.91467	-271.76578	-162.734	663.95472	0
727	2098.45493	-219.6909	253.86504	-100.08141	2095.20025	-411.71702	-77.29865	-174.12538	-244.91467	-292.9212	-183.88942	663.95472	0
728	2098.45493	-241.65999	253.86504	-57.77057	2095.20025	-432.87244	-77.29865	-174.12538	-244.91467	-292.9212	-183.88942	663.95472	0
729	2098.45493	-241.65999	253.86504	-57.77057	2095.20025	-432.87244	-77.29865	-195.2808	-244.91467	-292.9212	-183.88942	663.95472	0
730	2098.45493	-241.65999	232.70962	-57.77057	2095.20025	-454.84153	-119.60949	-195.2808	-244.91467	-292.9212	-205.85851	663.95472	0
731	2098.45493	-283.97083	232.70962	-57.77057	2095.20025	-475.99695	-119.60949	-216.43622	-266.07009	-314.07662	-205.85851	663.95472	0
732	2098.45493	-283.97083	232.70962	-57.77057	2095.20025	-475.99695	-119.60949	-216.43622	-266.07009	-314.07662	-205.85851	663.95472	0
733	2098.45493	-283.97083	211.5542	-78.92599	2095.20025	-475.99695	-98.45407	-216.43622	-266.07009	-314.07662	-205.85851	663.95472	0
734	2098.45493	-262.81541	211.5542	-78.92599	2095.20025	-475.99695	-98.45407	-216.43622	-266.07009	-314.07662	-205.85851	663.95472	0
735	2098.45493	-262.81541	211.5542	-78.92599	2095.20025	-475.99695	-98.45407	-216.43622	-266.07009	-314.07662	-205.85851	663.95472	0
736	2098.45493	-262.81541	253.86504	-78.92599	2095.20025	-475.99695	-98.45407	-195.2808	-266.07009	-314.07662	-205.85851	663.95472	0
737	2098.45493	-262.81541	253.86504	-78.92599	2095.20025	-475.99695	-119.60949	-216.43622	-266.07009	-336.04571	-162.734	663.95472	0
738	2098.45493	-262.81541	253.86504	-57.77057	2095.20025	-475.99695	-119.60949	-216.43622	-244.91467	-336.04571	-162.734	663.95472	0
739	2098.45493	-283.97083	253.86504	-35.80148	2095.20025	-475.99695	-119.60949	-216.43622	-244.91467	-336.04571	-205.85851	663.95472	0
740	2098.45493	-283.97083	253.86504	-35.80148	2095.20025	-475.99695	-119.60949	-216.43622	-244.91467	-336.04571	-205.85851	663.95472	0
741	2098.45493	-283.97083	211.5542	-35.80148	2095.20025	-475.99695	-98.45407	-216.43622	-244.91467	-336.04571	-205.85851	663.95472	0
742	2098.45493	-283.97083	211.5542	-35.80148	2095.20025	-475.99695	-98.45407	-195.2808	-244.91467	-336.04571	-205.85851	663.95472	0
743	2098.45493	-283.97083	253.86504	-14.64606	2095.20025	-475.99695	-77.29865	-195.2808	-244.91467	-336.04571	-205.85851	663.95472	0
744	2098.45493	-283.97083	253.86504	-14.64606	2095.20025	-475.99695	-77.29865	-195.2808	-244.91467	-336.04571	-205.85851	663.95472	0
745	2098.45493	-283.97083	253.86504	-14.64606	2095.20025	-475.99695	-77.29865	-195.2808	-266.07009	-336.04571	-205.85851	663.95472	0
746	2098.45493	-283.97083	253.86504	-57.77057	2095.20025	-475.99695	-77.29865	-195.2808	-266.07009	-336.04571	-162.734	663.95472	0
747	2098.45493	-283.97083	253.86504	-57.77057	2095.20025	-475.99695	-77.29865	-174.12538	-244.91467	-292.9212	-162.734	663.95472	0
748	2098.45493	-262.81541	253.86504	-57.77057	2095.20025	-475.99695	-55.32956	-174.12538	-244.91467	-292.9212	-162.734	663.95472	0
749	2098.45493	-262.81541	253.86504	-57.77057	2095.20025	-454.84153	-55.32956	-174.12538	-244.91467	-292.9212	-162.734	663.95472	0
750	2098.45493	-283.97083	253.86504	-35.80148	2095.20025	-454.84153	-55.32956	-195.2808	-244.91467	-292.9212	-162.734	663.95472	0
751	2098.45493	-283.97083	253.86504	-35.80148	2095.20025	-454.84153	-55.32956	-195.2808	-266.07009	-292.9212	-205.85851	663.95472	0
752	2098.45493	-283.97083	253.86504	-14.64606	2095.20025	-475.99695	-55.32956	-195.2808	-266.07009	-292.9212	-205.85851	663.95472	0
753	2098.45493	-283.97083	232.70962	-14.64606	2095.20025	-475.99695	-77.29865	-195.2808	-266.07009	-292.9212	-205.85851	663.95472	0
754	2098.45493	-283.97083	232.70962	-35.80148	2095.20025	-475.99695	-77.29865	-195.2808	-266.07009	-336.04571	-205.85851	663.95472	0
755	2098.45493	-283.97083	232.70962	-35.80148	2095.20025	-475.99695	-77.29865	-195.2808	-266.07009	-336.04571	-205.85851	663.95472	0
756	2098.45493	-283.97083	211.5542	-35.80148	2095.20025	-475.99695	-77.29865	-195.2808	-266.07009	-336.04571	-227.01393	663.95472	0
757	2098.45493	-283.97083	211.5542	-35.80148	2095.20025	-475.99695	-77.29865	-195.2808	-266.07009	-336.04571	-227.01393	663.95472	0
758	2098.45493	-305.93992	211.5542	-35.80148	2095.20025	-475.99695	-77.29865	-195.2808	-266.07009	-336.04571	-227.01393	663.95472	0
759	2098.45493	-305.93992	211.5542	7.32303	2095.20025	-475.99695	-55.32956	-131.00087	-244.91467	-292.9212	-227.01393	663.95472	0
760	2098.45493	-327.09534	211.5542	7.32303	2095.20025	-475.99695	-34.17414	-87.87636	-222.94558	-292.9212	-227.01393	663.95472	0
761	2098.45493	-327.09534	211.5542	7.32303	2095.20025	-497.96604	-13.01872	-23.59643	-180.63474	-292.9212	-227.01393	663.95472	0
762	2098.45493	-327.09534	211.5542	7.32303	2095.20025	-497.96604	51.26121	61.83892	-115.54114	-292.9212	-205.85851	663.95472	0
763	2098.45493	-327.09534	211.5542	7.32303	2095.20025	-497.96604	94.38572	190.39878	-8.95037	-228.64127	-183.88942	663.95472	0
764	2098.45493	-283.97083	211.5542	-35.80148	2095.20025	-475.99695	158.66565	340.92773	141.57858	-143.20592	-141.57858	663.95472	0
765	2098.45493	-262.81541	232.70962	-57.77057	2095.20025	-454.84153	179.82107	362.08315	227.01393	-78.11232	-98.45407	663.95472	0
766	2098.45493	-198.53548	253.86504	-100.08141	2095.20025	-411.71702	179.82107	384.05224	248.16935	-35.80148	-55.32956	663.95472	0
767	2098.45493	-134.25555	275.83413	-143.20592	2095.20025	-368.59251	179.82107	384.05224	313.26295	50.44754	8.95037	663.95472	0
768	2098.45493	-69.97562	275.83413	-207.48585	2095.20025	-326.28167	51.26121	384.05224	355.57379	157.03831	73.2303	663.95472	0
769	2098.45493	16.2734	275.83413	-250.61036	2095.20025	-240.03265	8.95037	190.39878	377.54288	264.44275	179.82107	663.95472	0
770	2098.45493	294.54854	275.83413	-443.45015	2095.20025	-26.03744	-205.85851	-2.44101	462.97823	521.56247	415.78537	663.95472	0
771	2098.45493	423.1084	296.98955	-528.8855	2095.20025	102.52242	-355.57379	-152.15629	484.13365	650.12233	544.34523	663.95472	0
772	2098.45493	551.66826	296.98955	-593.16543	2095.20025	209.92686	-527.25816	-344.99608	484.13365	757.52677	651.74967	663.95472	0
773	2098.45493	659.0727	296.98955	-657.44536	2095.20025	317.3313	-677.78711	-538.64954	355.57379	864.93121	759.15411	663.95472	0
774	2098.45493	809.60165	296.98955	-721.72529	2095.20025	467.04658	-827.50239	-795.76926	227.01393	950.36656	844.58946	663.95472	0
775	2098.45493	1023.59686	296.98955	-807.97431	2095.20025	703.01088	-1106.5912	-1353.13321	-158.66565	993.49107	908.86939	663.95472	0
776	2098.45493	1131.0013	296.98955	-829.12973	2095.20025	853.53983	-1256.30648	-1631.40835	-415.78537	993.49107	930.83848	663.95472	0
777	2098.45493	1259.56116	296.98955	-893.40966	2095.20025	960.1306	-1427.99085	-1889.34174	-694.87418	779.49586	930.83848	663.95472	0
778	2098.45493	1280.71658	296.98955	-915.37875	2095.20025	982.09969	-1535.39529	-1974.77709	-844.58946	672.09142	930.83848	663.95472	0
779	2098.45493	1280.71658	296.98955	-915.37875	2095.20025	982.09969	-1620.83064	-2017.9016	-973.96299	543.53156	737.99869	663.95472	0
780	2098.45493	1280.71658	296.98955	-915.37875	2095.20025	982.09969	-1641.98606	-2039.05702	-1102.52285	371.84719	630.59425	663.95472	0
781	2098.45493	681.04179	296.98955	-593.16543	2095.20025	445.89116	-1663.95515	-2039.05702	-1337.67348	-164.36134	266.07009	663.95472	0
782	2098.45493	530.51284	296.98955	-486.57466	2095.20025	295.36221	-1341.74183	-1696.50195	-1423.9225	-400.32564	73.2303	663.95472	0
783	2098.45493	358.82847	296.98955	-379.17022	2095.20025	145.64693	-1192.02655	-1567.12842	-1445.07792	-593.16543	-98.45407	663.95472	0
784	2098.45493	209.11319	296.98955	-314.89029	2095.20025	17.08707	-1042.31127	-1417.41314	-1467.04701	-678.60078	-205.85851	663.95472	0
785	2098.45493	80.55333	296.98955	-228.64127	2095.20025	-111.47279	-870.6269	-1202.60426	-1467.04701	-742.88071	-313.26295	663.95472	0
786	2098.45493	-26.85111	296.98955	-186.33043	2095.20025	-218.87723	-634.6626	-924.32912	-1038.24292	-764.8498	-398.6983	663.95472	0
787	2098.45493	-48.00653	296.98955	-164.36134	2095.20025	-240.03265	-548.41358	-816.92468	-951.9939	-764.8498	-419.85372	663.95472	0
788	2098.45493	-91.13104	296.98955	-143.20592	2095.20025	-283.15716	-484.13365	-688.36482	-866.55855	-764.8498	-441.82281	663.95472	0
789	2098.45493	-112.28646	296.98955	-122.0505	2095.20025	-304.31258	-398.6983	-602.92947	-759.15411	-657.44536	-441.82281	663.95472	0
790	2098.45493	-112.28646	296.98955	-122.0505	2095.20025	-304.31258	-334.41837	-495.52503	-673.71876	-593.16543	-441.82281	663.95472	0
791	2098.45493	-112.28646	296.98955	-207.48585	2095.20025	-304.31258	-291.29386	-431.2451	-587.46974	-528.8855	-377.54288	663.95472	0
792	2098.45493	-5.69569	296.98955	-228.64127	2095.20025	-218.87723	-248.98302	-366.96517	-480.0653	-485.76099	-334.41837	663.95472	0
793	2098.45493	16.2734	296.98955	-228.64127	2095.20025	-218.87723	-227.01393	-344.99608	-458.90988	-464.60557	-313.26295	663.95472	0
794	2098.45493	16.2734	296.98955	-228.64127	2095.20025	-218.87723	-205.85851	-323.84066	-458.90988	-464.60557	-313.26295	663.95472	0
795	2098.45493	16.2734	296.98955	-186.33043	2095.20025	-218.87723	-183.88942	-323.84066	-458.90988	-442.63648	-291.29386	663.95472	0
796	2098.45493	-26.85111	296.98955	-186.33043	2095.20025	-218.87723	-162.734	-302.68524	-458.90988	-442.63648	-291.29386	663.95472	0
797	2098.45493	-48.00653	296.98955	-164.36134	2095.20025	-218.87723	-119.60949	-280.71615	-437.75446	-442.63648	-291.29386	663.95472	0
798	2098.45493	-48.00653	296.98955	-164.36134	2095.20025	-218.87723	-98.45407	-259.56073	-437.75446	-442.63648	-291.29386	663.95472	0
799	2098.45493	-48.00653	296.98955	-207.48585	2095.20025	-218.87723	-98.45407	-259.56073	-437.75446	-442.63648	-291.29386	663.95472	0
800	2098.45493	-5.69569	296.98955	-228.64127	2095.20025	-218.87723	-77.29865	-259.56073	-415.78537	-442.63648	-291.29386	663.95472	0
801	2098.45493	-5.69569	296.98955	-250.61036	2095.20025	-218.87723	-77.29865	-259.56073	-415.78537	-464.60557	-291.29386	663.95472	0
802	2098.45493	-5.69569	296.98955	-250.61036	2095.20025	-218.87723	-77.29865	-259.56073	-415.78537	-464.60557	-334.41837	663.95472	0
803	2098.45493	-5.69569	296.98955	-250.61036	2095.20025	-262.00174	-141.57858	-302.68524	-415.78537	-485.76099	-334.41837	663.95472	0
804	2098.45493	-26.85111	296.98955	-250.61036	2095.20025	-262.00174	-162.734	-302.68524	-415.78537	-507.73008	-355.57379	663.95472	0
805	2098.45493	-26.85111	296.98955	-250.61036	2095.20025	-283.15716	-162.734	-302.68524	-458.90988	-507.73008	-355.57379	663.95472	0
806	2098.45493	-26.85111	275.83413	-271.76578	2095.20025	-304.31258	-183.88942	-302.68524	-458.90988	-528.8855	-355.57379	663.95472	0
807	2098.45493	-5.69569	232.70962	-292.9212	2095.20025	-326.28167	-183.88942	-323.84066	-480.0653	-528.8855	-377.54288	663.95472	0
808	2098.45493	-5.69569	211.5542	-336.04571	2095.20025	-347.43709	-183.88942	-323.84066	-480.0653	-550.04092	-398.6983	663.95472	0
809	2098.45493	-5.69569	211.5542	-336.04571	2095.20025	-347.43709	-183.88942	-323.84066	-480.0653	-550.04092	-398.6983	663.95472	0
810	2098.45493	-5.69569	211.5542	-336.04571	2095.20025	-347.43709	-183.88942	-323.84066	-480.0653	-550.04092	-398.6983	663.95472	0
811	2098.45493	-5.69569	253.86504	-314.89029	2095.20025	-347.43709	-183.88942	-302.68524	-437.75446	-550.04092	-398.6983	663.95472	0
812	2098.45493	-5.69569	253.86504	-292.9212	2095.20025	-304.31258	-183.88942	-302.68524	-437.75446	-550.04092	-398.6983	663.95472	0
813	2098.45493	16.2734	275.83413	-292.9212	2095.20025	-304.31258	-183.88942	-302.68524	-415.78537	-528.8855	-377.54288	663.95472	0
814	2098.45493	16.2734	275.83413	-292.9212	2095.20025	-283.15716	-205.85851	-280.71615	-415.78537	-507.73008	-377.54288	663.95472	0
815	2098.45493	16.2734	275.83413	-292.9212	2095.20025	-283.15716	-205.85851	-259.56073	-394.62995	-507.73008	-377.54288	663.95472	0
816	2098.45493	-5.69569	275.83413	-292.9212	2095.20025	-283.15716	-205.85851	-259.56073	-394.62995	-485.76099	-355.57379	663.95472	0
817	2098.45493	-5.69569	275.83413	-271.76578	2095.20025	-262.00174	-205.85851	-259.56073	-373.47453	-464.60557	-334.41837	663.95472	0
818	2098.45493	37.42882	275.83413	-271.76578	2095.20025	-240.03265	-205.85851	-238.40531	-373.47453	-464.60557	-313.26295	663.95472	0
819	2098.45493	37.42882	296.98955	-250.61036	2095.20025	-218.87723	-141.57858	-216.43622	-351.50544	-442.63648	-313.26295	663.95472	0
820	2098.45493	37.42882	296.98955	-228.64127	2095.20025	-218.87723	-119.60949	-195.2808	-330.35002	-442.63648	-313.26295	663.95472	0
821	2098.45493	-5.69569	296.98955	-207.48585	2095.20025	-218.87723	-119.60949	-195.2808	-330.35002	-421.48106	-291.29386	663.95472	0
822	2098.45493	-5.69569	296.98955	-207.48585	2095.20025	-197.72181	-98.45407	-195.2808	-330.35002	-421.48106	-291.29386	663.95472	0
823	2098.45493	-5.69569	296.98955	-186.33043	2095.20025	-175.75272	-77.29865	-174.12538	-309.1946	-421.48106	-291.29386	663.95472	0
824	2098.45493	-5.69569	296.98955	-186.33043	2095.20025	-154.5973	-55.32956	-152.15629	-287.22551	-400.32564	-270.13844	663.95472	0
825	2098.45493	37.42882	296.98955	-143.20592	2095.20025	-111.47279	-34.17414	-131.00087	-244.91467	-357.20113	-227.01393	663.95472	0
826	2098.45493	37.42882	296.98955	-143.20592	2095.20025	-90.31737	-13.01872	-109.84545	-222.94558	-357.20113	-205.85851	663.95472	0
827	2098.45493	58.58424	296.98955	-143.20592	2095.20025	-90.31737	-13.01872	-87.87636	-222.94558	-314.07662	-205.85851	663.95472	0
828	2098.45493	58.58424	296.98955	-122.0505	2095.20025	-68.34828	-13.01872	-87.87636	-222.94558	-292.9212	-205.85851	663.95472	0
829	2098.45493	58.58424	296.98955	-100.08141	2095.20025	-68.34828	8.95037	-66.72094	-201.79016	-292.9212	-183.88942	663.95472	0
830	2098.45493	58.58424	296.98955	-100.08141	2095.20025	-26.03744	8.95037	-23.59643	-180.63474	-292.9212	-183.88942	663.95472	0
831	2098.45493	58.58424	296.98955	-100.08141	2095.20025	-4.06835	30.10579	-23.59643	-158.66565	-271.76578	-162.734	663.95472	0
832	2098.45493	80.55333	296.98955	-100.08141	2095.20025	17.08707	51.26121	-23.59643	-137.51023	-249.79669	-162.734	663.95472	0
833	2098.45493	80.55333	296.98955	-78.92599	2095.20025	17.08707	73.2303	-23.59643	-137.51023	-228.64127	-162.734	663.95472	0
834	2098.45493	80.55333	296.98955	-57.77057	2095.20025	17.08707	73.2303	-23.59643	-115.54114	-228.64127	-162.734	663.95472	0
835	2098.45493	80.55333	296.98955	-35.80148	2095.20025	38.24249	73.2303	-2.44101	-115.54114	-228.64127	-141.57858	663.95472	0
836	2098.45493	58.58424	296.98955	-14.64606	2095.20025	60.21158	94.38572	19.52808	-94.38572	-207.48585	-141.57858	663.95472	0
837	2098.45493	80.55333	296.98955	-14.64606	2095.20025	60.21158	94.38572	40.6835	-94.38572	-207.48585	-141.57858	663.95472	0
838	2098.45493	80.55333	296.98955	7.32303	2095.20025	60.21158	94.38572	61.83892	-94.38572	-207.48585	-119.60949	663.95472	0
839	2098.45493	80.55333	296.98955	7.32303	2095.20025	60.21158	115.54114	83.80801	-73.2303	-185.51676	-119.60949	663.95472	0
840	2098.45493	80.55333	296.98955	7.32303	2095.20025	60.21158	137.51023	83.80801	-51.26121	-185.51676	-98.45407	663.95472	0
841	2098.45493	101.70875	296.98955	-35.80148	2095.20025	124.49151	158.66565	126.11885	-8.95037	-164.36134	-77.29865	663.95472	0
842	2098.45493	101.70875	296.98955	-35.80148	2095.20025	145.64693	179.82107	148.08794	-8.95037	-143.20592	-55.32956	663.95472	0
843	2098.45493	101.70875	296.98955	7.32303	2095.20025	145.64693	179.82107	169.24336	13.01872	-143.20592	-55.32956	663.95472	0
844	2098.45493	101.70875	296.98955	7.32303	2095.20025	145.64693	179.82107	190.39878	13.01872	-121.23683	-55.32956	663.95472	0
845	2098.45493	122.86417	296.98955	7.32303	2095.20025	145.64693	179.82107	212.36787	13.01872	-100.08141	-55.32956	663.95472	0
846	2098.45493	122.86417	296.98955	7.32303	2095.20025	166.80235	179.82107	212.36787	34.17414	-78.11232	-34.17414	663.95472	0
847	2098.45493	122.86417	296.98955	28.47845	2095.20025	188.77144	179.82107	233.52329	98.45407	-56.9569	-13.01872	663.95472	0
848	2098.45493	122.86417	296.98955	28.47845	2095.20025	209.92686	179.82107	254.67871	119.60949	-56.9569	-13.01872	663.95472	0
849	2098.45493	144.83326	296.98955	28.47845	2095.20025	209.92686	179.82107	276.6478	119.60949	-56.9569	-13.01872	663.95472	0
850	2098.45493	165.98868	296.98955	28.47845	2095.20025	231.08228	179.82107	297.80322	141.57858	-56.9569	8.95037	663.95472	0
851	2098.45493	165.98868	296.98955	28.47845	2095.20025	231.08228	179.82107	318.95864	141.57858	-56.9569	8.95037	663.95472	0
852	2098.45493	165.98868	296.98955	28.47845	2095.20025	253.05137	201.79016	362.08315	183.88942	-13.83239	30.10579	663.95472	0
853	2098.45493	187.95777	296.98955	28.47845	2095.20025	253.05137	201.79016	384.05224	205.85851	7.32303	30.10579	663.95472	0
854	2098.45493	209.11319	296.98955	28.47845	2095.20025	274.20679	201.79016	405.20766	227.01393	7.32303	30.10579	663.95472	0
855	2098.45493	209.11319	296.98955	28.47845	2095.20025	295.36221	201.79016	426.36308	248.16935	28.47845	51.26121	663.95472	0
856	2098.45493	209.11319	296.98955	-14.64606	2095.20025	295.36221	179.82107	448.33217	248.16935	28.47845	51.26121	663.95472	0
857	2098.45493	209.11319	296.98955	-14.64606	2095.20025	295.36221	179.82107	448.33217	270.13844	50.44754	73.2303	663.95472	0
858	2098.45493	252.2377	296.98955	-35.80148	2095.20025	338.48672	222.94558	490.64301	334.41837	71.60296	73.2303	663.95472	0
859	2098.45493	273.39312	296.98955	-57.77057	2095.20025	360.45581	244.91467	512.6121	355.57379	71.60296	73.2303	663.95472	0
860	2098.45493	273.39312	296.98955	-57.77057	2095.20025	360.45581	244.91467	533.76752	377.54288	92.75838	73.2303	663.95472	0
861	2098.45493	273.39312	296.98955	-57.77057	2095.20025	360.45581	244.91467	533.76752	377.54288	92.75838	94.38572	663.95472	0
862	2098.45493	273.39312	296.98955	-14.64606	2095.20025	381.61123	244.91467	554.92294	398.6983	114.72747	94.38572	663.95472	0
863	2098.45493	294.54854	296.98955	-14.64606	2095.20025	381.61123	266.07009	554.92294	462.97823	135.88289	115.54114	663.95472	0
864	2098.45493	294.54854	296.98955	-35.80148	2095.20025	381.61123	266.07009	576.89203	484.13365	157.03831	137.51023	663.95472	0
865	2098.45493	316.51763	296.98955	-35.80148	2095.20025	402.76665	287.22551	598.04745	506.10274	179.0074	158.66565	663.95472	0
866	2098.45493	337.67305	296.98955	-57.77057	2095.20025	424.73574	309.1946	619.20287	527.25816	179.0074	158.66565	663.95472	0
867	2098.45493	337.67305	296.98955	-78.92599	2095.20025	445.89116	309.1946	641.17196	548.41358	179.0074	179.82107	663.95472	0
868	2098.45493	358.82847	296.98955	-100.08141	2095.20025	445.89116	309.1946	662.32738	570.38267	200.16282	179.82107	663.95472	0
869	2098.45493	380.79756	296.98955	-100.08141	2095.20025	467.04658	309.1946	683.4828	591.53809	243.28733	201.79016	663.95472	0
870	2098.45493	380.79756	296.98955	-100.08141	2095.20025	467.04658	309.1946	683.4828	612.69351	243.28733	201.79016	663.95472	0
871	2098.45493	380.79756	296.98955	-78.92599	2095.20025	489.01567	309.1946	683.4828	612.69351	264.44275	222.94558	663.95472	0
872	2098.45493	401.95298	296.98955	-100.08141	2095.20025	489.01567	309.1946	683.4828	612.69351	264.44275	244.91467	663.95472	0
873	2098.45493	423.1084	296.98955	-122.0505	2095.20025	510.17109	309.1946	683.4828	634.6626	285.59817	266.07009	663.95472	0
874	2098.45493	423.1084	296.98955	-122.0505	2095.20025	510.17109	309.1946	683.4828	655.81802	307.56726	287.22551	663.95472	0
875	2098.45493	423.1084	296.98955	-122.0505	2095.20025	531.32651	309.1946	683.4828	655.81802	307.56726	287.22551	663.95472	0
876	2098.45493	445.07749	296.98955	-122.0505	2095.20025	531.32651	309.1946	683.4828	676.97344	328.72268	309.1946	663.95472	0
877	2098.45493	445.07749	296.98955	-122.0505	2095.20025	553.2956	287.22551	683.4828	676.97344	350.69177	309.1946	663.95472	0
878	2098.45493	445.07749	296.98955	-122.0505	2095.20025	553.2956	266.07009	662.32738	676.97344	350.69177	309.1946	663.95472	0
879	2098.45493	445.07749	296.98955	-122.0505	2095.20025	553.2956	266.07009	641.17196	676.97344	350.69177	309.1946	663.95472	0
880	2098.45493	445.07749	296.98955	-122.0505	2095.20025	531.32651	266.07009	619.20287	634.6626	350.69177	309.1946	663.95472	0
881	2098.45493	445.07749	296.98955	-122.0505	2095.20025	510.17109	266.07009	619.20287	634.6626	371.84719	309.1946	663.95472	0
882	2098.45493	445.07749	296.98955	-122.0505	2095.20025	489.01567	244.91467	598.04745	612.69351	371.84719	309.1946	663.95472	0
883	2098.45493	445.07749	296.98955	-122.0505	2095.20025	489.01567	222.94558	576.89203	591.53809	371.84719	309.1946	663.95472	0
884	2098.45493	445.07749	296.98955	-122.0505	2095.20025	489.01567	201.79016	576.89203	591.53809	371.84719	309.1946	663.95472	0
885	2098.45493	423.1084	296.98955	-122.0505	2095.20025	467.04658	179.82107	554.92294	570.38267	350.69177	309.1946	663.95472	0
886	2098.45493	380.79756	296.98955	-100.08141	2095.20025	467.04658	158.66565	533.76752	570.38267	350.69177	309.1946	663.95472	0
887	2098.45493	316.51763	296.98955	-78.92599	2095.20025	402.76665	158.66565	533.76752	570.38267	328.72268	309.1946	663.95472	0
888	2098.45493	294.54854	296.98955	-57.77057	2095.20025	381.61123	158.66565	512.6121	548.41358	328.72268	287.22551	663.95472	0
889	2098.45493	294.54854	296.98955	-57.77057	2095.20025	381.61123	158.66565	490.64301	548.41358	328.72268	287.22551	663.95472	0
890	2098.45493	294.54854	296.98955	-57.77057	2095.20025	360.45581	137.51023	469.48759	548.41358	328.72268	287.22551	663.95472	0
891	2098.45493	252.2377	296.98955	-57.77057	2095.20025	317.3313	115.54114	448.33217	506.10274	307.56726	266.07009	663.95472	0
892	2098.45493	230.26861	296.98955	-35.80148	2095.20025	295.36221	94.38572	426.36308	484.13365	285.59817	266.07009	663.95472	0
893	2098.45493	209.11319	296.98955	-35.80148	2095.20025	274.20679	94.38572	405.20766	462.97823	285.59817	266.07009	663.95472	0
894	2098.45493	209.11319	296.98955	-14.64606	2095.20025	274.20679	73.2303	405.20766	462.97823	264.44275	266.07009	663.95472	0
895	2098.45493	187.95777	296.98955	-14.64606	2095.20025	231.08228	73.2303	405.20766	462.97823	264.44275	266.07009	663.95472	0
896	2098.45493	122.86417	296.98955	7.32303	2095.20025	188.77144	30.10579	340.92773	398.6983	221.31824	222.94558	663.95472	0
897	2098.45493	80.55333	296.98955	28.47845	2095.20025	145.64693	30.10579	297.80322	355.57379	179.0074	179.82107	663.95472	0
898	2098.45493	58.58424	296.98955	28.47845	2095.20025	124.49151	8.95037	297.80322	334.41837	157.03831	158.66565	663.95472	0
899	2098.45493	58.58424	296.98955	28.47845	2095.20025	102.52242	8.95037	297.80322	334.41837	135.88289	158.66565	663.95472	0
900	2098.45493	37.42882	296.98955	49.63387	2095.20025	81.367	8.95037	276.6478	334.41837	135.88289	158.66565	663.95472	0
901	2098.45493	16.2734	296.98955	49.63387	2095.20025	60.21158	8.95037	276.6478	313.26295	135.88289	158.66565	663.95472	0
902	2098.45493	-5.69569	296.98955	49.63387	2095.20025	38.24249	8.95037	254.67871	291.29386	114.72747	158.66565	663.95472	0
903	2098.45493	-5.69569	296.98955	28.47845	2095.20025	38.24249	-13.01872	233.52329	270.13844	114.72747	137.51023	663.95472	0
904	2098.45493	-48.00653	296.98955	71.60296	2095.20025	-4.06835	-13.01872	233.52329	248.16935	92.75838	137.51023	663.95472	0
905	2098.45493	-91.13104	296.98955	113.9138	2095.20025	-4.06835	-13.01872	190.39878	227.01393	71.60296	115.54114	663.95472	0
906	2098.45493	-112.28646	296.98955	135.88289	2095.20025	-26.03744	-34.17414	169.24336	227.01393	50.44754	94.38572	663.95472	0
907	2098.45493	-112.28646	296.98955	135.88289	2095.20025	-47.19286	-55.32956	169.24336	205.85851	28.47845	73.2303	663.95472	0
908	2098.45493	-134.25555	296.98955	135.88289	2095.20025	-68.34828	-55.32956	169.24336	183.88942	28.47845	73.2303	663.95472	0
909	2098.45493	-155.41097	296.98955	135.88289	2095.20025	-90.31737	-55.32956	148.08794	162.734	28.47845	73.2303	663.95472	0
910	2098.45493	-155.41097	296.98955	135.88289	2095.20025	-111.47279	-55.32956	148.08794	162.734	7.32303	51.26121	663.95472	0
911	2098.45493	-176.56639	296.98955	135.88289	2095.20025	-111.47279	-55.32956	126.11885	162.734	7.32303	51.26121	663.95472	0
912	2098.45493	-176.56639	296.98955	157.03831	2095.20025	-111.47279	-55.32956	126.11885	141.57858	7.32303	51.26121	663.95472	0
913	2098.45493	-176.56639	296.98955	113.9138	2095.20025	-133.44188	-55.32956	104.96343	141.57858	-13.83239	51.26121	663.95472	0
914	2098.45493	-176.56639	296.98955	113.9138	2095.20025	-133.44188	-77.29865	104.96343	119.60949	-35.80148	51.26121	663.95472	0
915	2098.45493	-176.56639	296.98955	113.9138	2095.20025	-133.44188	-77.29865	83.80801	119.60949	-35.80148	51.26121	663.95472	0
916	2098.45493	-176.56639	296.98955	113.9138	2095.20025	-133.44188	-77.29865	83.80801	119.60949	-35.80148	51.26121	663.95472	0
917	2098.45493	-198.53548	296.98955	157.03831	2095.20025	-154.5973	-77.29865	61.83892	98.45407	-35.80148	30.10579	663.95472	0
918	2098.45493	-241.65999	296.98955	178.19373	2095.20025	-175.75272	-77.29865	61.83892	77.29865	-78.11232	8.95037	663.95472	0
919	2098.45493	-262.81541	296.98955	200.16282	2095.20025	-175.75272	-77.29865	61.83892	77.29865	-78.11232	8.95037	663.95472	0
920	2098.45493	-262.81541	296.98955	200.16282	2095.20025	-175.75272	-77.29865	61.83892	77.29865	-78.11232	8.95037	663.95472	0
921	2098.45493	-262.81541	296.98955	200.16282	2095.20025	-175.75272	-77.29865	61.83892	77.29865	-78.11232	8.95037	663.95472	0
922	2098.45493	-219.6909	296.98955	157.03831	2095.20025	-154.5973	-77.29865	61.83892	77.29865	-78.11232	8.95037	663.95472	0
923	2098.45493	-198.53548	296.98955	157.03831	2095.20025	-154.5973	-77.29865	61.83892	77.29865	-78.11232	8.95037	663.95472	0
924	2098.45493	-198.53548	296.98955	157.03831	2095.20025	-154.5973	-77.29865	61.83892	55.32956	-78.11232	8.95037	663.95472	0
925	2098.45493	-262.81541	296.98955	200.16282	2095.20025	-197.72181	-77.29865	40.6835	34.17414	-100.08141	8.95037	663.95472	0
926	2098.45493	-262.81541	296.98955	200.16282	2095.20025	-197.72181	-77.29865	40.6835	34.17414	-100.08141	-13.01872	663.95472	0
927	2098.45493	-283.97083	296.98955	221.31824	2095.20025	-218.87723	-98.45407	19.52808	13.01872	-100.08141	-13.01872	663.95472	0
928	2098.45493	-283.97083	296.98955	221.31824	2095.20025	-218.87723	-98.45407	19.52808	13.01872	-100.08141	-13.01872	663.95472	0
929	2098.45493	-283.97083	296.98955	221.31824	2095.20025	-218.87723	-77.29865	19.52808	13.01872	-100.08141	8.95037	663.95472	0
930	2098.45493	-241.65999	296.98955	221.31824	2095.20025	-175.75272	-77.29865	19.52808	55.32956	-100.08141	30.10579	663.95472	0
931	2098.45493	-219.6909	296.98955	178.19373	2095.20025	-154.5973	-55.32956	19.52808	55.32956	-56.9569	30.10579	663.95472	0
932	2098.45493	-198.53548	296.98955	157.03831	2095.20025	-154.5973	-55.32956	40.6835	55.32956	-56.9569	30.10579	663.95472	0
933	2098.45493	-198.53548	296.98955	157.03831	2095.20025	-154.5973	-55.32956	40.6835	55.32956	-56.9569	30.10579	663.95472	0
934	2098.45493	-198.53548	296.98955	157.03831	2095.20025	-154.5973	-55.32956	40.6835	55.32956	-56.9569	8.95037	663.95472	0
935	2098.45493	-262.81541	296.98955	200.16282	2095.20025	-197.72181	-98.45407	19.52808	34.17414	-56.9569	8.95037	663.95472	0
936	2098.45493	-262.81541	296.98955	200.16282	2095.20025	-154.5973	-98.45407	19.52808	13.01872	-100.08141	8.95037	663.95472	0
937	2098.45493	-262.81541	296.98955	200.16282	2095.20025	-154.5973	-77.29865	-2.44101	13.01872	-100.08141	8.95037	663.95472	0
938	2098.45493	-262.81541	296.98955	200.16282	2095.20025	-154.5973	-98.45407	-2.44101	13.01872	-121.23683	-13.01872	663.95472	0
