samplenr	I	II	III	aVR	aVL	aVF	V1	V2	V3	V4	V5	V6	measurement
0	-19.52808	-38.24249	-20.34175	28.47845	-0.81367	-29.29212	43.93818	-30.10579	8.1367	-5.69569	-19.52808	-17.08707	0
1	-21.96909	-38.24249	-17.90074	28.47845	-3.25468	-29.29212	46.37919	-27.66478	8.1367	-5.69569	-19.52808	-17.08707	0
2	-21.96909	-38.24249	-17.90074	28.47845	-3.25468	-29.29212	43.93818	-25.22377	5.69569	-8.1367	-19.52808	-19.52808	0
3	-19.52808	-38.24249	-20.34175	28.47845	-0.81367	-29.29212	43.93818	-22.78276	3.25468	-8.1367	-19.52808	-19.52808	0
4	-24.4101	-38.24249	-15.45973	30.91946	-5.69569	-26.85111	43.93818	-20.34175	5.69569	-8.1367	-17.08707	-21.96909	0
5	-31.73313	-38.24249	-8.1367	33.36047	-13.01872	-24.4101	43.93818	-20.34175	5.69569	-5.69569	-14.64606	-21.96909	0
6	-36.61515	-38.24249	-3.25468	35.80148	-17.90074	-21.96909	46.37919	-17.90074	8.1367	-5.69569	-12.20505	-21.96909	0
7	-36.61515	-40.6835	-5.69569	38.24249	-17.90074	-24.4101	46.37919	-17.90074	8.1367	-5.69569	-14.64606	-24.4101	0
8	-43.93818	-45.56552	-3.25468	43.12451	-22.78276	-24.4101	46.37919	-20.34175	11.39138	-5.69569	-17.08707	-26.85111	0
9	-48.8202	-50.44754	-3.25468	48.00653	-25.22377	-26.85111	48.8202	-20.34175	11.39138	-8.1367	-19.52808	-26.85111	0
10	-53.70222	-48.00653	4.88202	50.44754	-30.10579	-21.96909	53.70222	-15.45973	13.83239	-5.69569	-17.08707	-26.85111	0
11	-53.70222	-45.56552	7.32303	48.00653	-32.5468	-19.52808	58.58424	-10.57771	16.2734	-5.69569	-17.08707	-26.85111	0
12	-43.93818	-45.56552	-3.25468	43.12451	-22.78276	-24.4101	58.58424	-10.57771	13.83239	-5.69569	-17.08707	-26.85111	0
13	-31.73313	-43.12451	-13.01872	35.80148	-10.57771	-29.29212	58.58424	-8.1367	8.1367	-8.1367	-17.08707	-29.29212	0
14	-24.4101	-40.6835	-17.90074	30.91946	-5.69569	-29.29212	58.58424	-8.1367	8.1367	-8.1367	-12.20505	-29.29212	0
15	-19.52808	-40.6835	-22.78276	28.47845	-0.81367	-31.73313	58.58424	-8.1367	8.1367	-8.1367	-12.20505	-29.29212	0
16	-19.52808	-40.6835	-22.78276	28.47845	-0.81367	-31.73313	56.14323	-5.69569	8.1367	-10.57771	-14.64606	-31.73313	0
17	-17.08707	-40.6835	-25.22377	28.47845	2.44101	-34.17414	56.14323	-8.1367	11.39138	-10.57771	-19.52808	-34.17414	0
18	-17.08707	-43.12451	-27.66478	28.47845	4.88202	-36.61515	56.14323	-5.69569	11.39138	-13.01872	-24.4101	-39.05616	0
19	-21.96909	-43.12451	-22.78276	30.91946	-0.81367	-34.17414	56.14323	-3.25468	11.39138	-13.01872	-24.4101	-39.05616	0
20	-24.4101	-43.12451	-20.34175	33.36047	-3.25468	-31.73313	56.14323	1.62734	11.39138	-13.01872	-24.4101	-41.49717	0
21	-24.4101	-45.56552	-22.78276	33.36047	-3.25468	-34.17414	56.14323	6.50936	8.1367	-13.01872	-26.85111	-41.49717	0
22	-26.85111	-45.56552	-20.34175	35.80148	-5.69569	-34.17414	56.14323	11.39138	8.1367	-13.01872	-24.4101	-41.49717	0
23	-29.29212	-45.56552	-17.90074	35.80148	-8.1367	-31.73313	56.14323	18.71441	8.1367	-13.01872	-19.52808	-41.49717	0
24	-34.17414	-48.00653	-15.45973	40.6835	-10.57771	-31.73313	58.58424	24.4101	8.1367	-8.1367	-12.20505	-36.61515	0
25	-46.37919	-45.56552	-0.81367	45.56552	-25.22377	-24.4101	63.46626	34.17414	16.2734	-3.25468	-4.06835	-29.29212	0
26	-53.70222	-45.56552	7.32303	48.00653	-32.5468	-19.52808	68.34828	41.49717	23.59643	1.62734	0.81367	-24.4101	0
27	-53.70222	-45.56552	7.32303	48.00653	-32.5468	-19.52808	70.78929	48.8202	30.91946	6.50936	3.25468	-21.96909	0
28	-56.14323	-45.56552	9.76404	50.44754	-34.98781	-19.52808	73.2303	56.14323	35.80148	8.95037	5.69569	-19.52808	0
29	-51.26121	-43.12451	7.32303	45.56552	-30.10579	-19.52808	73.2303	61.02525	38.24249	8.95037	5.69569	-19.52808	0
30	-48.8202	-43.12451	4.88202	45.56552	-27.66478	-19.52808	70.78929	65.90727	38.24249	8.95037	5.69569	-17.08707	0
31	-41.49717	-48.00653	-8.1367	43.12451	-17.90074	-29.29212	65.90727	65.90727	30.91946	4.06835	0.81367	-24.4101	0
32	-34.17414	-50.44754	-17.90074	40.6835	-10.57771	-34.17414	61.02525	65.90727	26.03744	-0.81367	-4.06835	-29.29212	0
33	-34.17414	-55.32956	-22.78276	43.12451	-8.1367	-39.05616	61.02525	70.78929	21.15542	-3.25468	-6.50936	-29.29212	0
34	-34.17414	-60.21158	-27.66478	45.56552	-5.69569	-43.93818	53.70222	65.90727	16.2734	-5.69569	-6.50936	-31.73313	0
35	-36.61515	-65.0936	-30.10579	50.44754	-5.69569	-48.8202	48.8202	63.46626	13.83239	-8.1367	-4.06835	-34.17414	0
36	-41.49717	-69.97562	-30.10579	55.32956	-8.1367	-51.26121	46.37919	63.46626	13.83239	-8.1367	-4.06835	-31.73313	0
37	-48.8202	-69.97562	-22.78276	57.77057	-15.45973	-46.37919	46.37919	65.90727	18.71441	-3.25468	-1.62734	-29.29212	0
38	-51.26121	-67.53461	-17.90074	57.77057	-17.90074	-43.93818	48.8202	68.34828	18.71441	-3.25468	-1.62734	-24.4101	0
39	-56.14323	-67.53461	-13.01872	60.21158	-22.78276	-41.49717	48.8202	68.34828	21.15542	1.62734	3.25468	-21.96909	0
40	-63.46626	-65.0936	-3.25468	62.65259	-32.5468	-34.17414	53.70222	75.67131	23.59643	6.50936	8.1367	-17.08707	0
41	-68.34828	-62.65259	4.88202	65.0936	-37.42882	-29.29212	58.58424	85.43535	28.47845	13.83239	13.01872	-14.64606	0
42	-63.46626	-57.77057	4.88202	60.21158	-34.98781	-26.85111	58.58424	92.75838	30.91946	18.71441	15.45973	-12.20505	0
43	-56.14323	-55.32956	-0.81367	55.32956	-30.10579	-29.29212	61.02525	97.6404	28.47845	18.71441	17.90074	-12.20505	0
44	-51.26121	-55.32956	-5.69569	52.88855	-25.22377	-31.73313	58.58424	97.6404	26.03744	16.2734	17.90074	-14.64606	0
45	-46.37919	-60.21158	-15.45973	52.88855	-17.90074	-39.05616	56.14323	95.19939	23.59643	11.39138	15.45973	-19.52808	0
46	-41.49717	-62.65259	-22.78276	50.44754	-10.57771	-43.93818	51.26121	92.75838	21.15542	4.06835	10.57771	-24.4101	0
47	-41.49717	-62.65259	-22.78276	50.44754	-10.57771	-43.93818	48.8202	90.31737	21.15542	-0.81367	5.69569	-26.85111	0
48	-46.37919	-65.0936	-20.34175	55.32956	-15.45973	-43.93818	46.37919	90.31737	18.71441	-3.25468	-1.62734	-29.29212	0
49	-53.70222	-67.53461	-15.45973	60.21158	-20.34175	-41.49717	43.93818	87.87636	18.71441	-5.69569	-1.62734	-31.73313	0
50	-61.02525	-67.53461	-8.1367	62.65259	-27.66478	-39.05616	43.93818	90.31737	18.71441	-5.69569	-1.62734	-34.17414	0
51	-70.78929	-67.53461	2.44101	67.53461	-37.42882	-34.17414	41.49717	92.75838	18.71441	-5.69569	0.81367	-34.17414	0
52	-73.2303	-65.0936	7.32303	67.53461	-42.31084	-29.29212	41.49717	97.6404	18.71441	-3.25468	5.69569	-31.73313	0
53	-75.67131	-65.0936	9.76404	69.97562	-44.75185	-29.29212	43.93818	100.08141	21.15542	-0.81367	10.57771	-29.29212	0
54	-78.11232	-65.0936	12.20505	69.97562	-47.19286	-26.85111	48.8202	100.08141	23.59643	1.62734	15.45973	-26.85111	0
55	-80.55333	-69.97562	9.76404	74.85764	-47.19286	-31.73313	51.26121	97.6404	23.59643	1.62734	20.34175	-26.85111	0
56	-82.99434	-74.85764	7.32303	77.29865	-47.19286	-34.17414	53.70222	95.19939	26.03744	1.62734	22.78276	-24.4101	0
57	-78.11232	-74.85764	2.44101	74.85764	-42.31084	-36.61515	58.58424	95.19939	30.91946	1.62734	20.34175	-24.4101	0
58	-70.78929	-74.85764	-5.69569	72.41663	-34.98781	-41.49717	58.58424	95.19939	33.36047	-0.81367	15.45973	-26.85111	0
59	-65.90727	-74.85764	-10.57771	69.97562	-30.10579	-43.93818	56.14323	92.75838	33.36047	-5.69569	13.01872	-26.85111	0
60	-61.02525	-69.97562	-10.57771	65.0936	-27.66478	-41.49717	53.70222	95.19939	35.80148	-8.1367	13.01872	-26.85111	0
61	-51.26121	-65.0936	-15.45973	57.77057	-20.34175	-41.49717	46.37919	87.87636	30.91946	-13.01872	10.57771	-31.73313	0
62	-43.93818	-62.65259	-20.34175	52.88855	-13.01872	-41.49717	41.49717	85.43535	26.03744	-15.45973	10.57771	-31.73313	0
63	-43.93818	-57.77057	-15.45973	50.44754	-15.45973	-36.61515	39.05616	85.43535	26.03744	-15.45973	15.45973	-31.73313	0
64	-48.8202	-57.77057	-10.57771	52.88855	-20.34175	-34.17414	36.61515	78.11232	23.59643	-13.01872	20.34175	-29.29212	0
65	-56.14323	-62.65259	-8.1367	57.77057	-25.22377	-36.61515	39.05616	70.78929	23.59643	-10.57771	27.66478	-24.4101	0
66	-56.14323	-67.53461	-13.01872	60.21158	-22.78276	-41.49717	41.49717	65.90727	23.59643	-10.57771	30.10579	-21.96909	0
67	-61.02525	-72.41663	-13.01872	65.0936	-25.22377	-43.93818	46.37919	63.46626	23.59643	-10.57771	30.10579	-21.96909	0
68	-73.2303	-79.73966	-8.1367	74.85764	-34.98781	-43.93818	53.70222	65.90727	28.47845	-8.1367	30.10579	-19.52808	0
69	-73.2303	-84.62168	-13.01872	77.29865	-32.5468	-48.8202	56.14323	63.46626	26.03744	-10.57771	30.10579	-21.96909	0
70	-63.46626	-87.06269	-25.22377	74.85764	-20.34175	-56.14323	56.14323	63.46626	21.15542	-10.57771	27.66478	-21.96909	0
71	-63.46626	-87.06269	-25.22377	74.85764	-20.34175	-56.14323	56.14323	63.46626	21.15542	-8.1367	27.66478	-21.96909	0
72	-68.34828	-84.62168	-17.90074	74.85764	-27.66478	-51.26121	53.70222	65.90727	18.71441	-8.1367	30.10579	-21.96909	0
73	-61.02525	-79.73966	-20.34175	69.97562	-22.78276	-51.26121	51.26121	65.90727	18.71441	-5.69569	32.5468	-21.96909	0
74	-53.70222	-74.85764	-22.78276	62.65259	-17.90074	-48.8202	51.26121	65.90727	18.71441	-3.25468	37.42882	-21.96909	0
75	-56.14323	-72.41663	-17.90074	62.65259	-20.34175	-46.37919	48.8202	65.90727	23.59643	-3.25468	42.31084	-21.96909	0
76	-65.90727	-72.41663	-8.1367	67.53461	-30.10579	-41.49717	53.70222	65.90727	28.47845	1.62734	44.75185	-17.08707	0
77	-68.34828	-72.41663	-5.69569	69.97562	-32.5468	-39.05616	56.14323	65.90727	33.36047	1.62734	42.31084	-17.08707	0
78	-63.46626	-72.41663	-10.57771	67.53461	-27.66478	-41.49717	58.58424	65.90727	33.36047	-0.81367	39.86983	-17.08707	0
79	-63.46626	-74.85764	-13.01872	67.53461	-27.66478	-43.93818	61.02525	63.46626	33.36047	-3.25468	37.42882	-19.52808	0
80	-65.90727	-77.29865	-13.01872	69.97562	-27.66478	-46.37919	61.02525	63.46626	33.36047	-5.69569	34.98781	-24.4101	0
81	-68.34828	-79.73966	-13.01872	72.41663	-30.10579	-46.37919	61.02525	61.02525	33.36047	-5.69569	32.5468	-24.4101	0
82	-68.34828	-82.18067	-15.45973	74.85764	-27.66478	-48.8202	61.02525	58.58424	28.47845	-8.1367	30.10579	-29.29212	0
83	-65.90727	-82.18067	-17.90074	72.41663	-25.22377	-51.26121	61.02525	56.14323	23.59643	-10.57771	30.10579	-29.29212	0
84	-73.2303	-84.62168	-13.01872	77.29865	-32.5468	-48.8202	61.02525	56.14323	23.59643	-10.57771	32.5468	-29.29212	0
85	-78.11232	-87.06269	-10.57771	82.18067	-34.98781	-48.8202	61.02525	53.70222	23.59643	-10.57771	34.98781	-31.73313	0
86	-78.11232	-87.06269	-10.57771	82.18067	-34.98781	-48.8202	56.14323	48.8202	23.59643	-10.57771	34.98781	-31.73313	0
87	-78.11232	-84.62168	-8.1367	79.73966	-37.42882	-46.37919	56.14323	46.37919	23.59643	-10.57771	30.10579	-31.73313	0
88	-75.67131	-82.18067	-8.1367	77.29865	-34.98781	-46.37919	51.26121	43.93818	23.59643	-13.01872	27.66478	-31.73313	0
89	-75.67131	-79.73966	-5.69569	77.29865	-37.42882	-43.93818	51.26121	41.49717	26.03744	-13.01872	27.66478	-31.73313	0
90	-78.11232	-77.29865	-0.81367	77.29865	-39.86983	-39.05616	51.26121	43.93818	26.03744	-13.01872	27.66478	-31.73313	0
91	-78.11232	-74.85764	2.44101	74.85764	-42.31084	-36.61515	51.26121	43.93818	26.03744	-15.45973	27.66478	-31.73313	0
92	-78.11232	-74.85764	2.44101	74.85764	-42.31084	-36.61515	53.70222	43.93818	26.03744	-15.45973	27.66478	-31.73313	0
93	-82.99434	-72.41663	9.76404	77.29865	-47.19286	-31.73313	58.58424	46.37919	26.03744	-13.01872	32.5468	-29.29212	0
94	-80.55333	-69.97562	9.76404	74.85764	-47.19286	-31.73313	61.02525	43.93818	23.59643	-10.57771	37.42882	-26.85111	0
95	-78.11232	-69.97562	7.32303	72.41663	-44.75185	-31.73313	61.02525	41.49717	21.15542	-10.57771	39.86983	-26.85111	0
96	-70.78929	-72.41663	-3.25468	69.97562	-34.98781	-39.05616	58.58424	36.61515	18.71441	-13.01872	37.42882	-26.85111	0
97	-68.34828	-69.97562	-3.25468	67.53461	-34.98781	-36.61515	58.58424	34.17414	21.15542	-13.01872	37.42882	-26.85111	0
98	-63.46626	-65.0936	-3.25468	62.65259	-32.5468	-34.17414	58.58424	34.17414	21.15542	-13.01872	32.5468	-26.85111	0
99	-58.58424	-65.0936	-8.1367	60.21158	-27.66478	-36.61515	56.14323	31.73313	18.71441	-15.45973	27.66478	-29.29212	0
100	-56.14323	-67.53461	-13.01872	60.21158	-22.78276	-41.49717	53.70222	31.73313	16.2734	-18.71441	25.22377	-31.73313	1000	P+0
101	-56.14323	-67.53461	-13.01872	60.21158	-22.78276	-41.49717	53.70222	34.17414	18.71441	-18.71441	25.22377	-31.73313	0
102	-53.70222	-67.53461	-15.45973	60.21158	-20.34175	-41.49717	53.70222	39.05616	18.71441	-15.45973	25.22377	-31.73313	0
103	-51.26121	-65.0936	-15.45973	57.77057	-20.34175	-41.49717	53.70222	41.49717	16.2734	-15.45973	27.66478	-34.17414	0
104	-43.93818	-69.97562	-27.66478	55.32956	-10.57771	-48.8202	48.8202	34.17414	8.1367	-18.71441	27.66478	-36.61515	0
105	-48.8202	-74.85764	-27.66478	60.21158	-13.01872	-51.26121	46.37919	31.73313	8.1367	-18.71441	27.66478	-34.17414	0
106	-51.26121	-79.73966	-30.10579	65.0936	-13.01872	-56.14323	43.93818	29.29212	5.69569	-18.71441	30.10579	-34.17414	0
107	-53.70222	-82.18067	-30.10579	67.53461	-13.01872	-56.14323	41.49717	26.85111	3.25468	-18.71441	25.22377	-31.73313	0
108	-61.02525	-87.06269	-27.66478	72.41663	-17.90074	-58.58424	39.05616	24.4101	3.25468	-18.71441	25.22377	-29.29212	0
109	-68.34828	-89.5037	-22.78276	77.29865	-25.22377	-56.14323	36.61515	24.4101	3.25468	-18.71441	25.22377	-29.29212	0
110	-73.2303	-87.06269	-15.45973	79.73966	-30.10579	-51.26121	36.61515	29.29212	3.25468	-18.71441	27.66478	-24.4101	0
111	-78.11232	-82.18067	-5.69569	79.73966	-37.42882	-43.93818	39.05616	34.17414	8.1367	-15.45973	27.66478	-24.4101	0
112	-85.43535	-82.18067	2.44101	82.18067	-44.75185	-41.49717	41.49717	41.49717	8.1367	-15.45973	30.10579	-21.96909	0
113	-90.31737	-82.18067	7.32303	84.62168	-49.63387	-39.05616	41.49717	43.93818	8.1367	-13.01872	30.10579	-21.96909	0
114	-87.87636	-77.29865	9.76404	82.18067	-49.63387	-34.17414	41.49717	43.93818	8.1367	-13.01872	32.5468	-19.52808	0
115	-78.11232	-74.85764	2.44101	74.85764	-42.31084	-36.61515	39.05616	41.49717	8.1367	-15.45973	32.5468	-19.52808	0
116	-73.2303	-69.97562	2.44101	69.97562	-39.86983	-34.17414	39.05616	39.05616	8.1367	-15.45973	32.5468	-19.52808	0
117	-65.90727	-65.0936	-0.81367	65.0936	-34.98781	-34.17414	39.05616	39.05616	8.1367	-15.45973	30.10579	-17.08707	0
118	-56.14323	-60.21158	-5.69569	57.77057	-27.66478	-34.17414	39.05616	39.05616	8.1367	-18.71441	30.10579	-14.64606	0
119	-48.8202	-55.32956	-8.1367	50.44754	-22.78276	-31.73313	41.49717	39.05616	11.39138	-18.71441	30.10579	-14.64606	0
120	-48.8202	-55.32956	-8.1367	50.44754	-22.78276	-31.73313	41.49717	39.05616	8.1367	-18.71441	27.66478	-14.64606	0
121	-56.14323	-62.65259	-8.1367	57.77057	-25.22377	-36.61515	39.05616	36.61515	3.25468	-21.15542	25.22377	-17.08707	0
122	-58.58424	-62.65259	-5.69569	60.21158	-27.66478	-34.17414	39.05616	36.61515	3.25468	-21.15542	25.22377	-19.52808	0
123	-61.02525	-62.65259	-3.25468	60.21158	-30.10579	-34.17414	39.05616	39.05616	0.81367	-18.71441	27.66478	-19.52808	0
124	-63.46626	-62.65259	-0.81367	62.65259	-32.5468	-31.73313	39.05616	39.05616	0.81367	-18.71441	30.10579	-17.08707	0
125	-61.02525	-62.65259	-3.25468	60.21158	-30.10579	-34.17414	39.05616	39.05616	0.81367	-15.45973	32.5468	-14.64606	0
126	-61.02525	-55.32956	4.88202	57.77057	-34.98781	-26.85111	41.49717	41.49717	3.25468	-13.01872	34.98781	-12.20505	0
127	-53.70222	-48.00653	4.88202	50.44754	-30.10579	-21.96909	43.93818	43.93818	11.39138	-8.1367	37.42882	-7.32303	0
128	-43.93818	-38.24249	4.88202	40.6835	-25.22377	-17.08707	48.8202	48.8202	13.83239	-5.69569	34.98781	-7.32303	0
129	-41.49717	-35.80148	4.88202	38.24249	-25.22377	-17.08707	48.8202	48.8202	13.83239	-5.69569	34.98781	-7.32303	0
130	-43.93818	-35.80148	7.32303	38.24249	-27.66478	-14.64606	51.26121	48.8202	13.83239	-5.69569	34.98781	-7.32303	0
131	-43.93818	-40.6835	2.44101	40.6835	-25.22377	-19.52808	48.8202	48.8202	11.39138	-10.57771	30.10579	-12.20505	0
132	-43.93818	-48.00653	-5.69569	45.56552	-20.34175	-26.85111	43.93818	46.37919	8.1367	-15.45973	22.78276	-17.08707	0
133	-43.93818	-52.88855	-10.57771	48.00653	-17.90074	-31.73313	41.49717	43.93818	0.81367	-18.71441	20.34175	-24.4101	0
134	-51.26121	-57.77057	-8.1367	52.88855	-22.78276	-34.17414	39.05616	39.05616	-1.62734	-18.71441	22.78276	-24.4101	0
135	-61.02525	-62.65259	-3.25468	60.21158	-30.10579	-34.17414	39.05616	34.17414	-1.62734	-18.71441	25.22377	-24.4101	0
136	-61.02525	-65.0936	-5.69569	62.65259	-30.10579	-36.61515	36.61515	31.73313	-1.62734	-18.71441	27.66478	-24.4101	0
137	-61.02525	-60.21158	-0.81367	60.21158	-32.5468	-31.73313	36.61515	34.17414	0.81367	-18.71441	27.66478	-21.96909	0
138	-61.02525	-52.88855	7.32303	55.32956	-34.98781	-24.4101	39.05616	36.61515	5.69569	-15.45973	30.10579	-17.08707	0
139	-61.02525	-48.00653	12.20505	52.88855	-37.42882	-19.52808	41.49717	36.61515	5.69569	-13.01872	32.5468	-12.20505	0
140	-56.14323	-43.12451	12.20505	48.00653	-34.98781	-17.08707	41.49717	41.49717	8.1367	-10.57771	34.98781	-9.76404	0
141	-51.26121	-35.80148	14.64606	43.12451	-34.98781	-12.20505	43.93818	46.37919	8.1367	-8.1367	34.98781	-9.76404	0
142	-48.8202	-33.36047	14.64606	40.6835	-32.5468	-9.76404	43.93818	48.8202	8.1367	-8.1367	32.5468	-12.20505	0
143	-53.70222	-35.80148	17.08707	43.12451	-37.42882	-9.76404	41.49717	51.26121	5.69569	-8.1367	32.5468	-14.64606	0
144	-56.14323	-38.24249	17.08707	45.56552	-37.42882	-12.20505	41.49717	51.26121	5.69569	-5.69569	34.98781	-14.64606	0
145	-61.02525	-43.12451	17.08707	50.44754	-39.86983	-14.64606	41.49717	48.8202	5.69569	-3.25468	34.98781	-14.64606	0
146	-65.90727	-45.56552	19.52808	55.32956	-44.75185	-14.64606	41.49717	48.8202	5.69569	-0.81367	34.98781	-17.08707	0
147	-61.02525	-48.00653	12.20505	52.88855	-37.42882	-19.52808	36.61515	46.37919	5.69569	-0.81367	30.10579	-19.52808	0
148	-63.46626	-52.88855	9.76404	57.77057	-37.42882	-21.96909	36.61515	43.93818	3.25468	-3.25468	25.22377	-21.96909	0
149	-63.46626	-57.77057	4.88202	60.21158	-34.98781	-26.85111	36.61515	41.49717	3.25468	-3.25468	22.78276	-21.96909	0
150	-65.90727	-60.21158	4.88202	62.65259	-37.42882	-29.29212	34.17414	41.49717	3.25468	-3.25468	22.78276	-21.96909	0
151	-68.34828	-60.21158	7.32303	62.65259	-39.86983	-26.85111	31.73313	43.93818	3.25468	-0.81367	22.78276	-21.96909	0
152	-75.67131	-60.21158	14.64606	67.53461	-47.19286	-24.4101	34.17414	48.8202	3.25468	1.62734	27.66478	-17.08707	0
153	-75.67131	-57.77057	17.08707	65.0936	-47.19286	-21.96909	34.17414	48.8202	3.25468	4.06835	30.10579	-17.08707	0
154	-75.67131	-55.32956	19.52808	65.0936	-49.63387	-19.52808	34.17414	48.8202	3.25468	4.06835	34.98781	-17.08707	0
155	-68.34828	-48.00653	19.52808	57.77057	-44.75185	-14.64606	34.17414	48.8202	5.69569	4.06835	37.42882	-12.20505	0
156	-61.02525	-43.12451	17.08707	50.44754	-39.86983	-14.64606	34.17414	46.37919	5.69569	4.06835	37.42882	-12.20505	0
157	-58.58424	-40.6835	17.08707	48.00653	-39.86983	-12.20505	34.17414	43.93818	8.1367	4.06835	32.5468	-9.76404	0
158	-61.02525	-40.6835	19.52808	50.44754	-42.31084	-12.20505	34.17414	43.93818	8.1367	1.62734	30.10579	-9.76404	0
159	-51.26121	-40.6835	9.76404	45.56552	-32.5468	-17.08707	31.73313	41.49717	8.1367	-0.81367	27.66478	-9.76404	0
160	-51.26121	-38.24249	12.20505	43.12451	-32.5468	-14.64606	31.73313	41.49717	5.69569	-0.81367	27.66478	-7.32303	0
161	-53.70222	-40.6835	12.20505	45.56552	-34.98781	-14.64606	31.73313	43.93818	5.69569	1.62734	30.10579	-4.88202	0
162	-53.70222	-45.56552	7.32303	48.00653	-32.5468	-19.52808	31.73313	46.37919	5.69569	1.62734	30.10579	-4.88202	0
163	-56.14323	-45.56552	9.76404	50.44754	-34.98781	-19.52808	34.17414	51.26121	3.25468	1.62734	30.10579	-4.88202	0
164	-51.26121	-43.12451	7.32303	45.56552	-30.10579	-19.52808	36.61515	51.26121	3.25468	4.06835	34.98781	-2.44101	0
165	-51.26121	-40.6835	9.76404	45.56552	-32.5468	-17.08707	39.05616	51.26121	3.25468	6.50936	37.42882	-2.44101	0
166	-48.8202	-38.24249	9.76404	43.12451	-30.10579	-14.64606	43.93818	51.26121	5.69569	8.95037	37.42882	-2.44101	0
167	-41.49717	-33.36047	7.32303	35.80148	-25.22377	-14.64606	43.93818	51.26121	8.1367	8.95037	37.42882	0.81367	0
168	-36.61515	-26.03744	9.76404	30.91946	-25.22377	-9.76404	46.37919	51.26121	8.1367	11.39138	34.98781	3.25468	0
169	-31.73313	-21.15542	9.76404	26.03744	-22.78276	-7.32303	51.26121	53.70222	13.83239	13.83239	34.98781	3.25468	0
170	-24.4101	-13.83239	9.76404	18.71441	-17.90074	-2.44101	51.26121	56.14323	13.83239	13.83239	34.98781	3.25468	0
171	-21.96909	-18.71441	2.44101	18.71441	-13.01872	-9.76404	46.37919	56.14323	11.39138	11.39138	27.66478	-2.44101	0
172	-29.29212	-23.59643	4.88202	26.03744	-17.90074	-9.76404	43.93818	58.58424	8.1367	8.95037	27.66478	-2.44101	0
173	-41.49717	-28.47845	12.20505	33.36047	-27.66478	-9.76404	43.93818	58.58424	8.1367	8.95037	30.10579	-2.44101	0
174	-46.37919	-33.36047	12.20505	38.24249	-30.10579	-12.20505	43.93818	58.58424	5.69569	8.95037	30.10579	-7.32303	0
175	-51.26121	-38.24249	12.20505	43.12451	-32.5468	-14.64606	41.49717	53.70222	3.25468	6.50936	30.10579	-7.32303	0
176	-56.14323	-43.12451	12.20505	48.00653	-34.98781	-17.08707	41.49717	53.70222	3.25468	6.50936	27.66478	-9.76404	0
177	-63.46626	-43.12451	19.52808	52.88855	-42.31084	-12.20505	43.93818	56.14323	8.1367	8.95037	27.66478	-7.32303	0
178	-61.02525	-35.80148	24.4101	48.00653	-44.75185	-7.32303	46.37919	58.58424	11.39138	11.39138	27.66478	-4.88202	0
179	-58.58424	-33.36047	24.4101	45.56552	-42.31084	-4.88202	46.37919	58.58424	13.83239	13.83239	27.66478	-4.88202	0
180	-53.70222	-33.36047	19.52808	43.12451	-37.42882	-7.32303	46.37919	56.14323	13.83239	13.83239	27.66478	-4.88202	0
181	-56.14323	-33.36047	21.96909	43.12451	-39.86983	-7.32303	43.93818	58.58424	13.83239	13.83239	27.66478	-4.88202	0
182	-58.58424	-33.36047	24.4101	45.56552	-42.31084	-4.88202	43.93818	58.58424	8.1367	11.39138	22.78276	-9.76404	0
183	-53.70222	-35.80148	17.08707	43.12451	-37.42882	-9.76404	41.49717	53.70222	5.69569	4.06835	17.90074	-14.64606	0
184	-51.26121	-38.24249	12.20505	43.12451	-32.5468	-14.64606	41.49717	51.26121	5.69569	1.62734	15.45973	-17.08707	0
185	-46.37919	-40.6835	4.88202	43.12451	-27.66478	-19.52808	39.05616	51.26121	13.83239	-0.81367	15.45973	-21.96909	0
186	-48.8202	-43.12451	4.88202	45.56552	-27.66478	-19.52808	39.05616	53.70222	23.59643	4.06835	17.90074	-21.96909	0
187	-51.26121	-45.56552	4.88202	48.00653	-30.10579	-21.96909	31.73313	56.14323	43.12451	18.71441	25.22377	-14.64606	0
188	-41.49717	-52.88855	-13.01872	45.56552	-15.45973	-34.17414	17.08707	58.58424	65.0936	38.24249	37.42882	-4.88202	0
189	-24.4101	-57.77057	-34.98781	40.6835	4.88202	-46.37919	-0.81367	56.14323	87.06269	65.0936	59.39791	3.25468	0
190	0	-65.0936	-66.72094	30.91946	31.73313	-65.90727	-30.10579	46.37919	109.03178	96.82673	81.367	15.45973	0
191	30.10579	-69.97562	-100.89508	18.71441	63.46626	-85.43535	-66.72094	21.15542	121.23683	138.3239	110.65912	32.5468	0
192	66.72094	-74.85764	-142.39225	4.06835	102.52242	-107.40444	-110.65912	-13.01872	131.00087	189.58511	149.71528	54.51589	0
193	108.21811	-74.85764	-183.88942	-16.2734	144.01959	-129.37353	-157.03831	-54.51589	135.88289	243.28733	193.65346	78.92599	0
194	149.71528	-72.41663	-222.94558	-38.24249	185.51676	-146.4606	-203.4175	-108.21811	138.3239	304.31258	244.91467	105.7771	0
195	186.33043	-69.97562	-257.11972	-57.77057	219.6909	-163.54767	-244.91467	-164.36134	140.76491	372.66086	296.17588	135.06922	0
196	220.50457	-65.0936	-286.41184	-77.29865	251.42403	-175.75272	-286.41184	-222.94558	143.20592	445.89116	352.31911	169.24336	0
197	259.56073	-57.77057	-318.14497	-101.70875	288.03918	-187.95777	-327.90901	-276.6478	150.52895	524.00348	410.90335	208.29952	0
198	303.49891	-48.00653	-352.31911	-128.55986	327.09534	-200.16282	-369.40618	-320.58598	160.29299	609.43883	474.36961	249.79669	0
199	352.31911	-28.47845	-381.61123	-162.734	366.1515	-205.04484	-413.34436	-366.96517	174.93905	702.19721	542.71789	293.73487	0
200	398.6983	-4.06835	-403.58032	-196.90814	400.32564	-202.60383	-452.40052	-406.02133	189.58511	792.51458	613.50718	340.11406	0
201	435.31345	26.03744	-410.90335	-231.08228	422.29473	-192.83979	-493.89769	-440.19547	211.5542	887.71397	689.17849	391.37527	0
202	471.9286	67.53461	-406.02133	-270.13844	439.3818	-168.42969	-535.39486	-481.69264	223.75925	978.03134	762.40879	447.5185	0
203	493.89769	116.35481	-379.17022	-304.31258	436.94079	-131.81454	-576.89203	-535.39486	213.99521	1056.14366	830.75707	498.77971	0
204	498.77971	165.17501	-335.23204	-331.16369	417.41271	-85.43535	-611.06617	-603.74314	177.38006	1109.84588	882.01828	540.27688	0
205	481.69264	204.23117	-279.08881	-343.36874	380.79756	-36.61515	-633.03526	-684.29647	106.59077	1126.93295	903.98737	567.12799	0
206	445.07749	231.08228	-215.62255	-338.48672	329.53635	8.1367	-642.7993	-774.61384	-4.06835	1102.52285	899.10535	579.33304	0
207	396.25729	250.61036	-147.27427	-323.84066	270.95211	52.07488	-647.68132	-882.01828	-162.734	1039.05659	862.4902	574.45102	0
208	335.23204	260.3744	-76.48498	-296.98955	205.04484	93.57205	-637.91728	-991.86373	-353.13278	941.41619	801.46495	554.92294	0
209	279.08881	255.49238	-25.22377	-267.69743	151.34262	115.54114	-615.94819	-1082.1811	-543.53156	826.68872	725.79364	520.7488	0
210	222.94558	235.9643	12.20505	-228.64127	104.96343	125.30518	-584.21506	-1145.64736	-709.52024	697.31519	642.7993	479.25163	0
211	176.56639	209.11319	31.73313	-192.02612	73.2303	120.42316	-547.59991	-1182.26251	-841.33478	572.82368	557.36395	432.87244	0
212	135.06922	184.70309	48.8202	-160.29299	43.93818	117.98215	-506.10274	-1189.58554	-931.65215	455.6552	474.36961	388.93426	0
213	100.89508	162.734	61.02525	-131.00087	19.52808	113.10013	-462.16456	-1165.17544	-973.14932	350.69177	396.25729	340.11406	0
214	71.60296	138.3239	65.90727	-104.14976	2.44101	103.33609	-420.66739	-1118.79625	-968.2673	260.3744	325.468	293.73487	0
215	44.75185	116.35481	70.78929	-79.73966	-13.01872	93.57205	-386.49325	-1062.65302	-934.09316	179.82107	259.56073	249.79669	0
216	13.01872	104.14976	90.31737	-57.77057	-39.86983	98.45407	-354.76012	-996.74575	-887.71397	109.03178	198.53548	210.74053	0
217	-12.20505	96.82673	107.40444	-43.12451	-59.39791	100.89508	-323.02699	-925.95646	-831.57074	48.00653	139.95124	169.24336	0
218	-36.61515	94.38572	129.37353	-28.47845	-83.80801	110.65912	-293.73487	-850.28515	-770.54549	-3.25468	88.69003	132.62821	0
219	-61.02525	87.06269	146.4606	-13.83239	-103.33609	115.54114	-266.88376	-774.61384	-704.63822	-40.6835	47.19286	100.89508	0
220	-82.99434	79.73966	161.10666	1.62734	-122.86417	120.42316	-242.47366	-691.6195	-636.28994	-65.0936	17.90074	74.04397	0
221	-102.52242	72.41663	173.31171	13.83239	-137.51023	122.86417	-215.62255	-608.62516	-565.50065	-77.29865	-1.62734	52.07488	0
222	-119.60949	60.21158	178.19373	28.47845	-149.71528	117.98215	-186.33043	-525.63082	-497.15237	-84.62168	-17.08707	32.5468	0
223	-131.81454	55.32956	185.51676	38.24249	-159.47932	120.42316	-157.03831	-452.40052	-436.12712	-84.62168	-24.4101	15.45973	0
224	-139.13757	48.00653	185.51676	45.56552	-161.92033	115.54114	-132.62821	-388.93426	-379.98389	-84.62168	-26.85111	5.69569	0
225	-139.13757	45.56552	183.07575	45.56552	-161.92033	113.10013	-113.10013	-337.67305	-331.16369	-79.73966	-29.29212	-2.44101	0
226	-134.25555	40.6835	173.31171	45.56552	-154.5973	105.7771	-98.45407	-293.73487	-289.66652	-77.29865	-34.17414	-7.32303	0
227	-126.93252	38.24249	163.54767	43.12451	-144.83326	100.89508	-83.80801	-257.11972	-253.05137	-74.85764	-39.05616	-14.64606	0
228	-112.28646	45.56552	156.22464	33.36047	-135.06922	100.89508	-66.72094	-222.94558	-221.31824	-69.97562	-43.93818	-19.52808	0
229	-102.52242	45.56552	146.4606	28.47845	-125.30518	96.01306	-52.07488	-193.65346	-194.46713	-67.53461	-43.93818	-24.4101	0
230	-97.6404	43.12451	139.13757	26.03744	-117.98215	91.13104	-37.42882	-164.36134	-170.05703	-65.0936	-48.8202	-29.29212	0
231	-102.52242	40.6835	141.57858	30.91946	-122.86417	91.13104	-25.22377	-137.51023	-148.08794	-60.21158	-48.8202	-31.73313	0
232	-107.40444	35.80148	141.57858	35.80148	-125.30518	88.69003	-10.57771	-113.10013	-128.55986	-55.32956	-48.8202	-31.73313	0
233	-112.28646	38.24249	148.90161	35.80148	-130.1872	93.57205	4.06835	-91.13104	-111.47279	-50.44754	-43.93818	-31.73313	0
234	-117.16848	38.24249	153.78363	38.24249	-135.06922	96.01306	12.20505	-78.92599	-96.82673	-48.00653	-43.93818	-34.17414	0
235	-122.0505	38.24249	158.66565	40.6835	-139.95124	98.45407	21.96909	-66.72094	-82.18067	-45.56552	-43.93818	-36.61515	0
236	-122.0505	43.12451	163.54767	38.24249	-142.39225	103.33609	29.29212	-56.9569	-69.97562	-43.12451	-43.93818	-39.05616	0
237	-124.49151	43.12451	165.98868	40.6835	-144.83326	103.33609	29.29212	-49.63387	-60.21158	-43.12451	-48.8202	-41.49717	0
238	-117.16848	43.12451	158.66565	35.80148	-137.51023	100.89508	29.29212	-49.63387	-57.77057	-48.00653	-56.14323	-46.37919	0
239	-114.72747	43.12451	156.22464	35.80148	-135.06922	98.45407	29.29212	-47.19286	-55.32956	-50.44754	-61.02525	-51.26121	0
240	-119.60949	43.12451	161.10666	38.24249	-139.95124	100.89508	31.73313	-39.86983	-52.88855	-50.44754	-61.02525	-51.26121	0
241	-129.37353	43.12451	170.8707	43.12451	-149.71528	105.7771	39.05616	-30.10579	-45.56552	-45.56552	-61.02525	-51.26121	0
242	-134.25555	43.12451	175.75272	45.56552	-154.5973	108.21811	39.05616	-27.66478	-45.56552	-45.56552	-61.02525	-51.26121	0
243	-139.13757	40.6835	178.19373	48.00653	-159.47932	108.21811	39.05616	-27.66478	-48.00653	-45.56552	-63.46626	-53.70222	0
244	-146.4606	40.6835	185.51676	52.88855	-166.80235	113.10013	41.49717	-27.66478	-48.00653	-43.12451	-61.02525	-53.70222	0
245	-148.90161	45.56552	192.83979	50.44754	-171.68437	117.98215	41.49717	-30.10579	-45.56552	-38.24249	-61.02525	-51.26121	0
246	-141.57858	50.44754	190.39878	45.56552	-166.80235	120.42316	41.49717	-32.5468	-45.56552	-40.6835	-61.02525	-51.26121	0
247	-129.37353	50.44754	178.19373	38.24249	-154.5973	113.10013	34.17414	-42.31084	-48.00653	-43.12451	-65.90727	-53.70222	0
248	-124.49151	48.00653	170.8707	38.24249	-147.27427	108.21811	29.29212	-49.63387	-52.88855	-48.00653	-73.2303	-56.14323	0
249	-124.49151	48.00653	170.8707	38.24249	-147.27427	108.21811	29.29212	-49.63387	-52.88855	-48.00653	-73.2303	-56.14323	0
250	-122.0505	52.88855	173.31171	33.36047	-147.27427	113.10013	29.29212	-47.19286	-50.44754	-48.00653	-73.2303	-56.14323	0
251	-122.0505	52.88855	173.31171	33.36047	-147.27427	113.10013	31.73313	-42.31084	-50.44754	-45.56552	-73.2303	-56.14323	0
252	-129.37353	52.88855	180.63474	38.24249	-154.5973	115.54114	34.17414	-39.86983	-48.00653	-45.56552	-73.2303	-56.14323	0
253	-136.69656	50.44754	185.51676	43.12451	-161.92033	117.98215	36.61515	-39.86983	-48.00653	-45.56552	-73.2303	-61.02525	0
254	-151.34262	48.00653	197.72181	50.44754	-174.12538	122.86417	41.49717	-37.42882	-45.56552	-43.12451	-68.34828	-61.02525	0
255	-156.22464	48.00653	202.60383	52.88855	-179.0074	125.30518	43.93818	-34.98781	-40.6835	-43.12451	-65.90727	-61.02525	0
256	-153.78363	50.44754	202.60383	50.44754	-179.0074	125.30518	46.37919	-37.42882	-40.6835	-45.56552	-65.90727	-61.02525	0
257	-153.78363	50.44754	202.60383	50.44754	-179.0074	125.30518	46.37919	-39.86983	-38.24249	-45.56552	-70.78929	-61.02525	0
258	-144.01959	55.32956	197.72181	43.12451	-171.68437	125.30518	46.37919	-42.31084	-38.24249	-48.00653	-75.67131	-61.02525	0
259	-141.57858	57.77057	197.72181	40.6835	-169.24336	127.74619	46.37919	-42.31084	-38.24249	-48.00653	-75.67131	-61.02525	0
260	-134.25555	62.65259	195.2808	35.80148	-164.36134	127.74619	43.93818	-42.31084	-38.24249	-50.44754	-75.67131	-58.58424	0
261	-122.0505	69.97562	190.39878	26.03744	-157.03831	130.1872	43.93818	-42.31084	-38.24249	-50.44754	-75.67131	-58.58424	0
262	-119.60949	72.41663	190.39878	23.59643	-154.5973	130.1872	43.93818	-39.86983	-35.80148	-50.44754	-75.67131	-58.58424	0
263	-117.16848	74.85764	190.39878	21.15542	-154.5973	132.62821	41.49717	-37.42882	-38.24249	-52.88855	-75.67131	-58.58424	0
264	-124.49151	72.41663	195.2808	26.03744	-159.47932	132.62821	41.49717	-39.86983	-38.24249	-52.88855	-73.2303	-58.58424	0
265	-134.25555	72.41663	205.04484	30.91946	-169.24336	137.51023	46.37919	-39.86983	-38.24249	-50.44754	-70.78929	-58.58424	0
266	-139.13757	72.41663	209.92686	33.36047	-174.12538	139.95124	46.37919	-39.86983	-35.80148	-50.44754	-70.78929	-58.58424	0
267	-144.01959	69.97562	212.36787	35.80148	-179.0074	139.95124	46.37919	-42.31084	-33.36047	-48.00653	-75.67131	-58.58424	0
268	-153.78363	65.0936	217.24989	43.12451	-186.33043	139.95124	46.37919	-42.31084	-33.36047	-50.44754	-80.55333	-58.58424	0
269	-163.54767	65.0936	227.01393	48.00653	-196.09447	144.83326	48.8202	-37.42882	-28.47845	-50.44754	-80.55333	-58.58424	0
270	-165.98868	65.0936	229.45494	50.44754	-198.53548	147.27427	48.8202	-37.42882	-28.47845	-50.44754	-82.99434	-58.58424	0
271	-163.54767	67.53461	229.45494	48.00653	-196.09447	147.27427	48.8202	-34.98781	-28.47845	-50.44754	-82.99434	-58.58424	0
272	-156.22464	69.97562	224.57292	43.12451	-191.21245	147.27427	48.8202	-34.98781	-28.47845	-50.44754	-85.43535	-61.02525	0
273	-153.78363	69.97562	222.13191	40.6835	-188.77144	144.83326	46.37919	-32.5468	-33.36047	-55.32956	-85.43535	-61.02525	0
274	-151.34262	69.97562	219.6909	40.6835	-186.33043	144.83326	46.37919	-37.42882	-33.36047	-55.32956	-85.43535	-63.46626	0
275	-148.90161	69.97562	217.24989	38.24249	-183.88942	142.39225	46.37919	-39.86983	-33.36047	-57.77057	-85.43535	-65.90727	0
276	-146.4606	72.41663	217.24989	35.80148	-181.44841	144.83326	46.37919	-39.86983	-30.91946	-57.77057	-85.43535	-65.90727	0
277	-141.57858	77.29865	217.24989	30.91946	-179.0074	147.27427	46.37919	-39.86983	-23.59643	-55.32956	-85.43535	-63.46626	0
278	-146.4606	77.29865	222.13191	33.36047	-183.88942	149.71528	46.37919	-34.98781	-21.15542	-55.32956	-90.31737	-63.46626	0
279	-148.90161	79.73966	227.01393	33.36047	-188.77144	152.15629	46.37919	-32.5468	-16.2734	-55.32956	-90.31737	-61.02525	0
280	-151.34262	84.62168	234.33696	33.36047	-193.65346	159.47932	48.8202	-27.66478	-13.83239	-50.44754	-85.43535	-56.14323	0
281	-148.90161	89.5037	236.77797	28.47845	-193.65346	161.92033	51.26121	-22.78276	-8.95037	-45.56552	-82.99434	-53.70222	0
282	-146.4606	96.82673	241.65999	23.59643	-193.65346	169.24336	58.58424	-17.90074	-6.50936	-43.12451	-80.55333	-51.26121	0
283	-153.78363	99.26774	251.42403	26.03744	-203.4175	174.12538	63.46626	-10.57771	-4.06835	-40.6835	-78.11232	-51.26121	0
284	-151.34262	101.70875	251.42403	23.59643	-200.97649	176.56639	63.46626	-13.01872	-1.62734	-40.6835	-78.11232	-53.70222	0
285	-146.4606	109.03178	253.86504	18.71441	-200.97649	181.44841	63.46626	-13.01872	0.81367	-40.6835	-78.11232	-53.70222	0
286	-141.57858	118.79582	258.74706	11.39138	-200.97649	188.77144	68.34828	-10.57771	8.1367	-40.6835	-80.55333	-53.70222	0
287	-134.25555	126.11885	258.74706	4.06835	-196.09447	191.21245	68.34828	-8.1367	11.39138	-40.6835	-85.43535	-56.14323	0
288	-124.49151	133.44188	256.30605	-4.06835	-191.21245	193.65346	68.34828	-8.1367	13.83239	-40.6835	-90.31737	-58.58424	0
289	-114.72747	140.76491	253.86504	-13.83239	-183.88942	196.09447	68.34828	-5.69569	16.2734	-43.12451	-92.75838	-61.02525	0
290	-112.28646	145.64693	256.30605	-16.2734	-183.88942	200.97649	70.78929	1.62734	21.15542	-43.12451	-92.75838	-61.02525	0
291	-112.28646	150.52895	261.18807	-18.71441	-186.33043	205.85851	78.11232	8.95037	26.03744	-40.6835	-90.31737	-56.14323	0
292	-107.40444	155.41097	261.18807	-23.59643	-183.88942	208.29952	78.11232	16.2734	30.91946	-40.6835	-87.87636	-56.14323	0
293	-100.08141	160.29299	258.74706	-30.91946	-179.0074	208.29952	80.55333	16.2734	30.91946	-40.6835	-87.87636	-56.14323	0
294	-90.31737	160.29299	248.98302	-35.80148	-169.24336	203.4175	78.11232	13.83239	28.47845	-43.12451	-87.87636	-61.02525	0
295	-87.87636	155.41097	241.65999	-33.36047	-164.36134	198.53548	75.67131	11.39138	28.47845	-45.56552	-87.87636	-61.02525	0
296	-78.11232	155.41097	231.89595	-38.24249	-154.5973	193.65346	73.2303	8.95037	30.91946	-48.00653	-87.87636	-63.46626	0
297	-68.34828	160.29299	227.01393	-45.56552	-147.27427	193.65346	68.34828	6.50936	30.91946	-50.44754	-92.75838	-63.46626	0
298	-65.90727	162.734	227.01393	-48.00653	-147.27427	193.65346	68.34828	6.50936	35.80148	-50.44754	-92.75838	-63.46626	0
299	-63.46626	165.17501	227.01393	-50.44754	-144.83326	196.09447	68.34828	13.83239	40.6835	-48.00653	-92.75838	-61.02525	0
300	-61.02525	172.49804	231.89595	-55.32956	-147.27427	200.97649	68.34828	21.15542	48.00653	-45.56552	-87.87636	-56.14323	0
301	-58.58424	177.38006	234.33696	-60.21158	-147.27427	205.85851	70.78929	34.17414	55.32956	-40.6835	-82.99434	-51.26121	0
302	-53.70222	184.70309	236.77797	-65.0936	-144.83326	210.74053	73.2303	43.93818	62.65259	-35.80148	-80.55333	-48.8202	0
303	-51.26121	189.58511	239.21898	-69.97562	-144.83326	213.18154	73.2303	51.26121	65.0936	-33.36047	-75.67131	-46.37919	0
304	-48.8202	194.46713	241.65999	-72.41663	-144.83326	218.06356	73.2303	53.70222	69.97562	-30.91946	-73.2303	-46.37919	0
305	-43.93818	199.34915	241.65999	-77.29865	-142.39225	220.50457	75.67131	56.14323	77.29865	-30.91946	-70.78929	-46.37919	0
306	-43.93818	206.67218	248.98302	-82.18067	-147.27427	227.8276	75.67131	61.02525	84.62168	-28.47845	-68.34828	-46.37919	0
307	-41.49717	213.99521	253.86504	-87.06269	-147.27427	232.70962	75.67131	65.90727	94.38572	-26.03744	-70.78929	-46.37919	0
308	-34.17414	223.75925	256.30605	-94.38572	-144.83326	240.03265	75.67131	68.34828	99.26774	-26.03744	-70.78929	-43.93818	0
309	-29.29212	233.52329	261.18807	-101.70875	-144.83326	247.35568	73.2303	73.2303	106.59077	-23.59643	-70.78929	-39.05616	0
310	-24.4101	240.84632	263.62908	-109.03178	-144.83326	252.2377	70.78929	78.11232	111.47279	-21.15542	-68.34828	-36.61515	0
311	-17.08707	248.16935	263.62908	-116.35481	-139.95124	254.67871	63.46626	85.43535	116.35481	-18.71441	-65.90727	-34.17414	0
312	-12.20505	255.49238	266.07009	-121.23683	-139.95124	259.56073	58.58424	90.31737	121.23683	-15.45973	-63.46626	-29.29212	0
313	-12.20505	257.93339	268.5111	-123.67784	-139.95124	262.00174	51.26121	95.19939	123.67784	-13.01872	-58.58424	-26.85111	0
314	-17.08707	257.93339	273.39312	-121.23683	-144.83326	264.44275	41.49717	97.6404	126.11885	-10.57771	-56.14323	-21.96909	0
315	-17.08707	262.81541	278.27514	-123.67784	-147.27427	269.32477	34.17414	97.6404	131.00087	-8.1367	-53.70222	-21.96909	0
316	-17.08707	267.69743	283.15716	-126.11885	-149.71528	274.20679	24.4101	97.6404	135.88289	-5.69569	-51.26121	-19.52808	0
317	-14.64606	272.57945	285.59817	-128.55986	-149.71528	279.08881	17.08707	102.52242	143.20592	-5.69569	-53.70222	-19.52808	0
318	-9.76404	277.46147	285.59817	-133.44188	-147.27427	281.52982	9.76404	104.96343	145.64693	-5.69569	-58.58424	-19.52808	0
319	0	284.7845	283.15716	-143.20592	-142.39225	283.97083	4.06835	107.40444	150.52895	-5.69569	-58.58424	-17.08707	0
320	10.57771	289.66652	278.27514	-150.52895	-135.06922	283.97083	-0.81367	112.28646	152.96996	-3.25468	-56.14323	-14.64606	0
321	17.90074	292.10753	273.39312	-155.41097	-127.74619	283.97083	-5.69569	119.60949	155.41097	-3.25468	-53.70222	-12.20505	0
322	22.78276	289.66652	266.07009	-155.41097	-122.86417	279.08881	-8.1367	129.37353	160.29299	-0.81367	-51.26121	-7.32303	0
323	25.22377	284.7845	258.74706	-155.41097	-117.98215	271.76578	-8.1367	136.69656	160.29299	-0.81367	-51.26121	-7.32303	0
324	22.78276	275.02046	251.42403	-148.08794	-115.54114	264.44275	-10.57771	139.13757	162.734	-0.81367	-48.8202	-7.32303	0
325	15.45973	265.25642	248.98302	-140.76491	-117.98215	257.11972	-10.57771	146.4606	170.05703	-0.81367	-46.37919	-7.32303	0
326	13.01872	257.93339	244.101	-135.88289	-115.54114	252.2377	-10.57771	153.78363	177.38006	-0.81367	-46.37919	-7.32303	0
327	10.57771	248.16935	236.77797	-128.55986	-113.10013	242.47366	-10.57771	163.54767	189.58511	1.62734	-48.8202	-7.32303	0
328	15.45973	243.28733	227.01393	-128.55986	-105.7771	235.15063	-10.57771	170.8707	196.90814	1.62734	-51.26121	-9.76404	0
329	22.78276	245.72834	222.13191	-133.44188	-100.89508	235.15063	-8.1367	183.07575	209.11319	8.95037	-48.8202	-7.32303	0
330	30.10579	248.16935	217.24989	-138.3239	-93.57205	232.70962	-3.25468	197.72181	221.31824	13.83239	-46.37919	-4.88202	0
331	42.31084	248.16935	205.04484	-145.64693	-81.367	227.8276	-0.81367	207.48585	228.64127	16.2734	-46.37919	-4.88202	0
332	49.63387	240.84632	190.39878	-145.64693	-71.60296	215.62255	4.06835	219.6909	235.9643	16.2734	-43.93818	-4.88202	0
333	59.39791	235.9643	175.75272	-148.08794	-59.39791	205.85851	9.76404	229.45494	240.84632	16.2734	-43.93818	-9.76404	0
334	61.83892	228.64127	165.98868	-145.64693	-52.07488	198.53548	17.08707	239.21898	248.16935	16.2734	-43.93818	-12.20505	0
335	56.9569	216.43622	158.66565	-135.88289	-52.07488	188.77144	24.4101	248.98302	257.93339	16.2734	-43.93818	-14.64606	0
336	59.39791	201.79016	141.57858	-131.00087	-42.31084	171.68437	26.85111	256.30605	262.81541	11.39138	-46.37919	-19.52808	0
337	54.51589	184.70309	129.37353	-118.79582	-37.42882	157.03831	31.73313	266.07009	272.57945	11.39138	-51.26121	-21.96909	0
338	44.75185	167.61602	122.0505	-106.59077	-39.86983	144.83326	36.61515	275.83413	279.90248	11.39138	-56.14323	-21.96909	0
339	34.98781	150.52895	114.72747	-91.94471	-39.86983	132.62821	41.49717	283.15716	284.7845	11.39138	-56.14323	-21.96909	0
340	25.22377	135.88289	109.84545	-79.73966	-42.31084	122.86417	46.37919	295.36221	292.10753	11.39138	-51.26121	-19.52808	0
341	30.10579	121.23683	90.31737	-74.85764	-30.10579	105.7771	46.37919	300.24423	292.10753	8.95037	-53.70222	-21.96909	0
342	42.31084	111.47279	68.34828	-77.29865	-13.01872	91.13104	46.37919	307.56726	292.10753	8.95037	-53.70222	-24.4101	0
343	44.75185	104.14976	58.58424	-74.85764	-8.1367	81.367	48.8202	312.44928	292.10753	8.95037	-51.26121	-24.4101	0
344	52.07488	96.82673	43.93818	-74.85764	4.88202	71.60296	46.37919	314.89029	292.10753	6.50936	-51.26121	-29.29212	0
345	59.39791	89.5037	29.29212	-74.85764	14.64606	59.39791	46.37919	319.77231	296.98955	6.50936	-51.26121	-29.29212	0
346	71.60296	87.06269	14.64606	-79.73966	29.29212	52.07488	43.93818	319.77231	296.98955	6.50936	-51.26121	-29.29212	0
347	81.367	77.29865	-5.69569	-79.73966	43.93818	37.42882	43.93818	319.77231	299.43056	6.50936	-53.70222	-31.73313	0
348	76.48498	69.97562	-8.1367	-72.41663	41.49717	32.5468	43.93818	324.65433	301.87157	6.50936	-53.70222	-29.29212	0
349	74.04397	55.32956	-20.34175	-65.0936	46.37919	17.90074	46.37919	327.09534	301.87157	6.50936	-53.70222	-26.85111	0
350	76.48498	43.12451	-34.98781	-60.21158	56.14323	5.69569	43.93818	324.65433	299.43056	4.06835	-53.70222	-29.29212	0
351	78.92599	28.47845	-52.07488	-52.88855	65.90727	-12.20505	41.49717	324.65433	294.54854	1.62734	-53.70222	-29.29212	0
352	83.80801	16.2734	-69.16195	-50.44754	75.67131	-26.85111	41.49717	324.65433	289.66652	-0.81367	-53.70222	-31.73313	0
353	86.24902	6.50936	-81.367	-45.56552	82.99434	-36.61515	39.05616	324.65433	287.22551	-0.81367	-53.70222	-34.17414	0
354	91.13104	-1.62734	-93.57205	-45.56552	90.31737	-46.37919	34.17414	319.77231	282.34349	-0.81367	-51.26121	-36.61515	0
355	103.33609	-8.95037	-113.10013	-48.00653	107.40444	-61.02525	31.73313	312.44928	279.90248	-3.25468	-48.8202	-39.05616	0
356	115.54114	-8.95037	-125.30518	-52.88855	119.60949	-65.90727	29.29212	307.56726	279.90248	-3.25468	-48.8202	-41.49717	0
357	122.86417	-8.95037	-132.62821	-57.77057	126.93252	-70.78929	29.29212	305.12625	282.34349	-3.25468	-48.8202	-41.49717	0
358	125.30518	-11.39138	-137.51023	-57.77057	129.37353	-73.2303	29.29212	302.68524	284.7845	-0.81367	-48.8202	-39.05616	0
359	115.54114	-13.83239	-130.1872	-50.44754	122.0505	-70.78929	29.29212	295.36221	284.7845	4.06835	-46.37919	-34.17414	0
360	110.65912	-21.15542	-132.62821	-45.56552	119.60949	-75.67131	29.29212	288.03918	279.90248	6.50936	-46.37919	-31.73313	0
361	103.33609	-26.03744	-130.1872	-38.24249	114.72747	-78.11232	29.29212	278.27514	272.57945	6.50936	-46.37919	-31.73313	0
362	98.45407	-33.36047	-132.62821	-33.36047	114.72747	-82.99434	26.85111	268.5111	262.81541	8.95037	-41.49717	-26.85111	0
363	96.01306	-40.6835	-137.51023	-28.47845	114.72747	-87.87636	24.4101	256.30605	250.61036	8.95037	-39.05616	-24.4101	0
364	93.57205	-45.56552	-139.95124	-23.59643	114.72747	-92.75838	19.52808	236.77797	235.9643	8.95037	-36.61515	-24.4101	0
365	91.13104	-52.88855	-144.83326	-18.71441	117.16848	-97.6404	17.08707	219.6909	223.75925	8.95037	-34.17414	-21.96909	0
366	91.13104	-57.77057	-149.71528	-16.2734	119.60949	-102.52242	12.20505	200.16282	209.11319	4.06835	-36.61515	-24.4101	0
367	88.69003	-60.21158	-149.71528	-13.83239	117.16848	-104.96343	9.76404	180.63474	199.34915	1.62734	-39.05616	-24.4101	0
368	88.69003	-60.21158	-149.71528	-13.83239	117.16848	-104.96343	9.76404	165.98868	184.70309	1.62734	-41.49717	-21.96909	0
369	78.92599	-65.0936	-144.83326	-6.50936	109.84545	-104.96343	9.76404	148.90161	172.49804	-0.81367	-43.93818	-21.96909	0
370	66.72094	-67.53461	-135.06922	-1.62734	100.08141	-100.08141	9.76404	139.13757	157.85198	-3.25468	-46.37919	-21.96909	0
371	64.27993	-69.97562	-135.06922	1.62734	97.6404	-102.52242	7.32303	124.49151	143.20592	-10.57771	-48.8202	-24.4101	0
372	64.27993	-69.97562	-135.06922	1.62734	97.6404	-102.52242	4.06835	109.84545	126.11885	-15.45973	-53.70222	-26.85111	0
373	56.9569	-69.97562	-127.74619	6.50936	90.31737	-97.6404	4.06835	100.08141	111.47279	-18.71441	-53.70222	-29.29212	0
374	49.63387	-74.85764	-125.30518	11.39138	85.43535	-100.08141	4.06835	82.99434	94.38572	-21.15542	-53.70222	-31.73313	0
375	42.31084	-77.29865	-120.42316	16.2734	80.55333	-97.6404	4.06835	68.34828	82.18067	-23.59643	-56.14323	-34.17414	0
376	39.86983	-79.73966	-120.42316	18.71441	78.11232	-100.08141	1.62734	51.26121	69.97562	-28.47845	-61.02525	-34.17414	0
377	34.98781	-79.73966	-115.54114	21.15542	73.2303	-97.6404	1.62734	41.49717	60.21158	-30.91946	-65.90727	-34.17414	0
378	32.5468	-79.73966	-113.10013	23.59643	70.78929	-95.19939	1.62734	31.73313	52.88855	-33.36047	-68.34828	-34.17414	0
379	32.5468	-77.29865	-110.65912	21.15542	70.78929	-92.75838	1.62734	21.15542	43.12451	-35.80148	-73.2303	-34.17414	0
380	30.10579	-77.29865	-108.21811	23.59643	68.34828	-92.75838	1.62734	18.71441	35.80148	-35.80148	-73.2303	-34.17414	0
381	22.78276	-74.85764	-98.45407	26.03744	58.58424	-85.43535	4.06835	18.71441	33.36047	-35.80148	-73.2303	-31.73313	0
382	30.10579	-69.97562	-100.89508	18.71441	63.46626	-85.43535	4.06835	18.71441	26.03744	-35.80148	-75.67131	-31.73313	0
383	39.86983	-69.97562	-110.65912	13.83239	73.2303	-90.31737	4.06835	11.39138	16.2734	-40.6835	-78.11232	-36.61515	0
384	44.75185	-65.0936	-110.65912	8.95037	75.67131	-87.87636	4.06835	4.06835	8.1367	-43.12451	-78.11232	-39.05616	0
385	52.07488	-65.0936	-117.98215	6.50936	82.99434	-90.31737	7.32303	-0.81367	5.69569	-43.12451	-80.55333	-39.05616	0
386	52.07488	-65.0936	-117.98215	6.50936	82.99434	-90.31737	4.06835	-5.69569	0.81367	-48.00653	-82.99434	-41.49717	0
387	49.63387	-67.53461	-117.98215	8.95037	82.99434	-92.75838	1.62734	-13.01872	-4.06835	-50.44754	-87.87636	-46.37919	0
388	42.31084	-74.85764	-117.98215	16.2734	78.11232	-95.19939	1.62734	-20.34175	-8.95037	-50.44754	-90.31737	-46.37919	0
389	30.10579	-77.29865	-108.21811	23.59643	68.34828	-92.75838	1.62734	-20.34175	-8.95037	-48.00653	-90.31737	-43.93818	0
390	25.22377	-77.29865	-103.33609	26.03744	63.46626	-90.31737	1.62734	-22.78276	-11.39138	-48.00653	-90.31737	-43.93818	0
391	22.78276	-77.29865	-100.89508	26.03744	61.02525	-87.87636	1.62734	-20.34175	-13.83239	-48.00653	-87.87636	-43.93818	0
392	25.22377	-72.41663	-98.45407	23.59643	61.02525	-85.43535	4.06835	-15.45973	-16.2734	-45.56552	-85.43535	-41.49717	0
393	34.98781	-65.0936	-100.89508	13.83239	65.90727	-82.99434	4.06835	-15.45973	-16.2734	-43.12451	-82.99434	-41.49717	0
394	52.07488	-57.77057	-110.65912	1.62734	80.55333	-82.99434	4.06835	-17.90074	-18.71441	-43.12451	-82.99434	-41.49717	0
395	54.51589	-55.32956	-110.65912	-1.62734	80.55333	-82.99434	4.06835	-17.90074	-18.71441	-43.12451	-80.55333	-41.49717	0
396	39.86983	-62.65259	-103.33609	11.39138	70.78929	-82.99434	4.06835	-20.34175	-21.15542	-45.56552	-80.55333	-43.93818	0
397	27.66478	-72.41663	-100.89508	21.15542	63.46626	-85.43535	4.06835	-22.78276	-18.71441	-48.00653	-85.43535	-46.37919	0
398	13.01872	-82.18067	-96.01306	33.36047	53.70222	-87.87636	4.06835	-22.78276	-18.71441	-50.44754	-90.31737	-48.8202	0
399	0	-87.06269	-88.69003	43.12451	43.93818	-87.87636	4.06835	-25.22377	-21.15542	-52.88855	-90.31737	-48.8202	0
400	-2.44101	-91.94471	-91.13104	45.56552	43.93818	-92.75838	1.62734	-27.66478	-26.03744	-55.32956	-95.19939	-51.26121	0
401	3.25468	-94.38572	-98.45407	45.56552	48.8202	-95.19939	-0.81367	-30.10579	-30.91946	-60.21158	-97.6404	-56.14323	0
402	15.45973	-91.94471	-108.21811	38.24249	61.02525	-100.08141	-0.81367	-27.66478	-30.91946	-62.65259	-100.08141	-58.58424	0
403	22.78276	-82.18067	-105.7771	28.47845	63.46626	-92.75838	1.62734	-22.78276	-33.36047	-62.65259	-97.6404	-58.58424	0
404	30.10579	-77.29865	-108.21811	23.59643	68.34828	-92.75838	4.06835	-22.78276	-33.36047	-62.65259	-95.19939	-58.58424	0
405	42.31084	-69.97562	-113.10013	13.83239	75.67131	-90.31737	4.06835	-22.78276	-30.91946	-60.21158	-92.75838	-56.14323	0
406	49.63387	-65.0936	-115.54114	6.50936	80.55333	-90.31737	4.06835	-20.34175	-28.47845	-60.21158	-90.31737	-56.14323	0
407	42.31084	-65.0936	-108.21811	11.39138	73.2303	-85.43535	7.32303	-15.45973	-23.59643	-57.77057	-90.31737	-53.70222	0
408	32.5468	-67.53461	-100.89508	16.2734	65.90727	-82.99434	9.76404	-13.01872	-18.71441	-57.77057	-92.75838	-53.70222	0
409	27.66478	-69.97562	-98.45407	21.15542	61.02525	-82.99434	9.76404	-10.57771	-16.2734	-60.21158	-95.19939	-53.70222	0
410	22.78276	-69.97562	-93.57205	23.59643	56.14323	-80.55333	12.20505	-5.69569	-13.83239	-62.65259	-95.19939	-56.14323	0
411	13.01872	-74.85764	-88.69003	30.91946	48.8202	-80.55333	14.64606	-0.81367	-13.83239	-65.0936	-97.6404	-58.58424	0
412	3.25468	-82.18067	-86.24902	38.24249	43.93818	-82.99434	14.64606	-0.81367	-13.83239	-67.53461	-100.08141	-61.02525	0
413	0	-87.06269	-88.69003	43.12451	43.93818	-87.87636	12.20505	-0.81367	-18.71441	-72.41663	-102.52242	-63.46626	0
414	8.1367	-87.06269	-96.01306	38.24249	51.26121	-90.31737	9.76404	-3.25468	-21.15542	-72.41663	-100.08141	-63.46626	0
415	13.01872	-82.18067	-96.01306	33.36047	53.70222	-87.87636	9.76404	-3.25468	-21.15542	-72.41663	-97.6404	-63.46626	0
416	10.57771	-82.18067	-93.57205	35.80148	51.26121	-87.87636	12.20505	-5.69569	-18.71441	-72.41663	-95.19939	-61.02525	0
417	13.01872	-84.62168	-98.45407	35.80148	53.70222	-90.31737	9.76404	-8.1367	-18.71441	-74.85764	-97.6404	-61.02525	0
418	20.34175	-84.62168	-105.7771	30.91946	61.02525	-95.19939	7.32303	-8.1367	-18.71441	-77.29865	-102.52242	-63.46626	0
419	25.22377	-84.62168	-110.65912	28.47845	65.90727	-97.6404	7.32303	-5.69569	-18.71441	-79.73966	-102.52242	-63.46626	0
420	25.22377	-84.62168	-110.65912	28.47845	65.90727	-97.6404	7.32303	-0.81367	-18.71441	-79.73966	-104.96343	-63.46626	0
421	22.78276	-84.62168	-108.21811	30.91946	63.46626	-95.19939	7.32303	1.62734	-18.71441	-82.18067	-104.96343	-63.46626	0
422	22.78276	-84.62168	-108.21811	30.91946	63.46626	-95.19939	9.76404	8.95037	-18.71441	-82.18067	-102.52242	-63.46626	0
423	25.22377	-82.18067	-108.21811	28.47845	65.90727	-95.19939	12.20505	11.39138	-18.71441	-82.18067	-100.08141	-63.46626	0
424	27.66478	-79.73966	-108.21811	26.03744	65.90727	-92.75838	12.20505	8.95037	-21.15542	-82.18067	-97.6404	-63.46626	0
425	25.22377	-79.73966	-105.7771	26.03744	63.46626	-92.75838	17.08707	8.95037	-18.71441	-79.73966	-97.6404	-63.46626	0
426	13.01872	-82.18067	-96.01306	33.36047	53.70222	-87.87636	21.96909	11.39138	-16.2734	-77.29865	-95.19939	-61.02525	0
427	3.25468	-82.18067	-86.24902	38.24249	43.93818	-82.99434	24.4101	13.83239	-11.39138	-77.29865	-95.19939	-61.02525	0
428	3.25468	-82.18067	-86.24902	38.24249	43.93818	-82.99434	24.4101	11.39138	-11.39138	-79.73966	-100.08141	-61.02525	0
429	3.25468	-84.62168	-88.69003	40.6835	43.93818	-85.43535	24.4101	8.95037	-11.39138	-79.73966	-100.08141	-61.02525	0
430	-2.44101	-84.62168	-83.80801	43.12451	39.05616	-85.43535	24.4101	13.83239	-11.39138	-82.18067	-100.08141	-63.46626	0
431	-2.44101	-84.62168	-83.80801	43.12451	39.05616	-85.43535	26.85111	16.2734	-8.95037	-82.18067	-100.08141	-61.02525	0
432	-2.44101	-84.62168	-83.80801	43.12451	39.05616	-85.43535	26.85111	21.15542	-11.39138	-82.18067	-97.6404	-61.02525	0
433	-4.88202	-87.06269	-83.80801	45.56552	39.05616	-85.43535	26.85111	21.15542	-16.2734	-82.18067	-97.6404	-63.46626	0
434	-12.20505	-89.5037	-78.92599	50.44754	31.73313	-85.43535	26.85111	21.15542	-16.2734	-82.18067	-95.19939	-61.02525	0
435	-7.32303	-96.82673	-91.13104	50.44754	41.49717	-95.19939	24.4101	18.71441	-18.71441	-87.06269	-97.6404	-65.90727	0
436	0	-101.70875	-103.33609	50.44754	51.26121	-102.52242	19.52808	13.83239	-23.59643	-91.94471	-102.52242	-73.2303	0
437	8.1367	-101.70875	-110.65912	45.56552	58.58424	-104.96343	17.08707	11.39138	-23.59643	-96.82673	-107.40444	-75.67131	0
438	8.1367	-101.70875	-110.65912	45.56552	58.58424	-104.96343	17.08707	11.39138	-21.15542	-96.82673	-107.40444	-73.2303	0
439	17.90074	-99.26774	-117.98215	40.6835	65.90727	-107.40444	17.08707	11.39138	-21.15542	-96.82673	-107.40444	-70.78929	0
440	32.5468	-96.82673	-130.1872	30.91946	80.55333	-112.28646	17.08707	11.39138	-21.15542	-99.26774	-109.84545	-70.78929	0
441	37.42882	-94.38572	-132.62821	28.47845	82.99434	-112.28646	17.08707	11.39138	-21.15542	-99.26774	-104.96343	-68.34828	0
442	34.98781	-89.5037	-125.30518	26.03744	78.11232	-107.40444	21.96909	18.71441	-18.71441	-94.38572	-100.08141	-63.46626	0
443	25.22377	-87.06269	-113.10013	30.91946	68.34828	-100.08141	24.4101	21.15542	-16.2734	-91.94471	-92.75838	-61.02525	0
444	20.34175	-84.62168	-105.7771	30.91946	61.02525	-95.19939	24.4101	21.15542	-16.2734	-91.94471	-87.87636	-58.58424	0
445	20.34175	-82.18067	-103.33609	30.91946	61.02525	-92.75838	24.4101	18.71441	-16.2734	-91.94471	-85.43535	-58.58424	0
446	17.90074	-79.73966	-98.45407	30.91946	56.14323	-87.87636	26.85111	18.71441	-13.83239	-87.06269	-80.55333	-56.14323	0
447	13.01872	-79.73966	-93.57205	33.36047	51.26121	-85.43535	29.29212	16.2734	-11.39138	-87.06269	-80.55333	-56.14323	0
448	10.57771	-79.73966	-91.13104	33.36047	48.8202	-85.43535	29.29212	16.2734	-8.95037	-89.5037	-80.55333	-56.14323	0
449	10.57771	-79.73966	-91.13104	33.36047	48.8202	-85.43535	24.4101	13.83239	-8.95037	-91.94471	-82.99434	-56.14323	0
450	15.45973	-79.73966	-96.01306	30.91946	53.70222	-87.87636	19.52808	11.39138	-11.39138	-96.82673	-87.87636	-56.14323	0
451	13.01872	-84.62168	-98.45407	35.80148	53.70222	-90.31737	17.08707	13.83239	-11.39138	-99.26774	-90.31737	-58.58424	0
452	13.01872	-84.62168	-98.45407	35.80148	53.70222	-90.31737	14.64606	13.83239	-11.39138	-101.70875	-90.31737	-58.58424	0
453	25.22377	-82.18067	-108.21811	28.47845	65.90727	-95.19939	9.76404	8.95037	-18.71441	-101.70875	-90.31737	-58.58424	0
454	39.86983	-77.29865	-117.98215	18.71441	78.11232	-97.6404	4.06835	1.62734	-26.03744	-101.70875	-90.31737	-61.02525	0
455	42.31084	-77.29865	-120.42316	16.2734	80.55333	-97.6404	4.06835	1.62734	-26.03744	-99.26774	-87.87636	-56.14323	0
456	32.5468	-77.29865	-110.65912	21.15542	70.78929	-92.75838	4.06835	4.06835	-26.03744	-94.38572	-80.55333	-51.26121	0
457	27.66478	-74.85764	-103.33609	23.59643	63.46626	-87.87636	7.32303	4.06835	-23.59643	-91.94471	-75.67131	-48.8202	0
458	30.10579	-69.97562	-100.89508	18.71441	63.46626	-85.43535	7.32303	4.06835	-23.59643	-89.5037	-73.2303	-43.93818	0
459	27.66478	-69.97562	-98.45407	21.15542	61.02525	-82.99434	12.20505	8.95037	-21.15542	-84.62168	-68.34828	-41.49717	0
460	20.34175	-69.97562	-91.13104	23.59643	53.70222	-80.55333	17.08707	11.39138	-18.71441	-82.18067	-65.90727	-39.05616	0
461	22.78276	-72.41663	-96.01306	23.59643	58.58424	-82.99434	17.08707	13.83239	-18.71441	-82.18067	-65.90727	-39.05616	0
462	30.10579	-69.97562	-100.89508	18.71441	63.46626	-85.43535	17.08707	11.39138	-18.71441	-84.62168	-65.90727	-39.05616	0
463	34.98781	-67.53461	-103.33609	16.2734	68.34828	-85.43535	17.08707	13.83239	-18.71441	-84.62168	-68.34828	-39.05616	0
464	34.98781	-65.0936	-100.89508	13.83239	65.90727	-82.99434	17.08707	16.2734	-18.71441	-84.62168	-65.90727	-36.61515	0
465	34.98781	-65.0936	-100.89508	13.83239	65.90727	-82.99434	17.08707	13.83239	-21.15542	-84.62168	-68.34828	-36.61515	0
466	37.42882	-60.21158	-98.45407	11.39138	65.90727	-78.11232	14.64606	11.39138	-23.59643	-87.06269	-68.34828	-39.05616	0
467	30.10579	-57.77057	-88.69003	13.83239	58.58424	-73.2303	14.64606	11.39138	-23.59643	-84.62168	-68.34828	-36.61515	0
468	22.78276	-52.88855	-76.48498	13.83239	48.8202	-63.46626	19.52808	16.2734	-21.15542	-84.62168	-68.34828	-34.17414	0
469	20.34175	-52.88855	-74.04397	16.2734	46.37919	-63.46626	19.52808	16.2734	-21.15542	-84.62168	-65.90727	-34.17414	0
470	22.78276	-55.32956	-78.92599	16.2734	48.8202	-65.90727	14.64606	8.95037	-28.47845	-89.5037	-70.78929	-36.61515	0
471	13.01872	-62.65259	-76.48498	23.59643	43.93818	-68.34828	9.76404	4.06835	-33.36047	-94.38572	-73.2303	-39.05616	0
472	0	-72.41663	-74.04397	35.80148	36.61515	-73.2303	7.32303	4.06835	-35.80148	-94.38572	-73.2303	-39.05616	0
473	-7.32303	-77.29865	-71.60296	40.6835	31.73313	-75.67131	4.06835	4.06835	-38.24249	-96.82673	-73.2303	-39.05616	0
474	-2.44101	-79.73966	-78.92599	40.6835	36.61515	-80.55333	-0.81367	1.62734	-40.6835	-99.26774	-78.11232	-39.05616	0
475	0	-84.62168	-86.24902	40.6835	41.49717	-85.43535	-5.69569	-0.81367	-45.56552	-101.70875	-78.11232	-41.49717	0
476	-2.44101	-84.62168	-83.80801	43.12451	39.05616	-85.43535	-5.69569	-0.81367	-45.56552	-101.70875	-80.55333	-41.49717	0
477	0	-82.18067	-83.80801	40.6835	41.49717	-82.99434	-5.69569	-0.81367	-45.56552	-99.26774	-80.55333	-39.05616	0
478	10.57771	-74.85764	-86.24902	30.91946	46.37919	-80.55333	-3.25468	1.62734	-45.56552	-91.94471	-78.11232	-36.61515	0
479	20.34175	-72.41663	-93.57205	26.03744	56.14323	-82.99434	-3.25468	1.62734	-45.56552	-87.06269	-80.55333	-36.61515	0
480	15.45973	-72.41663	-88.69003	28.47845	51.26121	-80.55333	-3.25468	1.62734	-48.00653	-79.73966	-80.55333	-36.61515	0
481	15.45973	-74.85764	-91.13104	28.47845	51.26121	-82.99434	-3.25468	1.62734	-48.00653	-72.41663	-78.11232	-34.17414	0
482	13.01872	-72.41663	-86.24902	28.47845	48.8202	-78.11232	-0.81367	4.06835	-45.56552	-62.65259	-75.67131	-34.17414	0
483	5.69569	-72.41663	-78.92599	33.36047	41.49717	-75.67131	1.62734	6.50936	-43.12451	-55.32956	-73.2303	-31.73313	0
484	0	-69.97562	-71.60296	33.36047	34.17414	-70.78929	4.06835	11.39138	-38.24249	-45.56552	-70.78929	-29.29212	0
485	0	-65.0936	-66.72094	30.91946	31.73313	-65.90727	4.06835	13.83239	-38.24249	-40.6835	-70.78929	-26.85111	0
486	0	-62.65259	-64.27993	30.91946	31.73313	-63.46626	7.32303	16.2734	-35.80148	-33.36047	-68.34828	-24.4101	0
487	5.69569	-60.21158	-66.72094	26.03744	34.17414	-63.46626	7.32303	16.2734	-35.80148	-30.91946	-68.34828	-24.4101	0
488	17.90074	-55.32956	-74.04397	18.71441	43.93818	-63.46626	4.06835	13.83239	-38.24249	-28.47845	-68.34828	-26.85111	0
489	25.22377	-52.88855	-78.92599	13.83239	51.26121	-65.90727	1.62734	11.39138	-38.24249	-28.47845	-70.78929	-26.85111	0
490	30.10579	-52.88855	-83.80801	11.39138	56.14323	-68.34828	-0.81367	11.39138	-40.6835	-28.47845	-73.2303	-29.29212	0
491	32.5468	-52.88855	-86.24902	8.95037	58.58424	-68.34828	-0.81367	8.95037	-43.12451	-26.03744	-73.2303	-29.29212	0
492	32.5468	-52.88855	-86.24902	8.95037	58.58424	-68.34828	-3.25468	6.50936	-43.12451	-26.03744	-75.67131	-29.29212	0
493	37.42882	-50.44754	-88.69003	6.50936	61.02525	-68.34828	-3.25468	6.50936	-45.56552	-26.03744	-75.67131	-31.73313	0
494	34.98781	-48.00653	-83.80801	6.50936	58.58424	-65.90727	-3.25468	6.50936	-45.56552	-23.59643	-75.67131	-29.29212	0
495	32.5468	-45.56552	-78.92599	6.50936	53.70222	-61.02525	-0.81367	6.50936	-45.56552	-23.59643	-75.67131	-26.85111	0
496	30.10579	-45.56552	-76.48498	6.50936	51.26121	-61.02525	-0.81367	6.50936	-45.56552	-18.71441	-75.67131	-24.4101	0
497	25.22377	-43.12451	-69.16195	8.95037	46.37919	-56.14323	1.62734	8.95037	-43.12451	-18.71441	-73.2303	-21.96909	0
498	25.22377	-38.24249	-64.27993	6.50936	43.93818	-51.26121	4.06835	8.95037	-40.6835	-15.45973	-70.78929	-19.52808	0
499	25.22377	-35.80148	-61.83892	4.06835	41.49717	-48.8202	4.06835	8.95037	-38.24249	-13.01872	-70.78929	-17.08707	0
500	25.22377	-30.91946	-56.9569	1.62734	39.05616	-43.93818	7.32303	11.39138	-38.24249	-8.1367	-68.34828	-14.64606	0
501	22.78276	-30.91946	-54.51589	4.06835	36.61515	-41.49717	7.32303	11.39138	-35.80148	-8.1367	-68.34828	-12.20505	0
502	22.78276	-30.91946	-54.51589	4.06835	36.61515	-41.49717	9.76404	11.39138	-35.80148	-5.69569	-68.34828	-12.20505	0
503	22.78276	-30.91946	-54.51589	4.06835	36.61515	-41.49717	7.32303	8.95037	-35.80148	-5.69569	-68.34828	-14.64606	0
504	17.90074	-38.24249	-56.9569	8.95037	36.61515	-46.37919	7.32303	6.50936	-38.24249	-5.69569	-73.2303	-19.52808	0
505	10.57771	-43.12451	-54.51589	16.2734	31.73313	-48.8202	4.06835	6.50936	-38.24249	-5.69569	-73.2303	-19.52808	0
506	3.25468	-48.00653	-52.07488	21.15542	26.85111	-48.8202	4.06835	8.95037	-38.24249	-5.69569	-73.2303	-19.52808	0
507	0	-50.44754	-52.07488	23.59643	24.4101	-51.26121	4.06835	8.95037	-38.24249	-3.25468	-73.2303	-19.52808	0
508	3.25468	-50.44754	-54.51589	23.59643	26.85111	-51.26121	1.62734	6.50936	-38.24249	-3.25468	-73.2303	-19.52808	0
509	5.69569	-50.44754	-56.9569	21.15542	29.29212	-53.70222	-0.81367	4.06835	-40.6835	-3.25468	-73.2303	-19.52808	0
510	10.57771	-50.44754	-61.83892	18.71441	34.17414	-56.14323	-0.81367	4.06835	-40.6835	-0.81367	-73.2303	-19.52808	0
511	13.01872	-45.56552	-59.39791	16.2734	34.17414	-51.26121	1.62734	4.06835	-38.24249	4.06835	-68.34828	-14.64606	0
512	15.45973	-40.6835	-56.9569	11.39138	34.17414	-48.8202	4.06835	6.50936	-35.80148	6.50936	-65.90727	-14.64606	0
513	13.01872	-40.6835	-54.51589	13.83239	31.73313	-46.37919	4.06835	6.50936	-35.80148	6.50936	-65.90727	-14.64606	0
514	8.1367	-38.24249	-47.19286	13.83239	26.85111	-41.49717	12.20505	8.95037	-30.91946	11.39138	-61.02525	-9.76404	0
515	0	-35.80148	-37.42882	16.2734	17.08707	-36.61515	14.64606	11.39138	-28.47845	13.83239	-58.58424	-7.32303	0
516	0	-35.80148	-37.42882	16.2734	17.08707	-36.61515	14.64606	8.95037	-28.47845	13.83239	-56.14323	-7.32303	0
517	3.25468	-35.80148	-39.86983	16.2734	19.52808	-36.61515	12.20505	4.06835	-33.36047	11.39138	-56.14323	-9.76404	0
518	5.69569	-40.6835	-47.19286	16.2734	24.4101	-43.93818	7.32303	-0.81367	-40.6835	6.50936	-61.02525	-14.64606	0
519	0	-45.56552	-47.19286	21.15542	21.96909	-46.37919	1.62734	-8.1367	-45.56552	1.62734	-61.02525	-17.08707	0
520	0	-48.00653	-49.63387	23.59643	24.4101	-48.8202	-3.25468	-10.57771	-48.00653	-0.81367	-61.02525	-19.52808	0
521	8.1367	-48.00653	-56.9569	18.71441	31.73313	-51.26121	-10.57771	-15.45973	-52.88855	-5.69569	-63.46626	-21.96909	0
522	13.01872	-48.00653	-61.83892	16.2734	36.61515	-53.70222	-13.01872	-15.45973	-55.32956	-5.69569	-63.46626	-24.4101	0
523	15.45973	-45.56552	-61.83892	13.83239	36.61515	-53.70222	-13.01872	-13.01872	-52.88855	-5.69569	-63.46626	-24.4101	0
524	15.45973	-40.6835	-56.9569	11.39138	34.17414	-48.8202	-10.57771	-10.57771	-48.00653	-0.81367	-58.58424	-21.96909	0
525	20.34175	-30.91946	-52.07488	4.06835	34.17414	-41.49717	-5.69569	-3.25468	-43.12451	4.06835	-53.70222	-17.08707	0
526	22.78276	-26.03744	-49.63387	1.62734	34.17414	-36.61515	-0.81367	-0.81367	-38.24249	8.95037	-48.8202	-14.64606	0
527	20.34175	-23.59643	-44.75185	1.62734	31.73313	-34.17414	1.62734	1.62734	-35.80148	11.39138	-43.93818	-9.76404	0
528	15.45973	-21.15542	-37.42882	1.62734	24.4101	-29.29212	4.06835	4.06835	-33.36047	13.83239	-39.05616	-4.88202	0
529	5.69569	-18.71441	-25.22377	6.50936	14.64606	-21.96909	9.76404	8.95037	-28.47845	18.71441	-34.17414	-2.44101	0
530	0	-18.71441	-20.34175	8.95037	9.76404	-19.52808	12.20505	11.39138	-28.47845	21.15542	-31.73313	-2.44101	0
531	-9.76404	-21.15542	-13.01872	13.83239	-0.81367	-17.08707	14.64606	11.39138	-28.47845	21.15542	-31.73313	-2.44101	0
532	-12.20505	-26.03744	-15.45973	18.71441	-0.81367	-21.96909	14.64606	8.95037	-30.91946	18.71441	-31.73313	-2.44101	0
533	-9.76404	-30.91946	-22.78276	18.71441	4.88202	-26.85111	9.76404	6.50936	-33.36047	13.83239	-36.61515	-9.76404	0
534	-4.88202	-35.80148	-32.5468	18.71441	12.20505	-34.17414	4.06835	1.62734	-38.24249	11.39138	-41.49717	-14.64606	0
535	0	-35.80148	-37.42882	16.2734	17.08707	-36.61515	1.62734	-0.81367	-40.6835	8.95037	-41.49717	-14.64606	0
536	3.25468	-35.80148	-39.86983	16.2734	19.52808	-36.61515	-0.81367	-3.25468	-40.6835	8.95037	-41.49717	-17.08707	0
537	13.01872	-30.91946	-44.75185	8.95037	26.85111	-36.61515	-3.25468	-3.25468	-40.6835	8.95037	-41.49717	-17.08707	0
538	17.90074	-28.47845	-47.19286	4.06835	31.73313	-36.61515	-5.69569	-5.69569	-40.6835	8.95037	-41.49717	-17.08707	0
539	17.90074	-23.59643	-42.31084	1.62734	29.29212	-31.73313	-5.69569	-5.69569	-40.6835	11.39138	-39.05616	-12.20505	0
540	17.90074	-21.15542	-39.86983	1.62734	26.85111	-29.29212	-5.69569	-5.69569	-40.6835	13.83239	-36.61515	-9.76404	0
541	20.34175	-16.2734	-37.42882	-1.62734	26.85111	-26.85111	-3.25468	-5.69569	-38.24249	16.2734	-31.73313	-7.32303	0
542	17.90074	-16.2734	-34.98781	-1.62734	24.4101	-24.4101	-0.81367	-5.69569	-38.24249	16.2734	-31.73313	-7.32303	0
543	15.45973	-18.71441	-34.98781	1.62734	24.4101	-26.85111	-0.81367	-8.1367	-38.24249	16.2734	-31.73313	-7.32303	0
544	8.1367	-23.59643	-32.5468	6.50936	19.52808	-26.85111	-0.81367	-10.57771	-38.24249	16.2734	-31.73313	-7.32303	0
545	8.1367	-23.59643	-32.5468	6.50936	19.52808	-26.85111	-0.81367	-10.57771	-38.24249	16.2734	-34.17414	-9.76404	0
546	10.57771	-18.71441	-30.10579	4.06835	19.52808	-24.4101	1.62734	-10.57771	-35.80148	16.2734	-34.17414	-9.76404	0
547	5.69569	-16.2734	-22.78276	4.06835	12.20505	-19.52808	4.06835	-8.1367	-33.36047	16.2734	-34.17414	-9.76404	0
548	3.25468	-13.83239	-17.90074	4.06835	9.76404	-14.64606	4.06835	-8.1367	-33.36047	16.2734	-34.17414	-9.76404	0
549	5.69569	-13.83239	-20.34175	4.06835	12.20505	-17.08707	4.06835	-8.1367	-33.36047	16.2734	-34.17414	-12.20505	0
550	5.69569	-13.83239	-20.34175	4.06835	12.20505	-17.08707	4.06835	-5.69569	-33.36047	16.2734	-34.17414	-12.20505	0
551	5.69569	-8.95037	-15.45973	1.62734	9.76404	-12.20505	4.06835	-5.69569	-30.91946	18.71441	-34.17414	-9.76404	0
552	8.1367	-11.39138	-20.34175	1.62734	12.20505	-14.64606	4.06835	-5.69569	-30.91946	18.71441	-34.17414	-9.76404	0
553	3.25468	-16.2734	-20.34175	6.50936	9.76404	-17.08707	1.62734	-5.69569	-30.91946	18.71441	-34.17414	-9.76404	0
554	3.25468	-18.71441	-22.78276	6.50936	12.20505	-19.52808	1.62734	-5.69569	-30.91946	16.2734	-34.17414	-9.76404	0
555	0	-18.71441	-20.34175	8.95037	9.76404	-19.52808	1.62734	-0.81367	-30.91946	16.2734	-34.17414	-9.76404	0
556	0	-18.71441	-20.34175	8.95037	9.76404	-19.52808	1.62734	-0.81367	-30.91946	16.2734	-34.17414	-12.20505	0
557	8.1367	-18.71441	-27.66478	4.06835	17.08707	-21.96909	-0.81367	-3.25468	-33.36047	16.2734	-36.61515	-14.64606	0
558	5.69569	-18.71441	-25.22377	6.50936	14.64606	-21.96909	-0.81367	-3.25468	-33.36047	13.83239	-36.61515	-17.08707	0
559	-2.44101	-18.71441	-17.90074	8.95037	7.32303	-19.52808	1.62734	-3.25468	-30.91946	13.83239	-36.61515	-17.08707	0
560	-4.88202	-16.2734	-13.01872	8.95037	2.44101	-14.64606	1.62734	-3.25468	-30.91946	13.83239	-36.61515	-17.08707	0
561	-4.88202	-13.83239	-10.57771	8.95037	2.44101	-12.20505	1.62734	-3.25468	-30.91946	13.83239	-36.61515	-17.08707	0
562	0	-11.39138	-13.01872	4.06835	4.88202	-12.20505	-0.81367	-5.69569	-30.91946	13.83239	-36.61515	-14.64606	1500	QRS+0
563	-4.88202	-8.95037	-5.69569	6.50936	-0.81367	-7.32303	1.62734	-3.25468	-28.47845	18.71441	-31.73313	-9.76404	0
564	-12.20505	-8.95037	2.44101	8.95037	-8.1367	-4.88202	4.06835	-0.81367	-26.03744	21.15542	-31.73313	-7.32303	0
565	-12.20505	-11.39138	-0.81367	11.39138	-8.1367	-7.32303	4.06835	-0.81367	-26.03744	21.15542	-31.73313	-7.32303	0
566	-7.32303	-11.39138	-5.69569	8.95037	-3.25468	-9.76404	4.06835	-0.81367	-26.03744	21.15542	-31.73313	-7.32303	0
567	-4.88202	-8.95037	-5.69569	6.50936	-0.81367	-7.32303	4.06835	1.62734	-23.59643	21.15542	-31.73313	-7.32303	0
568	-9.76404	-6.50936	2.44101	6.50936	-8.1367	-2.44101	7.32303	4.06835	-21.15542	23.59643	-29.29212	-2.44101	0
569	-12.20505	-4.06835	7.32303	6.50936	-10.57771	0	7.32303	6.50936	-18.71441	26.03744	-29.29212	-2.44101	0
570	-2.44101	0.81367	2.44101	-1.62734	-3.25468	0	7.32303	4.06835	-18.71441	23.59643	-29.29212	-2.44101	0
571	13.01872	6.50936	-8.1367	-8.95037	9.76404	0	4.06835	4.06835	-21.15542	23.59643	-29.29212	-2.44101	0
572	15.45973	8.95037	-8.1367	-11.39138	12.20505	0	4.06835	1.62734	-21.15542	23.59643	-29.29212	-2.44101	0
573	15.45973	11.39138	-5.69569	-13.83239	9.76404	3.25468	7.32303	1.62734	-21.15542	23.59643	-29.29212	-2.44101	0
574	13.01872	11.39138	-3.25468	-11.39138	7.32303	5.69569	7.32303	1.62734	-18.71441	23.59643	-29.29212	-2.44101	0
575	13.01872	11.39138	-3.25468	-11.39138	7.32303	5.69569	7.32303	1.62734	-18.71441	21.15542	-31.73313	-2.44101	0
576	13.01872	8.95037	-5.69569	-11.39138	9.76404	3.25468	7.32303	-0.81367	-21.15542	18.71441	-34.17414	-7.32303	0
577	3.25468	4.06835	-0.81367	-4.06835	2.44101	3.25468	7.32303	-0.81367	-23.59643	16.2734	-36.61515	-9.76404	0
578	-4.88202	0.81367	4.88202	1.62734	-5.69569	3.25468	4.06835	-3.25468	-26.03744	13.83239	-39.05616	-14.64606	0
579	-7.32303	-1.62734	4.88202	4.06835	-8.1367	0	1.62734	-3.25468	-26.03744	11.39138	-39.05616	-17.08707	0
580	-4.88202	-1.62734	2.44101	1.62734	-5.69569	0	-0.81367	-3.25468	-26.03744	11.39138	-39.05616	-17.08707	0
581	-2.44101	0.81367	2.44101	-1.62734	-3.25468	0	-0.81367	-0.81367	-23.59643	8.95037	-39.05616	-17.08707	0
582	-4.88202	0.81367	4.88202	1.62734	-5.69569	3.25468	1.62734	4.06835	-21.15542	13.83239	-34.17414	-14.64606	0
583	0	6.50936	4.88202	-4.06835	-3.25468	5.69569	1.62734	6.50936	-16.2734	18.71441	-29.29212	-9.76404	0
584	8.1367	16.2734	7.32303	-11.39138	-0.81367	13.01872	4.06835	11.39138	-13.83239	21.15542	-24.4101	-4.88202	0
585	13.01872	18.71441	4.88202	-16.2734	4.88202	13.01872	4.06835	11.39138	-13.83239	23.59643	-24.4101	-4.88202	0
586	13.01872	18.71441	4.88202	-16.2734	4.88202	13.01872	4.06835	11.39138	-13.83239	23.59643	-21.96909	-4.88202	0
587	5.69569	16.2734	9.76404	-11.39138	-3.25468	13.01872	4.06835	11.39138	-16.2734	23.59643	-21.96909	-2.44101	0
588	0	13.83239	12.20505	-6.50936	-5.69569	13.01872	4.06835	8.95037	-16.2734	23.59643	-21.96909	-2.44101	0
589	0	11.39138	9.76404	-6.50936	-5.69569	10.57771	1.62734	8.95037	-16.2734	23.59643	-24.4101	-7.32303	0
590	-4.88202	11.39138	14.64606	-4.06835	-10.57771	13.01872	4.06835	13.83239	-11.39138	23.59643	-24.4101	-7.32303	0
591	-7.32303	11.39138	17.08707	-1.62734	-13.01872	13.01872	4.06835	13.83239	-8.95037	23.59643	-24.4101	-7.32303	0
592	-4.88202	13.83239	17.08707	-4.06835	-10.57771	15.45973	4.06835	13.83239	-8.95037	23.59643	-24.4101	-7.32303	0
593	-4.88202	13.83239	17.08707	-4.06835	-10.57771	15.45973	7.32303	16.2734	-4.06835	26.03744	-21.96909	-7.32303	0
594	0	16.2734	14.64606	-8.95037	-8.1367	15.45973	7.32303	16.2734	-4.06835	26.03744	-21.96909	-7.32303	0
595	0	16.2734	14.64606	-8.95037	-8.1367	15.45973	9.76404	16.2734	-4.06835	26.03744	-19.52808	-9.76404	0
596	-7.32303	13.83239	19.52808	-4.06835	-13.01872	15.45973	9.76404	16.2734	-1.62734	26.03744	-17.08707	-4.88202	0
597	-9.76404	11.39138	19.52808	-1.62734	-15.45973	15.45973	9.76404	16.2734	-1.62734	26.03744	-17.08707	-4.88202	0
598	-7.32303	8.95037	14.64606	-1.62734	-10.57771	10.57771	9.76404	18.71441	-1.62734	26.03744	-19.52808	-7.32303	0
599	-9.76404	6.50936	14.64606	1.62734	-13.01872	10.57771	4.06835	18.71441	-1.62734	23.59643	-19.52808	-9.76404	0
600	-17.08707	0.81367	17.08707	6.50936	-17.90074	8.1367	4.06835	18.71441	-1.62734	21.15542	-19.52808	-9.76404	0
601	-21.96909	0.81367	21.96909	8.95037	-22.78276	10.57771	4.06835	21.15542	0.81367	21.15542	-17.08707	-7.32303	0
602	-19.52808	-1.62734	17.08707	8.95037	-20.34175	8.1367	1.62734	18.71441	-1.62734	21.15542	-19.52808	-7.32303	0
603	-17.08707	-1.62734	14.64606	8.95037	-17.90074	5.69569	1.62734	16.2734	-1.62734	21.15542	-19.52808	-9.76404	0
604	-19.52808	0.81367	19.52808	8.95037	-20.34175	10.57771	1.62734	18.71441	-1.62734	21.15542	-19.52808	-7.32303	0
605	-17.08707	4.06835	19.52808	6.50936	-17.90074	10.57771	1.62734	21.15542	0.81367	21.15542	-17.08707	-7.32303	0
606	-7.32303	8.95037	14.64606	-1.62734	-10.57771	10.57771	1.62734	21.15542	0.81367	21.15542	-17.08707	-7.32303	0
607	0	16.2734	14.64606	-8.95037	-8.1367	15.45973	1.62734	21.15542	3.25468	21.15542	-19.52808	-7.32303	0
608	10.57771	23.59643	12.20505	-16.2734	-0.81367	17.90074	1.62734	21.15542	3.25468	21.15542	-19.52808	-7.32303	0
609	13.01872	28.47845	14.64606	-21.15542	-0.81367	22.78276	1.62734	24.4101	3.25468	21.15542	-17.08707	-7.32303	0
610	15.45973	26.03744	9.76404	-21.15542	2.44101	17.90074	1.62734	24.4101	5.69569	18.71441	-19.52808	-7.32303	0
611	20.34175	26.03744	4.88202	-23.59643	7.32303	15.45973	1.62734	24.4101	3.25468	18.71441	-19.52808	-7.32303	0
612	20.34175	26.03744	4.88202	-23.59643	7.32303	15.45973	1.62734	26.85111	5.69569	16.2734	-19.52808	-7.32303	0
613	15.45973	23.59643	7.32303	-18.71441	4.88202	15.45973	1.62734	29.29212	8.1367	18.71441	-17.08707	-7.32303	0
614	3.25468	16.2734	12.20505	-8.95037	-5.69569	15.45973	-0.81367	29.29212	8.1367	18.71441	-17.08707	-7.32303	0
615	-2.44101	6.50936	7.32303	-1.62734	-5.69569	5.69569	-5.69569	29.29212	8.1367	16.2734	-19.52808	-9.76404	0
616	-7.32303	0.81367	7.32303	1.62734	-8.1367	3.25468	-5.69569	24.4101	8.1367	16.2734	-19.52808	-9.76404	0
617	-12.20505	0.81367	12.20505	4.06835	-13.01872	5.69569	-5.69569	24.4101	8.1367	16.2734	-19.52808	-7.32303	0
618	-12.20505	4.06835	14.64606	4.06835	-13.01872	8.1367	-5.69569	24.4101	8.1367	16.2734	-17.08707	-7.32303	0
619	-7.32303	4.06835	9.76404	1.62734	-8.1367	5.69569	-8.1367	24.4101	8.1367	16.2734	-17.08707	-7.32303	0
620	0	6.50936	4.88202	-4.06835	-3.25468	5.69569	-10.57771	21.15542	8.1367	16.2734	-17.08707	-7.32303	0
621	0	11.39138	9.76404	-6.50936	-5.69569	10.57771	-8.1367	24.4101	8.1367	18.71441	-14.64606	-4.88202	0
622	3.25468	13.83239	9.76404	-8.95037	-3.25468	13.01872	-5.69569	26.85111	8.1367	18.71441	-14.64606	-2.44101	0
623	5.69569	16.2734	9.76404	-11.39138	-3.25468	13.01872	-5.69569	26.85111	11.39138	18.71441	-14.64606	-4.88202	0
624	5.69569	16.2734	9.76404	-11.39138	-3.25468	13.01872	-5.69569	29.29212	11.39138	18.71441	-14.64606	-4.88202	0
625	5.69569	18.71441	12.20505	-11.39138	-3.25468	15.45973	-3.25468	29.29212	11.39138	18.71441	-12.20505	-7.32303	0
626	3.25468	21.15542	17.08707	-11.39138	-8.1367	20.34175	1.62734	34.17414	16.2734	18.71441	-9.76404	-7.32303	0
627	0	23.59643	21.96909	-11.39138	-10.57771	22.78276	4.06835	36.61515	18.71441	21.15542	-4.06835	-4.88202	0
628	3.25468	28.47845	24.4101	-16.2734	-10.57771	27.66478	9.76404	39.05616	21.15542	23.59643	3.25468	-2.44101	0
629	3.25468	33.36047	29.29212	-18.71441	-13.01872	32.5468	9.76404	41.49717	23.59643	23.59643	8.1367	-2.44101	0
630	3.25468	33.36047	29.29212	-18.71441	-13.01872	32.5468	9.76404	41.49717	23.59643	23.59643	13.01872	-2.44101	0
631	5.69569	33.36047	26.85111	-18.71441	-10.57771	30.10579	9.76404	43.93818	26.03744	23.59643	15.45973	0.81367	0
632	0	33.36047	31.73313	-16.2734	-15.45973	32.5468	12.20505	46.37919	30.91946	26.03744	20.34175	3.25468	0
633	0	38.24249	36.61515	-18.71441	-17.90074	37.42882	14.64606	48.8202	30.91946	26.03744	20.34175	3.25468	0
634	3.25468	43.12451	39.05616	-23.59643	-17.90074	42.31084	14.64606	51.26121	33.36047	28.47845	22.78276	3.25468	0
635	3.25468	48.00653	43.93818	-26.03744	-20.34175	47.19286	17.08707	53.70222	33.36047	28.47845	22.78276	3.25468	0
636	15.45973	60.21158	43.93818	-38.24249	-15.45973	52.07488	21.96909	56.14323	38.24249	28.47845	22.78276	0.81367	0
637	17.90074	69.97562	51.26121	-43.12451	-17.90074	61.83892	26.85111	58.58424	40.6835	28.47845	25.22377	0.81367	0
638	20.34175	74.85764	53.70222	-48.00653	-17.90074	64.27993	29.29212	58.58424	40.6835	28.47845	25.22377	0.81367	0
639	25.22377	77.29865	51.26121	-50.44754	-13.01872	64.27993	29.29212	58.58424	38.24249	26.03744	22.78276	-2.44101	0
640	32.5468	77.29865	43.93818	-55.32956	-5.69569	61.83892	31.73313	56.14323	35.80148	21.15542	20.34175	-4.88202	0
641	37.42882	79.73966	41.49717	-57.77057	-3.25468	61.83892	34.17414	56.14323	35.80148	18.71441	17.90074	-4.88202	0
642	32.5468	77.29865	43.93818	-55.32956	-5.69569	61.83892	36.61515	58.58424	35.80148	18.71441	15.45973	-4.88202	0
643	25.22377	74.85764	48.8202	-50.44754	-13.01872	61.83892	39.05616	61.02525	35.80148	18.71441	17.90074	-2.44101	0
644	17.90074	74.85764	56.14323	-45.56552	-20.34175	66.72094	41.49717	65.90727	35.80148	21.15542	17.90074	-2.44101	0
645	8.1367	72.41663	63.46626	-40.6835	-27.66478	69.16195	43.93818	68.34828	35.80148	21.15542	17.90074	-2.44101	0
646	-2.44101	67.53461	68.34828	-33.36047	-34.98781	66.72094	48.8202	70.78929	38.24249	23.59643	20.34175	3.25468	0
647	-9.76404	67.53461	75.67131	-28.47845	-42.31084	71.60296	48.8202	75.67131	40.6835	23.59643	22.78276	3.25468	0
648	-9.76404	69.97562	78.11232	-30.91946	-44.75185	74.04397	48.8202	80.55333	40.6835	23.59643	22.78276	5.69569	0
649	-9.76404	67.53461	75.67131	-28.47845	-42.31084	71.60296	48.8202	82.99434	40.6835	23.59643	22.78276	3.25468	0
650	-12.20505	65.0936	75.67131	-26.03744	-44.75185	69.16195	48.8202	82.99434	40.6835	21.15542	20.34175	3.25468	0
651	-14.64606	65.0936	78.11232	-26.03744	-47.19286	71.60296	48.8202	82.99434	43.12451	21.15542	22.78276	3.25468	0
652	-7.32303	67.53461	73.2303	-30.91946	-39.86983	69.16195	48.8202	82.99434	45.56552	21.15542	17.90074	3.25468	0
653	0	72.41663	70.78929	-35.80148	-34.98781	71.60296	48.8202	82.99434	48.00653	18.71441	15.45973	3.25468	0
654	-4.88202	74.85764	78.11232	-35.80148	-42.31084	76.48498	56.14323	85.43535	50.44754	21.15542	15.45973	8.1367	0
655	-12.20505	82.18067	92.75838	-35.80148	-52.07488	86.24902	63.46626	87.87636	55.32956	28.47845	17.90074	13.01872	0
656	-9.76404	91.94471	100.08141	-40.6835	-54.51589	96.01306	70.78929	92.75838	60.21158	33.36047	20.34175	17.90074	0
657	0	106.59077	104.96343	-52.88855	-52.07488	105.7771	70.78929	95.19939	60.21158	35.80148	25.22377	22.78276	0
658	8.1367	118.79582	109.84545	-62.65259	-52.07488	115.54114	73.2303	100.08141	62.65259	40.6835	27.66478	27.66478	0
659	10.57771	123.67784	112.28646	-67.53461	-52.07488	117.98215	70.78929	97.6404	60.21158	45.56552	32.5468	27.66478	0
660	13.01872	123.67784	109.84545	-67.53461	-49.63387	117.98215	58.58424	95.19939	60.21158	45.56552	34.98781	27.66478	0
661	17.90074	123.67784	104.96343	-69.97562	-44.75185	115.54114	46.37919	87.87636	57.77057	43.12451	34.98781	22.78276	0
662	17.90074	118.79582	100.08141	-67.53461	-42.31084	110.65912	34.17414	82.99434	57.77057	40.6835	32.5468	22.78276	0
663	15.45973	116.35481	100.08141	-65.0936	-42.31084	108.21811	21.96909	78.11232	57.77057	38.24249	30.10579	22.78276	0
664	15.45973	113.9138	97.6404	-65.0936	-42.31084	105.7771	12.20505	73.2303	55.32956	35.80148	27.66478	20.34175	-1500	QRS-0
665	13.01872	113.9138	100.08141	-62.65259	-44.75185	108.21811	4.06835	65.90727	50.44754	33.36047	25.22377	20.34175	0
666	13.01872	121.23683	107.40444	-67.53461	-47.19286	115.54114	-0.81367	63.46626	48.00653	33.36047	27.66478	22.78276	0
667	20.34175	126.11885	104.96343	-72.41663	-42.31084	115.54114	-8.1367	58.58424	40.6835	33.36047	27.66478	25.22377	0
668	25.22377	131.00087	104.96343	-77.29865	-39.86983	117.98215	-17.90074	51.26121	30.91946	28.47845	25.22377	22.78276	0
669	27.66478	133.44188	104.96343	-79.73966	-39.86983	120.42316	-22.78276	46.37919	21.15542	28.47845	27.66478	22.78276	0
670	20.34175	133.44188	112.28646	-77.29865	-47.19286	122.86417	-25.22377	41.49717	18.71441	33.36047	32.5468	27.66478	0
671	22.78276	131.00087	107.40444	-77.29865	-42.31084	120.42316	-27.66478	36.61515	13.83239	33.36047	37.42882	30.10579	0
672	32.5468	128.55986	95.19939	-79.73966	-32.5468	113.10013	-32.5468	31.73313	8.1367	33.36047	37.42882	30.10579	0
673	42.31084	123.67784	80.55333	-82.18067	-20.34175	103.33609	-34.98781	26.85111	8.1367	28.47845	34.98781	32.5468	0
674	49.63387	123.67784	73.2303	-87.06269	-13.01872	98.45407	-30.10579	26.85111	8.1367	30.91946	37.42882	37.42882	0
675	52.07488	121.23683	68.34828	-87.06269	-8.1367	96.01306	-25.22377	29.29212	8.1367	30.91946	37.42882	39.86983	0
676	56.9569	116.35481	58.58424	-87.06269	-0.81367	88.69003	-22.78276	29.29212	8.1367	30.91946	37.42882	37.42882	0
677	59.39791	113.9138	53.70222	-87.06269	2.44101	83.80801	-20.34175	29.29212	8.1367	28.47845	34.98781	37.42882	0
678	52.07488	111.47279	58.58424	-82.18067	-3.25468	86.24902	-15.45973	36.61515	8.1367	30.91946	37.42882	37.42882	0
679	34.98781	104.14976	68.34828	-69.97562	-17.90074	86.24902	-8.1367	41.49717	8.1367	33.36047	39.86983	34.98781	0
680	17.90074	96.82673	78.11232	-57.77057	-30.10579	88.69003	-3.25468	43.93818	8.1367	35.80148	44.75185	34.98781	0
681	5.69569	87.06269	80.55333	-45.56552	-37.42882	83.80801	-0.81367	43.93818	8.1367	35.80148	47.19286	32.5468	0
682	0	77.29865	75.67131	-38.24249	-37.42882	76.48498	-0.81367	46.37919	11.39138	30.91946	44.75185	30.10579	0
683	-4.88202	67.53461	70.78929	-30.91946	-37.42882	69.16195	1.62734	48.8202	16.2734	26.03744	42.31084	27.66478	0
684	-4.88202	52.88855	56.14323	-23.59643	-30.10579	54.51589	7.32303	48.8202	16.2734	21.15542	34.98781	25.22377	0
685	-4.88202	43.12451	46.37919	-18.71441	-25.22377	44.75185	12.20505	48.8202	18.71441	16.2734	27.66478	20.34175	0
686	-4.88202	33.36047	36.61515	-13.83239	-20.34175	34.98781	17.08707	53.70222	18.71441	11.39138	22.78276	15.45973	0
687	-4.88202	23.59643	26.85111	-8.95037	-15.45973	25.22377	21.96909	58.58424	18.71441	8.95037	20.34175	10.57771	0
688	-7.32303	16.2734	21.96909	-4.06835	-15.45973	17.90074	26.85111	63.46626	21.15542	6.50936	17.90074	8.1367	0
689	-9.76404	11.39138	19.52808	-1.62734	-15.45973	15.45973	31.73313	65.90727	18.71441	4.06835	17.90074	5.69569	0
690	-14.64606	6.50936	19.52808	4.06835	-17.90074	13.01872	34.17414	63.46626	16.2734	4.06835	17.90074	3.25468	0
691	-14.64606	4.06835	17.08707	4.06835	-15.45973	10.57771	34.17414	61.02525	13.83239	4.06835	20.34175	3.25468	0
692	-12.20505	4.06835	14.64606	4.06835	-13.01872	8.1367	34.17414	58.58424	13.83239	4.06835	20.34175	3.25468	0
693	-12.20505	4.06835	14.64606	4.06835	-13.01872	8.1367	34.17414	53.70222	16.2734	-0.81367	17.90074	5.69569	0
694	-7.32303	0.81367	7.32303	1.62734	-8.1367	3.25468	34.17414	48.8202	11.39138	-3.25468	13.01872	5.69569	0
695	-2.44101	-4.06835	-3.25468	1.62734	-0.81367	-4.88202	34.17414	43.93818	8.1367	-8.1367	8.1367	3.25468	0
696	-2.44101	-11.39138	-10.57771	6.50936	2.44101	-12.20505	31.73313	39.05616	3.25468	-13.01872	0.81367	0.81367	0
697	-7.32303	-21.15542	-15.45973	13.83239	2.44101	-19.52808	29.29212	34.17414	-4.06835	-18.71441	-4.06835	-2.44101	0
698	-19.52808	-33.36047	-15.45973	26.03744	-3.25468	-24.4101	21.96909	29.29212	-11.39138	-26.03744	-9.76404	-9.76404	0
699	-24.4101	-43.12451	-20.34175	33.36047	-3.25468	-31.73313	17.08707	26.85111	-21.15542	-28.47845	-14.64606	-17.08707	0
700	-26.85111	-50.44754	-25.22377	38.24249	-3.25468	-39.05616	12.20505	21.15542	-23.59643	-30.91946	-14.64606	-21.96909	0
701	-29.29212	-52.88855	-25.22377	40.6835	-3.25468	-39.05616	12.20505	21.15542	-23.59643	-30.91946	-12.20505	-24.4101	0
702	-36.61515	-52.88855	-17.90074	43.12451	-10.57771	-36.61515	14.64606	21.15542	-21.15542	-30.91946	-9.76404	-21.96909	0
703	-39.05616	-50.44754	-13.01872	43.12451	-15.45973	-31.73313	17.08707	21.15542	-13.83239	-30.91946	-9.76404	-17.08707	0
704	-36.61515	-45.56552	-10.57771	40.6835	-15.45973	-29.29212	24.4101	24.4101	-8.95037	-23.59643	-4.06835	-14.64606	0
705	-31.73313	-40.6835	-10.57771	35.80148	-13.01872	-26.85111	26.85111	24.4101	-6.50936	-23.59643	-1.62734	-12.20505	0
706	-31.73313	-43.12451	-13.01872	35.80148	-10.57771	-29.29212	26.85111	26.85111	-6.50936	-21.15542	-1.62734	-12.20505	0
707	-36.61515	-45.56552	-10.57771	40.6835	-15.45973	-29.29212	29.29212	31.73313	-6.50936	-21.15542	0.81367	-14.64606	0
708	-36.61515	-48.00653	-13.01872	40.6835	-13.01872	-31.73313	26.85111	31.73313	-8.95037	-23.59643	-1.62734	-19.52808	0
709	-31.73313	-50.44754	-20.34175	40.6835	-8.1367	-36.61515	24.4101	31.73313	-16.2734	-23.59643	-1.62734	-24.4101	0
710	-34.17414	-52.88855	-20.34175	43.12451	-8.1367	-36.61515	24.4101	31.73313	-16.2734	-21.15542	-1.62734	-26.85111	0
711	-31.73313	-52.88855	-22.78276	40.6835	-5.69569	-39.05616	21.96909	29.29212	-16.2734	-23.59643	-1.62734	-29.29212	0
712	-26.85111	-52.88855	-27.66478	38.24249	-0.81367	-41.49717	21.96909	26.85111	-13.83239	-23.59643	-1.62734	-29.29212	0
713	-19.52808	-48.00653	-30.10579	33.36047	4.88202	-39.05616	24.4101	24.4101	-11.39138	-26.03744	-4.06835	-29.29212	0
714	-12.20505	-40.6835	-30.10579	26.03744	7.32303	-36.61515	31.73313	24.4101	-6.50936	-23.59643	-4.06835	-26.85111	0
715	-7.32303	-35.80148	-30.10579	21.15542	9.76404	-34.17414	34.17414	24.4101	-4.06835	-23.59643	-4.06835	-26.85111	0
716	3.25468	-33.36047	-37.42882	13.83239	19.52808	-34.17414	34.17414	24.4101	-4.06835	-23.59643	-4.06835	-29.29212	0
717	5.69569	-30.91946	-37.42882	11.39138	19.52808	-34.17414	36.61515	24.4101	-4.06835	-23.59643	-4.06835	-29.29212	0
718	-4.88202	-30.91946	-27.66478	16.2734	9.76404	-29.29212	39.05616	29.29212	-1.62734	-21.15542	-1.62734	-29.29212	0
719	-17.08707	-35.80148	-20.34175	26.03744	-0.81367	-29.29212	41.49717	31.73313	-4.06835	-18.71441	0.81367	-29.29212	0
720	-29.29212	-43.12451	-15.45973	35.80148	-8.1367	-29.29212	36.61515	29.29212	-8.95037	-18.71441	3.25468	-31.73313	0
721	-36.61515	-52.88855	-17.90074	43.12451	-10.57771	-36.61515	29.29212	24.4101	-11.39138	-21.15542	3.25468	-31.73313	0
722	-41.49717	-62.65259	-22.78276	50.44754	-10.57771	-43.93818	24.4101	21.15542	-11.39138	-23.59643	0.81367	-39.05616	0
723	-43.93818	-67.53461	-25.22377	55.32956	-10.57771	-46.37919	19.52808	18.71441	-13.83239	-28.47845	-4.06835	-41.49717	0
724	-36.61515	-72.41663	-37.42882	52.88855	-0.81367	-56.14323	19.52808	16.2734	-13.83239	-30.91946	-9.76404	-43.93818	0
725	-29.29212	-72.41663	-44.75185	50.44754	7.32303	-58.58424	17.08707	13.83239	-16.2734	-33.36047	-9.76404	-46.37919	0
726	-24.4101	-69.97562	-47.19286	45.56552	9.76404	-58.58424	21.96909	13.83239	-16.2734	-33.36047	-9.76404	-48.8202	0
727	-19.52808	-67.53461	-49.63387	43.12451	14.64606	-58.58424	24.4101	18.71441	-16.2734	-33.36047	-9.76404	-51.26121	0
728	-19.52808	-62.65259	-44.75185	40.6835	12.20505	-53.70222	29.29212	21.15542	-16.2734	-30.91946	-9.76404	-51.26121	0
729	-19.52808	-57.77057	-39.86983	38.24249	9.76404	-48.8202	31.73313	24.4101	-16.2734	-28.47845	-4.06835	-51.26121	0
730	-14.64606	-52.88855	-39.86983	33.36047	12.20505	-46.37919	31.73313	29.29212	-13.83239	-26.03744	0.81367	-51.26121	0
731	-17.08707	-52.88855	-37.42882	33.36047	9.76404	-46.37919	31.73313	31.73313	-11.39138	-23.59643	3.25468	-53.70222	0
732	-19.52808	-55.32956	-37.42882	35.80148	7.32303	-46.37919	29.29212	31.73313	-8.95037	-26.03744	3.25468	-56.14323	0
733	-24.4101	-57.77057	-34.98781	40.6835	4.88202	-46.37919	29.29212	31.73313	-6.50936	-28.47845	0.81367	-58.58424	0
734	-26.85111	-62.65259	-37.42882	43.12451	4.88202	-51.26121	26.85111	31.73313	-6.50936	-30.91946	0.81367	-58.58424	0
735	-21.96909	-65.0936	-44.75185	43.12451	9.76404	-56.14323	26.85111	26.85111	-8.95037	-30.91946	-1.62734	-61.02525	0
736	-29.29212	-72.41663	-44.75185	50.44754	7.32303	-58.58424	26.85111	26.85111	-8.95037	-33.36047	-1.62734	-61.02525	0
737	-31.73313	-77.29865	-47.19286	52.88855	7.32303	-63.46626	24.4101	24.4101	-13.83239	-33.36047	-1.62734	-61.02525	0
738	-29.29212	-74.85764	-47.19286	50.44754	7.32303	-61.02525	24.4101	24.4101	-16.2734	-33.36047	0.81367	-61.02525	0
739	-24.4101	-74.85764	-52.07488	48.00653	12.20505	-63.46626	24.4101	24.4101	-18.71441	-30.91946	5.69569	-61.02525	0
740	-21.96909	-69.97562	-49.63387	45.56552	12.20505	-61.02525	24.4101	29.29212	-16.2734	-26.03744	10.57771	-61.02525	0
741	-24.4101	-72.41663	-49.63387	48.00653	12.20505	-61.02525	24.4101	29.29212	-13.83239	-26.03744	15.45973	-63.46626	0
742	-34.17414	-77.29865	-44.75185	55.32956	4.88202	-61.02525	24.4101	29.29212	-11.39138	-23.59643	15.45973	-65.90727	0
743	-36.61515	-77.29865	-42.31084	55.32956	2.44101	-61.02525	24.4101	26.85111	-6.50936	-23.59643	15.45973	-63.46626	0
744	-34.17414	-77.29865	-44.75185	55.32956	4.88202	-61.02525	24.4101	26.85111	-4.06835	-23.59643	15.45973	-63.46626	0
745	-34.17414	-79.73966	-47.19286	55.32956	4.88202	-63.46626	24.4101	24.4101	-4.06835	-23.59643	13.01872	-63.46626	0
746	-41.49717	-82.18067	-42.31084	60.21158	-0.81367	-63.46626	29.29212	26.85111	-4.06835	-23.59643	15.45973	-61.02525	0
747	-48.8202	-82.18067	-34.98781	65.0936	-8.1367	-58.58424	29.29212	26.85111	-6.50936	-21.15542	15.45973	-61.02525	0
748	-43.93818	-79.73966	-37.42882	60.21158	-5.69569	-58.58424	29.29212	26.85111	-8.95037	-21.15542	17.90074	-58.58424	0
749	-34.17414	-79.73966	-47.19286	55.32956	4.88202	-63.46626	26.85111	26.85111	-13.83239	-23.59643	17.90074	-63.46626	0
750	-31.73313	-82.18067	-52.07488	55.32956	9.76404	-68.34828	24.4101	24.4101	-18.71441	-26.03744	17.90074	-65.90727	0
751	-34.17414	-84.62168	-52.07488	57.77057	7.32303	-68.34828	21.96909	21.15542	-18.71441	-26.03744	17.90074	-68.34828	0
752	-31.73313	-89.5037	-59.39791	60.21158	12.20505	-75.67131	19.52808	18.71441	-18.71441	-28.47845	13.01872	-70.78929	0
753	-21.96909	-87.06269	-66.72094	52.88855	21.96909	-78.11232	17.08707	18.71441	-16.2734	-28.47845	10.57771	-70.78929	0
754	-12.20505	-84.62168	-74.04397	48.00653	29.29212	-80.55333	19.52808	18.71441	-13.83239	-28.47845	8.1367	-73.2303	0
755	-12.20505	-79.73966	-69.16195	45.56552	26.85111	-75.67131	26.85111	24.4101	-8.95037	-23.59643	8.1367	-70.78929	0
756	-9.76404	-72.41663	-64.27993	40.6835	26.85111	-68.34828	31.73313	29.29212	-6.50936	-18.71441	10.57771	-68.34828	0
757	-7.32303	-69.97562	-64.27993	38.24249	26.85111	-68.34828	34.17414	31.73313	-6.50936	-15.45973	15.45973	-63.46626	0
758	-12.20505	-67.53461	-56.9569	38.24249	21.96909	-63.46626	36.61515	36.61515	-4.06835	-13.01872	17.90074	-61.02525	0
759	-17.08707	-69.97562	-54.51589	43.12451	17.08707	-63.46626	36.61515	39.05616	-6.50936	-10.57771	20.34175	-61.02525	0
760	-24.4101	-74.85764	-52.07488	48.00653	12.20505	-63.46626	36.61515	39.05616	-6.50936	-8.1367	22.78276	-61.02525	0
761	-26.85111	-74.85764	-49.63387	50.44754	9.76404	-63.46626	36.61515	34.17414	-6.50936	-8.1367	22.78276	-61.02525	0
762	-24.4101	-79.73966	-56.9569	50.44754	14.64606	-68.34828	31.73313	31.73313	-6.50936	-13.01872	17.90074	-63.46626	0
763	-29.29212	-82.18067	-54.51589	55.32956	12.20505	-68.34828	34.17414	31.73313	-1.62734	-15.45973	15.45973	-63.46626	0
764	-26.85111	-82.18067	-56.9569	52.88855	14.64606	-70.78929	36.61515	29.29212	-1.62734	-18.71441	10.57771	-63.46626	0
765	-19.52808	-82.18067	-64.27993	50.44754	21.96909	-73.2303	36.61515	24.4101	-1.62734	-21.15542	5.69569	-65.90727	0
766	-12.20505	-79.73966	-69.16195	45.56552	26.85111	-75.67131	36.61515	24.4101	-6.50936	-23.59643	5.69569	-65.90727	0
767	-9.76404	-79.73966	-71.60296	43.12451	29.29212	-75.67131	34.17414	24.4101	-8.95037	-26.03744	3.25468	-65.90727	0
768	-12.20505	-82.18067	-71.60296	45.56552	29.29212	-78.11232	31.73313	26.85111	-8.95037	-26.03744	3.25468	-63.46626	0
769	-14.64606	-84.62168	-71.60296	48.00653	26.85111	-78.11232	29.29212	26.85111	-13.83239	-26.03744	8.1367	-61.02525	0
770	-12.20505	-82.18067	-71.60296	45.56552	29.29212	-78.11232	26.85111	26.85111	-16.2734	-23.59643	10.57771	-61.02525	0
771	-12.20505	-84.62168	-74.04397	48.00653	29.29212	-80.55333	26.85111	24.4101	-16.2734	-23.59643	15.45973	-58.58424	0
772	-17.08707	-87.06269	-71.60296	50.44754	26.85111	-80.55333	26.85111	24.4101	-13.83239	-21.15542	15.45973	-56.14323	0
773	-21.96909	-87.06269	-66.72094	52.88855	21.96909	-78.11232	26.85111	24.4101	-8.95037	-21.15542	15.45973	-51.26121	0
774	-21.96909	-82.18067	-61.83892	50.44754	19.52808	-73.2303	31.73313	26.85111	-4.06835	-21.15542	15.45973	-48.8202	0
775	-19.52808	-79.73966	-61.83892	48.00653	19.52808	-70.78929	34.17414	26.85111	-1.62734	-18.71441	15.45973	-48.8202	0
776	-19.52808	-79.73966	-61.83892	48.00653	19.52808	-70.78929	39.05616	29.29212	0.81367	-18.71441	17.90074	-46.37919	0
777	-19.52808	-74.85764	-56.9569	45.56552	17.08707	-65.90727	41.49717	34.17414	3.25468	-18.71441	17.90074	-43.93818	0
778	-17.08707	-74.85764	-59.39791	45.56552	19.52808	-68.34828	41.49717	34.17414	3.25468	-18.71441	15.45973	-43.93818	0
779	-14.64606	-77.29865	-64.27993	45.56552	24.4101	-70.78929	41.49717	31.73313	-1.62734	-18.71441	15.45973	-46.37919	0
780	-14.64606	-82.18067	-69.16195	48.00653	26.85111	-75.67131	39.05616	26.85111	-4.06835	-21.15542	13.01872	-51.26121	0
781	-17.08707	-89.5037	-74.04397	52.88855	26.85111	-82.99434	36.61515	24.4101	-6.50936	-21.15542	13.01872	-53.70222	0
782	-17.08707	-91.94471	-76.48498	52.88855	29.29212	-85.43535	31.73313	21.15542	-6.50936	-26.03744	10.57771	-56.14323	0
783	-19.52808	-96.82673	-78.92599	57.77057	29.29212	-87.87636	29.29212	18.71441	-4.06835	-30.91946	5.69569	-58.58424	0
784	-24.4101	-99.26774	-76.48498	60.21158	24.4101	-87.87636	29.29212	16.2734	-4.06835	-30.91946	3.25468	-58.58424	0
785	-21.96909	-101.70875	-81.367	60.21158	29.29212	-92.75838	26.85111	8.95037	-8.95037	-30.91946	3.25468	-61.02525	0
786	-14.64606	-96.82673	-83.80801	55.32956	34.17414	-90.31737	26.85111	8.95037	-11.39138	-30.91946	3.25468	-61.02525	0
787	-7.32303	-91.94471	-86.24902	48.00653	39.05616	-90.31737	26.85111	8.95037	-13.83239	-30.91946	3.25468	-58.58424	0
788	-4.88202	-91.94471	-88.69003	48.00653	41.49717	-90.31737	26.85111	8.95037	-16.2734	-28.47845	3.25468	-56.14323	0
789	-4.88202	-91.94471	-88.69003	48.00653	41.49717	-90.31737	26.85111	8.95037	-21.15542	-26.03744	5.69569	-53.70222	0
790	-4.88202	-89.5037	-86.24902	45.56552	39.05616	-87.87636	29.29212	8.95037	-21.15542	-21.15542	10.57771	-51.26121	0
791	-12.20505	-87.06269	-76.48498	48.00653	31.73313	-82.99434	31.73313	11.39138	-18.71441	-18.71441	15.45973	-46.37919	0
792	-21.96909	-84.62168	-64.27993	52.88855	19.52808	-75.67131	34.17414	13.83239	-11.39138	-15.45973	17.90074	-39.05616	0
793	-26.85111	-84.62168	-59.39791	55.32956	14.64606	-73.2303	34.17414	13.83239	-6.50936	-15.45973	17.90074	-36.61515	0
794	-34.17414	-87.06269	-54.51589	60.21158	9.76404	-70.78929	36.61515	13.83239	-6.50936	-15.45973	17.90074	-34.17414	0
795	-39.05616	-91.94471	-54.51589	65.0936	7.32303	-73.2303	36.61515	8.95037	-6.50936	-18.71441	13.01872	-36.61515	0
796	-46.37919	-99.26774	-54.51589	72.41663	2.44101	-78.11232	36.61515	8.95037	-8.95037	-21.15542	8.1367	-39.05616	0
797	-48.8202	-101.70875	-54.51589	74.85764	2.44101	-78.11232	34.17414	8.95037	-13.83239	-26.03744	3.25468	-41.49717	0
798	-39.05616	-101.70875	-64.27993	69.97562	12.20505	-82.99434	29.29212	4.06835	-18.71441	-28.47845	-1.62734	-43.93818	0
799	-26.85111	-101.70875	-76.48498	62.65259	24.4101	-90.31737	26.85111	1.62734	-26.03744	-30.91946	-1.62734	-46.37919	0
800	-26.85111	-99.26774	-74.04397	62.65259	21.96909	-87.87636	26.85111	-0.81367	-26.03744	-28.47845	0.81367	-43.93818	0
801	-19.52808	-91.94471	-74.04397	55.32956	26.85111	-82.99434	26.85111	-3.25468	-26.03744	-26.03744	5.69569	-39.05616	0
802	-7.32303	-82.18067	-76.48498	43.12451	34.17414	-80.55333	26.85111	-5.69569	-26.03744	-23.59643	8.1367	-34.17414	0
803	3.25468	-72.41663	-76.48498	33.36047	39.05616	-73.2303	24.4101	-10.57771	-23.59643	-23.59643	8.1367	-29.29212	0
804	0	-72.41663	-74.04397	35.80148	36.61515	-73.2303	31.73313	-8.1367	-21.15542	-21.15542	8.1367	-26.85111	0
805	-7.32303	-72.41663	-66.72094	38.24249	29.29212	-70.78929	36.61515	-5.69569	-18.71441	-21.15542	8.1367	-24.4101	0
806	-12.20505	-67.53461	-56.9569	38.24249	21.96909	-63.46626	39.05616	-3.25468	-16.2734	-18.71441	10.57771	-24.4101	0
807	-9.76404	-65.0936	-56.9569	35.80148	21.96909	-61.02525	39.05616	1.62734	-13.83239	-18.71441	8.1367	-24.4101	0
808	-2.44101	-65.0936	-64.27993	33.36047	29.29212	-65.90727	39.05616	1.62734	-13.83239	-18.71441	5.69569	-29.29212	0
809	-2.44101	-65.0936	-64.27993	33.36047	29.29212	-65.90727	39.05616	4.06835	-18.71441	-18.71441	5.69569	-29.29212	0
810	-2.44101	-65.0936	-64.27993	33.36047	29.29212	-65.90727	36.61515	4.06835	-18.71441	-13.01872	10.57771	-26.85111	0
811	-4.88202	-67.53461	-64.27993	35.80148	29.29212	-65.90727	31.73313	1.62734	-18.71441	-10.57771	13.01872	-26.85111	0
812	-12.20505	-74.85764	-64.27993	43.12451	24.4101	-70.78929	26.85111	-3.25468	-18.71441	-10.57771	10.57771	-26.85111	0
813	-19.52808	-79.73966	-61.83892	48.00653	19.52808	-70.78929	26.85111	-5.69569	-16.2734	-10.57771	10.57771	-24.4101	0
814	-31.73313	-82.18067	-52.07488	55.32956	9.76404	-68.34828	29.29212	-5.69569	-16.2734	-10.57771	10.57771	-24.4101	0
815	-46.37919	-87.06269	-42.31084	65.0936	-3.25468	-65.90727	29.29212	-10.57771	-16.2734	-10.57771	10.57771	-21.96909	0
816	-51.26121	-89.5037	-39.86983	69.97562	-8.1367	-65.90727	29.29212	-13.01872	-21.15542	-15.45973	8.1367	-24.4101	0
817	-48.8202	-87.06269	-39.86983	67.53461	-5.69569	-63.46626	29.29212	-13.01872	-23.59643	-18.71441	5.69569	-26.85111	0
818	-39.05616	-82.18067	-44.75185	60.21158	2.44101	-63.46626	29.29212	-13.01872	-28.47845	-18.71441	3.25468	-29.29212	0
819	-26.85111	-77.29865	-52.07488	50.44754	12.20505	-65.90727	29.29212	-15.45973	-33.36047	-18.71441	5.69569	-26.85111	0
820	-14.64606	-72.41663	-59.39791	43.12451	21.96909	-65.90727	29.29212	-17.90074	-35.80148	-18.71441	10.57771	-26.85111	0
821	-2.44101	-67.53461	-66.72094	33.36047	31.73313	-68.34828	26.85111	-17.90074	-35.80148	-15.45973	13.01872	-24.4101	0
822	0	-65.0936	-66.72094	30.91946	31.73313	-65.90727	24.4101	-17.90074	-30.91946	-15.45973	13.01872	-24.4101	0
823	5.69569	-69.97562	-76.48498	30.91946	39.05616	-73.2303	21.96909	-20.34175	-30.91946	-18.71441	10.57771	-24.4101	0
824	5.69569	-69.97562	-76.48498	30.91946	39.05616	-73.2303	24.4101	-20.34175	-28.47845	-18.71441	5.69569	-24.4101	0
825	0	-72.41663	-74.04397	35.80148	36.61515	-73.2303	24.4101	-20.34175	-28.47845	-21.15542	3.25468	-26.85111	0
826	-7.32303	-74.85764	-69.16195	40.6835	29.29212	-73.2303	26.85111	-20.34175	-26.03744	-21.15542	3.25468	-26.85111	0
827	-12.20505	-74.85764	-64.27993	43.12451	24.4101	-70.78929	29.29212	-15.45973	-26.03744	-23.59643	0.81367	-26.85111	0
828	-17.08707	-77.29865	-61.83892	45.56552	21.96909	-70.78929	29.29212	-13.01872	-28.47845	-26.03744	-1.62734	-31.73313	0
829	-19.52808	-77.29865	-59.39791	48.00653	19.52808	-68.34828	29.29212	-13.01872	-30.91946	-23.59643	0.81367	-31.73313	0
830	-29.29212	-72.41663	-44.75185	50.44754	7.32303	-58.58424	31.73313	-10.57771	-28.47845	-18.71441	10.57771	-26.85111	0
831	-31.73313	-72.41663	-42.31084	50.44754	4.88202	-58.58424	29.29212	-10.57771	-26.03744	-18.71441	15.45973	-24.4101	0
832	-29.29212	-69.97562	-42.31084	48.00653	4.88202	-56.14323	24.4101	-13.01872	-23.59643	-18.71441	15.45973	-24.4101	0
833	-31.73313	-69.97562	-39.86983	50.44754	2.44101	-56.14323	24.4101	-13.01872	-21.15542	-18.71441	15.45973	-21.96909	0
834	-31.73313	-69.97562	-39.86983	50.44754	2.44101	-56.14323	24.4101	-13.01872	-21.15542	-18.71441	15.45973	-19.52808	0
835	-31.73313	-67.53461	-37.42882	48.00653	2.44101	-53.70222	29.29212	-15.45973	-18.71441	-18.71441	15.45973	-17.08707	0
836	-26.85111	-62.65259	-37.42882	43.12451	4.88202	-51.26121	34.17414	-13.01872	-16.2734	-18.71441	15.45973	-17.08707	0
837	-26.85111	-62.65259	-37.42882	43.12451	4.88202	-51.26121	36.61515	-10.57771	-16.2734	-18.71441	13.01872	-17.08707	0
838	-26.85111	-62.65259	-37.42882	43.12451	4.88202	-51.26121	36.61515	-10.57771	-18.71441	-18.71441	13.01872	-17.08707	0
839	-24.4101	-60.21158	-37.42882	40.6835	4.88202	-48.8202	36.61515	-10.57771	-23.59643	-18.71441	13.01872	-17.08707	0
840	-19.52808	-57.77057	-39.86983	38.24249	9.76404	-48.8202	34.17414	-10.57771	-23.59643	-18.71441	15.45973	-14.64606	0
841	-7.32303	-55.32956	-49.63387	30.91946	19.52808	-53.70222	29.29212	-15.45973	-28.47845	-18.71441	15.45973	-17.08707	0
842	3.25468	-57.77057	-61.83892	26.03744	31.73313	-58.58424	21.96909	-22.78276	-28.47845	-21.15542	10.57771	-19.52808	0
843	13.01872	-57.77057	-71.60296	21.15542	41.49717	-63.46626	17.08707	-25.22377	-28.47845	-26.03744	8.1367	-19.52808	0
844	17.90074	-52.88855	-71.60296	16.2734	43.93818	-61.02525	19.52808	-25.22377	-28.47845	-23.59643	8.1367	-17.08707	0
845	8.1367	-52.88855	-61.83892	21.15542	34.17414	-56.14323	26.85111	-20.34175	-23.59643	-21.15542	8.1367	-12.20505	0
846	3.25468	-52.88855	-56.9569	23.59643	29.29212	-53.70222	29.29212	-15.45973	-21.15542	-18.71441	10.57771	-12.20505	0
847	-2.44101	-52.88855	-52.07488	26.03744	24.4101	-53.70222	34.17414	-10.57771	-16.2734	-18.71441	13.01872	-9.76404	0
848	-14.64606	-50.44754	-37.42882	30.91946	9.76404	-43.93818	36.61515	-3.25468	-13.83239	-13.01872	17.90074	-4.88202	0
849	-19.52808	-48.00653	-30.10579	33.36047	4.88202	-39.05616	36.61515	1.62734	-13.83239	-8.1367	25.22377	-2.44101	0
850	-17.08707	-45.56552	-30.10579	30.91946	4.88202	-39.05616	36.61515	1.62734	-11.39138	-5.69569	27.66478	-2.44101	0
851	-9.76404	-43.12451	-34.98781	26.03744	12.20505	-39.05616	34.17414	-0.81367	-16.2734	-5.69569	27.66478	-2.44101	0
852	0	-43.12451	-44.75185	21.15542	21.96909	-43.93818	29.29212	-8.1367	-16.2734	-10.57771	25.22377	-4.88202	0
853	5.69569	-43.12451	-49.63387	18.71441	26.85111	-46.37919	29.29212	-10.57771	-16.2734	-15.45973	20.34175	-4.88202	0
854	5.69569	-45.56552	-52.07488	18.71441	26.85111	-48.8202	29.29212	-13.01872	-18.71441	-18.71441	15.45973	-7.32303	0
855	3.25468	-48.00653	-52.07488	21.15542	26.85111	-48.8202	29.29212	-15.45973	-21.15542	-21.15542	10.57771	-9.76404	0
856	0	-52.88855	-54.51589	26.03744	26.85111	-53.70222	31.73313	-15.45973	-21.15542	-21.15542	5.69569	-12.20505	0
857	0	-52.88855	-54.51589	26.03744	26.85111	-53.70222	26.85111	-15.45973	-21.15542	-23.59643	5.69569	-14.64606	0
858	-4.88202	-52.88855	-49.63387	28.47845	21.96909	-51.26121	26.85111	-10.57771	-21.15542	-23.59643	3.25468	-14.64606	0
859	-7.32303	-52.88855	-47.19286	28.47845	19.52808	-51.26121	21.96909	-10.57771	-26.03744	-21.15542	5.69569	-14.64606	0
860	0	-52.88855	-54.51589	26.03744	26.85111	-53.70222	19.52808	-10.57771	-26.03744	-18.71441	8.1367	-12.20505	0
861	5.69569	-48.00653	-54.51589	21.15542	29.29212	-51.26121	17.08707	-10.57771	-23.59643	-18.71441	10.57771	-9.76404	0
862	8.1367	-43.12451	-52.07488	16.2734	29.29212	-46.37919	19.52808	-8.1367	-21.15542	-15.45973	10.57771	-7.32303	0
863	8.1367	-43.12451	-52.07488	16.2734	29.29212	-46.37919	19.52808	-8.1367	-16.2734	-15.45973	8.1367	-7.32303	0
864	10.57771	-38.24249	-49.63387	13.83239	29.29212	-43.93818	21.96909	-5.69569	-13.83239	-15.45973	5.69569	-7.32303	0
865	15.45973	-35.80148	-52.07488	8.95037	31.73313	-43.93818	24.4101	-3.25468	-8.95037	-15.45973	3.25468	-7.32303	0
866	15.45973	-30.91946	-47.19286	6.50936	29.29212	-39.05616	29.29212	1.62734	-6.50936	-15.45973	3.25468	-7.32303	0
867	8.1367	-28.47845	-37.42882	8.95037	21.96909	-31.73313	31.73313	6.50936	-6.50936	-10.57771	5.69569	-2.44101	0
868	0	-30.91946	-32.5468	13.83239	14.64606	-31.73313	31.73313	6.50936	-6.50936	-10.57771	5.69569	-2.44101	0
869	-4.88202	-33.36047	-30.10579	18.71441	12.20505	-31.73313	29.29212	6.50936	-11.39138	-8.1367	8.1367	-2.44101	0
870	-4.88202	-33.36047	-30.10579	18.71441	12.20505	-31.73313	24.4101	4.06835	-13.83239	-5.69569	13.01872	-2.44101	0
871	-2.44101	-33.36047	-32.5468	16.2734	14.64606	-34.17414	21.96909	-0.81367	-16.2734	-5.69569	13.01872	-2.44101	0
872	-4.88202	-35.80148	-32.5468	18.71441	12.20505	-34.17414	17.08707	-8.1367	-16.2734	-5.69569	10.57771	-2.44101	0
873	-2.44101	-38.24249	-37.42882	18.71441	17.08707	-39.05616	12.20505	-13.01872	-18.71441	-10.57771	3.25468	-7.32303	0
874	-2.44101	-40.6835	-39.86983	21.15542	17.08707	-41.49717	14.64606	-15.45973	-18.71441	-13.01872	-1.62734	-7.32303	0
875	-2.44101	-38.24249	-37.42882	18.71441	17.08707	-39.05616	17.08707	-15.45973	-18.71441	-13.01872	-4.06835	-4.88202	0
876	-7.32303	-40.6835	-34.98781	23.59643	12.20505	-39.05616	19.52808	-15.45973	-18.71441	-15.45973	-6.50936	-4.88202	0
877	-17.08707	-45.56552	-30.10579	30.91946	4.88202	-39.05616	21.96909	-13.01872	-18.71441	-18.71441	-9.76404	-7.32303	0
878	-24.4101	-48.00653	-25.22377	35.80148	-0.81367	-36.61515	24.4101	-10.57771	-18.71441	-18.71441	-14.64606	-9.76404	0
879	-29.29212	-50.44754	-22.78276	38.24249	-5.69569	-36.61515	29.29212	-5.69569	-21.15542	-18.71441	-14.64606	-9.76404	0
880	-34.17414	-52.88855	-20.34175	43.12451	-8.1367	-36.61515	29.29212	-0.81367	-16.2734	-18.71441	-12.20505	-9.76404	0
881	-29.29212	-55.32956	-27.66478	40.6835	-3.25468	-41.49717	26.85111	1.62734	-6.50936	-18.71441	-12.20505	-12.20505	0
882	-19.52808	-55.32956	-37.42882	35.80148	7.32303	-46.37919	21.96909	6.50936	8.1367	-18.71441	-9.76404	-9.76404	0
883	-2.44101	-50.44754	-49.63387	26.03744	21.96909	-51.26121	14.64606	16.2734	30.91946	-8.1367	3.25468	-2.44101	0
884	10.57771	-50.44754	-61.83892	18.71441	34.17414	-56.14323	4.06835	24.4101	62.65259	13.83239	20.34175	10.57771	0
885	25.22377	-52.88855	-78.92599	13.83239	51.26121	-65.90727	-15.45973	24.4101	89.5037	38.24249	44.75185	25.22377	0
886	56.9569	-57.77057	-115.54114	-1.62734	85.43535	-85.43535	-47.19286	13.83239	113.9138	65.0936	66.72094	37.42882	0
887	96.01306	-57.77057	-154.5973	-18.71441	124.49151	-104.96343	-88.69003	-10.57771	131.00087	99.26774	96.01306	52.07488	0
888	132.62821	-57.77057	-191.21245	-38.24249	161.10666	-124.49151	-135.06922	-49.63387	145.64693	143.20592	127.74619	71.60296	0
889	174.12538	-57.77057	-232.70962	-57.77057	202.60383	-144.01959	-188.77144	-98.45407	150.52895	192.02612	166.80235	91.13104	0
890	215.62255	-60.21158	-276.6478	-77.29865	244.101	-168.42969	-242.47366	-159.47932	155.41097	245.72834	205.85851	110.65912	0
891	257.11972	-60.21158	-318.14497	-99.26774	285.59817	-187.95777	-293.73487	-225.38659	157.85198	299.43056	249.79669	132.62821	0
892	291.29386	-62.65259	-354.76012	-113.9138	322.21332	-207.48585	-342.55507	-291.29386	165.17501	362.89682	293.73487	161.92033	0
893	327.90901	-60.21158	-388.93426	-133.44188	356.38746	-224.57292	-388.93426	-349.8781	179.82107	431.2451	347.43709	193.65346	0
894	369.40618	-52.88855	-423.1084	-157.85198	395.44362	-236.77797	-435.31345	-396.25729	199.34915	504.4754	403.58032	230.26861	0
895	410.90335	-40.6835	-452.40052	-184.70309	429.61776	-246.54201	-479.25163	-437.75446	223.75925	587.46974	467.04658	271.76578	0
896	449.95951	-16.2734	-467.04658	-216.43622	456.46887	-241.65999	-523.18981	-469.48759	255.49238	672.90509	535.39486	318.14497	0
897	498.77971	16.2734	-484.13365	-257.93339	490.64301	-234.33696	-572.01001	-498.77971	287.22551	760.78145	606.18415	366.96517	0
898	550.04092	62.65259	-489.01567	-306.75359	519.93513	-212.36787	-625.71223	-530.51284	311.63561	846.2168	679.41445	415.78537	0
899	584.21506	116.35481	-469.48759	-350.69177	527.25816	-175.75272	-674.53243	-572.01001	316.51763	924.32912	747.76273	469.48759	0
900	593.9791	162.734	-432.87244	-377.54288	512.6121	-134.25555	-713.58859	-623.27122	294.54854	982.91336	801.46495	513.42577	0
901	581.77405	199.34915	-384.05224	-389.74793	483.31998	-92.75838	-740.4397	-694.06051	231.08228	1004.88245	830.75707	542.71789	0
902	554.92294	226.20026	-330.35002	-389.74793	441.82281	-51.26121	-759.96778	-781.93687	118.79582	987.79538	828.31606	554.92294	0
903	510.98476	243.28733	-269.32477	-377.54288	390.5616	-12.20505	-762.40879	-891.78232	-40.6835	936.53417	801.46495	554.92294	0
904	447.5185	248.16935	-200.97649	-348.25076	324.65433	25.22377	-745.32172	-1004.06878	-240.84632	851.09882	750.20374	540.27688	0
905	386.49325	240.84632	-147.27427	-314.07662	266.07009	47.19286	-716.0296	-1101.70918	-438.56813	751.01741	684.29647	513.42577	0
906	332.79103	228.64127	-105.7771	-279.90248	219.6909	61.83892	-679.41445	-1170.05746	-614.32085	646.05398	613.50718	479.25163	0
907	283.97083	211.5542	-74.04397	-248.16935	178.19373	69.16195	-635.47627	-1213.99564	-758.34044	538.64954	540.27688	442.63648	0
908	242.47366	194.46713	-49.63387	-218.87723	146.4606	74.04397	-593.9791	-1226.20069	-858.42185	438.56813	467.04658	403.58032	0
909	200.97649	177.38006	-25.22377	-189.58511	112.28646	76.48498	-547.59991	-1206.67261	-912.12407	345.80975	398.6983	362.08315	0
910	169.24336	162.734	-8.1367	-165.17501	87.87636	78.92599	-510.98476	-1162.73443	-912.12407	267.69743	337.67305	323.02699	0
911	135.06922	145.64693	9.76404	-140.76491	63.46626	78.92599	-481.69264	-1104.15019	-885.27296	194.46713	276.6478	281.52982	0
912	93.57205	128.55986	34.17414	-111.47279	29.29212	81.367	-457.28254	-1043.12494	-843.77579	123.67784	215.62255	240.03265	0
913	59.39791	116.35481	56.14323	-87.06269	2.44101	86.24902	-432.87244	-977.21767	-794.95559	55.32956	154.5973	196.09447	0
914	27.66478	106.59077	78.11232	-67.53461	-25.22377	93.57205	-398.6983	-901.54636	-738.81236	1.62734	103.33609	157.03831	0
915	3.25468	99.26774	95.19939	-50.44754	-47.19286	98.45407	-366.96517	-820.99303	-677.78711	-38.24249	61.83892	122.86417	0
916	-19.52808	94.38572	112.28646	-38.24249	-66.72094	103.33609	-330.35002	-737.99869	-611.87984	-62.65259	32.5468	96.01306	0
917	-34.17414	91.94471	124.49151	-28.47845	-78.92599	108.21811	-288.85285	-652.56334	-545.97257	-77.29865	13.01872	76.48498	0
918	-46.37919	89.5037	134.25555	-21.15542	-91.13104	110.65912	-247.35568	-569.569	-480.0653	-84.62168	-1.62734	59.39791	0
919	-46.37919	89.5037	134.25555	-21.15542	-91.13104	110.65912	-210.74053	-496.3387	-426.36308	-87.06269	-9.76404	44.75185	0
920	-46.37919	87.06269	131.81454	-21.15542	-88.69003	108.21811	-183.88942	-432.87244	-375.10187	-87.06269	-14.64606	34.98781	0
921	-43.93818	84.62168	126.93252	-21.15542	-86.24902	105.7771	-161.92033	-384.05224	-333.6047	-87.06269	-19.52808	25.22377	0
922	-36.61515	77.29865	112.28646	-21.15542	-74.04397	93.57205	-142.39225	-342.55507	-296.98955	-89.5037	-29.29212	15.45973	0
923	-26.85111	69.97562	95.19939	-21.15542	-61.83892	81.367	-127.74619	-308.38093	-265.25642	-96.82673	-41.49717	3.25468	0
924	-19.52808	67.53461	85.43535	-23.59643	-52.07488	76.48498	-103.33609	-274.20679	-235.9643	-99.26774	-51.26121	-7.32303	0
925	-17.08707	60.21158	75.67131	-21.15542	-47.19286	66.72094	-81.367	-242.47366	-209.11319	-104.14976	-61.02525	-17.08707	0
926	-26.85111	52.88855	78.11232	-13.83239	-52.07488	64.27993	-59.39791	-210.74053	-184.70309	-104.14976	-65.90727	-24.4101	0
927	-39.05616	50.44754	87.87636	-6.50936	-64.27993	69.16195	-37.42882	-183.88942	-165.17501	-104.14976	-68.34828	-31.73313	0
928	-46.37919	45.56552	90.31737	-1.62734	-69.16195	66.72094	-22.78276	-159.47932	-148.08794	-104.14976	-73.2303	-34.17414	0
929	-61.02525	40.6835	100.08141	8.95037	-81.367	69.16195	-10.57771	-135.06922	-133.44188	-99.26774	-73.2303	-36.61515	0
930	-75.67131	38.24249	112.28646	18.71441	-93.57205	74.04397	-3.25468	-117.98215	-118.79582	-96.82673	-70.78929	-39.05616	0
931	-85.43535	35.80148	119.60949	23.59643	-103.33609	76.48498	1.62734	-108.21811	-106.59077	-94.38572	-70.78929	-39.05616	0
932	-82.99434	33.36047	114.72747	23.59643	-98.45407	74.04397	1.62734	-100.89508	-96.82673	-94.38572	-73.2303	-43.93818	0
933	-78.11232	33.36047	109.84545	21.15542	-93.57205	71.60296	4.06835	-96.01306	-89.5037	-99.26774	-75.67131	-46.37919	0
934	-75.67131	38.24249	112.28646	18.71441	-93.57205	74.04397	9.76404	-88.69003	-82.18067	-99.26774	-80.55333	-46.37919	0
935	-65.90727	40.6835	104.96343	11.39138	-86.24902	71.60296	14.64606	-86.24902	-79.73966	-101.70875	-82.99434	-51.26121	0
936	-61.02525	43.12451	102.52242	8.95037	-81.367	71.60296	17.08707	-81.367	-77.29865	-101.70875	-82.99434	-51.26121	0
937	-56.14323	50.44754	104.96343	1.62734	-81.367	76.48498	21.96909	-74.04397	-74.85764	-101.70875	-82.99434	-51.26121	0
938	-53.70222	52.88855	104.96343	-1.62734	-78.92599	78.92599	24.4101	-69.16195	-72.41663	-101.70875	-85.43535	-51.26121	0
939	-56.14323	52.88855	107.40444	1.62734	-81.367	78.92599	24.4101	-66.72094	-74.85764	-101.70875	-85.43535	-53.70222	0
940	-58.58424	50.44754	107.40444	4.06835	-83.80801	78.92599	21.96909	-66.72094	-77.29865	-101.70875	-82.99434	-56.14323	0
941	-63.46626	48.00653	109.84545	6.50936	-86.24902	78.92599	19.52808	-66.72094	-77.29865	-101.70875	-80.55333	-56.14323	0
942	-70.78929	45.56552	114.72747	11.39138	-93.57205	78.92599	19.52808	-64.27993	-72.41663	-101.70875	-80.55333	-56.14323	0
943	-75.67131	43.12451	117.16848	16.2734	-96.01306	78.92599	19.52808	-66.72094	-69.97562	-104.14976	-82.99434	-56.14323	0
944	-82.99434	40.6835	122.0505	21.15542	-103.33609	81.367	21.96909	-66.72094	-69.97562	-104.14976	-87.87636	-56.14323	0
945	-82.99434	43.12451	124.49151	18.71441	-103.33609	83.80801	21.96909	-66.72094	-67.53461	-104.14976	-87.87636	-58.58424	0
946	-85.43535	43.12451	126.93252	21.15542	-105.7771	83.80801	26.85111	-64.27993	-65.0936	-104.14976	-90.31737	-58.58424	0
947	-85.43535	50.44754	134.25555	16.2734	-110.65912	91.13104	29.29212	-59.39791	-62.65259	-104.14976	-90.31737	-58.58424	0
948	-87.87636	50.44754	136.69656	18.71441	-113.10013	93.57205	29.29212	-56.9569	-62.65259	-104.14976	-90.31737	-58.58424	0
949	-92.75838	50.44754	141.57858	21.15542	-117.98215	96.01306	29.29212	-54.51589	-62.65259	-99.26774	-90.31737	-56.14323	0
950	-87.87636	55.32956	141.57858	16.2734	-115.54114	98.45407	26.85111	-52.07488	-65.0936	-99.26774	-85.43535	-56.14323	0
951	-85.43535	60.21158	144.01959	11.39138	-115.54114	100.89508	26.85111	-52.07488	-62.65259	-96.82673	-82.99434	-53.70222	0
952	-80.55333	62.65259	141.57858	8.95037	-110.65912	100.89508	24.4101	-52.07488	-60.21158	-96.82673	-80.55333	-51.26121	0
953	-78.11232	65.0936	141.57858	6.50936	-110.65912	103.33609	26.85111	-54.51589	-60.21158	-99.26774	-82.99434	-48.8202	0
954	-75.67131	67.53461	141.57858	4.06835	-108.21811	103.33609	29.29212	-54.51589	-60.21158	-99.26774	-85.43535	-48.8202	0
955	-70.78929	67.53461	136.69656	1.62734	-103.33609	100.89508	34.17414	-52.07488	-60.21158	-99.26774	-87.87636	-48.8202	0
956	-65.90727	69.97562	134.25555	-1.62734	-100.89508	100.89508	34.17414	-52.07488	-60.21158	-101.70875	-87.87636	-51.26121	0
957	-68.34828	69.97562	136.69656	-1.62734	-103.33609	103.33609	36.61515	-52.07488	-62.65259	-101.70875	-90.31737	-51.26121	0
958	-73.2303	69.97562	141.57858	1.62734	-108.21811	105.7771	34.17414	-49.63387	-62.65259	-104.14976	-92.75838	-56.14323	0
959	-73.2303	69.97562	141.57858	1.62734	-108.21811	105.7771	31.73313	-47.19286	-65.0936	-104.14976	-90.31737	-56.14323	0
960	-73.2303	74.85764	146.4606	-1.62734	-110.65912	110.65912	31.73313	-44.75185	-62.65259	-99.26774	-85.43535	-53.70222	0
961	-73.2303	74.85764	146.4606	-1.62734	-110.65912	110.65912	26.85111	-47.19286	-62.65259	-101.70875	-85.43535	-56.14323	0
962	-70.78929	72.41663	141.57858	-1.62734	-105.7771	105.7771	24.4101	-49.63387	-62.65259	-106.59077	-90.31737	-58.58424	0
963	-73.2303	69.97562	141.57858	1.62734	-108.21811	105.7771	21.96909	-52.07488	-60.21158	-111.47279	-92.75838	-58.58424	0
964	-70.78929	67.53461	136.69656	1.62734	-103.33609	100.89508	21.96909	-52.07488	-60.21158	-113.9138	-100.08141	-58.58424	0
965	-70.78929	69.97562	139.13757	-1.62734	-105.7771	103.33609	26.85111	-52.07488	-57.77057	-113.9138	-100.08141	-56.14323	0
966	-80.55333	72.41663	151.34262	4.06835	-115.54114	110.65912	29.29212	-49.63387	-57.77057	-113.9138	-100.08141	-53.70222	0
967	-87.87636	69.97562	156.22464	8.95037	-122.86417	113.10013	29.29212	-47.19286	-57.77057	-116.35481	-102.52242	-51.26121	0
968	-97.6404	72.41663	168.42969	11.39138	-132.62821	120.42316	31.73313	-44.75185	-55.32956	-116.35481	-102.52242	-48.8202	0
969	-100.08141	77.29865	175.75272	11.39138	-137.51023	125.30518	31.73313	-42.31084	-57.77057	-113.9138	-97.6404	-43.93818	0
970	-97.6404	84.62168	180.63474	6.50936	-139.95124	132.62821	34.17414	-39.86983	-55.32956	-109.03178	-92.75838	-39.05616	0
971	-97.6404	84.62168	180.63474	6.50936	-139.95124	132.62821	31.73313	-42.31084	-55.32956	-106.59077	-90.31737	-39.05616	0
972	-92.75838	84.62168	175.75272	4.06835	-135.06922	130.1872	29.29212	-44.75185	-57.77057	-109.03178	-90.31737	-36.61515	0
973	-87.87636	87.06269	173.31171	-1.62734	-130.1872	130.1872	26.85111	-47.19286	-55.32956	-111.47279	-95.19939	-36.61515	0
974	-82.99434	91.94471	173.31171	-4.06835	-127.74619	132.62821	26.85111	-44.75185	-52.88855	-111.47279	-95.19939	-34.17414	0
975	-73.2303	91.94471	163.54767	-8.95037	-117.98215	127.74619	24.4101	-49.63387	-52.88855	-113.9138	-100.08141	-36.61515	0
976	-68.34828	91.94471	158.66565	-11.39138	-113.10013	125.30518	24.4101	-49.63387	-55.32956	-116.35481	-102.52242	-39.05616	0
977	-65.90727	94.38572	158.66565	-13.83239	-113.10013	125.30518	21.96909	-49.63387	-57.77057	-116.35481	-104.96343	-41.49717	0
978	-65.90727	96.82673	161.10666	-16.2734	-113.10013	127.74619	21.96909	-42.31084	-55.32956	-116.35481	-104.96343	-39.05616	0
979	-65.90727	96.82673	161.10666	-16.2734	-113.10013	127.74619	21.96909	-37.42882	-55.32956	-111.47279	-102.52242	-39.05616	0
980	-65.90727	96.82673	161.10666	-16.2734	-113.10013	127.74619	21.96909	-37.42882	-55.32956	-109.03178	-100.08141	-36.61515	0
981	-73.2303	96.82673	168.42969	-11.39138	-120.42316	132.62821	21.96909	-32.5468	-50.44754	-106.59077	-95.19939	-34.17414	0
982	-78.11232	101.70875	178.19373	-11.39138	-127.74619	139.95124	24.4101	-27.66478	-40.6835	-99.26774	-90.31737	-26.85111	0
983	-90.31737	106.59077	195.2808	-8.95037	-142.39225	149.71528	29.29212	-17.90074	-26.03744	-94.38572	-87.87636	-21.96909	0
984	-100.08141	106.59077	205.04484	-4.06835	-152.15629	154.5973	36.61515	-10.57771	-18.71441	-91.94471	-87.87636	-19.52808	0
985	-100.08141	109.03178	207.48585	-4.06835	-154.5973	157.03831	39.05616	-8.1367	-16.2734	-91.94471	-87.87636	-19.52808	0
986	-97.6404	116.35481	212.36787	-8.95037	-154.5973	164.36134	43.93818	-3.25468	-11.39138	-87.06269	-82.99434	-14.64606	0
987	-87.87636	126.11885	212.36787	-18.71441	-149.71528	169.24336	46.37919	4.06835	-8.95037	-84.62168	-80.55333	-12.20505	0
988	-80.55333	131.00087	209.92686	-26.03744	-144.83326	169.24336	46.37919	6.50936	-8.95037	-82.18067	-80.55333	-9.76404	0
989	-75.67131	131.00087	205.04484	-28.47845	-139.95124	166.80235	41.49717	8.95037	-11.39138	-82.18067	-78.11232	-9.76404	0
990	-75.67131	135.88289	209.92686	-30.91946	-142.39225	171.68437	41.49717	8.95037	-11.39138	-79.73966	-75.67131	-9.76404	0
991	-75.67131	140.76491	214.80888	-33.36047	-144.83326	176.56639	43.93818	16.2734	-4.06835	-74.85764	-70.78929	-4.88202	0
992	-78.11232	145.64693	222.13191	-33.36047	-149.71528	183.88942	46.37919	21.15542	5.69569	-69.97562	-70.78929	-2.44101	0
993	-78.11232	150.52895	227.01393	-35.80148	-152.15629	188.77144	48.8202	24.4101	16.2734	-69.97562	-68.34828	-2.44101	0
994	-78.11232	157.85198	234.33696	-40.6835	-157.03831	196.09447	56.14323	34.17414	26.03744	-65.0936	-65.90727	0.81367	0
995	-78.11232	167.61602	244.101	-45.56552	-161.92033	205.85851	65.90727	46.37919	40.6835	-57.77057	-61.02525	3.25468	0
996	-73.2303	177.38006	248.98302	-52.88855	-161.92033	213.18154	73.2303	58.58424	50.44754	-52.88855	-56.14323	5.69569	0
997	-68.34828	184.70309	251.42403	-57.77057	-159.47932	218.06356	73.2303	65.90727	55.32956	-50.44754	-51.26121	5.69569	0
998	-63.46626	187.1441	248.98302	-62.65259	-157.03831	218.06356	70.78929	73.2303	57.77057	-50.44754	-51.26121	5.69569	0
999	-56.14323	189.58511	244.101	-67.53461	-149.71528	215.62255	70.78929	78.11232	57.77057	-50.44754	-46.37919	3.25468	0
1000	-56.14323	189.58511	244.101	-67.53461	-149.71528	215.62255	70.78929	82.99434	57.77057	-48.00653	-43.93818	3.25468	-1250	T-0
1001	-58.58424	189.58511	246.54201	-65.0936	-152.15629	218.06356	70.78929	85.43535	60.21158	-48.00653	-41.49717	3.25468	0
1002	-56.14323	187.1441	241.65999	-65.0936	-149.71528	213.18154	70.78929	90.31737	62.65259	-45.56552	-39.05616	0.81367	0
1003	-56.14323	187.1441	241.65999	-65.0936	-149.71528	213.18154	70.78929	95.19939	72.41663	-45.56552	-39.05616	0.81367	0
1004	-48.8202	189.58511	236.77797	-69.97562	-142.39225	213.18154	73.2303	102.52242	79.73966	-45.56552	-39.05616	3.25468	0
1005	-41.49717	196.90814	236.77797	-77.29865	-139.95124	215.62255	78.11232	112.28646	89.5037	-40.6835	-36.61515	8.1367	0
1006	-41.49717	204.23117	244.101	-82.18067	-142.39225	222.94558	85.43535	124.49151	99.26774	-35.80148	-31.73313	15.45973	0
1007	-41.49717	209.11319	248.98302	-84.62168	-144.83326	227.8276	90.31737	134.25555	109.03178	-35.80148	-29.29212	17.90074	0
1008	-43.93818	213.99521	256.30605	-84.62168	-149.71528	235.15063	92.75838	146.4606	118.79582	-30.91946	-24.4101	22.78276	0
