samplenr	I	II	III	aVR	aVL	aVF	V1	V2	V3	V4	V5	V6	measurement
0	59.39791	-315.70396	-374.2882	127.74619	216.43622	-344.99608	51.26121	218.87723	186.33043	95.19939	-40.6835	-104.14976	0
1	59.39791	-315.70396	-374.2882	127.74619	216.43622	-344.99608	51.26121	218.87723	186.33043	95.19939	-40.6835	-104.14976	0
2	59.39791	-308.38093	-366.96517	122.86417	211.5542	-337.67305	46.37919	216.43622	181.44841	87.87636	-45.56552	-109.03178	0
3	54.51589	-308.38093	-362.08315	125.30518	206.67218	-335.23204	43.93818	216.43622	179.0074	87.87636	-48.00653	-111.47279	0
4	52.07488	-310.82194	-362.08315	127.74619	206.67218	-335.23204	46.37919	218.87723	181.44841	87.87636	-45.56552	-109.03178	0
5	52.07488	-323.02699	-374.2882	135.06922	211.5542	-347.43709	51.26121	218.87723	188.77144	87.87636	-40.6835	-104.14976	0
6	52.07488	-318.14497	-369.40618	132.62821	209.11319	-342.55507	51.26121	221.31824	191.21245	85.43535	-40.6835	-104.14976	0
7	52.07488	-325.468	-376.72921	135.06922	213.99521	-349.8781	53.70222	218.87723	193.65346	85.43535	-40.6835	-104.14976	0
8	49.63387	-335.23204	-384.05224	142.39225	216.43622	-359.64214	53.70222	218.87723	193.65346	87.87636	-38.24249	-104.14976	0
9	47.19286	-337.67305	-384.05224	144.83326	213.99521	-359.64214	53.70222	213.99521	191.21245	87.87636	-38.24249	-104.14976	0
10	47.19286	-340.11406	-386.49325	144.83326	216.43622	-362.08315	53.70222	211.5542	188.77144	87.87636	-38.24249	-104.14976	0
11	47.19286	-344.99608	-391.37527	147.27427	218.87723	-366.96517	58.58424	213.99521	188.77144	87.87636	-38.24249	-106.59077	0
12	47.19286	-359.64214	-406.02133	154.5973	226.20026	-381.61123	63.46626	218.87723	191.21245	90.31737	-33.36047	-101.70875	0
13	47.19286	-364.52416	-410.90335	157.03831	228.64127	-386.49325	68.34828	221.31824	191.21245	92.75838	-33.36047	-99.26774	0
14	44.75185	-354.76012	-398.6983	154.5973	221.31824	-376.72921	68.34828	221.31824	191.21245	90.31737	-35.80148	-101.70875	0
15	42.31084	-347.43709	-388.93426	152.15629	213.99521	-366.96517	68.34828	218.87723	193.65346	87.87636	-35.80148	-104.14976	0
16	42.31084	-352.31911	-393.81628	154.5973	216.43622	-371.84719	70.78929	218.87723	198.53548	87.87636	-35.80148	-101.70875	0
17	42.31084	-347.43709	-388.93426	152.15629	213.99521	-366.96517	70.78929	216.43622	198.53548	87.87636	-38.24249	-101.70875	0
18	42.31084	-335.23204	-376.72921	144.83326	209.11319	-354.76012	65.90727	206.67218	193.65346	82.99434	-43.12451	-106.59077	0
19	44.75185	-330.35002	-374.2882	142.39225	209.11319	-352.31911	61.02525	201.79016	188.77144	82.99434	-48.00653	-106.59077	0
20	47.19286	-332.79103	-379.17022	142.39225	211.5542	-354.76012	61.02525	199.34915	186.33043	82.99434	-48.00653	-106.59077	0
21	49.63387	-342.55507	-391.37527	144.83326	218.87723	-366.96517	65.90727	204.23117	188.77144	85.43535	-45.56552	-101.70875	0
22	52.07488	-347.43709	-398.6983	147.27427	223.75925	-371.84719	68.34828	206.67218	188.77144	85.43535	-43.12451	-101.70875	0
23	52.07488	-347.43709	-398.6983	147.27427	223.75925	-371.84719	70.78929	206.67218	186.33043	85.43535	-45.56552	-101.70875	0
24	47.19286	-357.20113	-403.58032	154.5973	223.75925	-379.17022	75.67131	209.11319	191.21245	85.43535	-43.12451	-96.82673	0
25	42.31084	-366.96517	-408.46234	161.92033	223.75925	-386.49325	78.11232	209.11319	196.09447	85.43535	-40.6835	-96.82673	0
26	39.86983	-369.40618	-408.46234	164.36134	223.75925	-388.93426	78.11232	209.11319	198.53548	82.99434	-40.6835	-99.26774	0
27	34.98781	-366.96517	-401.13931	164.36134	216.43622	-384.05224	75.67131	201.79016	196.09447	80.55333	-43.12451	-101.70875	0
28	32.5468	-362.08315	-393.81628	164.36134	211.5542	-376.72921	70.78929	194.46713	188.77144	75.67131	-48.00653	-106.59077	0
29	32.5468	-362.08315	-393.81628	164.36134	211.5542	-376.72921	68.34828	189.58511	183.88942	75.67131	-48.00653	-109.03178	0
30	34.98781	-357.20113	-391.37527	159.47932	211.5542	-374.2882	65.90727	184.70309	179.0074	75.67131	-50.44754	-111.47279	0
31	39.86983	-352.31911	-391.37527	154.5973	213.99521	-371.84719	65.90727	184.70309	176.56639	73.2303	-50.44754	-111.47279	0
32	39.86983	-347.43709	-386.49325	152.15629	211.5542	-366.96517	65.90727	182.26208	171.68437	68.34828	-55.32956	-113.9138	0
33	39.86983	-347.43709	-386.49325	152.15629	211.5542	-366.96517	65.90727	182.26208	169.24336	68.34828	-55.32956	-113.9138	0
34	39.86983	-352.31911	-391.37527	154.5973	213.99521	-371.84719	70.78929	187.1441	171.68437	70.78929	-50.44754	-111.47279	0
35	37.42882	-357.20113	-393.81628	159.47932	213.99521	-374.2882	75.67131	187.1441	176.56639	70.78929	-48.00653	-109.03178	0
36	34.98781	-357.20113	-391.37527	159.47932	211.5542	-374.2882	75.67131	187.1441	179.0074	68.34828	-48.00653	-111.47279	0
37	34.98781	-352.31911	-386.49325	157.03831	209.11319	-369.40618	75.67131	182.26208	179.0074	68.34828	-48.00653	-111.47279	0
38	34.98781	-352.31911	-386.49325	157.03831	209.11319	-369.40618	78.11232	182.26208	179.0074	73.2303	-45.56552	-109.03178	0
39	37.42882	-354.76012	-391.37527	157.03831	213.99521	-371.84719	80.55333	182.26208	181.44841	80.55333	-38.24249	-104.14976	0
40	37.42882	-349.8781	-386.49325	154.5973	211.5542	-366.96517	80.55333	177.38006	179.0074	80.55333	-38.24249	-101.70875	0
41	39.86983	-344.99608	-384.05224	152.15629	211.5542	-364.52416	80.55333	177.38006	176.56639	78.11232	-38.24249	-101.70875	0
42	39.86983	-342.55507	-381.61123	149.71528	209.11319	-362.08315	82.99434	177.38006	174.12538	75.67131	-38.24249	-101.70875	0
43	34.98781	-340.11406	-374.2882	152.15629	204.23117	-357.20113	82.99434	179.82107	171.68437	75.67131	-40.6835	-101.70875	0
44	34.98781	-335.23204	-369.40618	149.71528	201.79016	-352.31911	85.43535	179.82107	171.68437	75.67131	-40.6835	-101.70875	0
45	32.5468	-335.23204	-366.96517	149.71528	199.34915	-349.8781	90.31737	182.26208	176.56639	75.67131	-38.24249	-99.26774	0
46	30.10579	-325.468	-354.76012	147.27427	192.02612	-340.11406	90.31737	177.38006	176.56639	70.78929	-38.24249	-101.70875	0
47	30.10579	-310.82194	-340.11406	139.95124	184.70309	-325.468	90.31737	174.93905	179.0074	68.34828	-38.24249	-101.70875	0
48	34.98781	-303.49891	-337.67305	132.62821	184.70309	-320.58598	95.19939	174.93905	179.0074	73.2303	-35.80148	-96.82673	0
49	39.86983	-301.0579	-340.11406	130.1872	189.58511	-320.58598	102.52242	177.38006	183.88942	80.55333	-30.10579	-91.94471	0
50	39.86983	-303.49891	-342.55507	130.1872	189.58511	-323.02699	109.84545	179.82107	186.33043	85.43535	-25.22377	-84.62168	0
51	42.31084	-298.61689	-340.11406	127.74619	189.58511	-318.14497	114.72747	182.26208	188.77144	87.87636	-22.78276	-82.18067	0
52	47.19286	-283.97083	-330.35002	117.98215	187.1441	-305.93992	117.16848	184.70309	186.33043	82.99434	-25.22377	-79.73966	0
53	47.19286	-279.08881	-325.468	115.54114	184.70309	-301.0579	124.49151	192.02612	188.77144	87.87636	-25.22377	-74.85764	0
54	49.63387	-276.6478	-325.468	113.10013	187.1441	-301.0579	129.37353	194.46713	193.65346	90.31737	-22.78276	-72.41663	0
55	49.63387	-264.44275	-313.26295	105.7771	179.82107	-288.85285	129.37353	194.46713	193.65346	87.87636	-22.78276	-72.41663	0
56	49.63387	-266.88376	-315.70396	108.21811	182.26208	-291.29386	129.37353	194.46713	198.53548	90.31737	-17.90074	-67.53461	0
57	47.19286	-252.2377	-298.61689	100.89508	172.49804	-274.20679	122.0505	187.1441	196.09447	87.87636	-20.34175	-69.97562	0
58	44.75185	-249.79669	-293.73487	100.89508	167.61602	-271.76578	114.72747	179.82107	191.21245	90.31737	-20.34175	-67.53461	0
59	42.31084	-254.67871	-296.17588	105.7771	167.61602	-274.20679	107.40444	174.93905	186.33043	95.19939	-17.90074	-65.0936	0
60	42.31084	-254.67871	-296.17588	105.7771	167.61602	-274.20679	100.08141	165.17501	179.0074	95.19939	-15.45973	-62.65259	0
61	44.75185	-257.11972	-301.0579	105.7771	172.49804	-279.08881	92.75838	165.17501	176.56639	95.19939	-13.01872	-57.77057	0
62	47.19286	-254.67871	-301.0579	103.33609	172.49804	-276.6478	82.99434	157.85198	169.24336	90.31737	-15.45973	-57.77057	0
63	49.63387	-247.35568	-296.17588	98.45407	172.49804	-271.76578	70.78929	150.52895	159.47932	87.87636	-17.90074	-57.77057	0
64	52.07488	-242.47366	-293.73487	93.57205	172.49804	-266.88376	61.02525	143.20592	152.15629	82.99434	-20.34175	-57.77057	0
65	52.07488	-240.03265	-291.29386	93.57205	170.05703	-264.44275	51.26121	135.88289	152.15629	78.11232	-20.34175	-60.21158	0
66	52.07488	-230.26861	-281.52982	88.69003	165.17501	-254.67871	41.49717	126.11885	144.83326	70.78929	-25.22377	-65.0936	0
67	49.63387	-230.26861	-279.08881	88.69003	162.734	-254.67871	31.73313	121.23683	139.95124	68.34828	-25.22377	-65.0936	0
68	47.19286	-242.47366	-288.85285	96.01306	167.61602	-264.44275	31.73313	116.35481	139.95124	70.78929	-22.78276	-62.65259	0
69	47.19286	-249.79669	-296.17588	100.89508	170.05703	-271.76578	26.85111	113.9138	137.51023	75.67131	-22.78276	-60.21158	0
70	49.63387	-259.56073	-308.38093	103.33609	177.38006	-283.97083	24.4101	113.9138	135.06922	78.11232	-20.34175	-57.77057	0
71	56.9569	-262.00174	-318.14497	100.89508	187.1441	-288.85285	24.4101	116.35481	135.06922	78.11232	-17.90074	-57.77057	0
72	64.27993	-269.32477	-332.79103	100.89508	196.90814	-301.0579	24.4101	121.23683	135.06922	80.55333	-17.90074	-52.88855	0
73	66.72094	-288.85285	-354.76012	110.65912	209.11319	-320.58598	26.85111	128.55986	137.51023	82.99434	-17.90074	-50.44754	0
74	66.72094	-291.29386	-357.20113	110.65912	211.5542	-323.02699	26.85111	131.00087	139.95124	80.55333	-20.34175	-50.44754	0
75	69.16195	-288.85285	-357.20113	108.21811	211.5542	-323.02699	21.96909	128.55986	139.95124	78.11232	-27.66478	-55.32956	0
76	69.16195	-293.73487	-362.08315	110.65912	213.99521	-327.90901	21.96909	131.00087	144.83326	73.2303	-30.10579	-60.21158	0
77	69.16195	-303.49891	-371.84719	115.54114	218.87723	-337.67305	24.4101	133.44188	147.27427	73.2303	-33.36047	-62.65259	0
78	66.72094	-313.26295	-379.17022	122.86417	221.31824	-344.99608	29.29212	133.44188	147.27427	73.2303	-35.80148	-62.65259	0
79	66.72094	-310.82194	-376.72921	120.42316	221.31824	-342.55507	29.29212	128.55986	142.39225	73.2303	-40.6835	-65.0936	0
80	66.72094	-315.70396	-381.61123	122.86417	223.75925	-347.43709	31.73313	128.55986	142.39225	75.67131	-40.6835	-65.0936	0
81	66.72094	-320.58598	-386.49325	125.30518	226.20026	-352.31911	39.05616	135.88289	144.83326	75.67131	-35.80148	-62.65259	0
82	69.16195	-318.14497	-386.49325	122.86417	226.20026	-352.31911	46.37919	140.76491	144.83326	78.11232	-35.80148	-57.77057	0
83	61.83892	-315.70396	-376.72921	125.30518	218.87723	-344.99608	53.70222	145.64693	144.83326	80.55333	-33.36047	-57.77057	0
84	56.9569	-308.38093	-364.52416	125.30518	209.11319	-335.23204	58.58424	145.64693	147.27427	82.99434	-33.36047	-55.32956	0
85	49.63387	-308.38093	-357.20113	127.74619	201.79016	-332.79103	65.90727	150.52895	152.15629	82.99434	-30.10579	-52.88855	0
86	42.31084	-305.93992	-347.43709	130.1872	194.46713	-325.468	70.78929	150.52895	154.5973	82.99434	-27.66478	-55.32956	0
87	37.42882	-301.0579	-337.67305	130.1872	187.1441	-318.14497	70.78929	148.08794	154.5973	80.55333	-30.10579	-57.77057	0
88	32.5468	-308.38093	-340.11406	137.51023	184.70309	-323.02699	70.78929	145.64693	152.15629	80.55333	-30.10579	-57.77057	0
89	30.10579	-315.70396	-344.99608	142.39225	187.1441	-330.35002	68.34828	140.76491	144.83326	80.55333	-33.36047	-62.65259	0
90	30.10579	-318.14497	-347.43709	142.39225	187.1441	-332.79103	65.90727	133.44188	137.51023	75.67131	-35.80148	-65.0936	0
91	30.10579	-327.90901	-357.20113	147.27427	192.02612	-342.55507	68.34828	138.3239	137.51023	73.2303	-35.80148	-65.0936	0
92	32.5468	-342.55507	-374.2882	154.5973	201.79016	-357.20113	70.78929	143.20592	137.51023	70.78929	-35.80148	-62.65259	0
93	32.5468	-337.67305	-369.40618	152.15629	199.34915	-352.31911	70.78929	143.20592	132.62821	68.34828	-40.6835	-65.0936	0
94	30.10579	-332.79103	-362.08315	149.71528	194.46713	-347.43709	70.78929	143.20592	130.1872	61.02525	-48.00653	-67.53461	0
95	25.22377	-330.35002	-354.76012	152.15629	189.58511	-342.55507	73.2303	143.20592	132.62821	58.58424	-50.44754	-69.97562	0
96	22.78276	-332.79103	-354.76012	154.5973	187.1441	-342.55507	75.67131	148.08794	137.51023	58.58424	-48.00653	-69.97562	0
97	20.34175	-337.67305	-357.20113	157.03831	187.1441	-347.43709	78.11232	150.52895	139.95124	58.58424	-48.00653	-69.97562	0
98	17.90074	-335.23204	-352.31911	157.03831	184.70309	-342.55507	78.11232	145.64693	135.06922	58.58424	-50.44754	-69.97562	0
99	13.01872	-335.23204	-347.43709	159.47932	179.82107	-340.11406	75.67131	140.76491	130.1872	58.58424	-52.88855	-69.97562	0
100	13.01872	-337.67305	-349.8781	161.92033	179.82107	-342.55507	70.78929	135.88289	125.30518	56.14323	-55.32956	-72.41663	1000	P+0
101	15.45973	-335.23204	-349.8781	159.47932	182.26208	-342.55507	68.34828	135.88289	122.86417	53.70222	-55.32956	-72.41663	0
102	17.90074	-335.23204	-352.31911	157.03831	184.70309	-342.55507	68.34828	138.3239	117.98215	51.26121	-57.77057	-72.41663	0
103	17.90074	-335.23204	-352.31911	157.03831	184.70309	-342.55507	68.34828	138.3239	115.54114	48.8202	-62.65259	-72.41663	0
104	15.45973	-323.02699	-337.67305	152.15629	174.93905	-330.35002	65.90727	135.88289	115.54114	43.93818	-67.53461	-74.85764	0
105	15.45973	-315.70396	-330.35002	149.71528	172.49804	-323.02699	63.46626	133.44188	115.54114	39.05616	-72.41663	-79.73966	0
106	15.45973	-320.58598	-335.23204	152.15629	174.93905	-327.90901	65.90727	135.88289	120.42316	39.05616	-72.41663	-79.73966	0
107	15.45973	-323.02699	-337.67305	152.15629	174.93905	-330.35002	65.90727	138.3239	122.86417	41.49717	-69.97562	-79.73966	0
108	13.01872	-323.02699	-335.23204	154.5973	172.49804	-327.90901	65.90727	135.88289	120.42316	41.49717	-69.97562	-79.73966	0
109	10.57771	-323.02699	-332.79103	154.5973	170.05703	-327.90901	65.90727	133.44188	117.98215	46.37919	-67.53461	-79.73966	0
110	13.01872	-330.35002	-342.55507	157.03831	177.38006	-335.23204	68.34828	133.44188	117.98215	48.8202	-65.0936	-74.85764	0
111	15.45973	-342.55507	-357.20113	161.92033	184.70309	-349.8781	73.2303	138.3239	120.42316	51.26121	-57.77057	-69.97562	0
112	17.90074	-342.55507	-359.64214	161.92033	187.1441	-349.8781	73.2303	140.76491	117.98215	51.26121	-57.77057	-67.53461	0
113	20.34175	-340.11406	-359.64214	159.47932	189.58511	-349.8781	73.2303	145.64693	115.54114	51.26121	-57.77057	-67.53461	0
114	22.78276	-335.23204	-357.20113	154.5973	189.58511	-344.99608	73.2303	145.64693	115.54114	48.8202	-60.21158	-69.97562	0
115	22.78276	-335.23204	-357.20113	154.5973	189.58511	-344.99608	73.2303	145.64693	120.42316	46.37919	-62.65259	-69.97562	0
116	22.78276	-330.35002	-352.31911	152.15629	187.1441	-340.11406	73.2303	143.20592	120.42316	41.49717	-62.65259	-72.41663	0
117	25.22377	-330.35002	-354.76012	152.15629	189.58511	-342.55507	73.2303	140.76491	122.86417	41.49717	-62.65259	-72.41663	0
118	17.90074	-323.02699	-340.11406	152.15629	177.38006	-330.35002	68.34828	133.44188	117.98215	39.05616	-67.53461	-77.29865	0
119	13.01872	-340.11406	-352.31911	161.92033	182.26208	-344.99608	70.78929	133.44188	120.42316	46.37919	-62.65259	-72.41663	0
120	8.1367	-347.43709	-354.76012	169.24336	179.82107	-349.8781	73.2303	133.44188	120.42316	46.37919	-57.77057	-69.97562	0
121	10.57771	-349.8781	-359.64214	169.24336	184.70309	-354.76012	75.67131	135.88289	122.86417	48.8202	-55.32956	-67.53461	0
122	13.01872	-352.31911	-364.52416	169.24336	187.1441	-357.20113	78.11232	140.76491	125.30518	51.26121	-52.88855	-65.0936	0
123	13.01872	-349.8781	-362.08315	166.80235	187.1441	-354.76012	80.55333	145.64693	127.74619	51.26121	-55.32956	-65.0936	0
124	13.01872	-344.99608	-357.20113	164.36134	184.70309	-349.8781	85.43535	152.96996	135.06922	53.70222	-57.77057	-65.0936	0
125	17.90074	-337.67305	-354.76012	159.47932	184.70309	-344.99608	90.31737	162.734	144.83326	51.26121	-62.65259	-72.41663	0
126	22.78276	-330.35002	-352.31911	152.15629	187.1441	-340.11406	95.19939	172.49804	157.03831	48.8202	-74.85764	-87.06269	0
127	25.22377	-327.90901	-352.31911	149.71528	187.1441	-340.11406	104.96343	194.46713	179.0074	51.26121	-87.06269	-99.26774	0
128	32.5468	-337.67305	-369.40618	152.15629	199.34915	-352.31911	119.60949	226.20026	215.62255	68.34828	-94.38572	-111.47279	0
129	39.86983	-340.11406	-379.17022	149.71528	209.11319	-359.64214	131.81454	260.3744	262.00174	102.52242	-94.38572	-118.79582	0
130	52.07488	-349.8781	-401.13931	147.27427	226.20026	-374.2882	144.01959	299.43056	318.14497	148.90161	-79.73966	-116.35481	0
131	66.72094	-344.99608	-410.90335	137.51023	238.40531	-376.72921	146.4606	338.48672	376.72921	207.48585	-50.44754	-104.14976	0
132	86.24902	-344.99608	-430.43143	127.74619	257.93339	-386.49325	139.13757	372.66086	437.75446	285.59817	-0.81367	-69.97562	0
133	110.65912	-335.23204	-445.07749	110.65912	277.46147	-388.93426	122.0505	399.51197	501.22072	388.12059	72.41663	-23.59643	0
134	142.39225	-308.38093	-449.95951	81.367	294.54854	-379.17022	87.87636	406.835	554.92294	500.40705	170.05703	43.12451	0
135	181.44841	-262.00174	-442.63648	39.05616	311.63561	-352.31911	46.37919	406.835	601.30213	622.45755	287.22551	123.67784	0
136	225.38659	-213.18154	-437.75446	-7.32303	331.16369	-325.468	4.88202	397.07096	637.91728	756.7131	428.80409	221.31824	0
137	276.6478	-147.27427	-423.1084	-65.90727	348.25076	-283.97083	-39.86983	375.10187	664.76839	903.1737	597.23378	345.80975	0
138	340.11406	-70.78929	-410.90335	-134.25555	375.10187	-240.03265	-93.57205	333.6047	669.65041	1064.28036	792.51458	492.27035	0
139	406.02133	34.17414	-371.84719	-219.6909	389.74793	-169.24336	-157.03831	267.69743	650.12233	1215.62298	1000.00043	655.81802	0
140	476.81062	141.57858	-335.23204	-310.00827	406.835	-96.01306	-225.38659	177.38006	606.18415	1362.08358	1219.69133	836.45276	0
141	542.71789	251.42403	-291.29386	-397.88463	416.59904	-19.52808	-293.73487	67.53461	535.39486	1493.89812	1444.26425	1024.41053	0
142	601.30213	356.38746	-244.91467	-478.43796	423.92207	56.14323	-364.52416	-62.65259	435.31345	1601.30256	1641.17239	1197.72224	0
143	642.7993	436.94079	-205.85851	-539.46321	423.92207	117.16848	-425.54941	-201.79016	318.14497	1681.04222	1785.19198	1334.4188	0
144	657.44536	490.64301	-166.80235	-573.63735	411.71702	163.54767	-469.48759	-345.80975	179.0074	1710.33434	1855.98127	1410.09011	0
145	647.68132	500.40705	-147.27427	-573.63735	397.07096	178.19373	-491.45668	-484.94732	19.52808	1671.27818	1843.77622	1429.61819	0
146	603.74314	495.52503	-108.21811	-549.22725	355.57379	195.2808	-496.3387	-633.84893	-175.75272	1535.39529	1736.37178	1380.79799	0
147	525.63082	478.43796	-46.37919	-502.84806	287.22551	217.24989	-479.25163	-768.10448	-397.88463	1288.85328	1529.6996	1266.07052	0
148	418.22638	451.58685	34.17414	-434.49978	192.02612	244.101	-445.07749	-890.15498	-629.78058	942.22986	1239.21941	1097.64083	0
149	291.29386	429.61776	139.13757	-361.26948	77.29865	285.59817	-410.90335	-1002.44144	-866.55855	524.81715	904.80104	899.91902	0
150	169.24336	417.41271	248.98302	-292.9212	-40.6835	334.41837	-391.37527	-1117.16891	-1091.13147	78.11232	570.38267	699.7562	0
151	54.51589	417.41271	363.71049	-236.77797	-155.41097	390.5616	-384.05224	-1209.92729	-1276.64823	-335.23204	265.25642	511.79843	0
152	-46.37919	434.49978	480.87897	-195.2808	-262.81541	456.46887	-388.93426	-1280.71658	-1413.34479	-684.29647	-0.81367	336.04571	0
153	-126.93252	434.49978	561.4323	-153.78363	-343.36874	497.96604	-401.13931	-1319.77274	-1484.13408	-925.95646	-201.79016	189.58511	0
154	-185.51676	422.29473	607.81149	-119.60949	-397.07096	515.05311	-418.22638	-1331.97779	-1496.33913	-1060.21201	-338.48672	69.97562	0
155	-217.24989	395.44362	612.69351	-90.31737	-414.15803	502.84806	-430.43143	-1317.33173	-1454.84196	-1094.38615	-409.27601	-13.01872	0
156	-231.89595	375.91554	607.81149	-73.2303	-419.04005	490.64301	-432.87244	-1275.83456	-1384.05267	-1060.21201	-438.56813	-69.97562	0
157	-239.21898	358.82847	598.04745	-61.02525	-419.04005	478.43796	-425.54941	-1212.3683	-1293.7353	-996.74575	-443.45015	-109.03178	0
158	-239.21898	349.06443	588.28341	-56.14323	-414.15803	468.67392	-410.90335	-1136.69699	-1200.97692	-928.39747	-438.56813	-133.44188	0
159	-231.89595	346.62342	578.51937	-58.58424	-404.39399	461.35089	-384.05224	-1053.70265	-1103.33652	-857.60818	-421.48106	-143.20592	0
160	-217.24989	344.18241	561.4323	-63.46626	-389.74793	451.58685	-357.20113	-968.2673	-1008.13713	-791.70091	-399.51197	-138.3239	0
161	-197.72181	344.18241	541.90422	-73.2303	-370.21985	441.82281	-332.79103	-882.83195	-917.81976	-728.23465	-370.21985	-126.11885	0
162	-180.63474	339.30039	519.93513	-80.55333	-350.69177	429.61776	-308.38093	-802.27862	-834.82542	-669.65041	-345.80975	-111.47279	0
163	-165.98868	334.41837	500.40705	-85.43535	-333.6047	417.41271	-283.97083	-726.60731	-759.15411	-618.3892	-326.28167	-104.14976	0
164	-151.34262	322.21332	473.55594	-85.43535	-311.63561	397.88463	-257.11972	-658.25903	-685.92381	-569.569	-306.75359	-96.82673	0
165	-141.57858	285.59817	427.17675	-73.2303	-284.7845	356.38746	-227.8276	-589.91075	-615.13452	-523.18981	-287.22551	-89.5037	0
166	-131.81454	253.86504	385.67958	-61.02525	-257.93339	319.77231	-200.97649	-531.32651	-554.10927	-486.57466	-275.02046	-87.06269	0
167	-129.37353	227.01393	356.38746	-48.8202	-243.28733	290.48019	-174.12538	-482.50631	-505.28907	-454.84153	-265.25642	-87.06269	0
168	-124.49151	212.36787	336.85938	-43.93818	-231.08228	273.39312	-152.15629	-445.89116	-468.67392	-430.43143	-260.3744	-89.5037	0
169	-119.60949	192.83979	312.44928	-36.61515	-216.43622	251.42403	-127.74619	-414.15803	-436.94079	-406.02133	-250.61036	-89.5037	0
170	-117.16848	178.19373	295.36221	-31.73313	-206.67218	236.77797	-108.21811	-389.74793	-414.9717	-388.93426	-245.72834	-89.5037	0
171	-112.28646	175.75272	288.03918	-31.73313	-199.34915	231.89595	-88.69003	-365.33783	-395.44362	-376.72921	-238.40531	-87.06269	0
172	-109.84545	173.31171	283.15716	-31.73313	-196.90814	227.01393	-69.16195	-343.36874	-380.79756	-366.96517	-233.52329	-84.62168	0
173	-107.40444	178.19373	285.59817	-36.61515	-196.90814	231.89595	-49.63387	-323.84066	-366.1515	-354.76012	-231.08228	-79.73966	0
174	-107.40444	180.63474	288.03918	-36.61515	-196.90814	234.33696	-32.5468	-306.75359	-351.50544	-344.99608	-223.75925	-74.85764	0
175	-107.40444	187.95777	295.36221	-41.49717	-201.79016	241.65999	-20.34175	-294.54854	-336.85938	-337.67305	-218.87723	-69.97562	0
176	-107.40444	195.2808	302.68524	-43.93818	-204.23117	248.98302	-10.57771	-287.22551	-327.09534	-332.79103	-213.99521	-67.53461	0
177	-107.40444	197.72181	305.12625	-46.37919	-206.67218	251.42403	-3.25468	-282.34349	-319.77231	-327.90901	-206.67218	-60.21158	0
178	-109.84545	209.92686	319.77231	-51.26121	-213.99521	263.62908	0	-282.34349	-319.77231	-325.468	-204.23117	-55.32956	0
179	-114.72747	224.57292	339.30039	-56.14323	-226.20026	280.71615	0	-287.22551	-319.77231	-320.58598	-199.34915	-50.44754	0
180	-117.16848	239.21898	356.38746	-61.02525	-235.9643	297.80322	0	-292.10753	-324.65433	-323.02699	-196.90814	-48.00653	0
181	-117.16848	266.07009	383.23857	-75.67131	-250.61036	324.65433	-3.25468	-296.98955	-329.53635	-327.90901	-196.90814	-45.56552	0
182	-114.72747	278.27514	393.00261	-82.99434	-253.05137	334.41837	-3.25468	-299.43056	-334.41837	-330.35002	-192.02612	-40.6835	0
183	-114.72747	292.9212	407.64867	-90.31737	-260.3744	349.06443	-3.25468	-301.87157	-339.30039	-330.35002	-192.02612	-35.80148	0
184	-114.72747	305.12625	419.85372	-95.19939	-267.69743	361.26948	-3.25468	-304.31258	-339.30039	-332.79103	-189.58511	-33.36047	0
185	-114.72747	310.00827	424.73574	-97.6404	-270.13844	366.1515	2.44101	-304.31258	-336.85938	-332.79103	-184.70309	-26.03744	0
186	-117.16848	319.77231	436.94079	-102.52242	-277.46147	378.35655	4.88202	-306.75359	-336.85938	-335.23204	-182.26208	-23.59643	0
187	-119.60949	327.09534	446.70483	-104.96343	-282.34349	385.67958	4.88202	-309.1946	-339.30039	-337.67305	-179.82107	-20.34175	0
188	-124.49151	334.41837	458.90988	-104.96343	-292.10753	395.44362	7.32303	-316.51763	-344.18241	-337.67305	-179.82107	-20.34175	0
189	-126.93252	353.94645	480.87897	-114.72747	-304.31258	417.41271	7.32303	-323.84066	-351.50544	-340.11406	-179.82107	-20.34175	0
190	-129.37353	361.26948	490.64301	-117.16848	-309.1946	424.73574	7.32303	-328.72268	-356.38746	-342.55507	-174.93905	-15.45973	0
191	-126.93252	368.59251	495.52503	-122.0505	-311.63561	432.05877	7.32303	-328.72268	-358.82847	-342.55507	-167.61602	-10.57771	0
192	-124.49151	375.91554	500.40705	-126.93252	-311.63561	436.94079	9.76404	-328.72268	-363.71049	-344.99608	-162.734	-5.69569	0
193	-124.49151	380.79756	505.28907	-129.37353	-314.07662	441.82281	9.76404	-326.28167	-366.1515	-344.99608	-155.41097	-0.81367	0
194	-126.93252	395.44362	522.37614	-134.25555	-323.84066	458.90988	9.76404	-328.72268	-371.03352	-344.99608	-150.52895	4.06835	0
195	-129.37353	410.08968	539.46321	-141.57858	-333.6047	473.55594	9.76404	-333.6047	-373.47453	-349.8781	-148.08794	6.50936	0
196	-134.25555	419.85372	554.10927	-144.01959	-343.36874	485.76099	7.32303	-340.92773	-378.35655	-354.76012	-145.64693	8.95037	0
197	-141.57858	436.94079	578.51937	-148.90161	-360.45581	507.73008	2.44101	-350.69177	-385.67958	-362.08315	-143.20592	8.95037	0
198	-146.4606	454.02786	600.48846	-153.78363	-372.66086	527.25816	-3.25468	-360.45581	-395.44362	-364.52416	-143.20592	11.39138	0
199	-148.90161	473.55594	622.45755	-163.54767	-384.86591	546.78624	-8.1367	-370.21985	-405.20766	-366.96517	-143.20592	11.39138	0
200	-148.90161	480.87897	629.78058	-165.98868	-389.74793	554.10927	-8.1367	-375.10187	-410.08968	-366.96517	-138.3239	18.71441	0
201	-148.90161	493.08402	641.98563	-173.31171	-394.62995	566.31432	-10.57771	-377.54288	-414.9717	-369.40618	-133.44188	21.15542	0
202	-146.4606	497.96604	644.42664	-175.75272	-394.62995	571.19634	-8.1367	-375.10187	-419.85372	-369.40618	-126.11885	30.91946	0
203	-146.4606	512.6121	659.0727	-183.07575	-401.95298	585.8424	-10.57771	-377.54288	-424.73574	-371.84719	-126.11885	33.36047	0
204	-146.4606	529.69917	676.15977	-192.83979	-411.71702	602.92947	-10.57771	-379.98389	-429.61776	-374.2882	-123.67784	38.24249	0
205	-148.90161	537.0222	685.92381	-195.2808	-416.59904	610.2525	-13.01872	-379.98389	-429.61776	-374.2882	-118.79582	43.12451	0
206	-151.34262	551.66826	703.01088	-200.16282	-426.36308	627.33957	-13.01872	-384.86591	-432.05877	-379.17022	-116.35481	45.56552	0
207	-153.78363	568.75533	722.53896	-207.48585	-438.56813	644.42664	-17.90074	-392.18894	-436.94079	-384.05224	-116.35481	48.00653	0
208	-156.22464	583.40139	739.62603	-214.80888	-448.33217	661.51371	-20.34175	-399.51197	-441.82281	-386.49325	-116.35481	48.00653	0
209	-153.78363	593.16543	746.94906	-219.6909	-450.77318	668.83674	-22.78276	-406.835	-449.14584	-386.49325	-111.47279	50.44754	0
210	-153.78363	595.60644	749.39007	-222.13191	-450.77318	671.27775	-22.78276	-411.71702	-454.02786	-386.49325	-106.59077	55.32956	0
211	-151.34262	605.37048	756.7131	-227.01393	-453.21419	681.04179	-22.78276	-411.71702	-456.46887	-388.93426	-101.70875	57.77057	0
212	-151.34262	622.45755	773.80017	-236.77797	-462.97823	698.12886	-27.66478	-414.15803	-461.35089	-393.81628	-101.70875	60.21158	0
213	-153.78363	639.54462	793.32825	-244.101	-472.74227	715.21593	-30.10579	-416.59904	-468.67392	-396.25729	-101.70875	62.65259	0
214	-158.66565	649.30866	807.97431	-246.54201	-482.50631	727.42098	-30.10579	-416.59904	-471.11493	-396.25729	-96.82673	69.97562	0
215	-163.54767	661.51371	825.06138	-248.98302	-494.71136	742.06704	-30.10579	-416.59904	-471.11493	-396.25729	-94.38572	74.85764	0
216	-165.98868	673.71876	839.70744	-253.86504	-502.03439	756.7131	-30.10579	-419.04005	-468.67392	-398.6983	-89.5037	79.73966	0
217	-173.31171	683.4828	856.79451	-256.30605	-514.23944	768.91815	-32.5468	-423.92207	-471.11493	-401.13931	-87.06269	82.18067	0
218	-178.19373	688.36482	866.55855	-256.30605	-521.56247	776.24118	-34.98781	-431.2451	-475.99695	-398.6983	-84.62168	84.62168	0
219	-178.19373	690.80583	868.99956	-256.30605	-524.00348	778.68219	-34.98781	-436.12712	-478.43796	-396.25729	-79.73966	89.5037	0
220	-178.19373	683.4828	861.67653	-253.86504	-519.12146	771.35916	-32.5468	-438.56813	-478.43796	-396.25729	-74.85764	94.38572	0
221	-175.75272	695.68785	871.44057	-261.18807	-524.00348	783.56421	-37.42882	-441.00914	-483.31998	-398.6983	-74.85764	94.38572	0
222	-173.31171	710.33391	883.64562	-268.5111	-528.8855	795.76926	-39.86983	-443.45015	-488.202	-403.58032	-79.73966	94.38572	0
223	-173.31171	729.86199	903.1737	-278.27514	-538.64954	815.29734	-44.75185	-445.89116	-495.52503	-406.02133	-82.18067	96.82673	0
224	-170.8707	756.7131	927.5838	-292.9212	-548.41358	842.14845	-49.63387	-453.21419	-497.96604	-413.34436	-87.06269	94.38572	0
225	-170.8707	773.80017	944.67087	-302.68524	-558.17762	859.23552	-49.63387	-455.6552	-497.96604	-415.78537	-87.06269	96.82673	0
226	-170.8707	790.88724	961.75794	-310.00827	-565.50065	876.32259	-49.63387	-460.53722	-497.96604	-418.22638	-87.06269	99.26774	0
227	-168.42969	805.5333	973.96299	-319.77231	-570.38267	888.52764	-52.07488	-462.97823	-495.52503	-420.66739	-87.06269	101.70875	0
228	-168.42969	810.41532	978.84501	-322.21332	-572.82368	893.40966	-52.07488	-465.41924	-495.52503	-413.34436	-82.18067	106.59077	0
229	-168.42969	807.97431	976.404	-319.77231	-572.82368	890.96865	-49.63387	-465.41924	-493.08402	-406.02133	-77.29865	111.47279	0
230	-170.8707	805.5333	976.404	-317.3313	-572.82368	890.96865	-49.63387	-465.41924	-490.64301	-403.58032	-72.41663	113.9138	0
231	-170.8707	810.41532	981.28602	-319.77231	-575.26469	895.85067	-49.63387	-465.41924	-488.202	-403.58032	-69.97562	113.9138	0
232	-168.42969	815.29734	983.72703	-324.65433	-575.26469	898.29168	-49.63387	-460.53722	-485.76099	-401.13931	-65.0936	118.79582	0
233	-170.8707	825.06138	995.93208	-327.09534	-582.58772	910.49673	-52.07488	-458.09621	-485.76099	-401.13931	-65.0936	118.79582	0
234	-175.75272	827.50239	1003.25511	-327.09534	-589.91075	915.37875	-52.07488	-455.6552	-483.31998	-398.6983	-62.65259	121.23683	0
235	-178.19373	837.26643	1015.46016	-329.53635	-597.23378	925.14279	-54.51589	-455.6552	-483.31998	-401.13931	-62.65259	123.67784	0
236	-175.75272	851.91249	1027.66521	-339.30039	-602.1158	939.78885	-59.39791	-458.09621	-483.31998	-406.02133	-65.0936	123.67784	0
237	-175.75272	861.67653	1037.42925	-344.18241	-606.99782	949.55289	-61.83892	-458.09621	-480.87897	-406.02133	-65.0936	126.11885	0
238	-178.19373	864.11754	1042.31127	-344.18241	-609.43883	951.9939	-61.83892	-458.09621	-478.43796	-401.13931	-62.65259	128.55986	0
239	-180.63474	864.11754	1044.75228	-341.7414	-611.87984	954.43491	-61.83892	-458.09621	-473.55594	-393.81628	-57.77057	133.44188	0
240	-180.63474	856.79451	1037.42925	-339.30039	-609.43883	947.11188	-56.9569	-453.21419	-468.67392	-386.49325	-50.44754	138.3239	0
241	-175.75272	859.23552	1034.98824	-341.7414	-604.55681	947.11188	-56.9569	-445.89116	-463.7919	-381.61123	-45.56552	143.20592	0
242	-175.75272	854.3535	1030.10622	-339.30039	-602.1158	942.22986	-54.51589	-436.12712	-456.46887	-374.2882	-38.24249	150.52895	0
243	-175.75272	844.58946	1020.34218	-334.41837	-597.23378	932.46582	-49.63387	-426.36308	-449.14584	-364.52416	-33.36047	155.41097	0
244	-175.75272	839.70744	1015.46016	-331.97736	-594.79277	927.5838	-49.63387	-419.04005	-439.3818	-357.20113	-27.66478	162.734	0
245	-170.8707	839.70744	1010.57814	-334.41837	-589.91075	925.14279	-49.63387	-414.15803	-432.05877	-354.76012	-22.78276	165.17501	0
246	-168.42969	847.03047	1015.46016	-339.30039	-592.35176	930.02481	-54.51589	-411.71702	-424.73574	-352.31911	-20.34175	165.17501	0
247	-168.42969	849.47148	1017.90117	-341.7414	-592.35176	932.46582	-54.51589	-409.27601	-417.41271	-347.43709	-17.90074	170.05703	0
248	-168.42969	849.47148	1017.90117	-341.7414	-592.35176	932.46582	-56.9569	-404.39399	-412.53069	-340.11406	-15.45973	174.93905	0
249	-165.98868	864.11754	1030.10622	-349.06443	-597.23378	947.11188	-61.83892	-404.39399	-407.64867	-335.23204	-15.45973	174.93905	0
250	-158.66565	871.44057	1030.10622	-356.38746	-594.79277	949.55289	-64.27993	-404.39399	-402.76665	-330.35002	-10.57771	174.93905	0
251	-151.34262	871.44057	1022.78319	-361.26948	-587.46974	947.11188	-66.72094	-394.62995	-393.00261	-325.468	-3.25468	179.82107	0
252	-148.90161	871.44057	1020.34218	-361.26948	-585.02873	944.67087	-66.72094	-387.30692	-388.12059	-318.14497	1.62734	182.26208	0
253	-146.4606	868.99956	1015.46016	-361.26948	-580.14671	942.22986	-71.60296	-377.54288	-380.79756	-308.38093	6.50936	182.26208	0
254	-141.57858	873.88158	1015.46016	-366.1515	-577.7057	944.67087	-74.04397	-370.21985	-371.03352	-301.0579	11.39138	182.26208	0
255	-139.13757	871.44057	1010.57814	-366.1515	-575.26469	939.78885	-78.92599	-362.89682	-358.82847	-291.29386	16.2734	182.26208	0
256	-136.69656	859.23552	995.93208	-361.26948	-565.50065	927.5838	-78.92599	-353.13278	-346.62342	-281.52982	26.03744	184.70309	0
257	-134.25555	844.58946	978.84501	-356.38746	-555.73661	910.49673	-78.92599	-345.80975	-331.97736	-266.88376	33.36047	192.02612	0
258	-131.81454	837.26643	969.08097	-353.94645	-550.85459	903.1737	-78.92599	-338.48672	-322.21332	-252.2377	40.6835	194.46713	0
259	-126.93252	827.50239	954.43491	-351.50544	-541.09055	890.96865	-81.367	-331.16369	-307.56726	-232.70962	50.44754	199.34915	0
260	-124.49151	812.85633	937.34784	-344.18241	-531.32651	873.88158	-81.367	-321.39965	-292.9212	-215.62255	60.21158	204.23117	0
261	-119.60949	795.76926	915.37875	-339.30039	-516.68045	854.3535	-78.92599	-304.31258	-275.83413	-198.53548	72.41663	211.5542	0
262	-107.40444	783.56421	890.96865	-339.30039	-499.59338	837.26643	-78.92599	-287.22551	-258.74706	-179.0074	82.18067	216.43622	1500	QRS+0
263	-97.6404	776.24118	873.88158	-339.30039	-484.94732	825.06138	-76.48498	-272.57945	-241.65999	-157.03831	89.5037	221.31824	0
264	-90.31737	776.24118	866.55855	-344.18241	-477.62429	820.17936	-78.92599	-260.3744	-224.57292	-142.39225	96.82673	223.75925	0
265	-82.99434	771.35916	854.3535	-344.18241	-467.86025	812.85633	-78.92599	-248.16935	-205.04484	-122.86417	106.59077	226.20026	0
266	-73.2303	766.47714	839.70744	-346.62342	-455.6552	803.09229	-81.367	-235.9643	-185.51676	-105.7771	113.9138	228.64127	0
267	-61.02525	773.80017	834.82542	-356.38746	-448.33217	803.09229	-91.13104	-228.64127	-170.8707	-91.13104	118.79582	228.64127	0
268	-53.70222	768.91815	822.62037	-358.82847	-438.56813	795.76926	-96.01306	-218.87723	-156.22464	-71.60296	126.11885	231.08228	0
269	-46.37919	759.15411	805.5333	-356.38746	-426.36308	781.1232	-100.89508	-209.11319	-139.13757	-47.19286	138.3239	235.9643	0
270	-36.61515	746.94906	783.56421	-356.38746	-409.27601	764.03613	-103.33609	-196.90814	-122.0505	-30.10579	145.64693	238.40531	0
271	-26.85111	724.97997	751.83108	-349.06443	-389.74793	737.18502	-105.7771	-179.82107	-102.52242	-9.76404	155.41097	243.28733	0
272	-17.08707	707.8929	724.97997	-346.62342	-370.21985	715.21593	-108.21811	-162.734	-85.43535	9.76404	160.29299	245.72834	0
273	-9.76404	685.92381	695.68785	-339.30039	-353.13278	690.80583	-105.7771	-143.20592	-65.90727	31.73313	170.05703	250.61036	0
274	-4.88202	659.0727	663.95472	-327.09534	-333.6047	661.51371	-100.89508	-121.23683	-43.93818	53.70222	179.82107	257.93339	0
275	0.81367	634.6626	634.6626	-317.3313	-316.51763	634.6626	-96.01306	-104.14976	-21.96909	70.78929	187.1441	262.81541	0
276	5.69569	607.81149	602.92947	-307.56726	-299.43056	605.37048	-93.57205	-89.5037	0	87.87636	194.46713	262.81541	0
277	10.57771	583.40139	573.63735	-297.80322	-282.34349	578.51937	-91.13104	-72.41663	19.52808	104.96343	201.79016	265.25642	0
278	17.90074	563.87331	546.78624	-290.48019	-265.25642	556.55028	-91.13104	-62.65259	32.5468	119.60949	204.23117	265.25642	0
279	25.22377	546.78624	522.37614	-285.59817	-248.16935	534.58119	-91.13104	-52.88855	47.19286	134.25555	209.11319	262.81541	0
280	32.5468	522.37614	490.64301	-278.27514	-228.64127	507.73008	-91.13104	-43.12451	59.39791	144.01959	211.5542	260.3744	0
281	39.86983	510.17109	471.11493	-275.83413	-216.43622	490.64301	-93.57205	-30.91946	74.04397	153.78363	213.99521	255.49238	0
282	49.63387	497.96604	449.14584	-273.39312	-199.34915	473.55594	-93.57205	-18.71441	83.80801	158.66565	211.5542	250.61036	0
283	54.51589	473.55594	419.85372	-263.62908	-182.26208	446.70483	-91.13104	-4.06835	96.01306	168.42969	211.5542	248.16935	0
284	56.9569	449.14584	393.00261	-253.86504	-167.61602	422.29473	-88.69003	8.1367	110.65912	175.75272	211.5542	245.72834	0
285	59.39791	429.61776	371.03352	-244.101	-155.41097	400.32564	-88.69003	20.34175	125.30518	180.63474	206.67218	240.84632	0
286	61.83892	414.9717	353.94645	-239.21898	-145.64693	385.67958	-86.24902	30.10579	135.06922	185.51676	201.79016	233.52329	0
287	64.27993	397.88463	334.41837	-231.89595	-135.88289	366.1515	-86.24902	35.80148	144.83326	187.95777	196.90814	226.20026	0
288	66.72094	368.59251	302.68524	-217.24989	-118.79582	336.85938	-81.367	45.56552	154.5973	195.2808	194.46713	221.31824	0
289	71.60296	351.50544	280.71615	-212.36787	-104.14976	317.3313	-81.367	52.88855	159.47932	202.60383	187.1441	213.99521	0
290	78.92599	341.7414	263.62908	-209.92686	-91.94471	302.68524	-83.80801	57.77057	161.92033	202.60383	179.82107	201.79016	0
291	86.24902	329.53635	244.101	-207.48585	-79.73966	288.03918	-86.24902	65.0936	169.24336	202.60383	174.93905	192.02612	0
292	91.13104	302.68524	212.36787	-197.72181	-60.21158	258.74706	-81.367	77.29865	176.56639	207.48585	170.05703	187.1441	0
293	91.13104	270.95211	180.63474	-180.63474	-45.56552	227.01393	-78.92599	89.5037	186.33043	212.36787	167.61602	184.70309	0
294	88.69003	256.30605	168.42969	-173.31171	-40.6835	212.36787	-78.92599	96.82673	191.21245	212.36787	157.85198	174.93905	0
295	86.24902	234.33696	148.90161	-161.10666	-30.91946	192.83979	-76.48498	101.70875	198.53548	209.92686	152.96996	167.61602	0
296	83.80801	207.48585	124.49151	-146.4606	-21.15542	165.98868	-74.04397	109.03178	205.85851	207.48585	145.64693	157.85198	0
297	81.367	183.07575	102.52242	-131.81454	-11.39138	144.01959	-69.16195	116.35481	213.18154	207.48585	140.76491	150.52895	0
298	78.92599	161.10666	82.99434	-119.60949	-1.62734	122.0505	-66.72094	121.23683	215.62255	209.92686	133.44188	143.20592	0
299	76.48498	148.90161	73.2303	-112.28646	0.81367	112.28646	-66.72094	123.67784	215.62255	209.92686	123.67784	131.00087	0
300	76.48498	131.81454	56.14323	-104.96343	10.57771	95.19939	-64.27993	128.55986	215.62255	207.48585	118.79582	118.79582	0
301	81.367	109.84545	29.29212	-95.19939	25.22377	70.78929	-56.9569	140.76491	220.50457	207.48585	113.9138	111.47279	0
302	83.80801	87.87636	4.88202	-85.43535	40.6835	46.37919	-49.63387	150.52895	222.94558	205.04484	109.03178	106.59077	0
303	81.367	70.78929	-9.76404	-75.67131	45.56552	31.73313	-44.75185	160.29299	222.94558	202.60383	99.26774	96.82673	0
304	81.367	56.14323	-24.4101	-68.34828	52.88855	17.08707	-39.86983	167.61602	225.38659	197.72181	89.5037	89.5037	0
305	81.367	39.05616	-41.49717	-61.02525	62.65259	0	-34.98781	172.49804	227.8276	192.83979	82.18067	79.73966	0
306	83.80801	19.52808	-63.46626	-51.26121	74.85764	-21.96909	-32.5468	177.38006	230.26861	187.95777	77.29865	72.41663	0
307	81.367	2.44101	-78.92599	-41.49717	79.73966	-36.61515	-30.10579	179.82107	230.26861	183.07575	69.97562	65.0936	0
308	76.48498	-12.20505	-88.69003	-31.73313	82.18067	-48.8202	-30.10579	179.82107	227.8276	178.19373	60.21158	52.88855	0
309	74.04397	-21.96909	-96.01306	-26.85111	84.62168	-58.58424	-30.10579	177.38006	222.94558	173.31171	50.44754	40.6835	0
310	71.60296	-39.05616	-110.65912	-17.08707	91.94471	-73.2303	-30.10579	177.38006	218.06356	168.42969	43.12451	33.36047	0
311	71.60296	-51.26121	-122.86417	-9.76404	96.82673	-86.24902	-27.66478	179.82107	215.62255	161.10666	33.36047	23.59643	0
312	71.60296	-56.14323	-127.74619	-7.32303	99.26774	-91.13104	-27.66478	182.26208	208.29952	151.34262	21.15542	11.39138	0
313	69.16195	-61.02525	-130.1872	-4.88202	99.26774	-96.01306	-25.22377	182.26208	200.97649	141.57858	6.50936	-0.81367	0
314	66.72094	-63.46626	-130.1872	-2.44101	99.26774	-96.01306	-22.78276	182.26208	198.53548	134.25555	-3.25468	-8.1367	0
315	66.72094	-75.67131	-142.39225	4.88202	104.14976	-108.21811	-20.34175	184.70309	198.53548	129.37353	-10.57771	-15.45973	0
316	64.27993	-88.69003	-152.15629	12.20505	106.59077	-120.42316	-15.45973	189.58511	198.53548	122.0505	-15.45973	-23.59643	0
317	59.39791	-98.45407	-157.03831	19.52808	106.59077	-127.74619	-13.01872	189.58511	193.65346	114.72747	-22.78276	-28.47845	0
318	54.51589	-110.65912	-164.36134	26.85111	109.03178	-137.51023	-8.1367	187.1441	191.21245	114.72747	-27.66478	-33.36047	0
319	52.07488	-122.86417	-174.12538	34.17414	111.47279	-147.27427	-8.1367	187.1441	186.33043	114.72747	-30.10579	-38.24249	0
320	52.07488	-139.95124	-191.21245	41.49717	121.23683	-164.36134	-5.69569	184.70309	183.88942	109.84545	-33.36047	-43.12451	0
321	54.51589	-147.27427	-200.97649	44.75185	126.11885	-174.12538	-5.69569	184.70309	179.0074	104.96343	-33.36047	-45.56552	0
322	56.9569	-147.27427	-203.4175	44.75185	128.55986	-174.12538	-8.1367	184.70309	171.68437	97.6404	-40.6835	-50.44754	0
323	56.9569	-157.03831	-213.18154	49.63387	133.44188	-183.88942	-5.69569	187.1441	166.80235	97.6404	-43.12451	-52.88855	0
324	56.9569	-169.24336	-225.38659	54.51589	140.76491	-196.09447	-3.25468	189.58511	166.80235	95.19939	-45.56552	-52.88855	0
325	56.9569	-183.88942	-240.03265	61.83892	148.08794	-210.74053	0	189.58511	166.80235	92.75838	-45.56552	-55.32956	0
326	52.07488	-200.97649	-252.2377	74.04397	150.52895	-225.38659	2.44101	192.02612	169.24336	90.31737	-48.00653	-57.77057	0
327	47.19286	-200.97649	-247.35568	76.48498	145.64693	-222.94558	0	182.26208	159.47932	80.55333	-55.32956	-65.0936	0
328	37.42882	-208.29952	-244.91467	83.80801	140.76491	-225.38659	-3.25468	174.93905	149.71528	75.67131	-62.65259	-74.85764	0
329	34.98781	-215.62255	-249.79669	88.69003	140.76491	-232.70962	-3.25468	172.49804	144.83326	73.2303	-65.0936	-79.73966	0
330	32.5468	-210.74053	-242.47366	88.69003	135.88289	-225.38659	-3.25468	165.17501	135.06922	65.90727	-72.41663	-87.06269	0
331	32.5468	-218.06356	-249.79669	91.13104	140.76491	-232.70962	-3.25468	165.17501	132.62821	63.46626	-72.41663	-89.5037	0
332	32.5468	-213.18154	-244.91467	88.69003	138.3239	-227.8276	-3.25468	162.734	125.30518	56.14323	-79.73966	-96.82673	0
333	32.5468	-213.18154	-244.91467	88.69003	138.3239	-227.8276	-3.25468	165.17501	120.42316	53.70222	-82.18067	-99.26774	0
334	37.42882	-210.74053	-247.35568	86.24902	140.76491	-227.8276	0	167.61602	122.86417	53.70222	-82.18067	-96.82673	0
335	39.86983	-205.85851	-244.91467	81.367	140.76491	-225.38659	0	167.61602	125.30518	48.8202	-84.62168	-96.82673	0
336	39.86983	-203.4175	-242.47366	81.367	140.76491	-222.94558	0	162.734	122.86417	46.37919	-87.06269	-101.70875	0
337	39.86983	-198.53548	-237.59164	78.92599	138.3239	-218.06356	-3.25468	157.85198	120.42316	41.49717	-91.94471	-104.14976	0
338	34.98781	-200.97649	-235.15063	81.367	133.44188	-218.06356	-3.25468	155.41097	115.54114	39.05616	-94.38572	-106.59077	0
339	27.66478	-205.85851	-232.70962	88.69003	128.55986	-218.06356	-3.25468	150.52895	110.65912	39.05616	-96.82673	-106.59077	0
340	20.34175	-215.62255	-235.15063	96.01306	126.11885	-225.38659	-3.25468	145.64693	108.21811	39.05616	-96.82673	-109.03178	0
341	20.34175	-222.94558	-242.47366	100.89508	131.00087	-232.70962	-3.25468	148.08794	108.21811	36.61515	-96.82673	-109.03178	0
342	17.90074	-227.8276	-244.91467	103.33609	131.00087	-235.15063	0	148.08794	103.33609	31.73313	-101.70875	-111.47279	0
343	15.45973	-232.70962	-247.35568	108.21811	131.00087	-240.03265	0	148.08794	100.89508	31.73313	-104.14976	-113.9138	0
344	15.45973	-235.15063	-249.79669	108.21811	131.00087	-242.47366	0	148.08794	100.89508	29.29212	-104.14976	-113.9138	0
345	17.90074	-232.70962	-249.79669	105.7771	133.44188	-240.03265	2.44101	148.08794	103.33609	29.29212	-106.59077	-113.9138	0
346	22.78276	-232.70962	-254.67871	103.33609	138.3239	-242.47366	2.44101	148.08794	108.21811	26.85111	-106.59077	-113.9138	0
347	25.22377	-237.59164	-262.00174	105.7771	143.20592	-249.79669	4.88202	148.08794	110.65912	26.85111	-104.14976	-111.47279	0
348	25.22377	-235.15063	-259.56073	103.33609	140.76491	-247.35568	2.44101	143.20592	105.7771	24.4101	-106.59077	-111.47279	0
349	20.34175	-232.70962	-252.2377	105.7771	135.88289	-242.47366	0	140.76491	103.33609	24.4101	-109.03178	-111.47279	0
350	15.45973	-237.59164	-252.2377	110.65912	133.44188	-244.91467	0	138.3239	98.45407	21.96909	-109.03178	-116.35481	0
351	15.45973	-235.15063	-249.79669	108.21811	131.00087	-242.47366	-3.25468	138.3239	96.01306	17.08707	-111.47279	-118.79582	0
352	20.34175	-230.26861	-249.79669	103.33609	133.44188	-240.03265	-3.25468	138.3239	91.13104	12.20505	-116.35481	-121.23683	0
353	20.34175	-227.8276	-247.35568	103.33609	133.44188	-237.59164	-3.25468	138.3239	86.24902	9.76404	-121.23683	-123.67784	0
354	20.34175	-222.94558	-242.47366	100.89508	131.00087	-232.70962	-3.25468	138.3239	86.24902	4.88202	-121.23683	-126.11885	0
355	20.34175	-222.94558	-242.47366	100.89508	131.00087	-232.70962	0	140.76491	88.69003	4.88202	-121.23683	-126.11885	0
356	20.34175	-220.50457	-240.03265	98.45407	128.55986	-230.26861	2.44101	143.20592	91.13104	2.44101	-121.23683	-126.11885	0
357	20.34175	-210.74053	-230.26861	93.57205	123.67784	-220.50457	2.44101	138.3239	88.69003	-2.44101	-126.11885	-128.55986	0
358	13.01872	-210.74053	-222.94558	98.45407	116.35481	-215.62255	2.44101	135.88289	86.24902	-2.44101	-126.11885	-131.00087	-1500	QRS-0
359	8.1367	-215.62255	-222.94558	103.33609	113.9138	-218.06356	2.44101	135.88289	83.80801	-2.44101	-126.11885	-131.00087	0
360	5.69569	-215.62255	-220.50457	103.33609	111.47279	-218.06356	4.88202	133.44188	81.367	-4.88202	-128.55986	-131.00087	0
361	3.25468	-220.50457	-222.94558	108.21811	111.47279	-220.50457	7.32303	135.88289	81.367	-4.88202	-128.55986	-131.00087	0
362	-1.62734	-225.38659	-222.94558	113.10013	109.03178	-222.94558	9.76404	138.3239	78.92599	-4.88202	-128.55986	-133.44188	0
363	-4.88202	-230.26861	-225.38659	115.54114	109.03178	-227.8276	12.20505	143.20592	78.92599	-4.88202	-131.00087	-135.88289	0
364	-4.88202	-232.70962	-227.8276	117.98215	111.47279	-230.26861	17.08707	145.64693	81.367	-2.44101	-131.00087	-135.88289	0
365	-4.88202	-227.8276	-222.94558	115.54114	109.03178	-225.38659	21.96909	148.08794	88.69003	-2.44101	-133.44188	-133.44188	0
366	-7.32303	-222.94558	-215.62255	113.10013	104.14976	-220.50457	21.96909	145.64693	88.69003	-7.32303	-133.44188	-135.88289	0
367	-12.20505	-222.94558	-210.74053	115.54114	99.26774	-218.06356	24.4101	143.20592	86.24902	-7.32303	-133.44188	-135.88289	0
368	-12.20505	-230.26861	-218.06356	120.42316	101.70875	-225.38659	26.85111	143.20592	83.80801	-7.32303	-131.00087	-135.88289	0
369	-9.76404	-235.15063	-225.38659	120.42316	106.59077	-230.26861	29.29212	143.20592	81.367	-4.88202	-126.11885	-133.44188	0
370	-7.32303	-242.47366	-235.15063	122.86417	113.9138	-240.03265	31.73313	143.20592	78.92599	-7.32303	-126.11885	-133.44188	0
371	-4.88202	-242.47366	-237.59164	122.86417	116.35481	-240.03265	31.73313	148.08794	74.04397	-9.76404	-126.11885	-135.88289	0
372	-4.88202	-249.79669	-244.91467	125.30518	118.79582	-247.35568	36.61515	152.96996	74.04397	-9.76404	-128.55986	-135.88289	0
373	-4.88202	-259.56073	-254.67871	130.1872	123.67784	-257.11972	41.49717	157.85198	78.92599	-7.32303	-128.55986	-135.88289	0
374	-4.88202	-254.67871	-249.79669	127.74619	121.23683	-252.2377	43.93818	160.29299	83.80801	-9.76404	-131.00087	-140.76491	0
375	-7.32303	-247.35568	-240.03265	125.30518	116.35481	-244.91467	43.93818	157.85198	86.24902	-12.20505	-135.88289	-143.20592	0
376	-9.76404	-249.79669	-240.03265	127.74619	113.9138	-244.91467	46.37919	160.29299	93.57205	-9.76404	-135.88289	-143.20592	0
377	-14.64606	-254.67871	-240.03265	132.62821	111.47279	-247.35568	51.26121	160.29299	93.57205	-7.32303	-133.44188	-140.76491	0
378	-14.64606	-262.00174	-247.35568	137.51023	116.35481	-254.67871	56.14323	160.29299	93.57205	-2.44101	-128.55986	-138.3239	0
379	-14.64606	-262.00174	-247.35568	137.51023	116.35481	-254.67871	56.14323	160.29299	91.13104	-2.44101	-123.67784	-138.3239	0
380	-9.76404	-264.44275	-254.67871	135.06922	121.23683	-259.56073	58.58424	162.734	88.69003	-2.44101	-123.67784	-138.3239	0
381	-7.32303	-271.76578	-264.44275	137.51023	128.55986	-269.32477	63.46626	170.05703	91.13104	2.44101	-118.79582	-135.88289	0
382	-7.32303	-274.20679	-266.88376	139.95124	128.55986	-271.76578	68.34828	174.93905	91.13104	2.44101	-116.35481	-135.88289	0
383	-7.32303	-274.20679	-266.88376	139.95124	128.55986	-271.76578	68.34828	179.82107	96.01306	2.44101	-113.9138	-135.88289	0
384	-7.32303	-276.6478	-269.32477	139.95124	131.00087	-274.20679	73.2303	182.26208	103.33609	4.88202	-109.03178	-131.00087	0
385	-12.20505	-271.76578	-259.56073	139.95124	123.67784	-266.88376	73.2303	182.26208	108.21811	0	-111.47279	-131.00087	0
386	-12.20505	-271.76578	-259.56073	139.95124	123.67784	-266.88376	75.67131	182.26208	110.65912	2.44101	-109.03178	-128.55986	0
387	-14.64606	-274.20679	-259.56073	142.39225	121.23683	-266.88376	78.11232	179.82107	110.65912	4.88202	-109.03178	-126.11885	0
388	-14.64606	-269.32477	-254.67871	139.95124	118.79582	-262.00174	78.11232	177.38006	108.21811	4.88202	-109.03178	-126.11885	0
389	-9.76404	-269.32477	-259.56073	137.51023	123.67784	-264.44275	80.55333	179.82107	108.21811	9.76404	-106.59077	-126.11885	0
390	-7.32303	-271.76578	-264.44275	137.51023	128.55986	-269.32477	82.99434	182.26208	105.7771	9.76404	-106.59077	-126.11885	0
391	-4.88202	-269.32477	-264.44275	135.06922	128.55986	-266.88376	85.43535	187.1441	105.7771	12.20505	-106.59077	-128.55986	0
392	-4.88202	-264.44275	-259.56073	132.62821	126.11885	-262.00174	85.43535	192.02612	110.65912	14.64606	-104.14976	-131.00087	0
393	-4.88202	-257.11972	-252.2377	130.1872	123.67784	-254.67871	85.43535	192.02612	117.98215	12.20505	-104.14976	-133.44188	0
394	-1.62734	-252.2377	-249.79669	125.30518	123.67784	-249.79669	85.43535	192.02612	122.86417	14.64606	-99.26774	-133.44188	0
395	-1.62734	-252.2377	-249.79669	125.30518	123.67784	-249.79669	85.43535	194.46713	130.1872	14.64606	-99.26774	-131.00087	0
396	0.81367	-252.2377	-252.2377	125.30518	126.11885	-252.2377	85.43535	194.46713	130.1872	17.08707	-96.82673	-131.00087	0
397	0.81367	-247.35568	-247.35568	122.86417	123.67784	-247.35568	85.43535	189.58511	127.74619	19.52808	-94.38572	-131.00087	0
398	8.1367	-257.11972	-264.44275	122.86417	135.88289	-259.56073	90.31737	189.58511	127.74619	21.96909	-89.5037	-126.11885	0
399	15.45973	-274.20679	-288.85285	127.74619	150.52895	-281.52982	100.08141	196.90814	130.1872	29.29212	-82.18067	-118.79582	0
400	22.78276	-274.20679	-296.17588	125.30518	157.85198	-283.97083	102.52242	199.34915	127.74619	29.29212	-82.18067	-118.79582	0
401	22.78276	-271.76578	-293.73487	122.86417	157.85198	-281.52982	104.96343	204.23117	127.74619	29.29212	-84.62168	-118.79582	0
402	17.90074	-274.20679	-291.29386	127.74619	152.96996	-281.52982	109.84545	209.11319	135.06922	31.73313	-82.18067	-116.35481	0
403	13.01872	-274.20679	-286.41184	130.1872	148.08794	-279.08881	112.28646	211.5542	142.39225	31.73313	-82.18067	-116.35481	0
404	8.1367	-271.76578	-279.08881	130.1872	143.20592	-274.20679	112.28646	213.99521	147.27427	31.73313	-84.62168	-118.79582	0
405	3.25468	-254.67871	-257.11972	125.30518	128.55986	-254.67871	107.40444	209.11319	147.27427	26.85111	-91.94471	-126.11885	0
406	-1.62734	-252.2377	-249.79669	125.30518	123.67784	-249.79669	107.40444	206.67218	147.27427	29.29212	-91.94471	-126.11885	0
407	-4.88202	-262.00174	-257.11972	132.62821	126.11885	-259.56073	109.84545	211.5542	152.15629	36.61515	-84.62168	-123.67784	0
408	-4.88202	-266.88376	-262.00174	135.06922	128.55986	-264.44275	109.84545	211.5542	154.5973	39.05616	-79.73966	-121.23683	0
409	0.81367	-269.32477	-269.32477	132.62821	133.44188	-269.32477	109.84545	213.99521	152.15629	39.05616	-77.29865	-121.23683	0
410	5.69569	-281.52982	-286.41184	137.51023	145.64693	-283.97083	109.84545	218.87723	149.71528	39.05616	-74.85764	-118.79582	0
411	8.1367	-291.29386	-298.61689	139.95124	152.96996	-293.73487	112.28646	226.20026	152.15629	41.49717	-72.41663	-116.35481	0
412	13.01872	-296.17588	-308.38093	139.95124	160.29299	-301.0579	114.72747	228.64127	157.03831	43.93818	-69.97562	-113.9138	0
413	17.90074	-296.17588	-313.26295	137.51023	165.17501	-303.49891	114.72747	228.64127	161.92033	41.49717	-72.41663	-116.35481	0
414	17.90074	-298.61689	-315.70396	139.95124	165.17501	-305.93992	114.72747	228.64127	166.80235	41.49717	-72.41663	-118.79582	0
415	20.34175	-296.17588	-315.70396	137.51023	167.61602	-305.93992	114.72747	226.20026	169.24336	41.49717	-74.85764	-118.79582	0
416	22.78276	-291.29386	-313.26295	132.62821	167.61602	-301.0579	112.28646	223.75925	169.24336	46.37919	-74.85764	-118.79582	0
417	22.78276	-291.29386	-313.26295	132.62821	167.61602	-301.0579	112.28646	221.31824	169.24336	51.26121	-72.41663	-118.79582	0
418	22.78276	-296.17588	-318.14497	135.06922	170.05703	-305.93992	109.84545	218.87723	166.80235	51.26121	-72.41663	-118.79582	0
419	22.78276	-305.93992	-327.90901	139.95124	174.93905	-315.70396	109.84545	221.31824	161.92033	51.26121	-67.53461	-118.79582	0
420	20.34175	-305.93992	-325.468	142.39225	172.49804	-315.70396	107.40444	221.31824	157.03831	48.8202	-72.41663	-123.67784	0
421	17.90074	-315.70396	-332.79103	147.27427	174.93905	-323.02699	109.84545	223.75925	154.5973	51.26121	-72.41663	-123.67784	0
422	15.45973	-325.468	-340.11406	154.5973	177.38006	-332.79103	112.28646	226.20026	159.47932	51.26121	-72.41663	-123.67784	0
423	17.90074	-325.468	-342.55507	152.15629	179.82107	-332.79103	112.28646	226.20026	161.92033	48.8202	-74.85764	-128.55986	0
424	20.34175	-327.90901	-347.43709	152.15629	182.26208	-337.67305	114.72747	226.20026	166.80235	48.8202	-74.85764	-128.55986	0
425	17.90074	-325.468	-342.55507	152.15629	179.82107	-332.79103	114.72747	226.20026	171.68437	48.8202	-74.85764	-126.11885	0
426	17.90074	-327.90901	-344.99608	154.5973	179.82107	-335.23204	114.72747	226.20026	174.12538	56.14323	-69.97562	-126.11885	0
427	22.78276	-320.58598	-342.55507	147.27427	182.26208	-330.35002	112.28646	221.31824	171.68437	58.58424	-69.97562	-128.55986	0
428	27.66478	-308.38093	-335.23204	139.95124	179.82107	-320.58598	107.40444	213.99521	164.36134	53.70222	-72.41663	-131.00087	0
429	27.66478	-315.70396	-342.55507	142.39225	184.70309	-327.90901	107.40444	218.87723	161.92033	56.14323	-69.97562	-128.55986	0
430	27.66478	-327.90901	-354.76012	149.71528	189.58511	-340.11406	112.28646	226.20026	164.36134	58.58424	-67.53461	-126.11885	0
431	27.66478	-325.468	-352.31911	147.27427	189.58511	-337.67305	112.28646	228.64127	161.92033	58.58424	-67.53461	-126.11885	0
432	27.66478	-323.02699	-349.8781	147.27427	187.1441	-335.23204	112.28646	231.08228	161.92033	56.14323	-67.53461	-128.55986	0
433	27.66478	-320.58598	-347.43709	144.83326	187.1441	-332.79103	112.28646	231.08228	166.80235	56.14323	-67.53461	-131.00087	0
434	25.22377	-327.90901	-352.31911	149.71528	187.1441	-340.11406	114.72747	233.52329	176.56639	58.58424	-62.65259	-128.55986	0
435	20.34175	-335.23204	-354.76012	157.03831	187.1441	-344.99608	117.16848	235.9643	181.44841	63.46626	-60.21158	-126.11885	0
436	20.34175	-327.90901	-347.43709	152.15629	182.26208	-337.67305	112.28646	228.64127	179.0074	63.46626	-62.65259	-131.00087	0
437	22.78276	-325.468	-347.43709	149.71528	184.70309	-335.23204	112.28646	228.64127	176.56639	68.34828	-60.21158	-131.00087	0
438	25.22377	-337.67305	-362.08315	154.5973	192.02612	-349.8781	112.28646	226.20026	174.12538	68.34828	-57.77057	-131.00087	0
439	27.66478	-342.55507	-369.40618	157.03831	196.90814	-354.76012	112.28646	228.64127	169.24336	68.34828	-57.77057	-133.44188	0
440	32.5468	-347.43709	-379.17022	157.03831	204.23117	-362.08315	112.28646	231.08228	166.80235	65.90727	-57.77057	-133.44188	0
441	37.42882	-342.55507	-379.17022	152.15629	206.67218	-359.64214	107.40444	231.08228	161.92033	63.46626	-60.21158	-138.3239	0
442	37.42882	-344.99608	-381.61123	152.15629	209.11319	-362.08315	107.40444	233.52329	164.36134	63.46626	-62.65259	-138.3239	0
443	37.42882	-342.55507	-379.17022	152.15629	206.67218	-359.64214	107.40444	235.9643	169.24336	61.02525	-62.65259	-140.76491	0
444	37.42882	-335.23204	-371.84719	147.27427	204.23117	-352.31911	107.40444	233.52329	171.68437	58.58424	-62.65259	-145.64693	0
445	39.86983	-330.35002	-369.40618	144.83326	204.23117	-349.8781	104.96343	231.08228	174.12538	58.58424	-65.0936	-145.64693	0
446	39.86983	-330.35002	-369.40618	144.83326	204.23117	-349.8781	104.96343	231.08228	174.12538	65.90727	-62.65259	-143.20592	0
447	37.42882	-330.35002	-366.96517	144.83326	201.79016	-347.43709	107.40444	228.64127	174.12538	68.34828	-60.21158	-140.76491	0
448	39.86983	-330.35002	-369.40618	144.83326	204.23117	-349.8781	107.40444	223.75925	174.12538	70.78929	-57.77057	-138.3239	0
449	47.19286	-337.67305	-384.05224	144.83326	213.99521	-359.64214	109.84545	228.64127	174.12538	73.2303	-55.32956	-135.88289	0
450	49.63387	-349.8781	-398.6983	149.71528	223.75925	-374.2882	112.28646	233.52329	174.12538	73.2303	-52.88855	-131.00087	0
451	47.19286	-347.43709	-393.81628	149.71528	218.87723	-369.40618	112.28646	233.52329	174.12538	73.2303	-52.88855	-131.00087	0
452	44.75185	-337.67305	-381.61123	144.83326	211.5542	-359.64214	109.84545	233.52329	174.12538	70.78929	-57.77057	-133.44188	0
453	42.31084	-332.79103	-374.2882	144.83326	206.67218	-352.31911	109.84545	233.52329	179.0074	68.34828	-60.21158	-133.44188	0
454	37.42882	-325.468	-362.08315	142.39225	199.34915	-342.55507	107.40444	233.52329	181.44841	63.46626	-62.65259	-138.3239	0
455	34.98781	-318.14497	-352.31911	139.95124	192.02612	-335.23204	104.96343	231.08228	183.88942	63.46626	-67.53461	-140.76491	0
456	32.5468	-305.93992	-337.67305	135.06922	184.70309	-320.58598	100.08141	223.75925	181.44841	63.46626	-69.97562	-145.64693	0
457	32.5468	-293.73487	-325.468	130.1872	177.38006	-308.38093	97.6404	221.31824	179.0074	63.46626	-72.41663	-148.08794	0
458	37.42882	-298.61689	-335.23204	130.1872	184.70309	-315.70396	100.08141	221.31824	181.44841	68.34828	-65.0936	-145.64693	0
459	42.31084	-301.0579	-342.55507	127.74619	192.02612	-320.58598	102.52242	223.75925	179.0074	68.34828	-62.65259	-143.20592	0
460	44.75185	-310.82194	-354.76012	132.62821	199.34915	-332.79103	104.96343	228.64127	179.0074	68.34828	-57.77057	-140.76491	0
461	44.75185	-320.58598	-364.52416	137.51023	204.23117	-342.55507	109.84545	233.52329	181.44841	73.2303	-52.88855	-138.3239	0
462	44.75185	-330.35002	-374.2882	142.39225	209.11319	-352.31911	114.72747	240.84632	186.33043	75.67131	-48.00653	-133.44188	0
463	42.31084	-332.79103	-374.2882	144.83326	206.67218	-352.31911	117.16848	240.84632	193.65346	75.67131	-48.00653	-133.44188	0
464	42.31084	-335.23204	-376.72921	144.83326	209.11319	-354.76012	117.16848	243.28733	200.97649	75.67131	-45.56552	-131.00087	0
465	39.86983	-337.67305	-376.72921	147.27427	206.67218	-357.20113	117.16848	243.28733	203.4175	78.11232	-45.56552	-131.00087	0
466	39.86983	-335.23204	-374.2882	147.27427	206.67218	-354.76012	114.72747	240.84632	200.97649	82.99434	-45.56552	-133.44188	0
467	37.42882	-327.90901	-364.52416	144.83326	199.34915	-344.99608	109.84545	235.9643	198.53548	82.99434	-45.56552	-138.3239	0
468	37.42882	-313.26295	-349.8781	137.51023	192.02612	-330.35002	104.96343	231.08228	191.21245	78.11232	-50.44754	-140.76491	0
469	39.86983	-305.93992	-344.99608	132.62821	192.02612	-325.468	102.52242	231.08228	183.88942	73.2303	-50.44754	-145.64693	0
470	42.31084	-305.93992	-347.43709	130.1872	194.46713	-325.468	102.52242	233.52329	181.44841	70.78929	-52.88855	-148.08794	0
471	44.75185	-301.0579	-344.99608	127.74619	194.46713	-323.02699	102.52242	233.52329	179.0074	70.78929	-55.32956	-150.52895	0
472	44.75185	-298.61689	-342.55507	125.30518	192.02612	-320.58598	102.52242	233.52329	179.0074	65.90727	-57.77057	-150.52895	0
473	44.75185	-296.17588	-340.11406	125.30518	192.02612	-318.14497	102.52242	235.9643	186.33043	65.90727	-57.77057	-150.52895	0
474	44.75185	-298.61689	-342.55507	125.30518	192.02612	-320.58598	104.96343	238.40531	193.65346	65.90727	-55.32956	-148.08794	0
475	42.31084	-303.49891	-344.99608	130.1872	192.02612	-323.02699	107.40444	238.40531	200.97649	70.78929	-55.32956	-143.20592	0
476	39.86983	-308.38093	-347.43709	132.62821	192.02612	-327.90901	109.84545	238.40531	200.97649	78.11232	-52.88855	-140.76491	0
477	37.42882	-301.0579	-337.67305	130.1872	187.1441	-318.14497	107.40444	233.52329	198.53548	78.11232	-52.88855	-140.76491	0
478	39.86983	-303.49891	-342.55507	130.1872	189.58511	-323.02699	107.40444	233.52329	198.53548	78.11232	-50.44754	-138.3239	0
479	42.31084	-310.82194	-352.31911	132.62821	196.90814	-330.35002	109.84545	233.52329	196.09447	78.11232	-45.56552	-138.3239	0
480	44.75185	-310.82194	-354.76012	132.62821	199.34915	-332.79103	109.84545	233.52329	191.21245	75.67131	-45.56552	-140.76491	0
481	47.19286	-308.38093	-354.76012	130.1872	199.34915	-330.35002	109.84545	233.52329	191.21245	75.67131	-48.00653	-143.20592	0
482	52.07488	-305.93992	-357.20113	125.30518	204.23117	-330.35002	109.84545	233.52329	191.21245	73.2303	-48.00653	-143.20592	0
483	52.07488	-308.38093	-359.64214	127.74619	204.23117	-332.79103	112.28646	231.08228	198.53548	70.78929	-48.00653	-145.64693	0
484	49.63387	-313.26295	-362.08315	130.1872	204.23117	-337.67305	114.72747	231.08228	203.4175	73.2303	-45.56552	-148.08794	0
485	42.31084	-313.26295	-354.76012	135.06922	196.90814	-332.79103	112.28646	226.20026	205.85851	70.78929	-48.00653	-150.52895	0
486	37.42882	-313.26295	-349.8781	137.51023	192.02612	-330.35002	112.28646	223.75925	203.4175	75.67131	-48.00653	-150.52895	0
487	32.5468	-315.70396	-347.43709	139.95124	189.58511	-330.35002	112.28646	223.75925	203.4175	78.11232	-48.00653	-152.96996	0
488	32.5468	-313.26295	-344.99608	139.95124	187.1441	-327.90901	109.84545	218.87723	198.53548	75.67131	-48.00653	-155.41097	0
489	27.66478	-315.70396	-342.55507	142.39225	184.70309	-327.90901	109.84545	221.31824	193.65346	75.67131	-48.00653	-157.85198	0
490	27.66478	-318.14497	-344.99608	144.83326	184.70309	-330.35002	109.84545	223.75925	191.21245	73.2303	-50.44754	-157.85198	0
491	27.66478	-313.26295	-340.11406	142.39225	182.26208	-325.468	109.84545	226.20026	186.33043	73.2303	-52.88855	-160.29299	0
492	27.66478	-313.26295	-340.11406	142.39225	182.26208	-325.468	109.84545	231.08228	188.77144	70.78929	-52.88855	-157.85198	0
493	27.66478	-313.26295	-340.11406	142.39225	182.26208	-325.468	112.28646	231.08228	196.09447	70.78929	-52.88855	-155.41097	0
494	30.10579	-308.38093	-337.67305	137.51023	182.26208	-323.02699	112.28646	231.08228	198.53548	68.34828	-50.44754	-155.41097	0
495	30.10579	-313.26295	-342.55507	139.95124	184.70309	-327.90901	114.72747	231.08228	203.4175	70.78929	-48.00653	-152.96996	0
496	30.10579	-315.70396	-344.99608	142.39225	187.1441	-330.35002	117.16848	228.64127	203.4175	75.67131	-43.12451	-150.52895	0
497	30.10579	-313.26295	-342.55507	139.95124	184.70309	-327.90901	117.16848	223.75925	203.4175	78.11232	-40.6835	-150.52895	0
498	34.98781	-313.26295	-347.43709	137.51023	189.58511	-330.35002	117.16848	223.75925	203.4175	80.55333	-35.80148	-148.08794	0
499	37.42882	-313.26295	-349.8781	137.51023	192.02612	-330.35002	117.16848	223.75925	198.53548	78.11232	-35.80148	-148.08794	0
500	37.42882	-313.26295	-349.8781	137.51023	192.02612	-330.35002	117.16848	223.75925	193.65346	75.67131	-38.24249	-148.08794	0
501	32.5468	-313.26295	-344.99608	139.95124	187.1441	-327.90901	114.72747	223.75925	188.77144	70.78929	-40.6835	-150.52895	0
502	30.10579	-313.26295	-342.55507	139.95124	184.70309	-327.90901	114.72747	223.75925	186.33043	65.90727	-43.12451	-152.96996	0
503	27.66478	-318.14497	-344.99608	144.83326	184.70309	-330.35002	114.72747	223.75925	191.21245	63.46626	-45.56552	-152.96996	0
504	25.22377	-325.468	-349.8781	149.71528	187.1441	-337.67305	114.72747	223.75925	193.65346	63.46626	-43.12451	-150.52895	0
505	22.78276	-320.58598	-342.55507	147.27427	182.26208	-330.35002	114.72747	218.87723	193.65346	61.02525	-48.00653	-155.41097	0
506	22.78276	-323.02699	-344.99608	149.71528	182.26208	-332.79103	112.28646	216.43622	193.65346	63.46626	-48.00653	-155.41097	0
507	22.78276	-325.468	-347.43709	149.71528	184.70309	-335.23204	112.28646	213.99521	193.65346	68.34828	-48.00653	-155.41097	0
508	30.10579	-323.02699	-352.31911	144.83326	189.58511	-337.67305	112.28646	209.11319	188.77144	68.34828	-48.00653	-155.41097	0
509	32.5468	-320.58598	-352.31911	142.39225	192.02612	-335.23204	109.84545	209.11319	183.88942	63.46626	-50.44754	-157.85198	0
510	37.42882	-313.26295	-349.8781	137.51023	192.02612	-330.35002	109.84545	206.67218	179.0074	61.02525	-52.88855	-157.85198	0
511	39.86983	-315.70396	-354.76012	137.51023	196.90814	-335.23204	112.28646	209.11319	176.56639	61.02525	-50.44754	-155.41097	0
512	39.86983	-318.14497	-357.20113	137.51023	196.90814	-337.67305	112.28646	211.5542	179.0074	61.02525	-50.44754	-150.52895	0
513	39.86983	-308.38093	-347.43709	132.62821	192.02612	-327.90901	109.84545	206.67218	181.44841	56.14323	-50.44754	-150.52895	0
514	34.98781	-308.38093	-342.55507	135.06922	187.1441	-325.468	109.84545	204.23117	183.88942	56.14323	-48.00653	-150.52895	0
515	27.66478	-303.49891	-330.35002	137.51023	177.38006	-315.70396	109.84545	201.79016	186.33043	56.14323	-48.00653	-150.52895	0
516	25.22377	-293.73487	-318.14497	132.62821	170.05703	-305.93992	107.40444	194.46713	183.88942	58.58424	-48.00653	-150.52895	0
517	20.34175	-286.41184	-305.93992	132.62821	162.734	-296.17588	107.40444	189.58511	181.44841	63.46626	-48.00653	-150.52895	0
518	20.34175	-279.08881	-298.61689	127.74619	157.85198	-288.85285	102.52242	184.70309	174.12538	61.02525	-48.00653	-150.52895	0
519	20.34175	-283.97083	-303.49891	130.1872	160.29299	-293.73487	104.96343	187.1441	171.68437	61.02525	-43.12451	-145.64693	0
520	22.78276	-296.17588	-318.14497	135.06922	170.05703	-305.93992	112.28646	194.46713	171.68437	65.90727	-40.6835	-135.88289	0
521	27.66478	-298.61689	-325.468	135.06922	174.93905	-310.82194	117.16848	199.34915	171.68437	68.34828	-35.80148	-131.00087	0
522	30.10579	-298.61689	-327.90901	132.62821	177.38006	-313.26295	119.60949	204.23117	176.56639	70.78929	-33.36047	-123.67784	0
523	34.98781	-298.61689	-332.79103	130.1872	182.26208	-315.70396	124.49151	206.67218	181.44841	70.78929	-33.36047	-118.79582	0
524	34.98781	-291.29386	-325.468	127.74619	179.82107	-308.38093	126.93252	209.11319	186.33043	70.78929	-33.36047	-118.79582	0
525	34.98781	-286.41184	-320.58598	125.30518	177.38006	-303.49891	131.81454	209.11319	193.65346	75.67131	-30.10579	-116.35481	0
526	34.98781	-271.76578	-305.93992	117.98215	170.05703	-288.85285	134.25555	206.67218	193.65346	80.55333	-27.66478	-116.35481	0
527	34.98781	-259.56073	-293.73487	110.65912	162.734	-276.6478	136.69656	206.67218	193.65346	87.87636	-22.78276	-113.9138	0
528	34.98781	-254.67871	-288.85285	108.21811	160.29299	-271.76578	141.57858	206.67218	193.65346	90.31737	-20.34175	-111.47279	0
529	34.98781	-254.67871	-288.85285	108.21811	160.29299	-271.76578	146.4606	209.11319	193.65346	92.75838	-15.45973	-109.03178	0
530	34.98781	-249.79669	-283.97083	105.7771	157.85198	-266.88376	151.34262	211.5542	191.21245	95.19939	-13.01872	-104.14976	0
531	37.42882	-244.91467	-281.52982	103.33609	157.85198	-262.00174	153.78363	216.43622	191.21245	100.08141	-10.57771	-99.26774	0
532	37.42882	-244.91467	-281.52982	103.33609	157.85198	-262.00174	158.66565	218.87723	196.09447	102.52242	-5.69569	-94.38572	0
533	37.42882	-237.59164	-274.20679	98.45407	155.41097	-254.67871	158.66565	218.87723	200.97649	102.52242	-3.25468	-89.5037	0
534	39.86983	-232.70962	-271.76578	96.01306	155.41097	-252.2377	156.22464	216.43622	203.4175	102.52242	-0.81367	-84.62168	0
535	37.42882	-225.38659	-262.00174	93.57205	148.08794	-242.47366	148.90161	209.11319	203.4175	102.52242	-0.81367	-82.18067	0
536	37.42882	-213.18154	-249.79669	86.24902	143.20592	-230.26861	139.13757	199.34915	198.53548	104.96343	-0.81367	-82.18067	0
537	37.42882	-208.29952	-244.91467	83.80801	140.76491	-225.38659	129.37353	192.02612	191.21245	107.40444	1.62734	-79.73966	0
538	44.75185	-205.85851	-249.79669	78.92599	145.64693	-227.8276	119.60949	182.26208	186.33043	104.96343	4.06835	-79.73966	0
539	52.07488	-200.97649	-252.2377	74.04397	150.52895	-225.38659	109.84545	174.93905	176.56639	102.52242	4.06835	-79.73966	0
540	54.51589	-193.65346	-247.35568	69.16195	150.52895	-220.50457	95.19939	167.61602	166.80235	95.19939	1.62734	-82.18067	0
541	54.51589	-191.21245	-244.91467	66.72094	148.08794	-218.06356	85.43535	160.29299	159.47932	92.75838	-0.81367	-84.62168	0
542	52.07488	-191.21245	-242.47366	69.16195	145.64693	-215.62255	75.67131	155.41097	154.5973	87.87636	-0.81367	-84.62168	0
543	49.63387	-198.53548	-247.35568	74.04397	148.08794	-222.94558	65.90727	148.08794	154.5973	85.43535	-3.25468	-84.62168	0
544	47.19286	-200.97649	-247.35568	76.48498	145.64693	-222.94558	56.14323	143.20592	154.5973	80.55333	-5.69569	-87.06269	0
545	42.31084	-198.53548	-240.03265	76.48498	140.76491	-218.06356	46.37919	135.88289	154.5973	78.11232	-5.69569	-87.06269	0
546	37.42882	-198.53548	-235.15063	78.92599	135.88289	-215.62255	39.05616	128.55986	149.71528	80.55333	-8.1367	-87.06269	0
547	37.42882	-205.85851	-242.47366	83.80801	138.3239	-222.94558	34.17414	128.55986	149.71528	85.43535	-3.25468	-84.62168	0
548	49.63387	-215.62255	-264.44275	81.367	155.41097	-240.03265	34.17414	126.11885	149.71528	90.31737	-0.81367	-79.73966	0
549	59.39791	-232.70962	-291.29386	86.24902	174.93905	-262.00174	34.17414	133.44188	152.15629	92.75838	6.50936	-72.41663	0
550	69.16195	-235.15063	-303.49891	81.367	184.70309	-269.32477	31.73313	133.44188	149.71528	92.75838	4.06835	-72.41663	0
551	74.04397	-242.47366	-315.70396	83.80801	194.46713	-279.08881	29.29212	135.88289	147.27427	90.31737	-0.81367	-74.85764	0
552	76.48498	-247.35568	-323.02699	83.80801	199.34915	-283.97083	26.85111	138.3239	147.27427	87.87636	-3.25468	-79.73966	0
553	76.48498	-252.2377	-327.90901	86.24902	201.79016	-288.85285	24.4101	138.3239	149.71528	82.99434	-8.1367	-84.62168	0
554	76.48498	-259.56073	-335.23204	91.13104	204.23117	-296.17588	24.4101	140.76491	154.5973	80.55333	-13.01872	-89.5037	0
555	69.16195	-254.67871	-323.02699	91.13104	194.46713	-288.85285	21.96909	138.3239	154.5973	75.67131	-20.34175	-94.38572	0
556	66.72094	-242.47366	-308.38093	86.24902	187.1441	-274.20679	21.96909	135.88289	152.15629	75.67131	-25.22377	-99.26774	0
557	64.27993	-247.35568	-310.82194	91.13104	187.1441	-279.08881	29.29212	138.3239	152.15629	80.55333	-25.22377	-99.26774	0
558	66.72094	-249.79669	-315.70396	91.13104	189.58511	-281.52982	36.61515	140.76491	154.5973	82.99434	-20.34175	-96.82673	0
559	69.16195	-259.56073	-327.90901	93.57205	196.90814	-293.73487	43.93818	148.08794	154.5973	85.43535	-15.45973	-91.94471	0
560	71.60296	-271.76578	-342.55507	98.45407	206.67218	-305.93992	56.14323	157.85198	159.47932	90.31737	-10.57771	-84.62168	0
561	71.60296	-262.00174	-332.79103	93.57205	201.79016	-296.17588	61.02525	160.29299	157.03831	92.75838	-10.57771	-84.62168	0
562	69.16195	-262.00174	-330.35002	96.01306	199.34915	-296.17588	65.90727	165.17501	159.47932	92.75838	-5.69569	-82.18067	0
563	66.72094	-262.00174	-327.90901	96.01306	196.90814	-293.73487	73.2303	165.17501	166.80235	92.75838	-3.25468	-82.18067	0
564	59.39791	-262.00174	-320.58598	100.89508	189.58511	-291.29386	75.67131	165.17501	169.24336	90.31737	-0.81367	-82.18067	0
565	52.07488	-259.56073	-310.82194	103.33609	179.82107	-283.97083	75.67131	160.29299	166.80235	85.43535	-5.69569	-87.06269	0
566	47.19286	-244.91467	-291.29386	98.45407	167.61602	-266.88376	70.78929	150.52895	157.03831	80.55333	-13.01872	-94.38572	0
567	42.31084	-254.67871	-296.17588	105.7771	167.61602	-274.20679	70.78929	148.08794	152.15629	80.55333	-13.01872	-96.82673	0
568	39.86983	-266.88376	-305.93992	113.10013	172.49804	-286.41184	70.78929	143.20592	147.27427	75.67131	-15.45973	-99.26774	0
569	37.42882	-269.32477	-305.93992	115.54114	170.05703	-286.41184	65.90727	138.3239	137.51023	68.34828	-20.34175	-104.14976	0
570	34.98781	-266.88376	-301.0579	115.54114	167.61602	-283.97083	61.02525	135.88289	127.74619	61.02525	-27.66478	-109.03178	0
571	32.5468	-271.76578	-303.49891	117.98215	167.61602	-286.41184	61.02525	135.88289	125.30518	58.58424	-30.10579	-109.03178	0
572	25.22377	-271.76578	-296.17588	122.86417	160.29299	-283.97083	61.02525	138.3239	125.30518	53.70222	-33.36047	-109.03178	0
573	20.34175	-271.76578	-291.29386	125.30518	155.41097	-281.52982	61.02525	138.3239	130.1872	51.26121	-33.36047	-109.03178	0
574	20.34175	-269.32477	-288.85285	122.86417	152.96996	-279.08881	58.58424	138.3239	132.62821	46.37919	-35.80148	-106.59077	0
575	15.45973	-276.6478	-291.29386	130.1872	152.96996	-283.97083	63.46626	143.20592	139.95124	48.8202	-33.36047	-99.26774	0
576	15.45973	-281.52982	-296.17588	132.62821	155.41097	-288.85285	65.90727	143.20592	139.95124	56.14323	-33.36047	-94.38572	0
577	15.45973	-286.41184	-301.0579	135.06922	157.85198	-293.73487	68.34828	143.20592	142.39225	61.02525	-33.36047	-91.94471	0
578	22.78276	-293.73487	-315.70396	135.06922	167.61602	-303.49891	70.78929	143.20592	139.95124	61.02525	-30.10579	-89.5037	0
579	27.66478	-296.17588	-323.02699	132.62821	174.93905	-308.38093	70.78929	145.64693	135.06922	61.02525	-30.10579	-89.5037	0
580	32.5468	-296.17588	-327.90901	130.1872	179.82107	-310.82194	68.34828	145.64693	130.1872	56.14323	-30.10579	-89.5037	0
581	32.5468	-293.73487	-325.468	130.1872	177.38006	-308.38093	65.90727	143.20592	125.30518	56.14323	-33.36047	-91.94471	0
582	27.66478	-291.29386	-318.14497	130.1872	172.49804	-303.49891	63.46626	143.20592	122.86417	51.26121	-33.36047	-94.38572	0
583	25.22377	-283.97083	-308.38093	127.74619	165.17501	-296.17588	61.02525	138.3239	125.30518	46.37919	-33.36047	-96.82673	0
584	22.78276	-271.76578	-293.73487	122.86417	157.85198	-281.52982	56.14323	138.3239	127.74619	43.93818	-33.36047	-99.26774	0
585	17.90074	-271.76578	-288.85285	125.30518	152.96996	-279.08881	56.14323	135.88289	130.1872	43.93818	-35.80148	-96.82673	0
586	15.45973	-269.32477	-283.97083	125.30518	148.08794	-276.6478	53.70222	133.44188	130.1872	46.37919	-35.80148	-96.82673	0
587	10.57771	-271.76578	-281.52982	130.1872	145.64693	-276.6478	51.26121	133.44188	130.1872	48.8202	-35.80148	-94.38572	0
588	13.01872	-269.32477	-281.52982	127.74619	145.64693	-274.20679	48.8202	128.55986	127.74619	48.8202	-35.80148	-94.38572	0
589	20.34175	-262.00174	-281.52982	120.42316	150.52895	-271.76578	43.93818	128.55986	120.42316	46.37919	-38.24249	-94.38572	0
590	22.78276	-269.32477	-291.29386	122.86417	155.41097	-279.08881	43.93818	131.00087	120.42316	46.37919	-38.24249	-89.5037	0
591	22.78276	-281.52982	-303.49891	127.74619	162.734	-291.29386	48.8202	135.88289	120.42316	48.8202	-35.80148	-84.62168	0
592	20.34175	-286.41184	-305.93992	132.62821	162.734	-296.17588	51.26121	140.76491	125.30518	48.8202	-33.36047	-79.73966	0
593	17.90074	-281.52982	-298.61689	130.1872	157.85198	-288.85285	51.26121	140.76491	127.74619	48.8202	-33.36047	-77.29865	0
594	15.45973	-279.08881	-293.73487	130.1872	152.96996	-286.41184	48.8202	140.76491	132.62821	48.8202	-33.36047	-77.29865	0
595	13.01872	-283.97083	-296.17588	135.06922	152.96996	-288.85285	48.8202	140.76491	135.06922	48.8202	-33.36047	-74.85764	0
596	5.69569	-288.85285	-293.73487	139.95124	148.08794	-291.29386	48.8202	138.3239	135.06922	53.70222	-33.36047	-74.85764	0
597	3.25468	-291.29386	-293.73487	142.39225	148.08794	-291.29386	46.37919	135.88289	135.06922	56.14323	-33.36047	-74.85764	0
598	5.69569	-291.29386	-296.17588	142.39225	150.52895	-293.73487	46.37919	133.44188	132.62821	56.14323	-33.36047	-77.29865	0
599	8.1367	-291.29386	-298.61689	139.95124	152.96996	-293.73487	41.49717	133.44188	125.30518	51.26121	-35.80148	-79.73966	0
600	10.57771	-293.73487	-303.49891	139.95124	155.41097	-298.61689	41.49717	135.88289	122.86417	51.26121	-38.24249	-79.73966	0
601	13.01872	-293.73487	-305.93992	139.95124	157.85198	-298.61689	41.49717	140.76491	125.30518	51.26121	-40.6835	-79.73966	0
602	13.01872	-301.0579	-313.26295	142.39225	162.734	-305.93992	46.37919	150.52895	132.62821	51.26121	-43.12451	-79.73966	0
603	15.45973	-305.93992	-320.58598	144.83326	167.61602	-313.26295	53.70222	162.734	147.27427	48.8202	-50.44754	-84.62168	0
604	17.90074	-301.0579	-318.14497	139.95124	167.61602	-308.38093	58.58424	177.38006	161.92033	43.93818	-62.65259	-96.82673	0
605	20.34175	-296.17588	-315.70396	137.51023	167.61602	-305.93992	65.90727	199.34915	186.33043	43.93818	-77.29865	-109.03178	0
606	25.22377	-301.0579	-325.468	137.51023	174.93905	-313.26295	80.55333	235.9643	225.38659	65.90727	-82.18067	-118.79582	0
607	30.10579	-301.0579	-330.35002	135.06922	179.82107	-315.70396	90.31737	272.57945	274.20679	97.6404	-79.73966	-126.11885	0
608	44.75185	-301.0579	-344.99608	127.74619	194.46713	-323.02699	97.6404	311.63561	327.90901	144.01959	-65.0936	-121.23683	0
609	61.83892	-296.17588	-357.20113	115.54114	209.11319	-325.468	95.19939	350.69177	384.05224	202.60383	-33.36047	-106.59077	0
610	88.69003	-276.6478	-364.52416	93.57205	226.20026	-320.58598	78.11232	382.4249	447.5185	280.71615	18.71441	-72.41663	0
611	122.86417	-259.56073	-381.61123	66.72094	250.61036	-320.58598	56.14323	411.71702	515.86678	388.12059	99.26774	-17.90074	0
612	164.36134	-225.38659	-388.93426	29.29212	275.02046	-305.93992	17.08707	421.48106	572.01001	505.28907	201.79016	55.32956	0
613	210.74053	-183.88942	-393.81628	-14.64606	301.87157	-288.85285	-22.78276	423.92207	628.15324	637.10361	326.28167	143.20592	0
614	262.00174	-135.06922	-396.25729	-63.46626	328.72268	-264.44275	-66.72094	419.04005	674.53243	783.56421	477.62429	253.05137	0
615	323.02699	-56.14323	-379.17022	-134.25555	350.69177	-218.06356	-122.86417	389.74793	698.94253	939.78885	646.05398	377.54288	0
616	391.37527	21.96909	-369.40618	-207.48585	379.98389	-174.12538	-181.44841	340.92773	708.70657	1110.65955	841.33478	526.44449	0
617	459.72355	102.52242	-357.20113	-280.71615	409.27601	-127.74619	-244.91467	270.13844	696.50152	1281.53025	1053.70265	689.99216	0
618	528.07183	200.16282	-327.90901	-363.71049	428.80409	-63.46626	-315.70396	172.49804	655.00435	1440.1959	1275.83456	865.74488	0
619	593.9791	305.12625	-288.85285	-449.14584	441.00914	9.76404	-388.93426	50.44754	581.77405	1584.21549	1490.64344	1041.4976	0
620	657.44536	405.20766	-252.2377	-532.14018	455.6552	78.11232	-462.16456	-89.5037	484.13365	1698.12929	1665.58249	1197.72224	0
621	698.94253	471.11493	-227.8276	-585.8424	462.97823	122.0505	-518.30779	-231.08228	374.2882	1781.12363	1787.63299	1314.89072	0
622	706.26556	507.73008	-198.53548	-607.81149	453.21419	156.22464	-550.04092	-372.66086	240.03265	1807.97474	1834.01218	1373.47496	0
623	686.73748	529.69917	-157.03831	-607.81149	421.48106	187.95777	-572.01001	-526.44449	69.16195	1749.3905	1792.51501	1371.03395	0
624	628.15324	534.58119	-93.57205	-580.96038	360.45581	222.13191	-574.45102	-685.11014	-141.57858	1581.77448	1653.37744	1305.12668	-1250	T-0
625	535.39486	512.6121	-21.96909	-524.81715	279.90248	246.54201	-552.48193	-829.12973	-378.35655	1301.05833	1422.29516	1175.75315	0
626	410.90335	483.31998	73.2303	-446.70483	170.05703	278.27514	-515.86678	-956.06225	-629.78058	930.02481	1126.93295	1000.00043	0
627	274.20679	463.7919	190.39878	-368.59251	43.12451	327.09534	-484.13365	-1078.11275	-883.64562	497.96604	809.60165	807.16064	0
628	149.71528	458.90988	310.00827	-305.12625	-79.73966	385.67958	-469.48759	-1197.72224	-1120.42359	51.26121	499.59338	616.76186	0
629	32.5468	458.90988	427.17675	-246.54201	-196.90814	444.26382	-467.04658	-1290.48062	-1313.26338	-352.31911	223.75925	443.45015	0
630	-61.02525	471.11493	532.14018	-205.04484	-296.98955	500.40705	-471.9286	-1353.94688	-1442.63691	-676.97344	-5.69569	284.7845	0
631	-134.25555	473.55594	607.81149	-170.8707	-370.21985	539.46321	-484.13365	-1385.68001	-1506.10317	-894.22333	-172.49804	155.41097	0
632	-183.07575	456.46887	639.54462	-136.69656	-411.71702	546.78624	-501.22072	-1388.12102	-1506.10317	-1006.50979	-279.90248	60.21158	0
633	-209.92686	444.26382	654.19068	-117.16848	-431.2451	549.22725	-520.7488	-1366.15193	-1459.72398	-1033.3609	-336.04571	-10.57771	0
634	-224.57292	424.73574	649.30866	-100.08141	-436.12712	537.0222	-523.18981	-1314.89072	-1381.61166	-996.74575	-355.57379	-55.32956	0
635	-231.89595	412.53069	644.42664	-90.31737	-438.56813	527.25816	-515.86678	-1244.10143	-1286.41227	-938.16151	-358.0148	-84.62168	0
636	-231.89595	397.88463	629.78058	-82.99434	-431.2451	512.6121	-496.3387	-1158.66608	-1188.77187	-869.81323	-345.80975	-99.26774	0
637	-229.45494	388.12059	617.57553	-80.55333	-423.92207	502.84806	-467.04658	-1065.9077	-1088.69046	-801.46495	-323.84066	-101.70875	0
638	-214.80888	393.00261	607.81149	-90.31737	-411.71702	500.40705	-442.63648	-978.03134	-998.37309	-742.88071	-301.87157	-94.38572	0
639	-195.2808	395.44362	590.72442	-100.08141	-392.18894	493.08402	-418.22638	-887.71397	-910.49673	-681.85546	-272.57945	-79.73966	0
640	-175.75272	388.12059	563.87331	-107.40444	-370.21985	475.99695	-393.81628	-802.27862	-829.9434	-628.15324	-248.16935	-65.0936	0
641	-161.10666	375.91554	537.0222	-107.40444	-348.25076	456.46887	-366.96517	-724.1663	-754.27209	-576.89203	-228.64127	-52.88855	0
642	-148.90161	353.94645	502.84806	-102.52242	-326.28167	427.17675	-340.11406	-653.37701	-685.92381	-535.39486	-211.5542	-45.56552	0
643	-139.13757	327.09534	466.23291	-95.19939	-301.87157	395.44362	-313.26295	-589.91075	-620.01654	-501.22072	-199.34915	-43.12451	0
644	-131.81454	302.68524	434.49978	-85.43535	-282.34349	368.59251	-286.41184	-531.32651	-561.4323	-469.48759	-189.58511	-43.12451	0
645	-131.81454	275.83413	407.64867	-73.2303	-270.13844	341.7414	-262.00174	-482.50631	-510.17109	-440.19547	-182.26208	-40.6835	0
646	-134.25555	256.30605	390.5616	-61.02525	-262.81541	322.21332	-237.59164	-443.45015	-471.11493	-410.90335	-174.93905	-40.6835	0
647	-131.81454	248.98302	380.79756	-58.58424	-255.49238	314.89029	-218.06356	-414.15803	-446.70483	-393.81628	-172.49804	-40.6835	0
648	-129.37353	244.101	373.47453	-58.58424	-250.61036	307.56726	-198.53548	-394.62995	-424.73574	-379.17022	-167.61602	-40.6835	0
649	-124.49151	246.54201	371.03352	-61.02525	-248.16935	307.56726	-183.88942	-372.66086	-412.53069	-369.40618	-165.17501	-40.6835	0
650	-119.60949	258.74706	378.35655	-70.78929	-248.16935	317.3313	-169.24336	-355.57379	-402.76665	-364.52416	-165.17501	-35.80148	0
651	-114.72747	266.07009	380.79756	-75.67131	-248.16935	322.21332	-152.15629	-340.92773	-393.00261	-354.76012	-162.734	-30.91946	0
652	-112.28646	273.39312	385.67958	-80.55333	-248.16935	329.53635	-137.51023	-326.28167	-380.79756	-347.43709	-157.85198	-23.59643	0
653	-114.72747	273.39312	388.12059	-80.55333	-250.61036	329.53635	-125.30518	-314.07662	-366.1515	-342.55507	-152.96996	-17.90074	0
654	-117.16848	280.71615	397.88463	-82.99434	-257.93339	339.30039	-115.54114	-309.1946	-356.38746	-340.11406	-148.08794	-10.57771	0
655	-117.16848	292.9212	410.08968	-87.87636	-262.81541	351.50544	-110.65912	-306.75359	-351.50544	-335.23204	-148.08794	-5.69569	0
656	-117.16848	300.24423	417.41271	-92.75838	-267.69743	358.82847	-105.7771	-306.75359	-349.06443	-327.90901	-140.76491	1.62734	0
657	-117.16848	310.00827	427.17675	-97.6404	-272.57945	368.59251	-103.33609	-306.75359	-351.50544	-323.02699	-135.88289	8.95037	0
658	-117.16848	327.09534	444.26382	-104.96343	-279.90248	385.67958	-103.33609	-314.07662	-356.38746	-325.468	-133.44188	13.83239	0
659	-119.60949	339.30039	458.90988	-109.84545	-289.66652	397.88463	-103.33609	-314.07662	-361.26948	-327.90901	-128.55986	18.71441	0
660	-119.60949	353.94645	473.55594	-117.16848	-296.98955	412.53069	-103.33609	-316.51763	-368.59251	-330.35002	-126.11885	26.03744	0
661	-117.16848	361.26948	478.43796	-122.0505	-296.98955	419.85372	-100.89508	-316.51763	-373.47453	-330.35002	-121.23683	33.36047	0
662	-119.60949	361.26948	480.87897	-122.0505	-299.43056	419.85372	-96.01306	-314.07662	-371.03352	-327.90901	-116.35481	43.12451	0
663	-124.49151	373.47453	497.96604	-124.49151	-311.63561	434.49978	-96.01306	-318.95864	-371.03352	-332.79103	-113.9138	48.00653	0
664	-126.93252	385.67958	512.6121	-129.37353	-318.95864	449.14584	-96.01306	-321.39965	-371.03352	-332.79103	-109.03178	50.44754	0
665	-129.37353	395.44362	524.81715	-134.25555	-326.28167	458.90988	-98.45407	-326.28167	-371.03352	-335.23204	-106.59077	55.32956	0
666	-131.81454	410.08968	541.90422	-139.13757	-336.04571	475.99695	-100.89508	-333.6047	-378.35655	-332.79103	-104.14976	57.77057	0
667	-136.69656	424.73574	561.4323	-144.01959	-348.25076	493.08402	-103.33609	-343.36874	-385.67958	-332.79103	-104.14976	57.77057	0
668	-136.69656	444.26382	580.96038	-153.78363	-358.0148	512.6121	-105.7771	-353.13278	-393.00261	-337.67305	-104.14976	60.21158	0
669	-139.13757	461.35089	600.48846	-161.10666	-370.21985	529.69917	-108.21811	-355.57379	-402.76665	-342.55507	-101.70875	60.21158	0
670	-139.13757	463.7919	602.92947	-163.54767	-370.21985	532.14018	-108.21811	-355.57379	-407.64867	-344.99608	-96.82673	65.0936	0
671	-139.13757	471.11493	610.2525	-165.98868	-375.10187	539.46321	-108.21811	-355.57379	-412.53069	-344.99608	-94.38572	69.97562	0
672	-139.13757	483.31998	622.45755	-173.31171	-379.98389	551.66826	-108.21811	-358.0148	-414.9717	-347.43709	-94.38572	74.85764	0
673	-141.57858	497.96604	639.54462	-178.19373	-389.74793	568.75533	-110.65912	-362.89682	-414.9717	-352.31911	-91.94471	77.29865	0
674	-144.01959	517.49412	661.51371	-187.95777	-401.95298	588.28341	-115.54114	-370.21985	-419.85372	-359.64214	-91.94471	77.29865	0
675	-148.90161	529.69917	678.60078	-190.39878	-414.15803	602.92947	-117.98215	-377.54288	-419.85372	-362.08315	-89.5037	82.18067	0
676	-148.90161	544.34523	693.24684	-197.72181	-421.48106	617.57553	-120.42316	-384.86591	-427.17675	-359.64214	-87.06269	84.62168	0
677	-151.34262	558.99129	710.33391	-205.04484	-431.2451	634.6626	-125.30518	-392.18894	-434.49978	-359.64214	-84.62168	89.5037	0
678	-148.90161	573.63735	722.53896	-212.36787	-436.12712	646.86765	-130.1872	-401.95298	-441.82281	-362.08315	-82.18067	91.94471	0
679	-146.4606	576.07836	722.53896	-214.80888	-433.68611	649.30866	-130.1872	-404.39399	-449.14584	-362.08315	-74.85764	96.82673	0
680	-144.01959	576.07836	720.09795	-217.24989	-431.2451	646.86765	-127.74619	-401.95298	-451.58685	-362.08315	-69.97562	106.59077	0
681	-141.57858	578.51937	720.09795	-219.6909	-431.2451	649.30866	-125.30518	-401.95298	-454.02786	-362.08315	-65.0936	116.35481	0
682	-144.01959	593.16543	737.18502	-224.57292	-441.00914	663.95472	-127.74619	-404.39399	-456.46887	-364.52416	-65.0936	118.79582	0
683	-148.90161	598.04745	746.94906	-224.57292	-448.33217	671.27775	-127.74619	-406.835	-456.46887	-366.96517	-60.21158	126.11885	0
684	-151.34262	605.37048	756.7131	-227.01393	-453.21419	681.04179	-127.74619	-411.71702	-456.46887	-369.40618	-57.77057	128.55986	0
685	-156.22464	622.45755	778.68219	-234.33696	-467.86025	700.56987	-130.1872	-416.59904	-456.46887	-371.84719	-57.77057	131.00087	0
686	-161.10666	649.30866	810.41532	-244.101	-484.94732	729.86199	-137.51023	-426.36308	-466.23291	-374.2882	-57.77057	131.00087	0
687	-165.98868	663.95472	829.9434	-248.98302	-497.15237	746.94906	-142.39225	-433.68611	-473.55594	-374.2882	-55.32956	133.44188	0
688	-165.98868	673.71876	839.70744	-253.86504	-502.03439	756.7131	-144.83326	-438.56813	-478.43796	-376.72921	-50.44754	138.3239	0
689	-161.10666	683.4828	844.58946	-261.18807	-502.03439	764.03613	-144.83326	-438.56813	-485.76099	-376.72921	-48.00653	143.20592	0
690	-158.66565	698.12886	856.79451	-270.95211	-506.91641	776.24118	-147.27427	-441.00914	-493.08402	-381.61123	-48.00653	148.08794	0
691	-158.66565	710.33391	868.99956	-275.83413	-514.23944	788.44623	-149.71528	-441.00914	-497.96604	-384.05224	-45.56552	152.96996	0
692	-158.66565	720.09795	878.7636	-280.71615	-519.12146	798.21027	-149.71528	-443.45015	-500.40705	-384.05224	-45.56552	157.85198	0
693	-158.66565	734.74401	893.40966	-288.03918	-526.44449	812.85633	-152.15629	-445.89116	-500.40705	-388.93426	-43.12451	157.85198	0
694	-158.66565	751.83108	910.49673	-297.80322	-533.76752	829.9434	-154.5973	-450.77318	-500.40705	-391.37527	-40.6835	160.29299	0
695	-158.66565	764.03613	922.70178	-302.68524	-541.09055	842.14845	-154.5973	-450.77318	-497.96604	-391.37527	-38.24249	165.17501	0
696	-158.66565	778.68219	937.34784	-310.00827	-548.41358	856.79451	-157.03831	-455.6552	-500.40705	-386.49325	-33.36047	170.05703	0
697	-161.10666	788.44623	949.55289	-314.89029	-555.73661	868.99956	-157.03831	-460.53722	-505.28907	-384.05224	-30.10579	174.93905	0
698	-161.10666	795.76926	956.87592	-317.3313	-558.17762	876.32259	-159.47932	-465.41924	-507.73008	-384.05224	-25.22377	179.82107	0
699	-158.66565	798.21027	956.87592	-319.77231	-558.17762	876.32259	-159.47932	-465.41924	-512.6121	-384.05224	-20.34175	184.70309	0
700	-158.66565	800.65128	959.31693	-322.21332	-558.17762	878.7636	-159.47932	-465.41924	-517.49412	-386.49325	-17.90074	189.58511	0
701	-163.54767	805.5333	969.08097	-322.21332	-565.50065	886.08663	-161.92033	-465.41924	-519.93513	-386.49325	-15.45973	194.46713	0
702	-168.42969	822.62037	991.05006	-327.09534	-580.14671	905.61471	-166.80235	-470.30126	-524.81715	-391.37527	-17.90074	194.46713	0
703	-170.8707	829.9434	1000.8141	-329.53635	-585.02873	915.37875	-169.24336	-472.74227	-522.37614	-393.81628	-17.90074	196.90814	0
704	-173.31171	837.26643	1010.57814	-331.97736	-592.35176	922.70178	-169.24336	-475.18328	-519.93513	-396.25729	-15.45973	199.34915	0
705	-178.19373	839.70744	1017.90117	-331.97736	-597.23378	927.5838	-169.24336	-475.18328	-517.49412	-393.81628	-13.01872	204.23117	0
706	-180.63474	851.91249	1032.54723	-336.85938	-606.99782	942.22986	-169.24336	-477.62429	-517.49412	-388.93426	-10.57771	206.67218	0
707	-180.63474	864.11754	1044.75228	-341.7414	-611.87984	954.43491	-171.68437	-480.0653	-519.93513	-384.05224	-10.57771	209.11319	0
708	-178.19373	866.55855	1044.75228	-344.18241	-611.87984	954.43491	-171.68437	-480.0653	-519.93513	-381.61123	-5.69569	211.5542	0
709	-173.31171	861.67653	1034.98824	-344.18241	-604.55681	947.11188	-169.24336	-477.62429	-522.37614	-381.61123	-0.81367	216.43622	0
710	-173.31171	864.11754	1037.42925	-346.62342	-604.55681	949.55289	-169.24336	-475.18328	-524.81715	-379.17022	1.62734	218.87723	0
711	-170.8707	868.99956	1039.87026	-349.06443	-604.55681	954.43491	-169.24336	-472.74227	-524.81715	-376.72921	1.62734	223.75925	0
712	-173.31171	883.64562	1056.95733	-356.38746	-614.32085	969.08097	-174.12538	-475.18328	-524.81715	-379.17022	1.62734	223.75925	0
713	-173.31171	890.96865	1064.28036	-358.82847	-619.20287	976.404	-174.12538	-475.18328	-519.93513	-381.61123	1.62734	223.75925	0
714	-175.75272	890.96865	1066.72137	-358.82847	-621.64388	978.84501	-174.12538	-472.74227	-515.05311	-379.17022	6.50936	228.64127	0
715	-180.63474	886.08663	1066.72137	-353.94645	-624.08489	976.404	-174.12538	-472.74227	-510.17109	-376.72921	6.50936	231.08228	0
716	-183.07575	898.29168	1081.36743	-358.82847	-631.40792	988.60905	-181.44841	-475.18328	-512.6121	-371.84719	8.95037	231.08228	0
717	-183.07575	917.81976	1100.89551	-368.59251	-641.17196	1008.13713	-188.77144	-480.0653	-515.05311	-371.84719	8.95037	228.64127	0
718	-175.75272	910.49673	1086.24945	-368.59251	-631.40792	998.37309	-188.77144	-480.0653	-512.6121	-366.96517	13.83239	235.9643	0
719	-170.8707	900.73269	1071.60339	-366.1515	-621.64388	986.16804	-188.77144	-472.74227	-510.17109	-362.08315	21.15542	240.84632	0
720	-165.98868	900.73269	1066.72137	-368.59251	-616.76186	983.72703	-188.77144	-467.86025	-507.73008	-359.64214	21.15542	243.28733	0
721	-163.54767	917.81976	1081.36743	-378.35655	-621.64388	998.37309	-188.77144	-462.97823	-505.28907	-357.20113	26.03744	245.72834	0
722	-161.10666	920.26077	1081.36743	-380.79756	-621.64388	1000.8141	-188.77144	-455.6552	-497.96604	-352.31911	30.91946	250.61036	0
723	-161.10666	922.70178	1083.80844	-380.79756	-621.64388	1003.25511	-183.88942	-448.33217	-485.76099	-347.43709	35.80148	255.49238	0
724	-161.10666	925.14279	1086.24945	-383.23857	-624.08489	1005.69612	-183.88942	-443.45015	-478.43796	-342.55507	38.24249	257.93339	0
725	-161.10666	942.22986	1103.33652	-390.5616	-631.40792	1022.78319	-191.21245	-443.45015	-473.55594	-340.11406	38.24249	257.93339	0
726	-158.66565	949.55289	1108.21854	-395.44362	-633.84893	1027.66521	-191.21245	-441.00914	-468.67392	-330.35002	40.6835	257.93339	0
727	-156.22464	947.11188	1103.33652	-395.44362	-628.96691	1025.2242	-193.65346	-438.56813	-463.7919	-323.02699	45.56552	260.3744	0
728	-148.90161	944.67087	1093.57248	-397.88463	-621.64388	1017.90117	-198.53548	-438.56813	-458.90988	-318.14497	48.00653	260.3744	0
729	-141.57858	937.34784	1078.92642	-397.88463	-609.43883	1008.13713	-200.97649	-428.80409	-454.02786	-310.82194	52.88855	262.81541	0
730	-136.69656	920.26077	1056.95733	-393.00261	-597.23378	988.60905	-200.97649	-419.04005	-446.70483	-303.49891	57.77057	267.69743	0
731	-131.81454	908.05572	1039.87026	-388.12059	-585.02873	973.96299	-196.09447	-404.39399	-432.05877	-288.85285	65.0936	275.02046	0
732	-129.37353	893.40966	1022.78319	-383.23857	-575.26469	956.87592	-193.65346	-392.18894	-414.9717	-279.08881	69.97562	279.90248	0
733	-126.93252	893.40966	1020.34218	-383.23857	-572.82368	956.87592	-193.65346	-382.4249	-400.32564	-269.32477	72.41663	279.90248	0
734	-124.49151	893.40966	1017.90117	-385.67958	-570.38267	954.43491	-193.65346	-372.66086	-383.23857	-259.56073	77.29865	279.90248	0
735	-122.0505	893.40966	1015.46016	-385.67958	-567.94166	954.43491	-193.65346	-365.33783	-368.59251	-249.79669	82.18067	284.7845	0
736	-117.16848	898.29168	1015.46016	-390.5616	-565.50065	956.87592	-196.09447	-358.0148	-358.82847	-232.70962	84.62168	284.7845	0
737	-109.84545	903.1737	1013.01915	-397.88463	-560.61863	956.87592	-200.97649	-353.13278	-349.06443	-220.50457	89.5037	284.7845	0
738	-100.08141	903.1737	1003.25511	-402.76665	-550.85459	951.9939	-208.29952	-350.69177	-336.85938	-208.29952	94.38572	287.22551	0
739	-90.31737	883.64562	973.96299	-397.88463	-531.32651	927.5838	-203.4175	-331.16369	-322.21332	-188.77144	109.03178	296.98955	0
740	-80.55333	856.79451	937.34784	-388.12059	-509.35742	895.85067	-200.97649	-314.07662	-300.24423	-166.80235	121.23683	304.31258	0
741	-75.67131	837.26643	912.93774	-380.79756	-494.71136	873.88158	-198.53548	-296.98955	-280.71615	-144.83326	131.00087	311.63561	0
742	-68.34828	827.50239	895.85067	-380.79756	-482.50631	861.67653	-198.53548	-282.34349	-261.18807	-127.74619	138.3239	311.63561	0
743	-63.46626	822.62037	886.08663	-380.79756	-475.18328	854.3535	-198.53548	-272.57945	-239.21898	-113.10013	145.64693	314.07662	0
744	-58.58424	807.97431	866.55855	-375.91554	-462.97823	837.26643	-198.53548	-255.49238	-212.36787	-93.57205	155.41097	318.95864	0
745	-56.14323	800.65128	856.79451	-373.47453	-455.6552	827.50239	-198.53548	-245.72834	-190.39878	-74.04397	162.734	321.39965	0
746	-51.26121	803.09229	854.3535	-375.91554	-453.21419	827.50239	-203.4175	-238.40531	-175.75272	-52.07488	165.17501	321.39965	0
747	-46.37919	805.5333	851.91249	-380.79756	-448.33217	827.50239	-205.85851	-228.64127	-161.10666	-32.5468	172.49804	321.39965	0
748	-34.17414	783.56421	817.73835	-375.91554	-426.36308	800.65128	-205.85851	-213.99521	-141.57858	-12.20505	182.26208	328.72268	0
749	-19.52808	751.83108	771.35916	-366.1515	-394.62995	761.59512	-203.4175	-192.02612	-119.60949	12.20505	196.90814	336.04571	0
750	-9.76404	724.97997	734.74401	-358.82847	-372.66086	729.86199	-200.97649	-172.49804	-100.08141	31.73313	204.23117	340.92773	0
751	-1.62734	712.77492	715.21593	-356.38746	-358.0148	715.21593	-200.97649	-157.85198	-82.99434	48.8202	206.67218	338.48672	0
752	8.1367	700.56987	693.24684	-353.94645	-343.36874	698.12886	-200.97649	-143.20592	-63.46626	61.02525	211.5542	338.48672	0
753	15.45973	676.15977	661.51371	-346.62342	-323.84066	668.83674	-198.53548	-126.11885	-39.05616	75.67131	216.43622	338.48672	0
754	22.78276	651.74967	629.78058	-336.85938	-304.31258	641.98563	-198.53548	-109.03178	-19.52808	90.31737	223.75925	338.48672	0
755	32.5468	641.98563	610.2525	-336.85938	-289.66652	627.33957	-198.53548	-99.26774	-2.44101	100.08141	223.75925	333.6047	0
756	39.86983	627.33957	588.28341	-334.41837	-275.02046	607.81149	-198.53548	-89.5037	9.76404	114.72747	223.75925	331.16369	0
757	44.75185	602.92947	558.99129	-324.65433	-257.93339	580.96038	-193.65346	-77.29865	21.96909	129.37353	226.20026	331.16369	0
758	49.63387	571.19634	522.37614	-310.00827	-235.9643	546.78624	-191.21245	-67.53461	34.98781	141.57858	228.64127	331.16369	0
759	56.9569	549.22725	493.08402	-302.68524	-218.87723	522.37614	-188.77144	-52.88855	42.31084	148.90161	228.64127	326.28167	0
760	64.27993	534.58119	471.11493	-300.24423	-204.23117	502.84806	-188.77144	-43.12451	49.63387	151.34262	221.31824	318.95864	0
761	66.72094	517.49412	451.58685	-292.9212	-192.02612	485.76099	-188.77144	-30.91946	59.39791	158.66565	213.99521	311.63561	0
762	66.72094	500.40705	434.49978	-283.15716	-184.70309	468.67392	-188.77144	-21.15542	71.60296	163.54767	206.67218	304.31258	0
763	71.60296	483.31998	412.53069	-278.27514	-170.05703	449.14584	-188.77144	-11.39138	86.24902	165.98868	201.79016	296.98955	0
764	78.92599	471.11493	393.00261	-275.83413	-157.85198	432.05877	-188.77144	-4.06835	98.45407	168.42969	196.90814	287.22551	0
765	81.367	446.70483	366.1515	-263.62908	-143.20592	407.64867	-188.77144	3.25468	110.65912	173.31171	192.02612	282.34349	0
766	86.24902	427.17675	341.7414	-256.30605	-128.55986	385.67958	-186.33043	10.57771	117.98215	183.07575	189.58511	272.57945	0
767	88.69003	410.08968	322.21332	-248.98302	-116.35481	366.1515	-186.33043	15.45973	120.42316	187.95777	184.70309	262.81541	0
768	96.01306	388.12059	292.9212	-241.65999	-99.26774	341.7414	-186.33043	20.34175	125.30518	190.39878	179.82107	253.05137	0
769	100.89508	358.82847	258.74706	-229.45494	-79.73966	310.00827	-181.44841	30.10579	130.1872	195.2808	177.38006	243.28733	0
770	105.7771	329.53635	224.57292	-217.24989	-60.21158	278.27514	-176.56639	43.12451	137.51023	200.16282	170.05703	235.9643	0
771	110.65912	302.68524	192.83979	-207.48585	-40.6835	248.98302	-171.68437	55.32956	144.83326	205.04484	165.17501	228.64127	0
772	113.10013	275.83413	163.54767	-195.2808	-26.03744	219.6909	-164.36134	67.53461	157.03831	207.48585	160.29299	223.75925	0
773	113.10013	248.98302	136.69656	-180.63474	-11.39138	192.83979	-154.5973	79.73966	169.24336	207.48585	155.41097	216.43622	0
774	113.10013	227.01393	114.72747	-170.8707	-1.62734	170.8707	-152.15629	87.06269	179.0074	207.48585	150.52895	209.11319	0
775	113.10013	207.48585	95.19939	-161.10666	8.1367	151.34262	-149.71528	89.5037	186.33043	207.48585	140.76491	199.34915	0
776	108.21811	200.16282	92.75838	-153.78363	8.1367	146.4606	-149.71528	89.5037	181.44841	205.04484	128.55986	187.1441	0
777	105.7771	192.83979	87.87636	-148.90161	8.1367	141.57858	-152.15629	87.06269	179.0074	200.16282	118.79582	172.49804	0
778	108.21811	178.19373	70.78929	-144.01959	17.90074	124.49151	-152.15629	87.06269	176.56639	195.2808	111.47279	162.734	0
779	110.65912	161.10666	51.26121	-136.69656	30.10579	107.40444	-152.15629	94.38572	174.12538	190.39878	101.70875	148.08794	0
780	113.10013	141.57858	29.29212	-126.93252	43.12451	85.43535	-147.27427	101.70875	171.68437	187.95777	91.94471	138.3239	0
781	115.54114	126.93252	12.20505	-122.0505	52.88855	70.78929	-147.27427	109.03178	169.24336	183.07575	82.18067	126.11885	0
782	113.10013	114.72747	2.44101	-114.72747	55.32956	58.58424	-142.39225	116.35481	171.68437	178.19373	74.85764	116.35481	0
783	110.65912	100.08141	-9.76404	-104.96343	60.21158	46.37919	-135.06922	123.67784	181.44841	175.75272	67.53461	106.59077	0
784	105.7771	80.55333	-24.4101	-92.75838	65.0936	29.29212	-130.1872	128.55986	186.33043	168.42969	60.21158	99.26774	0
785	98.45407	61.02525	-36.61515	-80.55333	67.53461	12.20505	-125.30518	133.44188	188.77144	165.98868	50.44754	89.5037	0
786	91.13104	36.61515	-53.70222	-63.46626	72.41663	-7.32303	-117.98215	138.3239	188.77144	165.98868	43.12451	82.18067	0
787	81.367	17.08707	-63.46626	-48.8202	72.41663	-21.96909	-115.54114	140.76491	188.77144	165.98868	33.36047	72.41663	0
788	78.92599	0	-78.92599	-39.05616	79.73966	-39.05616	-110.65912	140.76491	183.88942	161.10666	26.03744	62.65259	0
789	76.48498	-24.4101	-100.89508	-26.85111	89.5037	-61.02525	-108.21811	148.08794	181.44841	156.22464	18.71441	55.32956	0
790	76.48498	-43.93818	-120.42316	-17.08707	99.26774	-81.367	-108.21811	152.96996	174.12538	151.34262	6.50936	45.56552	0
791	76.48498	-53.70222	-130.1872	-12.20505	104.14976	-91.13104	-105.7771	155.41097	169.24336	144.01959	-3.25468	35.80148	0
792	76.48498	-61.02525	-137.51023	-7.32303	106.59077	-98.45407	-105.7771	155.41097	166.80235	136.69656	-10.57771	26.03744	0
793	76.48498	-63.46626	-139.95124	-7.32303	109.03178	-100.89508	-105.7771	155.41097	166.80235	129.37353	-15.45973	18.71441	0
794	81.367	-78.11232	-159.47932	-2.44101	121.23683	-117.98215	-100.89508	155.41097	169.24336	124.49151	-17.90074	16.2734	0
795	78.92599	-98.45407	-176.56639	9.76404	126.11885	-137.51023	-96.01306	160.29299	174.12538	124.49151	-17.90074	18.71441	0
796	74.04397	-105.7771	-179.0074	14.64606	126.11885	-142.39225	-91.13104	160.29299	171.68437	124.49151	-20.34175	16.2734	0
797	71.60296	-113.10013	-183.88942	19.52808	126.11885	-147.27427	-88.69003	157.85198	166.80235	124.49151	-22.78276	13.83239	0
798	69.16195	-122.86417	-191.21245	26.85111	128.55986	-157.03831	-86.24902	155.41097	161.92033	119.60949	-27.66478	8.95037	0
799	69.16195	-135.06922	-203.4175	31.73313	135.88289	-169.24336	-83.80801	157.85198	157.03831	117.16848	-33.36047	4.06835	0
800	64.27993	-139.95124	-203.4175	36.61515	133.44188	-171.68437	-81.367	160.29299	149.71528	109.84545	-38.24249	-3.25468	0
801	61.83892	-139.95124	-200.97649	39.05616	131.00087	-169.24336	-81.367	160.29299	142.39225	104.96343	-48.00653	-10.57771	0
802	59.39791	-139.95124	-198.53548	39.05616	128.55986	-169.24336	-81.367	160.29299	139.95124	97.6404	-52.88855	-17.90074	0
803	59.39791	-144.83326	-203.4175	41.49717	131.00087	-174.12538	-81.367	157.85198	139.95124	92.75838	-52.88855	-20.34175	0
804	61.83892	-147.27427	-208.29952	41.49717	133.44188	-176.56639	-81.367	157.85198	139.95124	87.87636	-52.88855	-23.59643	0
805	61.83892	-147.27427	-208.29952	41.49717	133.44188	-176.56639	-81.367	152.96996	139.95124	82.99434	-52.88855	-23.59643	0
806	59.39791	-152.15629	-210.74053	44.75185	133.44188	-181.44841	-78.92599	148.08794	132.62821	85.43535	-52.88855	-23.59643	0
807	52.07488	-161.92033	-213.18154	54.51589	131.00087	-186.33043	-78.92599	145.64693	127.74619	85.43535	-52.88855	-28.47845	0
808	49.63387	-169.24336	-218.06356	59.39791	133.44188	-193.65346	-78.92599	138.3239	120.42316	80.55333	-55.32956	-33.36047	0
809	47.19286	-181.44841	-227.8276	66.72094	135.88289	-203.4175	-78.92599	138.3239	113.10013	75.67131	-60.21158	-40.6835	0
810	44.75185	-191.21245	-235.15063	71.60296	138.3239	-213.18154	-78.92599	138.3239	105.7771	70.78929	-67.53461	-48.00653	0
811	39.86983	-205.85851	-244.91467	81.367	140.76491	-225.38659	-74.04397	140.76491	103.33609	70.78929	-72.41663	-50.44754	0
812	34.98781	-215.62255	-249.79669	88.69003	140.76491	-232.70962	-74.04397	140.76491	100.89508	68.34828	-77.29865	-55.32956	0
813	34.98781	-215.62255	-249.79669	88.69003	140.76491	-232.70962	-74.04397	138.3239	103.33609	63.46626	-79.73966	-57.77057	0
814	34.98781	-200.97649	-235.15063	81.367	133.44188	-218.06356	-74.04397	133.44188	100.89508	56.14323	-84.62168	-62.65259	0
815	34.98781	-198.53548	-232.70962	81.367	133.44188	-215.62255	-71.60296	133.44188	103.33609	56.14323	-84.62168	-62.65259	0
816	32.5468	-196.09447	-227.8276	81.367	128.55986	-210.74053	-69.16195	131.00087	103.33609	61.02525	-82.18067	-57.77057	0
817	27.66478	-191.21245	-218.06356	81.367	121.23683	-203.4175	-69.16195	126.11885	98.45407	61.02525	-82.18067	-57.77057	0
818	30.10579	-191.21245	-220.50457	78.92599	123.67784	-205.85851	-69.16195	121.23683	93.57205	61.02525	-82.18067	-57.77057	0
819	32.5468	-193.65346	-225.38659	78.92599	128.55986	-208.29952	-69.16195	121.23683	91.13104	58.58424	-79.73966	-57.77057	0
820	34.98781	-200.97649	-235.15063	81.367	133.44188	-218.06356	-66.72094	126.11885	88.69003	58.58424	-79.73966	-55.32956	0
821	37.42882	-200.97649	-237.59164	81.367	135.88289	-218.06356	-66.72094	128.55986	86.24902	56.14323	-84.62168	-55.32956	0
822	37.42882	-196.09447	-232.70962	78.92599	133.44188	-213.18154	-69.16195	128.55986	83.80801	51.26121	-89.5037	-57.77057	0
823	39.86983	-203.4175	-242.47366	81.367	140.76491	-222.94558	-69.16195	128.55986	88.69003	46.37919	-91.94471	-57.77057	0
824	34.98781	-200.97649	-235.15063	81.367	133.44188	-218.06356	-71.60296	126.11885	88.69003	41.49717	-94.38572	-57.77057	0
825	30.10579	-193.65346	-222.94558	81.367	126.11885	-208.29952	-74.04397	121.23683	88.69003	34.17414	-99.26774	-60.21158	0
826	25.22377	-193.65346	-218.06356	83.80801	121.23683	-205.85851	-76.48498	118.79582	83.80801	34.17414	-101.70875	-62.65259	0
827	20.34175	-205.85851	-225.38659	91.13104	121.23683	-215.62255	-71.60296	118.79582	83.80801	39.05616	-101.70875	-60.21158	0
828	17.90074	-210.74053	-227.8276	96.01306	121.23683	-218.06356	-69.16195	116.35481	81.367	36.61515	-101.70875	-62.65259	0
829	13.01872	-210.74053	-222.94558	98.45407	116.35481	-215.62255	-69.16195	116.35481	74.04397	31.73313	-109.03178	-67.53461	0
830	15.45973	-208.29952	-222.94558	96.01306	118.79582	-215.62255	-64.27993	118.79582	71.60296	29.29212	-113.9138	-69.97562	0
831	17.90074	-205.85851	-222.94558	93.57205	118.79582	-213.18154	-61.83892	121.23683	71.60296	29.29212	-116.35481	-69.97562	0
832	20.34175	-203.4175	-222.94558	91.13104	121.23683	-213.18154	-56.9569	123.67784	71.60296	29.29212	-116.35481	-69.97562	0
833	22.78276	-203.4175	-225.38659	88.69003	123.67784	-213.18154	-52.07488	126.11885	78.92599	26.85111	-116.35481	-67.53461	0
834	25.22377	-200.97649	-225.38659	86.24902	123.67784	-213.18154	-52.07488	126.11885	81.367	24.4101	-113.9138	-65.0936	0
835	25.22377	-203.4175	-227.8276	88.69003	126.11885	-215.62255	-47.19286	128.55986	88.69003	24.4101	-111.47279	-57.77057	0
836	20.34175	-203.4175	-222.94558	91.13104	121.23683	-213.18154	-47.19286	126.11885	86.24902	26.85111	-109.03178	-57.77057	0
837	20.34175	-200.97649	-220.50457	88.69003	118.79582	-210.74053	-49.63387	121.23683	81.367	26.85111	-109.03178	-55.32956	0
838	22.78276	-210.74053	-232.70962	93.57205	126.11885	-220.50457	-47.19286	123.67784	81.367	29.29212	-104.14976	-52.88855	0
839	22.78276	-222.94558	-244.91467	98.45407	133.44188	-232.70962	-44.75185	126.11885	78.92599	26.85111	-104.14976	-52.88855	0
840	17.90074	-227.8276	-244.91467	103.33609	131.00087	-235.15063	-44.75185	128.55986	74.04397	21.96909	-111.47279	-57.77057	0
841	15.45973	-225.38659	-240.03265	103.33609	126.11885	-232.70962	-44.75185	131.00087	69.16195	19.52808	-116.35481	-65.0936	0
842	15.45973	-220.50457	-235.15063	100.89508	123.67784	-227.8276	-42.31084	133.44188	69.16195	14.64606	-118.79582	-67.53461	0
843	15.45973	-215.62255	-230.26861	98.45407	121.23683	-222.94558	-37.42882	135.88289	76.48498	12.20505	-121.23683	-67.53461	0
844	8.1367	-205.85851	-213.18154	98.45407	109.03178	-208.29952	-37.42882	133.44188	76.48498	4.88202	-123.67784	-74.85764	0
845	3.25468	-191.21245	-193.65346	93.57205	96.82673	-191.21245	-39.86983	128.55986	74.04397	-2.44101	-128.55986	-79.73966	0
846	-1.62734	-181.44841	-179.0074	91.13104	87.06269	-179.0074	-39.86983	126.11885	74.04397	0	-128.55986	-79.73966	0
847	-4.88202	-176.56639	-171.68437	88.69003	82.18067	-174.12538	-39.86983	123.67784	74.04397	2.44101	-126.11885	-82.18067	0
848	-4.88202	-183.88942	-179.0074	93.57205	87.06269	-181.44841	-37.42882	123.67784	71.60296	2.44101	-121.23683	-82.18067	0
849	-4.88202	-196.09447	-191.21245	98.45407	91.94471	-193.65346	-34.98781	126.11885	71.60296	4.88202	-116.35481	-79.73966	0
850	-7.32303	-208.29952	-200.97649	105.7771	96.82673	-205.85851	-30.10579	131.00087	71.60296	4.88202	-111.47279	-74.85764	0
851	-7.32303	-208.29952	-200.97649	105.7771	96.82673	-205.85851	-30.10579	133.44188	71.60296	9.76404	-106.59077	-74.85764	0
852	-7.32303	-208.29952	-200.97649	105.7771	96.82673	-205.85851	-25.22377	138.3239	71.60296	9.76404	-106.59077	-69.97562	0
853	-7.32303	-208.29952	-200.97649	105.7771	96.82673	-205.85851	-22.78276	140.76491	76.48498	9.76404	-104.14976	-69.97562	0
854	-7.32303	-205.85851	-198.53548	105.7771	94.38572	-203.4175	-17.90074	143.20592	78.92599	9.76404	-101.70875	-67.53461	0
855	-7.32303	-193.65346	-186.33043	98.45407	89.5037	-191.21245	-17.90074	143.20592	78.92599	7.32303	-106.59077	-67.53461	0
856	-7.32303	-188.77144	-181.44841	96.01306	87.06269	-186.33043	-20.34175	143.20592	76.48498	12.20505	-109.03178	-69.97562	0
857	-7.32303	-188.77144	-181.44841	96.01306	87.06269	-186.33043	-17.90074	143.20592	78.92599	17.08707	-109.03178	-72.41663	0
858	-4.88202	-196.09447	-191.21245	98.45407	91.94471	-193.65346	-13.01872	145.64693	83.80801	21.96909	-104.14976	-72.41663	0
859	-1.62734	-203.4175	-200.97649	100.89508	99.26774	-200.97649	-10.57771	150.52895	88.69003	24.4101	-101.70875	-74.85764	0
860	-1.62734	-213.18154	-210.74053	105.7771	104.14976	-210.74053	-5.69569	155.41097	93.57205	29.29212	-101.70875	-77.29865	0
861	-4.88202	-220.50457	-215.62255	110.65912	104.14976	-218.06356	-3.25468	160.29299	96.01306	34.17414	-99.26774	-77.29865	0
862	-7.32303	-230.26861	-222.94558	117.98215	106.59077	-227.8276	2.44101	165.17501	100.89508	39.05616	-94.38572	-77.29865	0
863	-4.88202	-237.59164	-232.70962	120.42316	113.9138	-235.15063	9.76404	170.05703	105.7771	39.05616	-89.5037	-74.85764	0
864	-4.88202	-244.91467	-240.03265	122.86417	116.35481	-242.47366	14.64606	172.49804	105.7771	34.17414	-87.06269	-74.85764	0
865	-4.88202	-247.35568	-242.47366	125.30518	118.79582	-244.91467	17.08707	172.49804	105.7771	29.29212	-87.06269	-72.41663	0
866	-4.88202	-240.03265	-235.15063	120.42316	113.9138	-237.59164	17.08707	170.05703	103.33609	31.73313	-91.94471	-69.97562	0
867	-1.62734	-235.15063	-232.70962	117.98215	113.9138	-232.70962	17.08707	167.61602	100.89508	29.29212	-94.38572	-69.97562	0
868	0.81367	-235.15063	-235.15063	115.54114	116.35481	-235.15063	17.08707	165.17501	103.33609	31.73313	-94.38572	-69.97562	0
869	3.25468	-235.15063	-237.59164	115.54114	118.79582	-235.15063	19.52808	167.61602	108.21811	34.17414	-94.38572	-69.97562	0
870	5.69569	-237.59164	-242.47366	115.54114	123.67784	-240.03265	21.96909	172.49804	115.54114	39.05616	-89.5037	-67.53461	0
871	8.1367	-227.8276	-235.15063	108.21811	121.23683	-230.26861	19.52808	172.49804	117.98215	43.93818	-89.5037	-69.97562	0
872	8.1367	-220.50457	-227.8276	105.7771	116.35481	-222.94558	17.08707	170.05703	117.98215	46.37919	-87.06269	-69.97562	0
873	13.01872	-220.50457	-232.70962	103.33609	121.23683	-225.38659	19.52808	174.93905	117.98215	48.8202	-77.29865	-67.53461	0
874	17.90074	-210.74053	-227.8276	96.01306	121.23683	-218.06356	19.52808	177.38006	117.98215	51.26121	-74.85764	-65.0936	0
875	25.22377	-213.18154	-237.59164	93.57205	131.00087	-225.38659	24.4101	184.70309	122.86417	53.70222	-69.97562	-60.21158	0
876	27.66478	-215.62255	-242.47366	93.57205	133.44188	-227.8276	24.4101	187.1441	125.30518	58.58424	-69.97562	-57.77057	0
877	25.22377	-215.62255	-240.03265	93.57205	131.00087	-227.8276	24.4101	192.02612	127.74619	61.02525	-72.41663	-55.32956	0
878	25.22377	-220.50457	-244.91467	96.01306	133.44188	-232.70962	24.4101	192.02612	135.06922	65.90727	-74.85764	-55.32956	0
879	22.78276	-225.38659	-247.35568	100.89508	133.44188	-235.15063	26.85111	196.90814	142.39225	65.90727	-82.18067	-55.32956	0
880	17.90074	-235.15063	-252.2377	108.21811	133.44188	-242.47366	26.85111	199.34915	147.27427	68.34828	-87.06269	-57.77057	0
881	15.45973	-237.59164	-252.2377	110.65912	133.44188	-244.91467	24.4101	199.34915	149.71528	70.78929	-94.38572	-60.21158	0
882	13.01872	-225.38659	-237.59164	105.7771	123.67784	-230.26861	19.52808	194.46713	144.83326	70.78929	-99.26774	-65.0936	0
883	15.45973	-222.94558	-237.59164	103.33609	126.11885	-230.26861	19.52808	194.46713	144.83326	70.78929	-99.26774	-65.0936	0
884	20.34175	-227.8276	-247.35568	103.33609	133.44188	-237.59164	21.96909	199.34915	147.27427	70.78929	-99.26774	-65.0936	0
885	25.22377	-232.70962	-257.11972	103.33609	140.76491	-244.91467	24.4101	201.79016	147.27427	73.2303	-96.82673	-60.21158	0
886	27.66478	-227.8276	-254.67871	98.45407	140.76491	-240.03265	24.4101	204.23117	147.27427	73.2303	-99.26774	-60.21158	0
887	25.22377	-235.15063	-259.56073	103.33609	140.76491	-247.35568	24.4101	209.11319	154.5973	73.2303	-96.82673	-55.32956	0
888	20.34175	-244.91467	-264.44275	110.65912	140.76491	-254.67871	29.29212	209.11319	159.47932	75.67131	-96.82673	-55.32956	0
889	15.45973	-249.79669	-264.44275	115.54114	138.3239	-257.11972	29.29212	209.11319	164.36134	75.67131	-99.26774	-55.32956	0
890	13.01872	-252.2377	-264.44275	117.98215	138.3239	-257.11972	29.29212	209.11319	164.36134	75.67131	-104.14976	-57.77057	0
891	10.57771	-257.11972	-266.88376	122.86417	138.3239	-262.00174	29.29212	209.11319	169.24336	80.55333	-104.14976	-57.77057	0
892	8.1367	-266.88376	-274.20679	127.74619	140.76491	-269.32477	31.73313	209.11319	171.68437	85.43535	-101.70875	-52.88855	0
893	13.01872	-269.32477	-281.52982	127.74619	145.64693	-274.20679	31.73313	209.11319	169.24336	87.87636	-101.70875	-50.44754	0
894	20.34175	-266.88376	-286.41184	122.86417	152.96996	-276.6478	31.73313	206.67218	166.80235	85.43535	-104.14976	-52.88855	0
895	22.78276	-262.00174	-283.97083	117.98215	152.96996	-271.76578	29.29212	206.67218	164.36134	80.55333	-109.03178	-55.32956	0
896	25.22377	-266.88376	-291.29386	120.42316	157.85198	-279.08881	31.73313	211.5542	166.80235	82.99434	-109.03178	-55.32956	0
897	22.78276	-271.76578	-293.73487	122.86417	157.85198	-281.52982	34.17414	216.43622	171.68437	82.99434	-111.47279	-57.77057	0
898	22.78276	-271.76578	-293.73487	122.86417	157.85198	-281.52982	34.17414	216.43622	176.56639	82.99434	-116.35481	-60.21158	0
899	22.78276	-269.32477	-291.29386	122.86417	155.41097	-279.08881	31.73313	211.5542	179.0074	78.11232	-123.67784	-67.53461	0
900	17.90074	-269.32477	-286.41184	125.30518	150.52895	-276.6478	31.73313	211.5542	179.0074	78.11232	-128.55986	-69.97562	0
901	17.90074	-283.97083	-301.0579	132.62821	157.85198	-291.29386	36.61515	213.99521	183.88942	82.99434	-126.11885	-62.65259	0
902	20.34175	-283.97083	-303.49891	130.1872	160.29299	-293.73487	36.61515	211.5542	181.44841	85.43535	-123.67784	-60.21158	0
903	25.22377	-283.97083	-308.38093	127.74619	165.17501	-296.17588	31.73313	206.67218	176.56639	85.43535	-123.67784	-57.77057	0
904	32.5468	-283.97083	-315.70396	125.30518	172.49804	-298.61689	31.73313	206.67218	174.12538	87.87636	-121.23683	-57.77057	0
905	39.86983	-283.97083	-323.02699	120.42316	179.82107	-303.49891	31.73313	209.11319	169.24336	90.31737	-121.23683	-55.32956	0
906	42.31084	-283.97083	-325.468	120.42316	182.26208	-303.49891	31.73313	211.5542	171.68437	90.31737	-123.67784	-55.32956	0
907	39.86983	-276.6478	-315.70396	117.98215	177.38006	-296.17588	29.29212	209.11319	166.80235	85.43535	-131.00087	-62.65259	0
908	39.86983	-271.76578	-310.82194	115.54114	174.93905	-291.29386	26.85111	206.67218	169.24336	82.99434	-135.88289	-67.53461	0
909	39.86983	-276.6478	-315.70396	117.98215	177.38006	-296.17588	29.29212	209.11319	176.56639	80.55333	-138.3239	-69.97562	0
910	39.86983	-274.20679	-313.26295	115.54114	174.93905	-293.73487	26.85111	206.67218	176.56639	78.11232	-145.64693	-77.29865	0
911	34.98781	-276.6478	-310.82194	120.42316	172.49804	-293.73487	26.85111	201.79016	176.56639	75.67131	-152.96996	-82.18067	0
912	30.10579	-286.41184	-315.70396	127.74619	172.49804	-301.0579	29.29212	201.79016	176.56639	78.11232	-152.96996	-82.18067	0
913	32.5468	-291.29386	-323.02699	127.74619	177.38006	-305.93992	31.73313	201.79016	174.12538	80.55333	-152.96996	-82.18067	0
914	34.98781	-298.61689	-332.79103	130.1872	182.26208	-315.70396	36.61515	201.79016	174.12538	82.99434	-152.96996	-82.18067	0
915	39.86983	-303.49891	-342.55507	130.1872	189.58511	-323.02699	39.05616	204.23117	174.12538	82.99434	-152.96996	-82.18067	0
916	39.86983	-303.49891	-342.55507	130.1872	189.58511	-323.02699	39.05616	206.67218	174.12538	85.43535	-152.96996	-82.18067	0
917	37.42882	-310.82194	-347.43709	135.06922	192.02612	-327.90901	41.49717	211.5542	181.44841	87.87636	-148.08794	-79.73966	0
918	37.42882	-320.58598	-357.20113	139.95124	196.90814	-337.67305	43.93818	211.5542	186.33043	90.31737	-145.64693	-74.85764	0
919	39.86983	-323.02699	-362.08315	139.95124	199.34915	-342.55507	43.93818	211.5542	191.21245	90.31737	-145.64693	-74.85764	0
920	39.86983	-323.02699	-362.08315	139.95124	199.34915	-342.55507	41.49717	211.5542	193.65346	90.31737	-143.20592	-72.41663	0
921	34.98781	-323.02699	-357.20113	142.39225	194.46713	-340.11406	39.05616	206.67218	193.65346	90.31737	-148.08794	-69.97562	0
922	32.5468	-323.02699	-354.76012	144.83326	192.02612	-337.67305	34.17414	201.79016	188.77144	90.31737	-148.08794	-69.97562	0
923	30.10579	-320.58598	-349.8781	144.83326	189.58511	-335.23204	31.73313	199.34915	183.88942	87.87636	-148.08794	-72.41663	0
924	30.10579	-323.02699	-352.31911	144.83326	189.58511	-337.67305	31.73313	199.34915	183.88942	90.31737	-148.08794	-72.41663	0
925	30.10579	-320.58598	-349.8781	144.83326	189.58511	-335.23204	31.73313	201.79016	179.0074	87.87636	-148.08794	-74.85764	0
926	30.10579	-325.468	-354.76012	147.27427	192.02612	-340.11406	36.61515	209.11319	186.33043	92.75838	-148.08794	-74.85764	0
927	34.98781	-327.90901	-362.08315	144.83326	196.90814	-344.99608	41.49717	213.99521	191.21245	95.19939	-145.64693	-72.41663	0
928	37.42882	-323.02699	-359.64214	142.39225	196.90814	-340.11406	43.93818	213.99521	196.09447	95.19939	-145.64693	-74.85764	0
929	39.86983	-323.02699	-362.08315	139.95124	199.34915	-342.55507	48.8202	213.99521	200.97649	95.19939	-145.64693	-77.29865	0
930	39.86983	-313.26295	-352.31911	135.06922	194.46713	-332.79103	48.8202	211.5542	200.97649	90.31737	-148.08794	-82.18067	0
931	37.42882	-303.49891	-340.11406	132.62821	187.1441	-320.58598	46.37919	206.67218	198.53548	90.31737	-150.52895	-82.18067	0
932	34.98781	-305.93992	-340.11406	135.06922	187.1441	-323.02699	46.37919	204.23117	193.65346	90.31737	-148.08794	-82.18067	0
933	37.42882	-301.0579	-337.67305	130.1872	187.1441	-318.14497	43.93818	196.90814	186.33043	87.87636	-148.08794	-87.06269	0
934	39.86983	-301.0579	-340.11406	130.1872	189.58511	-320.58598	43.93818	194.46713	183.88942	85.43535	-145.64693	-87.06269	0
935	42.31084	-303.49891	-344.99608	130.1872	192.02612	-323.02699	43.93818	199.34915	181.44841	85.43535	-143.20592	-89.5037	0
936	47.19286	-310.82194	-357.20113	130.1872	201.79016	-332.79103	48.8202	201.79016	183.88942	85.43535	-143.20592	-87.06269	0
937	49.63387	-318.14497	-366.96517	132.62821	206.67218	-342.55507	51.26121	206.67218	186.33043	87.87636	-140.76491	-84.62168	0
938	54.51589	-323.02699	-376.72921	132.62821	213.99521	-349.8781	56.14323	209.11319	193.65346	90.31737	-140.76491	-82.18067	0
939	59.39791	-318.14497	-376.72921	127.74619	216.43622	-347.43709	56.14323	209.11319	200.97649	90.31737	-140.76491	-82.18067	0
940	54.51589	-318.14497	-371.84719	130.1872	211.5542	-344.99608	56.14323	211.5542	203.4175	92.75838	-140.76491	-79.73966	0
941	49.63387	-318.14497	-366.96517	132.62821	206.67218	-342.55507	58.58424	206.67218	203.4175	95.19939	-143.20592	-77.29865	0
942	44.75185	-332.79103	-376.72921	142.39225	209.11319	-354.76012	63.46626	209.11319	205.85851	102.52242	-135.88289	-69.97562	0
943	42.31084	-337.67305	-379.17022	147.27427	209.11319	-357.20113	65.90727	206.67218	200.97649	104.96343	-131.00087	-69.97562	0
944	44.75185	-332.79103	-376.72921	142.39225	209.11319	-354.76012	65.90727	206.67218	198.53548	102.52242	-131.00087	-74.85764	0
945	39.86983	-332.79103	-371.84719	144.83326	204.23117	-352.31911	65.90727	206.67218	193.65346	100.08141	-131.00087	-79.73966	0
946	37.42882	-335.23204	-371.84719	147.27427	204.23117	-352.31911	63.46626	206.67218	191.21245	100.08141	-135.88289	-84.62168	0
