samplenr	I	II	III	aVR	aVL	aVF	V1	V2	V3	V4	V5	V6	measurement
0	1.62734	-31.73313	-33.36047	14.64606	17.08707	-32.5468	-101.70875	-44.75185	29.29212	36.61515	17.08707	-46.37919	0
1	6.50936	-26.85111	-33.36047	9.76404	19.52808	-30.10579	-96.82673	-39.86983	34.17414	42.31084	19.52808	-43.93818	0
2	18.71441	-8.95037	-28.47845	-5.69569	24.4101	-17.90074	-82.18067	-25.22377	46.37919	56.9569	29.29212	-31.73313	0
3	30.91946	5.69569	-26.03744	-17.90074	29.29212	-10.57771	-67.53461	-13.01872	58.58424	69.16195	36.61515	-24.4101	0
4	35.80148	17.90074	-18.71441	-27.66478	26.85111	0	-60.21158	-3.25468	68.34828	78.92599	41.49717	-18.71441	0
5	38.24249	25.22377	-13.83239	-32.5468	26.85111	7.32303	-52.88855	4.06835	75.67131	86.24902	43.93818	-13.83239	0
6	40.6835	34.98781	-5.69569	-37.42882	24.4101	14.64606	-52.88855	8.95037	83.80801	93.57205	48.8202	-11.39138	0
7	43.12451	42.31084	-0.81367	-42.31084	21.96909	21.96909	-52.88855	16.2734	91.13104	98.45407	53.70222	-8.95037	0
8	38.24249	42.31084	4.06835	-39.86983	17.08707	24.4101	-55.32956	16.2734	91.13104	96.01306	53.70222	-11.39138	0
9	30.91946	39.86983	8.95037	-34.98781	12.20505	24.4101	-52.88855	16.2734	91.13104	96.01306	53.70222	-11.39138	0
10	30.91946	42.31084	11.39138	-37.42882	9.76404	26.85111	-48.00653	21.15542	91.13104	93.57205	58.58424	-11.39138	0
11	30.91946	42.31084	11.39138	-37.42882	9.76404	26.85111	-43.12451	23.59643	93.57205	96.01306	58.58424	-8.95037	0
12	30.91946	44.75185	13.83239	-37.42882	9.76404	29.29212	-33.36047	30.91946	96.01306	103.33609	61.02525	-4.06835	0
13	33.36047	49.63387	16.2734	-42.31084	9.76404	34.17414	-26.03744	35.80148	103.33609	108.21811	65.90727	0.81367	0
14	38.24249	56.9569	18.71441	-47.19286	9.76404	39.05616	-18.71441	40.6835	110.65912	115.54114	68.34828	8.1367	0
15	38.24249	64.27993	26.03744	-52.07488	7.32303	46.37919	-18.71441	43.12451	113.10013	120.42316	73.2303	13.01872	0
16	43.12451	74.04397	30.91946	-59.39791	7.32303	53.70222	-26.03744	43.12451	115.54114	125.30518	78.11232	15.45973	0
17	55.32956	88.69003	33.36047	-71.60296	12.20505	61.02525	-35.80148	43.12451	120.42316	130.1872	85.43535	20.34175	0
18	72.41663	105.7771	33.36047	-88.69003	19.52808	70.78929	-45.56552	40.6835	120.42316	130.1872	90.31737	22.78276	0
19	77.29865	105.7771	28.47845	-91.13104	24.4101	68.34828	-60.21158	33.36047	115.54114	125.30518	90.31737	20.34175	0
20	74.85764	103.33609	28.47845	-88.69003	24.4101	65.90727	-74.85764	23.59643	108.21811	120.42316	90.31737	17.90074	0
21	74.85764	96.01306	21.15542	-86.24902	26.85111	58.58424	-87.06269	16.2734	100.89508	115.54114	85.43535	17.90074	0
22	77.29865	91.13104	13.83239	-83.80801	31.73313	53.70222	-96.82673	6.50936	96.01306	113.10013	82.99434	20.34175	0
23	77.29865	88.69003	11.39138	-83.80801	34.17414	51.26121	-104.14976	1.62734	91.13104	113.10013	82.99434	22.78276	0
24	67.53461	78.92599	11.39138	-74.04397	29.29212	46.37919	-116.35481	-8.1367	83.80801	110.65912	75.67131	20.34175	0
25	55.32956	71.60296	16.2734	-64.27993	19.52808	43.93818	-131.00087	-17.90074	80.55333	105.7771	75.67131	20.34175	0
26	55.32956	74.04397	18.71441	-64.27993	19.52808	46.37919	-143.20592	-22.78276	83.80801	108.21811	78.11232	22.78276	0
27	62.65259	83.80801	21.15542	-74.04397	21.96909	53.70222	-152.96996	-25.22377	83.80801	108.21811	85.43535	27.66478	0
28	77.29865	96.01306	18.71441	-86.24902	29.29212	58.58424	-160.29299	-25.22377	83.80801	108.21811	90.31737	30.10579	0
29	89.5037	103.33609	13.83239	-96.01306	39.05616	58.58424	-165.17501	-27.66478	80.55333	105.7771	92.75838	30.10579	0
30	101.70875	105.7771	4.06835	-103.33609	48.8202	56.14323	-165.17501	-30.10579	78.11232	100.89508	92.75838	30.10579	0
31	109.03178	100.89508	-8.95037	-105.7771	58.58424	46.37919	-165.17501	-34.98781	68.34828	96.01306	85.43535	27.66478	0
32	113.9138	91.13104	-23.59643	-103.33609	68.34828	34.17414	-160.29299	-37.42882	61.02525	91.13104	80.55333	27.66478	0
33	116.35481	78.92599	-38.24249	-98.45407	78.11232	21.96909	-152.96996	-37.42882	56.14323	91.13104	75.67131	22.78276	0
34	113.9138	66.72094	-48.00653	-91.13104	80.55333	9.76404	-148.08794	-34.98781	56.14323	91.13104	70.78929	20.34175	0
35	106.59077	56.9569	-50.44754	-81.367	78.11232	4.88202	-143.20592	-32.5468	53.70222	91.13104	65.90727	17.90074	0
36	94.38572	39.86983	-55.32956	-66.72094	75.67131	-7.32303	-143.20592	-32.5468	56.14323	91.13104	61.02525	10.57771	0
37	82.18067	27.66478	-55.32956	-54.51589	68.34828	-13.01872	-143.20592	-27.66478	58.58424	91.13104	58.58424	5.69569	0
38	72.41663	15.45973	-57.77057	-44.75185	65.90727	-20.34175	-143.20592	-25.22377	63.46626	88.69003	56.14323	0.81367	0
39	62.65259	5.69569	-57.77057	-34.98781	61.02525	-25.22377	-143.20592	-25.22377	61.02525	81.367	51.26121	-8.95037	0
40	52.88855	-8.95037	-62.65259	-22.78276	58.58424	-34.98781	-143.20592	-27.66478	56.14323	74.04397	43.93818	-18.71441	0
41	38.24249	-26.85111	-65.0936	-5.69569	51.26121	-44.75185	-138.3239	-32.5468	51.26121	64.27993	34.17414	-26.85111	0
42	26.03744	-46.37919	-72.41663	9.76404	48.8202	-59.39791	-135.88289	-32.5468	46.37919	56.9569	21.96909	-36.61515	0
43	16.2734	-63.46626	-79.73966	21.96909	46.37919	-71.60296	-133.44188	-34.98781	39.05616	52.07488	12.20505	-43.93818	0
44	16.2734	-68.34828	-84.62168	24.4101	48.8202	-76.48498	-128.55986	-37.42882	34.17414	47.19286	4.88202	-51.26121	0
45	16.2734	-73.2303	-89.5037	26.85111	51.26121	-81.367	-126.11885	-39.86983	31.73313	39.05616	-2.44101	-53.70222	0
46	13.83239	-78.11232	-91.94471	31.73313	51.26121	-83.80801	-131.00087	-42.31084	26.85111	36.61515	-8.1367	-61.02525	0
47	11.39138	-80.55333	-91.94471	34.17414	51.26121	-86.24902	-133.44188	-47.19286	21.96909	29.29212	-10.57771	-63.46626	0
48	11.39138	-82.99434	-94.38572	34.17414	51.26121	-88.69003	-138.3239	-54.51589	17.08707	19.52808	-17.90074	-70.78929	0
49	13.83239	-82.99434	-96.82673	34.17414	53.70222	-88.69003	-140.76491	-61.83892	9.76404	14.64606	-20.34175	-75.67131	0
50	16.2734	-82.99434	-99.26774	31.73313	56.14323	-91.13104	-140.76491	-69.16195	4.88202	7.32303	-25.22377	-80.55333	0
51	13.83239	-92.75838	-106.59077	39.05616	58.58424	-98.45407	-140.76491	-74.04397	2.44101	2.44101	-30.10579	-82.99434	0
52	13.83239	-97.6404	-111.47279	41.49717	61.02525	-103.33609	-138.3239	-74.04397	0	2.44101	-32.5468	-85.43535	0
53	11.39138	-102.52242	-113.9138	43.93818	61.02525	-108.21811	-138.3239	-74.04397	-2.44101	4.88202	-34.98781	-85.43535	0
54	11.39138	-104.96343	-116.35481	46.37919	63.46626	-110.65912	-135.88289	-74.04397	0	7.32303	-37.42882	-85.43535	0
55	13.83239	-100.08141	-113.9138	41.49717	63.46626	-105.7771	-131.00087	-69.16195	4.88202	12.20505	-34.98781	-80.55333	0
56	13.83239	-97.6404	-111.47279	41.49717	61.02525	-103.33609	-131.00087	-66.72094	7.32303	14.64606	-32.5468	-78.11232	0
57	11.39138	-97.6404	-109.03178	41.49717	58.58424	-103.33609	-131.00087	-66.72094	12.20505	17.08707	-27.66478	-78.11232	0
58	11.39138	-95.19939	-106.59077	41.49717	58.58424	-100.89508	-131.00087	-64.27993	14.64606	14.64606	-27.66478	-78.11232	0
59	6.50936	-97.6404	-104.14976	43.93818	53.70222	-100.89508	-128.55986	-66.72094	14.64606	14.64606	-25.22377	-78.11232	0
60	1.62734	-102.52242	-104.14976	48.8202	51.26121	-103.33609	-123.67784	-66.72094	12.20505	12.20505	-25.22377	-80.55333	0
61	-0.81367	-104.96343	-104.14976	51.26121	51.26121	-103.33609	-118.79582	-66.72094	14.64606	12.20505	-25.22377	-80.55333	0
62	1.62734	-104.96343	-106.59077	51.26121	53.70222	-105.7771	-113.9138	-59.39791	17.08707	17.08707	-22.78276	-75.67131	0
63	4.06835	-104.96343	-109.03178	48.8202	56.14323	-105.7771	-109.03178	-56.9569	19.52808	21.96909	-22.78276	-73.2303	0
64	4.06835	-107.40444	-111.47279	51.26121	56.14323	-108.21811	-106.59077	-52.07488	21.96909	26.85111	-22.78276	-73.2303	0
65	8.95037	-104.96343	-113.9138	46.37919	61.02525	-108.21811	-106.59077	-49.63387	26.85111	29.29212	-20.34175	-68.34828	0
66	11.39138	-102.52242	-113.9138	43.93818	61.02525	-108.21811	-106.59077	-44.75185	31.73313	34.17414	-20.34175	-65.90727	0
67	13.83239	-95.19939	-109.03178	39.05616	61.02525	-100.89508	-109.03178	-39.86983	34.17414	36.61515	-15.45973	-65.90727	0
68	13.83239	-97.6404	-111.47279	41.49717	61.02525	-103.33609	-111.47279	-39.86983	36.61515	34.17414	-15.45973	-65.90727	0
69	13.83239	-97.6404	-111.47279	41.49717	61.02525	-103.33609	-111.47279	-39.86983	39.05616	36.61515	-13.01872	-68.34828	0
70	18.71441	-90.31737	-109.03178	34.17414	63.46626	-98.45407	-111.47279	-39.86983	41.49717	36.61515	-10.57771	-65.90727	0
71	23.59643	-87.87636	-111.47279	31.73313	65.90727	-98.45407	-109.03178	-37.42882	41.49717	39.05616	-10.57771	-65.90727	0
72	28.47845	-82.99434	-111.47279	26.85111	68.34828	-96.01306	-104.14976	-32.5468	46.37919	47.19286	-8.1367	-61.02525	0
73	30.91946	-78.11232	-109.03178	21.96909	68.34828	-93.57205	-99.26774	-27.66478	51.26121	54.51589	-4.88202	-56.14323	0
74	33.36047	-78.11232	-111.47279	21.96909	70.78929	-93.57205	-96.82673	-25.22377	53.70222	61.83892	-8.1367	-53.70222	0
75	26.03744	-82.99434	-109.03178	26.85111	65.90727	-96.01306	-96.82673	-22.78276	53.70222	61.83892	-8.1367	-53.70222	0
76	16.2734	-90.31737	-106.59077	36.61515	61.02525	-98.45407	-96.82673	-22.78276	56.14323	64.27993	-8.1367	-56.14323	0
77	8.95037	-95.19939	-104.14976	41.49717	56.14323	-98.45407	-96.82673	-17.90074	61.02525	64.27993	-8.1367	-58.58424	0
78	8.95037	-95.19939	-104.14976	41.49717	56.14323	-98.45407	-91.94471	-13.01872	68.34828	64.27993	-8.1367	-61.02525	0
79	16.2734	-90.31737	-106.59077	36.61515	61.02525	-98.45407	-87.06269	-10.57771	73.2303	66.72094	-8.1367	-63.46626	0
80	23.59643	-85.43535	-109.03178	29.29212	65.90727	-96.01306	-82.18067	-8.1367	73.2303	64.27993	-8.1367	-63.46626	0
81	28.47845	-80.55333	-109.03178	24.4101	68.34828	-93.57205	-79.73966	-13.01872	68.34828	59.39791	-13.01872	-65.90727	0
82	30.91946	-78.11232	-109.03178	21.96909	68.34828	-93.57205	-82.18067	-25.22377	56.14323	52.07488	-15.45973	-63.46626	0
83	35.80148	-73.2303	-109.03178	17.08707	70.78929	-91.13104	-89.5037	-44.75185	36.61515	42.31084	-17.90074	-61.02525	0
84	40.6835	-63.46626	-104.14976	9.76404	70.78929	-83.80801	-104.14976	-66.72094	17.08707	39.05616	-15.45973	-51.26121	0
85	45.56552	-53.70222	-99.26774	4.06835	70.78929	-76.48498	-123.67784	-98.45407	-12.20505	29.29212	-8.1367	-41.49717	0
86	50.44754	-56.14323	-106.59077	1.62734	78.11232	-81.367	-148.08794	-132.62821	-39.05616	24.4101	0	-31.73313	0
87	57.77057	-61.02525	-118.79582	1.62734	87.87636	-88.69003	-170.05703	-159.47932	-53.70222	31.73313	19.52808	-16.2734	0
88	82.18067	-58.58424	-140.76491	-13.01872	109.84545	-98.45407	-182.26208	-176.56639	-51.26121	61.83892	58.58424	10.57771	0
89	116.35481	-41.49717	-157.85198	-37.42882	136.69656	-98.45407	-194.46713	-186.33043	-29.29212	120.42316	117.16848	54.51589	0
90	157.85198	-12.20505	-170.05703	-74.04397	163.54767	-91.13104	-209.11319	-200.97649	7.32303	200.97649	197.72181	115.54114	0
91	204.23117	22.78276	-182.26208	-113.10013	192.83979	-78.92599	-245.72834	-230.26861	56.14323	308.38093	302.68524	200.97649	0
92	262.81541	86.24902	-177.38006	-174.12538	219.6909	-44.75185	-299.43056	-279.08881	117.98215	452.40052	444.26382	315.70396	0
93	336.04571	174.12538	-162.734	-254.67871	248.98302	7.32303	-387.30692	-369.40618	166.80235	613.50718	615.13452	459.72355	0
94	411.71702	291.29386	-121.23683	-352.31911	266.07009	85.43535	-504.4754	-501.22072	203.4175	786.81889	807.97431	628.15324	0
95	470.30126	423.1084	-48.00653	-447.5185	258.74706	187.95777	-636.28994	-676.97344	205.85851	935.7205	998.37309	799.02394	0
96	497.15237	557.36395	60.21158	-528.07183	219.6909	310.00827	-765.66347	-908.86939	139.95124	1023.59686	1157.03874	955.24858	0
97	489.82934	657.44536	167.61602	-574.45102	161.10666	412.53069	-868.18589	-1172.49847	-2.44101	1008.9508	1235.15106	1048.00696	0
98	438.56813	703.82455	265.25642	-572.01001	87.87636	485.76099	-936.53417	-1450.77361	-229.45494	869.81323	1208.29995	1055.32999	0
99	338.48672	703.82455	365.33783	-520.7488	-13.01872	534.58119	-968.2673	-1743.69481	-563.87331	574.45102	1054.51632	972.33565	0
100	209.11319	652.56334	443.45015	-430.43143	-117.98215	549.22725	-968.2673	-2026.85197	-981.28602	132.62821	778.68219	794.14192	1000	P+0
101	62.65259	569.569	506.91641	-315.70396	-222.94558	539.46321	-943.8572	-2290.48105	-1440.1959	-383.23857	427.17675	559.80496	0
102	-77.29865	457.28254	533.76752	-191.21245	-305.93992	495.52503	-919.4471	-2502.84892	-1877.13669	-908.05572	51.26121	298.61689	0
103	-199.34915	335.23204	533.76752	-69.16195	-366.96517	434.49978	-924.32912	-2661.51457	-2243.28819	-1369.40661	-301.0579	44.75185	0
104	-292.10753	242.47366	533.76752	24.4101	-413.34436	388.12059	-963.38528	-2761.59598	-2511.79929	-1725.79407	-584.21506	-158.66565	0
105	-350.69177	171.68437	521.56247	87.87636	-435.31345	346.62342	-1007.32346	-2786.00608	-2650.93686	-1950.36699	-781.93687	-307.56726	0
106	-377.54288	132.62821	509.35742	122.0505	-442.63648	319.77231	-1034.17457	-2717.6578	-2633.84979	-2001.6282	-867.37222	-385.67958	0
107	-382.4249	108.21811	489.82934	136.69656	-435.31345	297.80322	-1046.37962	-2576.07922	-2497.15323	-1928.3979	-874.69525	-412.53069	0
108	-367.77884	83.80801	450.77318	141.57858	-408.46234	266.07009	-1039.05659	-2378.35741	-2282.34435	-1777.05528	-833.19808	-412.53069	0
109	-343.36874	76.48498	419.04005	131.81454	-381.61123	246.54201	-990.23639	-2136.69742	-2028.47931	-1586.6565	-764.8498	-393.00261	0
110	-309.1946	83.80801	392.18894	112.28646	-349.8781	236.77797	-897.47801	-1868.18632	-1762.40922	-1388.93469	-689.17849	-366.1515	0
111	-272.57945	88.69003	360.45581	90.31737	-315.70396	224.57292	-787.63256	-1599.67522	-1506.10317	-1193.65389	-611.06617	-334.41837	0
112	-243.28733	93.57205	336.04571	73.2303	-288.85285	214.80888	-675.3461	-1343.36917	-1266.88419	-1013.01915	-537.83587	-302.68524	0
113	-213.99521	103.33609	316.51763	53.70222	-264.44275	209.92686	-565.50065	-1109.03221	-1052.07531	-851.91249	-471.9286	-275.83413	0
114	-179.82107	115.54114	294.54854	31.73313	-237.59164	205.04484	-460.53722	-896.66434	-854.3535	-705.45189	-410.90335	-246.54201	0
115	-143.20592	120.42316	262.81541	9.76404	-203.4175	190.39878	-367.77884	-711.14758	-676.15977	-576.07836	-352.31911	-222.13191	0
116	-116.35481	110.65912	226.20026	1.62734	-171.68437	168.42969	-289.66652	-552.48193	-517.49412	-463.7919	-305.93992	-205.04484	0
117	-99.26774	86.24902	184.70309	6.50936	-142.39225	134.25555	-221.31824	-418.22638	-380.79756	-368.59251	-264.44275	-192.83979	0
118	-82.18067	59.39791	140.76491	9.76404	-110.65912	100.08141	-160.29299	-303.49891	-263.62908	-283.15716	-227.8276	-180.63474	0
119	-69.97562	32.5468	101.70875	17.08707	-86.24902	65.90727	-109.03178	-205.85851	-165.98868	-207.48585	-193.65346	-168.42969	0
120	-60.21158	3.25468	62.65259	26.85111	-61.83892	31.73313	-65.0936	-122.86417	-87.87636	-141.57858	-161.92033	-156.22464	0
121	-57.77057	-24.4101	33.36047	39.05616	-47.19286	4.88202	-30.91946	-54.51589	-29.29212	-87.87636	-137.51023	-146.4606	0
122	-55.32956	-46.37919	8.95037	48.8202	-32.5468	-20.34175	-6.50936	1.62734	17.08707	-41.49717	-115.54114	-136.69656	0
123	-45.56552	-56.14323	-11.39138	48.8202	-17.90074	-34.98781	15.45973	55.32956	61.02525	0	-96.01306	-126.93252	0
124	-28.47845	-56.14323	-28.47845	41.49717	-0.81367	-42.31084	35.80148	102.52242	105.7771	36.61515	-76.48498	-117.16848	0
125	-8.95037	-46.37919	-38.24249	26.85111	14.64606	-42.31084	52.88855	141.57858	147.27427	66.72094	-59.39791	-102.52242	0
126	6.50936	-39.05616	-45.56552	14.64606	24.4101	-42.31084	62.65259	173.31171	183.88942	91.13104	-47.19286	-95.19939	0
127	13.83239	-39.05616	-52.88855	12.20505	31.73313	-44.75185	67.53461	192.83979	213.18154	105.7771	-39.86983	-92.75838	0
128	16.2734	-46.37919	-62.65259	14.64606	39.05616	-54.51589	69.97562	205.04484	235.15063	117.98215	-37.42882	-92.75838	0
129	13.83239	-58.58424	-72.41663	21.96909	41.49717	-64.27993	77.29865	212.36787	249.79669	125.30518	-37.42882	-95.19939	0
130	8.95037	-70.78929	-79.73966	29.29212	43.93818	-74.04397	82.18067	222.13191	257.11972	132.62821	-32.5468	-95.19939	0
131	1.62734	-85.43535	-87.06269	41.49717	43.93818	-86.24902	89.5037	231.89595	264.44275	142.39225	-30.10579	-95.19939	0
132	1.62734	-90.31737	-91.94471	43.93818	46.37919	-91.13104	101.70875	248.98302	276.6478	154.5973	-22.78276	-90.31737	0
133	6.50936	-92.75838	-99.26774	41.49717	51.26121	-96.01306	111.47279	268.5111	288.85285	169.24336	-13.01872	-85.43535	0
134	11.39138	-90.31737	-101.70875	39.05616	56.14323	-96.01306	118.79582	288.03918	305.93992	181.44841	-8.1367	-78.11232	0
135	16.2734	-85.43535	-101.70875	34.17414	58.58424	-93.57205	126.11885	305.12625	323.02699	193.65346	0	-70.78929	0
136	23.59643	-78.11232	-101.70875	26.85111	61.02525	-88.69003	131.00087	319.77231	337.67305	203.4175	7.32303	-65.90727	0
137	30.91946	-73.2303	-104.14976	19.52808	65.90727	-88.69003	133.44188	331.97736	352.31911	210.74053	12.20505	-61.02525	0
138	35.80148	-70.78929	-106.59077	17.08707	70.78929	-88.69003	133.44188	341.7414	362.08315	215.62255	17.08707	-61.02525	0
139	38.24249	-70.78929	-109.03178	14.64606	73.2303	-88.69003	135.88289	344.18241	362.08315	218.06356	17.08707	-61.02525	0
140	35.80148	-73.2303	-109.03178	17.08707	70.78929	-91.13104	140.76491	346.62342	357.20113	218.06356	17.08707	-63.46626	0
141	33.36047	-78.11232	-111.47279	21.96909	70.78929	-93.57205	143.20592	349.06443	354.76012	220.50457	17.08707	-63.46626	0
142	33.36047	-80.55333	-113.9138	21.96909	73.2303	-96.01306	148.08794	351.50544	352.31911	225.38659	19.52808	-61.02525	0
143	35.80148	-80.55333	-116.35481	21.96909	75.67131	-98.45407	152.96996	356.38746	357.20113	232.70962	24.4101	-58.58424	0
144	33.36047	-80.55333	-113.9138	21.96909	73.2303	-96.01306	155.41097	361.26948	366.96517	240.03265	24.4101	-56.14323	0
145	21.15542	-90.31737	-111.47279	34.17414	65.90727	-100.89508	152.96996	363.71049	374.2882	240.03265	24.4101	-56.14323	0
146	11.39138	-97.6404	-109.03178	41.49717	58.58424	-103.33609	148.08794	368.59251	384.05224	244.91467	24.4101	-56.14323	0
147	8.95037	-97.6404	-106.59077	43.93818	56.14323	-100.89508	148.08794	373.47453	393.81628	247.35568	29.29212	-53.70222	0
148	4.06835	-100.08141	-104.14976	46.37919	53.70222	-100.89508	143.20592	378.35655	398.6983	247.35568	31.73313	-53.70222	0
149	-4.06835	-104.96343	-101.70875	53.70222	48.8202	-103.33609	140.76491	380.79756	393.81628	244.91467	31.73313	-58.58424	0
150	-4.06835	-109.84545	-106.59077	56.14323	51.26121	-108.21811	140.76491	380.79756	391.37527	242.47366	34.17414	-58.58424	0
151	-0.81367	-107.40444	-106.59077	53.70222	51.26121	-105.7771	148.08794	385.67958	388.93426	244.91467	36.61515	-56.14323	0
152	4.06835	-104.96343	-109.03178	48.8202	56.14323	-105.7771	155.41097	390.5616	391.37527	252.2377	41.49717	-51.26121	0
153	11.39138	-97.6404	-109.03178	41.49717	58.58424	-103.33609	160.29299	397.88463	396.25729	259.56073	43.93818	-48.8202	0
154	23.59643	-87.87636	-111.47279	31.73313	65.90727	-98.45407	167.61602	405.20766	406.02133	269.32477	46.37919	-43.93818	0
155	33.36047	-73.2303	-106.59077	19.52808	68.34828	-88.69003	172.49804	414.9717	423.1084	276.6478	53.70222	-36.61515	0
156	40.6835	-63.46626	-104.14976	9.76404	70.78929	-83.80801	174.93905	424.73574	437.75446	283.97083	56.14323	-34.17414	0
157	43.12451	-56.14323	-99.26774	6.50936	70.78929	-76.48498	177.38006	434.49978	449.95951	291.29386	61.02525	-29.29212	0
158	40.6835	-58.58424	-99.26774	6.50936	68.34828	-78.92599	172.49804	441.82281	454.84153	291.29386	61.02525	-29.29212	0
159	35.80148	-58.58424	-94.38572	9.76404	63.46626	-76.48498	170.05703	446.70483	454.84153	291.29386	61.02525	-34.17414	0
160	30.91946	-63.46626	-94.38572	14.64606	61.02525	-78.92599	170.05703	451.58685	449.95951	288.85285	61.02525	-34.17414	0
161	26.03744	-68.34828	-94.38572	19.52808	58.58424	-81.367	170.05703	458.90988	447.5185	288.85285	58.58424	-36.61515	0
162	21.15542	-73.2303	-94.38572	24.4101	56.14323	-83.80801	172.49804	463.7919	445.07749	293.73487	58.58424	-36.61515	0
163	16.2734	-80.55333	-96.82673	31.73313	56.14323	-88.69003	172.49804	466.23291	447.5185	296.17588	56.14323	-36.61515	0
164	11.39138	-85.43535	-96.82673	36.61515	53.70222	-91.13104	172.49804	471.11493	452.40052	301.0579	53.70222	-39.05616	0
165	11.39138	-78.11232	-89.5037	31.73313	48.8202	-83.80801	177.38006	480.87897	467.04658	303.49891	53.70222	-36.61515	0
166	11.39138	-75.67131	-87.06269	31.73313	48.8202	-81.367	179.82107	488.202	479.25163	308.38093	56.14323	-34.17414	0
167	16.2734	-65.90727	-82.18067	24.4101	48.8202	-74.04397	184.70309	495.52503	493.89769	313.26295	58.58424	-31.73313	0
168	18.71441	-61.02525	-79.73966	19.52808	48.8202	-69.16195	187.1441	505.28907	501.22072	313.26295	61.02525	-29.29212	0
169	16.2734	-61.02525	-77.29865	21.96909	46.37919	-69.16195	189.58511	510.17109	503.66173	313.26295	61.02525	-31.73313	0
170	21.15542	-51.26121	-72.41663	14.64606	46.37919	-61.83892	196.90814	519.93513	506.10274	315.70396	63.46626	-29.29212	0
171	23.59643	-48.8202	-72.41663	12.20505	46.37919	-59.39791	204.23117	532.14018	506.10274	318.14497	63.46626	-29.29212	0
172	21.15542	-51.26121	-72.41663	14.64606	46.37919	-61.83892	209.11319	541.90422	506.10274	320.58598	63.46626	-29.29212	0
173	23.59643	-46.37919	-69.97562	9.76404	46.37919	-56.9569	211.5542	556.55028	513.42577	327.90901	63.46626	-26.85111	0
174	23.59643	-43.93818	-67.53461	9.76404	43.93818	-54.51589	213.99521	571.19634	518.30779	332.79103	63.46626	-24.4101	0
175	23.59643	-36.61515	-60.21158	6.50936	41.49717	-47.19286	218.87723	585.8424	528.07183	332.79103	63.46626	-24.4101	0
176	26.03744	-29.29212	-55.32956	1.62734	39.05616	-42.31084	221.31824	598.04745	537.83587	337.67305	61.02525	-21.15542	0
177	26.03744	-24.4101	-50.44754	-0.81367	36.61515	-37.42882	221.31824	607.81149	547.59991	337.67305	58.58424	-21.15542	0
178	30.91946	-17.08707	-48.00653	-8.1367	39.05616	-32.5468	221.31824	617.57553	554.92294	337.67305	56.14323	-21.15542	0
179	28.47845	-17.08707	-45.56552	-5.69569	36.61515	-30.10579	226.20026	624.89856	557.36395	335.23204	53.70222	-24.4101	0
180	16.2734	-21.96909	-38.24249	1.62734	26.85111	-30.10579	231.08228	627.33957	557.36395	327.90901	51.26121	-29.29212	0
181	13.83239	-24.4101	-38.24249	4.06835	24.4101	-30.10579	240.84632	632.22159	554.92294	325.468	48.8202	-31.73313	0
182	13.83239	-21.96909	-35.80148	4.06835	24.4101	-27.66478	250.61036	639.54462	554.92294	325.468	53.70222	-31.73313	0
183	4.06835	-26.85111	-30.91946	9.76404	17.08707	-27.66478	257.93339	644.42664	554.92294	325.468	58.58424	-34.17414	0
184	-0.81367	-26.85111	-26.03744	12.20505	12.20505	-25.22377	265.25642	649.30866	559.80496	323.02699	58.58424	-34.17414	0
185	-4.06835	-21.96909	-18.71441	12.20505	7.32303	-20.34175	272.57945	656.63169	562.24597	320.58598	58.58424	-34.17414	0
186	-4.06835	-14.64606	-11.39138	6.50936	1.62734	-13.01872	277.46147	663.95472	564.68698	318.14497	58.58424	-34.17414	0
187	-4.06835	-8.95037	-5.69569	6.50936	1.62734	-7.32303	284.7845	671.27775	569.569	315.70396	56.14323	-29.29212	0
188	-8.95037	-4.06835	4.06835	6.50936	-5.69569	0	287.22551	676.15977	569.569	308.38093	53.70222	-29.29212	0
189	-8.95037	3.25468	11.39138	1.62734	-10.57771	7.32303	294.54854	681.04179	564.68698	301.0579	48.8202	-29.29212	0
190	-6.50936	13.01872	18.71441	-3.25468	-13.01872	14.64606	304.31258	683.4828	559.80496	291.29386	46.37919	-29.29212	0
191	-4.06835	25.22377	28.47845	-10.57771	-15.45973	26.85111	314.07662	685.92381	552.48193	286.41184	46.37919	-29.29212	0
192	-6.50936	27.66478	33.36047	-10.57771	-20.34175	29.29212	321.39965	685.92381	542.71789	279.08881	43.93818	-29.29212	0
193	-21.15542	20.34175	40.6835	-0.81367	-30.10579	29.29212	321.39965	676.15977	530.51284	269.32477	39.05616	-29.29212	0
194	-28.47845	20.34175	48.00653	4.06835	-37.42882	34.17414	323.84066	668.83674	520.7488	262.00174	31.73313	-29.29212	0
195	-33.36047	30.10579	62.65259	1.62734	-47.19286	46.37919	328.72268	663.95472	510.98476	249.79669	29.29212	-29.29212	0
196	-35.80148	39.86983	74.85764	-3.25468	-54.51589	56.14323	333.6047	659.0727	503.66173	240.03265	26.85111	-26.85111	0
197	-40.6835	47.19286	87.06269	-3.25468	-64.27993	65.90727	336.04571	651.74967	493.89769	227.8276	24.4101	-26.85111	0
198	-43.12451	52.07488	94.38572	-5.69569	-69.16195	73.2303	336.04571	641.98563	479.25163	210.74053	14.64606	-29.29212	0
199	-40.6835	64.27993	104.14976	-13.01872	-71.60296	82.99434	338.48672	629.78058	462.16456	191.21245	7.32303	-34.17414	0
200	-35.80148	81.367	116.35481	-22.78276	-76.48498	97.6404	340.92773	620.01654	447.5185	171.68437	7.32303	-34.17414	0
201	-35.80148	86.24902	121.23683	-25.22377	-78.92599	102.52242	343.36874	607.81149	425.54941	154.5973	2.44101	-36.61515	0
202	-40.6835	86.24902	126.11885	-22.78276	-83.80801	104.96343	340.92773	593.16543	403.58032	137.51023	-2.44101	-36.61515	0
203	-48.00653	83.80801	131.00087	-17.90074	-88.69003	107.40444	336.04571	576.07836	379.17022	120.42316	-8.1367	-36.61515	0
204	-52.88855	81.367	133.44188	-15.45973	-93.57205	107.40444	328.72268	556.55028	354.76012	100.89508	-13.01872	-36.61515	0
205	-60.21158	88.69003	148.08794	-15.45973	-103.33609	117.16848	326.28167	537.0222	330.35002	81.367	-17.90074	-34.17414	0
206	-62.65259	93.57205	155.41097	-15.45973	-108.21811	124.49151	321.39965	515.05311	310.82194	64.27993	-25.22377	-31.73313	0
207	-69.97562	93.57205	162.734	-13.01872	-115.54114	126.93252	316.51763	488.202	283.97083	39.05616	-32.5468	-31.73313	0
208	-74.85764	96.01306	170.05703	-10.57771	-122.86417	131.81454	306.75359	458.90988	254.67871	14.64606	-44.75185	-39.05616	0
209	-79.73966	96.01306	174.93905	-8.1367	-127.74619	134.25555	299.43056	422.29473	220.50457	-14.64606	-56.9569	-43.93818	0
210	-87.06269	96.01306	182.26208	-5.69569	-135.06922	139.13757	292.10753	388.12059	183.88942	-43.93818	-64.27993	-51.26121	0
211	-89.5037	96.01306	184.70309	-3.25468	-137.51023	139.13757	284.7845	353.94645	147.27427	-70.78929	-71.60296	-56.14323	0
212	-94.38572	93.57205	187.1441	-0.81367	-139.95124	139.13757	275.02046	319.77231	110.65912	-95.19939	-78.92599	-56.14323	0
213	-99.26774	91.13104	189.58511	4.06835	-144.83326	139.13757	260.3744	285.59817	73.2303	-119.60949	-86.24902	-61.02525	0
214	-99.26774	91.13104	189.58511	4.06835	-144.83326	139.13757	248.16935	251.42403	36.61515	-144.01959	-96.01306	-61.02525	0
215	-104.14976	96.01306	199.34915	4.06835	-152.15629	146.4606	233.52329	214.80888	2.44101	-170.8707	-103.33609	-63.46626	0
216	-104.14976	103.33609	206.67218	-0.81367	-154.5973	153.78363	218.87723	178.19373	-29.29212	-192.83979	-113.10013	-65.90727	0
217	-104.14976	108.21811	211.5542	-3.25468	-157.03831	158.66565	201.79016	139.13757	-65.90727	-219.6909	-122.86417	-70.78929	0
218	-104.14976	103.33609	206.67218	-0.81367	-154.5973	153.78363	179.82107	94.38572	-102.52242	-251.42403	-137.51023	-80.55333	0
219	-109.03178	96.01306	204.23117	6.50936	-157.03831	148.90161	160.29299	50.44754	-141.57858	-283.15716	-152.15629	-92.75838	0
220	-118.79582	83.80801	201.79016	17.08707	-159.47932	141.57858	143.20592	6.50936	-183.07575	-314.89029	-164.36134	-107.40444	0
221	-128.55986	64.27993	192.02612	31.73313	-159.47932	126.93252	126.11885	-32.5468	-219.6909	-339.30039	-179.0074	-117.16848	0
222	-135.88289	44.75185	179.82107	43.93818	-157.03831	112.28646	109.03178	-66.72094	-251.42403	-358.82847	-188.77144	-126.93252	0
223	-140.76491	25.22377	165.17501	56.14323	-152.15629	95.19939	91.94471	-96.01306	-280.71615	-373.47453	-198.53548	-134.25555	0
224	-143.20592	10.57771	152.96996	65.90727	-147.27427	80.55333	74.85764	-122.86417	-300.24423	-385.67958	-205.85851	-139.13757	0
225	-140.76491	10.57771	150.52895	63.46626	-144.83326	80.55333	65.0936	-139.95124	-314.89029	-393.00261	-208.29952	-139.13757	0
226	-123.67784	20.34175	143.20592	51.26121	-132.62821	80.55333	60.21158	-152.15629	-319.77231	-393.00261	-208.29952	-134.25555	0
227	-106.59077	30.10579	135.88289	36.61515	-120.42316	82.99434	52.88855	-161.92033	-322.21332	-390.5616	-205.85851	-131.81454	0
228	-91.94471	34.98781	126.11885	26.85111	-108.21811	80.55333	45.56552	-171.68437	-324.65433	-393.00261	-203.4175	-131.81454	0
229	-77.29865	39.86983	116.35481	17.08707	-96.01306	78.11232	38.24249	-183.88942	-329.53635	-390.5616	-200.97649	-131.81454	0
230	-67.53461	42.31084	109.03178	12.20505	-88.69003	75.67131	38.24249	-191.21245	-331.97736	-390.5616	-193.65346	-131.81454	0
231	-62.65259	34.98781	96.82673	12.20505	-78.92599	65.90727	32.5468	-200.97649	-331.97736	-383.23857	-191.21245	-134.25555	0
232	-67.53461	17.90074	84.62168	24.4101	-76.48498	51.26121	27.66478	-205.85851	-331.97736	-378.35655	-188.77144	-134.25555	0
233	-77.29865	-4.06835	72.41663	39.05616	-74.04397	34.17414	17.90074	-213.18154	-331.97736	-368.59251	-186.33043	-136.69656	0
234	-82.18067	-17.08707	65.0936	48.8202	-74.04397	24.4101	8.1367	-218.06356	-324.65433	-358.82847	-186.33043	-136.69656	0
235	-87.06269	-24.4101	62.65259	53.70222	-76.48498	19.52808	3.25468	-220.50457	-317.3313	-346.62342	-181.44841	-131.81454	0
236	-87.06269	-29.29212	57.77057	56.14323	-74.04397	14.64606	-4.06835	-218.06356	-305.12625	-331.97736	-176.56639	-129.37353	0
237	-87.06269	-31.73313	55.32956	58.58424	-71.60296	12.20505	-8.95037	-213.18154	-292.9212	-319.77231	-169.24336	-126.93252	0
238	-84.62168	-34.17414	50.44754	58.58424	-69.16195	7.32303	-13.83239	-208.29952	-278.27514	-310.00827	-164.36134	-124.49151	0
239	-74.85764	-34.17414	40.6835	53.70222	-59.39791	2.44101	-13.83239	-200.97649	-268.5111	-297.80322	-154.5973	-124.49151	0
240	-65.0936	-29.29212	35.80148	46.37919	-52.07488	2.44101	-8.95037	-193.65346	-253.86504	-288.03918	-144.83326	-122.0505	0
241	-57.77057	-31.73313	26.03744	43.93818	-42.31084	-2.44101	-1.62734	-188.77144	-241.65999	-273.39312	-137.51023	-119.60949	0
242	-52.88855	-36.61515	16.2734	43.93818	-34.98781	-10.57771	3.25468	-181.44841	-229.45494	-256.30605	-127.74619	-112.28646	0
243	-48.00653	-39.05616	8.95037	41.49717	-30.10579	-15.45973	5.69569	-174.12538	-214.80888	-236.77797	-120.42316	-107.40444	0
244	-38.24249	-36.61515	1.62734	36.61515	-20.34175	-17.90074	8.1367	-166.80235	-200.16282	-219.6909	-113.10013	-102.52242	0
245	-35.80148	-34.17414	1.62734	34.17414	-20.34175	-17.90074	5.69569	-161.92033	-185.51676	-205.04484	-108.21811	-95.19939	0
246	-35.80148	-34.17414	1.62734	34.17414	-20.34175	-17.90074	0.81367	-154.5973	-168.42969	-190.39878	-103.33609	-92.75838	0
247	-35.80148	-31.73313	4.06835	31.73313	-20.34175	-15.45973	-4.06835	-147.27427	-156.22464	-178.19373	-98.45407	-87.87636	0
248	-33.36047	-29.29212	4.06835	29.29212	-20.34175	-13.01872	-8.95037	-139.95124	-144.01959	-170.8707	-93.57205	-87.87636	0
249	-26.03744	-21.96909	4.06835	21.96909	-15.45973	-10.57771	-8.95037	-132.62821	-134.25555	-161.10666	-86.24902	-87.87636	0
250	-21.15542	-19.52808	1.62734	19.52808	-13.01872	-10.57771	-6.50936	-127.74619	-124.49151	-156.22464	-78.92599	-85.43535	0
251	-21.15542	-26.85111	-5.69569	21.96909	-8.1367	-17.90074	-1.62734	-122.86417	-117.16848	-146.4606	-74.04397	-87.87636	0
252	-18.71441	-31.73313	-13.83239	24.4101	-3.25468	-22.78276	3.25468	-117.98215	-109.84545	-134.25555	-69.16195	-85.43535	0
253	-18.71441	-41.49717	-23.59643	29.29212	1.62734	-32.5468	3.25468	-115.54114	-102.52242	-124.49151	-66.72094	-82.99434	0
254	-18.71441	-41.49717	-23.59643	29.29212	1.62734	-32.5468	3.25468	-110.65912	-95.19939	-112.28646	-64.27993	-78.11232	0
255	-23.59643	-46.37919	-23.59643	34.17414	-0.81367	-34.98781	3.25468	-108.21811	-87.87636	-104.96343	-64.27993	-75.67131	0
256	-33.36047	-53.70222	-21.15542	41.49717	-8.1367	-37.42882	0.81367	-105.7771	-78.11232	-95.19939	-64.27993	-75.67131	0
257	-33.36047	-48.8202	-16.2734	39.05616	-10.57771	-32.5468	0.81367	-98.45407	-68.34828	-90.31737	-59.39791	-73.2303	0
258	-30.91946	-48.8202	-18.71441	39.05616	-8.1367	-34.98781	0.81367	-91.13104	-61.02525	-85.43535	-56.9569	-70.78929	0
259	-23.59643	-41.49717	-18.71441	31.73313	-3.25468	-30.10579	3.25468	-86.24902	-56.14323	-80.55333	-52.07488	-70.78929	0
260	-18.71441	-34.17414	-16.2734	24.4101	-3.25468	-25.22377	10.57771	-78.92599	-48.8202	-78.11232	-44.75185	-70.78929	0
261	-11.39138	-29.29212	-18.71441	19.52808	1.62734	-25.22377	17.90074	-74.04397	-43.93818	-70.78929	-39.86983	-68.34828	0
262	-6.50936	-31.73313	-26.03744	17.08707	9.76404	-30.10579	20.34175	-71.60296	-39.05616	-63.46626	-34.98781	-65.90727	0
263	-8.95037	-39.05616	-30.91946	21.96909	9.76404	-34.98781	17.90074	-71.60296	-36.61515	-56.14323	-34.98781	-63.46626	0
264	-6.50936	-36.61515	-30.91946	19.52808	12.20505	-34.98781	17.90074	-69.16195	-29.29212	-48.8202	-32.5468	-58.58424	0
265	-8.95037	-36.61515	-28.47845	21.96909	9.76404	-32.5468	17.90074	-66.72094	-24.4101	-43.93818	-30.10579	-53.70222	0
266	-8.95037	-31.73313	-23.59643	19.52808	7.32303	-27.66478	15.45973	-61.83892	-17.08707	-36.61515	-27.66478	-48.8202	0
267	-6.50936	-29.29212	-23.59643	17.08707	7.32303	-27.66478	13.01872	-59.39791	-12.20505	-34.17414	-22.78276	-46.37919	0
268	-8.95037	-34.17414	-26.03744	19.52808	7.32303	-30.10579	8.1367	-56.9569	-9.76404	-34.17414	-25.22377	-48.8202	0
269	-8.95037	-31.73313	-23.59643	19.52808	7.32303	-27.66478	10.57771	-56.9569	-12.20505	-36.61515	-25.22377	-53.70222	0
270	-11.39138	-31.73313	-21.15542	19.52808	4.88202	-27.66478	13.01872	-56.9569	-17.08707	-41.49717	-25.22377	-58.58424	0
271	-11.39138	-36.61515	-26.03744	21.96909	7.32303	-32.5468	15.45973	-59.39791	-17.08707	-39.05616	-25.22377	-61.02525	0
272	-18.71441	-48.8202	-30.91946	31.73313	4.88202	-39.86983	17.90074	-59.39791	-17.08707	-39.05616	-25.22377	-63.46626	0
273	-23.59643	-56.14323	-33.36047	39.05616	4.88202	-44.75185	17.90074	-59.39791	-19.52808	-34.17414	-27.66478	-63.46626	0
274	-21.15542	-53.70222	-33.36047	36.61515	4.88202	-44.75185	20.34175	-59.39791	-14.64606	-31.73313	-27.66478	-58.58424	0
275	-18.71441	-48.8202	-30.91946	31.73313	4.88202	-39.86983	22.78276	-54.51589	-9.76404	-29.29212	-25.22377	-53.70222	0
276	-21.15542	-48.8202	-28.47845	34.17414	1.62734	-39.86983	22.78276	-49.63387	-2.44101	-24.4101	-25.22377	-48.8202	0
277	-21.15542	-41.49717	-21.15542	29.29212	-0.81367	-32.5468	20.34175	-44.75185	2.44101	-21.96909	-22.78276	-46.37919	0
278	-16.2734	-34.17414	-18.71441	24.4101	-0.81367	-27.66478	17.90074	-44.75185	4.88202	-21.96909	-22.78276	-48.8202	1500	QRS+0
279	-8.95037	-24.4101	-16.2734	14.64606	1.62734	-20.34175	17.90074	-44.75185	2.44101	-24.4101	-20.34175	-51.26121	0
280	-6.50936	-21.96909	-16.2734	12.20505	4.88202	-20.34175	20.34175	-44.75185	0	-29.29212	-17.90074	-53.70222	0
281	-6.50936	-21.96909	-16.2734	12.20505	4.88202	-20.34175	22.78276	-44.75185	-2.44101	-26.85111	-15.45973	-58.58424	0
282	-4.06835	-24.4101	-21.15542	12.20505	7.32303	-22.78276	22.78276	-44.75185	-4.88202	-26.85111	-15.45973	-56.14323	0
283	-4.06835	-26.85111	-23.59643	14.64606	9.76404	-25.22377	20.34175	-47.19286	-4.88202	-21.96909	-15.45973	-53.70222	0
284	-4.06835	-31.73313	-28.47845	17.08707	12.20505	-30.10579	15.45973	-49.63387	-7.32303	-21.96909	-17.90074	-51.26121	0
285	-16.2734	-36.61515	-21.15542	24.4101	1.62734	-30.10579	10.57771	-54.51589	-9.76404	-24.4101	-20.34175	-48.8202	0
286	-28.47845	-43.93818	-16.2734	34.17414	-8.1367	-30.10579	5.69569	-54.51589	-12.20505	-24.4101	-25.22377	-46.37919	0
287	-33.36047	-46.37919	-13.83239	39.05616	-10.57771	-30.10579	-1.62734	-52.07488	-9.76404	-24.4101	-25.22377	-46.37919	0
288	-30.91946	-46.37919	-16.2734	36.61515	-8.1367	-32.5468	-4.06835	-47.19286	-7.32303	-26.85111	-25.22377	-46.37919	0
289	-30.91946	-43.93818	-13.83239	36.61515	-10.57771	-30.10579	-4.06835	-44.75185	-9.76404	-29.29212	-25.22377	-48.8202	0
290	-23.59643	-34.17414	-11.39138	26.85111	-8.1367	-22.78276	0.81367	-42.31084	-9.76404	-34.17414	-20.34175	-51.26121	0
291	-11.39138	-26.85111	-16.2734	17.08707	1.62734	-22.78276	10.57771	-37.42882	-7.32303	-31.73313	-17.90074	-51.26121	0
292	-4.06835	-21.96909	-18.71441	12.20505	7.32303	-20.34175	15.45973	-34.98781	-7.32303	-26.85111	-13.01872	-48.8202	0
293	-0.81367	-26.85111	-26.03744	12.20505	12.20505	-25.22377	15.45973	-37.42882	-9.76404	-24.4101	-15.45973	-48.8202	0
294	-4.06835	-31.73313	-28.47845	17.08707	12.20505	-30.10579	13.01872	-42.31084	-14.64606	-26.85111	-20.34175	-48.8202	0
295	-6.50936	-31.73313	-26.03744	17.08707	9.76404	-30.10579	8.1367	-44.75185	-17.08707	-26.85111	-22.78276	-43.93818	0
296	-16.2734	-36.61515	-21.15542	24.4101	1.62734	-30.10579	0.81367	-49.63387	-17.08707	-29.29212	-27.66478	-43.93818	0
297	-28.47845	-46.37919	-18.71441	36.61515	-5.69569	-32.5468	-8.95037	-52.07488	-21.96909	-34.17414	-32.5468	-43.93818	0
298	-35.80148	-51.26121	-16.2734	41.49717	-10.57771	-34.98781	-18.71441	-56.9569	-24.4101	-41.49717	-37.42882	-48.8202	0
299	-33.36047	-48.8202	-16.2734	39.05616	-10.57771	-32.5468	-18.71441	-56.9569	-26.85111	-43.93818	-37.42882	-53.70222	0
300	-26.03744	-41.49717	-16.2734	31.73313	-5.69569	-30.10579	-13.83239	-56.9569	-26.85111	-46.37919	-32.5468	-56.14323	0
301	-23.59643	-43.93818	-21.15542	31.73313	-3.25468	-32.5468	-8.95037	-56.9569	-29.29212	-46.37919	-30.10579	-61.02525	0
302	-21.15542	-46.37919	-26.03744	31.73313	1.62734	-37.42882	-4.06835	-54.51589	-29.29212	-43.93818	-25.22377	-61.02525	0
303	-13.83239	-46.37919	-33.36047	29.29212	9.76404	-39.86983	0.81367	-54.51589	-31.73313	-39.05616	-22.78276	-58.58424	0
304	-4.06835	-34.17414	-30.91946	17.08707	12.20505	-32.5468	8.1367	-52.07488	-26.85111	-31.73313	-17.90074	-51.26121	0
305	1.62734	-26.85111	-28.47845	12.20505	14.64606	-27.66478	8.1367	-52.07488	-26.85111	-31.73313	-15.45973	-43.93818	0
306	-4.06835	-29.29212	-26.03744	14.64606	9.76404	-27.66478	0.81367	-52.07488	-26.85111	-29.29212	-20.34175	-43.93818	0
307	-11.39138	-36.61515	-26.03744	21.96909	7.32303	-32.5468	-6.50936	-54.51589	-26.85111	-34.17414	-20.34175	-43.93818	0
308	-21.15542	-46.37919	-26.03744	31.73313	1.62734	-37.42882	-18.71441	-59.39791	-31.73313	-41.49717	-27.66478	-48.8202	0
309	-26.03744	-53.70222	-28.47845	39.05616	-0.81367	-42.31084	-21.15542	-64.27993	-36.61515	-48.8202	-30.10579	-56.14323	0
310	-30.91946	-61.02525	-30.91946	43.93818	-0.81367	-47.19286	-21.15542	-69.16195	-41.49717	-56.14323	-30.10579	-63.46626	0
311	-33.36047	-70.78929	-38.24249	51.26121	1.62734	-54.51589	-16.2734	-69.16195	-43.93818	-56.14323	-30.10579	-70.78929	0
312	-30.91946	-73.2303	-43.12451	51.26121	4.88202	-59.39791	-11.39138	-69.16195	-43.93818	-53.70222	-27.66478	-70.78929	0
313	-23.59643	-73.2303	-50.44754	46.37919	12.20505	-61.83892	-6.50936	-69.16195	-41.49717	-46.37919	-25.22377	-65.90727	0
314	-11.39138	-63.46626	-52.88855	36.61515	19.52808	-59.39791	0.81367	-64.27993	-34.17414	-39.05616	-22.78276	-58.58424	0
315	-4.06835	-51.26121	-48.00653	26.85111	21.96909	-49.63387	3.25468	-61.83892	-26.85111	-36.61515	-17.90074	-48.8202	0
316	-4.06835	-48.8202	-45.56552	24.4101	19.52808	-47.19286	-1.62734	-61.83892	-21.96909	-31.73313	-17.90074	-46.37919	0
317	-8.95037	-51.26121	-43.12451	29.29212	17.08707	-47.19286	-11.39138	-61.83892	-17.08707	-34.17414	-17.90074	-43.93818	0
318	-21.15542	-61.02525	-40.6835	39.05616	9.76404	-52.07488	-23.59643	-61.83892	-17.08707	-39.05616	-22.78276	-51.26121	0
319	-23.59643	-63.46626	-40.6835	41.49717	7.32303	-52.07488	-28.47845	-64.27993	-19.52808	-43.93818	-22.78276	-56.14323	0
320	-28.47845	-65.90727	-38.24249	46.37919	4.88202	-52.07488	-28.47845	-66.72094	-21.96909	-48.8202	-22.78276	-65.90727	0
321	-26.03744	-68.34828	-43.12451	46.37919	7.32303	-56.9569	-26.03744	-69.16195	-21.96909	-48.8202	-22.78276	-70.78929	0
322	-13.83239	-61.02525	-48.00653	36.61515	17.08707	-54.51589	-23.59643	-64.27993	-19.52808	-41.49717	-17.90074	-65.90727	0
323	-4.06835	-56.14323	-52.88855	29.29212	24.4101	-54.51589	-21.15542	-64.27993	-14.64606	-31.73313	-15.45973	-61.02525	0
324	4.06835	-48.8202	-52.88855	21.96909	26.85111	-49.63387	-16.2734	-64.27993	-12.20505	-26.85111	-13.01872	-53.70222	0
325	13.83239	-39.05616	-52.88855	12.20505	31.73313	-44.75185	-13.83239	-61.83892	-7.32303	-19.52808	-8.1367	-41.49717	0
326	16.2734	-31.73313	-48.00653	6.50936	31.73313	-39.86983	-13.83239	-56.9569	2.44101	-12.20505	-8.1367	-34.17414	0
327	16.2734	-26.85111	-43.12451	4.06835	29.29212	-34.98781	-16.2734	-52.07488	7.32303	-9.76404	-2.44101	-26.85111	0
328	6.50936	-36.61515	-43.12451	14.64606	24.4101	-39.86983	-23.59643	-52.07488	7.32303	-14.64606	-4.88202	-29.29212	0
329	-0.81367	-46.37919	-45.56552	21.96909	21.96909	-44.75185	-28.47845	-52.07488	2.44101	-21.96909	-8.1367	-36.61515	0
330	-4.06835	-48.8202	-45.56552	24.4101	19.52808	-47.19286	-28.47845	-54.51589	2.44101	-26.85111	-8.1367	-39.05616	0
331	-6.50936	-56.14323	-50.44754	29.29212	21.96909	-54.51589	-30.91946	-56.9569	0	-26.85111	-8.1367	-43.93818	0
332	-6.50936	-63.46626	-57.77057	34.17414	24.4101	-61.83892	-30.91946	-54.51589	0	-24.4101	-8.1367	-41.49717	0
333	-4.06835	-65.90727	-62.65259	34.17414	29.29212	-64.27993	-33.36047	-54.51589	-2.44101	-19.52808	-4.88202	-36.61515	0
334	6.50936	-61.02525	-67.53461	26.85111	36.61515	-64.27993	-33.36047	-49.63387	2.44101	-12.20505	-2.44101	-29.29212	0
335	13.83239	-48.8202	-62.65259	17.08707	36.61515	-54.51589	-30.91946	-47.19286	7.32303	-4.88202	2.44101	-18.71441	0
336	16.2734	-46.37919	-62.65259	14.64606	39.05616	-54.51589	-33.36047	-44.75185	14.64606	2.44101	4.88202	-8.95037	0
337	13.83239	-43.93818	-57.77057	14.64606	34.17414	-49.63387	-40.6835	-42.31084	19.52808	4.88202	7.32303	-1.62734	0
338	13.83239	-43.93818	-57.77057	14.64606	34.17414	-49.63387	-45.56552	-42.31084	21.96909	4.88202	9.76404	0.81367	0
339	13.83239	-43.93818	-57.77057	14.64606	34.17414	-49.63387	-50.44754	-44.75185	21.96909	4.88202	12.20505	0.81367	0
340	8.95037	-53.70222	-62.65259	21.96909	34.17414	-56.9569	-50.44754	-49.63387	19.52808	0	14.64606	-1.62734	0
341	4.06835	-63.46626	-67.53461	29.29212	34.17414	-64.27993	-50.44754	-49.63387	19.52808	0	19.52808	-4.06835	0
342	4.06835	-65.90727	-69.97562	29.29212	36.61515	-66.72094	-48.00653	-44.75185	19.52808	4.88202	24.4101	-1.62734	0
343	13.83239	-65.90727	-79.73966	24.4101	46.37919	-71.60296	-45.56552	-37.42882	21.96909	12.20505	26.85111	3.25468	0
344	18.71441	-63.46626	-82.18067	21.96909	48.8202	-71.60296	-45.56552	-32.5468	21.96909	14.64606	26.85111	8.1367	0
345	16.2734	-63.46626	-79.73966	21.96909	46.37919	-71.60296	-48.00653	-30.10579	21.96909	14.64606	26.85111	15.45973	0
346	16.2734	-61.02525	-77.29865	21.96909	46.37919	-69.16195	-52.88855	-27.66478	24.4101	19.52808	26.85111	22.78276	0
347	11.39138	-61.02525	-72.41663	24.4101	41.49717	-66.72094	-60.21158	-27.66478	26.85111	19.52808	26.85111	27.66478	0
348	4.06835	-63.46626	-67.53461	29.29212	34.17414	-64.27993	-67.53461	-32.5468	26.85111	17.08707	26.85111	27.66478	0
349	4.06835	-58.58424	-62.65259	26.85111	31.73313	-59.39791	-67.53461	-37.42882	29.29212	17.08707	31.73313	30.10579	0
350	11.39138	-41.49717	-52.88855	14.64606	31.73313	-47.19286	-57.77057	-34.98781	36.61515	21.96909	41.49717	34.98781	0
351	18.71441	-24.4101	-43.12451	1.62734	29.29212	-32.5468	-48.00653	-27.66478	43.93818	31.73313	51.26121	42.31084	0
352	26.03744	-12.20505	-38.24249	-8.1367	31.73313	-25.22377	-38.24249	-15.45973	53.70222	42.31084	61.02525	49.63387	0
353	35.80148	0.81367	-35.80148	-17.90074	36.61515	-17.90074	-28.47845	-0.81367	63.46626	54.51589	65.90727	59.39791	0
354	52.88855	22.78276	-30.91946	-37.42882	41.49717	-2.44101	-21.15542	16.2734	75.67131	64.27993	73.2303	69.16195	0
355	60.21158	34.98781	-26.03744	-47.19286	43.93818	4.88202	-13.83239	26.03744	80.55333	74.04397	78.11232	78.92599	0
356	57.77057	39.86983	-18.71441	-49.63387	39.05616	12.20505	-13.83239	26.03744	86.24902	78.92599	80.55333	83.80801	0
357	55.32956	42.31084	-13.83239	-49.63387	34.17414	14.64606	-16.2734	26.03744	91.13104	78.92599	82.99434	88.69003	0
358	57.77057	49.63387	-8.95037	-54.51589	34.17414	21.96909	-16.2734	26.03744	96.01306	81.367	85.43535	88.69003	0
359	57.77057	52.07488	-5.69569	-54.51589	31.73313	24.4101	-13.83239	21.15542	96.01306	81.367	85.43535	86.24902	0
360	48.00653	47.19286	-0.81367	-47.19286	24.4101	24.4101	-8.95037	21.15542	96.01306	78.92599	85.43535	81.367	0
361	38.24249	39.86983	1.62734	-39.86983	19.52808	21.96909	-8.95037	28.47845	98.45407	81.367	87.87636	78.92599	0
362	33.36047	34.98781	1.62734	-34.98781	17.08707	19.52808	-6.50936	43.12451	100.89508	83.80801	87.87636	78.92599	0
363	28.47845	30.10579	1.62734	-30.10579	14.64606	17.08707	-8.95037	52.88855	100.89508	86.24902	87.87636	78.92599	0
364	18.71441	22.78276	4.06835	-20.34175	7.32303	14.64606	-11.39138	57.77057	100.89508	88.69003	87.87636	78.92599	-1500	QRS-0
365	26.03744	34.98781	8.95037	-30.10579	9.76404	21.96909	-11.39138	62.65259	108.21811	96.01306	92.75838	88.69003	0
366	43.12451	56.9569	13.83239	-49.63387	14.64606	36.61515	-16.2734	60.21158	115.54114	105.7771	104.96343	98.45407	0
367	55.32956	71.60296	16.2734	-64.27993	19.52808	43.93818	-30.91946	48.00653	117.98215	108.21811	109.84545	105.7771	0
368	62.65259	76.48498	13.83239	-69.16195	24.4101	46.37919	-45.56552	33.36047	117.98215	110.65912	112.28646	105.7771	0
369	69.97562	83.80801	13.83239	-76.48498	29.29212	48.8202	-60.21158	21.15542	115.54114	108.21811	112.28646	103.33609	0
370	87.06269	96.01306	8.95037	-91.13104	39.05616	53.70222	-67.53461	13.83239	113.10013	105.7771	114.72747	103.33609	0
371	94.38572	98.45407	4.06835	-96.01306	46.37919	51.26121	-77.29865	8.95037	108.21811	105.7771	117.16848	98.45407	0
372	82.18067	81.367	-0.81367	-81.367	41.49717	41.49717	-91.94471	8.95037	98.45407	100.89508	109.84545	93.57205	0
373	77.29865	74.04397	-3.25468	-76.48498	41.49717	36.61515	-104.14976	11.39138	93.57205	98.45407	107.40444	91.13104	0
374	79.73966	78.92599	-0.81367	-78.92599	41.49717	39.05616	-111.47279	13.83239	88.69003	100.89508	109.84545	93.57205	0
375	79.73966	83.80801	4.06835	-81.367	39.05616	43.93818	-121.23683	13.83239	86.24902	100.89508	112.28646	98.45407	0
376	74.85764	83.80801	8.95037	-78.92599	34.17414	46.37919	-135.88289	8.95037	83.80801	100.89508	112.28646	100.89508	0
377	69.97562	78.92599	8.95037	-74.04397	31.73313	43.93818	-150.52895	1.62734	80.55333	96.01306	109.84545	100.89508	0
378	77.29865	83.80801	6.50936	-81.367	36.61515	46.37919	-162.734	-3.25468	78.11232	96.01306	109.84545	100.89508	0
379	89.5037	86.24902	-3.25468	-88.69003	46.37919	41.49717	-172.49804	-10.57771	75.67131	91.13104	109.84545	96.01306	0
380	94.38572	83.80801	-11.39138	-88.69003	53.70222	36.61515	-179.82107	-20.34175	65.90727	78.92599	104.96343	88.69003	0
381	104.14976	76.48498	-28.47845	-91.13104	65.90727	24.4101	-179.82107	-27.66478	58.58424	76.48498	102.52242	83.80801	0
382	109.03178	66.72094	-43.12451	-88.69003	75.67131	12.20505	-179.82107	-30.10579	56.14323	74.04397	102.52242	78.92599	0
383	116.35481	59.39791	-57.77057	-88.69003	87.87636	2.44101	-174.93905	-25.22377	56.14323	74.04397	97.6404	76.48498	0
384	111.47279	47.19286	-65.0936	-78.92599	87.87636	-7.32303	-170.05703	-25.22377	53.70222	71.60296	95.19939	74.04397	0
385	99.26774	32.5468	-67.53461	-66.72094	82.99434	-17.90074	-167.61602	-22.78276	53.70222	66.72094	87.87636	69.16195	0
386	87.06269	20.34175	-67.53461	-54.51589	78.11232	-22.78276	-162.734	-17.90074	56.14323	66.72094	85.43535	66.72094	0
387	77.29865	13.01872	-65.0936	-44.75185	70.78929	-25.22377	-155.41097	-8.1367	61.02525	66.72094	82.99434	66.72094	0
388	67.53461	3.25468	-65.0936	-34.98781	65.90727	-30.10579	-150.52895	-3.25468	63.46626	64.27993	78.11232	59.39791	0
389	57.77057	-8.95037	-67.53461	-25.22377	63.46626	-37.42882	-148.08794	-3.25468	58.58424	56.9569	70.78929	47.19286	0
390	45.56552	-19.52808	-65.0936	-13.01872	53.70222	-42.31084	-145.64693	-5.69569	56.14323	47.19286	63.46626	37.42882	0
391	38.24249	-31.73313	-69.97562	-3.25468	53.70222	-49.63387	-140.76491	-5.69569	51.26121	44.75185	58.58424	27.66478	0
392	35.80148	-43.93818	-79.73966	4.06835	56.14323	-61.83892	-140.76491	-5.69569	46.37919	39.05616	51.26121	20.34175	0
393	30.91946	-56.14323	-87.06269	12.20505	58.58424	-71.60296	-145.64693	-10.57771	41.49717	36.61515	43.93818	13.01872	0
394	28.47845	-65.90727	-94.38572	17.08707	61.02525	-78.92599	-145.64693	-17.90074	34.17414	31.73313	36.61515	5.69569	0
395	23.59643	-75.67131	-99.26774	24.4101	61.02525	-86.24902	-145.64693	-20.34175	29.29212	26.85111	29.29212	3.25468	0
396	23.59643	-78.11232	-101.70875	26.85111	61.02525	-88.69003	-148.08794	-22.78276	26.85111	24.4101	24.4101	0.81367	0
397	18.71441	-82.99434	-101.70875	31.73313	58.58424	-91.13104	-150.52895	-27.66478	21.96909	17.08707	19.52808	-4.06835	0
398	16.2734	-87.87636	-104.14976	34.17414	58.58424	-96.01306	-155.41097	-37.42882	17.08707	12.20505	14.64606	-11.39138	0
399	13.83239	-92.75838	-106.59077	39.05616	58.58424	-98.45407	-157.85198	-42.31084	12.20505	4.88202	9.76404	-18.71441	0
400	13.83239	-95.19939	-109.03178	39.05616	61.02525	-100.89508	-160.29299	-47.19286	7.32303	0	7.32303	-24.4101	0
401	13.83239	-95.19939	-109.03178	39.05616	61.02525	-100.89508	-162.734	-47.19286	4.88202	0	4.88202	-24.4101	0
402	13.83239	-100.08141	-113.9138	41.49717	63.46626	-105.7771	-167.61602	-44.75185	4.88202	0	4.88202	-26.85111	0
403	13.83239	-104.96343	-118.79582	43.93818	65.90727	-110.65912	-172.49804	-42.31084	4.88202	4.88202	2.44101	-26.85111	0
404	18.71441	-102.52242	-121.23683	41.49717	68.34828	-110.65912	-172.49804	-37.42882	7.32303	9.76404	2.44101	-24.4101	0
405	21.15542	-97.6404	-118.79582	36.61515	68.34828	-108.21811	-172.49804	-34.98781	12.20505	12.20505	4.88202	-18.71441	0
406	18.71441	-97.6404	-116.35481	39.05616	65.90727	-105.7771	-172.49804	-32.5468	14.64606	17.08707	7.32303	-16.2734	0
407	11.39138	-104.96343	-116.35481	46.37919	63.46626	-110.65912	-172.49804	-32.5468	14.64606	17.08707	7.32303	-16.2734	0
408	8.95037	-107.40444	-116.35481	48.8202	61.02525	-110.65912	-170.05703	-32.5468	17.08707	17.08707	7.32303	-16.2734	0
409	11.39138	-102.52242	-113.9138	43.93818	61.02525	-108.21811	-165.17501	-34.98781	17.08707	17.08707	7.32303	-16.2734	0
410	13.83239	-100.08141	-113.9138	41.49717	63.46626	-105.7771	-162.734	-37.42882	19.52808	14.64606	9.76404	-18.71441	0
411	13.83239	-104.96343	-118.79582	43.93818	65.90727	-110.65912	-162.734	-37.42882	17.08707	14.64606	9.76404	-24.4101	0
412	11.39138	-107.40444	-118.79582	46.37919	63.46626	-113.10013	-160.29299	-32.5468	19.52808	17.08707	7.32303	-24.4101	0
413	11.39138	-107.40444	-118.79582	46.37919	63.46626	-113.10013	-160.29299	-27.66478	21.96909	21.96909	7.32303	-24.4101	0
414	16.2734	-102.52242	-118.79582	41.49717	65.90727	-110.65912	-160.29299	-25.22377	24.4101	26.85111	7.32303	-21.15542	0
415	13.83239	-102.52242	-116.35481	43.93818	63.46626	-108.21811	-165.17501	-22.78276	26.85111	29.29212	9.76404	-21.15542	0
416	11.39138	-100.08141	-111.47279	43.93818	61.02525	-105.7771	-167.61602	-22.78276	29.29212	31.73313	12.20505	-18.71441	0
417	11.39138	-97.6404	-109.03178	41.49717	58.58424	-103.33609	-172.49804	-20.34175	34.17414	36.61515	14.64606	-18.71441	0
418	11.39138	-95.19939	-106.59077	41.49717	58.58424	-100.89508	-177.38006	-22.78276	34.17414	36.61515	14.64606	-18.71441	0
419	13.83239	-95.19939	-109.03178	39.05616	61.02525	-100.89508	-177.38006	-22.78276	34.17414	36.61515	17.08707	-21.15542	0
420	13.83239	-92.75838	-106.59077	39.05616	58.58424	-98.45407	-177.38006	-22.78276	36.61515	36.61515	17.08707	-24.4101	0
421	11.39138	-97.6404	-109.03178	41.49717	58.58424	-103.33609	-174.93905	-20.34175	36.61515	39.05616	17.08707	-24.4101	0
422	11.39138	-97.6404	-109.03178	41.49717	58.58424	-103.33609	-170.05703	-13.01872	39.05616	42.31084	19.52808	-24.4101	0
423	8.95037	-104.96343	-113.9138	46.37919	61.02525	-108.21811	-170.05703	-5.69569	41.49717	47.19286	17.08707	-21.15542	0
424	8.95037	-104.96343	-113.9138	46.37919	61.02525	-108.21811	-165.17501	1.62734	46.37919	54.51589	19.52808	-16.2734	0
425	8.95037	-102.52242	-111.47279	46.37919	58.58424	-105.7771	-165.17501	8.95037	51.26121	59.39791	21.96909	-8.95037	0
426	11.39138	-100.08141	-111.47279	43.93818	61.02525	-105.7771	-165.17501	16.2734	56.14323	66.72094	26.85111	-4.06835	0
427	11.39138	-100.08141	-111.47279	43.93818	61.02525	-105.7771	-165.17501	21.15542	63.46626	69.16195	26.85111	-4.06835	0
428	13.83239	-100.08141	-113.9138	41.49717	63.46626	-105.7771	-167.61602	21.15542	68.34828	69.16195	26.85111	-4.06835	0
429	13.83239	-102.52242	-116.35481	43.93818	63.46626	-108.21811	-167.61602	21.15542	68.34828	69.16195	26.85111	-8.95037	0
430	16.2734	-100.08141	-116.35481	41.49717	65.90727	-108.21811	-167.61602	16.2734	68.34828	64.27993	24.4101	-11.39138	0
431	18.71441	-97.6404	-116.35481	39.05616	65.90727	-105.7771	-167.61602	6.50936	58.58424	56.9569	19.52808	-16.2734	0
432	16.2734	-100.08141	-116.35481	41.49717	65.90727	-108.21811	-174.93905	-8.1367	39.05616	44.75185	14.64606	-18.71441	0
433	6.50936	-104.96343	-111.47279	48.8202	58.58424	-108.21811	-189.58511	-32.5468	14.64606	34.17414	7.32303	-18.71441	0
434	1.62734	-107.40444	-109.03178	51.26121	53.70222	-108.21811	-209.11319	-61.83892	-12.20505	21.96909	7.32303	-13.83239	0
435	-0.81367	-107.40444	-106.59077	53.70222	51.26121	-105.7771	-231.08228	-98.45407	-43.93818	9.76404	9.76404	-6.50936	0
436	6.50936	-107.40444	-113.9138	48.8202	58.58424	-110.65912	-253.05137	-135.06922	-68.34828	12.20505	24.4101	5.69569	0
437	28.47845	-102.52242	-131.00087	36.61515	78.11232	-115.54114	-270.13844	-161.92033	-80.55333	24.4101	48.8202	25.22377	0
438	67.53461	-90.31737	-157.85198	9.76404	112.28646	-122.86417	-282.34349	-176.56639	-70.78929	64.27993	90.31737	54.51589	0
439	116.35481	-61.02525	-177.38006	-27.66478	146.4606	-117.98215	-294.54854	-188.77144	-39.05616	132.62821	156.22464	100.89508	0
440	179.82107	-14.64606	-194.46713	-83.80801	185.51676	-103.33609	-311.63561	-203.4175	12.20505	227.8276	246.54201	169.24336	0
441	253.05137	49.63387	-204.23117	-152.15629	229.45494	-76.48498	-348.25076	-227.8276	78.11232	357.20113	366.1515	262.00174	0
442	333.6047	130.1872	-204.23117	-232.70962	268.5111	-37.42882	-416.59904	-271.76578	144.83326	510.98476	517.49412	386.49325	0
443	416.59904	227.8276	-189.58511	-323.02699	302.68524	19.52808	-519.12146	-364.52416	198.53548	676.97344	688.36482	532.95385	0
444	494.71136	347.43709	-148.08794	-420.66739	322.21332	100.08141	-648.49499	-496.3387	237.59164	845.40313	878.7636	698.94253	0
445	548.41358	481.69264	-67.53461	-515.86678	307.56726	207.48585	-782.75054	-672.09142	230.26861	979.65868	1059.39834	864.93121	0
446	567.94166	606.18415	38.24249	-586.65607	266.07009	322.21332	-909.68306	-903.98737	144.83326	1035.80191	1191.21288	1001.62777	0
447	541.09055	679.41445	138.3239	-611.06617	202.60383	410.08968	-1004.88245	-1162.73443	-21.96909	974.77666	1230.26904	1062.65302	0
448	465.41924	708.70657	243.28733	-586.65607	112.28646	475.99695	-1068.34871	-1445.89159	-283.15716	784.37788	1159.47975	1038.24292	0
449	345.80975	686.73748	340.92773	-515.86678	1.62734	515.05311	-1097.64083	-1741.2538	-649.30866	435.31345	961.75794	916.19242	0
450	194.46713	625.71223	431.2451	-410.90335	-117.98215	529.69917	-1097.64083	-2026.85197	-1081.36743	-29.29212	666.39573	720.91162	0
451	30.91946	528.07183	497.15237	-279.08881	-232.70962	512.6121	-1078.11275	-2290.48105	-1537.8363	-541.90422	312.44928	479.25163	0
452	-118.79582	403.58032	521.56247	-142.39225	-320.58598	461.35089	-1068.34871	-2497.9669	-1952.808	-1037.42925	-47.19286	220.50457	0
453	-233.52329	298.61689	531.32651	-32.5468	-381.61123	414.9717	-1090.3178	-2646.86851	-2282.34435	-1442.63691	-357.20113	-1.62734	0
454	-318.95864	222.94558	541.09055	46.37919	-430.43143	380.79756	-1134.25598	-2729.86285	-2504.47626	-1735.55811	-591.53809	-168.42969	0
455	-372.66086	164.36134	536.20853	102.52242	-454.84153	349.06443	-1173.31214	-2727.42184	-2592.35262	-1884.45972	-737.99869	-283.15716	0
456	-392.18894	135.06922	526.44449	126.93252	-459.72355	329.53635	-1192.84022	-2637.10447	-2531.32737	-1879.5777	-781.93687	-329.53635	0
457	-392.18894	113.10013	504.4754	139.13757	-447.5185	307.56726	-1195.28123	-2478.43882	-2372.66172	-1777.05528	-767.29081	-341.7414	0
458	-365.33783	105.7771	470.30126	129.37353	-418.22638	288.03918	-1170.87113	-2266.07095	-2148.0888	-1615.94862	-716.0296	-334.41837	0
459	-331.16369	105.7771	436.12712	112.28646	-384.05224	270.95211	-1102.52285	-2012.20591	-1891.78275	-1432.87287	-647.68132	-314.89029	0
460	-294.54854	110.65912	404.39399	90.31737	-349.8781	256.30605	-1000.00043	-1738.81279	-1630.59468	-1247.35611	-576.89203	-292.9212	0
461	-250.61036	125.30518	375.10187	61.02525	-313.26295	248.98302	-882.83195	-1462.97866	-1379.17065	-1064.28036	-503.66173	-266.07009	0
462	-209.11319	144.83326	353.13278	31.73313	-281.52982	248.98302	-765.66347	-1201.79059	-1147.2747	-895.85067	-435.31345	-234.33696	0
463	-172.49804	154.5973	326.28167	6.50936	-249.79669	239.21898	-653.37701	-965.01262	-942.22986	-746.94906	-376.72921	-207.48585	0
464	-143.20592	157.03831	299.43056	-8.1367	-220.50457	227.01393	-553.2956	-759.96778	-761.59512	-615.13452	-323.02699	-183.07575	0
465	-126.11885	137.51023	262.81541	-5.69569	-193.65346	200.16282	-465.41924	-589.09708	-605.37048	-502.84806	-276.6478	-163.54767	0
466	-111.47279	110.65912	221.31824	-0.81367	-166.80235	165.98868	-389.74793	-447.5185	-466.23291	-400.32564	-235.15063	-151.34262	0
467	-96.82673	81.367	177.38006	6.50936	-137.51023	129.37353	-323.84066	-327.90901	-344.18241	-312.44928	-198.53548	-139.13757	0
468	-87.06269	49.63387	135.88289	17.08707	-110.65912	92.75838	-267.69743	-230.26861	-239.21898	-234.33696	-164.36134	-131.81454	0
469	-74.85764	17.90074	91.94471	26.85111	-83.80801	53.70222	-216.43622	-139.95124	-148.90161	-165.98868	-132.62821	-122.0505	0
470	-57.77057	-1.62734	55.32956	29.29212	-56.9569	26.85111	-172.49804	-54.51589	-68.34828	-104.96343	-103.33609	-112.28646	0
471	-38.24249	-12.20505	26.03744	24.4101	-32.5468	7.32303	-135.88289	21.15542	-2.44101	-48.8202	-78.92599	-102.52242	0
472	-18.71441	-14.64606	4.06835	14.64606	-13.01872	-4.88202	-106.59077	91.94471	51.26121	-4.88202	-56.9569	-92.75838	0
473	-8.95037	-26.85111	-18.71441	17.08707	4.88202	-22.78276	-87.06269	146.4606	91.13104	29.29212	-44.75185	-85.43535	0
474	-4.06835	-36.61515	-33.36047	19.52808	14.64606	-34.98781	-72.41663	190.39878	125.30518	56.9569	-34.98781	-80.55333	0
475	-4.06835	-43.93818	-40.6835	21.96909	17.08707	-42.31084	-62.65259	214.80888	154.5973	76.48498	-25.22377	-75.67131	0
476	-8.95037	-53.70222	-45.56552	29.29212	17.08707	-49.63387	-60.21158	224.57292	176.56639	96.01306	-17.90074	-73.2303	0
477	-16.2734	-65.90727	-50.44754	39.05616	17.08707	-59.39791	-60.21158	224.57292	193.65346	105.7771	-10.57771	-73.2303	0
478	-18.71441	-75.67131	-57.77057	46.37919	19.52808	-66.72094	-60.21158	224.57292	210.74053	115.54114	-8.1367	-73.2303	0
479	-13.83239	-75.67131	-62.65259	43.93818	24.4101	-69.16195	-52.88855	231.89595	227.8276	127.74619	0	-70.78929	0
480	-4.06835	-68.34828	-65.0936	34.17414	29.29212	-66.72094	-40.6835	248.98302	244.91467	139.95124	9.76404	-65.90727	0
481	6.50936	-63.46626	-69.97562	26.85111	36.61515	-66.72094	-28.47845	275.83413	264.44275	154.5973	17.08707	-63.46626	0
482	13.83239	-63.46626	-77.29865	24.4101	43.93818	-69.16195	-16.2734	310.00827	279.08881	169.24336	21.96909	-58.58424	0
483	13.83239	-68.34828	-82.18067	26.85111	46.37919	-74.04397	-6.50936	336.85938	288.85285	181.44841	24.4101	-56.14323	0
484	16.2734	-73.2303	-89.5037	26.85111	51.26121	-81.367	-1.62734	356.38746	298.61689	188.77144	26.85111	-53.70222	0
485	13.83239	-78.11232	-91.94471	31.73313	51.26121	-83.80801	0.81367	366.1515	305.93992	196.09447	31.73313	-48.8202	0
486	13.83239	-80.55333	-94.38572	31.73313	53.70222	-86.24902	0.81367	366.1515	315.70396	203.4175	34.17414	-46.37919	0
487	23.59643	-70.78929	-94.38572	21.96909	58.58424	-81.367	0.81367	366.1515	325.468	213.18154	41.49717	-41.49717	0
488	33.36047	-63.46626	-96.82673	14.64606	63.46626	-78.92599	3.25468	361.26948	332.79103	220.50457	46.37919	-39.05616	0
489	40.6835	-61.02525	-101.70875	9.76404	70.78929	-81.367	5.69569	356.38746	337.67305	222.94558	51.26121	-36.61515	0
490	40.6835	-58.58424	-99.26774	6.50936	68.34828	-78.92599	10.57771	356.38746	342.55507	222.94558	51.26121	-36.61515	0
491	38.24249	-63.46626	-101.70875	12.20505	68.34828	-81.367	20.34175	361.26948	347.43709	227.8276	53.70222	-36.61515	0
492	35.80148	-68.34828	-104.14976	14.64606	68.34828	-86.24902	30.10579	373.47453	352.31911	232.70962	56.14323	-36.61515	0
493	28.47845	-80.55333	-109.03178	24.4101	68.34828	-93.57205	32.5468	383.23857	354.76012	235.15063	53.70222	-36.61515	0
494	16.2734	-92.75838	-109.03178	36.61515	61.02525	-100.89508	38.24249	393.00261	354.76012	235.15063	51.26121	-39.05616	0
495	8.95037	-95.19939	-104.14976	41.49717	56.14323	-98.45407	43.12451	400.32564	359.64214	237.59164	51.26121	-36.61515	0
496	11.39138	-92.75838	-104.14976	39.05616	56.14323	-98.45407	43.12451	407.64867	366.96517	244.91467	53.70222	-36.61515	0
497	16.2734	-87.87636	-104.14976	34.17414	58.58424	-96.01306	45.56552	412.53069	374.2882	247.35568	58.58424	-31.73313	0
498	21.15542	-82.99434	-104.14976	29.29212	61.02525	-93.57205	48.00653	414.9717	379.17022	252.2377	58.58424	-31.73313	0
499	18.71441	-85.43535	-104.14976	31.73313	61.02525	-93.57205	48.00653	414.9717	381.61123	249.79669	58.58424	-34.17414	0
500	6.50936	-95.19939	-101.70875	43.93818	53.70222	-98.45407	52.88855	419.85372	381.61123	249.79669	58.58424	-36.61515	0
501	1.62734	-100.08141	-101.70875	48.8202	51.26121	-100.89508	52.88855	424.73574	381.61123	249.79669	58.58424	-39.05616	0
502	-4.06835	-104.96343	-101.70875	53.70222	48.8202	-103.33609	60.21158	434.49978	386.49325	254.67871	58.58424	-39.05616	0
503	4.06835	-97.6404	-101.70875	46.37919	51.26121	-98.45407	67.53461	449.14584	393.81628	259.56073	63.46626	-34.17414	0
504	6.50936	-95.19939	-101.70875	43.93818	53.70222	-98.45407	72.41663	461.35089	398.6983	264.44275	63.46626	-34.17414	0
505	6.50936	-92.75838	-99.26774	41.49717	51.26121	-96.01306	77.29865	471.11493	403.58032	269.32477	65.90727	-29.29212	0
506	11.39138	-82.99434	-94.38572	34.17414	51.26121	-88.69003	82.18067	478.43796	408.46234	274.20679	68.34828	-29.29212	0
507	23.59643	-68.34828	-91.94471	21.96909	56.14323	-78.92599	84.62168	488.202	418.22638	281.52982	73.2303	-24.4101	0
508	33.36047	-58.58424	-91.94471	12.20505	61.02525	-74.04397	87.06269	493.08402	425.54941	283.97083	75.67131	-21.15542	0
509	28.47845	-63.46626	-91.94471	17.08707	58.58424	-76.48498	84.62168	490.64301	425.54941	283.97083	73.2303	-24.4101	0
510	21.15542	-68.34828	-89.5037	21.96909	53.70222	-78.92599	84.62168	493.08402	427.99042	281.52982	73.2303	-29.29212	0
511	13.83239	-70.78929	-84.62168	26.85111	48.8202	-76.48498	89.5037	497.96604	432.87244	283.97083	70.78929	-31.73313	0
512	8.95037	-75.67131	-84.62168	31.73313	46.37919	-78.92599	94.38572	502.84806	437.75446	286.41184	70.78929	-34.17414	0
513	6.50936	-78.11232	-84.62168	34.17414	43.93818	-81.367	96.82673	510.17109	442.63648	293.73487	70.78929	-34.17414	0
514	13.83239	-73.2303	-87.06269	29.29212	48.8202	-78.92599	106.59077	517.49412	449.95951	301.0579	73.2303	-29.29212	0
515	23.59643	-58.58424	-82.18067	17.08707	51.26121	-69.16195	113.9138	524.81715	462.16456	308.38093	78.11232	-24.4101	0
516	30.91946	-48.8202	-79.73966	6.50936	53.70222	-64.27993	121.23683	534.58119	469.48759	313.26295	78.11232	-24.4101	0
517	33.36047	-43.93818	-77.29865	4.06835	53.70222	-59.39791	123.67784	546.78624	476.81062	318.14497	78.11232	-21.15542	0
518	35.80148	-41.49717	-77.29865	1.62734	56.14323	-59.39791	123.67784	556.55028	481.69264	318.14497	75.67131	-21.15542	0
519	35.80148	-39.05616	-74.85764	1.62734	53.70222	-56.9569	128.55986	563.87331	484.13365	318.14497	75.67131	-24.4101	0
520	30.91946	-39.05616	-69.97562	4.06835	48.8202	-54.51589	131.00087	571.19634	486.57466	313.26295	70.78929	-26.85111	0
521	16.2734	-51.26121	-67.53461	17.08707	41.49717	-59.39791	133.44188	576.07836	486.57466	310.82194	65.90727	-31.73313	0
522	8.95037	-56.14323	-65.0936	21.96909	36.61515	-59.39791	140.76491	580.96038	489.01567	313.26295	65.90727	-31.73313	0
523	4.06835	-61.02525	-65.0936	26.85111	34.17414	-61.83892	145.64693	590.72442	491.45668	315.70396	68.34828	-31.73313	0
524	4.06835	-63.46626	-67.53461	29.29212	34.17414	-64.27993	155.41097	598.04745	498.77971	320.58598	68.34828	-31.73313	0
525	6.50936	-58.58424	-65.0936	24.4101	34.17414	-61.83892	162.734	607.81149	506.10274	327.90901	73.2303	-26.85111	0
526	6.50936	-53.70222	-60.21158	21.96909	31.73313	-56.9569	170.05703	617.57553	513.42577	332.79103	73.2303	-24.4101	0
527	13.83239	-41.49717	-55.32956	12.20505	34.17414	-47.19286	174.93905	629.78058	520.7488	337.67305	75.67131	-18.71441	0
528	26.03744	-24.4101	-50.44754	-0.81367	36.61515	-37.42882	182.26208	644.42664	530.51284	340.11406	78.11232	-13.83239	0
529	30.91946	-14.64606	-45.56552	-8.1367	36.61515	-30.10579	187.1441	654.19068	537.83587	340.11406	78.11232	-13.83239	0
530	33.36047	-8.95037	-43.12451	-13.01872	39.05616	-25.22377	196.90814	663.95472	540.27688	340.11406	78.11232	-13.83239	0
531	35.80148	0.81367	-35.80148	-17.90074	36.61515	-17.90074	209.11319	673.71876	545.1589	340.11406	78.11232	-13.83239	0
532	38.24249	8.1367	-30.91946	-22.78276	34.17414	-10.57771	223.75925	681.04179	547.59991	340.11406	78.11232	-11.39138	0
533	33.36047	8.1367	-26.03744	-20.34175	29.29212	-7.32303	235.9643	693.24684	547.59991	337.67305	75.67131	-11.39138	0
534	23.59643	3.25468	-21.15542	-13.01872	21.96909	-7.32303	248.16935	698.12886	547.59991	335.23204	70.78929	-11.39138	0
535	13.83239	0.81367	-13.83239	-8.1367	14.64606	-4.88202	255.49238	703.01088	547.59991	330.35002	65.90727	-11.39138	0
536	6.50936	3.25468	-3.25468	-5.69569	4.88202	0	265.25642	707.8929	547.59991	327.90901	63.46626	-8.95037	0
537	-0.81367	5.69569	6.50936	-3.25468	-3.25468	7.32303	275.02046	717.65694	547.59991	325.468	63.46626	-8.95037	0
538	-4.06835	5.69569	8.95037	-0.81367	-5.69569	7.32303	282.34349	724.97997	545.1589	320.58598	61.02525	-6.50936	0
539	-4.06835	13.01872	16.2734	-5.69569	-10.57771	14.64606	292.10753	729.86199	542.71789	315.70396	58.58424	-4.06835	0
540	-4.06835	22.78276	26.03744	-10.57771	-15.45973	24.4101	304.31258	732.303	537.83587	308.38093	58.58424	-1.62734	0
541	-11.39138	25.22377	35.80148	-8.1367	-22.78276	29.29212	314.07662	729.86199	532.95385	301.0579	58.58424	-1.62734	0
542	-8.95037	34.98781	43.12451	-13.01872	-25.22377	39.05616	326.28167	729.86199	530.51284	296.17588	58.58424	5.69569	0
543	-8.95037	37.42882	45.56552	-15.45973	-27.66478	41.49717	333.6047	727.42098	525.63082	288.85285	53.70222	10.57771	0
544	-16.2734	37.42882	52.88855	-10.57771	-34.98781	43.93818	336.04571	720.09795	515.86678	279.08881	46.37919	13.01872	0
545	-26.03744	34.98781	60.21158	-5.69569	-42.31084	46.37919	338.48672	712.77492	501.22072	262.00174	41.49717	13.01872	0
546	-40.6835	32.5468	72.41663	4.06835	-56.9569	51.26121	340.92773	703.01088	486.57466	249.79669	34.17414	13.01872	0
547	-48.00653	34.98781	82.18067	6.50936	-64.27993	58.58424	345.80975	695.68785	474.36961	237.59164	29.29212	17.90074	0
548	-52.88855	34.98781	87.06269	6.50936	-69.16195	61.02525	348.25076	688.36482	457.28254	220.50457	24.4101	20.34175	0
549	-57.77057	39.86983	96.82673	6.50936	-76.48498	68.34828	350.69177	676.15977	437.75446	205.85851	19.52808	20.34175	0
550	-55.32956	52.07488	106.59077	1.62734	-81.367	78.11232	353.13278	666.39573	420.66739	188.77144	19.52808	25.22377	0
551	-50.44754	69.16195	118.79582	-10.57771	-83.80801	92.75838	360.45581	654.19068	403.58032	176.56639	17.08707	32.5468	0
552	-43.12451	86.24902	128.55986	-22.78276	-86.24902	107.40444	367.77884	639.54462	388.93426	164.36134	19.52808	39.86983	0
553	-40.6835	93.57205	133.44188	-27.66478	-86.24902	112.28646	367.77884	624.89856	369.40618	149.71528	14.64606	42.31084	0
554	-45.56552	96.01306	140.76491	-25.22377	-93.57205	117.16848	362.89682	605.37048	347.43709	132.62821	7.32303	44.75185	0
555	-45.56552	105.7771	150.52895	-30.10579	-98.45407	126.93252	362.89682	583.40139	323.02699	113.10013	4.88202	44.75185	0
556	-52.88855	108.21811	160.29299	-27.66478	-105.7771	134.25555	362.89682	563.87331	298.61689	93.57205	-2.44101	42.31084	0
557	-60.21158	105.7771	165.17501	-22.78276	-113.10013	134.25555	360.45581	539.46321	271.76578	74.04397	-10.57771	37.42882	0
558	-77.29865	96.01306	172.49804	-10.57771	-125.30518	134.25555	353.13278	515.05311	240.03265	47.19286	-22.78276	30.10579	0
559	-89.5037	91.13104	179.82107	-0.81367	-135.06922	134.25555	348.25076	485.76099	205.85851	24.4101	-37.42882	22.78276	0
560	-89.5037	100.89508	189.58511	-5.69569	-139.95124	144.01959	345.80975	458.90988	176.56639	-2.44101	-44.75185	20.34175	0
561	-89.5037	110.65912	199.34915	-10.57771	-144.83326	153.78363	340.92773	429.61776	147.27427	-24.4101	-49.63387	17.90074	0
562	-91.94471	115.54114	206.67218	-13.01872	-149.71528	161.10666	331.16369	395.44362	115.54114	-48.8202	-56.9569	15.45973	0
563	-96.82673	117.98215	213.99521	-10.57771	-154.5973	165.98868	318.95864	358.82847	80.55333	-75.67131	-66.72094	10.57771	0
564	-99.26774	120.42316	218.87723	-10.57771	-159.47932	168.42969	304.31258	317.3313	46.37919	-102.52242	-74.04397	5.69569	0
565	-99.26774	125.30518	223.75925	-13.01872	-161.92033	173.31171	294.54854	275.83413	9.76404	-131.81454	-81.367	0.81367	0
566	-106.59077	122.86417	228.64127	-8.1367	-166.80235	175.75272	282.34349	231.89595	-29.29212	-156.22464	-93.57205	-6.50936	0
567	-116.35481	110.65912	226.20026	1.62734	-171.68437	168.42969	270.13844	192.83979	-68.34828	-183.07575	-105.7771	-16.2734	0
568	-126.11885	100.89508	226.20026	12.20505	-176.56639	163.54767	255.49238	156.22464	-107.40444	-209.92686	-117.98215	-24.4101	0
569	-133.44188	91.13104	223.75925	19.52808	-179.0074	156.22464	238.40531	114.72747	-148.90161	-236.77797	-135.06922	-31.73313	0
570	-135.88289	83.80801	218.87723	24.4101	-176.56639	151.34262	223.75925	79.73966	-183.07575	-263.62908	-144.83326	-41.49717	0
571	-148.08794	66.72094	213.99521	39.05616	-181.44841	139.13757	204.23117	38.24249	-217.24989	-288.03918	-157.03831	-51.26121	0
572	-152.96996	54.51589	206.67218	48.8202	-179.0074	129.37353	187.1441	4.06835	-244.101	-305.12625	-164.36134	-58.58424	0
573	-160.29299	37.42882	196.90814	61.02525	-179.0074	117.16848	165.17501	-30.10579	-270.95211	-327.09534	-174.12538	-68.34828	0
574	-165.17501	20.34175	184.70309	70.78929	-174.12538	102.52242	145.64693	-66.72094	-295.36221	-344.18241	-186.33043	-80.55333	0
575	-165.17501	10.57771	174.93905	75.67131	-169.24336	92.75838	135.88289	-96.01306	-312.44928	-356.38746	-191.21245	-87.87636	0
576	-162.734	8.1367	170.05703	75.67131	-166.80235	87.87636	128.55986	-115.54114	-324.65433	-356.38746	-193.65346	-90.31737	0
577	-148.08794	15.45973	162.734	65.90727	-154.5973	87.87636	123.67784	-127.74619	-331.97736	-356.38746	-193.65346	-90.31737	0
578	-126.11885	25.22377	150.52895	48.8202	-137.51023	87.87636	118.79582	-130.1872	-331.97736	-353.94645	-193.65346	-87.87636	0
579	-109.03178	30.10579	138.3239	39.05616	-122.86417	82.99434	113.9138	-135.06922	-334.41837	-349.06443	-193.65346	-87.87636	0
580	-96.82673	34.98781	131.00087	29.29212	-113.10013	82.99434	109.03178	-139.95124	-334.41837	-346.62342	-188.77144	-87.87636	0
581	-84.62168	39.86983	123.67784	21.96909	-103.33609	80.55333	104.14976	-144.83326	-334.41837	-339.30039	-183.88942	-87.87636	0
582	-74.85764	39.86983	113.9138	17.08707	-93.57205	75.67131	101.70875	-144.83326	-327.09534	-329.53635	-176.56639	-87.87636	0
583	-74.85764	30.10579	104.14976	21.96909	-88.69003	65.90727	94.38572	-147.27427	-322.21332	-324.65433	-171.68437	-90.31737	0
584	-74.85764	17.90074	91.94471	26.85111	-83.80801	53.70222	87.06269	-152.15629	-314.89029	-317.3313	-169.24336	-92.75838	0
585	-79.73966	8.1367	87.06269	34.17414	-83.80801	46.37919	82.18067	-154.5973	-307.56726	-312.44928	-161.92033	-92.75838	0
586	-79.73966	3.25468	82.18067	36.61515	-81.367	41.49717	82.18067	-154.5973	-297.80322	-297.80322	-157.03831	-92.75838	0
587	-79.73966	-4.06835	74.85764	41.49717	-76.48498	34.17414	77.29865	-152.15629	-283.15716	-283.15716	-149.71528	-90.31737	0
588	-84.62168	-19.52808	65.0936	51.26121	-76.48498	21.96909	69.97562	-149.71528	-273.39312	-273.39312	-147.27427	-90.31737	0
589	-89.5037	-34.17414	55.32956	61.02525	-74.04397	9.76404	60.21158	-152.15629	-268.5111	-261.18807	-144.83326	-92.75838	0
590	-91.94471	-41.49717	50.44754	65.90727	-71.60296	4.88202	57.77057	-149.71528	-258.74706	-251.42403	-137.51023	-87.87636	0
591	-91.94471	-43.93818	48.00653	65.90727	-71.60296	2.44101	60.21158	-139.95124	-246.54201	-236.77797	-130.1872	-85.43535	0
592	-89.5037	-48.8202	40.6835	68.34828	-66.72094	-4.88202	62.65259	-130.1872	-229.45494	-224.57292	-122.86417	-82.99434	0
593	-77.29865	-46.37919	30.91946	61.02525	-54.51589	-7.32303	62.65259	-115.54114	-214.80888	-209.92686	-113.10013	-78.11232	0
594	-60.21158	-36.61515	23.59643	46.37919	-42.31084	-7.32303	69.97562	-103.33609	-197.72181	-192.83979	-103.33609	-73.2303	0
595	-45.56552	-24.4101	21.15542	34.17414	-34.98781	-2.44101	77.29865	-91.13104	-183.07575	-180.63474	-93.57205	-65.90727	0
596	-38.24249	-17.08707	21.15542	26.85111	-30.10579	2.44101	84.62168	-86.24902	-165.98868	-163.54767	-83.80801	-63.46626	0
597	-33.36047	-14.64606	18.71441	21.96909	-27.66478	2.44101	84.62168	-83.80801	-148.90161	-146.4606	-76.48498	-61.02525	0
598	-28.47845	-17.08707	11.39138	21.96909	-20.34175	-2.44101	84.62168	-83.80801	-139.13757	-136.69656	-74.04397	-58.58424	0
599	-26.03744	-19.52808	6.50936	21.96909	-17.90074	-7.32303	82.18067	-83.80801	-129.37353	-124.49151	-71.60296	-58.58424	0
600	-30.91946	-24.4101	6.50936	26.85111	-20.34175	-10.57771	79.73966	-78.92599	-124.49151	-119.60949	-66.72094	-58.58424	0
601	-38.24249	-31.73313	6.50936	34.17414	-22.78276	-13.01872	74.85764	-69.16195	-117.16848	-109.84545	-64.27993	-58.58424	0
602	-40.6835	-36.61515	4.06835	36.61515	-22.78276	-17.90074	72.41663	-49.63387	-104.96343	-102.52242	-61.83892	-58.58424	0
603	-45.56552	-46.37919	-0.81367	43.93818	-22.78276	-25.22377	65.0936	-27.66478	-97.6404	-97.6404	-61.83892	-58.58424	0
604	-43.12451	-46.37919	-3.25468	43.93818	-20.34175	-25.22377	62.65259	-13.01872	-87.87636	-90.31737	-59.39791	-58.58424	0
605	-40.6835	-43.93818	-3.25468	41.49717	-20.34175	-25.22377	62.65259	-5.69569	-80.55333	-85.43535	-54.51589	-58.58424	0
606	-43.12451	-46.37919	-3.25468	43.93818	-20.34175	-25.22377	62.65259	-5.69569	-73.2303	-78.11232	-54.51589	-58.58424	0
607	-38.24249	-43.93818	-5.69569	39.05616	-17.90074	-25.22377	62.65259	-8.1367	-63.46626	-65.90727	-47.19286	-56.14323	0
608	-26.03744	-36.61515	-11.39138	29.29212	-8.1367	-25.22377	65.0936	-15.45973	-53.70222	-58.58424	-44.75185	-48.8202	0
609	-16.2734	-31.73313	-16.2734	21.96909	-0.81367	-25.22377	65.0936	-25.22377	-46.37919	-51.26121	-39.86983	-48.8202	0
610	-16.2734	-29.29212	-13.83239	21.96909	-3.25468	-22.78276	67.53461	-27.66478	-41.49717	-46.37919	-37.42882	-46.37919	0
611	-18.71441	-29.29212	-11.39138	21.96909	-5.69569	-20.34175	67.53461	-27.66478	-34.17414	-41.49717	-34.98781	-46.37919	0
612	-13.83239	-26.85111	-13.83239	19.52808	-0.81367	-20.34175	69.97562	-20.34175	-24.4101	-34.17414	-30.10579	-43.93818	0
613	-11.39138	-24.4101	-13.83239	17.08707	-0.81367	-20.34175	69.97562	-10.57771	-14.64606	-26.85111	-25.22377	-39.05616	0
614	-16.2734	-31.73313	-16.2734	21.96909	-0.81367	-25.22377	69.97562	-3.25468	-12.20505	-24.4101	-25.22377	-41.49717	0
615	-26.03744	-41.49717	-16.2734	31.73313	-5.69569	-30.10579	69.97562	1.62734	-9.76404	-26.85111	-25.22377	-41.49717	0
616	-30.91946	-41.49717	-11.39138	34.17414	-10.57771	-27.66478	69.97562	4.06835	-4.88202	-21.96909	-25.22377	-43.93818	0
617	-28.47845	-41.49717	-13.83239	34.17414	-8.1367	-27.66478	72.41663	6.50936	0	-14.64606	-20.34175	-39.05616	0
618	-33.36047	-48.8202	-16.2734	39.05616	-10.57771	-32.5468	72.41663	11.39138	2.44101	-14.64606	-22.78276	-39.05616	0
619	-30.91946	-48.8202	-18.71441	39.05616	-8.1367	-34.98781	72.41663	11.39138	2.44101	-12.20505	-25.22377	-41.49717	0
620	-23.59643	-39.05616	-16.2734	29.29212	-5.69569	-27.66478	77.29865	13.83239	7.32303	-9.76404	-20.34175	-34.17414	0
621	-21.15542	-31.73313	-11.39138	24.4101	-5.69569	-22.78276	77.29865	13.83239	12.20505	-2.44101	-15.45973	-31.73313	0
622	-16.2734	-29.29212	-13.83239	21.96909	-3.25468	-22.78276	79.73966	16.2734	17.08707	0	-10.57771	-26.85111	0
623	-16.2734	-31.73313	-16.2734	21.96909	-0.81367	-25.22377	79.73966	18.71441	19.52808	0	-8.1367	-26.85111	0
624	-11.39138	-26.85111	-16.2734	17.08707	1.62734	-22.78276	79.73966	18.71441	21.96909	4.88202	-8.1367	-26.85111	0
625	-4.06835	-14.64606	-11.39138	6.50936	1.62734	-13.01872	79.73966	18.71441	24.4101	7.32303	-4.88202	-24.4101	0
626	-8.95037	-14.64606	-5.69569	9.76404	-3.25468	-10.57771	79.73966	16.2734	24.4101	7.32303	-8.1367	-26.85111	0
627	-16.2734	-19.52808	-3.25468	17.08707	-8.1367	-13.01872	74.85764	13.83239	21.96909	7.32303	-8.1367	-29.29212	0
628	-16.2734	-24.4101	-8.95037	19.52808	-5.69569	-17.90074	69.97562	16.2734	21.96909	4.88202	-13.01872	-29.29212	0
629	-8.95037	-19.52808	-11.39138	12.20505	-0.81367	-15.45973	67.53461	18.71441	21.96909	7.32303	-13.01872	-31.73313	0
630	-8.95037	-19.52808	-11.39138	12.20505	-0.81367	-15.45973	65.0936	18.71441	19.52808	2.44101	-15.45973	-29.29212	-1250	T-0
631	-16.2734	-24.4101	-8.95037	19.52808	-5.69569	-17.90074	62.65259	16.2734	19.52808	0	-17.90074	-29.29212	0
632	-16.2734	-24.4101	-8.95037	19.52808	-5.69569	-17.90074	62.65259	18.71441	24.4101	2.44101	-13.01872	-26.85111	0
633	-13.83239	-26.85111	-13.83239	19.52808	-0.81367	-20.34175	62.65259	21.15542	24.4101	2.44101	-13.01872	-24.4101	0
634	-11.39138	-24.4101	-13.83239	17.08707	-0.81367	-20.34175	62.65259	18.71441	24.4101	2.44101	-13.01872	-24.4101	0
635	-11.39138	-21.96909	-11.39138	14.64606	-0.81367	-17.90074	62.65259	16.2734	24.4101	2.44101	-13.01872	-24.4101	0
636	-11.39138	-19.52808	-8.95037	14.64606	-3.25468	-15.45973	62.65259	16.2734	21.96909	2.44101	-15.45973	-24.4101	0
637	-8.95037	-17.08707	-8.95037	12.20505	-0.81367	-13.01872	62.65259	16.2734	21.96909	4.88202	-15.45973	-24.4101	0
638	-16.2734	-24.4101	-8.95037	19.52808	-5.69569	-17.90074	57.77057	16.2734	19.52808	2.44101	-20.34175	-29.29212	0
639	-13.83239	-26.85111	-13.83239	19.52808	-0.81367	-20.34175	55.32956	13.83239	17.08707	2.44101	-22.78276	-31.73313	0
640	-6.50936	-17.08707	-11.39138	9.76404	1.62734	-15.45973	57.77057	13.83239	19.52808	4.88202	-20.34175	-29.29212	0
641	-8.95037	-14.64606	-5.69569	9.76404	-3.25468	-10.57771	57.77057	13.83239	19.52808	2.44101	-17.90074	-26.85111	0
642	-8.95037	-14.64606	-5.69569	9.76404	-3.25468	-10.57771	57.77057	11.39138	21.96909	2.44101	-17.90074	-24.4101	0
643	-8.95037	-19.52808	-11.39138	12.20505	-0.81367	-15.45973	57.77057	11.39138	21.96909	0	-17.90074	-24.4101	0
644	-4.06835	-14.64606	-11.39138	6.50936	1.62734	-13.01872	57.77057	11.39138	19.52808	0	-20.34175	-24.4101	0
645	-4.06835	-12.20505	-8.95037	6.50936	1.62734	-10.57771	62.65259	8.95037	19.52808	0	-17.90074	-24.4101	0
646	-8.95037	-17.08707	-8.95037	12.20505	-0.81367	-13.01872	57.77057	6.50936	17.08707	-2.44101	-20.34175	-26.85111	0
647	-18.71441	-26.85111	-8.95037	21.96909	-5.69569	-17.90074	50.44754	4.06835	12.20505	-4.88202	-22.78276	-29.29212	0
648	-26.03744	-39.05616	-13.83239	31.73313	-8.1367	-27.66478	43.12451	4.06835	7.32303	-7.32303	-27.66478	-34.17414	0
649	-26.03744	-43.93818	-18.71441	34.17414	-5.69569	-32.5468	35.80148	1.62734	2.44101	-9.76404	-30.10579	-39.05616	0
650	-30.91946	-46.37919	-16.2734	36.61515	-8.1367	-32.5468	32.5468	-0.81367	2.44101	-12.20505	-30.10579	-41.49717	0
651	-35.80148	-51.26121	-16.2734	41.49717	-10.57771	-34.98781	32.5468	-3.25468	0	-14.64606	-30.10579	-43.93818	0
652	-40.6835	-58.58424	-18.71441	48.8202	-13.01872	-39.86983	30.10579	-8.1367	0	-14.64606	-30.10579	-46.37919	0
653	-40.6835	-63.46626	-23.59643	51.26121	-10.57771	-44.75185	30.10579	-10.57771	0	-14.64606	-32.5468	-46.37919	0
654	-35.80148	-63.46626	-28.47845	48.8202	-5.69569	-47.19286	27.66478	-15.45973	0	-14.64606	-32.5468	-46.37919	0
655	-33.36047	-61.02525	-28.47845	46.37919	-3.25468	-44.75185	30.10579	-20.34175	0	-17.08707	-30.10579	-46.37919	0
656	-28.47845	-56.14323	-28.47845	41.49717	-0.81367	-42.31084	32.5468	-20.34175	2.44101	-12.20505	-27.66478	-43.93818	0
657	-18.71441	-46.37919	-28.47845	31.73313	4.88202	-37.42882	32.5468	-15.45973	7.32303	-7.32303	-22.78276	-41.49717	0
658	-6.50936	-39.05616	-33.36047	21.96909	12.20505	-37.42882	27.66478	-8.1367	9.76404	-7.32303	-20.34175	-39.05616	0
659	-4.06835	-39.05616	-35.80148	19.52808	14.64606	-37.42882	22.78276	-8.1367	7.32303	-7.32303	-20.34175	-41.49717	0
660	1.62734	-29.29212	-30.91946	12.20505	14.64606	-30.10579	22.78276	-3.25468	7.32303	-7.32303	-17.90074	-41.49717	0
661	1.62734	-26.85111	-28.47845	12.20505	14.64606	-27.66478	20.34175	-0.81367	7.32303	-7.32303	-15.45973	-39.05616	0
662	-0.81367	-31.73313	-30.91946	14.64606	14.64606	-30.10579	15.45973	-0.81367	9.76404	-4.88202	-15.45973	-41.49717	0
663	-0.81367	-39.05616	-38.24249	19.52808	17.08707	-37.42882	13.01872	-3.25468	9.76404	-7.32303	-17.90074	-41.49717	0
664	-4.06835	-43.93818	-40.6835	21.96909	17.08707	-42.31084	8.1367	-10.57771	9.76404	-7.32303	-20.34175	-46.37919	0
665	-4.06835	-43.93818	-40.6835	21.96909	17.08707	-42.31084	5.69569	-17.90074	12.20505	-7.32303	-20.34175	-46.37919	0
666	-4.06835	-41.49717	-38.24249	21.96909	17.08707	-39.86983	8.1367	-17.90074	14.64606	-4.88202	-17.90074	-46.37919	0
667	-4.06835	-43.93818	-40.6835	21.96909	17.08707	-42.31084	8.1367	-15.45973	19.52808	0	-15.45973	-46.37919	0
668	-0.81367	-43.93818	-43.12451	21.96909	19.52808	-42.31084	5.69569	-8.1367	19.52808	0	-13.01872	-43.93818	0
669	-4.06835	-51.26121	-48.00653	26.85111	21.96909	-49.63387	0.81367	-8.1367	17.08707	2.44101	-13.01872	-46.37919	0
670	-8.95037	-61.02525	-52.88855	34.17414	21.96909	-56.9569	-4.06835	-8.1367	12.20505	-2.44101	-15.45973	-46.37919	0
671	-18.71441	-70.78929	-52.88855	43.93818	17.08707	-61.83892	-8.95037	-8.1367	7.32303	-4.88202	-15.45973	-46.37919	0
672	-28.47845	-80.55333	-52.88855	53.70222	12.20505	-66.72094	-13.83239	-10.57771	7.32303	-2.44101	-15.45973	-48.8202	0
673	-28.47845	-82.99434	-55.32956	53.70222	12.20505	-69.16195	-18.71441	-13.01872	7.32303	-4.88202	-15.45973	-48.8202	0
674	-16.2734	-78.11232	-62.65259	46.37919	21.96909	-71.60296	-21.15542	-17.90074	12.20505	0	-15.45973	-46.37919	0
675	-4.06835	-61.02525	-57.77057	31.73313	26.85111	-59.39791	-11.39138	-15.45973	21.96909	4.88202	-8.1367	-41.49717	0
676	4.06835	-51.26121	-55.32956	21.96909	29.29212	-52.07488	-6.50936	-13.01872	29.29212	12.20505	-4.88202	-39.05616	0
677	11.39138	-46.37919	-57.77057	17.08707	34.17414	-52.07488	-4.06835	-5.69569	36.61515	19.52808	0	-36.61515	0
678	23.59643	-36.61515	-60.21158	6.50936	41.49717	-47.19286	-1.62734	4.06835	43.93818	24.4101	0	-34.17414	0
679	33.36047	-29.29212	-62.65259	-3.25468	46.37919	-44.75185	3.25468	11.39138	43.93818	29.29212	2.44101	-34.17414	0
680	33.36047	-31.73313	-65.0936	-0.81367	48.8202	-47.19286	3.25468	11.39138	39.05616	26.85111	2.44101	-31.73313	0
681	23.59643	-39.05616	-62.65259	6.50936	41.49717	-49.63387	0.81367	13.83239	34.17414	26.85111	2.44101	-34.17414	0
682	18.71441	-43.93818	-62.65259	12.20505	39.05616	-52.07488	-1.62734	11.39138	34.17414	26.85111	0	-36.61515	0
683	26.03744	-41.49717	-67.53461	6.50936	46.37919	-54.51589	0.81367	8.95037	36.61515	29.29212	2.44101	-34.17414	0
684	26.03744	-41.49717	-67.53461	6.50936	46.37919	-54.51589	0.81367	4.06835	36.61515	29.29212	2.44101	-34.17414	0
685	21.15542	-46.37919	-67.53461	12.20505	43.93818	-56.9569	0.81367	-3.25468	36.61515	26.85111	2.44101	-34.17414	0
686	16.2734	-48.8202	-65.0936	14.64606	39.05616	-56.9569	-1.62734	-5.69569	41.49717	29.29212	4.88202	-34.17414	0
687	11.39138	-53.70222	-65.0936	19.52808	36.61515	-59.39791	-1.62734	-5.69569	43.93818	31.73313	7.32303	-34.17414	0
688	11.39138	-56.14323	-67.53461	21.96909	39.05616	-61.83892	-6.50936	-0.81367	46.37919	31.73313	7.32303	-31.73313	0
689	16.2734	-56.14323	-72.41663	19.52808	43.93818	-64.27993	-8.95037	1.62734	46.37919	36.61515	9.76404	-31.73313	0
690	18.71441	-53.70222	-72.41663	17.08707	43.93818	-61.83892	-8.95037	4.06835	43.93818	36.61515	14.64606	-26.85111	0
691	26.03744	-43.93818	-69.97562	6.50936	46.37919	-56.9569	-8.95037	8.95037	46.37919	39.05616	21.96909	-21.15542	0
692	35.80148	-34.17414	-69.97562	-0.81367	51.26121	-52.07488	-6.50936	11.39138	53.70222	47.19286	26.85111	-13.83239	0
693	43.12451	-29.29212	-72.41663	-8.1367	56.14323	-49.63387	-1.62734	13.83239	61.02525	52.07488	29.29212	-6.50936	0
694	48.00653	-19.52808	-67.53461	-15.45973	56.14323	-42.31084	0.81367	13.83239	68.34828	56.9569	31.73313	-6.50936	0
695	52.88855	-12.20505	-65.0936	-20.34175	58.58424	-37.42882	5.69569	8.95037	73.2303	56.9569	36.61515	-1.62734	0
696	52.88855	-6.50936	-60.21158	-22.78276	56.14323	-32.5468	13.01872	16.2734	80.55333	64.27993	39.05616	-1.62734	0
697	52.88855	-1.62734	-55.32956	-25.22377	53.70222	-27.66478	22.78276	26.03744	86.24902	74.04397	46.37919	3.25468	0
698	50.44754	3.25468	-48.00653	-27.66478	48.8202	-22.78276	30.10579	40.6835	91.13104	78.92599	51.26121	8.1367	0
699	50.44754	10.57771	-40.6835	-30.10579	46.37919	-15.45973	32.5468	48.00653	93.57205	86.24902	56.14323	10.57771	0
700	50.44754	15.45973	-35.80148	-32.5468	43.93818	-10.57771	35.80148	52.88855	96.01306	88.69003	61.02525	17.90074	0
701	48.00653	15.45973	-33.36047	-32.5468	41.49717	-7.32303	35.80148	57.77057	98.45407	93.57205	63.46626	22.78276	0
702	40.6835	15.45973	-26.03744	-27.66478	34.17414	-4.88202	35.80148	57.77057	103.33609	96.01306	68.34828	27.66478	0
703	35.80148	15.45973	-21.15542	-25.22377	29.29212	-2.44101	32.5468	57.77057	105.7771	96.01306	68.34828	27.66478	0
704	33.36047	17.90074	-16.2734	-25.22377	24.4101	2.44101	30.10579	50.44754	108.21811	96.01306	68.34828	27.66478	0
705	35.80148	22.78276	-13.83239	-30.10579	24.4101	4.88202	32.5468	50.44754	113.10013	98.45407	68.34828	27.66478	0
706	38.24249	30.10579	-8.95037	-34.98781	24.4101	12.20505	43.12451	57.77057	120.42316	105.7771	73.2303	27.66478	0
707	48.00653	39.86983	-8.95037	-44.75185	29.29212	17.08707	52.88855	67.53461	130.1872	115.54114	80.55333	32.5468	0
708	55.32956	49.63387	-5.69569	-52.07488	31.73313	21.96909	60.21158	82.18067	137.51023	122.86417	82.99434	37.42882	0
709	62.65259	59.39791	-3.25468	-61.83892	34.17414	29.29212	67.53461	91.94471	139.95124	130.1872	87.87636	44.75185	0
710	72.41663	74.04397	1.62734	-74.04397	36.61515	39.05616	72.41663	97.6404	147.27427	137.51023	95.19939	54.51589	0
711	79.73966	88.69003	8.95037	-83.80801	36.61515	48.8202	67.53461	102.52242	154.5973	147.27427	102.52242	64.27993	0
712	87.06269	98.45407	11.39138	-93.57205	39.05616	56.14323	55.32956	100.08141	159.47932	149.71528	109.84545	71.60296	0
713	89.5037	103.33609	13.83239	-96.01306	39.05616	58.58424	40.6835	91.94471	159.47932	149.71528	109.84545	74.04397	0
714	91.94471	103.33609	11.39138	-98.45407	41.49717	58.58424	25.22377	74.85764	154.5973	144.83326	109.84545	71.60296	0
715	91.94471	100.89508	8.95037	-96.01306	41.49717	56.14323	10.57771	57.77057	147.27427	139.95124	109.84545	69.16195	0
716	87.06269	93.57205	6.50936	-91.13104	41.49717	51.26121	-1.62734	45.56552	137.51023	135.06922	109.84545	64.27993	0
717	84.62168	83.80801	-0.81367	-83.80801	43.93818	41.49717	-13.83239	40.6835	130.1872	132.62821	109.84545	64.27993	0
718	84.62168	81.367	-3.25468	-83.80801	43.93818	39.05616	-18.71441	40.6835	125.30518	132.62821	109.84545	64.27993	0
719	84.62168	81.367	-3.25468	-83.80801	43.93818	39.05616	-23.59643	40.6835	120.42316	132.62821	112.28646	66.72094	0
720	89.5037	93.57205	4.06835	-91.13104	43.93818	48.8202	-23.59643	40.6835	120.42316	132.62821	117.16848	74.04397	0
721	101.70875	110.65912	8.95037	-105.7771	46.37919	61.02525	-28.47845	45.56552	125.30518	139.95124	124.49151	86.24902	0
722	111.47279	122.86417	11.39138	-117.98215	51.26121	68.34828	-33.36047	43.12451	130.1872	144.83326	131.81454	93.57205	0
723	116.35481	125.30518	8.95037	-120.42316	53.70222	68.34828	-45.56552	35.80148	127.74619	142.39225	131.81454	93.57205	0
724	118.79582	120.42316	1.62734	-120.42316	58.58424	61.02525	-55.32956	21.15542	120.42316	137.51023	129.37353	88.69003	0
725	118.79582	110.65912	-8.95037	-115.54114	63.46626	51.26121	-62.65259	1.62734	108.21811	125.30518	122.0505	81.367	0
726	111.47279	93.57205	-18.71441	-103.33609	65.90727	39.05616	-65.0936	-8.1367	96.01306	117.98215	117.16848	71.60296	0
727	109.03178	76.48498	-33.36047	-93.57205	70.78929	21.96909	-65.0936	-13.01872	86.24902	110.65912	109.84545	64.27993	0
728	106.59077	59.39791	-48.00653	-83.80801	78.11232	7.32303	-62.65259	-8.1367	80.55333	105.7771	102.52242	59.39791	0
729	104.14976	44.75185	-60.21158	-74.04397	82.99434	-7.32303	-55.32956	-5.69569	78.11232	100.89508	95.19939	56.9569	0
730	96.82673	32.5468	-65.0936	-64.27993	80.55333	-15.45973	-52.88855	-3.25468	75.67131	96.01306	90.31737	54.51589	0
731	87.06269	22.78276	-65.0936	-54.51589	75.67131	-20.34175	-50.44754	1.62734	78.11232	96.01306	90.31737	54.51589	0
732	79.73966	15.45973	-65.0936	-47.19286	73.2303	-25.22377	-45.56552	6.50936	83.80801	98.45407	87.87636	52.07488	0
733	67.53461	0.81367	-67.53461	-34.98781	68.34828	-32.5468	-45.56552	4.06835	83.80801	93.57205	82.99434	47.19286	0
734	52.88855	-12.20505	-65.0936	-20.34175	58.58424	-37.42882	-45.56552	-5.69569	80.55333	86.24902	75.67131	37.42882	0
735	48.00653	-17.08707	-65.0936	-15.45973	56.14323	-39.86983	-43.12451	-8.1367	80.55333	81.367	73.2303	30.10579	0
736	48.00653	-21.96909	-69.97562	-13.01872	58.58424	-44.75185	-35.80148	-8.1367	75.67131	78.92599	68.34828	25.22377	0
737	43.12451	-34.17414	-77.29865	-5.69569	58.58424	-54.51589	-30.91946	-5.69569	73.2303	76.48498	61.02525	17.90074	0
738	43.12451	-43.93818	-87.06269	-0.81367	63.46626	-64.27993	-26.03744	1.62734	68.34828	71.60296	51.26121	10.57771	0
739	50.44754	-46.37919	-96.82673	-3.25468	73.2303	-71.60296	-21.15542	6.50936	65.90727	69.16195	46.37919	10.57771	0
740	57.77057	-41.49717	-99.26774	-8.1367	78.11232	-69.16195	-16.2734	11.39138	65.90727	66.72094	43.93818	10.57771	0
741	60.21158	-41.49717	-101.70875	-10.57771	80.55333	-71.60296	-16.2734	11.39138	63.46626	64.27993	41.49717	10.57771	0
742	52.88855	-48.8202	-101.70875	-3.25468	75.67131	-74.04397	-21.15542	1.62734	61.02525	56.9569	36.61515	5.69569	0
743	43.12451	-61.02525	-104.14976	6.50936	73.2303	-81.367	-26.03744	-10.57771	53.70222	44.75185	31.73313	-1.62734	0
744	30.91946	-70.78929	-101.70875	19.52808	65.90727	-86.24902	-30.91946	-27.66478	46.37919	39.05616	24.4101	-8.95037	0
745	21.15542	-82.99434	-104.14976	29.29212	61.02525	-93.57205	-35.80148	-39.86983	39.05616	29.29212	21.96909	-18.71441	0
746	6.50936	-95.19939	-101.70875	43.93818	53.70222	-98.45407	-38.24249	-47.19286	31.73313	26.85111	17.08707	-24.4101	0
747	-6.50936	-112.28646	-106.59077	58.58424	48.8202	-110.65912	-43.12451	-49.63387	26.85111	24.4101	12.20505	-34.17414	0
748	-11.39138	-119.60949	-109.03178	63.46626	48.8202	-115.54114	-43.12451	-42.31084	26.85111	24.4101	9.76404	-34.17414	0
749	-0.81367	-112.28646	-111.47279	56.14323	53.70222	-110.65912	-40.6835	-32.5468	29.29212	29.29212	12.20505	-31.73313	0
750	13.83239	-100.08141	-113.9138	41.49717	63.46626	-105.7771	-35.80148	-25.22377	34.17414	34.17414	17.08707	-24.4101	0
751	18.71441	-92.75838	-111.47279	36.61515	63.46626	-100.89508	-35.80148	-17.90074	41.49717	39.05616	19.52808	-21.15542	0
752	23.59643	-90.31737	-113.9138	31.73313	68.34828	-100.89508	-38.24249	-17.90074	46.37919	39.05616	19.52808	-18.71441	0
753	28.47845	-90.31737	-118.79582	29.29212	73.2303	-103.33609	-43.12451	-20.34175	46.37919	39.05616	21.96909	-16.2734	0
754	26.03744	-92.75838	-118.79582	31.73313	70.78929	-105.7771	-45.56552	-30.10579	46.37919	39.05616	21.96909	-18.71441	0
755	18.71441	-97.6404	-116.35481	39.05616	65.90727	-105.7771	-45.56552	-37.42882	43.93818	36.61515	21.96909	-21.15542	0
756	13.83239	-102.52242	-116.35481	43.93818	63.46626	-108.21811	-45.56552	-37.42882	43.93818	39.05616	24.4101	-21.15542	0
757	13.83239	-102.52242	-116.35481	43.93818	63.46626	-108.21811	-40.6835	-32.5468	43.93818	39.05616	24.4101	-21.15542	0
758	21.15542	-97.6404	-118.79582	36.61515	68.34828	-108.21811	-33.36047	-20.34175	46.37919	47.19286	26.85111	-18.71441	0
759	21.15542	-97.6404	-118.79582	36.61515	68.34828	-108.21811	-33.36047	-13.01872	48.8202	49.63387	26.85111	-16.2734	0
760	21.15542	-90.31737	-111.47279	34.17414	65.90727	-100.89508	-30.91946	-5.69569	53.70222	52.07488	29.29212	-11.39138	0
761	23.59643	-85.43535	-109.03178	29.29212	65.90727	-96.01306	-33.36047	1.62734	58.58424	54.51589	29.29212	-6.50936	0
762	23.59643	-85.43535	-109.03178	29.29212	65.90727	-96.01306	-35.80148	1.62734	63.46626	56.9569	31.73313	-4.06835	0
763	21.15542	-85.43535	-106.59077	31.73313	63.46626	-96.01306	-40.6835	-3.25468	63.46626	54.51589	31.73313	-4.06835	0
764	18.71441	-85.43535	-104.14976	31.73313	61.02525	-93.57205	-43.12451	-10.57771	63.46626	52.07488	29.29212	-6.50936	0
765	18.71441	-82.99434	-101.70875	31.73313	58.58424	-91.13104	-43.12451	-15.45973	63.46626	49.63387	29.29212	-6.50936	0
766	23.59643	-80.55333	-104.14976	26.85111	63.46626	-91.13104	-38.24249	-15.45973	65.90727	52.07488	31.73313	-8.95037	0
767	23.59643	-82.99434	-106.59077	29.29212	63.46626	-93.57205	-33.36047	-8.1367	65.90727	54.51589	34.17414	-8.95037	0
768	21.15542	-87.87636	-109.03178	31.73313	63.46626	-98.45407	-33.36047	-0.81367	65.90727	59.39791	31.73313	-8.95037	0
769	13.83239	-95.19939	-109.03178	39.05616	61.02525	-100.89508	-33.36047	4.06835	65.90727	59.39791	26.85111	-8.95037	0
770	6.50936	-100.08141	-106.59077	46.37919	56.14323	-103.33609	-38.24249	8.95037	65.90727	59.39791	24.4101	-6.50936	0
771	4.06835	-100.08141	-104.14976	46.37919	53.70222	-100.89508	-43.12451	11.39138	70.78929	61.83892	24.4101	-4.06835	0
772	6.50936	-92.75838	-99.26774	41.49717	51.26121	-96.01306	-43.12451	13.83239	78.11232	66.72094	29.29212	0.81367	0
773	11.39138	-87.87636	-99.26774	36.61515	53.70222	-93.57205	-43.12451	16.2734	83.80801	66.72094	31.73313	3.25468	0
774	18.71441	-80.55333	-99.26774	29.29212	58.58424	-88.69003	-45.56552	13.83239	88.69003	69.16195	36.61515	3.25468	0
775	28.47845	-73.2303	-101.70875	21.96909	63.46626	-86.24902	-45.56552	11.39138	88.69003	71.60296	41.49717	3.25468	0
776	30.91946	-65.90727	-96.82673	17.08707	63.46626	-81.367	-43.12451	6.50936	86.24902	69.16195	41.49717	0.81367	0
777	28.47845	-68.34828	-96.82673	19.52808	61.02525	-81.367	-50.44754	-5.69569	73.2303	59.39791	39.05616	0.81367	0
778	16.2734	-78.11232	-94.38572	29.29212	53.70222	-86.24902	-65.0936	-22.78276	51.26121	47.19286	31.73313	-1.62734	0
779	4.06835	-87.87636	-91.94471	41.49717	46.37919	-88.69003	-84.62168	-52.07488	24.4101	39.05616	29.29212	0.81367	0
780	-4.06835	-95.19939	-91.94471	48.8202	43.93818	-93.57205	-106.59077	-88.69003	-7.32303	31.73313	29.29212	8.1367	0
781	-4.06835	-95.19939	-91.94471	48.8202	43.93818	-93.57205	-131.00087	-125.30518	-36.61515	29.29212	34.17414	17.90074	0
782	6.50936	-95.19939	-101.70875	43.93818	53.70222	-98.45407	-152.96996	-161.92033	-56.14323	36.61515	51.26121	32.5468	0
783	33.36047	-92.75838	-126.11885	29.29212	78.11232	-108.21811	-167.61602	-188.77144	-61.02525	61.83892	82.99434	54.51589	0
784	77.29865	-73.2303	-150.52895	-3.25468	112.28646	-110.65912	-179.82107	-205.85851	-43.93818	115.54114	131.81454	91.13104	0
785	126.11885	-43.93818	-170.05703	-42.31084	146.4606	-105.7771	-192.02612	-218.06356	-7.32303	191.21245	205.04484	142.39225	0
786	192.02612	8.1367	-184.70309	-100.89508	187.95777	-88.69003	-221.31824	-227.8276	51.26121	298.61689	305.12625	220.50457	0
787	267.69743	76.48498	-192.02612	-171.68437	229.45494	-56.9569	-270.13844	-249.79669	122.86417	435.31345	436.94079	325.468	0
788	353.13278	159.47932	-194.46713	-257.11972	273.39312	-17.90074	-348.25076	-301.0579	193.65346	596.42011	595.60644	459.72355	0
789	443.45015	269.32477	-174.93905	-357.20113	310.00827	48.8202	-455.6552	-393.81628	252.2377	767.29081	776.24118	615.94819	0
790	514.23944	388.93426	-126.11885	-452.40052	319.77231	131.81454	-582.58772	-532.95385	281.52982	921.07444	961.75794	781.93687	0
791	553.2956	518.30779	-35.80148	-535.39486	295.36221	241.65999	-707.07923	-720.91162	254.67871	1026.03787	1125.30561	940.60252	0
792	550.85459	615.94819	65.0936	-584.21506	244.101	341.7414	-812.04266	-962.57161	137.51023	1023.59686	1208.29995	1040.68393	0
793	499.59338	664.76839	165.17501	-581.77405	168.42969	414.9717	-880.39094	-1233.52372	-73.2303	891.78232	1188.77187	1055.32999	0
794	397.07096	667.2094	270.13844	-532.95385	63.46626	468.67392	-917.00609	-1528.88593	-388.12059	615.94819	1049.6343	982.09969	0
795	253.05137	623.27122	370.21985	-437.75446	-59.39791	497.96604	-929.21114	-1834.01218	-793.32825	196.09447	793.32825	816.11101	0
796	87.06269	547.59991	460.53722	-318.14497	-186.33043	505.28907	-917.00609	-2119.61035	-1244.9151	-295.36221	466.23291	598.86112	0
797	-72.41663	447.5185	519.12146	-188.77144	-296.17588	483.31998	-892.59599	-2368.59337	-1686.73791	-803.09229	112.28646	352.31911	0
798	-211.5542	335.23204	545.97257	-61.83892	-379.17022	439.3818	-892.59599	-2556.55114	-2062.65345	-1249.79712	-225.38659	113.10013	0
799	-318.95864	249.79669	567.94166	34.17414	-442.63648	407.64867	-931.65215	-2685.92467	-2343.3696	-1589.09751	-486.57466	-70.78929	0
800	-397.07096	181.44841	577.7057	107.40444	-486.57466	378.35655	-985.35437	-2742.0679	-2506.91727	-1806.3474	-672.09142	-205.04484	0
801	-426.36308	147.27427	572.82368	139.13757	-498.77971	358.82847	-1024.41053	-2703.01174	-2519.12232	-1860.04962	-750.20374	-270.95211	0
802	-421.48106	137.51023	558.17762	141.57858	-489.01567	346.62342	-1036.61558	-2580.96124	-2409.27687	-1794.14235	-750.20374	-285.59817	0
803	-397.07096	127.74619	524.00348	134.25555	-459.72355	324.65433	-1034.17457	-2395.44448	-2221.3191	-1655.00478	-708.70657	-278.27514	0
804	-360.45581	125.30518	484.94732	117.16848	-423.1084	305.12625	-1002.44144	-2170.87156	-1986.98214	-1481.69307	-645.24031	-261.18807	0
805	-318.95864	127.74619	445.89116	95.19939	-381.61123	285.59817	-924.32912	-1912.1245	-1735.55811	-1298.61732	-574.45102	-239.21898	0
806	-270.13844	137.51023	406.835	65.90727	-337.67305	270.95211	-816.92468	-1638.73138	-1481.69307	-1115.54157	-501.22072	-212.36787	0
807	-226.20026	152.15629	377.54288	36.61515	-301.0579	263.62908	-702.19721	-1375.1023	-1242.47409	-942.22986	-430.43143	-185.51676	0
808	-199.34915	152.15629	350.69177	21.96909	-274.20679	251.42403	-592.35176	-1135.88332	-1025.2242	-790.88724	-371.84719	-161.10666	0
809	-182.26208	142.39225	323.84066	19.52808	-252.2377	231.89595	-492.27035	-925.95646	-839.70744	-656.63169	-320.58598	-144.01959	0
810	-167.61602	127.74619	294.54854	19.52808	-230.26861	209.92686	-401.95298	-740.4397	-673.71876	-539.46321	-274.20679	-126.93252	0
811	-150.52895	105.7771	255.49238	21.96909	-203.4175	180.63474	-323.84066	-576.89203	-527.25816	-432.05877	-232.70962	-114.72747	0
812	-131.00087	83.80801	213.99521	21.96909	-171.68437	148.90161	-250.61036	-430.43143	-393.00261	-334.41837	-193.65346	-100.08141	0
813	-116.35481	56.9569	172.49804	29.29212	-144.83326	114.72747	-187.1441	-305.93992	-275.83413	-248.98302	-157.03831	-90.31737	0
814	-101.70875	32.5468	133.44188	34.17414	-117.98215	82.99434	-131.00087	-198.53548	-175.75272	-173.31171	-122.86417	-80.55333	0
815	-74.85764	15.45973	89.5037	29.29212	-81.367	51.26121	-79.73966	-103.33609	-85.43535	-102.52242	-88.69003	-65.90727	0
816	-45.56552	13.01872	57.77057	14.64606	-52.07488	34.17414	-35.80148	-20.34175	-9.76404	-39.05616	-56.9569	-51.26121	0
817	-26.03744	3.25468	28.47845	9.76404	-27.66478	14.64606	0.81367	48.00653	51.26121	12.20505	-30.10579	-36.61515	0
818	-16.2734	-8.95037	6.50936	12.20505	-10.57771	-2.44101	27.66478	100.08141	96.01306	47.19286	-13.01872	-29.29212	0
819	-11.39138	-24.4101	-13.83239	17.08707	-0.81367	-20.34175	45.56552	139.13757	130.1872	74.04397	-4.88202	-24.4101	0
820	-8.95037	-34.17414	-26.03744	19.52808	7.32303	-30.10579	60.21158	168.42969	159.47932	96.01306	4.88202	-21.15542	0
821	-4.06835	-41.49717	-38.24249	21.96909	17.08707	-39.86983	69.97562	192.83979	181.44841	113.10013	14.64606	-18.71441	0
822	-11.39138	-56.14323	-45.56552	31.73313	17.08707	-52.07488	72.41663	209.92686	200.97649	125.30518	19.52808	-18.71441	0
823	-18.71441	-68.34828	-50.44754	41.49717	14.64606	-59.39791	72.41663	224.57292	218.06356	135.06922	24.4101	-16.2734	0
824	-18.71441	-78.11232	-60.21158	46.37919	19.52808	-69.16195	77.29865	239.21898	235.15063	147.27427	31.73313	-13.83239	0
825	-21.15542	-85.43535	-65.0936	51.26121	21.96909	-76.48498	84.62168	251.42403	249.79669	157.03831	39.05616	-11.39138	0
826	-21.15542	-90.31737	-69.97562	53.70222	24.4101	-81.367	89.5037	266.07009	264.44275	171.68437	46.37919	-8.95037	0
827	-16.2734	-92.75838	-77.29865	53.70222	29.29212	-86.24902	96.82673	283.15716	279.08881	186.33043	53.70222	-6.50936	0
828	-18.71441	-100.08141	-82.18067	58.58424	31.73313	-91.13104	99.26774	300.24423	291.29386	198.53548	56.14323	-4.06835	0
829	-13.83239	-102.52242	-89.5037	56.14323	36.61515	-96.01306	101.70875	312.44928	301.0579	210.74053	58.58424	-1.62734	0
830	-6.50936	-92.75838	-87.06269	48.8202	39.05616	-91.13104	106.59077	319.77231	313.26295	220.50457	63.46626	0.81367	0
831	8.95037	-78.11232	-87.06269	34.17414	46.37919	-81.367	113.9138	331.97736	327.90901	232.70962	70.78929	8.1367	0
832	23.59643	-63.46626	-87.06269	19.52808	53.70222	-74.04397	116.35481	339.30039	342.55507	242.47366	75.67131	13.01872	0
833	26.03744	-61.02525	-87.06269	17.08707	56.14323	-74.04397	116.35481	341.7414	349.8781	244.91467	78.11232	15.45973	0
834	21.15542	-68.34828	-89.5037	21.96909	53.70222	-78.92599	116.35481	341.7414	352.31911	244.91467	78.11232	13.01872	0
835	21.15542	-68.34828	-89.5037	21.96909	53.70222	-78.92599	118.79582	344.18241	354.76012	244.91467	82.99434	17.90074	0
836	23.59643	-65.90727	-89.5037	19.52808	56.14323	-76.48498	126.11885	351.50544	359.64214	249.79669	87.87636	22.78276	0
837	16.2734	-78.11232	-94.38572	29.29212	53.70222	-86.24902	128.55986	356.38746	359.64214	252.2377	90.31737	25.22377	0
838	-0.81367	-95.19939	-94.38572	46.37919	46.37919	-93.57205	128.55986	361.26948	359.64214	254.67871	90.31737	25.22377	0
839	-6.50936	-107.40444	-101.70875	56.14323	46.37919	-105.7771	128.55986	366.1515	362.08315	257.11972	90.31737	25.22377	0
840	-4.06835	-102.52242	-99.26774	51.26121	46.37919	-100.89508	133.44188	373.47453	366.96517	264.44275	97.6404	32.5468	0
841	-4.06835	-95.19939	-91.94471	48.8202	43.93818	-93.57205	138.3239	385.67958	374.2882	271.76578	102.52242	34.98781	0
842	-6.50936	-97.6404	-91.94471	51.26121	41.49717	-96.01306	138.3239	395.44362	381.61123	274.20679	102.52242	34.98781	0
843	-6.50936	-104.96343	-99.26774	53.70222	46.37919	-103.33609	138.3239	400.32564	386.49325	274.20679	102.52242	34.98781	0
844	-4.06835	-104.96343	-101.70875	53.70222	48.8202	-103.33609	138.3239	400.32564	388.93426	274.20679	102.52242	32.5468	0
845	1.62734	-100.08141	-101.70875	48.8202	51.26121	-100.89508	145.64693	405.20766	393.81628	276.6478	107.40444	32.5468	0
846	4.06835	-97.6404	-101.70875	46.37919	51.26121	-98.45407	155.41097	410.08968	398.6983	283.97083	109.84545	34.98781	0
847	4.06835	-102.52242	-106.59077	48.8202	53.70222	-103.33609	162.734	414.9717	401.13931	288.85285	112.28646	34.98781	0
848	4.06835	-104.96343	-109.03178	48.8202	56.14323	-105.7771	167.61602	419.85372	406.02133	296.17588	112.28646	34.98781	0
849	-0.81367	-109.84545	-109.03178	53.70222	53.70222	-108.21811	170.05703	419.85372	408.46234	298.61689	109.84545	32.5468	0
850	-6.50936	-112.28646	-106.59077	58.58424	48.8202	-110.65912	172.49804	419.85372	413.34436	301.0579	109.84545	32.5468	0
851	-13.83239	-112.28646	-99.26774	61.02525	41.49717	-105.7771	174.93905	429.61776	418.22638	303.49891	109.84545	32.5468	0
852	-16.2734	-109.84545	-94.38572	61.02525	39.05616	-103.33609	174.93905	439.3818	425.54941	305.93992	109.84545	30.10579	0
853	-11.39138	-100.08141	-89.5037	53.70222	39.05616	-96.01306	174.93905	449.14584	432.87244	305.93992	109.84545	32.5468	0
854	-4.06835	-87.87636	-84.62168	43.93818	39.05616	-86.24902	179.82107	454.02786	440.19547	310.82194	114.72747	37.42882	0
855	1.62734	-78.11232	-79.73966	36.61515	39.05616	-78.92599	184.70309	458.90988	442.63648	313.26295	119.60949	37.42882	0
856	6.50936	-75.67131	-82.18067	34.17414	43.93818	-78.92599	192.02612	468.67392	447.5185	315.70396	122.0505	42.31084	0
857	8.95037	-70.78929	-79.73966	29.29212	43.93818	-74.04397	196.90814	478.43796	452.40052	320.58598	124.49151	44.75185	0
858	11.39138	-70.78929	-82.18067	29.29212	46.37919	-76.48498	201.79016	485.76099	457.28254	325.468	124.49151	44.75185	0
859	4.06835	-75.67131	-79.73966	34.17414	41.49717	-76.48498	201.79016	488.202	457.28254	327.90901	122.0505	44.75185	0
860	-11.39138	-82.99434	-72.41663	46.37919	29.29212	-78.92599	199.34915	488.202	457.28254	323.02699	117.16848	39.86983	0
861	-21.15542	-87.87636	-67.53461	53.70222	21.96909	-78.92599	194.46713	493.08402	459.72355	323.02699	114.72747	34.98781	0
862	-23.59643	-82.99434	-60.21158	51.26121	17.08707	-71.60296	192.02612	500.40705	467.04658	323.02699	114.72747	34.98781	0
863	-23.59643	-80.55333	-57.77057	51.26121	17.08707	-69.16195	189.58511	505.28907	469.48759	323.02699	114.72747	34.98781	0
864	-21.15542	-75.67131	-55.32956	46.37919	17.08707	-66.72094	187.1441	507.73008	471.9286	323.02699	119.60949	37.42882	0
865	-16.2734	-70.78929	-55.32956	41.49717	19.52808	-64.27993	192.02612	515.05311	476.81062	327.90901	126.93252	44.75185	0
866	-6.50936	-61.02525	-55.32956	31.73313	24.4101	-59.39791	196.90814	527.25816	484.13365	337.67305	134.25555	52.07488	0
867	1.62734	-56.14323	-57.77057	26.85111	29.29212	-56.9569	204.23117	541.90422	491.45668	347.43709	144.01959	56.9569	0
868	8.95037	-51.26121	-60.21158	19.52808	34.17414	-54.51589	211.5542	549.22725	501.22072	357.20113	148.90161	66.72094	0
869	13.83239	-46.37919	-60.21158	14.64606	36.61515	-52.07488	218.87723	558.99129	510.98476	366.96517	153.78363	71.60296	0
870	16.2734	-39.05616	-55.32956	9.76404	34.17414	-47.19286	226.20026	573.63735	520.7488	371.84719	158.66565	78.92599	0
871	16.2734	-34.17414	-50.44754	6.50936	31.73313	-42.31084	228.64127	590.72442	528.07183	374.2882	158.66565	78.92599	0
872	13.83239	-31.73313	-45.56552	6.50936	29.29212	-37.42882	231.08228	598.04745	532.95385	371.84719	158.66565	76.48498	0
873	6.50936	-34.17414	-40.6835	12.20505	21.96909	-37.42882	231.08228	600.48846	535.39486	364.52416	153.78363	74.04397	0
874	-0.81367	-39.05616	-38.24249	19.52808	17.08707	-37.42882	231.08228	605.37048	535.39486	359.64214	146.4606	64.27993	0
875	-11.39138	-43.93818	-33.36047	26.85111	9.76404	-39.86983	235.9643	612.69351	535.39486	352.31911	141.57858	56.9569	0
876	-18.71441	-48.8202	-30.91946	31.73313	4.88202	-39.86983	238.40531	622.45755	535.39486	352.31911	139.13757	49.63387	0
877	-23.59643	-53.70222	-30.91946	36.61515	1.62734	-42.31084	243.28733	627.33957	535.39486	352.31911	136.69656	47.19286	0
878	-28.47845	-53.70222	-26.03744	39.05616	-3.25468	-39.86983	248.16935	637.10361	540.27688	352.31911	134.25555	47.19286	0
879	-30.91946	-48.8202	-18.71441	39.05616	-8.1367	-34.98781	253.05137	646.86765	545.1589	354.76012	134.25555	49.63387	0
880	-30.91946	-36.61515	-5.69569	31.73313	-13.01872	-22.78276	257.93339	656.63169	550.04092	352.31911	134.25555	54.51589	0
881	-23.59643	-19.52808	4.06835	19.52808	-15.45973	-7.32303	265.25642	673.71876	554.92294	352.31911	136.69656	61.83892	0
882	-18.71441	-6.50936	11.39138	12.20505	-15.45973	2.44101	272.57945	685.92381	559.80496	349.8781	136.69656	66.72094	0
883	-13.83239	5.69569	18.71441	4.06835	-15.45973	12.20505	277.46147	688.36482	562.24597	342.55507	134.25555	66.72094	0
884	-13.83239	10.57771	23.59643	1.62734	-17.90074	17.08707	279.90248	685.92381	557.36395	332.79103	129.37353	59.39791	0
885	-16.2734	10.57771	26.03744	1.62734	-20.34175	17.08707	287.22551	685.92381	547.59991	320.58598	124.49151	52.07488	0
886	-16.2734	13.01872	28.47845	1.62734	-22.78276	19.52808	294.54854	693.24684	540.27688	315.70396	122.0505	52.07488	0
887	-16.2734	15.45973	30.91946	-0.81367	-22.78276	21.96909	301.87157	693.24684	532.95385	315.70396	122.0505	49.63387	0
888	-18.71441	15.45973	33.36047	1.62734	-25.22377	24.4101	301.87157	690.80583	525.63082	310.82194	119.60949	54.51589	0
889	-18.71441	20.34175	38.24249	-0.81367	-27.66478	29.29212	304.31258	685.92381	518.30779	303.49891	117.16848	56.9569	0
890	-18.71441	32.5468	50.44754	-8.1367	-34.98781	41.49717	306.75359	678.60078	510.98476	296.17588	114.72747	64.27993	0
891	-26.03744	39.86983	65.0936	-8.1367	-44.75185	51.26121	304.31258	673.71876	503.66173	286.41184	112.28646	74.04397	0
892	-35.80148	44.75185	79.73966	-5.69569	-56.9569	61.02525	301.87157	659.0727	491.45668	271.76578	107.40444	76.48498	0
893	-40.6835	52.07488	91.94471	-5.69569	-66.72094	70.78929	301.87157	644.42664	479.25163	254.67871	104.96343	76.48498	0
894	-40.6835	61.83892	101.70875	-10.57771	-71.60296	80.55333	299.43056	624.89856	462.16456	232.70962	100.08141	71.60296	0
895	-43.12451	64.27993	106.59077	-10.57771	-74.04397	85.43535	299.43056	607.81149	440.19547	210.74053	95.19939	66.72094	0
896	-52.88855	61.83892	113.9138	-5.69569	-83.80801	87.87636	301.87157	593.16543	413.34436	196.09447	90.31737	61.83892	0
897	-55.32956	61.83892	116.35481	-3.25468	-86.24902	87.87636	304.31258	585.8424	391.37527	183.88942	87.87636	59.39791	0
898	-57.77057	69.16195	126.11885	-5.69569	-91.13104	97.6404	304.31258	576.07836	371.84719	169.24336	82.99434	59.39791	0
899	-62.65259	71.60296	133.44188	-5.69569	-98.45407	102.52242	301.87157	561.4323	349.8781	154.5973	75.67131	61.83892	0
900	-74.85764	71.60296	145.64693	1.62734	-110.65912	107.40444	296.98955	541.90422	327.90901	135.06922	65.90727	61.83892	0
901	-89.5037	71.60296	160.29299	6.50936	-125.30518	114.72747	289.66652	522.37614	303.49891	115.54114	58.58424	61.83892	0
902	-99.26774	74.04397	172.49804	12.20505	-135.06922	122.0505	284.7845	497.96604	279.08881	91.13104	46.37919	59.39791	0
903	-104.14976	78.92599	182.26208	12.20505	-142.39225	129.37353	277.46147	466.23291	249.79669	61.83892	36.61515	54.51589	0
904	-106.59077	83.80801	189.58511	9.76404	-147.27427	136.69656	270.13844	434.49978	215.62255	34.17414	24.4101	44.75185	0
905	-109.03178	88.69003	196.90814	9.76404	-152.15629	141.57858	265.25642	405.20766	179.0074	2.44101	17.08707	37.42882	0
906	-109.03178	93.57205	201.79016	6.50936	-154.5973	146.4606	260.3744	380.79756	142.39225	-21.96909	9.76404	34.98781	0
907	-109.03178	93.57205	201.79016	6.50936	-154.5973	146.4606	255.49238	356.38746	105.7771	-43.93818	0	30.10579	0
908	-106.59077	96.01306	201.79016	4.06835	-154.5973	148.90161	240.84632	329.53635	70.78929	-70.78929	-10.57771	27.66478	0
909	-109.03178	96.01306	204.23117	6.50936	-157.03831	148.90161	226.20026	297.80322	31.73313	-97.6404	-20.34175	22.78276	0
910	-116.35481	96.01306	211.5542	9.76404	-164.36134	153.78363	206.67218	258.74706	-4.88202	-126.93252	-34.98781	20.34175	0
911	-118.79582	100.89508	218.87723	6.50936	-169.24336	158.66565	189.58511	219.6909	-46.37919	-156.22464	-47.19286	15.45973	0
912	-123.67784	96.01306	218.87723	12.20505	-171.68437	156.22464	172.49804	178.19373	-82.99434	-185.51676	-61.83892	5.69569	0
913	-126.11885	93.57205	218.87723	14.64606	-171.68437	156.22464	157.85198	139.13757	-117.16848	-219.6909	-74.04397	-1.62734	0
914	-126.11885	96.01306	221.31824	14.64606	-174.12538	158.66565	143.20592	97.6404	-153.78363	-246.54201	-83.80801	-11.39138	0
915	-123.67784	91.13104	213.99521	14.64606	-169.24336	151.34262	135.88289	60.21158	-187.95777	-275.83413	-88.69003	-21.15542	0
916	-118.79582	86.24902	204.23117	14.64606	-161.92033	144.01959	128.55986	28.47845	-219.6909	-292.9212	-96.01306	-26.85111	0
917	-116.35481	76.48498	192.02612	19.52808	-154.5973	134.25555	118.79582	1.62734	-244.101	-305.12625	-103.33609	-31.73313	0
918	-121.23683	61.83892	182.26208	29.29212	-152.15629	122.0505	104.14976	-30.10579	-266.07009	-319.77231	-113.10013	-39.05616	0
919	-121.23683	52.07488	172.49804	34.17414	-147.27427	112.28646	87.06269	-66.72094	-290.48019	-329.53635	-120.42316	-48.8202	0
920	-126.11885	44.75185	170.05703	39.05616	-147.27427	107.40444	67.53461	-98.45407	-312.44928	-344.18241	-132.62821	-58.58424	0
921	-128.55986	37.42882	165.17501	43.93818	-147.27427	100.08141	48.00653	-122.86417	-329.53635	-353.94645	-142.39225	-65.90727	0
922	-131.00087	32.5468	162.734	48.8202	-147.27427	97.6404	32.5468	-139.95124	-341.7414	-361.26948	-152.15629	-75.67131	0
923	-131.00087	27.66478	157.85198	51.26121	-144.83326	92.75838	20.34175	-152.15629	-351.50544	-373.47453	-157.03831	-85.43535	0
924	-128.55986	20.34175	148.08794	53.70222	-137.51023	82.99434	8.1367	-166.80235	-363.71049	-380.79756	-159.47932	-92.75838	0
925	-123.67784	13.01872	135.88289	53.70222	-130.1872	73.2303	3.25468	-176.56639	-368.59251	-385.67958	-154.5973	-97.6404	0
926	-121.23683	0.81367	121.23683	58.58424	-120.42316	61.02525	0.81367	-181.44841	-371.03352	-380.79756	-147.27427	-97.6404	0
927	-116.35481	-12.20505	104.14976	63.46626	-110.65912	46.37919	0.81367	-181.44841	-368.59251	-366.1515	-135.06922	-92.75838	0
928	-113.9138	-19.52808	94.38572	65.90727	-105.7771	36.61515	-6.50936	-188.77144	-363.71049	-356.38746	-125.30518	-87.87636	0
929	-113.9138	-31.73313	82.18067	70.78929	-98.45407	24.4101	-13.83239	-198.53548	-358.82847	-341.7414	-115.54114	-80.55333	0
930	-113.9138	-41.49717	72.41663	75.67131	-93.57205	14.64606	-21.15542	-198.53548	-349.06443	-331.97736	-110.65912	-75.67131	0
931	-111.47279	-43.93818	67.53461	75.67131	-91.13104	12.20505	-30.91946	-188.77144	-336.85938	-317.3313	-105.7771	-73.2303	0
932	-101.70875	-39.05616	62.65259	68.34828	-83.80801	12.20505	-33.36047	-174.12538	-322.21332	-302.68524	-103.33609	-68.34828	0
933	-91.94471	-34.17414	57.77057	61.02525	-76.48498	12.20505	-35.80148	-164.36134	-310.00827	-295.36221	-98.45407	-68.34828	0
934	-79.73966	-26.85111	52.88855	51.26121	-66.72094	12.20505	-35.80148	-157.03831	-297.80322	-283.15716	-93.57205	-70.78929	0
935	-74.85764	-24.4101	50.44754	48.8202	-64.27993	12.20505	-33.36047	-152.15629	-285.59817	-273.39312	-86.24902	-73.2303	0
936	-67.53461	-21.96909	45.56552	43.93818	-56.9569	12.20505	-28.47845	-144.83326	-273.39312	-256.30605	-76.48498	-70.78929	0
937	-57.77057	-21.96909	35.80148	39.05616	-47.19286	7.32303	-21.15542	-137.51023	-258.74706	-236.77797	-66.72094	-65.90727	0
938	-57.77057	-24.4101	33.36047	39.05616	-47.19286	4.88202	-21.15542	-137.51023	-246.54201	-219.6909	-56.9569	-63.46626	0
939	-55.32956	-26.85111	28.47845	39.05616	-42.31084	0	-26.03744	-139.95124	-231.89595	-200.16282	-47.19286	-56.14323	0
940	-57.77057	-34.17414	23.59643	43.93818	-42.31084	-4.88202	-33.36047	-139.95124	-217.24989	-187.95777	-42.31084	-51.26121	0
941	-57.77057	-36.61515	21.15542	46.37919	-39.86983	-7.32303	-38.24249	-132.62821	-202.60383	-170.8707	-37.42882	-46.37919	0
942	-52.88855	-36.61515	16.2734	43.93818	-34.98781	-10.57771	-38.24249	-122.86417	-185.51676	-156.22464	-34.98781	-41.49717	0
943	-50.44754	-39.05616	11.39138	43.93818	-32.5468	-15.45973	-40.6835	-120.42316	-173.31171	-146.4606	-30.10579	-41.49717	0
944	-48.00653	-41.49717	6.50936	43.93818	-27.66478	-17.90074	-40.6835	-117.98215	-165.98868	-139.13757	-27.66478	-41.49717	0
945	-48.00653	-43.93818	4.06835	43.93818	-27.66478	-20.34175	-35.80148	-113.10013	-158.66565	-134.25555	-22.78276	-41.49717	0
946	-48.00653	-51.26121	-3.25468	48.8202	-22.78276	-27.66478	-28.47845	-105.7771	-153.78363	-126.93252	-17.90074	-41.49717	0
947	-45.56552	-51.26121	-5.69569	46.37919	-20.34175	-30.10579	-18.71441	-93.57205	-144.01959	-112.28646	-8.1367	-39.05616	0
948	-43.12451	-48.8202	-5.69569	43.93818	-20.34175	-27.66478	-11.39138	-81.367	-134.25555	-100.08141	-2.44101	-34.17414	0
949	-33.36047	-43.93818	-11.39138	36.61515	-13.01872	-27.66478	-6.50936	-71.60296	-119.60949	-85.43535	7.32303	-29.29212	0
950	-26.03744	-31.73313	-5.69569	26.85111	-10.57771	-20.34175	-6.50936	-64.27993	-104.96343	-78.11232	9.76404	-24.4101	0
951	-23.59643	-26.85111	-3.25468	24.4101	-10.57771	-15.45973	-11.39138	-54.51589	-92.75838	-65.90727	14.64606	-18.71441	0
952	-23.59643	-26.85111	-3.25468	24.4101	-10.57771	-15.45973	-11.39138	-49.63387	-80.55333	-58.58424	14.64606	-16.2734	0
953	-16.2734	-26.85111	-11.39138	19.52808	-3.25468	-20.34175	-13.83239	-47.19286	-73.2303	-56.14323	14.64606	-21.15542	0
954	-13.83239	-26.85111	-13.83239	19.52808	-0.81367	-20.34175	-16.2734	-44.75185	-73.2303	-56.14323	14.64606	-26.85111	0
955	-11.39138	-29.29212	-18.71441	19.52808	1.62734	-25.22377	-13.83239	-42.31084	-73.2303	-56.14323	14.64606	-36.61515	0
956	-16.2734	-36.61515	-21.15542	24.4101	1.62734	-30.10579	-11.39138	-37.42882	-73.2303	-53.70222	12.20505	-43.93818	0
957	-21.15542	-46.37919	-26.03744	31.73313	1.62734	-37.42882	-6.50936	-27.66478	-73.2303	-46.37919	12.20505	-53.70222	0
958	-23.59643	-48.8202	-26.03744	34.17414	-0.81367	-37.42882	-6.50936	-17.90074	-68.34828	-41.49717	14.64606	-56.14323	0
959	-23.59643	-46.37919	-23.59643	34.17414	-0.81367	-34.98781	-8.95037	-13.01872	-63.46626	-34.17414	17.08707	-56.14323	0
960	-30.91946	-43.93818	-13.83239	36.61515	-10.57771	-30.10579	-13.83239	-13.01872	-56.14323	-31.73313	17.08707	-51.26121	0
961	-43.12451	-51.26121	-8.95037	46.37919	-17.90074	-30.10579	-21.15542	-10.57771	-53.70222	-31.73313	14.64606	-51.26121	0
962	-52.88855	-61.02525	-8.95037	56.14323	-22.78276	-34.98781	-26.03744	-10.57771	-48.8202	-31.73313	9.76404	-48.8202	0
963	-52.88855	-58.58424	-5.69569	53.70222	-25.22377	-32.5468	-26.03744	-8.1367	-43.93818	-31.73313	12.20505	-46.37919	0
964	-45.56552	-53.70222	-8.95037	48.8202	-20.34175	-32.5468	-23.59643	-10.57771	-43.93818	-31.73313	14.64606	-43.93818	0
965	-38.24249	-51.26121	-13.83239	43.93818	-13.01872	-32.5468	-16.2734	-10.57771	-43.93818	-31.73313	21.96909	-43.93818	0
966	-38.24249	-53.70222	-16.2734	43.93818	-13.01872	-34.98781	-11.39138	-8.1367	-43.93818	-26.85111	29.29212	-43.93818	0
967	-33.36047	-53.70222	-21.15542	41.49717	-8.1367	-37.42882	-4.06835	4.06835	-41.49717	-17.08707	36.61515	-39.05616	0
968	-18.71441	-43.93818	-26.03744	29.29212	1.62734	-34.98781	0.81367	18.71441	-34.17414	-7.32303	48.8202	-34.17414	0
969	-8.95037	-34.17414	-26.03744	19.52808	7.32303	-30.10579	3.25468	26.03744	-29.29212	2.44101	53.70222	-26.85111	0
970	-4.06835	-21.96909	-18.71441	12.20505	7.32303	-20.34175	3.25468	33.36047	-24.4101	4.88202	56.14323	-21.15542	0
971	-6.50936	-17.08707	-11.39138	9.76404	1.62734	-15.45973	0.81367	35.80148	-21.96909	4.88202	53.70222	-18.71441	0
972	-8.95037	-17.08707	-8.95037	12.20505	-0.81367	-13.01872	0.81367	35.80148	-19.52808	2.44101	43.93818	-18.71441	0
973	-13.83239	-17.08707	-3.25468	14.64606	-5.69569	-10.57771	-1.62734	28.47845	-19.52808	-7.32303	36.61515	-24.4101	0
974	-21.15542	-19.52808	1.62734	19.52808	-13.01872	-10.57771	-4.06835	18.71441	-24.4101	-14.64606	29.29212	-34.17414	0
975	-28.47845	-24.4101	4.06835	24.4101	-17.90074	-10.57771	-1.62734	11.39138	-31.73313	-24.4101	21.96909	-46.37919	0
976	-33.36047	-31.73313	1.62734	31.73313	-17.90074	-15.45973	-1.62734	8.95037	-41.49717	-26.85111	17.08707	-56.14323	0
977	-33.36047	-39.05616	-5.69569	34.17414	-15.45973	-22.78276	3.25468	21.15542	-41.49717	-21.96909	19.52808	-61.02525	0
978	-35.80148	-41.49717	-5.69569	36.61515	-15.45973	-25.22377	5.69569	33.36047	-39.05616	-19.52808	21.96909	-63.46626	0
979	-35.80148	-46.37919	-11.39138	39.05616	-13.01872	-30.10579	5.69569	43.12451	-36.61515	-14.64606	24.4101	-63.46626	0
980	-38.24249	-48.8202	-11.39138	41.49717	-15.45973	-30.10579	5.69569	50.44754	-34.17414	-14.64606	24.4101	-61.02525	0
981	-35.80148	-48.8202	-13.83239	41.49717	-13.01872	-32.5468	3.25468	57.77057	-29.29212	-7.32303	29.29212	-53.70222	0
982	-38.24249	-56.14323	-18.71441	46.37919	-10.57771	-37.42882	3.25468	57.77057	-26.85111	-4.88202	29.29212	-46.37919	0
983	-43.12451	-63.46626	-21.15542	51.26121	-13.01872	-42.31084	0.81367	50.44754	-29.29212	-9.76404	29.29212	-46.37919	0
984	-43.12451	-65.90727	-23.59643	53.70222	-10.57771	-44.75185	0.81367	38.24249	-34.17414	-14.64606	29.29212	-46.37919	0
985	-40.6835	-65.90727	-26.03744	51.26121	-8.1367	-47.19286	0.81367	30.91946	-39.05616	-21.96909	29.29212	-48.8202	0
986	-35.80148	-58.58424	-23.59643	46.37919	-8.1367	-42.31084	5.69569	28.47845	-43.93818	-21.96909	31.73313	-48.8202	0
987	-28.47845	-53.70222	-26.03744	39.05616	-3.25468	-39.86983	8.1367	28.47845	-43.93818	-19.52808	31.73313	-51.26121	0
988	-28.47845	-51.26121	-23.59643	39.05616	-3.25468	-37.42882	3.25468	28.47845	-48.8202	-21.96909	24.4101	-56.14323	0
989	-21.15542	-43.93818	-23.59643	31.73313	-0.81367	-34.98781	3.25468	33.36047	-46.37919	-21.96909	19.52808	-58.58424	0
990	-16.2734	-29.29212	-13.83239	21.96909	-3.25468	-22.78276	3.25468	35.80148	-41.49717	-21.96909	14.64606	-58.58424	0
991	-16.2734	-26.85111	-11.39138	19.52808	-3.25468	-20.34175	-4.06835	40.6835	-41.49717	-24.4101	7.32303	-61.02525	0
