samplenr	I	II	III	aVR	aVL	aVF	V1	V2	V3	V4	V5	V6	measurement
0	-95.19939	-0.81367	94.38572	47.19286	-95.19939	47.19286	-33.36047	-246.54201	-258.74706	-299.43056	-182.26208	-58.58424	0
1	-95.19939	-0.81367	94.38572	47.19286	-95.19939	47.19286	-30.91946	-244.101	-256.30605	-294.54854	-182.26208	-58.58424	0
2	-95.19939	-0.81367	94.38572	47.19286	-95.19939	47.19286	-28.47845	-241.65999	-248.98302	-287.22551	-179.82107	-56.14323	0
3	-90.31737	4.88202	94.38572	42.31084	-92.75838	49.63387	-28.47845	-236.77797	-244.101	-287.22551	-179.82107	-53.70222	0
4	-82.99434	9.76404	91.94471	34.98781	-87.87636	49.63387	-28.47845	-231.89595	-241.65999	-287.22551	-179.82107	-53.70222	0
5	-78.11232	7.32303	84.62168	34.98781	-80.55333	44.75185	-26.03744	-224.57292	-239.21898	-282.34349	-174.93905	-51.26121	0
6	-75.67131	2.44101	77.29865	34.98781	-75.67131	39.86983	-26.03744	-217.24989	-239.21898	-279.90248	-174.93905	-51.26121	0
7	-78.11232	-0.81367	77.29865	37.42882	-78.11232	37.42882	-26.03744	-217.24989	-244.101	-279.90248	-172.49804	-53.70222	0
8	-82.99434	-0.81367	82.18067	39.86983	-82.99434	39.86983	-30.91946	-222.13191	-246.54201	-279.90248	-172.49804	-58.58424	0
9	-87.87636	-0.81367	87.06269	42.31084	-87.87636	42.31084	-30.91946	-227.01393	-244.101	-282.34349	-170.05703	-63.46626	0
10	-95.19939	-3.25468	91.94471	47.19286	-95.19939	44.75185	-30.91946	-231.89595	-241.65999	-277.46147	-167.61602	-63.46626	0
11	-97.6404	-3.25468	94.38572	49.63387	-97.6404	44.75185	-30.91946	-234.33696	-241.65999	-277.46147	-172.49804	-65.90727	0
12	-87.87636	-0.81367	87.06269	42.31084	-87.87636	42.31084	-33.36047	-236.77797	-239.21898	-277.46147	-177.38006	-70.78929	0
13	-80.55333	-0.81367	79.73966	39.86983	-80.55333	39.86983	-33.36047	-231.89595	-234.33696	-277.46147	-177.38006	-70.78929	0
14	-78.11232	4.88202	82.18067	34.98781	-80.55333	42.31084	-33.36047	-224.57292	-231.89595	-277.46147	-179.82107	-70.78929	0
15	-75.67131	12.20505	87.06269	30.10579	-80.55333	49.63387	-33.36047	-219.6909	-229.45494	-279.90248	-182.26208	-73.2303	0
16	-80.55333	9.76404	89.5037	34.98781	-85.43535	49.63387	-33.36047	-214.80888	-231.89595	-282.34349	-182.26208	-75.67131	0
17	-82.99434	4.88202	87.06269	37.42882	-85.43535	44.75185	-35.80148	-214.80888	-236.77797	-282.34349	-179.82107	-78.11232	0
18	-92.75838	-0.81367	91.94471	44.75185	-92.75838	44.75185	-35.80148	-217.24989	-236.77797	-284.7845	-177.38006	-80.55333	0
19	-100.08141	-8.1367	91.94471	52.07488	-97.6404	42.31084	-38.24249	-219.6909	-236.77797	-287.22551	-174.93905	-82.99434	0
20	-102.52242	-8.1367	94.38572	54.51589	-100.08141	42.31084	-40.6835	-219.6909	-236.77797	-287.22551	-174.93905	-85.43535	0
21	-102.52242	-10.57771	91.94471	54.51589	-97.6404	39.86983	-40.6835	-217.24989	-239.21898	-287.22551	-179.82107	-85.43535	0
22	-100.08141	-13.01872	87.06269	54.51589	-95.19939	37.42882	-40.6835	-212.36787	-239.21898	-284.7845	-184.70309	-85.43535	0
23	-92.75838	-8.1367	84.62168	49.63387	-90.31737	37.42882	-40.6835	-209.92686	-239.21898	-287.22551	-187.1441	-85.43535	0
24	-82.99434	-3.25468	79.73966	42.31084	-82.99434	37.42882	-40.6835	-207.48585	-239.21898	-289.66652	-192.02612	-85.43535	0
25	-80.55333	-0.81367	79.73966	39.86983	-80.55333	39.86983	-40.6835	-205.04484	-241.65999	-289.66652	-192.02612	-85.43535	0
26	-75.67131	2.44101	77.29865	34.98781	-75.67131	39.86983	-40.6835	-205.04484	-244.101	-289.66652	-192.02612	-85.43535	0
27	-75.67131	2.44101	77.29865	34.98781	-75.67131	39.86983	-43.12451	-214.80888	-248.98302	-294.54854	-189.58511	-90.31737	0
28	-75.67131	-0.81367	74.85764	37.42882	-75.67131	37.42882	-45.56552	-219.6909	-251.42403	-296.98955	-187.1441	-92.75838	0
29	-80.55333	-5.69569	74.85764	42.31084	-78.11232	34.98781	-45.56552	-219.6909	-251.42403	-296.98955	-184.70309	-95.19939	0
30	-85.43535	-5.69569	79.73966	44.75185	-82.99434	37.42882	-45.56552	-217.24989	-246.54201	-294.54854	-182.26208	-95.19939	0
31	-92.75838	-8.1367	84.62168	49.63387	-90.31737	37.42882	-45.56552	-209.92686	-246.54201	-289.66652	-184.70309	-95.19939	0
32	-97.6404	-10.57771	87.06269	52.07488	-92.75838	37.42882	-45.56552	-205.04484	-244.101	-287.22551	-187.1441	-92.75838	0
33	-97.6404	-13.01872	84.62168	54.51589	-92.75838	34.98781	-43.12451	-200.16282	-241.65999	-287.22551	-189.58511	-90.31737	0
34	-97.6404	-8.1367	89.5037	52.07488	-95.19939	39.86983	-40.6835	-197.72181	-241.65999	-287.22551	-192.02612	-90.31737	0
35	-95.19939	-8.1367	87.06269	49.63387	-92.75838	39.86983	-40.6835	-202.60383	-246.54201	-292.10753	-194.46713	-90.31737	0
36	-90.31737	-3.25468	87.06269	44.75185	-90.31737	42.31084	-43.12451	-207.48585	-253.86504	-296.98955	-196.90814	-92.75838	0
37	-85.43535	-0.81367	84.62168	42.31084	-85.43535	42.31084	-43.12451	-214.80888	-258.74706	-296.98955	-192.02612	-95.19939	0
38	-78.11232	2.44101	79.73966	37.42882	-78.11232	39.86983	-38.24249	-219.6909	-258.74706	-301.87157	-187.1441	-95.19939	0
39	-75.67131	2.44101	77.29865	34.98781	-75.67131	39.86983	-33.36047	-219.6909	-253.86504	-301.87157	-179.82107	-90.31737	0
40	-70.78929	7.32303	77.29865	30.10579	-73.2303	42.31084	-28.47845	-214.80888	-246.54201	-294.54854	-170.05703	-85.43535	0
41	-70.78929	12.20505	82.18067	27.66478	-75.67131	47.19286	-23.59643	-205.04484	-241.65999	-289.66652	-170.05703	-78.11232	0
42	-73.2303	21.96909	94.38572	25.22377	-82.99434	56.9569	-21.15542	-200.16282	-234.33696	-284.7845	-167.61602	-73.2303	0
43	-75.67131	26.85111	101.70875	22.78276	-87.87636	64.27993	-18.71441	-190.39878	-229.45494	-282.34349	-167.61602	-65.90727	0
44	-78.11232	29.29212	106.59077	22.78276	-92.75838	66.72094	-18.71441	-183.07575	-227.01393	-279.90248	-167.61602	-63.46626	0
45	-80.55333	29.29212	109.03178	25.22377	-95.19939	69.16195	-16.2734	-180.63474	-227.01393	-279.90248	-167.61602	-61.02525	0
46	-80.55333	34.17414	113.9138	22.78276	-97.6404	74.04397	-16.2734	-178.19373	-231.89595	-279.90248	-167.61602	-58.58424	0
47	-80.55333	39.05616	118.79582	20.34175	-100.08141	78.92599	-13.83239	-183.07575	-234.33696	-282.34349	-165.17501	-58.58424	0
48	-78.11232	41.49717	118.79582	17.90074	-97.6404	78.92599	-11.39138	-183.07575	-234.33696	-282.34349	-160.29299	-58.58424	0
49	-73.2303	41.49717	113.9138	15.45973	-92.75838	76.48498	-6.50936	-183.07575	-229.45494	-282.34349	-155.41097	-56.14323	0
50	-70.78929	43.93818	113.9138	13.01872	-92.75838	78.92599	-1.62734	-187.95777	-227.01393	-277.46147	-152.96996	-53.70222	0
51	-70.78929	46.37919	116.35481	10.57771	-92.75838	81.367	0.81367	-185.51676	-222.13191	-275.02046	-155.41097	-51.26121	0
52	-70.78929	46.37919	116.35481	10.57771	-92.75838	81.367	3.25468	-183.07575	-217.24989	-270.13844	-157.85198	-46.37919	0
53	-73.2303	46.37919	118.79582	13.01872	-95.19939	81.367	3.25468	-180.63474	-212.36787	-270.13844	-160.29299	-43.93818	0
54	-73.2303	48.8202	121.23683	10.57771	-97.6404	83.80801	3.25468	-175.75272	-212.36787	-270.13844	-162.734	-41.49717	0
55	-73.2303	53.70222	126.11885	8.1367	-100.08141	88.69003	0.81367	-170.8707	-209.92686	-265.25642	-162.734	-36.61515	0
56	-68.34828	53.70222	121.23683	5.69569	-95.19939	86.24902	0.81367	-163.54767	-212.36787	-262.81541	-157.85198	-31.73313	0
57	-63.46626	63.46626	126.11885	0	-95.19939	93.57205	-1.62734	-161.10666	-212.36787	-257.93339	-148.08794	-26.85111	0
58	-56.14323	75.67131	131.00087	-9.76404	-92.75838	103.33609	-6.50936	-165.98868	-209.92686	-257.93339	-138.3239	-21.96909	0
59	-48.8202	85.43535	133.44188	-19.52808	-90.31737	108.21811	-11.39138	-170.8707	-205.04484	-255.49238	-131.00087	-19.52808	0
60	-43.93818	85.43535	128.55986	-21.96909	-85.43535	105.7771	-16.2734	-175.75272	-202.60383	-253.05137	-126.11885	-14.64606	0
61	-43.93818	87.87636	131.00087	-21.96909	-87.87636	108.21811	-21.15542	-178.19373	-200.16282	-248.16935	-126.11885	-9.76404	0
62	-41.49717	90.31737	131.00087	-24.4101	-85.43535	110.65912	-26.03744	-178.19373	-195.2808	-240.84632	-128.55986	-4.88202	0
63	-41.49717	92.75838	133.44188	-26.85111	-87.87636	113.10013	-30.91946	-178.19373	-192.83979	-240.84632	-138.3239	-2.44101	0
64	-41.49717	95.19939	135.88289	-26.85111	-87.87636	115.54114	-35.80148	-175.75272	-192.83979	-240.84632	-150.52895	0	0
65	-39.05616	100.08141	138.3239	-31.73313	-87.87636	117.98215	-38.24249	-173.31171	-190.39878	-238.40531	-162.734	3.25468	0
66	-31.73313	107.40444	138.3239	-39.05616	-85.43535	122.86417	-38.24249	-168.42969	-192.83979	-235.9643	-172.49804	5.69569	0
67	-21.96909	112.28646	133.44188	-46.37919	-78.11232	122.86417	-38.24249	-168.42969	-192.83979	-231.08228	-177.38006	10.57771	0
68	-14.64606	119.60949	133.44188	-53.70222	-73.2303	125.30518	-38.24249	-173.31171	-192.83979	-233.52329	-187.1441	10.57771	0
69	-14.64606	122.0505	135.88289	-53.70222	-75.67131	127.74619	-38.24249	-180.63474	-195.2808	-235.9643	-192.02612	10.57771	0
70	-17.08707	119.60949	135.88289	-51.26121	-75.67131	127.74619	-40.6835	-187.95777	-197.72181	-238.40531	-194.46713	10.57771	0
71	-14.64606	114.72747	128.55986	-51.26121	-70.78929	120.42316	-43.12451	-195.2808	-200.16282	-238.40531	-204.23117	10.57771	0
72	-17.08707	109.84545	126.11885	-46.37919	-70.78929	117.98215	-48.00653	-200.16282	-205.04484	-243.28733	-213.99521	8.1367	0
73	-24.4101	107.40444	131.00087	-41.49717	-78.11232	117.98215	-52.88855	-205.04484	-209.92686	-250.61036	-223.75925	3.25468	0
74	-26.85111	102.52242	128.55986	-39.05616	-78.11232	115.54114	-55.32956	-207.48585	-214.80888	-255.49238	-231.08228	0	0
75	-24.4101	95.19939	118.79582	-36.61515	-70.78929	105.7771	-57.77057	-207.48585	-222.13191	-260.3744	-238.40531	-2.44101	0
76	-21.96909	87.87636	109.03178	-34.17414	-65.90727	98.45407	-57.77057	-205.04484	-229.45494	-265.25642	-243.28733	-4.88202	0
77	-21.96909	85.43535	106.59077	-31.73313	-63.46626	96.01306	-60.21158	-205.04484	-236.77797	-267.69743	-243.28733	-9.76404	0
78	-24.4101	78.11232	101.70875	-26.85111	-63.46626	88.69003	-57.77057	-205.04484	-236.77797	-270.13844	-243.28733	-12.20505	0
79	-24.4101	70.78929	94.38572	-24.4101	-58.58424	81.367	-55.32956	-205.04484	-234.33696	-270.13844	-243.28733	-14.64606	0
80	-29.29212	61.02525	89.5037	-17.08707	-58.58424	74.04397	-55.32956	-207.48585	-234.33696	-272.57945	-245.72834	-19.52808	0
81	-39.05616	51.26121	89.5037	-7.32303	-63.46626	69.16195	-52.88855	-205.04484	-231.89595	-272.57945	-250.61036	-21.96909	0
82	-48.8202	43.93818	91.94471	0	-70.78929	66.72094	-50.44754	-202.60383	-227.01393	-272.57945	-255.49238	-24.4101	0
83	-56.14323	36.61515	91.94471	8.1367	-73.2303	64.27993	-48.00653	-197.72181	-224.57292	-272.57945	-257.93339	-26.85111	0
84	-63.46626	29.29212	91.94471	15.45973	-78.11232	59.39791	-48.00653	-192.83979	-224.57292	-272.57945	-262.81541	-31.73313	0
85	-68.34828	19.52808	87.06269	22.78276	-78.11232	52.07488	-48.00653	-192.83979	-227.01393	-277.46147	-267.69743	-39.05616	0
86	-73.2303	9.76404	82.18067	30.10579	-78.11232	44.75185	-48.00653	-190.39878	-234.33696	-277.46147	-270.13844	-43.93818	0
87	-73.2303	2.44101	74.85764	34.98781	-73.2303	37.42882	-45.56552	-187.95777	-234.33696	-277.46147	-267.69743	-46.37919	0
88	-73.2303	-5.69569	67.53461	37.42882	-70.78929	30.10579	-45.56552	-192.83979	-239.21898	-279.90248	-267.69743	-51.26121	0
89	-75.67131	-17.90074	57.77057	44.75185	-68.34828	20.34175	-45.56552	-197.72181	-239.21898	-282.34349	-267.69743	-56.14323	0
90	-80.55333	-25.22377	55.32956	52.07488	-68.34828	15.45973	-45.56552	-202.60383	-239.21898	-282.34349	-270.13844	-58.58424	0
91	-85.43535	-32.5468	52.88855	56.9569	-70.78929	10.57771	-45.56552	-202.60383	-239.21898	-282.34349	-272.57945	-61.02525	0
92	-92.75838	-37.42882	55.32956	64.27993	-75.67131	8.1367	-45.56552	-200.16282	-234.33696	-277.46147	-275.02046	-63.46626	0
93	-97.6404	-39.86983	57.77057	66.72094	-78.11232	8.1367	-48.00653	-200.16282	-231.89595	-279.90248	-279.90248	-68.34828	0
94	-100.08141	-42.31084	57.77057	69.16195	-80.55333	8.1367	-48.00653	-197.72181	-231.89595	-279.90248	-282.34349	-70.78929	0
95	-97.6404	-39.86983	57.77057	66.72094	-78.11232	8.1367	-50.44754	-195.2808	-231.89595	-282.34349	-284.7845	-73.2303	0
96	-97.6404	-39.86983	57.77057	66.72094	-78.11232	8.1367	-50.44754	-190.39878	-236.77797	-282.34349	-284.7845	-75.67131	0
97	-92.75838	-42.31084	50.44754	66.72094	-73.2303	3.25468	-48.00653	-187.95777	-236.77797	-282.34349	-279.90248	-78.11232	0
98	-90.31737	-42.31084	48.00653	64.27993	-70.78929	3.25468	-45.56552	-190.39878	-239.21898	-282.34349	-277.46147	-80.55333	0
99	-87.87636	-44.75185	43.12451	64.27993	-65.90727	-2.44101	-43.12451	-192.83979	-239.21898	-282.34349	-272.57945	-80.55333	0
100	-82.99434	-44.75185	38.24249	61.83892	-61.02525	-4.88202	-43.12451	-195.2808	-239.21898	-282.34349	-270.13844	-80.55333	1000	P+0
101	-82.99434	-47.19286	35.80148	64.27993	-61.02525	-7.32303	-40.6835	-195.2808	-236.77797	-279.90248	-270.13844	-80.55333	0
102	-82.99434	-49.63387	33.36047	64.27993	-58.58424	-9.76404	-40.6835	-195.2808	-231.89595	-277.46147	-270.13844	-80.55333	0
103	-80.55333	-49.63387	30.91946	64.27993	-56.14323	-9.76404	-43.12451	-195.2808	-227.01393	-275.02046	-270.13844	-80.55333	0
104	-80.55333	-47.19286	33.36047	61.83892	-58.58424	-7.32303	-43.12451	-190.39878	-224.57292	-275.02046	-272.57945	-80.55333	0
105	-80.55333	-42.31084	38.24249	59.39791	-61.02525	-2.44101	-45.56552	-190.39878	-224.57292	-275.02046	-272.57945	-82.99434	0
106	-75.67131	-42.31084	33.36047	56.9569	-56.14323	-4.88202	-45.56552	-185.51676	-227.01393	-272.57945	-272.57945	-82.99434	0
107	-73.2303	-42.31084	30.91946	56.9569	-53.70222	-7.32303	-43.12451	-183.07575	-227.01393	-267.69743	-265.25642	-82.99434	0
108	-78.11232	-44.75185	33.36047	59.39791	-56.14323	-7.32303	-40.6835	-180.63474	-224.57292	-265.25642	-260.3744	-82.99434	0
109	-80.55333	-42.31084	38.24249	59.39791	-61.02525	-2.44101	-38.24249	-180.63474	-222.13191	-265.25642	-255.49238	-82.99434	0
110	-82.99434	-42.31084	40.6835	61.83892	-63.46626	-2.44101	-35.80148	-185.51676	-219.6909	-262.81541	-253.05137	-82.99434	0
111	-87.87636	-47.19286	40.6835	66.72094	-65.90727	-4.88202	-35.80148	-185.51676	-214.80888	-257.93339	-253.05137	-80.55333	0
112	-95.19939	-52.07488	43.12451	71.60296	-70.78929	-4.88202	-33.36047	-180.63474	-209.92686	-253.05137	-250.61036	-78.11232	0
113	-104.96343	-59.39791	45.56552	81.367	-75.67131	-7.32303	-33.36047	-178.19373	-205.04484	-250.61036	-253.05137	-78.11232	0
114	-104.96343	-59.39791	45.56552	81.367	-75.67131	-7.32303	-35.80148	-178.19373	-205.04484	-253.05137	-257.93339	-80.55333	0
115	-102.52242	-56.9569	45.56552	78.92599	-75.67131	-7.32303	-35.80148	-173.31171	-202.60383	-250.61036	-255.49238	-80.55333	0
116	-100.08141	-54.51589	45.56552	76.48498	-73.2303	-4.88202	-33.36047	-168.42969	-205.04484	-250.61036	-255.49238	-80.55333	0
117	-95.19939	-54.51589	40.6835	74.04397	-68.34828	-7.32303	-33.36047	-165.98868	-207.48585	-253.05137	-253.05137	-80.55333	0
118	-87.87636	-52.07488	35.80148	69.16195	-63.46626	-9.76404	-30.91946	-165.98868	-209.92686	-257.93339	-253.05137	-82.99434	0
119	-80.55333	-52.07488	28.47845	64.27993	-56.14323	-12.20505	-26.03744	-168.42969	-212.36787	-265.25642	-255.49238	-87.87636	0
120	-78.11232	-52.07488	26.03744	64.27993	-53.70222	-14.64606	-23.59643	-173.31171	-219.6909	-272.57945	-262.81541	-92.75838	0
121	-78.11232	-61.83892	16.2734	69.16195	-48.8202	-24.4101	-23.59643	-178.19373	-229.45494	-287.22551	-282.34349	-107.40444	0
122	-87.87636	-76.48498	11.39138	81.367	-51.26121	-34.17414	-23.59643	-183.07575	-241.65999	-306.75359	-306.75359	-122.0505	0
123	-107.40444	-91.13104	16.2734	98.45407	-63.46626	-39.05616	-18.71441	-185.51676	-253.86504	-326.28167	-331.16369	-134.25555	0
124	-124.49151	-100.89508	23.59643	110.65912	-75.67131	-39.05616	-13.83239	-187.95777	-270.95211	-348.25076	-355.57379	-144.01959	0
125	-136.69656	-108.21811	28.47845	120.42316	-82.99434	-41.49717	-11.39138	-190.39878	-285.59817	-370.21985	-372.66086	-151.34262	0
126	-146.4606	-108.21811	38.24249	125.30518	-92.75838	-36.61515	-8.95037	-190.39878	-300.24423	-382.4249	-382.4249	-153.78363	0
127	-148.90161	-113.10013	35.80148	130.1872	-92.75838	-39.05616	-8.95037	-192.83979	-307.56726	-387.30692	-377.54288	-151.34262	0
128	-136.69656	-115.54114	21.15542	125.30518	-80.55333	-48.8202	-13.83239	-200.16282	-314.89029	-387.30692	-362.89682	-144.01959	0
129	-102.52242	-120.42316	-18.71441	110.65912	-43.93818	-70.78929	-28.47845	-219.6909	-322.21332	-379.98389	-338.48672	-134.25555	0
130	-53.70222	-130.1872	-77.29865	91.13104	10.57771	-104.96343	-57.77057	-253.86504	-331.97736	-367.77884	-301.87157	-119.60949	0
131	-2.44101	-137.51023	-135.88289	69.16195	66.72094	-136.69656	-96.82673	-295.36221	-346.62342	-345.80975	-260.3744	-102.52242	0
132	59.39791	-139.95124	-199.34915	39.86983	127.74619	-168.42969	-145.64693	-358.82847	-366.1515	-323.84066	-206.67218	-78.11232	0
133	122.86417	-135.06922	-257.93339	5.69569	188.77144	-195.2808	-199.34915	-436.94079	-393.00261	-299.43056	-148.08794	-43.93818	0
134	188.77144	-125.30518	-314.07662	-31.73313	249.79669	-219.6909	-257.93339	-534.58119	-432.05877	-279.90248	-87.06269	-7.32303	0
135	252.2377	-100.89508	-353.13278	-75.67131	301.0579	-227.01393	-316.51763	-651.74967	-485.76099	-270.13844	-30.91946	32.5468	0
136	315.70396	-56.9569	-372.66086	-129.37353	342.55507	-214.80888	-372.66086	-786.00522	-556.55028	-265.25642	28.47845	78.92599	0
137	379.17022	-10.57771	-389.74793	-185.51676	384.05224	-200.16282	-428.80409	-930.02481	-629.78058	-267.69743	82.18067	127.74619	0
138	442.63648	19.52808	-423.92207	-231.89595	432.87244	-202.60383	-482.50631	-1076.48541	-710.33391	-282.34349	113.9138	159.47932	0
139	498.77971	24.4101	-475.18328	-261.18807	486.57466	-224.57292	-526.44449	-1215.62298	-798.21027	-318.95864	113.9138	159.47932	0
140	540.27688	19.52808	-521.56247	-280.71615	530.51284	-251.42403	-560.61863	-1335.23247	-883.64562	-365.33783	87.06269	135.06922	0
141	550.04092	2.44101	-548.41358	-275.83413	550.04092	-273.39312	-570.38267	-1415.7858	-954.43491	-416.59904	35.80148	96.01306	0
142	530.51284	-37.42882	-567.94166	-246.54201	547.59991	-302.68524	-563.05964	-1457.28297	-1005.69612	-467.86025	-30.91946	39.86983	0
143	481.69264	-91.13104	-572.82368	-195.2808	525.63082	-331.97736	-533.76752	-1459.72398	-1039.87026	-531.32651	-123.67784	-36.61515	0
144	406.02133	-144.83326	-550.85459	-131.81454	476.81062	-346.62342	-487.38833	-1423.10883	-1054.51632	-589.91075	-223.75925	-114.72747	0
145	308.38093	-179.0074	-487.38833	-65.90727	396.25729	-331.97736	-423.92207	-1359.64257	-1049.6343	-638.73095	-314.07662	-175.75272	0
146	210.74053	-198.53548	-409.27601	-7.32303	308.38093	-302.68524	-360.45581	-1276.64823	-1027.66521	-672.90509	-387.30692	-222.13191	0
147	117.98215	-218.06356	-336.04571	49.63387	225.38659	-275.83413	-304.31258	-1186.33086	-991.05006	-689.99216	-443.45015	-258.74706	0
148	39.86983	-227.8276	-267.69743	93.57205	152.15629	-246.54201	-260.3744	-1096.01349	-939.78885	-692.43317	-477.62429	-283.15716	0
149	-19.52808	-227.8276	-209.11319	122.86417	93.57205	-219.6909	-231.08228	-1013.01915	-881.20461	-675.3461	-487.38833	-292.9212	0
150	-61.02525	-218.06356	-157.85198	137.51023	47.19286	-187.95777	-211.5542	-934.90683	-820.17936	-641.17196	-480.0653	-292.9212	0
151	-92.75838	-213.18154	-121.23683	152.15629	13.01872	-168.42969	-196.90814	-854.3535	-749.39007	-592.35176	-462.97823	-285.59817	0
152	-117.16848	-210.74053	-94.38572	161.92033	-12.20505	-153.78363	-184.70309	-766.47714	-668.83674	-531.32651	-433.68611	-270.95211	0
153	-134.25555	-200.97649	-67.53461	166.80235	-34.17414	-134.25555	-170.05703	-683.4828	-588.28341	-467.86025	-394.62995	-251.42403	0
154	-136.69656	-188.77144	-52.88855	161.92033	-43.93818	-122.0505	-155.41097	-600.48846	-510.17109	-401.95298	-350.69177	-229.45494	0
155	-134.25555	-179.0074	-45.56552	154.5973	-46.37919	-112.28646	-138.3239	-517.49412	-432.05877	-336.04571	-304.31258	-205.04484	0
156	-129.37353	-174.12538	-45.56552	149.71528	-43.93818	-109.84545	-118.79582	-429.61776	-358.82847	-270.13844	-260.3744	-185.51676	0
157	-119.60949	-161.92033	-43.12451	139.95124	-39.05616	-102.52242	-101.70875	-346.62342	-290.48019	-211.5542	-213.99521	-168.42969	0
158	-102.52242	-147.27427	-45.56552	122.86417	-29.29212	-97.6404	-89.5037	-273.39312	-227.01393	-160.29299	-172.49804	-148.90161	0
159	-82.99434	-139.95124	-57.77057	110.65912	-14.64606	-100.08141	-77.29865	-202.60383	-165.98868	-113.10013	-133.44188	-131.81454	0
160	-73.2303	-137.51023	-65.0936	103.33609	-4.88202	-102.52242	-65.0936	-139.13757	-109.84545	-64.27993	-99.26774	-114.72747	0
161	-63.46626	-130.1872	-67.53461	96.01306	0.81367	-100.08141	-55.32956	-78.11232	-62.65259	-20.34175	-72.41663	-100.08141	0
162	-51.26121	-122.86417	-72.41663	86.24902	10.57771	-97.6404	-45.56552	-26.03744	-16.2734	16.2734	-50.44754	-87.87636	0
163	-48.8202	-117.98215	-69.97562	81.367	10.57771	-95.19939	-33.36047	17.90074	25.22377	50.44754	-30.91946	-75.67131	0
164	-48.8202	-115.54114	-67.53461	81.367	8.1367	-92.75838	-21.15542	49.63387	54.51589	74.85764	-15.45973	-65.90727	0
165	-46.37919	-110.65912	-65.0936	76.48498	8.1367	-87.87636	-13.83239	74.04397	74.04397	91.94471	-3.25468	-58.58424	0
166	-41.49717	-103.33609	-62.65259	71.60296	10.57771	-82.99434	-11.39138	91.13104	81.367	101.70875	4.06835	-58.58424	0
167	-34.17414	-96.01306	-62.65259	64.27993	13.01872	-80.55333	-8.95037	98.45407	88.69003	109.03178	11.39138	-58.58424	0
168	-36.61515	-88.69003	-52.88855	61.83892	8.1367	-70.78929	-4.06835	108.21811	98.45407	116.35481	18.71441	-53.70222	0
169	-39.05616	-83.80801	-45.56552	59.39791	3.25468	-65.90727	-1.62734	113.10013	105.7771	121.23683	26.03744	-53.70222	0
170	-41.49717	-83.80801	-43.12451	61.83892	0.81367	-63.46626	-1.62734	120.42316	110.65912	126.11885	28.47845	-53.70222	0
171	-43.93818	-88.69003	-45.56552	64.27993	0.81367	-68.34828	0.81367	130.1872	120.42316	133.44188	28.47845	-53.70222	0
172	-46.37919	-91.13104	-45.56552	66.72094	-2.44101	-68.34828	0.81367	139.95124	132.62821	145.64693	33.36047	-53.70222	0
173	-48.8202	-93.57205	-45.56552	69.16195	-2.44101	-70.78929	3.25468	149.71528	144.83326	157.85198	38.24249	-48.8202	0
174	-51.26121	-98.45407	-48.00653	74.04397	-2.44101	-73.2303	3.25468	159.47932	154.5973	165.17501	45.56552	-46.37919	0
175	-51.26121	-105.7771	-55.32956	76.48498	0.81367	-80.55333	3.25468	164.36134	161.92033	174.93905	50.44754	-41.49717	0
176	-46.37919	-105.7771	-60.21158	74.04397	5.69569	-82.99434	6.50936	171.68437	169.24336	184.70309	60.21158	-39.05616	0
177	-41.49717	-105.7771	-65.0936	71.60296	10.57771	-85.43535	6.50936	179.0074	176.56639	196.90814	72.41663	-34.17414	0
178	-36.61515	-100.89508	-65.0936	66.72094	13.01872	-82.99434	11.39138	186.33043	183.88942	204.23117	82.18067	-26.85111	0
179	-34.17414	-96.01306	-62.65259	64.27993	13.01872	-80.55333	11.39138	193.65346	191.21245	211.5542	91.94471	-21.96909	0
180	-26.85111	-93.57205	-67.53461	59.39791	20.34175	-80.55333	13.83239	198.53548	198.53548	221.31824	99.26774	-17.08707	0
181	-19.52808	-88.69003	-69.97562	52.07488	25.22377	-80.55333	13.83239	208.29952	205.85851	228.64127	101.70875	-14.64606	0
182	-17.08707	-88.69003	-72.41663	52.07488	27.66478	-80.55333	16.2734	220.50457	218.06356	240.84632	109.03178	-12.20505	0
183	-17.08707	-88.69003	-72.41663	52.07488	27.66478	-80.55333	16.2734	227.8276	230.26861	250.61036	113.9138	-7.32303	0
184	-12.20505	-88.69003	-77.29865	49.63387	32.5468	-82.99434	16.2734	232.70962	237.59164	260.3744	118.79582	-4.88202	0
185	-9.76404	-91.13104	-82.18067	49.63387	34.98781	-87.87636	13.83239	237.59164	244.91467	267.69743	123.67784	-4.88202	0
186	-12.20505	-91.13104	-79.73966	49.63387	32.5468	-85.43535	11.39138	240.03265	247.35568	275.02046	128.55986	-4.88202	0
187	-9.76404	-91.13104	-82.18067	49.63387	34.98781	-87.87636	11.39138	242.47366	252.2377	284.7845	140.76491	0	0
188	-7.32303	-93.57205	-87.06269	49.63387	39.86983	-90.31737	13.83239	247.35568	259.56073	292.10753	150.52895	0	0
189	-7.32303	-93.57205	-87.06269	49.63387	39.86983	-90.31737	16.2734	252.2377	269.32477	301.87157	160.29299	5.69569	0
190	-7.32303	-91.13104	-84.62168	47.19286	37.42882	-87.87636	18.71441	257.11972	279.08881	311.63561	170.05703	8.1367	0
191	-9.76404	-91.13104	-82.18067	49.63387	34.98781	-87.87636	21.15542	269.32477	291.29386	323.84066	174.93905	13.01872	0
192	-12.20505	-93.57205	-82.18067	52.07488	34.98781	-87.87636	23.59643	279.08881	305.93992	336.04571	182.26208	15.45973	0
193	-14.64606	-88.69003	-74.85764	49.63387	30.10579	-82.99434	26.03744	288.85285	320.58598	350.69177	189.58511	20.34175	0
194	-14.64606	-86.24902	-72.41663	49.63387	27.66478	-80.55333	28.47845	296.17588	327.90901	360.45581	194.46713	20.34175	0
195	-9.76404	-83.80801	-74.85764	44.75185	32.5468	-80.55333	28.47845	301.0579	335.23204	370.21985	201.79016	25.22377	0
196	-4.88202	-83.80801	-79.73966	42.31084	37.42882	-82.99434	26.03744	305.93992	337.67305	377.54288	209.11319	27.66478	0
197	0.81367	-86.24902	-87.06269	42.31084	42.31084	-85.43535	26.03744	313.26295	344.99608	389.74793	218.87723	30.10579	0
198	10.57771	-83.80801	-94.38572	34.98781	52.07488	-87.87636	28.47845	320.58598	352.31911	399.51197	231.08228	34.98781	0
199	13.01872	-83.80801	-96.82673	34.98781	54.51589	-90.31737	30.91946	327.90901	359.64214	409.27601	240.84632	39.86983	0
200	13.01872	-88.69003	-101.70875	37.42882	56.9569	-95.19939	33.36047	332.79103	369.40618	421.48106	250.61036	44.75185	0
201	5.69569	-91.13104	-96.82673	42.31084	49.63387	-92.75838	35.80148	344.99608	384.05224	433.68611	260.3744	49.63387	0
202	-2.44101	-93.57205	-91.94471	47.19286	44.75185	-92.75838	35.80148	359.64214	398.6983	445.89116	267.69743	52.07488	0
203	-2.44101	-91.13104	-89.5037	44.75185	42.31084	-90.31737	38.24249	369.40618	410.90335	458.09621	275.02046	54.51589	0
204	-2.44101	-86.24902	-84.62168	42.31084	39.86983	-85.43535	38.24249	379.17022	423.1084	470.30126	282.34349	56.9569	0
205	5.69569	-83.80801	-89.5037	37.42882	47.19286	-85.43535	38.24249	386.49325	430.43143	480.0653	289.66652	59.39791	0
206	15.45973	-76.48498	-91.94471	30.10579	52.07488	-82.99434	40.6835	396.25729	437.75446	489.82934	299.43056	61.83892	0
207	27.66478	-71.60296	-99.26774	20.34175	61.83892	-85.43535	40.6835	403.58032	445.07749	502.03439	311.63561	64.27993	0
208	39.86983	-66.72094	-106.59077	13.01872	71.60296	-85.43535	43.12451	406.02133	452.40052	506.91641	318.95864	64.27993	0
209	39.86983	-64.27993	-104.14976	10.57771	71.60296	-82.99434	45.56552	413.34436	462.16456	516.68045	331.16369	69.16195	0
210	34.98781	-64.27993	-99.26774	13.01872	66.72094	-80.55333	50.44754	423.1084	474.36961	528.8855	340.92773	74.04397	0
211	30.10579	-66.72094	-96.82673	17.90074	61.83892	-80.55333	52.88855	435.31345	489.01567	543.53156	345.80975	78.92599	0
212	22.78276	-74.04397	-96.82673	25.22377	59.39791	-85.43535	55.32956	447.5185	503.66173	555.73661	353.13278	81.367	0
213	15.45973	-78.92599	-94.38572	30.10579	54.51589	-85.43535	55.32956	457.28254	515.86678	567.94166	358.0148	83.80801	0
214	15.45973	-78.92599	-94.38572	30.10579	54.51589	-85.43535	57.77057	467.04658	525.63082	580.14671	362.89682	86.24902	0
215	27.66478	-76.48498	-104.14976	22.78276	64.27993	-90.31737	57.77057	476.81062	535.39486	592.35176	370.21985	91.13104	0
216	42.31084	-71.60296	-113.9138	13.01872	76.48498	-92.75838	60.21158	486.57466	542.71789	602.1158	377.54288	93.57205	0
217	52.07488	-69.16195	-121.23683	8.1367	86.24902	-95.19939	60.21158	493.89769	547.59991	611.87984	389.74793	93.57205	0
218	61.83892	-59.39791	-121.23683	-2.44101	91.13104	-90.31737	60.21158	501.22072	557.36395	621.64388	401.95298	96.01306	0
219	71.60296	-49.63387	-121.23683	-12.20505	96.01306	-85.43535	65.0936	510.98476	567.12799	631.40792	411.71702	100.89508	0
220	74.04397	-42.31084	-116.35481	-17.08707	93.57205	-78.11232	69.97562	518.30779	581.77405	643.61297	423.92207	103.33609	0
221	66.72094	-42.31084	-109.03178	-12.20505	86.24902	-75.67131	72.41663	532.95385	596.42011	658.25903	431.2451	105.7771	0
222	59.39791	-44.75185	-104.14976	-7.32303	81.367	-73.2303	77.29865	545.1589	611.06617	670.46408	438.56813	108.21811	0
223	54.51589	-47.19286	-101.70875	-4.88202	76.48498	-73.2303	77.29865	557.36395	628.15324	685.11014	445.89116	110.65912	0
224	54.51589	-47.19286	-101.70875	-4.88202	76.48498	-73.2303	79.73966	567.12799	637.91728	694.87418	450.77318	110.65912	0
225	56.9569	-49.63387	-106.59077	-4.88202	81.367	-78.11232	77.29865	579.33304	647.68132	704.63822	455.6552	110.65912	0
226	61.83892	-49.63387	-111.47279	-7.32303	86.24902	-80.55333	77.29865	591.53809	652.56334	716.84327	465.41924	113.10013	0
227	74.04397	-44.75185	-118.79582	-14.64606	96.01306	-80.55333	79.73966	601.30213	662.32738	729.04832	477.62429	113.10013	0
228	83.80801	-37.42882	-121.23683	-24.4101	100.89508	-78.11232	79.73966	611.06617	669.65041	736.37135	487.38833	113.10013	0
229	88.69003	-34.98781	-123.67784	-26.85111	105.7771	-78.11232	82.18067	618.3892	679.41445	746.13539	497.15237	115.54114	0
230	88.69003	-34.98781	-123.67784	-26.85111	105.7771	-78.11232	84.62168	623.27122	691.6195	758.34044	504.4754	120.42316	0
231	86.24902	-34.98781	-121.23683	-26.85111	103.33609	-78.11232	89.5037	635.47627	706.26556	770.54549	511.79843	122.86417	0
232	83.80801	-37.42882	-121.23683	-24.4101	100.89508	-78.11232	91.94471	647.68132	723.35263	785.19155	519.12146	127.74619	0
233	86.24902	-37.42882	-123.67784	-24.4101	103.33609	-80.55333	94.38572	662.32738	740.4397	797.3966	524.00348	130.1872	0
234	86.24902	-34.98781	-121.23683	-26.85111	103.33609	-78.11232	96.82673	674.53243	750.20374	807.16064	528.8855	132.62821	0
235	91.13104	-34.98781	-126.11885	-29.29212	108.21811	-80.55333	96.82673	689.17849	759.96778	819.36569	538.64954	137.51023	0
236	100.89508	-27.66478	-128.55986	-36.61515	113.10013	-78.11232	96.82673	703.82455	767.29081	829.12973	545.97257	137.51023	0
237	110.65912	-17.90074	-128.55986	-46.37919	117.98215	-73.2303	96.82673	716.0296	772.17283	838.89377	555.73661	142.39225	0
238	120.42316	-10.57771	-131.00087	-56.14323	125.30518	-70.78929	99.26774	723.35263	779.49586	843.77579	563.05964	142.39225	0
239	132.62821	-8.1367	-140.76491	-63.46626	135.06922	-73.2303	99.26774	730.67566	784.37788	851.09882	570.38267	142.39225	0
240	139.95124	-5.69569	-145.64693	-68.34828	142.39225	-75.67131	99.26774	737.99869	794.14192	858.42185	577.7057	144.83326	0
241	132.62821	-5.69569	-138.3239	-63.46626	135.06922	-70.78929	101.70875	752.64475	808.78798	870.6269	585.02873	149.71528	0
242	127.74619	-5.69569	-133.44188	-61.02525	130.1872	-68.34828	104.14976	764.8498	823.43404	882.83195	589.91075	154.5973	0
243	125.30518	-10.57771	-135.88289	-58.58424	130.1872	-73.2303	106.59077	779.49586	838.0801	892.59599	594.79277	157.03831	0
244	122.86417	-15.45973	-138.3239	-53.70222	130.1872	-75.67131	106.59077	786.81889	847.84414	899.91902	597.23378	161.92033	0
245	117.98215	-15.45973	-133.44188	-51.26121	125.30518	-73.2303	106.59077	794.14192	857.60818	909.68306	604.55681	166.80235	0
246	113.10013	-10.57771	-123.67784	-51.26121	117.98215	-65.90727	109.03178	803.90596	864.93121	919.4471	611.87984	171.68437	0
247	120.42316	-5.69569	-126.11885	-58.58424	122.86417	-65.90727	109.03178	808.78798	869.81323	926.77013	621.64388	174.12538	0
248	137.51023	-0.81367	-138.3239	-68.34828	137.51023	-68.34828	109.03178	813.67	874.69525	929.21114	626.5259	174.12538	0
249	149.71528	7.32303	-143.20592	-78.11232	147.27427	-68.34828	109.03178	820.99303	879.57727	934.09316	633.84893	176.56639	0
250	159.47932	12.20505	-148.08794	-85.43535	154.5973	-68.34828	109.03178	835.63909	886.9003	938.97518	638.73095	176.56639	0
251	164.36134	17.08707	-148.08794	-90.31737	157.03831	-65.90727	109.03178	855.16717	896.66434	946.29821	638.73095	181.44841	0
252	169.24336	19.52808	-150.52895	-95.19939	159.47932	-65.90727	106.59077	872.25424	906.42838	953.62124	641.17196	181.44841	0
253	174.12538	19.52808	-155.41097	-97.6404	164.36134	-68.34828	104.14976	884.45929	916.19242	958.50326	643.61297	186.33043	0
254	174.12538	21.96909	-152.96996	-97.6404	164.36134	-65.90727	104.14976	891.78232	923.51545	965.82629	646.05398	188.77144	0
255	174.12538	21.96909	-152.96996	-97.6404	164.36134	-65.90727	104.14976	894.22333	930.83848	973.14932	650.936	196.09447	0
256	171.68437	21.96909	-150.52895	-97.6404	161.92033	-63.46626	104.14976	891.78232	933.27949	980.47235	655.81802	203.4175	0
257	174.12538	24.4101	-150.52895	-100.08141	161.92033	-63.46626	109.03178	891.78232	938.16151	987.79538	668.02307	210.74053	0
258	181.44841	31.73313	-150.52895	-107.40444	166.80235	-58.58424	111.47279	894.22333	943.04353	992.6774	675.3461	215.62255	0
259	188.77144	34.17414	-155.41097	-112.28646	171.68437	-61.02525	116.35481	899.10535	947.92555	997.55942	682.66913	220.50457	0
260	193.65346	39.05616	-155.41097	-117.16848	174.12538	-58.58424	116.35481	906.42838	950.36656	997.55942	685.11014	222.94558	0
261	203.4175	43.93818	-160.29299	-124.49151	181.44841	-58.58424	113.9138	918.63343	955.24858	997.55942	682.66913	225.38659	0
262	208.29952	48.8202	-160.29299	-129.37353	183.88942	-56.14323	111.47279	928.39747	955.24858	997.55942	680.22812	225.38659	0
263	215.62255	51.26121	-165.17501	-134.25555	191.21245	-56.14323	106.59077	933.27949	960.1306	997.55942	675.3461	227.8276	0
264	215.62255	48.8202	-167.61602	-131.81454	191.21245	-58.58424	104.14976	935.7205	960.1306	995.11841	672.90509	232.70962	1500	QRS+0
265	215.62255	46.37919	-170.05703	-131.81454	193.65346	-61.02525	101.70875	930.83848	957.68959	992.6774	672.90509	235.15063	0
266	218.06356	53.70222	-165.17501	-136.69656	191.21245	-56.14323	96.82673	925.95646	950.36656	990.23639	672.90509	240.03265	0
267	218.06356	56.14323	-162.734	-136.69656	191.21245	-53.70222	96.82673	921.07444	945.48454	987.79538	677.78711	247.35568	0
268	215.62255	58.58424	-157.85198	-136.69656	186.33043	-48.8202	96.82673	916.19242	943.04353	982.91336	680.22812	252.2377	0
269	218.06356	61.02525	-157.85198	-139.13757	188.77144	-48.8202	99.26774	916.19242	938.16151	978.03134	682.66913	254.67871	0
270	220.50457	68.34828	-152.96996	-144.01959	186.33043	-41.49717	99.26774	916.19242	933.27949	970.70831	682.66913	259.56073	0
271	227.8276	80.55333	-148.08794	-153.78363	188.77144	-34.17414	96.82673	916.19242	925.95646	963.38528	677.78711	259.56073	0
272	227.8276	85.43535	-143.20592	-156.22464	186.33043	-29.29212	94.38572	916.19242	921.07444	956.06225	670.46408	262.00174	0
273	227.8276	87.87636	-140.76491	-158.66565	183.88942	-26.85111	91.94471	908.86939	916.19242	946.29821	663.14105	262.00174	0
274	227.8276	92.75838	-135.88289	-161.10666	181.44841	-21.96909	89.5037	901.54636	906.42838	936.53417	655.81802	264.44275	0
275	227.8276	97.6404	-131.00087	-163.54767	179.0074	-17.08707	87.06269	891.78232	896.66434	926.77013	650.936	266.88376	0
276	230.26861	104.96343	-126.11885	-168.42969	179.0074	-9.76404	82.18067	877.13626	879.57727	914.56508	643.61297	269.32477	0
277	235.15063	114.72747	-121.23683	-175.75272	179.0074	-2.44101	77.29865	860.04919	862.4902	899.91902	638.73095	266.88376	0
278	240.03265	122.0505	-118.79582	-180.63474	179.0074	3.25468	74.85764	842.96212	842.96212	882.83195	631.40792	266.88376	0
279	237.59164	129.37353	-109.03178	-183.07575	174.12538	10.57771	74.85764	828.31606	830.75707	868.18589	626.5259	266.88376	0
280	237.59164	136.69656	-101.70875	-187.95777	169.24336	17.90074	74.85764	811.22899	813.67	853.53983	619.20287	266.88376	0
281	240.03265	141.57858	-99.26774	-190.39878	169.24336	22.78276	72.41663	799.02394	799.02394	836.45276	606.99782	266.88376	0
282	235.15063	139.13757	-96.82673	-187.95777	166.80235	22.78276	72.41663	784.37788	789.2599	821.8067	597.23378	266.88376	0
283	227.8276	136.69656	-91.94471	-183.07575	159.47932	22.78276	74.85764	772.17283	777.05485	809.60165	585.02873	266.88376	0
284	218.06356	131.81454	-87.06269	-175.75272	152.15629	22.78276	74.85764	755.08576	762.40879	790.07357	572.82368	266.88376	0
285	213.18154	126.93252	-87.06269	-170.8707	149.71528	20.34175	74.85764	735.55768	742.88071	772.9865	558.17762	266.88376	0
286	213.18154	129.37353	-84.62168	-170.8707	149.71528	22.78276	74.85764	711.14758	718.47061	751.01741	543.53156	264.44275	0
287	205.85851	131.81454	-74.85764	-168.42969	139.95124	30.10579	72.41663	686.73748	694.06051	731.48933	533.76752	262.00174	0
288	203.4175	139.13757	-65.0936	-170.8707	135.06922	37.42882	72.41663	659.88637	669.65041	707.07923	519.12146	262.00174	0
289	198.53548	144.01959	-55.32956	-170.8707	127.74619	44.75185	65.0936	635.47627	642.7993	677.78711	502.03439	254.67871	0
290	200.97649	151.34262	-50.44754	-175.75272	125.30518	52.07488	62.65259	611.06617	615.94819	650.936	484.94732	249.79669	0
291	200.97649	156.22464	-45.56552	-178.19373	122.86417	56.9569	60.21158	591.53809	591.53809	626.5259	465.41924	244.91467	0
292	200.97649	161.10666	-40.6835	-180.63474	120.42316	61.83892	52.88855	567.12799	567.12799	599.67479	445.89116	237.59164	0
293	196.09447	163.54767	-33.36047	-180.63474	115.54114	66.72094	48.00653	542.71789	542.71789	570.38267	423.92207	227.8276	0
294	191.21245	165.98868	-26.03744	-178.19373	108.21811	71.60296	43.12451	518.30779	513.42577	541.09055	401.95298	222.94558	0
295	186.33043	165.98868	-21.15542	-175.75272	103.33609	74.04397	40.6835	491.45668	486.57466	511.79843	382.4249	215.62255	0
296	183.88942	168.42969	-16.2734	-175.75272	100.89508	76.48498	38.24249	459.72355	457.28254	484.94732	365.33783	210.74053	0
297	176.56639	168.42969	-8.95037	-173.31171	93.57205	81.367	33.36047	427.99042	425.54941	455.6552	345.80975	203.4175	0
298	169.24336	173.31171	4.06835	-170.8707	83.80801	88.69003	33.36047	398.6983	398.6983	426.36308	331.16369	198.53548	0
299	154.5973	170.8707	16.2734	-163.54767	69.16195	93.57205	35.80148	371.84719	374.2882	399.51197	316.51763	196.09447	0
300	144.83326	165.98868	21.15542	-156.22464	61.83892	93.57205	35.80148	344.99608	349.8781	375.10187	299.43056	191.21245	0
301	139.95124	165.98868	26.03744	-153.78363	56.9569	96.01306	35.80148	323.02699	325.468	348.25076	275.02046	183.88942	0
302	135.06922	165.98868	30.91946	-151.34262	52.07488	98.45407	35.80148	301.0579	303.49891	321.39965	253.05137	176.56639	0
303	127.74619	163.54767	35.80148	-146.4606	47.19286	100.89508	33.36047	279.08881	281.52982	296.98955	231.08228	166.80235	0
304	117.98215	158.66565	40.6835	-139.13757	39.86983	100.89508	33.36047	252.2377	257.11972	272.57945	206.67218	159.47932	0
305	113.10013	151.34262	38.24249	-131.81454	37.42882	96.01306	30.91946	222.94558	232.70962	245.72834	184.70309	149.71528	0
306	110.65912	148.90161	38.24249	-129.37353	37.42882	93.57205	26.03744	193.65346	200.97649	216.43622	162.734	135.06922	0
307	103.33609	144.01959	40.6835	-124.49151	32.5468	93.57205	21.15542	164.36134	171.68437	187.1441	143.20592	122.86417	0
308	93.57205	134.25555	40.6835	-114.72747	27.66478	88.69003	18.71441	135.06922	144.83326	160.29299	123.67784	110.65912	0
309	86.24902	129.37353	43.12451	-107.40444	22.78276	86.24902	18.71441	110.65912	120.42316	131.00087	104.14976	98.45407	0
310	81.367	124.49151	43.12451	-102.52242	20.34175	83.80801	13.83239	86.24902	96.01306	101.70875	82.18067	86.24902	0
311	76.48498	124.49151	48.00653	-100.08141	15.45973	86.24902	13.83239	71.60296	74.04397	77.29865	57.77057	74.04397	0
312	71.60296	119.60949	48.00653	-95.19939	13.01872	83.80801	11.39138	56.9569	56.9569	57.77057	35.80148	64.27993	0
313	61.83892	109.84545	48.00653	-85.43535	8.1367	78.92599	8.95037	39.86983	39.86983	35.80148	16.2734	54.51589	0
314	54.51589	104.96343	50.44754	-80.55333	3.25468	78.92599	8.95037	22.78276	20.34175	13.83239	-5.69569	42.31084	0
315	49.63387	100.08141	50.44754	-75.67131	0.81367	76.48498	6.50936	3.25468	-1.62734	-8.1367	-27.66478	30.10579	0
316	42.31084	95.19939	52.88855	-68.34828	-4.88202	74.04397	3.25468	-16.2734	-23.59643	-27.66478	-43.12451	20.34175	0
317	30.10579	82.99434	52.88855	-56.14323	-12.20505	69.16195	3.25468	-30.91946	-40.6835	-44.75185	-52.88855	10.57771	0
318	17.90074	73.2303	55.32956	-46.37919	-19.52808	64.27993	3.25468	-45.56552	-57.77057	-64.27993	-65.0936	0	0
319	8.1367	68.34828	60.21158	-39.05616	-26.85111	64.27993	3.25468	-61.02525	-74.85764	-86.24902	-79.73966	-9.76404	0
320	0.81367	63.46626	62.65259	-31.73313	-31.73313	64.27993	3.25468	-78.11232	-85.43535	-100.89508	-91.94471	-19.52808	0
321	-2.44101	53.70222	55.32956	-26.85111	-29.29212	54.51589	3.25468	-85.43535	-95.19939	-113.10013	-104.14976	-26.85111	0
322	-7.32303	46.37919	52.88855	-19.52808	-29.29212	49.63387	3.25468	-95.19939	-102.52242	-121.23683	-118.79582	-31.73313	0
323	-9.76404	39.05616	48.00653	-14.64606	-29.29212	42.31084	0.81367	-104.96343	-109.84545	-135.88289	-133.44188	-41.49717	0
324	-12.20505	36.61515	48.00653	-12.20505	-29.29212	42.31084	0.81367	-112.28646	-119.60949	-145.64693	-145.64693	-46.37919	0
325	-17.08707	34.17414	50.44754	-9.76404	-34.17414	42.31084	0.81367	-117.16848	-129.37353	-155.41097	-155.41097	-48.8202	0
326	-19.52808	34.17414	52.88855	-7.32303	-36.61515	42.31084	0.81367	-119.60949	-141.57858	-162.734	-162.734	-51.26121	0
327	-21.96909	34.17414	55.32956	-7.32303	-39.05616	44.75185	0.81367	-126.93252	-156.22464	-172.49804	-172.49804	-56.14323	0
328	-26.85111	34.17414	60.21158	-4.88202	-43.93818	47.19286	-1.62734	-136.69656	-168.42969	-184.70309	-182.26208	-63.46626	0
329	-31.73313	31.73313	62.65259	0	-46.37919	47.19286	-1.62734	-146.4606	-175.75272	-196.90814	-189.58511	-65.90727	0
330	-34.17414	26.85111	60.21158	3.25468	-46.37919	42.31084	-1.62734	-156.22464	-183.07575	-204.23117	-196.90814	-70.78929	0
331	-34.17414	26.85111	60.21158	3.25468	-46.37919	42.31084	-1.62734	-163.54767	-187.95777	-211.5542	-209.11319	-73.2303	0
332	-34.17414	21.96909	55.32956	5.69569	-43.93818	37.42882	-1.62734	-168.42969	-187.95777	-213.99521	-216.43622	-75.67131	0
333	-34.17414	17.08707	50.44754	8.1367	-41.49717	32.5468	-4.06835	-170.8707	-187.95777	-218.87723	-223.75925	-78.11232	0
334	-36.61515	17.08707	52.88855	8.1367	-43.93818	34.98781	-4.06835	-173.31171	-190.39878	-221.31824	-226.20026	-78.11232	0
335	-41.49717	14.64606	55.32956	13.01872	-48.8202	34.98781	-1.62734	-173.31171	-192.83979	-223.75925	-228.64127	-75.67131	0
336	-41.49717	14.64606	55.32956	13.01872	-48.8202	34.98781	-1.62734	-173.31171	-197.72181	-226.20026	-231.08228	-75.67131	0
337	-41.49717	12.20505	52.88855	13.01872	-46.37919	32.5468	-6.50936	-178.19373	-205.04484	-231.08228	-233.52329	-75.67131	0
338	-41.49717	4.88202	45.56552	17.90074	-43.93818	25.22377	-8.95037	-183.07575	-212.36787	-238.40531	-233.52329	-78.11232	0
339	-43.93818	2.44101	45.56552	20.34175	-43.93818	22.78276	-8.95037	-190.39878	-217.24989	-243.28733	-233.52329	-78.11232	0
340	-48.8202	-0.81367	48.00653	22.78276	-48.8202	22.78276	-8.95037	-197.72181	-219.6909	-243.28733	-233.52329	-78.11232	0
341	-48.8202	-0.81367	48.00653	22.78276	-48.8202	22.78276	-8.95037	-200.16282	-222.13191	-245.72834	-238.40531	-80.55333	0
342	-46.37919	-5.69569	40.6835	25.22377	-43.93818	17.90074	-11.39138	-200.16282	-222.13191	-248.16935	-243.28733	-80.55333	0
343	-46.37919	-8.1367	38.24249	25.22377	-43.93818	15.45973	-11.39138	-200.16282	-217.24989	-248.16935	-243.28733	-80.55333	0
344	-53.70222	-8.1367	45.56552	30.10579	-51.26121	17.90074	-8.95037	-195.2808	-217.24989	-243.28733	-243.28733	-78.11232	0
345	-61.02525	-8.1367	52.88855	32.5468	-58.58424	22.78276	-8.95037	-195.2808	-217.24989	-243.28733	-243.28733	-75.67131	0
346	-68.34828	-10.57771	57.77057	37.42882	-63.46626	22.78276	-6.50936	-190.39878	-219.6909	-243.28733	-243.28733	-75.67131	0
347	-73.2303	-13.01872	60.21158	42.31084	-68.34828	22.78276	-6.50936	-190.39878	-222.13191	-243.28733	-238.40531	-75.67131	0
348	-78.11232	-10.57771	67.53461	42.31084	-73.2303	27.66478	-4.06835	-190.39878	-224.57292	-245.72834	-238.40531	-78.11232	0
349	-78.11232	-8.1367	69.97562	42.31084	-75.67131	30.10579	-4.06835	-192.83979	-227.01393	-250.61036	-238.40531	-80.55333	0
350	-75.67131	-5.69569	69.97562	39.86983	-73.2303	32.5468	-4.06835	-195.2808	-227.01393	-253.05137	-240.84632	-82.99434	0
351	-68.34828	-3.25468	65.0936	34.98781	-68.34828	30.10579	-4.06835	-195.2808	-231.89595	-257.93339	-248.16935	-85.43535	0
352	-61.02525	-0.81367	60.21158	30.10579	-61.02525	30.10579	-6.50936	-197.72181	-231.89595	-257.93339	-255.49238	-90.31737	0
353	-53.70222	-0.81367	52.88855	25.22377	-53.70222	25.22377	-6.50936	-200.16282	-231.89595	-260.3744	-260.3744	-90.31737	0
354	-51.26121	2.44101	52.88855	22.78276	-51.26121	27.66478	-8.95037	-207.48585	-234.33696	-260.3744	-262.81541	-92.75838	0
355	-58.58424	-0.81367	57.77057	27.66478	-58.58424	27.66478	-6.50936	-212.36787	-234.33696	-260.3744	-262.81541	-92.75838	0
356	-68.34828	-3.25468	65.0936	34.98781	-68.34828	30.10579	-1.62734	-214.80888	-234.33696	-253.05137	-255.49238	-90.31737	0
357	-75.67131	-10.57771	65.0936	42.31084	-70.78929	27.66478	3.25468	-219.6909	-234.33696	-248.16935	-248.16935	-85.43535	0
358	-75.67131	-13.01872	62.65259	42.31084	-70.78929	25.22377	3.25468	-219.6909	-231.89595	-248.16935	-243.28733	-85.43535	0
359	-78.11232	-15.45973	62.65259	44.75185	-70.78929	22.78276	8.95037	-217.24989	-229.45494	-250.61036	-238.40531	-82.99434	0
360	-80.55333	-20.34175	60.21158	49.63387	-70.78929	20.34175	8.95037	-212.36787	-229.45494	-250.61036	-238.40531	-82.99434	0
361	-78.11232	-25.22377	52.88855	49.63387	-65.90727	13.01872	8.95037	-200.16282	-227.01393	-253.05137	-238.40531	-82.99434	0
362	-70.78929	-22.78276	48.00653	44.75185	-61.02525	13.01872	8.95037	-192.83979	-224.57292	-253.05137	-240.84632	-82.99434	0
363	-61.02525	-15.45973	45.56552	37.42882	-53.70222	15.45973	6.50936	-192.83979	-224.57292	-255.49238	-245.72834	-85.43535	0
364	-61.02525	-13.01872	48.00653	34.98781	-56.14323	17.90074	6.50936	-195.2808	-227.01393	-253.05137	-250.61036	-85.43535	-1500	QRS-0
365	-63.46626	-8.1367	55.32956	34.98781	-61.02525	22.78276	6.50936	-202.60383	-227.01393	-250.61036	-250.61036	-82.99434	0
366	-70.78929	-5.69569	65.0936	37.42882	-68.34828	30.10579	8.95037	-207.48585	-229.45494	-245.72834	-245.72834	-80.55333	0
367	-70.78929	-0.81367	69.97562	34.98781	-70.78929	34.98781	11.39138	-212.36787	-229.45494	-240.84632	-240.84632	-75.67131	0
368	-75.67131	2.44101	77.29865	34.98781	-75.67131	39.86983	11.39138	-214.80888	-229.45494	-240.84632	-238.40531	-75.67131	0
369	-80.55333	-3.25468	77.29865	39.86983	-80.55333	37.42882	16.2734	-214.80888	-227.01393	-240.84632	-233.52329	-73.2303	0
370	-78.11232	-8.1367	69.97562	42.31084	-75.67131	30.10579	16.2734	-209.92686	-222.13191	-243.28733	-233.52329	-70.78929	0
371	-75.67131	-10.57771	65.0936	42.31084	-70.78929	27.66478	16.2734	-202.60383	-219.6909	-243.28733	-235.9643	-70.78929	0
372	-73.2303	-10.57771	62.65259	39.86983	-68.34828	25.22377	16.2734	-195.2808	-219.6909	-245.72834	-238.40531	-70.78929	0
373	-68.34828	-13.01872	55.32956	39.86983	-63.46626	20.34175	13.83239	-190.39878	-219.6909	-248.16935	-240.84632	-70.78929	0
374	-68.34828	-15.45973	52.88855	39.86983	-61.02525	17.90074	13.83239	-192.83979	-217.24989	-248.16935	-243.28733	-70.78929	0
375	-73.2303	-10.57771	62.65259	39.86983	-68.34828	25.22377	13.83239	-197.72181	-219.6909	-243.28733	-243.28733	-65.90727	0
376	-78.11232	-8.1367	69.97562	42.31084	-75.67131	30.10579	13.83239	-202.60383	-222.13191	-238.40531	-240.84632	-63.46626	0
377	-87.87636	-5.69569	82.18067	44.75185	-85.43535	37.42882	13.83239	-207.48585	-224.57292	-238.40531	-235.9643	-63.46626	0
378	-90.31737	-3.25468	87.06269	44.75185	-90.31737	42.31084	13.83239	-207.48585	-224.57292	-238.40531	-233.52329	-61.02525	0
379	-90.31737	-0.81367	89.5037	44.75185	-90.31737	44.75185	13.83239	-207.48585	-222.13191	-240.84632	-231.08228	-61.02525	0
380	-85.43535	2.44101	87.06269	39.86983	-85.43535	44.75185	11.39138	-207.48585	-222.13191	-245.72834	-233.52329	-61.02525	0
381	-75.67131	-0.81367	74.85764	37.42882	-75.67131	37.42882	11.39138	-200.16282	-222.13191	-245.72834	-235.9643	-61.02525	0
382	-65.90727	-0.81367	65.0936	32.5468	-65.90727	32.5468	8.95037	-195.2808	-224.57292	-250.61036	-240.84632	-63.46626	0
383	-61.02525	2.44101	62.65259	27.66478	-61.02525	32.5468	3.25468	-190.39878	-224.57292	-255.49238	-245.72834	-65.90727	0
384	-58.58424	-0.81367	57.77057	27.66478	-58.58424	27.66478	3.25468	-192.83979	-227.01393	-255.49238	-248.16935	-65.90727	0
385	-61.02525	-0.81367	60.21158	30.10579	-61.02525	30.10579	3.25468	-195.2808	-229.45494	-250.61036	-248.16935	-63.46626	0
386	-68.34828	-0.81367	67.53461	32.5468	-68.34828	32.5468	8.95037	-195.2808	-229.45494	-245.72834	-243.28733	-58.58424	0
387	-82.99434	-5.69569	77.29865	42.31084	-80.55333	34.98781	16.2734	-192.83979	-224.57292	-238.40531	-233.52329	-51.26121	0
388	-92.75838	-5.69569	87.06269	47.19286	-90.31737	39.86983	18.71441	-190.39878	-219.6909	-238.40531	-226.20026	-43.93818	0
389	-95.19939	-10.57771	84.62168	52.07488	-90.31737	37.42882	18.71441	-192.83979	-217.24989	-243.28733	-221.31824	-41.49717	0
390	-87.87636	-13.01872	74.85764	49.63387	-82.99434	30.10579	18.71441	-195.2808	-214.80888	-245.72834	-221.31824	-39.05616	0
391	-80.55333	-10.57771	69.97562	44.75185	-75.67131	30.10579	13.83239	-195.2808	-214.80888	-253.05137	-228.64127	-43.93818	0
392	-65.90727	-10.57771	55.32956	37.42882	-61.02525	22.78276	8.95037	-197.72181	-217.24989	-260.3744	-233.52329	-48.8202	0
393	-53.70222	-10.57771	43.12451	30.10579	-48.8202	15.45973	6.50936	-197.72181	-219.6909	-265.25642	-240.84632	-53.70222	0
394	-46.37919	-8.1367	38.24249	25.22377	-43.93818	15.45973	3.25468	-205.04484	-224.57292	-265.25642	-248.16935	-58.58424	0
395	-48.8202	-3.25468	45.56552	25.22377	-48.8202	20.34175	3.25468	-205.04484	-227.01393	-262.81541	-250.61036	-58.58424	0
396	-56.14323	4.88202	60.21158	25.22377	-58.58424	32.5468	6.50936	-202.60383	-229.45494	-257.93339	-250.61036	-58.58424	0
397	-63.46626	4.88202	67.53461	27.66478	-65.90727	34.98781	8.95037	-200.16282	-229.45494	-255.49238	-243.28733	-58.58424	0
398	-75.67131	4.88202	79.73966	34.98781	-78.11232	42.31084	11.39138	-195.2808	-224.57292	-255.49238	-238.40531	-56.14323	0
399	-82.99434	2.44101	84.62168	39.86983	-82.99434	42.31084	11.39138	-195.2808	-222.13191	-257.93339	-235.9643	-53.70222	0
400	-80.55333	2.44101	82.18067	37.42882	-80.55333	42.31084	6.50936	-200.16282	-224.57292	-265.25642	-235.9643	-58.58424	0
401	-70.78929	2.44101	72.41663	32.5468	-70.78929	37.42882	3.25468	-202.60383	-224.57292	-272.57945	-243.28733	-61.02525	0
402	-61.02525	-0.81367	60.21158	30.10579	-61.02525	30.10579	3.25468	-202.60383	-227.01393	-277.46147	-245.72834	-63.46626	0
403	-56.14323	-3.25468	52.88855	27.66478	-56.14323	25.22377	3.25468	-202.60383	-227.01393	-277.46147	-248.16935	-63.46626	0
404	-56.14323	-0.81367	55.32956	27.66478	-56.14323	27.66478	6.50936	-205.04484	-231.89595	-275.02046	-248.16935	-65.90727	0
405	-56.14323	-0.81367	55.32956	27.66478	-56.14323	27.66478	6.50936	-207.48585	-236.77797	-272.57945	-250.61036	-65.90727	0
406	-65.90727	2.44101	67.53461	30.10579	-65.90727	34.98781	11.39138	-205.04484	-236.77797	-267.69743	-250.61036	-65.90727	0
407	-78.11232	2.44101	79.73966	37.42882	-78.11232	39.86983	13.83239	-202.60383	-236.77797	-265.25642	-243.28733	-63.46626	0
408	-87.87636	2.44101	89.5037	42.31084	-87.87636	44.75185	13.83239	-200.16282	-236.77797	-267.69743	-243.28733	-63.46626	0
409	-90.31737	2.44101	91.94471	42.31084	-90.31737	47.19286	13.83239	-200.16282	-236.77797	-272.57945	-243.28733	-65.90727	0
410	-85.43535	2.44101	87.06269	39.86983	-85.43535	44.75185	8.95037	-205.04484	-241.65999	-282.34349	-245.72834	-68.34828	0
411	-80.55333	-0.81367	79.73966	39.86983	-80.55333	39.86983	3.25468	-207.48585	-244.101	-289.66652	-250.61036	-68.34828	0
412	-68.34828	2.44101	69.97562	32.5468	-68.34828	34.98781	3.25468	-209.92686	-246.54201	-296.98955	-255.49238	-70.78929	0
413	-63.46626	4.88202	67.53461	27.66478	-65.90727	34.98781	0.81367	-212.36787	-248.98302	-299.43056	-260.3744	-70.78929	0
414	-63.46626	7.32303	69.97562	27.66478	-65.90727	37.42882	0.81367	-214.80888	-253.86504	-299.43056	-262.81541	-70.78929	0
415	-65.90727	9.76404	74.85764	27.66478	-70.78929	42.31084	0.81367	-217.24989	-256.30605	-294.54854	-262.81541	-68.34828	0
416	-75.67131	9.76404	84.62168	32.5468	-80.55333	47.19286	3.25468	-217.24989	-256.30605	-292.10753	-262.81541	-65.90727	0
417	-85.43535	7.32303	91.94471	37.42882	-87.87636	49.63387	11.39138	-212.36787	-256.30605	-287.22551	-255.49238	-61.02525	0
418	-92.75838	7.32303	99.26774	42.31084	-95.19939	52.07488	11.39138	-205.04484	-253.86504	-289.66652	-253.05137	-58.58424	0
419	-95.19939	2.44101	96.82673	44.75185	-95.19939	49.63387	13.83239	-205.04484	-251.42403	-292.10753	-250.61036	-58.58424	0
420	-92.75838	2.44101	94.38572	44.75185	-92.75838	47.19286	13.83239	-207.48585	-253.86504	-299.43056	-250.61036	-61.02525	0
421	-85.43535	2.44101	87.06269	39.86983	-85.43535	44.75185	8.95037	-209.92686	-256.30605	-309.1946	-257.93339	-63.46626	0
422	-75.67131	4.88202	79.73966	34.98781	-78.11232	42.31084	6.50936	-212.36787	-261.18807	-314.07662	-262.81541	-65.90727	0
423	-65.90727	12.20505	77.29865	25.22377	-70.78929	44.75185	3.25468	-214.80888	-263.62908	-318.95864	-267.69743	-70.78929	0
424	-63.46626	19.52808	82.18067	20.34175	-73.2303	49.63387	3.25468	-217.24989	-268.5111	-316.51763	-270.13844	-70.78929	0
425	-63.46626	19.52808	82.18067	20.34175	-73.2303	49.63387	3.25468	-219.6909	-275.83413	-314.07662	-272.57945	-73.2303	0
426	-65.90727	19.52808	84.62168	22.78276	-75.67131	52.07488	0.81367	-222.13191	-280.71615	-314.07662	-275.02046	-73.2303	0
427	-75.67131	17.08707	91.94471	27.66478	-82.99434	54.51589	0.81367	-222.13191	-283.15716	-314.07662	-272.57945	-73.2303	0
428	-85.43535	14.64606	99.26774	34.98781	-92.75838	56.9569	0.81367	-217.24989	-278.27514	-314.07662	-270.13844	-70.78929	0
429	-92.75838	14.64606	106.59077	37.42882	-100.08141	59.39791	0.81367	-214.80888	-275.83413	-314.07662	-265.25642	-70.78929	0
430	-92.75838	12.20505	104.14976	39.86983	-97.6404	56.9569	0.81367	-217.24989	-273.39312	-318.95864	-265.25642	-68.34828	0
431	-90.31737	12.20505	101.70875	37.42882	-95.19939	56.9569	0.81367	-217.24989	-273.39312	-323.84066	-265.25642	-65.90727	0
432	-90.31737	12.20505	101.70875	37.42882	-95.19939	56.9569	3.25468	-214.80888	-270.95211	-323.84066	-265.25642	-65.90727	0
433	-85.43535	12.20505	96.82673	34.98781	-90.31737	54.51589	8.95037	-209.92686	-266.07009	-321.39965	-262.81541	-61.02525	0
434	-78.11232	14.64606	91.94471	30.10579	-85.43535	52.07488	11.39138	-212.36787	-270.95211	-316.51763	-262.81541	-61.02525	0
435	-73.2303	17.08707	89.5037	27.66478	-80.55333	52.07488	13.83239	-214.80888	-275.83413	-311.63561	-262.81541	-61.02525	0
436	-70.78929	14.64606	84.62168	27.66478	-78.11232	49.63387	13.83239	-214.80888	-280.71615	-311.63561	-265.25642	-61.02525	0
437	-70.78929	12.20505	82.18067	27.66478	-75.67131	47.19286	13.83239	-217.24989	-283.15716	-314.07662	-267.69743	-63.46626	0
438	-78.11232	9.76404	87.06269	32.5468	-82.99434	47.19286	11.39138	-217.24989	-285.59817	-318.95864	-267.69743	-65.90727	0
439	-82.99434	12.20505	94.38572	34.98781	-87.87636	52.07488	8.95037	-217.24989	-288.03918	-323.84066	-267.69743	-65.90727	0
440	-85.43535	12.20505	96.82673	34.98781	-90.31737	54.51589	8.95037	-219.6909	-288.03918	-326.28167	-265.25642	-63.46626	0
441	-85.43535	9.76404	94.38572	37.42882	-90.31737	52.07488	8.95037	-217.24989	-283.15716	-331.16369	-265.25642	-63.46626	0
442	-85.43535	9.76404	94.38572	37.42882	-90.31737	52.07488	8.95037	-217.24989	-283.15716	-333.6047	-265.25642	-61.02525	0
443	-82.99434	12.20505	94.38572	34.98781	-87.87636	52.07488	11.39138	-212.36787	-280.71615	-333.6047	-265.25642	-61.02525	0
444	-78.11232	14.64606	91.94471	30.10579	-85.43535	52.07488	11.39138	-217.24989	-285.59817	-326.28167	-267.69743	-61.02525	0
445	-73.2303	12.20505	84.62168	30.10579	-78.11232	47.19286	11.39138	-222.13191	-290.48019	-323.84066	-272.57945	-63.46626	0
446	-73.2303	7.32303	79.73966	32.5468	-75.67131	42.31084	8.95037	-227.01393	-295.36221	-321.39965	-275.02046	-68.34828	0
447	-75.67131	4.88202	79.73966	34.98781	-78.11232	42.31084	6.50936	-229.45494	-297.80322	-321.39965	-275.02046	-73.2303	0
448	-80.55333	-0.81367	79.73966	39.86983	-80.55333	39.86983	3.25468	-229.45494	-297.80322	-326.28167	-275.02046	-75.67131	0
449	-85.43535	-8.1367	77.29865	44.75185	-82.99434	34.98781	0.81367	-231.89595	-295.36221	-328.72268	-275.02046	-78.11232	0
450	-92.75838	-15.45973	77.29865	52.07488	-85.43535	30.10579	3.25468	-229.45494	-290.48019	-328.72268	-272.57945	-78.11232	0
451	-90.31737	-13.01872	77.29865	49.63387	-85.43535	32.5468	3.25468	-224.57292	-283.15716	-328.72268	-272.57945	-78.11232	0
452	-90.31737	-10.57771	79.73966	49.63387	-85.43535	34.98781	6.50936	-219.6909	-278.27514	-328.72268	-270.13844	-75.67131	0
453	-85.43535	-5.69569	79.73966	44.75185	-82.99434	37.42882	8.95037	-217.24989	-275.83413	-328.72268	-270.13844	-75.67131	0
454	-80.55333	-5.69569	74.85764	42.31084	-78.11232	34.98781	11.39138	-214.80888	-275.83413	-318.95864	-270.13844	-75.67131	0
455	-78.11232	-3.25468	74.85764	39.86983	-78.11232	34.98781	13.83239	-217.24989	-280.71615	-311.63561	-270.13844	-75.67131	0
456	-73.2303	-0.81367	72.41663	34.98781	-73.2303	34.98781	11.39138	-222.13191	-288.03918	-309.1946	-272.57945	-78.11232	0
457	-70.78929	-3.25468	67.53461	34.98781	-70.78929	32.5468	8.95037	-227.01393	-290.48019	-311.63561	-275.02046	-80.55333	0
458	-73.2303	-8.1367	65.0936	39.86983	-70.78929	27.66478	6.50936	-229.45494	-290.48019	-316.51763	-275.02046	-82.99434	0
459	-75.67131	-13.01872	62.65259	42.31084	-70.78929	25.22377	3.25468	-229.45494	-288.03918	-316.51763	-275.02046	-85.43535	0
460	-80.55333	-13.01872	67.53461	44.75185	-75.67131	27.66478	3.25468	-229.45494	-285.59817	-321.39965	-275.02046	-85.43535	0
461	-82.99434	-17.90074	65.0936	49.63387	-75.67131	22.78276	0.81367	-229.45494	-283.15716	-326.28167	-277.46147	-85.43535	0
462	-80.55333	-17.90074	62.65259	47.19286	-73.2303	22.78276	0.81367	-224.57292	-280.71615	-326.28167	-277.46147	-85.43535	0
463	-80.55333	-20.34175	60.21158	49.63387	-70.78929	20.34175	0.81367	-219.6909	-278.27514	-326.28167	-279.90248	-87.87636	0
464	-75.67131	-13.01872	62.65259	42.31084	-70.78929	25.22377	3.25468	-219.6909	-280.71615	-321.39965	-282.34349	-87.87636	0
465	-73.2303	-10.57771	62.65259	39.86983	-68.34828	25.22377	3.25468	-224.57292	-283.15716	-314.07662	-279.90248	-87.87636	0
466	-68.34828	-8.1367	60.21158	37.42882	-65.90727	25.22377	3.25468	-227.01393	-288.03918	-309.1946	-282.34349	-92.75838	0
467	-68.34828	-8.1367	60.21158	37.42882	-65.90727	25.22377	0.81367	-229.45494	-288.03918	-309.1946	-282.34349	-95.19939	0
468	-75.67131	-8.1367	67.53461	39.86983	-73.2303	30.10579	0.81367	-227.01393	-283.15716	-309.1946	-282.34349	-97.6404	0
469	-80.55333	-8.1367	72.41663	42.31084	-78.11232	32.5468	0.81367	-224.57292	-278.27514	-311.63561	-279.90248	-97.6404	0
470	-85.43535	-8.1367	77.29865	44.75185	-82.99434	34.98781	-1.62734	-224.57292	-275.83413	-314.07662	-277.46147	-97.6404	0
471	-90.31737	-15.45973	74.85764	52.07488	-82.99434	30.10579	-4.06835	-219.6909	-273.39312	-321.39965	-282.34349	-100.08141	0
472	-90.31737	-17.90074	72.41663	52.07488	-82.99434	27.66478	-4.06835	-214.80888	-270.95211	-326.28167	-284.7845	-100.08141	0
473	-90.31737	-17.90074	72.41663	52.07488	-82.99434	27.66478	-4.06835	-212.36787	-268.5111	-328.72268	-287.22551	-100.08141	0
474	-82.99434	-13.01872	69.97562	47.19286	-78.11232	27.66478	-4.06835	-214.80888	-273.39312	-326.28167	-292.10753	-102.52242	0
475	-73.2303	-10.57771	62.65259	39.86983	-68.34828	25.22377	-6.50936	-219.6909	-280.71615	-323.84066	-296.98955	-107.40444	0
476	-75.67131	-10.57771	65.0936	42.31084	-70.78929	27.66478	-6.50936	-224.57292	-283.15716	-323.84066	-299.43056	-112.28646	0
477	-78.11232	-13.01872	65.0936	44.75185	-73.2303	25.22377	-6.50936	-224.57292	-283.15716	-321.39965	-294.54854	-112.28646	0
478	-80.55333	-13.01872	67.53461	44.75185	-75.67131	27.66478	-4.06835	-224.57292	-283.15716	-321.39965	-292.10753	-112.28646	0
479	-80.55333	-15.45973	65.0936	47.19286	-73.2303	25.22377	-8.95037	-227.01393	-283.15716	-323.84066	-292.10753	-114.72747	0
480	-82.99434	-20.34175	62.65259	49.63387	-73.2303	20.34175	-8.95037	-229.45494	-283.15716	-326.28167	-289.66652	-114.72747	0
481	-85.43535	-22.78276	62.65259	52.07488	-75.67131	20.34175	-8.95037	-224.57292	-278.27514	-326.28167	-289.66652	-109.84545	0
482	-82.99434	-22.78276	60.21158	52.07488	-73.2303	17.90074	-8.95037	-219.6909	-278.27514	-331.16369	-289.66652	-109.84545	0
483	-80.55333	-22.78276	57.77057	49.63387	-70.78929	17.90074	-8.95037	-219.6909	-278.27514	-333.6047	-292.10753	-109.84545	0
484	-75.67131	-20.34175	55.32956	47.19286	-65.90727	17.90074	-8.95037	-219.6909	-283.15716	-331.16369	-294.54854	-109.84545	0
485	-75.67131	-17.90074	57.77057	44.75185	-68.34828	20.34175	-6.50936	-219.6909	-285.59817	-323.84066	-294.54854	-109.84545	0
486	-73.2303	-17.90074	55.32956	44.75185	-65.90727	17.90074	-6.50936	-219.6909	-288.03918	-321.39965	-294.54854	-112.28646	0
487	-75.67131	-17.90074	57.77057	44.75185	-68.34828	20.34175	-6.50936	-219.6909	-285.59817	-318.95864	-294.54854	-112.28646	0
488	-78.11232	-25.22377	52.88855	49.63387	-65.90727	13.01872	-6.50936	-219.6909	-283.15716	-321.39965	-292.10753	-112.28646	0
489	-82.99434	-30.10579	52.88855	54.51589	-68.34828	10.57771	-6.50936	-222.13191	-283.15716	-321.39965	-287.22551	-112.28646	0
490	-85.43535	-27.66478	57.77057	54.51589	-73.2303	15.45973	-6.50936	-227.01393	-280.71615	-323.84066	-287.22551	-112.28646	0
491	-92.75838	-30.10579	62.65259	59.39791	-78.11232	15.45973	-6.50936	-227.01393	-278.27514	-331.16369	-287.22551	-112.28646	0
492	-95.19939	-30.10579	65.0936	61.83892	-80.55333	17.90074	-6.50936	-224.57292	-275.83413	-333.6047	-287.22551	-112.28646	0
493	-95.19939	-30.10579	65.0936	61.83892	-80.55333	17.90074	-6.50936	-222.13191	-275.83413	-336.04571	-289.66652	-112.28646	0
494	-95.19939	-27.66478	67.53461	59.39791	-82.99434	20.34175	-6.50936	-227.01393	-283.15716	-333.6047	-292.10753	-112.28646	0
495	-90.31737	-20.34175	69.97562	54.51589	-80.55333	25.22377	-6.50936	-227.01393	-285.59817	-328.72268	-294.54854	-112.28646	0
496	-87.87636	-20.34175	67.53461	52.07488	-78.11232	22.78276	-4.06835	-222.13191	-285.59817	-323.84066	-292.10753	-109.84545	0
497	-80.55333	-22.78276	57.77057	49.63387	-70.78929	17.90074	-4.06835	-222.13191	-285.59817	-321.39965	-287.22551	-107.40444	0
498	-80.55333	-27.66478	52.88855	52.07488	-68.34828	13.01872	-6.50936	-222.13191	-288.03918	-323.84066	-287.22551	-107.40444	0
499	-82.99434	-30.10579	52.88855	54.51589	-68.34828	10.57771	-6.50936	-224.57292	-288.03918	-323.84066	-284.7845	-107.40444	0
500	-85.43535	-32.5468	52.88855	56.9569	-70.78929	10.57771	-6.50936	-227.01393	-285.59817	-326.28167	-279.90248	-107.40444	0
501	-87.87636	-32.5468	55.32956	59.39791	-73.2303	10.57771	-4.06835	-227.01393	-283.15716	-328.72268	-279.90248	-104.96343	0
502	-92.75838	-37.42882	55.32956	64.27993	-75.67131	8.1367	0.81367	-224.57292	-280.71615	-333.6047	-275.02046	-102.52242	0
503	-92.75838	-34.98781	57.77057	61.83892	-75.67131	10.57771	0.81367	-224.57292	-280.71615	-336.04571	-275.02046	-102.52242	0
504	-92.75838	-32.5468	60.21158	61.83892	-78.11232	13.01872	3.25468	-224.57292	-280.71615	-333.6047	-277.46147	-100.08141	0
505	-87.87636	-27.66478	60.21158	56.9569	-75.67131	15.45973	8.95037	-224.57292	-283.15716	-328.72268	-275.02046	-100.08141	0
506	-82.99434	-22.78276	60.21158	52.07488	-73.2303	17.90074	11.39138	-224.57292	-285.59817	-323.84066	-275.02046	-100.08141	0
507	-80.55333	-17.90074	62.65259	47.19286	-73.2303	22.78276	13.83239	-224.57292	-285.59817	-321.39965	-275.02046	-100.08141	0
508	-78.11232	-15.45973	62.65259	44.75185	-70.78929	22.78276	13.83239	-227.01393	-283.15716	-323.84066	-277.46147	-100.08141	0
509	-78.11232	-13.01872	65.0936	44.75185	-73.2303	25.22377	11.39138	-224.57292	-280.71615	-323.84066	-277.46147	-100.08141	0
510	-80.55333	-10.57771	69.97562	44.75185	-75.67131	30.10579	16.2734	-222.13191	-278.27514	-321.39965	-275.02046	-97.6404	0
511	-80.55333	-3.25468	77.29865	39.86983	-80.55333	37.42882	18.71441	-222.13191	-273.39312	-326.28167	-272.57945	-95.19939	0
512	-80.55333	-0.81367	79.73966	39.86983	-80.55333	39.86983	21.15542	-217.24989	-268.5111	-326.28167	-267.69743	-90.31737	0
513	-78.11232	4.88202	82.18067	34.98781	-80.55333	42.31084	26.03744	-212.36787	-263.62908	-326.28167	-265.25642	-85.43535	0
514	-68.34828	17.08707	84.62168	25.22377	-75.67131	49.63387	33.36047	-205.04484	-261.18807	-318.95864	-260.3744	-80.55333	0
515	-61.02525	21.96909	82.18067	17.90074	-70.78929	52.07488	35.80148	-205.04484	-263.62908	-311.63561	-255.49238	-78.11232	0
516	-56.14323	29.29212	84.62168	13.01872	-70.78929	56.9569	38.24249	-202.60383	-263.62908	-306.75359	-253.05137	-78.11232	0
517	-53.70222	31.73313	84.62168	10.57771	-68.34828	56.9569	40.6835	-200.16282	-261.18807	-301.87157	-250.61036	-75.67131	0
518	-58.58424	31.73313	89.5037	13.01872	-73.2303	59.39791	45.56552	-197.72181	-256.30605	-299.43056	-248.16935	-75.67131	0
519	-61.02525	31.73313	91.94471	13.01872	-75.67131	61.83892	48.00653	-195.2808	-256.30605	-296.98955	-248.16935	-73.2303	0
520	-65.90727	31.73313	96.82673	15.45973	-80.55333	64.27993	48.00653	-195.2808	-251.42403	-296.98955	-245.72834	-70.78929	0
521	-75.67131	31.73313	106.59077	20.34175	-90.31737	69.16195	48.00653	-195.2808	-248.98302	-301.87157	-240.84632	-70.78929	0
522	-78.11232	34.17414	111.47279	20.34175	-95.19939	71.60296	45.56552	-192.83979	-244.101	-304.31258	-235.9643	-68.34828	0
523	-75.67131	34.17414	109.03178	20.34175	-92.75838	71.60296	45.56552	-190.39878	-241.65999	-304.31258	-231.08228	-63.46626	0
524	-65.90727	39.05616	104.14976	13.01872	-85.43535	71.60296	40.6835	-190.39878	-241.65999	-301.87157	-228.64127	-63.46626	0
525	-58.58424	46.37919	104.14976	5.69569	-80.55333	74.04397	35.80148	-195.2808	-244.101	-294.54854	-223.75925	-61.02525	0
526	-51.26121	51.26121	101.70875	0	-75.67131	76.48498	28.47845	-195.2808	-244.101	-287.22551	-221.31824	-58.58424	0
527	-46.37919	58.58424	104.14976	-7.32303	-75.67131	81.367	26.03744	-195.2808	-241.65999	-279.90248	-216.43622	-53.70222	0
528	-39.05616	65.90727	104.14976	-14.64606	-70.78929	83.80801	23.59643	-192.83979	-234.33696	-275.02046	-211.5542	-48.8202	0
529	-31.73313	78.11232	109.03178	-24.4101	-70.78929	93.57205	18.71441	-192.83979	-231.89595	-270.13844	-206.67218	-43.93818	0
530	-26.85111	85.43535	111.47279	-29.29212	-68.34828	98.45407	16.2734	-192.83979	-227.01393	-267.69743	-201.79016	-39.05616	0
531	-26.85111	90.31737	116.35481	-31.73313	-70.78929	103.33609	13.83239	-195.2808	-224.57292	-267.69743	-194.46713	-31.73313	0
532	-26.85111	95.19939	121.23683	-34.17414	-73.2303	108.21811	11.39138	-192.83979	-219.6909	-270.13844	-189.58511	-26.85111	0
533	-24.4101	100.08141	123.67784	-39.05616	-73.2303	110.65912	8.95037	-192.83979	-219.6909	-270.13844	-184.70309	-21.96909	0
534	-19.52808	100.08141	118.79582	-41.49717	-68.34828	108.21811	3.25468	-197.72181	-224.57292	-272.57945	-182.26208	-21.96909	0
535	-12.20505	97.6404	109.03178	-43.93818	-61.02525	103.33609	3.25468	-200.16282	-227.01393	-270.13844	-182.26208	-21.96909	0
536	-7.32303	102.52242	109.03178	-48.8202	-58.58424	105.7771	-1.62734	-202.60383	-231.89595	-267.69743	-184.70309	-24.4101	0
537	-2.44101	104.96343	106.59077	-51.26121	-53.70222	105.7771	-6.50936	-207.48585	-236.77797	-267.69743	-189.58511	-26.85111	0
538	5.69569	109.84545	104.14976	-58.58424	-48.8202	108.21811	-8.95037	-212.36787	-236.77797	-270.13844	-192.02612	-31.73313	0
539	13.01872	109.84545	96.82673	-61.02525	-41.49717	103.33609	-13.83239	-217.24989	-239.21898	-272.57945	-194.46713	-34.17414	0
540	10.57771	107.40444	96.82673	-58.58424	-43.93818	103.33609	-16.2734	-222.13191	-241.65999	-275.02046	-196.90814	-36.61515	0
541	-2.44101	97.6404	99.26774	-48.8202	-51.26121	98.45407	-16.2734	-224.57292	-241.65999	-279.90248	-196.90814	-36.61515	0
542	-14.64606	85.43535	99.26774	-36.61515	-56.14323	91.13104	-16.2734	-227.01393	-241.65999	-284.7845	-199.34915	-39.05616	0
543	-29.29212	70.78929	99.26774	-21.96909	-63.46626	83.80801	-18.71441	-229.45494	-246.54201	-289.66652	-199.34915	-41.49717	0
544	-39.05616	61.02525	99.26774	-12.20505	-68.34828	78.92599	-21.15542	-234.33696	-253.86504	-294.54854	-206.67218	-48.8202	0
545	-43.93818	46.37919	89.5037	-2.44101	-65.90727	66.72094	-23.59643	-236.77797	-258.74706	-296.98955	-209.11319	-56.14323	0
546	-46.37919	36.61515	82.18067	3.25468	-63.46626	59.39791	-23.59643	-234.33696	-261.18807	-292.10753	-211.5542	-58.58424	0
547	-43.93818	31.73313	74.85764	5.69569	-58.58424	52.07488	-23.59643	-231.89595	-261.18807	-289.66652	-213.99521	-65.90727	0
548	-34.17414	36.61515	69.97562	-2.44101	-51.26121	52.07488	-23.59643	-229.45494	-256.30605	-289.66652	-216.43622	-70.78929	0
549	-34.17414	31.73313	65.0936	0	-48.8202	47.19286	-21.15542	-227.01393	-256.30605	-289.66652	-218.87723	-73.2303	0
550	-34.17414	26.85111	60.21158	3.25468	-46.37919	42.31084	-18.71441	-224.57292	-251.42403	-289.66652	-221.31824	-75.67131	0
551	-43.93818	19.52808	62.65259	10.57771	-53.70222	39.86983	-13.83239	-222.13191	-246.54201	-292.10753	-218.87723	-75.67131	0
552	-51.26121	14.64606	65.0936	17.90074	-58.58424	39.86983	-13.83239	-222.13191	-246.54201	-296.98955	-221.31824	-78.11232	0
553	-61.02525	7.32303	67.53461	25.22377	-63.46626	37.42882	-13.83239	-227.01393	-251.42403	-304.31258	-226.20026	-85.43535	0
554	-73.2303	-8.1367	65.0936	39.86983	-70.78929	27.66478	-13.83239	-229.45494	-258.74706	-306.75359	-231.08228	-90.31737	0
555	-78.11232	-15.45973	62.65259	44.75185	-70.78929	22.78276	-16.2734	-231.89595	-263.62908	-309.1946	-235.9643	-97.6404	0
556	-78.11232	-25.22377	52.88855	49.63387	-65.90727	13.01872	-18.71441	-234.33696	-268.5111	-311.63561	-240.84632	-102.52242	0
557	-78.11232	-30.10579	48.00653	52.07488	-63.46626	8.1367	-21.15542	-234.33696	-270.95211	-306.75359	-245.72834	-107.40444	0
558	-78.11232	-30.10579	48.00653	52.07488	-63.46626	8.1367	-21.15542	-234.33696	-268.5111	-306.75359	-248.16935	-112.28646	0
559	-73.2303	-27.66478	45.56552	49.63387	-61.02525	8.1367	-21.15542	-231.89595	-268.5111	-306.75359	-248.16935	-112.28646	0
560	-70.78929	-27.66478	43.12451	47.19286	-58.58424	8.1367	-21.15542	-234.33696	-266.07009	-306.75359	-250.61036	-114.72747	0
561	-75.67131	-30.10579	45.56552	52.07488	-61.02525	8.1367	-23.59643	-236.77797	-263.62908	-311.63561	-250.61036	-117.16848	0
562	-82.99434	-34.98781	48.00653	56.9569	-65.90727	5.69569	-23.59643	-236.77797	-263.62908	-314.07662	-250.61036	-119.60949	0
563	-90.31737	-39.86983	50.44754	64.27993	-70.78929	5.69569	-23.59643	-236.77797	-263.62908	-318.95864	-250.61036	-124.49151	0
564	-90.31737	-44.75185	45.56552	66.72094	-68.34828	0	-23.59643	-239.21898	-268.5111	-321.39965	-250.61036	-126.93252	0
565	-92.75838	-52.07488	40.6835	71.60296	-68.34828	-7.32303	-26.03744	-241.65999	-270.95211	-318.95864	-253.05137	-129.37353	0
566	-92.75838	-56.9569	35.80148	74.04397	-65.90727	-12.20505	-26.03744	-239.21898	-270.95211	-314.07662	-253.05137	-131.81454	0
567	-87.87636	-54.51589	33.36047	69.16195	-61.02525	-12.20505	-28.47845	-239.21898	-270.95211	-309.1946	-253.05137	-134.25555	0
568	-82.99434	-52.07488	30.91946	66.72094	-58.58424	-12.20505	-30.91946	-236.77797	-266.07009	-306.75359	-253.05137	-136.69656	0
569	-78.11232	-52.07488	26.03744	64.27993	-53.70222	-14.64606	-30.91946	-234.33696	-263.62908	-304.31258	-250.61036	-134.25555	0
570	-75.67131	-49.63387	26.03744	61.83892	-51.26121	-12.20505	-30.91946	-234.33696	-258.74706	-301.87157	-248.16935	-134.25555	0
571	-75.67131	-47.19286	28.47845	59.39791	-53.70222	-9.76404	-30.91946	-234.33696	-256.30605	-306.75359	-248.16935	-134.25555	0
572	-80.55333	-49.63387	30.91946	64.27993	-56.14323	-9.76404	-30.91946	-236.77797	-256.30605	-309.1946	-248.16935	-134.25555	0
573	-87.87636	-54.51589	33.36047	69.16195	-61.02525	-12.20505	-30.91946	-239.21898	-256.30605	-314.07662	-245.72834	-136.69656	0
574	-90.31737	-54.51589	35.80148	71.60296	-63.46626	-9.76404	-30.91946	-241.65999	-261.18807	-316.51763	-245.72834	-136.69656	0
575	-90.31737	-54.51589	35.80148	71.60296	-63.46626	-9.76404	-30.91946	-244.101	-263.62908	-314.07662	-248.16935	-141.57858	0
576	-90.31737	-56.9569	33.36047	71.60296	-63.46626	-12.20505	-30.91946	-244.101	-263.62908	-309.1946	-248.16935	-144.01959	0
577	-90.31737	-59.39791	30.91946	74.04397	-61.02525	-14.64606	-33.36047	-241.65999	-263.62908	-304.31258	-248.16935	-146.4606	0
578	-87.87636	-59.39791	28.47845	71.60296	-58.58424	-17.08707	-35.80148	-241.65999	-258.74706	-301.87157	-248.16935	-146.4606	0
579	-87.87636	-61.83892	26.03744	74.04397	-58.58424	-19.52808	-33.36047	-239.21898	-253.86504	-296.98955	-245.72834	-146.4606	0
580	-87.87636	-66.72094	21.15542	76.48498	-56.14323	-24.4101	-33.36047	-239.21898	-248.98302	-294.54854	-243.28733	-146.4606	0
581	-90.31737	-69.16195	21.15542	78.92599	-56.14323	-24.4101	-33.36047	-239.21898	-248.98302	-299.43056	-243.28733	-146.4606	0
582	-97.6404	-66.72094	30.91946	81.367	-65.90727	-19.52808	-33.36047	-239.21898	-246.54201	-301.87157	-240.84632	-146.4606	0
583	-100.08141	-64.27993	35.80148	81.367	-68.34828	-14.64606	-30.91946	-239.21898	-246.54201	-306.75359	-240.84632	-146.4606	0
584	-102.52242	-66.72094	35.80148	83.80801	-70.78929	-17.08707	-26.03744	-236.77797	-251.42403	-309.1946	-243.28733	-146.4606	0
585	-102.52242	-66.72094	35.80148	83.80801	-70.78929	-17.08707	-26.03744	-234.33696	-253.86504	-309.1946	-248.16935	-148.90161	0
586	-102.52242	-64.27993	38.24249	81.367	-70.78929	-14.64606	-23.59643	-234.33696	-256.30605	-311.63561	-255.49238	-156.22464	0
587	-102.52242	-69.16195	33.36047	83.80801	-68.34828	-19.52808	-21.15542	-234.33696	-263.62908	-316.51763	-267.69743	-163.54767	0
588	-100.08141	-78.92599	21.15542	88.69003	-61.02525	-29.29212	-18.71441	-234.33696	-270.95211	-331.16369	-284.7845	-175.75272	0
589	-112.28646	-88.69003	23.59643	98.45407	-68.34828	-34.17414	-13.83239	-236.77797	-280.71615	-348.25076	-304.31258	-185.51676	0
590	-126.93252	-96.01306	30.91946	110.65912	-80.55333	-34.17414	-8.95037	-241.65999	-292.9212	-370.21985	-326.28167	-195.2808	0
591	-136.69656	-98.45407	38.24249	115.54114	-87.87636	-31.73313	-4.06835	-248.98302	-307.56726	-394.62995	-345.80975	-205.04484	0
592	-144.01959	-108.21811	35.80148	125.30518	-90.31737	-36.61515	0.81367	-253.86504	-317.3313	-414.15803	-358.0148	-207.48585	0
593	-146.4606	-120.42316	26.03744	132.62821	-87.87636	-48.8202	3.25468	-256.30605	-327.09534	-428.80409	-362.89682	-209.92686	0
594	-148.90161	-130.1872	18.71441	137.51023	-85.43535	-56.14323	-4.06835	-266.07009	-339.30039	-436.12712	-365.33783	-209.92686	0
595	-131.81454	-137.51023	-6.50936	132.62821	-63.46626	-73.2303	-16.2734	-280.71615	-353.94645	-433.68611	-353.13278	-207.48585	0
596	-90.31737	-142.39225	-52.88855	115.54114	-19.52808	-97.6404	-40.6835	-302.68524	-366.1515	-421.48106	-331.16369	-200.16282	0
597	-41.49717	-144.83326	-104.14976	91.13104	30.10579	-124.49151	-74.85764	-339.30039	-380.79756	-406.835	-299.43056	-190.39878	0
598	13.01872	-147.27427	-160.29299	66.72094	86.24902	-153.78363	-121.23683	-393.00261	-400.32564	-387.30692	-257.93339	-175.75272	0
599	76.48498	-135.06922	-211.5542	27.66478	142.39225	-173.31171	-172.49804	-466.23291	-424.73574	-365.33783	-204.23117	-148.90161	0
600	147.27427	-117.98215	-265.25642	-14.64606	205.85851	-190.39878	-226.20026	-554.10927	-454.02786	-343.36874	-140.76491	-112.28646	0
601	222.94558	-98.45407	-321.39965	-63.46626	271.76578	-209.92686	-282.34349	-666.39573	-500.40705	-333.6047	-82.18067	-75.67131	0
602	293.73487	-69.16195	-362.89682	-112.28646	327.90901	-214.80888	-345.80975	-803.09229	-566.31432	-338.48672	-30.91946	-36.61515	0
603	359.64214	-32.5468	-392.18894	-163.54767	374.2882	-212.36787	-406.835	-956.87592	-644.42664	-350.69177	11.39138	5.69569	0
604	420.66739	-0.81367	-421.48106	-209.92686	420.66739	-209.92686	-465.41924	-1113.10056	-732.303	-367.77884	45.56552	44.75185	0
605	474.36961	17.08707	-458.09621	-246.54201	467.04658	-219.6909	-521.56247	-1266.88419	-829.9434	-399.51197	52.88855	61.83892	0
606	518.30779	9.76404	-509.35742	-263.62908	513.42577	-248.98302	-567.94166	-1403.58075	-930.02481	-453.21419	26.03744	42.31084	0
607	545.1589	-0.81367	-545.97257	-273.39312	545.1589	-273.39312	-594.79277	-1510.98519	-1020.34218	-511.79843	-22.78276	8.1367	0
608	547.59991	-17.90074	-565.50065	-266.07009	554.92294	-290.48019	-594.79277	-1572.01044	-1081.36743	-567.94166	-77.29865	-31.73313	0
609	520.7488	-54.51589	-575.26469	-234.33696	547.59991	-314.89029	-577.7057	-1591.53852	-1122.8646	-621.64388	-152.96996	-90.31737	0
610	469.48759	-103.33609	-572.82368	-183.07575	520.7488	-336.85938	-541.09055	-1572.01044	-1142.39268	-680.22812	-243.28733	-165.98868	0
611	403.58032	-147.27427	-550.85459	-129.37353	476.81062	-349.06443	-487.38833	-1520.74923	-1144.83369	-733.93034	-336.04571	-239.21898	0
612	315.70396	-174.12538	-489.82934	-70.78929	401.13931	-331.97736	-428.80409	-1447.51893	-1122.8646	-772.9865	-411.71702	-290.48019	0
613	218.06356	-193.65346	-411.71702	-12.20505	313.26295	-302.68524	-370.21985	-1359.64257	-1086.24945	-792.51458	-467.86025	-329.53635	0
614	127.74619	-213.18154	-340.92773	42.31084	232.70962	-275.83413	-321.39965	-1266.88419	-1039.87026	-794.95559	-511.79843	-361.26948	0
615	44.75185	-222.94558	-267.69743	88.69003	154.5973	-244.101	-287.22551	-1176.56682	-986.16804	-780.30953	-538.64954	-378.35655	0
616	-19.52808	-227.8276	-209.11319	122.86417	93.57205	-219.6909	-260.3744	-1086.24945	-922.70178	-746.13539	-536.20853	-380.79756	0
617	-75.67131	-230.26861	-155.41097	152.15629	39.86983	-192.83979	-238.40531	-995.93208	-851.91249	-697.31519	-519.12146	-371.03352	0
618	-107.40444	-222.94558	-116.35481	164.36134	3.25468	-170.8707	-218.87723	-900.73269	-766.47714	-636.28994	-484.94732	-353.94645	0
619	-126.93252	-208.29952	-82.18067	166.80235	-24.4101	-146.4606	-194.46713	-803.09229	-678.60078	-565.50065	-441.00914	-329.53635	0
620	-129.37353	-191.21245	-62.65259	159.47932	-34.17414	-126.93252	-174.93905	-712.77492	-593.16543	-497.15237	-392.18894	-302.68524	0
621	-126.93252	-174.12538	-48.00653	149.71528	-41.49717	-112.28646	-157.85198	-624.89856	-510.17109	-431.2451	-343.36874	-275.83413	0
622	-117.16848	-157.03831	-40.6835	135.06922	-39.05616	-100.08141	-140.76491	-537.0222	-429.61776	-365.33783	-294.54854	-251.42403	0
623	-104.96343	-144.83326	-40.6835	122.86417	-34.17414	-92.75838	-126.11885	-449.14584	-351.50544	-304.31258	-250.61036	-229.45494	0
624	-92.75838	-137.51023	-45.56552	113.10013	-24.4101	-92.75838	-109.03178	-366.1515	-283.15716	-243.28733	-206.67218	-207.48585	0
625	-82.99434	-132.62821	-50.44754	105.7771	-17.08707	-92.75838	-96.82673	-292.9212	-224.57292	-187.1441	-170.05703	-190.39878	0
626	-70.78929	-125.30518	-55.32956	96.01306	-9.76404	-90.31737	-87.06269	-227.01393	-168.42969	-135.88289	-135.88289	-173.31171	0
627	-61.02525	-115.54114	-55.32956	86.24902	-4.88202	-85.43535	-74.85764	-163.54767	-114.72747	-86.24902	-104.14976	-158.66565	0
628	-48.8202	-108.21811	-60.21158	76.48498	5.69569	-85.43535	-57.77057	-107.40444	-65.0936	-44.75185	-74.85764	-141.57858	0
629	-41.49717	-98.45407	-57.77057	69.16195	8.1367	-78.11232	-43.12451	-63.46626	-26.03744	-13.01872	-55.32956	-131.81454	0
630	-34.17414	-88.69003	-55.32956	59.39791	10.57771	-73.2303	-33.36047	-30.91946	3.25468	8.95037	-38.24249	-124.49151	0
631	-29.29212	-81.367	-52.88855	54.51589	10.57771	-68.34828	-26.03744	-6.50936	25.22377	21.15542	-27.66478	-119.60949	0
632	-29.29212	-78.92599	-50.44754	52.07488	10.57771	-65.90727	-21.15542	10.57771	42.31084	30.91946	-20.34175	-117.16848	0
633	-31.73313	-81.367	-50.44754	54.51589	8.1367	-65.90727	-16.2734	25.22377	52.07488	35.80148	-13.01872	-114.72747	0
634	-34.17414	-83.80801	-50.44754	56.9569	8.1367	-68.34828	-16.2734	32.5468	56.9569	43.12451	-8.1367	-114.72747	0
635	-34.17414	-88.69003	-55.32956	59.39791	10.57771	-73.2303	-16.2734	39.86983	64.27993	55.32956	-5.69569	-114.72747	0
636	-34.17414	-88.69003	-55.32956	59.39791	10.57771	-73.2303	-16.2734	49.63387	71.60296	67.53461	1.62734	-109.84545	0
637	-31.73313	-88.69003	-57.77057	59.39791	13.01872	-73.2303	-13.83239	59.39791	81.367	79.73966	4.06835	-107.40444	0
638	-26.85111	-88.69003	-62.65259	56.9569	17.90074	-75.67131	-13.83239	66.72094	93.57205	89.5037	8.95037	-104.96343	0
639	-24.4101	-81.367	-57.77057	52.07488	15.45973	-70.78929	-11.39138	76.48498	103.33609	99.26774	13.83239	-100.08141	0
640	-19.52808	-76.48498	-57.77057	47.19286	17.90074	-68.34828	-11.39138	81.367	113.10013	106.59077	18.71441	-97.6404	0
641	-17.08707	-66.72094	-50.44754	39.86983	15.45973	-58.58424	-8.95037	88.69003	122.86417	111.47279	26.03744	-92.75838	0
642	-14.64606	-66.72094	-52.88855	39.86983	17.90074	-61.02525	-6.50936	96.01306	130.1872	113.9138	30.91946	-90.31737	0
643	-14.64606	-66.72094	-52.88855	39.86983	17.90074	-61.02525	-6.50936	100.89508	135.06922	116.35481	33.36047	-87.87636	0
644	-14.64606	-69.16195	-55.32956	39.86983	20.34175	-63.46626	-8.95037	103.33609	137.51023	121.23683	35.80148	-87.87636	0
645	-12.20505	-69.16195	-57.77057	39.86983	22.78276	-63.46626	-6.50936	108.21811	142.39225	131.00087	43.12451	-85.43535	0
646	-7.32303	-74.04397	-67.53461	39.86983	30.10579	-70.78929	-4.06835	115.54114	152.15629	143.20592	48.00653	-82.99434	0
647	-9.76404	-81.367	-72.41663	44.75185	30.10579	-78.11232	-4.06835	120.42316	159.47932	152.96996	52.88855	-80.55333	0
648	-9.76404	-86.24902	-77.29865	47.19286	32.5468	-82.99434	-4.06835	122.86417	166.80235	162.734	57.77057	-78.11232	0
649	-7.32303	-81.367	-74.85764	42.31084	32.5468	-78.11232	-4.06835	130.1872	174.12538	170.05703	62.65259	-75.67131	0
650	-7.32303	-76.48498	-69.97562	39.86983	30.10579	-73.2303	-1.62734	135.06922	186.33043	182.26208	72.41663	-68.34828	0
651	-4.88202	-74.04397	-69.97562	37.42882	32.5468	-73.2303	0.81367	144.83326	196.09447	187.1441	82.18067	-63.46626	0
652	-2.44101	-69.16195	-67.53461	34.98781	32.5468	-68.34828	0.81367	152.15629	203.4175	194.46713	89.5037	-58.58424	0
653	0.81367	-59.39791	-60.21158	27.66478	30.10579	-58.58424	-1.62734	159.47932	210.74053	201.79016	99.26774	-53.70222	0
654	8.1367	-49.63387	-57.77057	20.34175	32.5468	-53.70222	0.81367	166.80235	218.06356	211.5542	106.59077	-48.8202	0
655	13.01872	-47.19286	-60.21158	15.45973	34.98781	-53.70222	3.25468	171.68437	225.38659	226.20026	116.35481	-43.93818	0
656	17.90074	-49.63387	-67.53461	15.45973	42.31084	-58.58424	3.25468	179.0074	232.70962	240.84632	126.11885	-41.49717	0
657	17.90074	-52.07488	-69.97562	15.45973	42.31084	-61.02525	3.25468	188.77144	244.91467	255.49238	133.44188	-36.61515	0
658	15.45973	-54.51589	-69.97562	17.90074	42.31084	-61.02525	3.25468	193.65346	257.11972	265.25642	140.76491	-34.17414	0
659	15.45973	-56.9569	-72.41663	20.34175	42.31084	-63.46626	3.25468	200.97649	266.88376	275.02046	148.08794	-31.73313	0
660	15.45973	-61.83892	-77.29865	22.78276	44.75185	-68.34828	0.81367	205.85851	274.20679	282.34349	155.41097	-26.85111	0
661	15.45973	-66.72094	-82.18067	25.22377	47.19286	-73.2303	0.81367	215.62255	283.97083	287.22551	162.734	-21.96909	0
662	17.90074	-66.72094	-84.62168	22.78276	49.63387	-75.67131	3.25468	225.38659	296.17588	292.10753	172.49804	-14.64606	0
663	22.78276	-61.83892	-84.62168	17.90074	52.07488	-73.2303	3.25468	230.26861	301.0579	299.43056	179.82107	-9.76404	0
664	27.66478	-54.51589	-82.18067	13.01872	54.51589	-68.34828	3.25468	237.59164	308.38093	309.1946	187.1441	-2.44101	0
665	32.5468	-52.07488	-84.62168	8.1367	56.9569	-68.34828	3.25468	244.91467	315.70396	323.84066	196.90814	3.25468	0
666	34.98781	-49.63387	-84.62168	5.69569	59.39791	-65.90727	6.50936	254.67871	325.468	340.92773	206.67218	13.01872	0
667	34.98781	-49.63387	-84.62168	5.69569	59.39791	-65.90727	8.95037	262.00174	335.23204	355.57379	211.5542	17.90074	0
668	37.42882	-47.19286	-84.62168	3.25468	59.39791	-65.90727	6.50936	269.32477	347.43709	367.77884	218.87723	20.34175	0
669	37.42882	-49.63387	-87.06269	5.69569	61.83892	-68.34828	6.50936	279.08881	357.20113	377.54288	226.20026	25.22377	0
670	37.42882	-56.9569	-94.38572	8.1367	64.27993	-75.67131	6.50936	286.41184	366.96517	384.86591	233.52329	27.66478	0
671	37.42882	-59.39791	-96.82673	10.57771	66.72094	-78.11232	6.50936	293.73487	376.72921	389.74793	240.84632	30.10579	0
672	39.86983	-59.39791	-99.26774	8.1367	69.16195	-78.11232	6.50936	303.49891	384.05224	394.62995	248.16935	32.5468	0
673	42.31084	-59.39791	-101.70875	8.1367	71.60296	-80.55333	6.50936	313.26295	391.37527	399.51197	255.49238	34.98781	0
674	42.31084	-61.83892	-104.14976	8.1367	71.60296	-82.99434	11.39138	323.02699	398.6983	411.71702	267.69743	39.86983	0
675	44.75185	-61.83892	-106.59077	8.1367	74.04397	-82.99434	11.39138	327.90901	406.02133	423.92207	275.02046	42.31084	0
676	49.63387	-54.51589	-104.14976	0	76.48498	-78.11232	13.83239	340.11406	415.78537	438.56813	284.7845	47.19286	0
677	54.51589	-47.19286	-101.70875	-4.88202	76.48498	-73.2303	13.83239	349.8781	425.54941	453.21419	292.10753	52.07488	0
678	59.39791	-42.31084	-101.70875	-9.76404	78.92599	-70.78929	16.2734	359.64214	442.63648	467.86025	299.43056	59.39791	0
679	61.83892	-39.86983	-101.70875	-12.20505	81.367	-70.78929	16.2734	371.84719	454.84153	480.0653	309.1946	66.72094	0
680	64.27993	-39.86983	-104.14976	-12.20505	83.80801	-70.78929	16.2734	379.17022	464.60557	489.82934	316.51763	71.60296	0
681	69.16195	-37.42882	-106.59077	-17.08707	86.24902	-70.78929	18.71441	388.93426	476.81062	497.15237	326.28167	78.92599	0
682	71.60296	-37.42882	-109.03178	-17.08707	88.69003	-73.2303	18.71441	398.6983	486.57466	504.4754	336.04571	83.80801	0
683	76.48498	-39.86983	-116.35481	-19.52808	96.01306	-78.11232	18.71441	406.02133	493.89769	509.35742	343.36874	86.24902	0
684	81.367	-39.86983	-121.23683	-21.96909	100.89508	-80.55333	21.15542	413.34436	501.22072	516.68045	350.69177	91.13104	0
685	78.92599	-39.86983	-118.79582	-19.52808	98.45407	-78.11232	23.59643	423.1084	508.54375	531.32651	358.0148	96.01306	0
686	74.04397	-39.86983	-113.9138	-17.08707	93.57205	-75.67131	28.47845	437.75446	520.7488	548.41358	367.77884	103.33609	0
687	74.04397	-34.98781	-109.03178	-19.52808	91.13104	-70.78929	35.80148	449.95951	535.39486	567.94166	379.98389	110.65912	0
688	74.04397	-34.98781	-109.03178	-19.52808	91.13104	-70.78929	40.6835	464.60557	554.92294	585.02873	389.74793	120.42316	0
689	74.04397	-32.5468	-106.59077	-21.96909	88.69003	-68.34828	43.12451	479.25163	569.569	599.67479	401.95298	127.74619	0
690	74.04397	-30.10579	-104.14976	-21.96909	88.69003	-65.90727	45.56552	489.01567	581.77405	611.87984	409.27601	130.1872	0
691	81.367	-27.66478	-109.03178	-26.85111	93.57205	-68.34828	45.56552	501.22072	593.9791	619.20287	416.59904	132.62821	0
692	91.13104	-27.66478	-118.79582	-31.73313	103.33609	-73.2303	45.56552	510.98476	603.74314	624.08489	423.92207	132.62821	0
693	98.45407	-27.66478	-126.11885	-36.61515	110.65912	-75.67131	43.12451	515.86678	608.62516	626.5259	426.36308	130.1872	0
694	103.33609	-30.10579	-133.44188	-36.61515	117.98215	-80.55333	43.12451	523.18981	613.50718	631.40792	431.2451	127.74619	0
695	108.21811	-27.66478	-135.88289	-41.49717	120.42316	-80.55333	45.56552	532.95385	620.83021	643.61297	436.12712	127.74619	0
696	110.65912	-22.78276	-133.44188	-43.93818	120.42316	-78.11232	48.00653	550.04092	630.59425	658.25903	443.45015	127.74619	0
697	110.65912	-17.90074	-128.55986	-46.37919	117.98215	-73.2303	55.32956	572.01001	645.24031	675.3461	450.77318	130.1872	0
698	110.65912	-13.01872	-123.67784	-48.8202	115.54114	-68.34828	60.21158	591.53809	662.32738	689.99216	460.53722	135.06922	0
699	110.65912	-8.1367	-118.79582	-51.26121	113.10013	-63.46626	65.0936	615.94819	674.53243	704.63822	467.86025	139.95124	0
700	113.10013	-3.25468	-116.35481	-56.14323	113.10013	-58.58424	67.53461	635.47627	686.73748	714.40226	477.62429	142.39225	0
701	115.54114	-0.81367	-116.35481	-58.58424	115.54114	-58.58424	69.97562	657.44536	698.94253	719.28428	482.50631	144.83326	0
702	120.42316	2.44101	-118.79582	-61.02525	120.42316	-58.58424	69.97562	674.53243	708.70657	724.1663	487.38833	147.27427	0
703	127.74619	2.44101	-126.11885	-65.90727	127.74619	-61.02525	69.97562	689.17849	713.58859	729.04832	494.71136	149.71528	0
704	132.62821	-0.81367	-133.44188	-65.90727	132.62821	-65.90727	69.97562	701.38354	718.47061	736.37135	499.59338	152.15629	0
705	132.62821	-0.81367	-133.44188	-65.90727	132.62821	-65.90727	72.41663	711.14758	723.35263	748.5764	504.4754	157.03831	0
706	137.51023	2.44101	-135.88289	-70.78929	137.51023	-65.90727	74.85764	725.79364	733.11667	760.78145	511.79843	161.92033	0
707	137.51023	7.32303	-131.00087	-73.2303	135.06922	-61.02525	79.73966	742.88071	745.32172	777.86852	519.12146	169.24336	0
708	139.95124	7.32303	-133.44188	-73.2303	137.51023	-63.46626	79.73966	757.52677	759.96778	790.07357	526.44449	176.56639	0
709	139.95124	2.44101	-138.3239	-70.78929	139.95124	-68.34828	82.18067	769.73182	772.17283	799.83761	533.76752	183.88942	0
710	139.95124	2.44101	-138.3239	-70.78929	139.95124	-68.34828	79.73966	779.49586	781.93687	807.16064	538.64954	186.33043	0
711	147.27427	2.44101	-145.64693	-75.67131	147.27427	-70.78929	77.29865	786.81889	791.70091	807.16064	543.53156	188.77144	0
712	154.5973	2.44101	-152.96996	-78.11232	154.5973	-75.67131	77.29865	799.02394	801.46495	812.04266	550.85459	193.65346	0
713	164.36134	2.44101	-162.734	-82.99434	164.36134	-80.55333	72.41663	808.78798	806.34697	814.48367	555.73661	193.65346	0
714	171.68437	4.88202	-167.61602	-87.87636	169.24336	-80.55333	72.41663	816.11101	811.22899	819.36569	560.61863	196.09447	-1250	T-0
715	176.56639	7.32303	-170.05703	-92.75838	174.12538	-80.55333	72.41663	823.43404	816.11101	829.12973	565.50065	198.53548	0
716	176.56639	14.64606	-162.734	-95.19939	169.24336	-73.2303	74.85764	835.63909	823.43404	841.33478	570.38267	205.85851	0
717	179.0074	21.96909	-157.85198	-100.08141	169.24336	-68.34828	79.73966	850.28515	833.19808	853.53983	577.7057	213.18154	0
718	179.0074	26.85111	-152.96996	-102.52242	166.80235	-63.46626	79.73966	860.04919	845.40313	863.30387	582.58772	218.06356	0
719	179.0074	26.85111	-152.96996	-102.52242	166.80235	-63.46626	79.73966	867.37222	850.28515	868.18589	582.58772	220.50457	0
720	183.88942	26.85111	-157.85198	-104.96343	171.68437	-65.90727	79.73966	874.69525	857.60818	873.06791	587.46974	227.8276	0
721	191.21245	29.29212	-162.734	-109.84545	176.56639	-65.90727	82.18067	884.45929	864.93121	873.06791	592.35176	235.15063	0
722	205.85851	29.29212	-177.38006	-117.16848	191.21245	-73.2303	82.18067	891.78232	872.25424	873.06791	594.79277	240.03265	0
723	218.06356	34.17414	-184.70309	-126.93252	200.97649	-75.67131	82.18067	896.66434	872.25424	873.06791	597.23378	244.91467	0
724	225.38659	36.61515	-189.58511	-131.81454	208.29952	-75.67131	84.62168	906.42838	874.69525	877.94993	599.67479	249.79669	0
725	230.26861	46.37919	-184.70309	-139.13757	208.29952	-68.34828	89.5037	913.75141	879.57727	887.71397	606.99782	257.11972	0
726	227.8276	51.26121	-177.38006	-139.13757	203.4175	-63.46626	91.94471	923.51545	886.9003	895.037	611.87984	262.00174	0
727	222.94558	46.37919	-177.38006	-134.25555	200.97649	-65.90727	91.94471	928.39747	889.34131	902.36003	611.87984	266.88376	0
728	213.18154	39.05616	-174.93905	-126.93252	193.65346	-68.34828	89.5037	930.83848	894.22333	904.80104	614.32085	269.32477	0
729	203.4175	36.61515	-167.61602	-119.60949	186.33043	-65.90727	87.06269	935.7205	899.10535	907.24205	616.76186	276.6478	0
730	205.85851	34.17414	-172.49804	-119.60949	188.77144	-68.34828	84.62168	938.16151	901.54636	907.24205	619.20287	286.41184	0
731	210.74053	34.17414	-177.38006	-122.0505	193.65346	-70.78929	82.18067	938.16151	901.54636	902.36003	619.20287	291.29386	0
732	222.94558	36.61515	-187.1441	-129.37353	205.85851	-75.67131	77.29865	938.16151	901.54636	897.47801	619.20287	298.61689	0
733	237.59164	53.70222	-184.70309	-146.4606	210.74053	-65.90727	77.29865	938.16151	899.10535	890.15498	619.20287	303.49891	0
734	249.79669	75.67131	-174.93905	-163.54767	213.18154	-48.8202	79.73966	938.16151	894.22333	890.15498	619.20287	310.82194	0
735	257.11972	85.43535	-172.49804	-170.8707	215.62255	-43.93818	84.62168	938.16151	891.78232	892.59599	621.64388	318.14497	0
736	254.67871	92.75838	-162.734	-173.31171	208.29952	-34.17414	87.06269	940.60252	889.34131	892.59599	621.64388	325.468	0
737	247.35568	92.75838	-155.41097	-170.8707	200.97649	-31.73313	89.5037	938.16151	884.45929	892.59599	619.20287	330.35002	0
738	240.03265	95.19939	-145.64693	-168.42969	193.65346	-24.4101	91.94471	935.7205	884.45929	890.15498	619.20287	335.23204	0
739	230.26861	90.31737	-140.76491	-161.10666	186.33043	-24.4101	89.5037	930.83848	874.69525	882.83195	611.87984	340.11406	0
740	227.8276	85.43535	-143.20592	-156.22464	186.33043	-29.29212	87.06269	921.07444	864.93121	873.06791	604.55681	342.55507	0
741	230.26861	87.87636	-143.20592	-158.66565	186.33043	-26.85111	82.18067	911.3104	852.72616	855.98084	597.23378	342.55507	0
742	244.91467	97.6404	-148.08794	-170.8707	196.09447	-24.4101	74.85764	899.10535	840.52111	838.89377	589.91075	344.99608	0
743	252.2377	104.96343	-148.08794	-178.19373	200.97649	-21.96909	69.97562	889.34131	825.87505	821.8067	582.58772	347.43709	0
744	262.00174	117.16848	-145.64693	-190.39878	203.4175	-14.64606	65.0936	872.25424	808.78798	807.16064	570.38267	347.43709	0
745	269.32477	126.93252	-143.20592	-197.72181	205.85851	-7.32303	65.0936	857.60818	791.70091	797.3966	563.05964	349.8781	0
746	269.32477	134.25555	-135.88289	-202.60383	203.4175	0	62.65259	845.40313	779.49586	787.63256	555.73661	352.31911	0
747	264.44275	141.57858	-123.67784	-202.60383	193.65346	10.57771	57.77057	830.75707	764.8498	777.86852	545.97257	352.31911	0
748	257.11972	144.01959	-113.9138	-200.16282	186.33043	15.45973	57.77057	816.11101	752.64475	763.22246	536.20853	354.76012	0
749	249.79669	148.90161	-101.70875	-200.16282	176.56639	25.22377	52.88855	799.02394	735.55768	746.13539	521.56247	349.8781	0
750	247.35568	153.78363	-94.38572	-200.16282	171.68437	30.10579	52.88855	784.37788	718.47061	726.60731	509.35742	347.43709	0
751	244.91467	156.22464	-89.5037	-200.16282	166.80235	34.98781	50.44754	767.29081	701.38354	702.19721	494.71136	344.99608	0
752	244.91467	156.22464	-89.5037	-200.16282	166.80235	34.98781	48.00653	747.76273	681.85546	675.3461	482.50631	340.11406	0
753	242.47366	156.22464	-87.06269	-200.16282	164.36134	34.98781	48.00653	728.23465	659.88637	650.936	467.86025	337.67305	0
754	237.59164	156.22464	-82.18067	-197.72181	159.47932	37.42882	48.00653	703.82455	633.03526	628.96691	453.21419	335.23204	0
755	237.59164	161.10666	-77.29865	-200.16282	157.03831	42.31084	45.56552	679.41445	611.06617	611.87984	443.45015	335.23204	0
756	232.70962	163.54767	-69.97562	-197.72181	152.15629	47.19286	43.12451	652.56334	589.09708	594.79277	428.80409	332.79103	0
757	230.26861	168.42969	-62.65259	-200.16282	147.27427	54.51589	40.6835	625.71223	569.569	577.7057	414.15803	330.35002	0
758	230.26861	175.75272	-55.32956	-202.60383	142.39225	61.83892	35.80148	598.86112	547.59991	553.2956	397.07096	327.90901	0
759	232.70962	185.51676	-48.00653	-209.92686	139.95124	69.16195	28.47845	574.45102	523.18981	528.8855	377.54288	320.58598	0
760	237.59164	192.83979	-45.56552	-214.80888	142.39225	74.04397	26.03744	550.04092	498.77971	502.03439	360.45581	315.70396	0
761	237.59164	197.72181	-40.6835	-217.24989	139.95124	78.92599	21.15542	525.63082	474.36961	470.30126	340.92773	308.38093	0
762	240.03265	200.16282	-40.6835	-219.6909	139.95124	81.367	18.71441	503.66173	447.5185	438.56813	321.39965	303.49891	0
763	230.26861	197.72181	-33.36047	-214.80888	132.62821	83.80801	18.71441	479.25163	418.22638	406.835	301.87157	298.61689	0
764	215.62255	195.2808	-21.15542	-205.04484	117.98215	88.69003	18.71441	452.40052	388.93426	379.98389	284.7845	291.29386	0
765	200.97649	190.39878	-11.39138	-195.2808	105.7771	91.13104	18.71441	423.1084	362.08315	355.57379	267.69743	286.41184	0
766	186.33043	187.95777	0.81367	-187.95777	93.57205	96.01306	18.71441	391.37527	335.23204	333.6047	248.16935	279.08881	0
767	176.56639	187.95777	11.39138	-183.07575	83.80801	100.89508	18.71441	362.08315	308.38093	311.63561	228.64127	271.76578	0
768	169.24336	187.95777	18.71441	-178.19373	76.48498	103.33609	13.83239	335.23204	286.41184	284.7845	209.11319	264.44275	0
769	166.80235	187.95777	21.15542	-178.19373	74.04397	105.7771	8.95037	308.38093	259.56073	260.3744	187.1441	252.2377	0
770	171.68437	187.95777	16.2734	-180.63474	78.92599	103.33609	3.25468	281.52982	232.70962	231.08228	165.17501	242.47366	0
771	171.68437	185.51676	13.83239	-178.19373	78.92599	100.89508	0.81367	257.11972	208.29952	196.90814	143.20592	230.26861	0
772	166.80235	180.63474	13.83239	-173.31171	76.48498	98.45407	-1.62734	235.15063	183.88942	167.61602	121.23683	222.94558	0
773	159.47932	173.31171	13.83239	-165.98868	74.04397	93.57205	-6.50936	213.18154	159.47932	138.3239	101.70875	213.18154	0
774	144.83326	165.98868	21.15542	-156.22464	61.83892	93.57205	-6.50936	188.77144	130.1872	111.47279	82.18067	200.97649	0
775	127.74619	156.22464	28.47845	-141.57858	49.63387	93.57205	-6.50936	164.36134	105.7771	91.94471	62.65259	191.21245	0
776	113.10013	151.34262	38.24249	-131.81454	37.42882	96.01306	-6.50936	142.39225	83.80801	69.97562	43.12451	181.44841	0
777	100.89508	146.4606	45.56552	-124.49151	27.66478	96.01306	-6.50936	122.86417	64.27993	52.88855	23.59643	171.68437	0
778	96.01306	146.4606	50.44754	-122.0505	22.78276	98.45407	-6.50936	105.7771	47.19286	30.91946	6.50936	161.92033	0
779	91.13104	148.90161	57.77057	-119.60949	17.90074	103.33609	-6.50936	86.24902	27.66478	11.39138	-15.45973	149.71528	0
780	88.69003	146.4606	57.77057	-117.16848	15.45973	103.33609	-6.50936	69.16195	8.1367	-10.57771	-30.91946	139.95124	0
781	81.367	139.13757	57.77057	-109.84545	13.01872	98.45407	-8.95037	52.07488	-8.95037	-34.98781	-48.00653	127.74619	0
782	78.92599	131.81454	52.88855	-104.96343	13.01872	93.57205	-8.95037	39.86983	-28.47845	-59.39791	-65.0936	120.42316	0
783	76.48498	122.0505	45.56552	-100.08141	15.45973	83.80801	-8.95037	25.22377	-45.56552	-81.367	-82.18067	110.65912	0
784	71.60296	112.28646	40.6835	-92.75838	15.45973	76.48498	-8.95037	10.57771	-65.0936	-98.45407	-96.82673	100.89508	0
785	64.27993	100.08141	35.80148	-82.99434	15.45973	69.16195	-6.50936	-6.50936	-80.55333	-113.10013	-111.47279	91.13104	0
786	52.07488	87.87636	35.80148	-70.78929	8.1367	61.83892	-6.50936	-16.2734	-92.75838	-121.23683	-126.11885	83.80801	0
787	47.19286	82.99434	35.80148	-65.90727	5.69569	59.39791	-6.50936	-28.47845	-107.40444	-133.44188	-140.76491	71.60296	0
788	44.75185	78.11232	33.36047	-61.02525	5.69569	56.9569	-6.50936	-38.24249	-114.72747	-145.64693	-152.96996	64.27993	0
789	39.86983	75.67131	35.80148	-58.58424	3.25468	56.9569	-6.50936	-45.56552	-124.49151	-155.41097	-162.734	54.51589	0
790	34.98781	68.34828	33.36047	-51.26121	0.81367	52.07488	-6.50936	-56.14323	-134.25555	-170.05703	-174.93905	47.19286	0
791	30.10579	63.46626	33.36047	-46.37919	-2.44101	49.63387	-8.95037	-63.46626	-146.4606	-189.58511	-184.70309	37.42882	0
792	30.10579	61.02525	30.91946	-46.37919	0.81367	47.19286	-8.95037	-73.2303	-158.66565	-204.23117	-194.46713	30.10579	0
793	25.22377	56.14323	30.91946	-41.49717	-2.44101	44.75185	-11.39138	-80.55333	-168.42969	-218.87723	-201.79016	25.22377	0
794	25.22377	53.70222	28.47845	-39.05616	-2.44101	42.31084	-13.83239	-87.87636	-180.63474	-228.64127	-209.11319	20.34175	0
795	20.34175	48.8202	28.47845	-34.17414	-4.88202	39.86983	-16.2734	-100.08141	-192.83979	-235.9643	-218.87723	15.45973	0
796	13.01872	46.37919	33.36047	-29.29212	-9.76404	39.86983	-16.2734	-107.40444	-200.16282	-238.40531	-226.20026	13.01872	0
797	8.1367	41.49717	33.36047	-24.4101	-12.20505	37.42882	-16.2734	-112.28646	-205.04484	-240.84632	-231.08228	10.57771	0
798	5.69569	39.05616	33.36047	-21.96909	-14.64606	37.42882	-18.71441	-117.16848	-205.04484	-243.28733	-235.9643	8.1367	0
799	3.25468	39.05616	35.80148	-21.96909	-17.08707	37.42882	-21.15542	-122.0505	-209.92686	-248.16935	-240.84632	3.25468	0
800	3.25468	39.05616	35.80148	-21.96909	-17.08707	37.42882	-21.15542	-124.49151	-212.36787	-255.49238	-245.72834	0	0
801	3.25468	34.17414	30.91946	-19.52808	-14.64606	32.5468	-18.71441	-124.49151	-212.36787	-262.81541	-250.61036	-2.44101	0
802	0.81367	26.85111	26.03744	-14.64606	-12.20505	27.66478	-18.71441	-124.49151	-217.24989	-270.13844	-253.05137	-7.32303	0
803	-2.44101	21.96909	23.59643	-9.76404	-12.20505	22.78276	-16.2734	-126.93252	-219.6909	-277.46147	-257.93339	-12.20505	0
804	-2.44101	19.52808	21.15542	-9.76404	-12.20505	20.34175	-16.2734	-129.37353	-227.01393	-282.34349	-260.3744	-14.64606	0
805	-4.88202	19.52808	23.59643	-7.32303	-14.64606	20.34175	-13.83239	-134.25555	-231.89595	-282.34349	-262.81541	-17.08707	0
806	-4.88202	19.52808	23.59643	-7.32303	-14.64606	20.34175	-13.83239	-139.13757	-234.33696	-282.34349	-267.69743	-19.52808	0
807	-17.08707	14.64606	30.91946	0	-24.4101	22.78276	-11.39138	-139.13757	-234.33696	-277.46147	-267.69743	-19.52808	0
808	-21.96909	12.20505	33.36047	3.25468	-26.85111	22.78276	-11.39138	-139.13757	-229.45494	-275.02046	-267.69743	-19.52808	0
809	-21.96909	12.20505	33.36047	3.25468	-26.85111	22.78276	-13.83239	-141.57858	-229.45494	-275.02046	-267.69743	-21.96909	0
810	-24.4101	12.20505	35.80148	5.69569	-29.29212	22.78276	-13.83239	-141.57858	-231.89595	-275.02046	-270.13844	-21.96909	0
811	-26.85111	9.76404	35.80148	8.1367	-31.73313	22.78276	-13.83239	-139.13757	-231.89595	-277.46147	-270.13844	-21.96909	0
812	-34.17414	4.88202	38.24249	13.01872	-36.61515	20.34175	-8.95037	-139.13757	-231.89595	-279.90248	-267.69743	-19.52808	0
813	-36.61515	7.32303	43.12451	13.01872	-39.05616	25.22377	-8.95037	-136.69656	-234.33696	-287.22551	-267.69743	-19.52808	0
814	-34.17414	9.76404	43.12451	10.57771	-39.05616	25.22377	-8.95037	-139.13757	-244.101	-289.66652	-270.13844	-24.4101	0
815	-26.85111	14.64606	40.6835	5.69569	-34.17414	27.66478	-6.50936	-139.13757	-246.54201	-284.7845	-270.13844	-24.4101	0
816	-24.4101	19.52808	43.12451	0	-34.17414	30.10579	-4.06835	-139.13757	-246.54201	-279.90248	-270.13844	-24.4101	0
817	-24.4101	17.08707	40.6835	3.25468	-31.73313	27.66478	-6.50936	-141.57858	-246.54201	-275.02046	-270.13844	-26.85111	0
818	-29.29212	12.20505	40.6835	8.1367	-34.17414	25.22377	-8.95037	-144.01959	-241.65999	-275.02046	-270.13844	-31.73313	0
819	-31.73313	4.88202	35.80148	13.01872	-34.17414	20.34175	-8.95037	-144.01959	-241.65999	-272.57945	-267.69743	-31.73313	0
820	-34.17414	-0.81367	33.36047	15.45973	-34.17414	15.45973	-8.95037	-144.01959	-239.21898	-272.57945	-265.25642	-31.73313	0
821	-41.49717	-3.25468	38.24249	20.34175	-41.49717	17.90074	-8.95037	-144.01959	-239.21898	-275.02046	-262.81541	-31.73313	0
822	-43.93818	-5.69569	38.24249	22.78276	-41.49717	15.45973	-8.95037	-144.01959	-236.77797	-279.90248	-260.3744	-31.73313	0
823	-41.49717	-0.81367	40.6835	20.34175	-41.49717	20.34175	-6.50936	-141.57858	-236.77797	-282.34349	-260.3744	-31.73313	0
824	-36.61515	4.88202	40.6835	15.45973	-39.05616	22.78276	-4.06835	-139.13757	-239.21898	-279.90248	-257.93339	-31.73313	0
825	-29.29212	9.76404	38.24249	8.1367	-34.17414	22.78276	-1.62734	-139.13757	-241.65999	-277.46147	-257.93339	-29.29212	0
826	-21.96909	17.08707	38.24249	0	-29.29212	27.66478	-1.62734	-139.13757	-241.65999	-272.57945	-257.93339	-31.73313	0
827	-17.08707	19.52808	35.80148	-2.44101	-26.85111	27.66478	-4.06835	-139.13757	-239.21898	-267.69743	-260.3744	-34.17414	0
828	-12.20505	19.52808	30.91946	-4.88202	-21.96909	25.22377	-4.06835	-139.13757	-231.89595	-265.25642	-260.3744	-34.17414	0
829	-14.64606	17.08707	30.91946	-2.44101	-21.96909	22.78276	-4.06835	-139.13757	-231.89595	-262.81541	-260.3744	-34.17414	0
830	-19.52808	12.20505	30.91946	3.25468	-24.4101	20.34175	-4.06835	-141.57858	-229.45494	-262.81541	-257.93339	-34.17414	0
831	-24.4101	7.32303	30.91946	8.1367	-26.85111	17.90074	-4.06835	-141.57858	-229.45494	-267.69743	-257.93339	-34.17414	0
832	-34.17414	4.88202	38.24249	13.01872	-36.61515	20.34175	0.81367	-141.57858	-227.01393	-270.13844	-255.49238	-34.17414	0
833	-41.49717	-0.81367	40.6835	20.34175	-41.49717	20.34175	0.81367	-136.69656	-227.01393	-272.57945	-253.05137	-31.73313	0
834	-43.93818	-0.81367	43.12451	20.34175	-43.93818	20.34175	3.25468	-134.25555	-229.45494	-272.57945	-253.05137	-29.29212	0
835	-41.49717	-0.81367	40.6835	20.34175	-41.49717	20.34175	3.25468	-134.25555	-234.33696	-272.57945	-255.49238	-29.29212	0
836	-39.05616	-0.81367	38.24249	17.90074	-39.05616	17.90074	3.25468	-134.25555	-234.33696	-270.13844	-257.93339	-29.29212	0
837	-39.05616	2.44101	40.6835	17.90074	-39.05616	20.34175	3.25468	-131.81454	-234.33696	-265.25642	-260.3744	-29.29212	0
838	-39.05616	7.32303	45.56552	15.45973	-41.49717	25.22377	3.25468	-131.81454	-227.01393	-265.25642	-260.3744	-29.29212	0
839	-39.05616	7.32303	45.56552	15.45973	-41.49717	25.22377	6.50936	-129.37353	-227.01393	-262.81541	-260.3744	-26.85111	0
840	-36.61515	9.76404	45.56552	13.01872	-41.49717	27.66478	6.50936	-131.81454	-227.01393	-262.81541	-262.81541	-26.85111	0
841	-36.61515	12.20505	48.00653	10.57771	-41.49717	30.10579	6.50936	-134.25555	-229.45494	-272.57945	-267.69743	-29.29212	0
842	-39.05616	12.20505	50.44754	13.01872	-43.93818	30.10579	6.50936	-136.69656	-227.01393	-277.46147	-267.69743	-29.29212	0
843	-48.8202	7.32303	55.32956	20.34175	-51.26121	30.10579	11.39138	-131.81454	-224.57292	-277.46147	-267.69743	-26.85111	0
844	-48.8202	2.44101	50.44754	22.78276	-48.8202	25.22377	13.83239	-126.93252	-227.01393	-277.46147	-265.25642	-24.4101	0
845	-43.93818	-0.81367	43.12451	20.34175	-43.93818	20.34175	13.83239	-126.93252	-229.45494	-275.02046	-265.25642	-24.4101	0
846	-41.49717	-0.81367	40.6835	20.34175	-41.49717	20.34175	13.83239	-124.49151	-227.01393	-270.13844	-262.81541	-21.96909	0
847	-43.93818	2.44101	45.56552	20.34175	-43.93818	22.78276	18.71441	-119.60949	-219.6909	-257.93339	-257.93339	-17.08707	0
848	-43.93818	-0.81367	43.12451	20.34175	-43.93818	20.34175	18.71441	-114.72747	-212.36787	-253.05137	-250.61036	-12.20505	0
849	-43.93818	2.44101	45.56552	20.34175	-43.93818	22.78276	18.71441	-114.72747	-212.36787	-250.61036	-248.16935	-9.76404	0
850	-41.49717	4.88202	45.56552	17.90074	-43.93818	25.22377	16.2734	-117.16848	-217.24989	-253.05137	-248.16935	-9.76404	0
851	-41.49717	7.32303	48.00653	15.45973	-43.93818	27.66478	13.83239	-122.0505	-219.6909	-260.3744	-250.61036	-7.32303	0
852	-43.93818	4.88202	48.00653	17.90074	-46.37919	25.22377	13.83239	-124.49151	-219.6909	-265.25642	-250.61036	-7.32303	0
853	-41.49717	4.88202	45.56552	17.90074	-43.93818	25.22377	11.39138	-124.49151	-222.13191	-275.02046	-255.49238	-7.32303	0
854	-39.05616	7.32303	45.56552	15.45973	-41.49717	25.22377	8.95037	-124.49151	-229.45494	-279.90248	-260.3744	-7.32303	0
855	-36.61515	12.20505	48.00653	10.57771	-41.49717	30.10579	6.50936	-124.49151	-231.89595	-279.90248	-262.81541	-9.76404	0
856	-36.61515	12.20505	48.00653	10.57771	-41.49717	30.10579	8.95037	-119.60949	-227.01393	-277.46147	-262.81541	-9.76404	0
857	-29.29212	14.64606	43.12451	5.69569	-36.61515	27.66478	8.95037	-119.60949	-222.13191	-272.57945	-262.81541	-12.20505	0
858	-24.4101	17.08707	40.6835	3.25468	-31.73313	27.66478	6.50936	-117.16848	-217.24989	-272.57945	-262.81541	-14.64606	0
859	-21.96909	19.52808	40.6835	0	-31.73313	30.10579	6.50936	-117.16848	-219.6909	-267.69743	-262.81541	-14.64606	0
860	-24.4101	17.08707	40.6835	3.25468	-31.73313	27.66478	6.50936	-117.16848	-219.6909	-267.69743	-262.81541	-17.08707	0
861	-26.85111	14.64606	40.6835	5.69569	-34.17414	27.66478	6.50936	-119.60949	-222.13191	-272.57945	-262.81541	-19.52808	0
862	-29.29212	12.20505	40.6835	8.1367	-34.17414	25.22377	6.50936	-124.49151	-222.13191	-277.46147	-265.25642	-21.96909	0
863	-31.73313	12.20505	43.12451	8.1367	-36.61515	27.66478	3.25468	-124.49151	-227.01393	-282.34349	-265.25642	-24.4101	0
864	-36.61515	9.76404	45.56552	13.01872	-41.49717	27.66478	3.25468	-124.49151	-229.45494	-284.7845	-267.69743	-24.4101	0
865	-41.49717	4.88202	45.56552	17.90074	-43.93818	25.22377	3.25468	-122.0505	-231.89595	-287.22551	-267.69743	-24.4101	0
866	-41.49717	7.32303	48.00653	15.45973	-43.93818	27.66478	3.25468	-122.0505	-231.89595	-289.66652	-270.13844	-24.4101	0
867	-36.61515	12.20505	48.00653	10.57771	-41.49717	30.10579	0.81367	-124.49151	-231.89595	-292.10753	-272.57945	-26.85111	0
868	-26.85111	17.08707	43.12451	3.25468	-34.17414	30.10579	0.81367	-124.49151	-229.45494	-292.10753	-275.02046	-26.85111	0
869	-21.96909	19.52808	40.6835	0	-31.73313	30.10579	0.81367	-124.49151	-229.45494	-289.66652	-272.57945	-24.4101	0
870	-19.52808	24.4101	43.12451	-2.44101	-31.73313	32.5468	0.81367	-124.49151	-231.89595	-289.66652	-272.57945	-24.4101	0
871	-19.52808	26.85111	45.56552	-4.88202	-31.73313	34.98781	0.81367	-126.93252	-236.77797	-292.10753	-275.02046	-24.4101	0
872	-19.52808	29.29212	48.00653	-4.88202	-34.17414	37.42882	-1.62734	-131.81454	-236.77797	-294.54854	-275.02046	-24.4101	0
873	-24.4101	26.85111	50.44754	-2.44101	-36.61515	37.42882	-1.62734	-129.37353	-239.21898	-296.98955	-275.02046	-24.4101	0
874	-29.29212	21.96909	50.44754	3.25468	-39.05616	34.98781	-1.62734	-129.37353	-244.101	-299.43056	-275.02046	-24.4101	0
875	-34.17414	19.52808	52.88855	5.69569	-43.93818	34.98781	-1.62734	-126.93252	-246.54201	-301.87157	-277.46147	-24.4101	0
876	-36.61515	17.08707	52.88855	8.1367	-43.93818	34.98781	-4.06835	-129.37353	-248.98302	-304.31258	-279.90248	-26.85111	0
877	-34.17414	17.08707	50.44754	8.1367	-41.49717	32.5468	-4.06835	-129.37353	-248.98302	-304.31258	-282.34349	-26.85111	0
878	-29.29212	19.52808	48.00653	3.25468	-39.05616	32.5468	-4.06835	-134.25555	-248.98302	-309.1946	-284.7845	-26.85111	0
879	-26.85111	24.4101	50.44754	0	-39.05616	37.42882	-4.06835	-134.25555	-253.86504	-309.1946	-284.7845	-26.85111	0
880	-29.29212	29.29212	57.77057	0	-43.93818	42.31084	-1.62734	-136.69656	-256.30605	-306.75359	-284.7845	-24.4101	0
881	-29.29212	31.73313	60.21158	-2.44101	-43.93818	44.75185	-1.62734	-141.57858	-256.30605	-311.63561	-284.7845	-24.4101	0
882	-34.17414	31.73313	65.0936	0	-48.8202	47.19286	0.81367	-144.01959	-258.74706	-314.07662	-287.22551	-24.4101	0
883	-41.49717	31.73313	72.41663	3.25468	-56.14323	52.07488	0.81367	-144.01959	-261.18807	-318.95864	-289.66652	-24.4101	0
884	-53.70222	26.85111	79.73966	13.01872	-65.90727	52.07488	0.81367	-144.01959	-263.62908	-321.39965	-292.10753	-24.4101	0
885	-61.02525	26.85111	87.06269	15.45973	-73.2303	56.9569	-1.62734	-141.57858	-263.62908	-323.84066	-294.54854	-26.85111	0
886	-63.46626	24.4101	87.06269	17.90074	-75.67131	54.51589	-4.06835	-141.57858	-266.07009	-326.28167	-299.43056	-29.29212	0
887	-58.58424	24.4101	82.18067	15.45973	-70.78929	52.07488	-4.06835	-144.01959	-266.07009	-326.28167	-301.87157	-34.17414	0
888	-51.26121	29.29212	79.73966	10.57771	-65.90727	54.51589	-6.50936	-146.4606	-266.07009	-326.28167	-304.31258	-36.61515	0
889	-46.37919	31.73313	77.29865	5.69569	-61.02525	54.51589	-4.06835	-146.4606	-268.5111	-323.84066	-304.31258	-36.61515	0
890	-43.93818	34.17414	77.29865	3.25468	-61.02525	54.51589	0.81367	-151.34262	-270.95211	-323.84066	-304.31258	-36.61515	0
891	-43.93818	39.05616	82.18067	0	-63.46626	59.39791	3.25468	-153.78363	-273.39312	-321.39965	-301.87157	-36.61515	0
892	-46.37919	34.17414	79.73966	5.69569	-63.46626	56.9569	3.25468	-156.22464	-273.39312	-321.39965	-301.87157	-36.61515	0
893	-53.70222	29.29212	82.18067	10.57771	-68.34828	54.51589	6.50936	-156.22464	-275.83413	-323.84066	-301.87157	-36.61515	0
894	-63.46626	24.4101	87.06269	17.90074	-75.67131	54.51589	8.95037	-156.22464	-278.27514	-323.84066	-301.87157	-36.61515	0
895	-75.67131	19.52808	94.38572	27.66478	-85.43535	56.9569	8.95037	-156.22464	-280.71615	-323.84066	-301.87157	-36.61515	0
896	-78.11232	17.08707	94.38572	30.10579	-85.43535	54.51589	3.25468	-156.22464	-283.15716	-326.28167	-306.75359	-39.05616	0
897	-73.2303	17.08707	89.5037	27.66478	-80.55333	52.07488	3.25468	-158.66565	-280.71615	-326.28167	-311.63561	-41.49717	0
898	-65.90727	19.52808	84.62168	22.78276	-75.67131	52.07488	0.81367	-161.10666	-275.83413	-328.72268	-314.07662	-43.93818	0
899	-61.02525	24.4101	84.62168	17.90074	-73.2303	54.51589	3.25468	-161.10666	-275.83413	-321.39965	-314.07662	-41.49717	0
900	-58.58424	24.4101	82.18067	15.45973	-70.78929	52.07488	3.25468	-163.54767	-275.83413	-321.39965	-314.07662	-41.49717	0
901	-56.14323	24.4101	79.73966	15.45973	-68.34828	52.07488	6.50936	-165.98868	-275.83413	-318.95864	-314.07662	-41.49717	0
902	-58.58424	21.96909	79.73966	17.90074	-68.34828	49.63387	8.95037	-168.42969	-270.95211	-316.51763	-311.63561	-36.61515	0
903	-61.02525	19.52808	79.73966	20.34175	-70.78929	49.63387	11.39138	-168.42969	-270.95211	-316.51763	-311.63561	-31.73313	0
904	-65.90727	17.08707	82.18067	22.78276	-73.2303	49.63387	13.83239	-168.42969	-273.39312	-316.51763	-309.1946	-31.73313	0
905	-70.78929	12.20505	82.18067	27.66478	-75.67131	47.19286	13.83239	-165.98868	-275.83413	-318.95864	-309.1946	-31.73313	0
906	-73.2303	12.20505	84.62168	30.10579	-78.11232	47.19286	11.39138	-165.98868	-275.83413	-321.39965	-309.1946	-34.17414	0
907	-68.34828	17.08707	84.62168	25.22377	-75.67131	49.63387	11.39138	-163.54767	-273.39312	-321.39965	-309.1946	-34.17414	0
908	-61.02525	21.96909	82.18067	17.90074	-70.78929	52.07488	8.95037	-165.98868	-268.5111	-318.95864	-309.1946	-34.17414	0
909	-56.14323	26.85111	82.18067	13.01872	-68.34828	54.51589	8.95037	-165.98868	-268.5111	-316.51763	-309.1946	-36.61515	0
910	-56.14323	29.29212	84.62168	13.01872	-70.78929	56.9569	8.95037	-165.98868	-268.5111	-314.07662	-306.75359	-36.61515	0
911	-58.58424	26.85111	84.62168	15.45973	-70.78929	54.51589	8.95037	-168.42969	-268.5111	-314.07662	-306.75359	-36.61515	0
912	-61.02525	26.85111	87.06269	15.45973	-73.2303	56.9569	8.95037	-168.42969	-266.07009	-314.07662	-306.75359	-39.05616	0
913	-65.90727	21.96909	87.06269	20.34175	-75.67131	54.51589	8.95037	-168.42969	-266.07009	-314.07662	-306.75359	-41.49717	0
914	-73.2303	14.64606	87.06269	27.66478	-80.55333	49.63387	8.95037	-165.98868	-270.95211	-311.63561	-304.31258	-41.49717	0
915	-75.67131	7.32303	82.18067	32.5468	-78.11232	44.75185	6.50936	-163.54767	-270.95211	-311.63561	-304.31258	-43.93818	0
916	-73.2303	2.44101	74.85764	34.98781	-73.2303	37.42882	3.25468	-161.10666	-270.95211	-311.63561	-304.31258	-48.8202	0
917	-68.34828	4.88202	72.41663	30.10579	-70.78929	37.42882	3.25468	-161.10666	-268.5111	-311.63561	-301.87157	-51.26121	0
918	-63.46626	4.88202	67.53461	27.66478	-65.90727	34.98781	3.25468	-163.54767	-266.07009	-309.1946	-301.87157	-51.26121	0
919	-58.58424	7.32303	65.0936	25.22377	-61.02525	34.98781	3.25468	-163.54767	-266.07009	-306.75359	-299.43056	-53.70222	0
920	-53.70222	12.20505	65.0936	20.34175	-58.58424	37.42882	6.50936	-163.54767	-266.07009	-301.87157	-296.98955	-53.70222	0
921	-53.70222	14.64606	67.53461	17.90074	-61.02525	39.86983	8.95037	-163.54767	-266.07009	-301.87157	-296.98955	-53.70222	0
922	-61.02525	19.52808	79.73966	20.34175	-70.78929	49.63387	8.95037	-163.54767	-263.62908	-301.87157	-294.54854	-53.70222	0
923	-68.34828	14.64606	82.18067	25.22377	-75.67131	47.19286	8.95037	-163.54767	-263.62908	-301.87157	-296.98955	-56.14323	0
924	-78.11232	9.76404	87.06269	32.5468	-82.99434	47.19286	8.95037	-163.54767	-268.5111	-304.31258	-296.98955	-58.58424	0
925	-80.55333	-0.81367	79.73966	39.86983	-80.55333	39.86983	8.95037	-161.10666	-268.5111	-301.87157	-294.54854	-58.58424	0
926	-82.99434	-5.69569	77.29865	42.31084	-80.55333	34.98781	6.50936	-158.66565	-266.07009	-301.87157	-292.10753	-58.58424	0
927	-82.99434	-8.1367	74.85764	44.75185	-80.55333	32.5468	6.50936	-158.66565	-261.18807	-301.87157	-289.66652	-61.02525	0
928	-78.11232	-10.57771	67.53461	42.31084	-73.2303	27.66478	6.50936	-161.10666	-256.30605	-299.43056	-289.66652	-63.46626	0
929	-73.2303	-13.01872	60.21158	42.31084	-68.34828	22.78276	6.50936	-161.10666	-253.86504	-292.10753	-284.7845	-61.02525	0
930	-68.34828	-8.1367	60.21158	37.42882	-65.90727	25.22377	6.50936	-161.10666	-253.86504	-287.22551	-279.90248	-58.58424	0
931	-68.34828	-5.69569	62.65259	34.98781	-65.90727	27.66478	6.50936	-161.10666	-253.86504	-287.22551	-277.46147	-58.58424	0
932	-70.78929	-0.81367	69.97562	34.98781	-70.78929	34.98781	3.25468	-165.98868	-253.86504	-287.22551	-279.90248	-58.58424	0
933	-75.67131	-0.81367	74.85764	37.42882	-75.67131	37.42882	3.25468	-163.54767	-253.86504	-289.66652	-279.90248	-61.02525	0
934	-75.67131	-3.25468	72.41663	37.42882	-75.67131	34.98781	3.25468	-161.10666	-258.74706	-289.66652	-279.90248	-63.46626	0
935	-80.55333	-5.69569	74.85764	42.31084	-78.11232	34.98781	0.81367	-161.10666	-258.74706	-292.10753	-279.90248	-68.34828	0
936	-80.55333	-5.69569	74.85764	42.31084	-78.11232	34.98781	-1.62734	-158.66565	-258.74706	-292.10753	-282.34349	-70.78929	0
937	-78.11232	-8.1367	69.97562	42.31084	-75.67131	30.10579	-1.62734	-158.66565	-253.86504	-292.10753	-284.7845	-73.2303	0
938	-70.78929	-5.69569	65.0936	37.42882	-68.34828	30.10579	-1.62734	-161.10666	-248.98302	-292.10753	-284.7845	-75.67131	0
939	-65.90727	-3.25468	62.65259	32.5468	-65.90727	30.10579	-1.62734	-158.66565	-248.98302	-287.22551	-284.7845	-75.67131	0
940	-65.90727	-0.81367	65.0936	32.5468	-65.90727	32.5468	-1.62734	-161.10666	-248.98302	-287.22551	-282.34349	-75.67131	0
941	-70.78929	-0.81367	69.97562	34.98781	-70.78929	34.98781	-1.62734	-163.54767	-248.98302	-284.7845	-282.34349	-75.67131	0
942	-73.2303	-0.81367	72.41663	34.98781	-73.2303	34.98781	-1.62734	-163.54767	-246.54201	-284.7845	-282.34349	-78.11232	0
943	-73.2303	-3.25468	69.97562	37.42882	-73.2303	32.5468	-1.62734	-163.54767	-246.54201	-284.7845	-282.34349	-80.55333	0
944	-75.67131	-8.1367	67.53461	39.86983	-73.2303	30.10579	-4.06835	-158.66565	-248.98302	-284.7845	-279.90248	-82.99434	0
945	-75.67131	-8.1367	67.53461	39.86983	-73.2303	30.10579	-6.50936	-156.22464	-248.98302	-284.7845	-277.46147	-85.43535	0
946	-75.67131	-15.45973	60.21158	44.75185	-68.34828	22.78276	-6.50936	-153.78363	-246.54201	-287.22551	-275.02046	-85.43535	0
947	-75.67131	-17.90074	57.77057	44.75185	-68.34828	20.34175	-6.50936	-153.78363	-241.65999	-287.22551	-275.02046	-87.87636	0
948	-70.78929	-15.45973	55.32956	42.31084	-63.46626	20.34175	-8.95037	-153.78363	-236.77797	-287.22551	-272.57945	-87.87636	0
949	-70.78929	-15.45973	55.32956	42.31084	-63.46626	20.34175	-8.95037	-151.34262	-239.21898	-284.7845	-270.13844	-87.87636	0
950	-73.2303	-15.45973	57.77057	42.31084	-65.90727	20.34175	-8.95037	-151.34262	-241.65999	-284.7845	-270.13844	-87.87636	0
951	-78.11232	-20.34175	57.77057	47.19286	-68.34828	17.90074	-6.50936	-151.34262	-241.65999	-282.34349	-267.69743	-87.87636	0
952	-78.11232	-25.22377	52.88855	49.63387	-65.90727	13.01872	-4.06835	-153.78363	-239.21898	-282.34349	-265.25642	-85.43535	0
953	-75.67131	-25.22377	50.44754	49.63387	-63.46626	13.01872	-6.50936	-156.22464	-244.101	-282.34349	-267.69743	-85.43535	0
954	-73.2303	-27.66478	45.56552	49.63387	-61.02525	8.1367	-6.50936	-156.22464	-246.54201	-284.7845	-267.69743	-85.43535	0
955	-70.78929	-25.22377	45.56552	47.19286	-58.58424	10.57771	-6.50936	-156.22464	-248.98302	-287.22551	-265.25642	-85.43535	0
956	-68.34828	-25.22377	43.12451	44.75185	-56.14323	8.1367	-6.50936	-156.22464	-244.101	-287.22551	-262.81541	-85.43535	0
957	-70.78929	-17.90074	52.88855	42.31084	-63.46626	17.90074	-8.95037	-161.10666	-241.65999	-287.22551	-260.3744	-85.43535	0
958	-70.78929	-10.57771	60.21158	39.86983	-65.90727	25.22377	-8.95037	-161.10666	-239.21898	-287.22551	-260.3744	-82.99434	0
959	-73.2303	-13.01872	60.21158	42.31084	-68.34828	22.78276	-6.50936	-161.10666	-239.21898	-282.34349	-257.93339	-80.55333	0
960	-75.67131	-13.01872	62.65259	42.31084	-70.78929	25.22377	-6.50936	-163.54767	-241.65999	-279.90248	-255.49238	-78.11232	0
961	-75.67131	-8.1367	67.53461	39.86983	-73.2303	30.10579	-1.62734	-163.54767	-241.65999	-275.02046	-250.61036	-73.2303	0
962	-75.67131	-3.25468	72.41663	37.42882	-75.67131	34.98781	3.25468	-163.54767	-239.21898	-272.57945	-248.16935	-68.34828	0
963	-75.67131	-0.81367	74.85764	37.42882	-75.67131	37.42882	6.50936	-161.10666	-239.21898	-270.13844	-248.16935	-61.02525	0
964	-65.90727	2.44101	67.53461	30.10579	-65.90727	34.98781	11.39138	-153.78363	-239.21898	-270.13844	-240.84632	-56.14323	0
965	-61.02525	14.64606	74.85764	22.78276	-68.34828	44.75185	16.2734	-148.90161	-236.77797	-267.69743	-233.52329	-51.26121	0
966	-61.02525	26.85111	87.06269	15.45973	-73.2303	56.9569	21.15542	-144.01959	-227.01393	-265.25642	-228.64127	-46.37919	0
967	-56.14323	31.73313	87.06269	10.57771	-70.78929	59.39791	26.03744	-144.01959	-219.6909	-265.25642	-226.20026	-43.93818	0
