samplenr	I	II	III	aVR	aVL	aVF	V1	V2	V3	V4	V5	V6	measurement
0	49.63387	87.06269	37.42882	-67.53461	6.50936	63.46626	-21.96909	-48.8202	-32.5468	-12.20505	8.95037	17.08707	0
1	49.63387	87.06269	37.42882	-67.53461	6.50936	63.46626	-21.96909	-48.8202	-32.5468	-12.20505	8.95037	17.08707	0
2	56.9569	99.26774	42.31084	-77.29865	8.95037	70.78929	-21.96909	-46.37919	-30.10579	-7.32303	13.83239	19.52808	0
3	59.39791	104.14976	44.75185	-82.18067	8.95037	75.67131	-21.96909	-46.37919	-30.10579	-4.88202	16.2734	24.4101	0
4	61.83892	109.03178	47.19286	-84.62168	8.95037	78.11232	-21.96909	-48.8202	-30.10579	-2.44101	21.15542	26.85111	0
5	64.27993	113.9138	49.63387	-89.5037	8.95037	82.99434	-19.52808	-46.37919	-25.22377	0.81367	23.59643	26.85111	0
6	64.27993	121.23683	56.9569	-91.94471	4.06835	90.31737	-17.08707	-41.49717	-20.34175	5.69569	28.47845	29.29212	0
7	66.72094	128.55986	61.83892	-96.82673	4.06835	95.19939	-12.20505	-39.05616	-17.90074	8.1367	30.91946	34.17414	0
8	71.60296	138.3239	66.72094	-104.14976	4.06835	102.52242	-4.88202	-36.61515	-13.01872	10.57771	35.80148	41.49717	0
9	71.60296	145.64693	74.04397	-109.03178	-0.81367	109.84545	-2.44101	-36.61515	-8.1367	15.45973	40.6835	46.37919	0
10	64.27993	143.20592	78.92599	-104.14976	-5.69569	112.28646	-2.44101	-36.61515	-8.1367	20.34175	43.12451	51.26121	0
11	56.9569	143.20592	86.24902	-99.26774	-13.01872	114.72747	-2.44101	-36.61515	-5.69569	22.78276	45.56552	56.14323	0
12	59.39791	145.64693	86.24902	-101.70875	-13.01872	117.16848	-4.88202	-34.17414	-3.25468	25.22377	50.44754	58.58424	0
13	66.72094	148.08794	81.367	-106.59077	-5.69569	114.72747	-9.76404	-34.17414	-3.25468	27.66478	52.88855	63.46626	0
14	71.60296	148.08794	76.48498	-109.03178	-0.81367	112.28646	-14.64606	-36.61515	-5.69569	27.66478	55.32956	65.90727	0
15	74.04397	145.64693	71.60296	-109.03178	1.62734	109.84545	-24.4101	-39.05616	-5.69569	27.66478	55.32956	63.46626	0
16	74.04397	138.3239	64.27993	-106.59077	6.50936	102.52242	-36.61515	-41.49717	-8.1367	27.66478	52.88855	58.58424	0
17	78.92599	133.44188	54.51589	-106.59077	13.83239	95.19939	-48.8202	-43.93818	-10.57771	25.22377	50.44754	56.14323	0
18	78.92599	126.11885	47.19286	-101.70875	16.2734	87.87636	-63.46626	-51.26121	-13.01872	20.34175	48.00653	51.26121	0
19	86.24902	128.55986	42.31084	-106.59077	23.59643	85.43535	-73.2303	-53.70222	-13.01872	20.34175	48.00653	51.26121	0
20	98.45407	128.55986	29.29212	-113.9138	35.80148	80.55333	-82.99434	-56.14323	-17.90074	20.34175	45.56552	48.8202	0
21	103.33609	126.11885	21.96909	-113.9138	40.6835	75.67131	-95.19939	-61.02525	-22.78276	15.45973	40.6835	48.8202	0
22	103.33609	121.23683	17.08707	-111.47279	43.12451	70.78929	-102.52242	-65.90727	-27.66478	13.01872	38.24249	43.93818	0
23	103.33609	113.9138	9.76404	-109.03178	48.00653	63.46626	-109.84545	-68.34828	-32.5468	10.57771	35.80148	43.93818	0
24	103.33609	111.47279	7.32303	-106.59077	48.00653	61.02525	-112.28646	-70.78929	-34.98781	10.57771	35.80148	41.49717	0
25	105.7771	106.59077	0	-106.59077	52.88855	53.70222	-114.72747	-73.2303	-37.42882	8.1367	33.36047	39.05616	0
26	110.65912	104.14976	-7.32303	-106.59077	60.21158	48.8202	-117.16848	-73.2303	-39.86983	3.25468	28.47845	39.05616	0
27	115.54114	99.26774	-17.08707	-106.59077	67.53461	41.49717	-117.16848	-78.11232	-44.75185	-2.44101	26.03744	36.61515	0
28	115.54114	89.5037	-26.85111	-101.70875	72.41663	31.73313	-117.16848	-80.55333	-47.19286	-4.88202	23.59643	34.17414	0
29	115.54114	82.18067	-34.17414	-99.26774	74.85764	24.4101	-117.16848	-80.55333	-47.19286	-7.32303	21.15542	31.73313	0
30	113.10013	77.29865	-36.61515	-94.38572	74.85764	21.96909	-114.72747	-80.55333	-47.19286	-9.76404	21.15542	31.73313	0
31	110.65912	69.97562	-41.49717	-89.5037	77.29865	14.64606	-112.28646	-80.55333	-49.63387	-12.20505	18.71441	34.17414	0
32	110.65912	67.53461	-43.93818	-89.5037	77.29865	12.20505	-112.28646	-80.55333	-52.07488	-12.20505	16.2734	34.17414	0
33	113.10013	67.53461	-46.37919	-89.5037	79.73966	12.20505	-112.28646	-82.99434	-54.51589	-12.20505	16.2734	36.61515	0
34	103.33609	62.65259	-41.49717	-82.18067	72.41663	12.20505	-107.40444	-82.99434	-54.51589	-12.20505	18.71441	36.61515	0
35	93.57205	57.77057	-36.61515	-74.85764	65.0936	12.20505	-104.96343	-82.99434	-52.07488	-12.20505	21.15542	36.61515	0
36	86.24902	52.88855	-34.17414	-69.97562	60.21158	9.76404	-104.96343	-80.55333	-49.63387	-12.20505	21.15542	36.61515	0
37	76.48498	52.88855	-24.4101	-65.0936	50.44754	14.64606	-100.08141	-80.55333	-49.63387	-12.20505	21.15542	36.61515	0
38	69.16195	50.44754	-19.52808	-60.21158	45.56552	17.08707	-97.6404	-82.99434	-52.07488	-14.64606	18.71441	36.61515	0
39	69.16195	50.44754	-19.52808	-60.21158	45.56552	17.08707	-97.6404	-87.87636	-56.9569	-17.08707	13.83239	34.17414	0
40	59.39791	48.00653	-12.20505	-52.88855	35.80148	19.52808	-95.19939	-92.75838	-61.83892	-21.96909	11.39138	29.29212	0
41	49.63387	38.24249	-12.20505	-43.12451	30.91946	14.64606	-92.75838	-97.6404	-66.72094	-26.85111	6.50936	26.85111	0
42	39.86983	33.36047	-7.32303	-35.80148	23.59643	14.64606	-92.75838	-102.52242	-74.04397	-31.73313	1.62734	21.96909	0
43	34.98781	26.03744	-9.76404	-30.91946	23.59643	9.76404	-87.87636	-109.84545	-81.367	-39.05616	-4.06835	14.64606	0
44	32.5468	21.15542	-12.20505	-26.03744	23.59643	4.88202	-85.43535	-114.72747	-88.69003	-43.93818	-8.95037	7.32303	0
45	27.66478	16.2734	-12.20505	-21.15542	21.15542	1.62734	-80.55333	-117.16848	-91.13104	-46.37919	-11.39138	2.44101	0
46	17.90074	11.39138	-7.32303	-13.83239	13.83239	1.62734	-75.67131	-114.72747	-91.13104	-48.8202	-13.83239	-2.44101	0
47	8.1367	1.62734	-7.32303	-4.06835	8.95037	-3.25468	-70.78929	-114.72747	-91.13104	-51.26121	-18.71441	-7.32303	0
48	-1.62734	-3.25468	-2.44101	3.25468	1.62734	-3.25468	-65.90727	-112.28646	-91.13104	-51.26121	-18.71441	-9.76404	0
49	-8.95037	-8.1367	0	8.1367	-3.25468	-3.25468	-63.46626	-109.84545	-91.13104	-51.26121	-21.15542	-9.76404	0
50	-13.83239	-13.01872	0	13.01872	-5.69569	-5.69569	-63.46626	-109.84545	-91.13104	-51.26121	-23.59643	-12.20505	0
51	-16.2734	-15.45973	0	15.45973	-8.1367	-8.1367	-63.46626	-109.84545	-93.57205	-53.70222	-26.03744	-12.20505	0
52	-16.2734	-17.90074	-2.44101	17.90074	-5.69569	-10.57771	-63.46626	-109.84545	-93.57205	-53.70222	-28.47845	-12.20505	0
53	-21.15542	-22.78276	-2.44101	22.78276	-8.1367	-13.01872	-63.46626	-109.84545	-96.01306	-53.70222	-28.47845	-12.20505	0
54	-28.47845	-26.03744	2.44101	27.66478	-15.45973	-10.57771	-63.46626	-109.84545	-98.45407	-56.14323	-28.47845	-12.20505	0
55	-30.91946	-30.91946	0	30.10579	-15.45973	-15.45973	-63.46626	-112.28646	-98.45407	-56.14323	-30.91946	-14.64606	0
56	-30.91946	-33.36047	-2.44101	32.5468	-15.45973	-17.90074	-63.46626	-109.84545	-98.45407	-56.14323	-30.91946	-14.64606	0
57	-33.36047	-33.36047	0	32.5468	-17.90074	-15.45973	-61.02525	-107.40444	-98.45407	-56.14323	-30.91946	-17.90074	0
58	-28.47845	-35.80148	-7.32303	32.5468	-10.57771	-20.34175	-61.02525	-107.40444	-96.01306	-58.58424	-33.36047	-17.90074	0
59	-23.59643	-33.36047	-9.76404	27.66478	-8.1367	-20.34175	-61.02525	-107.40444	-96.01306	-58.58424	-33.36047	-17.90074	0
60	-21.15542	-30.91946	-9.76404	25.22377	-5.69569	-20.34175	-56.14323	-102.52242	-93.57205	-58.58424	-33.36047	-17.90074	0
61	-26.03744	-30.91946	-4.88202	27.66478	-10.57771	-17.90074	-56.14323	-102.52242	-93.57205	-58.58424	-35.80148	-17.90074	0
62	-26.03744	-33.36047	-7.32303	30.10579	-10.57771	-20.34175	-58.58424	-104.96343	-93.57205	-61.02525	-40.6835	-17.90074	0
63	-21.15542	-30.91946	-9.76404	25.22377	-5.69569	-20.34175	-58.58424	-104.96343	-96.01306	-61.02525	-40.6835	-17.90074	0
64	-13.83239	-28.47845	-14.64606	20.34175	-0.81367	-20.34175	-56.14323	-104.96343	-96.01306	-63.46626	-40.6835	-20.34175	0
65	-13.83239	-28.47845	-14.64606	20.34175	-0.81367	-20.34175	-56.14323	-102.52242	-93.57205	-63.46626	-43.12451	-22.78276	0
66	-11.39138	-28.47845	-17.08707	20.34175	1.62734	-22.78276	-53.70222	-100.08141	-91.13104	-63.46626	-43.12451	-22.78276	0
67	-16.2734	-26.03744	-9.76404	20.34175	-3.25468	-17.90074	-48.8202	-97.6404	-91.13104	-61.02525	-43.12451	-22.78276	0
68	-18.71441	-28.47845	-9.76404	22.78276	-5.69569	-17.90074	-46.37919	-97.6404	-88.69003	-61.02525	-43.12451	-20.34175	0
69	-21.15542	-30.91946	-9.76404	25.22377	-5.69569	-20.34175	-46.37919	-97.6404	-88.69003	-61.02525	-43.12451	-20.34175	0
70	-23.59643	-30.91946	-7.32303	27.66478	-8.1367	-17.90074	-43.93818	-95.19939	-86.24902	-58.58424	-40.6835	-17.90074	0
71	-26.03744	-30.91946	-4.88202	27.66478	-10.57771	-17.90074	-43.93818	-95.19939	-86.24902	-56.14323	-38.24249	-12.20505	0
72	-30.91946	-33.36047	-2.44101	32.5468	-15.45973	-17.90074	-43.93818	-95.19939	-86.24902	-56.14323	-38.24249	-7.32303	0
73	-30.91946	-33.36047	-2.44101	32.5468	-15.45973	-17.90074	-39.05616	-92.75838	-86.24902	-53.70222	-35.80148	-7.32303	0
74	-30.91946	-33.36047	-2.44101	32.5468	-15.45973	-17.90074	-39.05616	-95.19939	-86.24902	-53.70222	-35.80148	-7.32303	0
75	-33.36047	-33.36047	0	32.5468	-17.90074	-15.45973	-39.05616	-95.19939	-86.24902	-56.14323	-35.80148	-12.20505	0
76	-33.36047	-33.36047	0	32.5468	-17.90074	-15.45973	-39.05616	-90.31737	-86.24902	-58.58424	-35.80148	-14.64606	0
77	-33.36047	-30.91946	2.44101	32.5468	-17.90074	-13.01872	-34.17414	-90.31737	-83.80801	-58.58424	-38.24249	-17.90074	0
78	-28.47845	-26.03744	2.44101	27.66478	-15.45973	-10.57771	-31.73313	-87.87636	-81.367	-58.58424	-38.24249	-17.90074	0
79	-28.47845	-26.03744	2.44101	27.66478	-15.45973	-10.57771	-31.73313	-87.87636	-78.92599	-61.02525	-40.6835	-17.90074	0
80	-26.03744	-26.03744	0	25.22377	-13.01872	-13.01872	-29.29212	-87.87636	-78.92599	-61.02525	-40.6835	-22.78276	0
81	-26.03744	-26.03744	0	25.22377	-13.01872	-13.01872	-29.29212	-87.87636	-81.367	-63.46626	-45.56552	-25.22377	0
82	-26.03744	-26.03744	0	25.22377	-13.01872	-13.01872	-31.73313	-87.87636	-83.80801	-63.46626	-50.44754	-27.66478	0
83	-23.59643	-26.03744	-2.44101	25.22377	-10.57771	-13.01872	-29.29212	-87.87636	-86.24902	-63.46626	-50.44754	-27.66478	0
84	-21.15542	-20.34175	0	20.34175	-10.57771	-10.57771	-26.85111	-87.87636	-83.80801	-63.46626	-48.00653	-25.22377	0
85	-23.59643	-17.90074	4.88202	20.34175	-13.01872	-5.69569	-24.4101	-82.99434	-81.367	-61.02525	-48.00653	-25.22377	0
86	-26.03744	-20.34175	4.88202	22.78276	-15.45973	-8.1367	-21.96909	-82.99434	-81.367	-61.02525	-45.56552	-25.22377	0
87	-26.03744	-22.78276	2.44101	25.22377	-13.01872	-10.57771	-19.52808	-82.99434	-81.367	-63.46626	-48.00653	-25.22377	0
88	-28.47845	-26.03744	2.44101	27.66478	-15.45973	-10.57771	-14.64606	-82.99434	-81.367	-65.90727	-48.00653	-27.66478	0
89	-35.80148	-28.47845	7.32303	32.5468	-22.78276	-10.57771	-9.76404	-85.43535	-83.80801	-68.34828	-48.00653	-30.10579	0
90	-38.24249	-30.91946	7.32303	34.98781	-22.78276	-10.57771	-4.88202	-85.43535	-86.24902	-70.78929	-50.44754	-30.10579	0
91	-43.12451	-35.80148	7.32303	39.86983	-25.22377	-13.01872	-4.88202	-90.31737	-91.13104	-75.67131	-52.88855	-30.10579	0
92	-52.88855	-45.56552	7.32303	48.00653	-30.10579	-17.90074	-2.44101	-97.6404	-103.33609	-87.87636	-60.21158	-34.98781	0
93	-61.02525	-57.77057	2.44101	57.77057	-32.5468	-27.66478	21.96909	-109.84545	-122.86417	-104.96343	-74.85764	-47.19286	0
94	-78.11232	-72.41663	4.88202	74.85764	-43.12451	-34.98781	36.61515	-117.16848	-139.95124	-124.49151	-87.06269	-56.9569	0
95	-92.75838	-84.62168	7.32303	87.06269	-50.44754	-39.86983	58.58424	-119.60949	-152.15629	-141.57858	-101.70875	-71.60296	0
96	-107.40444	-96.82673	9.76404	101.70875	-60.21158	-44.75185	85.43535	-117.16848	-164.36134	-158.66565	-118.79582	-83.80801	0
97	-117.16848	-111.47279	4.88202	113.9138	-62.65259	-54.51589	117.98215	-114.72747	-176.56639	-178.19373	-135.88289	-96.01306	0
98	-124.49151	-123.67784	0	123.67784	-62.65259	-61.83892	154.5973	-114.72747	-191.21245	-202.60383	-152.96996	-105.7771	0
99	-131.81454	-131.00087	0	131.00087	-67.53461	-66.72094	186.33043	-107.40444	-196.09447	-224.57292	-170.05703	-117.98215	0
100	-165.98868	-152.96996	12.20505	157.85198	-89.5037	-71.60296	247.35568	-56.14323	-183.88942	-239.21898	-182.26208	-125.30518	1000	P+0
101	-148.90161	-177.38006	-29.29212	162.734	-60.21158	-103.33609	298.61689	-80.55333	-213.18154	-248.98302	-187.1441	-127.74619	0
102	-122.0505	-152.96996	-31.73313	135.88289	-45.56552	-93.57205	291.29386	-129.37353	-264.44275	-251.42403	-187.1441	-127.74619	0
103	-136.69656	-152.96996	-17.08707	143.20592	-60.21158	-86.24902	264.44275	-144.01959	-283.97083	-261.18807	-209.11319	-137.51023	0
104	-117.16848	-148.08794	-31.73313	131.00087	-43.12451	-91.13104	188.77144	-124.49151	-259.56073	-275.83413	-187.1441	-113.10013	0
105	-65.90727	-111.47279	-46.37919	87.06269	-10.57771	-78.92599	122.86417	-87.87636	-240.03265	-292.9212	-170.05703	-108.21811	0
106	13.01872	-84.62168	-97.6404	34.98781	55.32956	-91.13104	75.67131	-90.31737	-262.00174	-305.12625	-162.734	-127.74619	0
107	30.10579	-128.55986	-158.66565	48.00653	94.38572	-142.39225	85.43535	-163.54767	-357.20113	-307.56726	-189.58511	-122.86417	0
108	34.98781	-140.76491	-175.75272	52.88855	104.14976	-157.03831	4.88202	-292.9212	-442.63648	-361.26948	-201.79016	-117.98215	0
109	93.57205	-87.06269	-180.63474	-4.06835	135.88289	-132.62821	-148.90161	-512.6121	-581.77405	-300.24423	-184.70309	-91.13104	0
110	117.98215	-38.24249	-156.22464	-40.6835	135.88289	-96.01306	-331.97736	-656.63169	-664.76839	-292.9212	-145.64693	-49.63387	0
111	159.47932	57.77057	-102.52242	-109.03178	131.00087	-22.78276	-529.69917	-734.74401	-652.56334	-278.27514	-67.53461	17.08707	0
112	240.03265	160.29299	-80.55333	-199.34915	160.29299	41.49717	-790.88724	-868.99956	-662.32738	-229.45494	21.15542	102.52242	0
113	369.40618	270.13844	-100.08141	-318.95864	235.9643	85.43535	-1091.13147	-1086.24945	-767.29081	-222.13191	72.41663	170.8707	0
114	440.19547	353.13278	-87.87636	-397.07096	265.25642	134.25555	-1435.31388	-1308.38136	-838.0801	-170.8707	172.49804	253.86504	0
115	545.1589	462.97823	-82.99434	-504.4754	314.07662	190.39878	-1708.707	-1498.78014	-908.86939	-126.93252	262.81541	346.62342	0
116	647.68132	565.50065	-82.99434	-606.99782	365.33783	241.65999	-1999.18719	-1691.61993	-972.33565	-146.4606	348.25076	432.05877	0
117	791.70091	670.46408	-122.0505	-731.48933	458.09621	275.83413	-2306.75445	-1921.07487	-1067.53504	-161.10666	416.59904	517.49412	0
118	879.57727	799.83761	-80.55333	-838.89377	480.0653	361.26948	-2604.55767	-2150.52981	-1179.8215	-73.2303	467.86025	602.92947	0
119	943.04353	873.06791	-70.78929	-907.24205	506.91641	402.76665	-2729.04918	-2272.58031	-1284.78493	-239.21898	472.74227	666.39573	0
120	1018.71484	917.00609	-102.52242	-968.2673	560.61863	407.64867	-2834.01261	-2365.33869	-1438.56856	-280.71615	438.56813	720.09795	0
121	1035.80191	953.62124	-82.99434	-995.11841	560.61863	436.94079	-2909.68392	-2492.27121	-1577.70613	-383.23857	458.09621	803.09229	0
122	1094.38615	1004.88245	-90.31737	-1048.82063	592.35176	458.90988	-3012.20634	-2528.88636	-1694.87461	-507.73008	426.36308	842.14845	0
123	1145.64736	1100.08184	-46.37919	-1122.05093	597.23378	527.25816	-2982.91422	-2441.01	-1719.28471	-556.55028	433.68611	893.40966	0
124	1199.34958	1109.84588	-90.31737	-1153.78406	646.05398	510.17109	-2897.47887	-2255.49324	-1628.96734	-541.90422	379.98389	898.29168	0
125	1267.69786	1002.44144	-266.07009	-1134.25598	768.10448	368.59251	-2697.31605	-1903.9878	-1340.92816	-402.76665	367.77884	810.41532	0
126	1296.98998	829.12973	-468.67392	-1063.46669	882.83195	180.63474	-2455.65606	-1625.71266	-1116.35524	-339.30039	365.33783	727.42098	0
127	1316.51806	699.7562	-617.57553	-1007.32346	968.2673	41.49717	-2213.99607	-1308.38136	-823.43404	-192.83979	370.21985	700.56987	0
128	1289.66695	641.17196	-649.30866	-965.82629	970.70831	-3.25468	-2008.95123	-1098.4545	-593.9791	-78.11232	375.10187	666.39573	0
129	1301.872	643.61297	-659.0727	-973.14932	980.47235	-8.1367	-1796.58336	-859.23552	-359.64214	91.13104	375.10187	610.2525	0
130	1257.93382	594.79277	-663.95472	-926.77013	960.94427	-34.98781	-1528.07226	-497.96604	-30.10579	298.61689	382.4249	632.22159	0
131	1143.20635	497.15237	-646.86765	-819.36569	895.037	-74.04397	-1291.29429	-270.95211	209.92686	469.48759	475.18328	624.89856	0
132	1138.32433	465.41924	-673.71876	-802.27862	907.24205	-103.33609	-1157.03874	-136.69656	334.41837	496.3387	460.53722	595.60644	0
133	1148.08837	445.89116	-703.01088	-797.3966	926.77013	-127.74619	-1066.72137	-124.49151	346.62342	449.95951	421.48106	568.75533	0
134	1087.06312	414.15803	-673.71876	-751.01741	880.39094	-130.1872	-976.404	-224.57292	285.59817	430.43143	401.95298	563.87331	0
135	962.57161	360.45581	-602.92947	-660.70004	782.75054	-120.42316	-849.47148	-280.71615	224.57292	430.43143	406.835	527.25816	0
136	896.66434	340.92773	-556.55028	-619.20287	726.60731	-108.21811	-720.09795	-375.91554	80.55333	354.76012	353.13278	478.43796	0
137	767.29081	279.90248	-488.202	-524.00348	628.96691	-103.33609	-598.04745	-439.3818	-66.72094	252.2377	287.22551	397.88463	0
138	576.89203	228.64127	-349.06443	-401.95298	462.97823	-59.39791	-463.7919	-439.3818	-115.54114	225.38659	265.25642	339.30039	0
139	376.72921	152.96996	-224.57292	-265.25642	301.87157	-34.98781	-310.00827	-407.64867	-15.45973	235.15063	226.20026	270.95211	0
140	274.20679	96.82673	-178.19373	-184.70309	226.20026	-39.86983	-173.31171	-263.62908	-30.10579	196.09447	179.82107	197.72181	0
141	161.92033	65.0936	-97.6404	-113.9138	131.00087	-15.45973	-48.8202	-170.8707	-25.22377	193.65346	148.08794	134.25555	0
142	52.07488	6.50936	-46.37919	-28.47845	50.44754	-20.34175	12.20505	-112.28646	18.71441	157.03831	101.70875	73.2303	0
143	-16.2734	-33.36047	-17.08707	25.22377	-0.81367	-25.22377	65.90727	-43.93818	63.46626	125.30518	52.88855	19.52808	0
144	-63.46626	-79.73966	-17.08707	69.97562	-22.78276	-49.63387	85.43535	70.78929	48.8202	81.367	18.71441	-22.78276	0
145	-75.67131	-69.97562	4.88202	72.41663	-39.86983	-32.5468	109.84545	108.21811	70.78929	54.51589	-0.81367	-9.76404	0
146	-70.78929	-67.53461	2.44101	67.53461	-37.42882	-32.5468	122.86417	115.54114	85.43535	37.42882	-8.95037	-42.31084	0
147	-61.02525	-62.65259	-2.44101	60.21158	-30.10579	-32.5468	137.51023	120.42316	95.19939	47.19286	-16.2734	-49.63387	0
148	-61.02525	-55.32956	4.88202	57.77057	-32.5468	-25.22377	144.83326	125.30518	100.08141	39.86983	-13.83239	-52.07488	0
149	-112.28646	-94.38572	17.08707	101.70875	-65.0936	-39.86983	142.39225	127.74619	100.08141	34.98781	-6.50936	-49.63387	0
150	-61.02525	-62.65259	-2.44101	60.21158	-30.10579	-32.5468	144.83326	142.39225	100.08141	32.5468	-8.95037	-34.98781	0
151	-82.99434	-67.53461	14.64606	74.85764	-50.44754	-27.66478	152.15629	132.62821	100.08141	32.5468	-8.95037	-32.5468	0
152	-87.87636	-69.97562	17.08707	77.29865	-52.88855	-27.66478	152.15629	125.30518	97.6404	32.5468	-8.95037	-30.10579	0
153	-90.31737	-69.97562	19.52808	79.73966	-55.32956	-25.22377	157.03831	127.74619	97.6404	34.98781	-8.95037	-30.10579	0
154	-90.31737	-67.53461	21.96909	77.29865	-57.77057	-22.78276	161.92033	127.74619	97.6404	34.98781	-8.95037	-30.10579	0
155	-97.6404	-67.53461	29.29212	82.18067	-65.0936	-20.34175	164.36134	130.1872	97.6404	37.42882	-8.95037	-32.5468	0
156	-102.52242	-67.53461	34.98781	84.62168	-69.97562	-17.90074	166.80235	135.06922	100.08141	37.42882	-8.95037	-32.5468	0
157	-102.52242	-67.53461	34.98781	84.62168	-69.97562	-17.90074	171.68437	137.51023	102.52242	37.42882	-11.39138	-34.98781	0
158	-102.52242	-65.0936	37.42882	82.18067	-69.97562	-15.45973	174.12538	139.95124	104.96343	37.42882	-8.95037	-37.42882	0
159	-102.52242	-65.0936	37.42882	82.18067	-69.97562	-15.45973	176.56639	144.83326	109.84545	37.42882	-8.95037	-34.98781	0
160	-102.52242	-62.65259	39.86983	82.18067	-72.41663	-13.01872	179.0074	147.27427	109.84545	39.86983	-6.50936	-34.98781	0
161	-104.96343	-60.21158	44.75185	82.18067	-74.85764	-8.1367	181.44841	149.71528	109.84545	42.31084	-6.50936	-32.5468	0
162	-107.40444	-60.21158	47.19286	82.18067	-77.29865	-8.1367	179.0074	149.71528	109.84545	42.31084	-6.50936	-32.5468	0
163	-107.40444	-60.21158	47.19286	82.18067	-77.29865	-8.1367	181.44841	149.71528	109.84545	42.31084	-6.50936	-34.98781	0
164	-107.40444	-62.65259	44.75185	84.62168	-77.29865	-10.57771	181.44841	152.15629	112.28646	42.31084	-6.50936	-37.42882	0
165	-109.84545	-62.65259	47.19286	84.62168	-79.73966	-8.1367	181.44841	152.15629	114.72747	44.75185	-6.50936	-42.31084	0
166	-112.28646	-65.0936	47.19286	87.06269	-79.73966	-10.57771	183.88942	159.47932	117.16848	47.19286	-6.50936	-42.31084	0
167	-117.16848	-67.53461	49.63387	91.94471	-84.62168	-10.57771	186.33043	161.92033	119.60949	47.19286	-4.06835	-42.31084	0
168	-117.16848	-67.53461	49.63387	91.94471	-84.62168	-10.57771	188.77144	164.36134	124.49151	47.19286	-6.50936	-42.31084	0
169	-114.72747	-67.53461	47.19286	89.5037	-82.18067	-10.57771	188.77144	166.80235	124.49151	47.19286	-8.95037	-44.75185	0
170	-114.72747	-69.97562	44.75185	91.94471	-79.73966	-13.01872	191.21245	166.80235	126.93252	47.19286	-8.95037	-44.75185	0
171	-117.16848	-72.41663	44.75185	94.38572	-82.18067	-15.45973	193.65346	171.68437	129.37353	49.63387	-6.50936	-42.31084	0
172	-114.72747	-69.97562	44.75185	91.94471	-79.73966	-13.01872	193.65346	174.12538	129.37353	52.07488	-6.50936	-37.42882	0
173	-114.72747	-69.97562	44.75185	91.94471	-79.73966	-13.01872	196.09447	179.0074	131.81454	52.07488	-4.06835	-37.42882	0
174	-122.0505	-72.41663	49.63387	96.82673	-87.06269	-13.01872	196.09447	179.0074	131.81454	54.51589	-4.06835	-34.98781	0
175	-119.60949	-72.41663	47.19286	94.38572	-84.62168	-13.01872	198.53548	179.0074	136.69656	54.51589	-4.06835	-34.98781	0
176	-119.60949	-72.41663	47.19286	94.38572	-84.62168	-13.01872	200.97649	183.88942	139.13757	56.9569	-4.06835	-37.42882	0
177	-122.0505	-72.41663	49.63387	96.82673	-87.06269	-13.01872	205.85851	191.21245	144.01959	59.39791	1.62734	-34.98781	0
178	-122.0505	-69.97562	52.07488	94.38572	-87.06269	-10.57771	208.29952	193.65346	148.90161	61.83892	1.62734	-30.10579	0
179	-122.0505	-69.97562	52.07488	94.38572	-87.06269	-10.57771	210.74053	196.09447	151.34262	61.83892	4.06835	-30.10579	0
180	-122.0505	-69.97562	52.07488	94.38572	-87.06269	-10.57771	210.74053	198.53548	151.34262	61.83892	-0.81367	-34.98781	0
181	-122.0505	-72.41663	49.63387	96.82673	-87.06269	-13.01872	208.29952	198.53548	151.34262	59.39791	-4.06835	-37.42882	0
182	-117.16848	-72.41663	44.75185	94.38572	-82.18067	-15.45973	208.29952	200.97649	151.34262	59.39791	-4.06835	-37.42882	0
183	-114.72747	-72.41663	42.31084	91.94471	-79.73966	-15.45973	213.18154	203.4175	151.34262	61.83892	-4.06835	-37.42882	0
184	-119.60949	-74.85764	44.75185	96.82673	-82.18067	-15.45973	213.18154	203.4175	151.34262	61.83892	-4.06835	-37.42882	0
185	-117.16848	-77.29865	39.86983	96.82673	-79.73966	-20.34175	213.18154	205.85851	151.34262	61.83892	-4.06835	-39.86983	0
186	-114.72747	-79.73966	34.98781	96.82673	-74.85764	-22.78276	215.62255	210.74053	151.34262	59.39791	-6.50936	-44.75185	0
187	-109.84545	-77.29865	32.5468	91.94471	-72.41663	-22.78276	218.06356	213.18154	153.78363	59.39791	-6.50936	-44.75185	0
188	-109.84545	-74.85764	34.98781	91.94471	-72.41663	-20.34175	222.94558	218.06356	161.10666	64.27993	-4.06835	-42.31084	0
189	-112.28646	-74.85764	37.42882	91.94471	-74.85764	-20.34175	227.8276	220.50457	165.98868	66.72094	-4.06835	-39.86983	0
190	-117.16848	-74.85764	42.31084	94.38572	-79.73966	-17.90074	227.8276	222.94558	165.98868	69.16195	-4.06835	-37.42882	0
191	-119.60949	-74.85764	44.75185	96.82673	-82.18067	-15.45973	227.8276	225.38659	168.42969	69.16195	-4.06835	-34.98781	0
192	-122.0505	-74.85764	47.19286	96.82673	-84.62168	-15.45973	230.26861	227.8276	168.42969	71.60296	-0.81367	-32.5468	0
193	-119.60949	-74.85764	44.75185	96.82673	-82.18067	-15.45973	235.15063	232.70962	173.31171	74.04397	1.62734	-32.5468	0
194	-124.49151	-72.41663	52.07488	96.82673	-89.5037	-10.57771	240.03265	237.59164	178.19373	78.92599	4.06835	-32.5468	0
195	-129.37353	-72.41663	56.9569	99.26774	-94.38572	-8.1367	244.91467	242.47366	183.07575	81.367	6.50936	-32.5468	0
196	-131.81454	-77.29865	54.51589	104.14976	-94.38572	-13.01872	244.91467	249.79669	187.95777	83.80801	6.50936	-34.98781	0
197	-129.37353	-77.29865	52.07488	101.70875	-91.94471	-13.01872	249.79669	254.67871	190.39878	83.80801	6.50936	-34.98781	0
198	-124.49151	-77.29865	47.19286	99.26774	-87.06269	-15.45973	254.67871	259.56073	195.2808	83.80801	6.50936	-34.98781	0
199	-122.0505	-74.85764	47.19286	96.82673	-84.62168	-15.45973	257.11972	264.44275	200.16282	88.69003	6.50936	-34.98781	0
200	-117.16848	-69.97562	47.19286	91.94471	-82.18067	-13.01872	262.00174	269.32477	200.16282	88.69003	4.06835	-39.86983	0
201	-114.72747	-69.97562	44.75185	91.94471	-79.73966	-13.01872	264.44275	271.76578	205.04484	91.13104	4.06835	-39.86983	0
202	-117.16848	-72.41663	44.75185	94.38572	-82.18067	-15.45973	264.44275	274.20679	205.04484	93.57205	4.06835	-42.31084	0
203	-114.72747	-74.85764	39.86983	94.38572	-77.29865	-17.90074	266.88376	279.08881	205.04484	93.57205	1.62734	-44.75185	0
204	-112.28646	-77.29865	34.98781	94.38572	-74.85764	-22.78276	271.76578	281.52982	207.48585	93.57205	1.62734	-44.75185	0
205	-117.16848	-79.73966	37.42882	96.82673	-77.29865	-22.78276	274.20679	286.41184	212.36787	98.45407	1.62734	-49.63387	0
206	-122.0505	-79.73966	42.31084	99.26774	-82.18067	-20.34175	279.08881	293.73487	217.24989	103.33609	6.50936	-52.07488	0
207	-117.16848	-79.73966	37.42882	96.82673	-77.29865	-22.78276	286.41184	301.0579	222.13191	103.33609	8.95037	-52.07488	0
208	-117.16848	-82.18067	34.98781	99.26774	-77.29865	-25.22377	288.85285	305.93992	227.01393	105.7771	8.95037	-54.51589	0
209	-124.49151	-87.06269	37.42882	104.14976	-82.18067	-25.22377	291.29386	308.38093	231.89595	108.21811	11.39138	-54.51589	0
210	-126.93252	-87.06269	39.86983	106.59077	-84.62168	-25.22377	296.17588	313.26295	234.33696	113.10013	13.83239	-54.51589	0
211	-126.93252	-82.18067	44.75185	104.14976	-87.06269	-20.34175	298.61689	318.14497	239.21898	113.10013	13.83239	-49.63387	0
212	-126.93252	-82.18067	44.75185	104.14976	-87.06269	-20.34175	301.0579	323.02699	241.65999	115.54114	16.2734	-49.63387	0
213	-126.93252	-84.62168	42.31084	104.14976	-84.62168	-22.78276	303.49891	327.90901	244.101	117.98215	16.2734	-49.63387	0
214	-122.0505	-84.62168	37.42882	101.70875	-79.73966	-25.22377	305.93992	327.90901	246.54201	117.98215	13.83239	-52.07488	0
215	-119.60949	-84.62168	34.98781	101.70875	-77.29865	-25.22377	308.38093	332.79103	251.42403	117.98215	11.39138	-54.51589	0
216	-124.49151	-87.06269	37.42882	104.14976	-82.18067	-25.22377	313.26295	340.11406	258.74706	120.42316	13.83239	-54.51589	0
217	-124.49151	-87.06269	37.42882	104.14976	-82.18067	-25.22377	320.58598	349.8781	263.62908	122.86417	16.2734	-52.07488	0
218	-124.49151	-87.06269	37.42882	104.14976	-82.18067	-25.22377	327.90901	354.76012	268.5111	125.30518	16.2734	-49.63387	0
219	-124.49151	-87.06269	37.42882	104.14976	-82.18067	-25.22377	332.79103	359.64214	273.39312	125.30518	16.2734	-49.63387	0
220	-129.37353	-87.06269	42.31084	106.59077	-87.06269	-22.78276	337.67305	366.96517	278.27514	130.1872	16.2734	-49.63387	0
221	-129.37353	-87.06269	42.31084	106.59077	-87.06269	-22.78276	342.55507	371.84719	280.71615	130.1872	16.2734	-49.63387	0
222	-136.69656	-84.62168	52.07488	109.03178	-94.38572	-17.90074	349.8781	379.17022	288.03918	132.62821	21.15542	-44.75185	0
223	-136.69656	-84.62168	52.07488	109.03178	-94.38572	-17.90074	357.20113	386.49325	290.48019	137.51023	21.15542	-42.31084	0
224	-136.69656	-84.62168	52.07488	109.03178	-94.38572	-17.90074	362.08315	393.81628	295.36221	137.51023	23.59643	-42.31084	0
225	-134.25555	-82.18067	52.07488	106.59077	-94.38572	-15.45973	369.40618	398.6983	300.24423	139.95124	23.59643	-42.31084	0
226	-134.25555	-82.18067	52.07488	106.59077	-94.38572	-15.45973	376.72921	408.46234	307.56726	142.39225	23.59643	-44.75185	0
227	-134.25555	-82.18067	52.07488	106.59077	-94.38572	-15.45973	384.05224	415.78537	312.44928	142.39225	23.59643	-47.19286	0
228	-129.37353	-79.73966	49.63387	104.14976	-89.5037	-15.45973	391.37527	423.1084	317.3313	142.39225	23.59643	-47.19286	0
229	-129.37353	-74.85764	54.51589	101.70875	-91.94471	-10.57771	398.6983	430.43143	324.65433	144.83326	23.59643	-44.75185	0
230	-126.93252	-72.41663	54.51589	99.26774	-91.94471	-10.57771	406.02133	437.75446	327.09534	144.83326	23.59643	-44.75185	0
231	-126.93252	-69.97562	56.9569	96.82673	-91.94471	-8.1367	408.46234	442.63648	329.53635	144.83326	21.15542	-44.75185	0
232	-131.81454	-69.97562	61.83892	99.26774	-96.82673	-5.69569	415.78537	449.95951	334.41837	144.83326	21.15542	-42.31084	0
233	-134.25555	-67.53461	66.72094	99.26774	-101.70875	-0.81367	423.1084	457.28254	336.85938	147.27427	21.15542	-42.31084	0
234	-134.25555	-62.65259	71.60296	96.82673	-104.14976	4.88202	432.87244	464.60557	339.30039	147.27427	21.15542	-42.31084	0
235	-139.13757	-60.21158	78.92599	99.26774	-109.03178	9.76404	440.19547	471.9286	346.62342	147.27427	21.15542	-44.75185	0
236	-141.57858	-60.21158	81.367	99.26774	-111.47279	9.76404	447.5185	481.69264	351.50544	149.71528	18.71441	-47.19286	0
237	-139.13757	-62.65259	76.48498	99.26774	-109.03178	7.32303	454.84153	486.57466	351.50544	147.27427	13.83239	-54.51589	0
238	-139.13757	-65.0936	74.04397	101.70875	-106.59077	4.88202	459.72355	493.89769	356.38746	144.83326	11.39138	-56.9569	0
239	-139.13757	-65.0936	74.04397	101.70875	-106.59077	4.88202	467.04658	498.77971	361.26948	144.83326	8.95037	-59.39791	0
240	-139.13757	-62.65259	76.48498	99.26774	-109.03178	7.32303	476.81062	506.10274	366.1515	147.27427	8.95037	-59.39791	0
241	-144.01959	-62.65259	81.367	101.70875	-113.9138	9.76404	481.69264	513.42577	371.03352	147.27427	6.50936	-61.83892	0
242	-148.90161	-67.53461	81.367	106.59077	-116.35481	7.32303	489.01567	520.7488	373.47453	147.27427	4.06835	-64.27993	0
243	-148.90161	-67.53461	81.367	106.59077	-116.35481	7.32303	496.3387	528.07183	375.91554	149.71528	1.62734	-64.27993	0
244	-144.01959	-67.53461	76.48498	104.14976	-111.47279	4.88202	503.66173	535.39486	380.79756	149.71528	1.62734	-64.27993	0
245	-148.90161	-67.53461	81.367	106.59077	-116.35481	7.32303	513.42577	545.1589	388.12059	154.5973	4.06835	-61.83892	0
246	-148.90161	-60.21158	88.69003	104.14976	-118.79582	14.64606	525.63082	557.36395	395.44362	154.5973	6.50936	-59.39791	0
247	-158.66565	-62.65259	96.01306	109.03178	-128.55986	17.08707	535.39486	567.12799	400.32564	157.03831	6.50936	-59.39791	0
248	-163.54767	-65.0936	98.45407	113.9138	-131.00087	17.08707	545.1589	574.45102	407.64867	157.03831	4.06835	-59.39791	0
249	-165.98868	-65.0936	100.89508	113.9138	-133.44188	17.08707	552.48193	581.77405	410.08968	154.5973	1.62734	-59.39791	0
250	-170.8707	-69.97562	100.89508	118.79582	-135.88289	14.64606	559.80496	586.65607	412.53069	154.5973	-0.81367	-59.39791	0
251	-173.31171	-69.97562	103.33609	121.23683	-138.3239	17.08707	567.12799	591.53809	414.9717	152.15629	-4.06835	-59.39791	0
252	-178.19373	-65.0936	113.10013	121.23683	-145.64693	24.4101	572.01001	593.9791	414.9717	149.71528	-6.50936	-61.83892	0
253	-180.63474	-65.0936	115.54114	121.23683	-148.08794	24.4101	576.89203	593.9791	412.53069	144.83326	-11.39138	-64.27993	0
254	-185.51676	-67.53461	117.98215	126.11885	-152.96996	24.4101	581.77405	596.42011	410.08968	139.95124	-16.2734	-71.60296	0
255	-190.39878	-67.53461	122.86417	128.55986	-157.85198	26.85111	586.65607	598.86112	410.08968	137.51023	-21.15542	-74.04397	0
256	-192.83979	-67.53461	125.30518	128.55986	-160.29299	29.29212	591.53809	603.74314	412.53069	135.06922	-23.59643	-76.48498	0
257	-197.72181	-67.53461	130.1872	131.00087	-165.17501	31.73313	596.42011	603.74314	412.53069	130.1872	-26.03744	-81.367	0
258	-200.16282	-67.53461	132.62821	133.44188	-167.61602	31.73313	601.30213	606.18415	412.53069	127.74619	-28.47845	-83.80801	0
259	-200.16282	-67.53461	132.62821	133.44188	-167.61602	31.73313	601.30213	606.18415	412.53069	125.30518	-30.91946	-86.24902	0
260	-197.72181	-67.53461	130.1872	131.00087	-165.17501	31.73313	601.30213	603.74314	407.64867	122.86417	-30.91946	-88.69003	0
261	-200.16282	-67.53461	132.62821	133.44188	-167.61602	31.73313	603.74314	601.30213	405.20766	117.98215	-33.36047	-91.13104	0
262	-200.16282	-65.0936	135.06922	131.00087	-167.61602	34.17414	603.74314	598.86112	402.76665	117.98215	-35.80148	-93.57205	0
263	-202.60383	-67.53461	135.06922	133.44188	-170.05703	34.17414	603.74314	596.42011	397.88463	113.10013	-38.24249	-93.57205	0
264	-205.04484	-72.41663	132.62821	138.3239	-170.05703	29.29212	603.74314	589.09708	390.5616	108.21811	-40.6835	-96.01306	0
265	-202.60383	-74.85764	127.74619	138.3239	-165.17501	26.85111	598.86112	581.77405	385.67958	105.7771	-45.56552	-98.45407	0
266	-200.16282	-74.85764	125.30518	135.88289	-162.734	24.4101	596.42011	579.33304	383.23857	100.89508	-45.56552	-100.89508	0
267	-200.16282	-72.41663	127.74619	135.88289	-165.17501	26.85111	596.42011	572.01001	378.35655	96.01306	-48.00653	-103.33609	0
268	-207.48585	-77.29865	130.1872	140.76491	-170.05703	26.85111	593.9791	562.24597	373.47453	91.13104	-52.88855	-103.33609	0
269	-212.36787	-82.18067	130.1872	145.64693	-172.49804	24.4101	589.09708	554.92294	366.1515	86.24902	-52.88855	-103.33609	0
270	-217.24989	-87.06269	130.1872	150.52895	-174.93905	21.96909	584.21506	545.1589	356.38746	81.367	-57.77057	-103.33609	0
271	-219.6909	-89.5037	130.1872	152.96996	-174.93905	19.52808	576.89203	532.95385	349.06443	76.48498	-60.21158	-100.89508	0
272	-219.6909	-89.5037	130.1872	152.96996	-174.93905	19.52808	567.12799	520.7488	336.85938	71.60296	-60.21158	-98.45407	0
273	-217.24989	-89.5037	127.74619	152.96996	-172.49804	19.52808	559.80496	506.10274	327.09534	66.72094	-62.65259	-98.45407	0
274	-217.24989	-94.38572	122.86417	155.41097	-170.05703	14.64606	547.59991	491.45668	314.89029	59.39791	-65.0936	-98.45407	0
275	-217.24989	-99.26774	117.98215	157.85198	-167.61602	9.76404	535.39486	471.9286	300.24423	52.07488	-69.97562	-103.33609	0
276	-209.92686	-96.82673	113.10013	152.96996	-162.734	7.32303	523.18981	462.16456	290.48019	47.19286	-69.97562	-103.33609	0
277	-200.16282	-94.38572	105.7771	145.64693	-152.96996	4.88202	510.98476	445.07749	278.27514	39.86983	-72.41663	-105.7771	0
278	-192.83979	-96.82673	96.01306	143.20592	-145.64693	-0.81367	496.3387	427.99042	266.07009	32.5468	-74.85764	-105.7771	0
279	-187.95777	-96.82673	91.13104	140.76491	-140.76491	-3.25468	479.25163	408.46234	251.42403	25.22377	-77.29865	-108.21811	0
280	-178.19373	-91.94471	86.24902	133.44188	-133.44188	-3.25468	459.72355	388.93426	236.77797	17.90074	-79.73966	-108.21811	0
281	-170.8707	-91.94471	78.92599	131.00087	-126.11885	-8.1367	440.19547	366.96517	222.13191	13.01872	-82.18067	-108.21811	0
282	-170.8707	-89.5037	81.367	128.55986	-126.11885	-5.69569	418.22638	347.43709	205.04484	8.1367	-82.18067	-105.7771	0
283	-165.98868	-89.5037	76.48498	126.11885	-121.23683	-8.1367	398.6983	325.468	187.95777	0.81367	-82.18067	-103.33609	0
284	-165.98868	-89.5037	76.48498	126.11885	-121.23683	-8.1367	376.72921	301.0579	173.31171	-4.88202	-82.18067	-103.33609	0
285	-161.10666	-89.5037	71.60296	123.67784	-116.35481	-10.57771	352.31911	276.6478	156.22464	-12.20505	-84.62168	-103.33609	0
286	-153.78363	-87.06269	66.72094	118.79582	-111.47279	-10.57771	327.90901	257.11972	141.57858	-19.52808	-84.62168	-100.89508	0
287	-148.90161	-84.62168	64.27993	116.35481	-106.59077	-10.57771	305.93992	235.15063	126.93252	-24.4101	-84.62168	-98.45407	0
288	-144.01959	-82.18067	61.83892	111.47279	-104.14976	-10.57771	286.41184	215.62255	114.72747	-29.29212	-82.18067	-96.01306	0
289	-144.01959	-84.62168	59.39791	113.9138	-101.70875	-13.01872	264.44275	196.09447	102.52242	-31.73313	-79.73966	-91.13104	0
290	-141.57858	-84.62168	56.9569	111.47279	-99.26774	-15.45973	242.47366	174.12538	87.87636	-36.61515	-77.29865	-86.24902	0
291	-131.81454	-79.73966	52.07488	104.14976	-91.94471	-15.45973	220.50457	154.5973	73.2303	-41.49717	-77.29865	-86.24902	0
292	-122.0505	-74.85764	47.19286	96.82673	-84.62168	-15.45973	200.97649	137.51023	61.02525	-46.37919	-74.85764	-81.367	0
293	-112.28646	-69.97562	42.31084	89.5037	-77.29865	-15.45973	181.44841	117.98215	48.8202	-46.37919	-72.41663	-81.367	0
294	-102.52242	-65.0936	37.42882	82.18067	-69.97562	-15.45973	166.80235	103.33609	38.24249	-46.37919	-67.53461	-76.48498	0
295	-95.19939	-60.21158	34.98781	77.29865	-65.0936	-13.01872	149.71528	86.24902	33.36047	-46.37919	-65.0936	-76.48498	0
296	-92.75838	-60.21158	32.5468	74.85764	-62.65259	-15.45973	130.1872	70.78929	23.59643	-48.8202	-65.0936	-76.48498	0
297	-90.31737	-60.21158	29.29212	74.85764	-60.21158	-15.45973	115.54114	56.14323	13.83239	-51.26121	-65.0936	-74.04397	0
298	-85.43535	-60.21158	24.4101	72.41663	-55.32956	-17.90074	100.08141	41.49717	6.50936	-53.70222	-62.65259	-71.60296	0
299	-82.99434	-62.65259	19.52808	72.41663	-52.88855	-22.78276	87.87636	26.85111	-0.81367	-53.70222	-57.77057	-69.16195	0
300	-80.55333	-62.65259	17.08707	69.97562	-50.44754	-22.78276	75.67131	14.64606	-8.1367	-53.70222	-55.32956	-61.83892	0
301	-80.55333	-65.0936	14.64606	72.41663	-48.00653	-25.22377	63.46626	2.44101	-17.90074	-53.70222	-52.88855	-59.39791	0
302	-82.99434	-65.0936	17.08707	72.41663	-50.44754	-25.22377	48.8202	-9.76404	-25.22377	-53.70222	-50.44754	-54.51589	0
303	-82.99434	-65.0936	17.08707	72.41663	-50.44754	-25.22377	39.05616	-17.08707	-34.98781	-56.14323	-48.00653	-52.07488	0
304	-82.99434	-67.53461	14.64606	74.85764	-50.44754	-27.66478	29.29212	-26.85111	-39.86983	-56.14323	-45.56552	-49.63387	0
305	-75.67131	-62.65259	12.20505	67.53461	-45.56552	-25.22377	24.4101	-34.17414	-42.31084	-51.26121	-43.12451	-44.75185	0
306	-65.90727	-55.32956	9.76404	60.21158	-37.42882	-22.78276	17.08707	-41.49717	-47.19286	-51.26121	-43.12451	-44.75185	0
307	-61.02525	-50.44754	9.76404	55.32956	-34.98781	-20.34175	9.76404	-48.8202	-49.63387	-51.26121	-43.12451	-42.31084	0
308	-56.14323	-43.12451	12.20505	48.00653	-34.98781	-15.45973	4.88202	-53.70222	-52.07488	-51.26121	-43.12451	-39.86983	1500	QRS+0
309	-56.14323	-38.24249	17.08707	45.56552	-37.42882	-10.57771	0	-58.58424	-54.51589	-48.8202	-40.6835	-37.42882	0
310	-52.88855	-35.80148	17.08707	43.12451	-34.98781	-8.1367	-7.32303	-63.46626	-56.9569	-46.37919	-40.6835	-34.98781	0
311	-48.00653	-35.80148	12.20505	39.86983	-30.10579	-10.57771	-12.20505	-70.78929	-64.27993	-48.8202	-43.12451	-32.5468	0
312	-43.12451	-35.80148	7.32303	39.86983	-25.22377	-13.01872	-19.52808	-75.67131	-66.72094	-48.8202	-43.12451	-34.98781	0
313	-35.80148	-33.36047	2.44101	34.98781	-20.34175	-15.45973	-21.96909	-75.67131	-69.16195	-48.8202	-43.12451	-34.98781	0
314	-35.80148	-30.91946	4.88202	32.5468	-20.34175	-13.01872	-24.4101	-80.55333	-71.60296	-48.8202	-43.12451	-37.42882	0
315	-33.36047	-28.47845	4.88202	30.10579	-20.34175	-10.57771	-24.4101	-80.55333	-71.60296	-48.8202	-43.12451	-39.86983	0
316	-28.47845	-28.47845	0	27.66478	-15.45973	-13.01872	-24.4101	-75.67131	-71.60296	-46.37919	-40.6835	-39.86983	0
317	-26.03744	-33.36047	-7.32303	30.10579	-10.57771	-20.34175	-26.85111	-75.67131	-69.16195	-46.37919	-38.24249	-37.42882	0
318	-26.03744	-33.36047	-7.32303	30.10579	-10.57771	-20.34175	-26.85111	-75.67131	-69.16195	-46.37919	-38.24249	-39.86983	0
319	-30.91946	-38.24249	-7.32303	34.98781	-13.01872	-22.78276	-29.29212	-75.67131	-69.16195	-43.93818	-35.80148	-37.42882	0
320	-30.91946	-38.24249	-7.32303	34.98781	-13.01872	-22.78276	-26.85111	-75.67131	-66.72094	-41.49717	-33.36047	-34.98781	0
321	-33.36047	-40.6835	-7.32303	37.42882	-13.01872	-22.78276	-26.85111	-75.67131	-69.16195	-41.49717	-33.36047	-30.10579	0
322	-35.80148	-45.56552	-9.76404	39.86983	-13.01872	-27.66478	-26.85111	-75.67131	-71.60296	-41.49717	-33.36047	-30.10579	0
323	-40.6835	-48.00653	-7.32303	43.12451	-17.90074	-27.66478	-24.4101	-75.67131	-71.60296	-39.05616	-33.36047	-30.10579	0
324	-45.56552	-52.88855	-7.32303	48.00653	-20.34175	-30.10579	-24.4101	-73.2303	-71.60296	-36.61515	-33.36047	-32.5468	0
325	-50.44754	-52.88855	-2.44101	50.44754	-25.22377	-27.66478	-24.4101	-73.2303	-69.16195	-36.61515	-33.36047	-34.98781	0
326	-52.88855	-52.88855	0	52.88855	-27.66478	-25.22377	-21.96909	-68.34828	-64.27993	-36.61515	-33.36047	-34.98781	0
327	-52.88855	-50.44754	2.44101	50.44754	-27.66478	-22.78276	-17.08707	-65.90727	-61.83892	-36.61515	-33.36047	-34.98781	0
328	-50.44754	-50.44754	0	50.44754	-25.22377	-25.22377	-17.08707	-68.34828	-61.83892	-36.61515	-33.36047	-34.98781	0
329	-50.44754	-50.44754	0	50.44754	-25.22377	-25.22377	-17.08707	-68.34828	-61.83892	-36.61515	-33.36047	-32.5468	0
330	-50.44754	-50.44754	0	50.44754	-25.22377	-25.22377	-17.08707	-68.34828	-61.83892	-36.61515	-33.36047	-32.5468	0
331	-48.00653	-48.00653	0	48.00653	-25.22377	-22.78276	-19.52808	-70.78929	-64.27993	-36.61515	-33.36047	-32.5468	0
332	-43.12451	-45.56552	-2.44101	43.12451	-20.34175	-22.78276	-19.52808	-70.78929	-66.72094	-36.61515	-33.36047	-32.5468	0
333	-38.24249	-45.56552	-7.32303	39.86983	-15.45973	-25.22377	-19.52808	-73.2303	-69.16195	-36.61515	-35.80148	-32.5468	0
334	-38.24249	-48.00653	-9.76404	43.12451	-15.45973	-27.66478	-19.52808	-73.2303	-69.16195	-39.05616	-35.80148	-34.98781	0
335	-38.24249	-52.88855	-14.64606	45.56552	-13.01872	-32.5468	-17.08707	-73.2303	-69.16195	-39.05616	-35.80148	-37.42882	0
336	-40.6835	-52.88855	-12.20505	45.56552	-15.45973	-32.5468	-17.08707	-68.34828	-66.72094	-39.05616	-35.80148	-37.42882	0
337	-40.6835	-52.88855	-12.20505	45.56552	-15.45973	-32.5468	-17.08707	-68.34828	-66.72094	-39.05616	-35.80148	-37.42882	0
338	-38.24249	-50.44754	-12.20505	43.12451	-13.01872	-30.10579	-14.64606	-65.90727	-64.27993	-41.49717	-35.80148	-37.42882	0
339	-35.80148	-50.44754	-14.64606	43.12451	-10.57771	-32.5468	-14.64606	-65.90727	-64.27993	-41.49717	-38.24249	-34.98781	0
340	-40.6835	-52.88855	-12.20505	45.56552	-15.45973	-32.5468	-14.64606	-65.90727	-64.27993	-41.49717	-38.24249	-34.98781	0
341	-45.56552	-55.32956	-9.76404	50.44754	-17.90074	-32.5468	-14.64606	-65.90727	-64.27993	-39.05616	-38.24249	-34.98781	0
342	-45.56552	-55.32956	-9.76404	50.44754	-17.90074	-32.5468	-14.64606	-63.46626	-64.27993	-36.61515	-38.24249	-32.5468	0
343	-45.56552	-52.88855	-7.32303	48.00653	-20.34175	-30.10579	-12.20505	-61.02525	-66.72094	-36.61515	-35.80148	-32.5468	0
344	-43.12451	-50.44754	-7.32303	45.56552	-17.90074	-27.66478	-7.32303	-58.58424	-61.83892	-34.17414	-35.80148	-34.98781	0
345	-45.56552	-50.44754	-4.88202	48.00653	-20.34175	-27.66478	-2.44101	-56.14323	-59.39791	-31.73313	-33.36047	-34.98781	0
346	-50.44754	-52.88855	-2.44101	50.44754	-25.22377	-27.66478	2.44101	-48.8202	-54.51589	-29.29212	-30.91946	-37.42882	0
347	-52.88855	-52.88855	0	52.88855	-27.66478	-25.22377	4.88202	-46.37919	-52.07488	-29.29212	-30.91946	-39.86983	0
348	-52.88855	-52.88855	0	52.88855	-27.66478	-25.22377	9.76404	-43.93818	-49.63387	-29.29212	-30.91946	-39.86983	0
349	-50.44754	-50.44754	0	50.44754	-25.22377	-25.22377	12.20505	-43.93818	-49.63387	-29.29212	-30.91946	-39.86983	0
350	-50.44754	-48.00653	2.44101	48.00653	-27.66478	-22.78276	12.20505	-43.93818	-49.63387	-29.29212	-33.36047	-39.86983	0
351	-50.44754	-48.00653	2.44101	48.00653	-27.66478	-22.78276	12.20505	-43.93818	-52.07488	-31.73313	-33.36047	-39.86983	0
352	-56.14323	-50.44754	4.88202	52.88855	-30.10579	-22.78276	12.20505	-41.49717	-54.51589	-31.73313	-33.36047	-39.86983	0
353	-56.14323	-55.32956	0	55.32956	-27.66478	-27.66478	12.20505	-41.49717	-54.51589	-31.73313	-33.36047	-39.86983	0
354	-56.14323	-55.32956	0	55.32956	-27.66478	-27.66478	14.64606	-41.49717	-56.9569	-34.17414	-35.80148	-44.75185	0
355	-52.88855	-55.32956	-2.44101	52.88855	-25.22377	-27.66478	14.64606	-43.93818	-59.39791	-36.61515	-35.80148	-47.19286	0
356	-52.88855	-55.32956	-2.44101	52.88855	-25.22377	-27.66478	14.64606	-41.49717	-59.39791	-36.61515	-35.80148	-49.63387	0
357	-52.88855	-55.32956	-2.44101	52.88855	-25.22377	-27.66478	14.64606	-41.49717	-59.39791	-39.05616	-35.80148	-49.63387	0
358	-56.14323	-57.77057	-2.44101	55.32956	-27.66478	-30.10579	14.64606	-39.05616	-59.39791	-41.49717	-35.80148	-52.07488	0
359	-56.14323	-57.77057	-2.44101	55.32956	-27.66478	-30.10579	17.08707	-39.05616	-59.39791	-41.49717	-35.80148	-52.07488	0
360	-52.88855	-57.77057	-4.88202	55.32956	-25.22377	-30.10579	17.08707	-39.05616	-59.39791	-41.49717	-35.80148	-49.63387	0
361	-48.00653	-55.32956	-7.32303	50.44754	-20.34175	-30.10579	14.64606	-39.05616	-61.83892	-41.49717	-35.80148	-49.63387	0
362	-40.6835	-55.32956	-14.64606	48.00653	-13.01872	-34.98781	14.64606	-39.05616	-61.83892	-41.49717	-35.80148	-47.19286	0
363	-40.6835	-52.88855	-12.20505	45.56552	-15.45973	-32.5468	17.08707	-34.17414	-59.39791	-39.05616	-33.36047	-47.19286	0
364	-48.00653	-52.88855	-4.88202	50.44754	-22.78276	-27.66478	19.52808	-31.73313	-56.9569	-39.05616	-33.36047	-47.19286	0
365	-48.00653	-55.32956	-7.32303	50.44754	-20.34175	-30.10579	24.4101	-29.29212	-54.51589	-39.05616	-33.36047	-47.19286	0
366	-50.44754	-55.32956	-4.88202	52.88855	-22.78276	-30.10579	26.85111	-26.85111	-49.63387	-39.05616	-33.36047	-47.19286	0
367	-52.88855	-55.32956	-2.44101	52.88855	-25.22377	-27.66478	29.29212	-21.96909	-47.19286	-39.05616	-33.36047	-47.19286	0
368	-56.14323	-55.32956	0	55.32956	-27.66478	-27.66478	29.29212	-21.96909	-47.19286	-41.49717	-33.36047	-47.19286	0
369	-56.14323	-55.32956	0	55.32956	-27.66478	-27.66478	29.29212	-21.96909	-47.19286	-41.49717	-33.36047	-47.19286	0
370	-56.14323	-52.88855	2.44101	52.88855	-30.10579	-25.22377	29.29212	-21.96909	-47.19286	-41.49717	-33.36047	-47.19286	0
371	-56.14323	-55.32956	0	55.32956	-27.66478	-27.66478	26.85111	-21.96909	-52.07488	-43.93818	-33.36047	-47.19286	0
372	-56.14323	-57.77057	-2.44101	55.32956	-27.66478	-30.10579	21.96909	-24.4101	-56.9569	-48.8202	-38.24249	-47.19286	0
373	-52.88855	-55.32956	-2.44101	52.88855	-25.22377	-27.66478	21.96909	-24.4101	-56.9569	-48.8202	-38.24249	-47.19286	0
374	-56.14323	-55.32956	0	55.32956	-27.66478	-27.66478	24.4101	-24.4101	-56.9569	-48.8202	-35.80148	-44.75185	0
375	-56.14323	-55.32956	0	55.32956	-27.66478	-27.66478	26.85111	-24.4101	-56.9569	-48.8202	-35.80148	-42.31084	0
376	-50.44754	-52.88855	-2.44101	50.44754	-25.22377	-27.66478	26.85111	-24.4101	-54.51589	-48.8202	-35.80148	-42.31084	0
377	-45.56552	-48.00653	-2.44101	45.56552	-22.78276	-25.22377	26.85111	-26.85111	-54.51589	-51.26121	-35.80148	-39.86983	0
378	-48.00653	-48.00653	0	48.00653	-25.22377	-22.78276	24.4101	-29.29212	-54.51589	-51.26121	-38.24249	-39.86983	0
379	-48.00653	-48.00653	0	48.00653	-25.22377	-22.78276	24.4101	-31.73313	-54.51589	-51.26121	-38.24249	-37.42882	0
380	-50.44754	-45.56552	4.88202	48.00653	-27.66478	-20.34175	24.4101	-31.73313	-54.51589	-51.26121	-38.24249	-32.5468	0
381	-56.14323	-45.56552	9.76404	50.44754	-32.5468	-17.90074	21.96909	-34.17414	-56.9569	-51.26121	-35.80148	-32.5468	0
382	-48.00653	-48.00653	0	48.00653	-25.22377	-22.78276	17.08707	-41.49717	-61.83892	-53.70222	-38.24249	-34.98781	0
383	-45.56552	-43.12451	2.44101	43.12451	-25.22377	-20.34175	17.08707	-43.93818	-64.27993	-53.70222	-38.24249	-37.42882	0
384	-45.56552	-43.12451	2.44101	43.12451	-25.22377	-20.34175	14.64606	-43.93818	-64.27993	-56.14323	-38.24249	-39.86983	0
385	-50.44754	-45.56552	4.88202	48.00653	-27.66478	-20.34175	14.64606	-46.37919	-66.72094	-56.14323	-38.24249	-42.31084	0
386	-52.88855	-45.56552	7.32303	48.00653	-30.10579	-17.90074	14.64606	-48.8202	-66.72094	-56.14323	-40.6835	-42.31084	0
387	-52.88855	-45.56552	7.32303	48.00653	-30.10579	-17.90074	14.64606	-48.8202	-66.72094	-56.14323	-38.24249	-39.86983	0
388	-56.14323	-45.56552	9.76404	50.44754	-32.5468	-17.90074	12.20505	-48.8202	-66.72094	-58.58424	-38.24249	-39.86983	0
389	-52.88855	-43.12451	9.76404	48.00653	-32.5468	-15.45973	12.20505	-48.8202	-69.16195	-61.02525	-40.6835	-39.86983	0
390	-50.44754	-38.24249	12.20505	43.12451	-32.5468	-13.01872	9.76404	-51.26121	-69.16195	-61.02525	-43.12451	-37.42882	0
391	-48.00653	-38.24249	9.76404	43.12451	-30.10579	-13.01872	7.32303	-51.26121	-71.60296	-61.02525	-43.12451	-37.42882	0
392	-45.56552	-40.6835	4.88202	43.12451	-25.22377	-17.90074	7.32303	-51.26121	-71.60296	-61.02525	-45.56552	-34.98781	0
393	-45.56552	-43.12451	2.44101	43.12451	-25.22377	-20.34175	4.88202	-51.26121	-71.60296	-61.02525	-45.56552	-34.98781	0
394	-43.12451	-40.6835	2.44101	39.86983	-22.78276	-17.90074	4.88202	-51.26121	-71.60296	-61.02525	-43.12451	-37.42882	0
395	-40.6835	-40.6835	0	39.86983	-20.34175	-20.34175	4.88202	-53.70222	-71.60296	-63.46626	-43.12451	-37.42882	0
396	-40.6835	-43.12451	-2.44101	39.86983	-20.34175	-22.78276	2.44101	-58.58424	-74.04397	-68.34828	-45.56552	-42.31084	0
397	-38.24249	-43.12451	-4.88202	39.86983	-17.90074	-22.78276	0	-58.58424	-74.04397	-68.34828	-48.00653	-42.31084	0
398	-35.80148	-40.6835	-4.88202	37.42882	-15.45973	-22.78276	0	-61.02525	-74.04397	-68.34828	-45.56552	-42.31084	0
399	-40.6835	-43.12451	-2.44101	39.86983	-20.34175	-22.78276	-2.44101	-63.46626	-76.48498	-68.34828	-43.12451	-39.86983	0
400	-43.12451	-43.12451	0	43.12451	-22.78276	-20.34175	-2.44101	-63.46626	-76.48498	-68.34828	-40.6835	-39.86983	0
401	-45.56552	-43.12451	2.44101	43.12451	-25.22377	-20.34175	-2.44101	-63.46626	-78.92599	-68.34828	-40.6835	-37.42882	0
402	-48.00653	-43.12451	4.88202	45.56552	-27.66478	-17.90074	-2.44101	-65.90727	-78.92599	-65.90727	-38.24249	-34.98781	0
403	-50.44754	-48.00653	2.44101	48.00653	-27.66478	-22.78276	-2.44101	-65.90727	-78.92599	-65.90727	-35.80148	-34.98781	0
404	-50.44754	-48.00653	2.44101	48.00653	-27.66478	-22.78276	-4.88202	-63.46626	-76.48498	-63.46626	-35.80148	-34.98781	0
405	-52.88855	-50.44754	2.44101	50.44754	-27.66478	-22.78276	-2.44101	-63.46626	-74.04397	-61.02525	-35.80148	-34.98781	0
406	-56.14323	-50.44754	4.88202	52.88855	-30.10579	-22.78276	-2.44101	-63.46626	-74.04397	-61.02525	-33.36047	-32.5468	0
407	-56.14323	-52.88855	2.44101	52.88855	-30.10579	-25.22377	-2.44101	-63.46626	-71.60296	-61.02525	-33.36047	-30.10579	0
408	-52.88855	-52.88855	0	52.88855	-27.66478	-25.22377	-4.88202	-65.90727	-71.60296	-58.58424	-33.36047	-30.10579	0
409	-48.00653	-50.44754	-2.44101	48.00653	-22.78276	-25.22377	-7.32303	-68.34828	-74.04397	-58.58424	-33.36047	-27.66478	0
410	-43.12451	-48.00653	-4.88202	45.56552	-20.34175	-25.22377	-12.20505	-68.34828	-76.48498	-58.58424	-33.36047	-30.10579	0
411	-40.6835	-48.00653	-7.32303	43.12451	-17.90074	-27.66478	-12.20505	-70.78929	-78.92599	-56.14323	-30.91946	-30.10579	0
412	-38.24249	-48.00653	-9.76404	43.12451	-15.45973	-27.66478	-14.64606	-73.2303	-81.367	-56.14323	-30.91946	-30.10579	0
413	-40.6835	-50.44754	-9.76404	45.56552	-15.45973	-30.10579	-17.08707	-75.67131	-81.367	-56.14323	-30.91946	-34.98781	0
414	-38.24249	-48.00653	-9.76404	43.12451	-15.45973	-27.66478	-19.52808	-75.67131	-81.367	-56.14323	-30.91946	-39.86983	0
415	-38.24249	-48.00653	-9.76404	43.12451	-15.45973	-27.66478	-19.52808	-75.67131	-81.367	-58.58424	-28.47845	-39.86983	0
416	-38.24249	-45.56552	-7.32303	39.86983	-15.45973	-25.22377	-19.52808	-75.67131	-81.367	-58.58424	-26.03744	-39.86983	0
417	-35.80148	-43.12451	-7.32303	39.86983	-15.45973	-25.22377	-21.96909	-75.67131	-81.367	-58.58424	-26.03744	-39.86983	0
418	-33.36047	-43.12451	-9.76404	37.42882	-13.01872	-25.22377	-26.85111	-80.55333	-83.80801	-61.02525	-28.47845	-42.31084	0
419	-33.36047	-45.56552	-12.20505	39.86983	-10.57771	-27.66478	-26.85111	-82.99434	-86.24902	-63.46626	-28.47845	-42.31084	0
420	-33.36047	-45.56552	-12.20505	39.86983	-10.57771	-27.66478	-31.73313	-87.87636	-88.69003	-65.90727	-30.91946	-42.31084	0
421	-35.80148	-43.12451	-7.32303	39.86983	-15.45973	-25.22377	-31.73313	-87.87636	-88.69003	-65.90727	-30.91946	-39.86983	0
422	-38.24249	-43.12451	-4.88202	39.86983	-17.90074	-22.78276	-31.73313	-87.87636	-91.13104	-65.90727	-28.47845	-34.98781	0
423	-33.36047	-40.6835	-7.32303	37.42882	-13.01872	-22.78276	-29.29212	-87.87636	-88.69003	-63.46626	-26.03744	-34.98781	0
424	-33.36047	-40.6835	-7.32303	37.42882	-13.01872	-22.78276	-31.73313	-87.87636	-88.69003	-61.02525	-26.03744	-34.98781	-1500	QRS-0
425	-33.36047	-43.12451	-9.76404	37.42882	-13.01872	-25.22377	-31.73313	-87.87636	-88.69003	-61.02525	-26.03744	-34.98781	0
426	-35.80148	-45.56552	-9.76404	39.86983	-13.01872	-27.66478	-31.73313	-90.31737	-88.69003	-63.46626	-26.03744	-32.5468	0
427	-38.24249	-43.12451	-4.88202	39.86983	-17.90074	-22.78276	-31.73313	-90.31737	-86.24902	-63.46626	-23.59643	-27.66478	0
428	-40.6835	-43.12451	-2.44101	39.86983	-20.34175	-22.78276	-29.29212	-87.87636	-83.80801	-61.02525	-18.71441	-22.78276	0
429	-35.80148	-38.24249	-2.44101	37.42882	-17.90074	-20.34175	-29.29212	-85.43535	-83.80801	-58.58424	-16.2734	-20.34175	0
430	-30.91946	-33.36047	-2.44101	32.5468	-15.45973	-17.90074	-31.73313	-85.43535	-83.80801	-56.14323	-16.2734	-17.90074	0
431	-28.47845	-30.91946	-2.44101	30.10579	-13.01872	-15.45973	-34.17414	-87.87636	-83.80801	-56.14323	-16.2734	-17.90074	0
432	-26.03744	-30.91946	-4.88202	27.66478	-10.57771	-17.90074	-34.17414	-87.87636	-86.24902	-56.14323	-16.2734	-20.34175	0
433	-21.15542	-26.03744	-4.88202	22.78276	-8.1367	-15.45973	-34.17414	-85.43535	-81.367	-51.26121	-13.83239	-17.90074	0
434	-21.15542	-15.45973	4.88202	17.90074	-13.01872	-5.69569	-29.29212	-78.11232	-74.04397	-43.93818	-8.95037	-17.90074	0
435	-18.71441	-8.1367	9.76404	13.01872	-13.01872	1.62734	-26.85111	-73.2303	-69.16195	-36.61515	-4.06835	-12.20505	0
436	-13.83239	-3.25468	9.76404	8.1367	-10.57771	4.88202	-24.4101	-70.78929	-64.27993	-34.17414	-4.06835	-12.20505	0
437	-6.50936	1.62734	7.32303	3.25468	-5.69569	4.88202	-26.85111	-70.78929	-61.83892	-31.73313	-0.81367	-7.32303	0
438	-1.62734	11.39138	12.20505	-4.06835	-5.69569	12.20505	-26.85111	-70.78929	-56.9569	-26.85111	4.06835	-2.44101	0
439	3.25468	16.2734	12.20505	-8.95037	-3.25468	14.64606	-26.85111	-68.34828	-54.51589	-21.96909	8.95037	2.44101	0
440	5.69569	26.03744	19.52808	-16.2734	-5.69569	24.4101	-29.29212	-65.90727	-52.07488	-17.08707	13.83239	9.76404	0
441	5.69569	28.47845	21.96909	-16.2734	-8.1367	26.85111	-26.85111	-63.46626	-49.63387	-12.20505	18.71441	12.20505	0
442	5.69569	30.91946	24.4101	-18.71441	-8.1367	29.29212	-24.4101	-63.46626	-49.63387	-9.76404	23.59643	17.08707	0
443	8.1367	38.24249	29.29212	-23.59643	-10.57771	34.17414	-24.4101	-63.46626	-44.75185	-4.88202	28.47845	19.52808	0
444	15.45973	50.44754	34.98781	-33.36047	-8.1367	43.93818	-19.52808	-58.58424	-42.31084	-2.44101	33.36047	19.52808	0
445	17.90074	60.21158	42.31084	-38.24249	-10.57771	51.26121	-12.20505	-53.70222	-34.98781	3.25468	40.6835	24.4101	0
446	25.22377	67.53461	42.31084	-45.56552	-8.1367	56.14323	-7.32303	-51.26121	-27.66478	8.1367	45.56552	29.29212	0
447	27.66478	77.29865	49.63387	-52.88855	-10.57771	63.46626	0	-46.37919	-22.78276	13.01872	50.44754	31.73313	0
448	34.98781	82.18067	47.19286	-57.77057	-5.69569	65.90727	2.44101	-43.93818	-17.90074	17.90074	55.32956	36.61515	0
449	42.31084	89.5037	47.19286	-65.0936	-0.81367	68.34828	2.44101	-41.49717	-17.90074	20.34175	55.32956	41.49717	0
450	49.63387	96.82673	47.19286	-72.41663	1.62734	73.2303	-4.88202	-41.49717	-15.45973	22.78276	55.32956	43.93818	0
451	52.07488	96.82673	44.75185	-74.85764	4.06835	70.78929	-7.32303	-41.49717	-15.45973	25.22377	57.77057	46.37919	0
452	52.07488	94.38572	42.31084	-72.41663	6.50936	68.34828	-12.20505	-41.49717	-15.45973	27.66478	57.77057	48.8202	0
453	54.51589	94.38572	39.86983	-74.85764	8.95037	68.34828	-21.96909	-41.49717	-15.45973	27.66478	57.77057	48.8202	0
454	54.51589	89.5037	34.98781	-72.41663	11.39138	63.46626	-34.17414	-41.49717	-15.45973	27.66478	57.77057	46.37919	0
455	52.07488	84.62168	32.5468	-67.53461	11.39138	58.58424	-46.37919	-46.37919	-17.90074	25.22377	55.32956	43.93818	0
456	52.07488	82.18067	29.29212	-67.53461	11.39138	56.14323	-61.02525	-51.26121	-20.34175	20.34175	52.88855	41.49717	0
457	49.63387	79.73966	29.29212	-65.0936	11.39138	56.14323	-73.2303	-53.70222	-22.78276	20.34175	52.88855	41.49717	0
458	49.63387	77.29865	26.85111	-62.65259	11.39138	53.70222	-82.99434	-58.58424	-25.22377	20.34175	52.88855	41.49717	0
459	52.07488	77.29865	24.4101	-65.0936	13.83239	51.26121	-92.75838	-61.02525	-27.66478	15.45973	52.88855	41.49717	0
460	59.39791	79.73966	19.52808	-69.97562	21.15542	51.26121	-102.52242	-65.90727	-34.98781	13.01872	52.88855	39.05616	0
461	66.72094	79.73966	12.20505	-72.41663	28.47845	46.37919	-109.84545	-70.78929	-39.86983	10.57771	52.88855	36.61515	0
462	69.16195	77.29865	7.32303	-72.41663	30.91946	43.93818	-114.72747	-73.2303	-42.31084	8.1367	52.88855	36.61515	0
463	76.48498	77.29865	0	-77.29865	38.24249	39.05616	-117.16848	-75.67131	-42.31084	8.1367	52.88855	34.17414	0
464	83.80801	72.41663	-12.20505	-77.29865	48.00653	31.73313	-119.60949	-75.67131	-44.75185	3.25468	48.00653	26.85111	0
465	88.69003	65.0936	-24.4101	-77.29865	57.77057	21.96909	-119.60949	-75.67131	-47.19286	0.81367	43.12451	21.96909	0
466	91.13104	57.77057	-34.17414	-74.85764	62.65259	12.20505	-117.16848	-78.11232	-47.19286	-2.44101	38.24249	17.08707	0
467	91.13104	50.44754	-41.49717	-69.97562	67.53461	4.88202	-114.72747	-78.11232	-49.63387	-4.88202	33.36047	14.64606	0
468	88.69003	38.24249	-51.26121	-62.65259	69.97562	-5.69569	-114.72747	-80.55333	-49.63387	-9.76404	28.47845	9.76404	0
469	88.69003	28.47845	-61.02525	-57.77057	74.85764	-15.45973	-114.72747	-80.55333	-52.07488	-9.76404	23.59643	9.76404	0
470	86.24902	21.15542	-65.90727	-52.88855	77.29865	-22.78276	-114.72747	-82.99434	-56.9569	-12.20505	21.15542	9.76404	0
471	81.367	13.83239	-68.34828	-48.00653	74.85764	-27.66478	-114.72747	-85.43535	-59.39791	-14.64606	18.71441	9.76404	0
472	74.04397	8.95037	-65.90727	-40.6835	69.97562	-27.66478	-112.28646	-85.43535	-64.27993	-14.64606	18.71441	12.20505	0
473	69.16195	8.95037	-61.02525	-38.24249	65.0936	-25.22377	-112.28646	-90.31737	-64.27993	-17.08707	21.15542	14.64606	0
474	59.39791	8.95037	-51.26121	-33.36047	55.32956	-20.34175	-112.28646	-90.31737	-64.27993	-17.08707	23.59643	14.64606	0
475	54.51589	8.95037	-46.37919	-30.91946	50.44754	-17.90074	-109.84545	-92.75838	-69.16195	-17.08707	26.03744	17.08707	0
476	47.19286	6.50936	-41.49717	-26.03744	45.56552	-17.90074	-107.40444	-97.6404	-69.16195	-21.96909	23.59643	17.08707	0
477	37.42882	4.06835	-34.17414	-21.15542	35.80148	-15.45973	-107.40444	-102.52242	-74.04397	-24.4101	21.15542	17.08707	0
478	22.78276	-0.81367	-24.4101	-11.39138	23.59643	-13.01872	-104.96343	-107.40444	-78.92599	-29.29212	16.2734	14.64606	0
479	15.45973	-5.69569	-21.96909	-4.06835	18.71441	-13.01872	-102.52242	-112.28646	-83.80801	-34.17414	11.39138	9.76404	0
480	8.1367	-8.1367	-17.08707	0.81367	13.83239	-13.01872	-100.08141	-114.72747	-88.69003	-39.05616	4.06835	4.88202	0
481	-1.62734	-17.90074	-17.08707	10.57771	8.95037	-17.90074	-95.19939	-117.16848	-93.57205	-43.93818	-4.06835	-2.44101	0
482	-11.39138	-26.03744	-14.64606	17.90074	1.62734	-20.34175	-87.87636	-119.60949	-96.01306	-46.37919	-6.50936	-12.20505	0
483	-21.15542	-33.36047	-12.20505	27.66478	-5.69569	-22.78276	-82.99434	-119.60949	-96.01306	-51.26121	-13.83239	-17.90074	0
484	-28.47845	-40.6835	-12.20505	34.98781	-8.1367	-25.22377	-75.67131	-117.16848	-96.01306	-53.70222	-16.2734	-27.66478	0
485	-28.47845	-45.56552	-17.08707	37.42882	-5.69569	-30.10579	-70.78929	-117.16848	-98.45407	-56.14323	-18.71441	-34.98781	0
486	-26.03744	-48.00653	-21.96909	37.42882	-3.25468	-34.98781	-68.34828	-117.16848	-98.45407	-58.58424	-21.15542	-39.86983	0
487	-26.03744	-48.00653	-21.96909	37.42882	-3.25468	-34.98781	-63.46626	-114.72747	-98.45407	-58.58424	-21.15542	-39.86983	0
488	-26.03744	-50.44754	-24.4101	37.42882	-0.81367	-37.42882	-63.46626	-114.72747	-98.45407	-58.58424	-21.15542	-42.31084	0
489	-30.91946	-50.44754	-19.52808	39.86983	-5.69569	-34.98781	-63.46626	-114.72747	-98.45407	-58.58424	-21.15542	-42.31084	0
490	-33.36047	-45.56552	-12.20505	39.86983	-10.57771	-27.66478	-63.46626	-114.72747	-98.45407	-58.58424	-21.15542	-39.86983	0
491	-35.80148	-50.44754	-14.64606	43.12451	-10.57771	-32.5468	-65.90727	-114.72747	-100.89508	-58.58424	-23.59643	-39.86983	0
492	-35.80148	-52.88855	-17.08707	43.12451	-10.57771	-34.98781	-65.90727	-114.72747	-100.89508	-61.02525	-26.03744	-39.86983	0
493	-45.56552	-55.32956	-9.76404	50.44754	-17.90074	-32.5468	-63.46626	-114.72747	-100.89508	-61.02525	-26.03744	-37.42882	0
494	-50.44754	-60.21158	-9.76404	55.32956	-20.34175	-34.98781	-61.02525	-109.84545	-98.45407	-58.58424	-26.03744	-37.42882	0
495	-52.88855	-65.0936	-12.20505	57.77057	-20.34175	-37.42882	-61.02525	-109.84545	-96.01306	-58.58424	-26.03744	-37.42882	0
496	-58.58424	-67.53461	-9.76404	62.65259	-25.22377	-39.86983	-58.58424	-107.40444	-93.57205	-58.58424	-26.03744	-37.42882	0
497	-58.58424	-67.53461	-9.76404	62.65259	-25.22377	-39.86983	-56.14323	-104.96343	-91.13104	-58.58424	-23.59643	-32.5468	0
498	-56.14323	-67.53461	-12.20505	60.21158	-22.78276	-39.86983	-56.14323	-104.96343	-91.13104	-56.14323	-21.15542	-30.10579	0
499	-56.14323	-67.53461	-12.20505	60.21158	-22.78276	-39.86983	-56.14323	-104.96343	-91.13104	-56.14323	-21.15542	-27.66478	0
500	-52.88855	-67.53461	-14.64606	60.21158	-20.34175	-39.86983	-56.14323	-104.96343	-93.57205	-56.14323	-18.71441	-27.66478	0
501	-43.12451	-65.0936	-21.96909	52.88855	-10.57771	-42.31084	-56.14323	-104.96343	-96.01306	-56.14323	-18.71441	-30.10579	0
502	-40.6835	-65.0936	-24.4101	52.88855	-8.1367	-44.75185	-56.14323	-104.96343	-96.01306	-56.14323	-18.71441	-32.5468	0
503	-45.56552	-67.53461	-21.96909	55.32956	-13.01872	-44.75185	-53.70222	-102.52242	-93.57205	-56.14323	-21.15542	-34.98781	0
504	-43.12451	-67.53461	-24.4101	55.32956	-10.57771	-44.75185	-51.26121	-100.08141	-88.69003	-53.70222	-23.59643	-39.86983	0
505	-40.6835	-67.53461	-26.85111	52.88855	-8.1367	-47.19286	-46.37919	-95.19939	-88.69003	-53.70222	-26.03744	-42.31084	0
506	-43.12451	-72.41663	-29.29212	57.77057	-8.1367	-49.63387	-43.93818	-95.19939	-83.80801	-53.70222	-30.91946	-44.75185	0
507	-48.00653	-77.29865	-29.29212	62.65259	-10.57771	-52.07488	-41.49717	-90.31737	-78.92599	-53.70222	-30.91946	-47.19286	0
508	-50.44754	-79.73966	-29.29212	65.0936	-10.57771	-54.51589	-39.05616	-87.87636	-78.92599	-53.70222	-30.91946	-47.19286	0
509	-52.88855	-79.73966	-26.85111	65.0936	-13.01872	-52.07488	-39.05616	-87.87636	-76.48498	-53.70222	-33.36047	-44.75185	0
510	-56.14323	-79.73966	-24.4101	67.53461	-15.45973	-52.07488	-39.05616	-85.43535	-76.48498	-53.70222	-33.36047	-42.31084	0
511	-58.58424	-79.73966	-21.96909	67.53461	-17.90074	-52.07488	-36.61515	-85.43535	-76.48498	-53.70222	-30.91946	-37.42882	0
512	-58.58424	-79.73966	-21.96909	67.53461	-17.90074	-52.07488	-36.61515	-85.43535	-78.92599	-53.70222	-28.47845	-32.5468	0
513	-56.14323	-77.29865	-21.96909	65.0936	-17.90074	-49.63387	-36.61515	-85.43535	-76.48498	-51.26121	-26.03744	-32.5468	0
514	-56.14323	-77.29865	-21.96909	65.0936	-17.90074	-49.63387	-36.61515	-82.99434	-74.04397	-51.26121	-23.59643	-32.5468	0
515	-56.14323	-74.85764	-19.52808	65.0936	-17.90074	-47.19286	-31.73313	-80.55333	-74.04397	-48.8202	-23.59643	-32.5468	0
516	-52.88855	-72.41663	-19.52808	62.65259	-17.90074	-44.75185	-31.73313	-80.55333	-71.60296	-51.26121	-23.59643	-37.42882	0
517	-52.88855	-72.41663	-19.52808	62.65259	-17.90074	-44.75185	-31.73313	-78.11232	-69.16195	-51.26121	-28.47845	-39.86983	0
518	-52.88855	-69.97562	-17.08707	60.21158	-17.90074	-42.31084	-29.29212	-75.67131	-69.16195	-51.26121	-28.47845	-42.31084	0
519	-56.14323	-69.97562	-14.64606	62.65259	-20.34175	-42.31084	-26.85111	-75.67131	-69.16195	-51.26121	-30.91946	-42.31084	0
520	-56.14323	-69.97562	-14.64606	62.65259	-20.34175	-42.31084	-26.85111	-75.67131	-69.16195	-51.26121	-33.36047	-44.75185	0
521	-61.02525	-72.41663	-12.20505	65.0936	-25.22377	-42.31084	-29.29212	-75.67131	-71.60296	-51.26121	-33.36047	-44.75185	0
522	-63.46626	-72.41663	-9.76404	67.53461	-27.66478	-42.31084	-29.29212	-75.67131	-71.60296	-51.26121	-33.36047	-47.19286	0
523	-63.46626	-72.41663	-9.76404	67.53461	-27.66478	-42.31084	-29.29212	-78.11232	-71.60296	-53.70222	-33.36047	-47.19286	0
524	-61.02525	-72.41663	-12.20505	65.0936	-25.22377	-42.31084	-29.29212	-78.11232	-71.60296	-53.70222	-30.91946	-44.75185	0
525	-65.90727	-69.97562	-4.88202	67.53461	-30.10579	-37.42882	-26.85111	-75.67131	-71.60296	-51.26121	-28.47845	-42.31084	0
526	-65.90727	-69.97562	-4.88202	67.53461	-30.10579	-37.42882	-24.4101	-75.67131	-69.16195	-51.26121	-26.03744	-39.86983	0
527	-65.90727	-69.97562	-4.88202	67.53461	-30.10579	-37.42882	-21.96909	-80.55333	-71.60296	-56.14323	-28.47845	-39.86983	0
528	-65.90727	-69.97562	-4.88202	67.53461	-30.10579	-37.42882	-17.08707	-82.99434	-76.48498	-61.02525	-30.91946	-42.31084	0
529	-65.90727	-69.97562	-4.88202	67.53461	-30.10579	-37.42882	-12.20505	-85.43535	-81.367	-63.46626	-35.80148	-42.31084	0
530	-75.67131	-72.41663	2.44101	72.41663	-39.86983	-34.98781	-24.4101	-90.31737	-91.13104	-73.2303	-43.12451	-47.19286	0
531	-87.87636	-84.62168	2.44101	84.62168	-45.56552	-42.31084	-17.08707	-100.08141	-105.7771	-87.87636	-55.32956	-56.9569	0
532	-104.96343	-99.26774	4.88202	101.70875	-55.32956	-47.19286	26.85111	-109.84545	-125.30518	-104.96343	-69.97562	-69.16195	0
533	-119.60949	-111.47279	7.32303	113.9138	-65.0936	-52.07488	51.26121	-112.28646	-137.51023	-122.0505	-84.62168	-81.367	0
534	-131.81454	-128.55986	2.44101	128.55986	-67.53461	-64.27993	80.55333	-112.28646	-149.71528	-141.57858	-99.26774	-96.01306	0
535	-146.4606	-145.64693	0	145.64693	-74.85764	-74.04397	112.28646	-104.96343	-157.03831	-158.66565	-116.35481	-110.65912	0
536	-156.22464	-162.734	-7.32303	157.85198	-74.85764	-86.24902	152.15629	-102.52242	-169.24336	-178.19373	-131.00087	-120.42316	0
537	-168.42969	-179.82107	-12.20505	172.49804	-79.73966	-96.01306	198.53548	-90.31737	-169.24336	-195.2808	-143.20592	-132.62821	0
538	-170.8707	-192.02612	-21.96909	179.82107	-74.85764	-108.21811	242.47366	-61.02525	-159.47932	-209.92686	-152.96996	-139.95124	0
539	-170.8707	-221.31824	-51.26121	194.46713	-60.21158	-137.51023	293.73487	-61.02525	-179.0074	-214.80888	-157.85198	-142.39225	0
540	-183.07575	-233.52329	-51.26121	206.67218	-67.53461	-142.39225	323.02699	-90.31737	-218.06356	-214.80888	-155.41097	-139.95124	0
541	-165.98868	-199.34915	-34.17414	182.26208	-67.53461	-117.98215	318.14497	-102.52242	-230.26861	-214.80888	-150.52895	-135.06922	0
542	-144.01959	-194.46713	-51.26121	167.61602	-48.00653	-122.86417	264.44275	-87.87636	-210.74053	-227.01393	-148.08794	-125.30518	0
543	-134.25555	-196.90814	-63.46626	165.17501	-34.98781	-130.1872	166.80235	-87.87636	-213.18154	-241.65999	-133.44188	-125.30518	0
544	-102.52242	-172.49804	-70.78929	135.88289	-15.45973	-122.86417	122.86417	-90.31737	-222.94558	-253.86504	-116.35481	-115.54114	0
545	-92.75838	-179.82107	-87.87636	135.88289	-3.25468	-135.06922	125.30518	-151.34262	-296.17588	-261.18807	-121.23683	-100.89508	0
546	-8.95037	-177.38006	-168.42969	91.94471	79.73966	-171.68437	46.37919	-319.77231	-442.63648	-261.18807	-174.93905	-147.27427	0
547	52.07488	-145.64693	-197.72181	45.56552	123.67784	-171.68437	-87.87636	-537.0222	-567.12799	-261.18807	-152.96996	-120.42316	0
548	74.04397	-87.06269	-161.10666	5.69569	116.35481	-122.86417	-236.77797	-722.53896	-664.76839	-256.30605	-116.35481	-81.367	0
549	149.71528	13.83239	-136.69656	-82.18067	143.20592	-61.83892	-449.14584	-812.85633	-672.09142	-248.98302	-45.56552	-17.90074	0
550	181.44841	69.97562	-112.28646	-126.11885	148.08794	-20.34175	-700.56987	-908.05572	-672.09142	-217.24989	23.59643	48.8202	0
551	291.29386	170.05703	-122.0505	-231.08228	206.67218	24.4101	-981.28602	-1100.89551	-752.64475	-187.95777	91.94471	126.93252	0
552	398.6983	267.69743	-131.81454	-333.6047	265.25642	68.34828	-1335.23247	-1323.02742	-840.52111	-161.10666	172.49804	214.80888	0
553	518.30779	399.51197	-119.60949	-458.09621	318.95864	141.57858	-1669.65084	-1545.15933	-933.27949	-112.28646	282.34349	322.21332	0
554	576.89203	499.59338	-78.11232	-538.64954	328.72268	212.36787	-1957.69002	-1725.79407	-994.30474	-75.67131	358.0148	400.32564	0
555	674.53243	589.91075	-85.43535	-631.40792	379.98389	253.86504	-2277.46233	-1938.16194	-1082.1811	-51.26121	423.92207	488.202	0
556	845.40313	726.60731	-119.60949	-785.19155	482.50631	305.12625	-2650.93686	-2206.67304	-1235.96473	-197.72181	443.45015	568.75533	0
557	945.48454	846.2168	-100.08141	-895.037	524.00348	373.47453	-2809.60251	-2350.69263	-1326.2821	-248.98302	467.86025	646.86765	0
558	999.18676	863.30387	-136.69656	-931.65215	567.94166	363.71049	-2926.77099	-2455.65606	-1480.06573	-290.48019	421.48106	671.27775	0
559	1045.56595	931.65215	-114.72747	-987.79538	580.14671	410.08968	-3019.52937	-2575.26555	-1633.84936	-405.20766	419.04005	749.39007	0
560	1096.82716	965.82629	-131.81454	-1031.73356	614.32085	417.41271	-3104.96472	-2663.14191	-1780.30996	-524.81715	409.27601	800.65128	0
561	1118.79625	1031.73356	-87.87636	-1075.67174	604.55681	473.55594	-3117.16977	-2587.4706	-1826.68915	-595.60644	401.95298	847.03047	0
562	1162.73443	1104.96386	-58.58424	-1134.25598	611.87984	524.81715	-3029.29341	-2431.24596	-1770.54592	-598.04745	345.80975	881.20461	0
563	1255.49281	1021.96952	-234.33696	-1139.138	746.13539	395.44362	-2858.42271	-2121.23769	-1555.73704	-527.25816	323.84066	803.09229	0
564	1292.10796	819.36569	-473.55594	-1056.14366	882.83195	173.31171	-2599.67565	-1784.37831	-1292.10796	-454.02786	306.75359	668.83674	0
565	1328.72311	675.3461	-654.19068	-1002.44144	992.6774	12.20505	-2340.92859	-1471.92903	-1011.39181	-336.85938	299.43056	637.10361	0
566	1333.60513	599.67479	-734.74401	-965.82629	1034.17457	-66.72094	-2128.56072	-1181.44884	-745.32172	-209.92686	289.66652	598.04745	0
567	1306.75402	565.50065	-742.06704	-936.53417	1024.41053	-88.69003	-1903.9878	-937.34784	-503.66173	-68.34828	275.02046	549.22725	0
568	1282.34392	563.05964	-720.09795	-921.88811	1002.44144	-78.92599	-1647.68175	-595.60644	-191.21245	105.7771	265.25642	534.58119	0
569	1223.75968	497.15237	-727.42098	-860.86286	975.59033	-115.54114	-1384.05267	-297.80322	82.99434	274.20679	265.25642	527.25816	0
570	1231.08271	465.41924	-766.47714	-848.65781	1000.00043	-149.71528	-1235.15106	-163.54767	202.60383	315.70396	270.13844	515.05311	0
571	1211.55463	401.95298	-810.41532	-807.16064	1012.20548	-203.4175	-1144.83369	-126.93252	200.16282	237.59164	270.13844	466.23291	0
572	1135.88332	375.10187	-761.59512	-755.89943	948.73922	-193.65346	-1047.19329	-207.48585	161.10666	205.85851	260.3744	468.67392	0
573	1065.09403	345.80975	-720.09795	-704.63822	892.59599	-186.33043	-944.67087	-283.15716	109.84545	198.53548	243.28733	439.3818	0
574	928.39747	306.75359	-622.45755	-616.76186	775.42751	-157.03831	-793.32825	-336.85938	43.93818	176.56639	218.87723	412.53069	0
575	806.34697	243.28733	-563.87331	-524.00348	685.11014	-159.47932	-678.60078	-434.49978	-105.7771	81.367	194.46713	346.62342	0
576	659.88637	201.79016	-458.90988	-431.2451	560.61863	-127.74619	-546.78624	-439.3818	-154.5973	74.04397	172.49804	285.59817	0
577	513.42577	172.49804	-341.7414	-343.36874	428.80409	-83.80801	-397.88463	-454.02786	-186.33043	100.89508	145.64693	239.21898	0
578	318.14497	84.62168	-234.33696	-201.79016	277.46147	-74.04397	-241.65999	-341.7414	-64.27993	86.24902	118.79582	158.66565	0
579	169.24336	30.91946	-139.13757	-99.26774	155.41097	-54.51589	-100.08141	-219.6909	-56.9569	69.16195	89.5037	102.52242	0
580	86.24902	11.39138	-75.67131	-48.00653	82.18067	-32.5468	-21.96909	-144.01959	-32.5468	64.27993	67.53461	58.58424	0
581	17.90074	-13.01872	-31.73313	-1.62734	26.03744	-22.78276	51.26121	-73.2303	-0.81367	59.39791	48.00653	26.85111	0
582	-11.39138	-65.0936	-53.70222	37.42882	21.15542	-59.39791	73.2303	-7.32303	33.36047	52.07488	28.47845	-20.34175	0
583	-78.11232	-96.82673	-19.52808	87.06269	-30.10579	-59.39791	104.96343	91.13104	58.58424	44.75185	11.39138	-17.90074	0
584	-82.99434	-69.97562	12.20505	74.85764	-48.00653	-30.10579	137.51023	122.86417	80.55333	37.42882	-0.81367	-30.10579	0
585	-63.46626	-69.97562	-7.32303	65.0936	-27.66478	-39.86983	159.47932	137.51023	92.75838	32.5468	-6.50936	-20.34175	0
586	-107.40444	-62.65259	44.75185	84.62168	-77.29865	-10.57771	157.03831	137.51023	102.52242	27.66478	-8.95037	-32.5468	0
587	-75.67131	-77.29865	-2.44101	74.85764	-37.42882	-39.86983	154.5973	139.95124	117.16848	27.66478	-8.95037	-44.75185	0
588	-92.75838	-77.29865	14.64606	84.62168	-55.32956	-32.5468	157.03831	137.51023	107.40444	30.10579	-8.95037	-27.66478	0
589	-107.40444	-55.32956	52.07488	79.73966	-79.73966	-3.25468	164.36134	144.83326	109.84545	30.10579	-8.95037	-27.66478	0
590	-95.19939	-65.0936	29.29212	79.73966	-62.65259	-17.90074	164.36134	137.51023	107.40444	30.10579	-8.95037	-27.66478	0
591	-92.75838	-62.65259	29.29212	77.29865	-62.65259	-17.90074	166.80235	137.51023	104.96343	30.10579	-8.95037	-30.10579	0
592	-92.75838	-62.65259	29.29212	77.29865	-62.65259	-17.90074	171.68437	137.51023	104.96343	30.10579	-8.95037	-30.10579	0
593	-95.19939	-62.65259	32.5468	77.29865	-65.0936	-15.45973	174.12538	137.51023	104.96343	30.10579	-8.95037	-30.10579	0
594	-92.75838	-62.65259	29.29212	77.29865	-62.65259	-17.90074	174.12538	139.95124	104.96343	30.10579	-8.95037	-32.5468	0
595	-95.19939	-60.21158	34.98781	77.29865	-65.0936	-13.01872	179.0074	142.39225	107.40444	32.5468	-8.95037	-32.5468	0
596	-97.6404	-60.21158	37.42882	77.29865	-67.53461	-13.01872	181.44841	147.27427	109.84545	32.5468	-6.50936	-32.5468	0
597	-97.6404	-60.21158	37.42882	77.29865	-67.53461	-13.01872	183.88942	147.27427	112.28646	34.98781	-6.50936	-32.5468	0
598	-102.52242	-60.21158	42.31084	79.73966	-72.41663	-10.57771	186.33043	152.15629	114.72747	37.42882	-4.06835	-32.5468	0
599	-104.96343	-57.77057	47.19286	79.73966	-77.29865	-5.69569	188.77144	154.5973	117.16848	42.31084	-0.81367	-30.10579	0
600	-104.96343	-57.77057	47.19286	79.73966	-77.29865	-5.69569	191.21245	157.03831	119.60949	44.75185	1.62734	-27.66478	0
601	-104.96343	-55.32956	49.63387	79.73966	-77.29865	-3.25468	193.65346	161.92033	122.0505	49.63387	4.06835	-25.22377	0
602	-102.52242	-55.32956	47.19286	77.29865	-74.85764	-5.69569	196.09447	166.80235	124.49151	52.07488	4.06835	-25.22377	0
603	-102.52242	-55.32956	47.19286	77.29865	-74.85764	-5.69569	198.53548	169.24336	126.93252	52.07488	4.06835	-27.66478	0
604	-102.52242	-57.77057	44.75185	79.73966	-74.85764	-8.1367	196.09447	171.68437	129.37353	52.07488	1.62734	-32.5468	0
605	-102.52242	-57.77057	44.75185	79.73966	-74.85764	-8.1367	196.09447	171.68437	129.37353	49.63387	-0.81367	-32.5468	0
606	-100.08141	-55.32956	44.75185	77.29865	-72.41663	-5.69569	196.09447	174.12538	134.25555	49.63387	-4.06835	-32.5468	0
607	-97.6404	-55.32956	42.31084	74.85764	-69.97562	-8.1367	196.09447	176.56639	134.25555	47.19286	-4.06835	-32.5468	0
608	-102.52242	-55.32956	47.19286	77.29865	-74.85764	-5.69569	196.09447	176.56639	134.25555	47.19286	-4.06835	-32.5468	0
609	-102.52242	-57.77057	44.75185	79.73966	-74.85764	-8.1367	196.09447	179.0074	136.69656	47.19286	-4.06835	-32.5468	0
610	-109.84545	-57.77057	52.07488	82.18067	-82.18067	-3.25468	196.09447	181.44841	136.69656	47.19286	-4.06835	-30.10579	0
611	-109.84545	-60.21158	49.63387	84.62168	-79.73966	-5.69569	196.09447	181.44841	136.69656	49.63387	-4.06835	-27.66478	0
612	-109.84545	-60.21158	49.63387	84.62168	-79.73966	-5.69569	198.53548	186.33043	136.69656	52.07488	-0.81367	-25.22377	0
613	-114.72747	-60.21158	54.51589	87.06269	-84.62168	-3.25468	205.85851	191.21245	141.57858	56.9569	1.62734	-25.22377	0
614	-114.72747	-60.21158	54.51589	87.06269	-84.62168	-3.25468	210.74053	196.09447	146.4606	59.39791	4.06835	-22.78276	0
615	-114.72747	-60.21158	54.51589	87.06269	-84.62168	-3.25468	215.62255	198.53548	151.34262	61.83892	6.50936	-22.78276	0
616	-109.84545	-57.77057	52.07488	82.18067	-82.18067	-3.25468	220.50457	203.4175	156.22464	66.72094	6.50936	-20.34175	0
617	-104.96343	-57.77057	47.19286	79.73966	-77.29865	-5.69569	220.50457	205.85851	158.66565	66.72094	6.50936	-20.34175	0
618	-100.08141	-55.32956	44.75185	77.29865	-72.41663	-5.69569	222.94558	208.29952	161.10666	69.16195	4.06835	-20.34175	0
619	-97.6404	-52.88855	44.75185	74.85764	-72.41663	-5.69569	222.94558	213.18154	163.54767	69.16195	4.06835	-17.90074	0
620	-95.19939	-48.00653	47.19286	69.97562	-72.41663	-0.81367	225.38659	213.18154	165.98868	71.60296	1.62734	-17.90074	0
621	-90.31737	-48.00653	42.31084	67.53461	-67.53461	-3.25468	227.8276	215.62255	165.98868	69.16195	-0.81367	-17.90074	0
622	-90.31737	-48.00653	42.31084	67.53461	-67.53461	-3.25468	227.8276	218.06356	163.54767	69.16195	-0.81367	-17.90074	0
623	-95.19939	-50.44754	44.75185	72.41663	-69.97562	-3.25468	227.8276	220.50457	165.98868	69.16195	-0.81367	-22.78276	0
624	-97.6404	-52.88855	44.75185	74.85764	-72.41663	-5.69569	230.26861	225.38659	165.98868	69.16195	-0.81367	-27.66478	0
625	-100.08141	-55.32956	44.75185	77.29865	-72.41663	-5.69569	235.15063	227.8276	170.8707	71.60296	-0.81367	-27.66478	0
626	-104.96343	-55.32956	49.63387	79.73966	-77.29865	-3.25468	237.59164	232.70962	175.75272	74.04397	-0.81367	-30.10579	0
627	-107.40444	-55.32956	52.07488	79.73966	-79.73966	-3.25468	240.03265	237.59164	178.19373	76.48498	1.62734	-32.5468	0
628	-107.40444	-55.32956	52.07488	79.73966	-79.73966	-3.25468	242.47366	242.47366	183.07575	78.92599	4.06835	-37.42882	0
629	-104.96343	-55.32956	49.63387	79.73966	-77.29865	-3.25468	242.47366	244.91467	185.51676	81.367	4.06835	-39.86983	0
630	-104.96343	-57.77057	47.19286	79.73966	-77.29865	-5.69569	242.47366	249.79669	190.39878	83.80801	1.62734	-39.86983	0
631	-102.52242	-62.65259	39.86983	82.18067	-72.41663	-13.01872	247.35568	254.67871	190.39878	86.24902	-0.81367	-42.31084	0
632	-97.6404	-67.53461	29.29212	82.18067	-65.0936	-20.34175	247.35568	257.11972	192.83979	88.69003	-0.81367	-42.31084	0
633	-92.75838	-67.53461	24.4101	79.73966	-60.21158	-22.78276	249.79669	262.00174	197.72181	88.69003	-0.81367	-42.31084	0
634	-90.31737	-67.53461	21.96909	77.29865	-57.77057	-22.78276	252.2377	266.88376	200.16282	93.57205	4.06835	-42.31084	0
635	-90.31737	-67.53461	21.96909	77.29865	-57.77057	-22.78276	257.11972	271.76578	205.04484	96.01306	4.06835	-37.42882	0
636	-95.19939	-72.41663	21.96909	82.18067	-60.21158	-25.22377	262.00174	276.6478	212.36787	98.45407	8.95037	-34.98781	0
637	-95.19939	-72.41663	21.96909	82.18067	-60.21158	-25.22377	266.88376	281.52982	217.24989	103.33609	11.39138	-30.10579	0
638	-95.19939	-67.53461	26.85111	79.73966	-62.65259	-20.34175	271.76578	286.41184	219.6909	105.7771	13.83239	-27.66478	0
639	-97.6404	-65.0936	32.5468	79.73966	-65.0936	-17.90074	276.6478	288.85285	224.57292	110.65912	21.15542	-22.78276	0
640	-100.08141	-60.21158	39.86983	79.73966	-69.97562	-10.57771	279.08881	293.73487	227.01393	113.10013	23.59643	-20.34175	0
641	-104.96343	-57.77057	47.19286	79.73966	-77.29865	-5.69569	281.52982	296.17588	227.01393	113.10013	28.47845	-17.90074	0
642	-104.96343	-57.77057	47.19286	79.73966	-77.29865	-5.69569	283.97083	301.0579	227.01393	115.54114	28.47845	-14.64606	0
643	-109.84545	-57.77057	52.07488	82.18067	-82.18067	-3.25468	288.85285	303.49891	231.89595	115.54114	28.47845	-17.90074	0
644	-107.40444	-60.21158	47.19286	82.18067	-77.29865	-8.1367	291.29386	308.38093	234.33696	115.54114	28.47845	-17.90074	0
645	-107.40444	-57.77057	49.63387	82.18067	-79.73966	-5.69569	298.61689	315.70396	239.21898	115.54114	28.47845	-20.34175	0
646	-104.96343	-57.77057	47.19286	79.73966	-77.29865	-5.69569	303.49891	320.58598	246.54201	115.54114	28.47845	-22.78276	0
647	-102.52242	-57.77057	44.75185	79.73966	-74.85764	-8.1367	308.38093	325.468	248.98302	115.54114	23.59643	-22.78276	0
648	-100.08141	-57.77057	42.31084	77.29865	-72.41663	-8.1367	308.38093	330.35002	251.42403	113.10013	21.15542	-27.66478	0
649	-97.6404	-55.32956	42.31084	74.85764	-69.97562	-8.1367	313.26295	335.23204	256.30605	113.10013	18.71441	-30.10579	0
650	-100.08141	-55.32956	44.75185	77.29865	-72.41663	-5.69569	318.14497	340.11406	258.74706	117.98215	18.71441	-32.5468	0
651	-100.08141	-55.32956	44.75185	77.29865	-72.41663	-5.69569	320.58598	347.43709	263.62908	120.42316	21.15542	-32.5468	0
652	-95.19939	-50.44754	44.75185	72.41663	-69.97562	-3.25468	325.468	352.31911	266.07009	125.30518	26.03744	-27.66478	0
653	-100.08141	-48.00653	52.07488	72.41663	-77.29865	1.62734	330.35002	357.20113	270.95211	127.74619	26.03744	-27.66478	0
654	-104.96343	-50.44754	54.51589	77.29865	-79.73966	1.62734	332.79103	364.52416	270.95211	127.74619	28.47845	-27.66478	0
655	-112.28646	-52.88855	59.39791	82.18067	-87.06269	1.62734	337.67305	366.96517	275.83413	130.1872	30.91946	-27.66478	0
656	-114.72747	-57.77057	56.9569	84.62168	-87.06269	-0.81367	342.55507	371.84719	280.71615	132.62821	30.91946	-30.10579	0
657	-114.72747	-62.65259	52.07488	87.06269	-84.62168	-5.69569	347.43709	379.17022	285.59817	135.06922	30.91946	-30.10579	0
658	-117.16848	-65.0936	52.07488	89.5037	-84.62168	-8.1367	354.76012	384.05224	288.03918	135.06922	30.91946	-30.10579	0
659	-119.60949	-65.0936	54.51589	91.94471	-87.06269	-5.69569	362.08315	391.37527	292.9212	135.06922	28.47845	-30.10579	0
660	-124.49151	-67.53461	56.9569	94.38572	-91.94471	-5.69569	364.52416	396.25729	295.36221	135.06922	23.59643	-34.98781	0
661	-126.93252	-74.85764	52.07488	99.26774	-89.5037	-13.01872	369.40618	398.6983	295.36221	132.62821	21.15542	-37.42882	0
662	-119.60949	-77.29865	42.31084	96.82673	-82.18067	-17.90074	374.2882	403.58032	295.36221	132.62821	18.71441	-42.31084	0
663	-119.60949	-77.29865	42.31084	96.82673	-82.18067	-17.90074	379.17022	410.90335	300.24423	130.1872	16.2734	-44.75185	0
664	-122.0505	-77.29865	44.75185	99.26774	-84.62168	-17.90074	386.49325	418.22638	305.12625	130.1872	16.2734	-47.19286	0
665	-124.49151	-69.97562	54.51589	96.82673	-89.5037	-8.1367	393.81628	427.99042	310.00827	130.1872	16.2734	-44.75185	0
666	-122.0505	-67.53461	54.51589	94.38572	-89.5037	-8.1367	403.58032	435.31345	314.89029	127.74619	13.83239	-44.75185	0
667	-124.49151	-67.53461	56.9569	94.38572	-91.94471	-5.69569	410.90335	442.63648	319.77231	127.74619	8.95037	-44.75185	0
668	-124.49151	-67.53461	56.9569	94.38572	-91.94471	-5.69569	415.78537	447.5185	322.21332	125.30518	4.06835	-49.63387	0
669	-124.49151	-65.0936	59.39791	94.38572	-91.94471	-3.25468	423.1084	454.84153	324.65433	125.30518	1.62734	-49.63387	0
670	-126.93252	-60.21158	66.72094	91.94471	-96.82673	1.62734	430.43143	462.16456	329.53635	125.30518	-0.81367	-52.07488	0
671	-131.81454	-60.21158	71.60296	94.38572	-101.70875	4.88202	437.75446	467.04658	329.53635	125.30518	-4.06835	-54.51589	0
672	-131.81454	-60.21158	71.60296	94.38572	-101.70875	4.88202	445.07749	471.9286	331.97736	125.30518	-4.06835	-56.9569	0
673	-129.37353	-60.21158	69.16195	94.38572	-99.26774	4.88202	449.95951	476.81062	334.41837	122.86417	-8.95037	-59.39791	0
674	-136.69656	-62.65259	74.04397	99.26774	-106.59077	4.88202	454.84153	484.13365	339.30039	122.86417	-11.39138	-61.83892	0
675	-136.69656	-62.65259	74.04397	99.26774	-106.59077	4.88202	462.16456	491.45668	341.7414	122.86417	-11.39138	-61.83892	0
676	-134.25555	-57.77057	76.48498	94.38572	-106.59077	9.76404	471.9286	498.77971	346.62342	122.86417	-8.95037	-61.83892	0
677	-131.81454	-57.77057	74.04397	94.38572	-104.14976	7.32303	479.25163	506.10274	351.50544	125.30518	-6.50936	-61.83892	0
678	-129.37353	-55.32956	74.04397	91.94471	-101.70875	9.76404	489.01567	513.42577	358.82847	127.74619	-4.06835	-56.9569	0
679	-131.81454	-55.32956	76.48498	91.94471	-104.14976	9.76404	498.77971	523.18981	363.71049	127.74619	-4.06835	-52.07488	0
680	-136.69656	-52.88855	83.80801	94.38572	-111.47279	14.64606	508.54375	530.51284	368.59251	127.74619	-4.06835	-52.07488	0
681	-139.13757	-52.88855	86.24902	94.38572	-113.9138	17.08707	518.30779	537.83587	371.03352	130.1872	-4.06835	-49.63387	0
682	-139.13757	-52.88855	86.24902	94.38572	-113.9138	17.08707	525.63082	545.1589	373.47453	130.1872	-4.06835	-49.63387	0
683	-141.57858	-52.88855	88.69003	96.82673	-116.35481	17.08707	537.83587	554.92294	380.79756	130.1872	-4.06835	-52.07488	0
684	-148.90161	-55.32956	93.57205	101.70875	-121.23683	19.52808	547.59991	564.68698	383.23857	127.74619	-11.39138	-54.51589	0
685	-158.66565	-60.21158	98.45407	109.03178	-128.55986	19.52808	557.36395	569.569	385.67958	125.30518	-18.71441	-59.39791	0
686	-165.98868	-62.65259	103.33609	113.9138	-135.88289	19.52808	564.68698	576.89203	390.5616	122.86417	-26.03744	-64.27993	0
687	-170.8707	-62.65259	108.21811	116.35481	-140.76491	21.96909	572.01001	581.77405	393.00261	122.86417	-28.47845	-66.72094	0
688	-173.31171	-62.65259	110.65912	116.35481	-143.20592	24.4101	579.33304	589.09708	397.88463	122.86417	-30.91946	-69.16195	0
689	-175.75272	-62.65259	113.10013	118.79582	-145.64693	24.4101	586.65607	593.9791	400.32564	125.30518	-35.80148	-71.60296	0
690	-175.75272	-60.21158	115.54114	116.35481	-145.64693	26.85111	593.9791	598.86112	400.32564	125.30518	-40.6835	-76.48498	0
691	-178.19373	-60.21158	117.98215	118.79582	-148.08794	29.29212	598.86112	598.86112	400.32564	122.86417	-43.12451	-81.367	0
692	-180.63474	-62.65259	117.98215	121.23683	-150.52895	26.85111	601.30213	601.30213	400.32564	120.42316	-43.12451	-83.80801	0
693	-180.63474	-60.21158	120.42316	118.79582	-150.52895	29.29212	608.62516	606.18415	402.76665	120.42316	-43.12451	-83.80801	0
694	-178.19373	-57.77057	120.42316	116.35481	-150.52895	31.73313	613.50718	608.62516	402.76665	120.42316	-43.12451	-83.80801	0
695	-178.19373	-55.32956	122.86417	116.35481	-150.52895	34.17414	620.83021	608.62516	402.76665	115.54114	-45.56552	-83.80801	0
696	-183.07575	-57.77057	125.30518	118.79582	-155.41097	34.17414	625.71223	608.62516	402.76665	113.10013	-48.00653	-83.80801	0
697	-185.51676	-60.21158	125.30518	121.23683	-155.41097	31.73313	628.15324	608.62516	400.32564	108.21811	-52.88855	-83.80801	0
698	-185.51676	-55.32956	130.1872	118.79582	-157.85198	36.61515	630.59425	606.18415	397.88463	103.33609	-52.88855	-86.24902	0
699	-185.51676	-55.32956	130.1872	118.79582	-157.85198	36.61515	630.59425	601.30213	393.00261	98.45407	-55.32956	-88.69003	0
700	-187.95777	-55.32956	132.62821	121.23683	-160.29299	39.05616	633.03526	598.86112	390.5616	98.45407	-55.32956	-86.24902	0
701	-192.83979	-55.32956	137.51023	123.67784	-165.17501	41.49717	635.47627	596.42011	385.67958	96.01306	-55.32956	-86.24902	0
702	-200.16282	-62.65259	137.51023	131.00087	-170.05703	36.61515	635.47627	589.09708	378.35655	93.57205	-57.77057	-88.69003	0
703	-205.04484	-67.53461	137.51023	135.88289	-172.49804	34.17414	635.47627	584.21506	373.47453	88.69003	-60.21158	-96.01306	0
704	-207.48585	-72.41663	135.06922	138.3239	-172.49804	31.73313	633.03526	579.33304	368.59251	83.80801	-62.65259	-98.45407	0
705	-207.48585	-74.85764	132.62821	140.76491	-170.05703	29.29212	630.59425	572.01001	361.26948	76.48498	-62.65259	-100.89508	0
706	-209.92686	-79.73966	130.1872	143.20592	-170.05703	24.4101	628.15324	564.68698	356.38746	74.04397	-65.0936	-100.89508	0
707	-217.24989	-87.06269	130.1872	150.52895	-174.93905	21.96909	623.27122	557.36395	349.06443	69.16195	-65.0936	-98.45407	0
708	-214.80888	-87.06269	127.74619	150.52895	-172.49804	19.52808	618.3892	547.59991	341.7414	64.27993	-69.97562	-98.45407	0
709	-212.36787	-91.94471	120.42316	150.52895	-167.61602	14.64606	608.62516	535.39486	329.53635	54.51589	-79.73966	-100.89508	0
710	-212.36787	-91.94471	120.42316	150.52895	-167.61602	14.64606	596.42011	518.30779	317.3313	47.19286	-87.06269	-108.21811	0
711	-209.92686	-89.5037	120.42316	148.08794	-165.17501	14.64606	589.09708	506.10274	305.12625	42.31084	-91.94471	-110.65912	0
712	-202.60383	-87.06269	115.54114	143.20592	-160.29299	14.64606	579.33304	491.45668	292.9212	34.98781	-96.82673	-110.65912	0
713	-200.16282	-87.06269	113.10013	143.20592	-157.85198	12.20505	567.12799	476.81062	283.15716	32.5468	-101.70875	-113.10013	0
714	-197.72181	-87.06269	110.65912	140.76491	-155.41097	12.20505	554.92294	459.72355	270.95211	25.22377	-104.14976	-120.42316	0
715	-192.83979	-87.06269	105.7771	138.3239	-150.52895	9.76404	540.27688	442.63648	256.30605	17.90074	-109.03178	-122.86417	0
716	-190.39878	-87.06269	103.33609	138.3239	-148.08794	7.32303	525.63082	423.1084	246.54201	13.01872	-111.47279	-125.30518	0
717	-187.95777	-87.06269	100.89508	135.88289	-145.64693	7.32303	508.54375	406.02133	234.33696	8.1367	-104.14976	-120.42316	0
718	-183.07575	-87.06269	96.01306	133.44188	-140.76491	4.88202	489.01567	386.49325	222.13191	8.1367	-96.82673	-115.54114	0
719	-178.19373	-87.06269	91.13104	131.00087	-135.88289	1.62734	469.48759	364.52416	207.48585	3.25468	-94.38572	-108.21811	0
720	-178.19373	-87.06269	91.13104	131.00087	-135.88289	1.62734	447.5185	344.99608	192.83979	-2.44101	-91.94471	-103.33609	0
721	-178.19373	-89.5037	88.69003	133.44188	-133.44188	-0.81367	423.1084	323.02699	175.75272	-7.32303	-91.94471	-98.45407	0
722	-173.31171	-89.5037	83.80801	131.00087	-128.55986	-3.25468	401.13931	298.61689	161.10666	-14.64606	-91.94471	-96.01306	0
723	-168.42969	-87.06269	81.367	126.11885	-126.11885	-3.25468	376.72921	279.08881	148.90161	-19.52808	-89.5037	-91.13104	0
724	-165.98868	-84.62168	81.367	123.67784	-123.67784	-3.25468	354.76012	262.00174	136.69656	-21.96909	-87.06269	-88.69003	0
725	-158.66565	-82.18067	76.48498	118.79582	-118.79582	-3.25468	330.35002	240.03265	122.0505	-29.29212	-87.06269	-88.69003	0
726	-153.78363	-79.73966	74.04397	116.35481	-113.9138	-3.25468	305.93992	215.62255	107.40444	-36.61515	-89.5037	-88.69003	0
727	-146.4606	-72.41663	74.04397	109.03178	-111.47279	-0.81367	281.52982	193.65346	92.75838	-41.49717	-87.06269	-86.24902	0
728	-139.13757	-67.53461	71.60296	101.70875	-106.59077	1.62734	257.11972	174.12538	80.55333	-41.49717	-79.73966	-81.367	0
729	-129.37353	-67.53461	61.83892	96.82673	-96.82673	-3.25468	232.70962	154.5973	68.34828	-41.49717	-74.85764	-76.48498	0
730	-124.49151	-62.65259	61.83892	91.94471	-94.38572	-0.81367	210.74053	135.06922	58.58424	-41.49717	-69.97562	-74.04397	0
731	-112.28646	-57.77057	54.51589	84.62168	-84.62168	-3.25468	188.77144	117.98215	46.37919	-41.49717	-67.53461	-74.04397	0
732	-104.96343	-55.32956	49.63387	79.73966	-77.29865	-3.25468	169.24336	98.45407	35.80148	-41.49717	-62.65259	-74.04397	0
733	-97.6404	-52.88855	44.75185	74.85764	-72.41663	-5.69569	147.27427	83.80801	28.47845	-41.49717	-60.21158	-74.04397	0
734	-90.31737	-52.88855	37.42882	69.97562	-65.0936	-8.1367	130.1872	70.78929	21.15542	-41.49717	-60.21158	-74.04397	0
735	-82.99434	-52.88855	29.29212	67.53461	-57.77057	-13.01872	115.54114	58.58424	13.83239	-43.93818	-62.65259	-74.04397	0
736	-78.11232	-57.77057	19.52808	67.53461	-50.44754	-20.34175	100.08141	43.93818	4.06835	-48.8202	-67.53461	-76.48498	0
737	-70.78929	-57.77057	12.20505	62.65259	-43.12451	-22.78276	85.43535	31.73313	-3.25468	-51.26121	-69.97562	-78.92599	0
738	-58.58424	-55.32956	2.44101	55.32956	-30.10579	-27.66478	73.2303	21.96909	-10.57771	-51.26121	-69.97562	-78.92599	0
739	-56.14323	-55.32956	0	55.32956	-27.66478	-27.66478	61.02525	12.20505	-15.45973	-51.26121	-69.97562	-71.60296	0
740	-61.02525	-55.32956	4.88202	57.77057	-32.5468	-25.22377	48.8202	2.44101	-22.78276	-51.26121	-69.97562	-64.27993	0
741	-56.14323	-57.77057	-2.44101	55.32956	-27.66478	-30.10579	41.49717	-7.32303	-32.5468	-51.26121	-67.53461	-61.83892	0
742	-56.14323	-57.77057	-2.44101	55.32956	-27.66478	-30.10579	36.61515	-14.64606	-37.42882	-48.8202	-62.65259	-54.51589	0
743	-56.14323	-55.32956	0	55.32956	-27.66478	-27.66478	29.29212	-19.52808	-37.42882	-43.93818	-55.32956	-49.63387	0
744	-56.14323	-52.88855	2.44101	52.88855	-30.10579	-25.22377	24.4101	-24.4101	-39.86983	-41.49717	-48.00653	-42.31084	0
745	-56.14323	-50.44754	4.88202	52.88855	-30.10579	-22.78276	19.52808	-29.29212	-42.31084	-39.05616	-40.6835	-34.98781	0
746	-58.58424	-50.44754	7.32303	52.88855	-32.5468	-22.78276	12.20505	-34.17414	-47.19286	-39.05616	-35.80148	-30.10579	0
747	-58.58424	-50.44754	7.32303	52.88855	-32.5468	-22.78276	4.88202	-43.93818	-52.07488	-43.93818	-35.80148	-27.66478	0
748	-56.14323	-48.00653	7.32303	50.44754	-32.5468	-20.34175	-2.44101	-51.26121	-56.9569	-43.93818	-33.36047	-25.22377	-1250	T-0
749	-56.14323	-45.56552	9.76404	50.44754	-32.5468	-17.90074	-9.76404	-58.58424	-61.83892	-46.37919	-33.36047	-22.78276	0
750	-56.14323	-43.12451	12.20505	48.00653	-34.98781	-15.45973	-14.64606	-58.58424	-61.83892	-43.93818	-30.91946	-20.34175	0
751	-50.44754	-40.6835	9.76404	45.56552	-30.10579	-15.45973	-19.52808	-61.02525	-66.72094	-43.93818	-30.91946	-22.78276	0
752	-48.00653	-43.12451	4.88202	45.56552	-27.66478	-17.90074	-21.96909	-65.90727	-71.60296	-43.93818	-33.36047	-25.22377	0
753	-45.56552	-45.56552	0	45.56552	-22.78276	-22.78276	-24.4101	-65.90727	-69.16195	-46.37919	-38.24249	-32.5468	0
754	-40.6835	-48.00653	-7.32303	43.12451	-17.90074	-27.66478	-29.29212	-65.90727	-69.16195	-46.37919	-43.12451	-39.86983	0
755	-40.6835	-48.00653	-7.32303	43.12451	-17.90074	-27.66478	-26.85111	-65.90727	-69.16195	-46.37919	-45.56552	-42.31084	0
756	-38.24249	-50.44754	-12.20505	43.12451	-13.01872	-30.10579	-24.4101	-63.46626	-69.16195	-46.37919	-45.56552	-47.19286	0
757	-38.24249	-52.88855	-14.64606	45.56552	-13.01872	-32.5468	-24.4101	-63.46626	-69.16195	-46.37919	-45.56552	-52.07488	0
758	-35.80148	-52.88855	-17.08707	43.12451	-10.57771	-34.98781	-21.96909	-63.46626	-66.72094	-46.37919	-48.00653	-56.9569	0
759	-35.80148	-55.32956	-19.52808	45.56552	-8.1367	-37.42882	-24.4101	-65.90727	-66.72094	-46.37919	-52.88855	-56.9569	0
760	-38.24249	-55.32956	-17.08707	45.56552	-10.57771	-34.98781	-24.4101	-61.02525	-66.72094	-46.37919	-55.32956	-59.39791	0
761	-38.24249	-60.21158	-21.96909	48.00653	-8.1367	-39.86983	-21.96909	-58.58424	-66.72094	-46.37919	-55.32956	-59.39791	0
762	-38.24249	-60.21158	-21.96909	48.00653	-8.1367	-39.86983	-19.52808	-56.14323	-66.72094	-46.37919	-52.88855	-59.39791	0
763	-40.6835	-57.77057	-17.08707	48.00653	-13.01872	-37.42882	-19.52808	-56.14323	-66.72094	-46.37919	-50.44754	-59.39791	0
764	-45.56552	-57.77057	-12.20505	50.44754	-17.90074	-34.98781	-19.52808	-53.70222	-64.27993	-41.49717	-45.56552	-54.51589	0
765	-45.56552	-52.88855	-7.32303	48.00653	-20.34175	-30.10579	-19.52808	-53.70222	-61.83892	-39.05616	-40.6835	-49.63387	0
766	-45.56552	-52.88855	-7.32303	48.00653	-20.34175	-30.10579	-19.52808	-53.70222	-61.83892	-39.05616	-38.24249	-44.75185	0
767	-45.56552	-52.88855	-7.32303	48.00653	-20.34175	-30.10579	-19.52808	-53.70222	-61.83892	-39.05616	-35.80148	-42.31084	0
768	-48.00653	-52.88855	-4.88202	50.44754	-22.78276	-27.66478	-19.52808	-53.70222	-61.83892	-39.05616	-35.80148	-37.42882	0
769	-48.00653	-50.44754	-2.44101	48.00653	-22.78276	-25.22377	-19.52808	-56.14323	-59.39791	-36.61515	-35.80148	-32.5468	0
770	-48.00653	-45.56552	2.44101	45.56552	-25.22377	-20.34175	-21.96909	-53.70222	-59.39791	-36.61515	-35.80148	-32.5468	0
771	-45.56552	-45.56552	0	45.56552	-22.78276	-22.78276	-21.96909	-53.70222	-59.39791	-36.61515	-33.36047	-30.10579	0
772	-43.12451	-45.56552	-2.44101	43.12451	-20.34175	-22.78276	-19.52808	-51.26121	-59.39791	-34.17414	-33.36047	-30.10579	0
773	-43.12451	-45.56552	-2.44101	43.12451	-20.34175	-22.78276	-19.52808	-51.26121	-56.9569	-31.73313	-33.36047	-32.5468	0
774	-38.24249	-43.12451	-4.88202	39.86983	-17.90074	-22.78276	-19.52808	-46.37919	-52.07488	-29.29212	-30.91946	-34.98781	0
775	-40.6835	-43.12451	-2.44101	39.86983	-20.34175	-22.78276	-17.08707	-43.93818	-52.07488	-29.29212	-30.91946	-34.98781	0
776	-40.6835	-43.12451	-2.44101	39.86983	-20.34175	-22.78276	-14.64606	-41.49717	-49.63387	-29.29212	-33.36047	-42.31084	0
777	-38.24249	-43.12451	-4.88202	39.86983	-17.90074	-22.78276	-12.20505	-41.49717	-47.19286	-29.29212	-33.36047	-47.19286	0
778	-38.24249	-43.12451	-4.88202	39.86983	-17.90074	-22.78276	-9.76404	-41.49717	-47.19286	-29.29212	-35.80148	-52.07488	0
779	-38.24249	-43.12451	-4.88202	39.86983	-17.90074	-22.78276	-7.32303	-41.49717	-47.19286	-31.73313	-38.24249	-52.07488	0
780	-38.24249	-43.12451	-4.88202	39.86983	-17.90074	-22.78276	-7.32303	-39.05616	-47.19286	-31.73313	-43.12451	-56.9569	0
781	-40.6835	-45.56552	-4.88202	43.12451	-17.90074	-25.22377	-7.32303	-36.61515	-47.19286	-36.61515	-48.00653	-56.9569	0
782	-43.12451	-55.32956	-12.20505	48.00653	-15.45973	-32.5468	-2.44101	-36.61515	-47.19286	-36.61515	-48.00653	-59.39791	0
783	-45.56552	-55.32956	-9.76404	50.44754	-17.90074	-32.5468	0	-31.73313	-44.75185	-36.61515	-48.00653	-59.39791	0
784	-48.00653	-55.32956	-7.32303	50.44754	-20.34175	-30.10579	2.44101	-31.73313	-42.31084	-36.61515	-48.00653	-59.39791	0
785	-50.44754	-57.77057	-7.32303	52.88855	-22.78276	-32.5468	2.44101	-26.85111	-42.31084	-36.61515	-48.00653	-56.9569	0
786	-50.44754	-57.77057	-7.32303	52.88855	-22.78276	-32.5468	7.32303	-24.4101	-39.86983	-34.17414	-48.00653	-54.51589	0
787	-50.44754	-60.21158	-9.76404	55.32956	-20.34175	-34.98781	9.76404	-21.96909	-39.86983	-34.17414	-45.56552	-54.51589	0
788	-52.88855	-62.65259	-9.76404	57.77057	-22.78276	-34.98781	12.20505	-17.08707	-34.98781	-31.73313	-43.12451	-52.07488	0
789	-50.44754	-62.65259	-12.20505	55.32956	-20.34175	-37.42882	17.08707	-14.64606	-30.10579	-29.29212	-40.6835	-49.63387	0
790	-48.00653	-57.77057	-9.76404	52.88855	-20.34175	-32.5468	17.08707	-9.76404	-30.10579	-29.29212	-40.6835	-49.63387	0
791	-48.00653	-57.77057	-9.76404	52.88855	-20.34175	-32.5468	19.52808	-9.76404	-30.10579	-29.29212	-40.6835	-49.63387	0
792	-48.00653	-62.65259	-14.64606	55.32956	-17.90074	-37.42882	21.96909	-9.76404	-34.98781	-31.73313	-40.6835	-54.51589	0
793	-52.88855	-62.65259	-9.76404	57.77057	-22.78276	-34.98781	21.96909	-7.32303	-32.5468	-29.29212	-38.24249	-54.51589	0
794	-56.14323	-62.65259	-7.32303	57.77057	-25.22377	-34.98781	21.96909	-7.32303	-32.5468	-26.85111	-35.80148	-56.9569	0
795	-56.14323	-65.0936	-9.76404	60.21158	-22.78276	-37.42882	21.96909	-4.88202	-32.5468	-26.85111	-33.36047	-61.83892	0
796	-56.14323	-65.0936	-9.76404	60.21158	-22.78276	-37.42882	21.96909	-4.88202	-34.98781	-26.85111	-33.36047	-66.72094	0
797	-52.88855	-65.0936	-12.20505	57.77057	-20.34175	-37.42882	21.96909	-4.88202	-37.42882	-29.29212	-33.36047	-71.60296	0
798	-56.14323	-67.53461	-12.20505	60.21158	-22.78276	-39.86983	24.4101	-4.88202	-34.98781	-29.29212	-38.24249	-74.04397	0
799	-56.14323	-67.53461	-12.20505	60.21158	-22.78276	-39.86983	26.85111	-4.88202	-34.98781	-31.73313	-43.12451	-76.48498	0
800	-52.88855	-62.65259	-9.76404	57.77057	-22.78276	-34.98781	26.85111	-2.44101	-32.5468	-31.73313	-48.00653	-74.04397	0
801	-45.56552	-57.77057	-12.20505	50.44754	-17.90074	-34.98781	31.73313	0	-32.5468	-34.17414	-50.44754	-71.60296	0
802	-43.12451	-57.77057	-14.64606	50.44754	-15.45973	-34.98781	36.61515	2.44101	-30.10579	-34.17414	-55.32956	-69.16195	0
803	-43.12451	-57.77057	-14.64606	50.44754	-15.45973	-34.98781	39.05616	4.88202	-25.22377	-34.17414	-57.77057	-64.27993	0
804	-40.6835	-57.77057	-17.08707	48.00653	-13.01872	-37.42882	41.49717	7.32303	-22.78276	-34.17414	-57.77057	-61.83892	0
805	-43.12451	-60.21158	-17.08707	50.44754	-13.01872	-37.42882	41.49717	9.76404	-20.34175	-39.05616	-60.21158	-59.39791	0
806	-43.12451	-60.21158	-17.08707	50.44754	-13.01872	-37.42882	41.49717	9.76404	-22.78276	-41.49717	-57.77057	-59.39791	0
807	-48.00653	-60.21158	-12.20505	52.88855	-17.90074	-34.98781	41.49717	4.88202	-27.66478	-46.37919	-57.77057	-61.83892	0
808	-56.14323	-62.65259	-7.32303	57.77057	-25.22377	-34.98781	41.49717	4.88202	-27.66478	-48.8202	-52.88855	-61.83892	0
809	-58.58424	-62.65259	-4.88202	60.21158	-27.66478	-34.98781	39.05616	2.44101	-30.10579	-51.26121	-52.88855	-61.83892	0
810	-61.02525	-62.65259	-2.44101	60.21158	-30.10579	-32.5468	34.17414	2.44101	-32.5468	-56.14323	-52.88855	-64.27993	0
811	-58.58424	-62.65259	-4.88202	60.21158	-27.66478	-34.98781	31.73313	0	-37.42882	-61.02525	-55.32956	-69.16195	0
812	-58.58424	-62.65259	-4.88202	60.21158	-27.66478	-34.98781	29.29212	-2.44101	-39.86983	-63.46626	-57.77057	-71.60296	0
813	-65.90727	-62.65259	2.44101	62.65259	-34.98781	-30.10579	29.29212	-2.44101	-39.86983	-63.46626	-60.21158	-71.60296	0
814	-61.02525	-57.77057	2.44101	57.77057	-32.5468	-27.66478	26.85111	-2.44101	-37.42882	-63.46626	-60.21158	-71.60296	0
815	-61.02525	-57.77057	2.44101	57.77057	-32.5468	-27.66478	26.85111	-2.44101	-34.98781	-61.02525	-60.21158	-66.72094	0
816	-58.58424	-60.21158	-2.44101	57.77057	-27.66478	-32.5468	26.85111	0	-34.98781	-61.02525	-62.65259	-66.72094	0
817	-58.58424	-62.65259	-4.88202	60.21158	-27.66478	-34.98781	26.85111	0	-34.98781	-61.02525	-62.65259	-66.72094	0
818	-58.58424	-62.65259	-4.88202	60.21158	-27.66478	-34.98781	29.29212	-2.44101	-32.5468	-58.58424	-62.65259	-64.27993	0
819	-58.58424	-62.65259	-4.88202	60.21158	-27.66478	-34.98781	31.73313	-4.88202	-32.5468	-58.58424	-60.21158	-64.27993	0
820	-58.58424	-62.65259	-4.88202	60.21158	-27.66478	-34.98781	31.73313	-4.88202	-34.98781	-58.58424	-57.77057	-59.39791	0
821	-58.58424	-65.0936	-7.32303	60.21158	-25.22377	-37.42882	31.73313	-2.44101	-34.98781	-58.58424	-55.32956	-54.51589	0
822	-61.02525	-67.53461	-7.32303	62.65259	-27.66478	-37.42882	31.73313	-4.88202	-34.98781	-58.58424	-55.32956	-54.51589	0
823	-56.14323	-67.53461	-12.20505	60.21158	-22.78276	-39.86983	29.29212	-9.76404	-34.98781	-58.58424	-52.88855	-52.07488	0
824	-48.00653	-62.65259	-14.64606	55.32956	-17.90074	-37.42882	26.85111	-12.20505	-37.42882	-58.58424	-52.88855	-49.63387	0
825	-48.00653	-60.21158	-12.20505	52.88855	-17.90074	-34.98781	21.96909	-17.08707	-42.31084	-58.58424	-52.88855	-47.19286	0
826	-48.00653	-57.77057	-9.76404	52.88855	-20.34175	-32.5468	19.52808	-19.52808	-44.75185	-61.02525	-52.88855	-47.19286	0
827	-48.00653	-55.32956	-7.32303	50.44754	-20.34175	-30.10579	17.08707	-19.52808	-47.19286	-61.02525	-52.88855	-49.63387	0
828	-48.00653	-50.44754	-2.44101	48.00653	-22.78276	-25.22377	14.64606	-21.96909	-47.19286	-61.02525	-52.88855	-49.63387	0
829	-43.12451	-48.00653	-4.88202	45.56552	-20.34175	-25.22377	14.64606	-24.4101	-47.19286	-63.46626	-52.88855	-52.07488	0
830	-38.24249	-43.12451	-4.88202	39.86983	-17.90074	-22.78276	9.76404	-24.4101	-49.63387	-65.90727	-55.32956	-54.51589	0
831	-40.6835	-43.12451	-2.44101	39.86983	-20.34175	-22.78276	9.76404	-26.85111	-52.07488	-70.78929	-57.77057	-56.9569	0
832	-48.00653	-45.56552	2.44101	45.56552	-25.22377	-20.34175	9.76404	-26.85111	-54.51589	-70.78929	-57.77057	-56.9569	0
833	-48.00653	-45.56552	2.44101	45.56552	-25.22377	-20.34175	9.76404	-26.85111	-52.07488	-70.78929	-57.77057	-56.9569	0
834	-45.56552	-45.56552	0	45.56552	-22.78276	-22.78276	4.88202	-31.73313	-54.51589	-73.2303	-62.65259	-56.9569	0
835	-45.56552	-48.00653	-2.44101	45.56552	-22.78276	-25.22377	0	-34.17414	-54.51589	-75.67131	-67.53461	-59.39791	0
836	-50.44754	-48.00653	2.44101	48.00653	-27.66478	-22.78276	0	-36.61515	-59.39791	-75.67131	-69.97562	-61.83892	0
837	-52.88855	-50.44754	2.44101	50.44754	-27.66478	-22.78276	-2.44101	-41.49717	-61.83892	-75.67131	-74.85764	-69.16195	0
838	-58.58424	-55.32956	2.44101	55.32956	-30.10579	-27.66478	-2.44101	-43.93818	-61.83892	-78.11232	-74.85764	-69.16195	0
839	-61.02525	-55.32956	4.88202	57.77057	-32.5468	-25.22377	-4.88202	-46.37919	-61.83892	-75.67131	-74.85764	-69.16195	0
840	-56.14323	-57.77057	-2.44101	55.32956	-27.66478	-30.10579	-7.32303	-46.37919	-61.83892	-75.67131	-72.41663	-69.16195	0
841	-56.14323	-60.21158	-4.88202	57.77057	-25.22377	-32.5468	-7.32303	-48.8202	-64.27993	-78.11232	-72.41663	-71.60296	0
842	-58.58424	-60.21158	-2.44101	57.77057	-27.66478	-32.5468	-4.88202	-48.8202	-64.27993	-78.11232	-74.85764	-71.60296	0
843	-58.58424	-60.21158	-2.44101	57.77057	-27.66478	-32.5468	-4.88202	-48.8202	-61.83892	-78.11232	-74.85764	-69.16195	0
844	-56.14323	-62.65259	-7.32303	57.77057	-25.22377	-34.98781	-4.88202	-48.8202	-61.83892	-78.11232	-77.29865	-66.72094	0
845	-50.44754	-57.77057	-7.32303	52.88855	-22.78276	-32.5468	-4.88202	-48.8202	-61.83892	-78.11232	-77.29865	-61.83892	0
846	-48.00653	-55.32956	-7.32303	50.44754	-20.34175	-30.10579	-4.88202	-48.8202	-61.83892	-75.67131	-74.85764	-56.9569	0
847	-48.00653	-55.32956	-7.32303	50.44754	-20.34175	-30.10579	-4.88202	-51.26121	-64.27993	-75.67131	-74.85764	-54.51589	0
848	-50.44754	-55.32956	-4.88202	52.88855	-22.78276	-30.10579	-4.88202	-51.26121	-64.27993	-75.67131	-74.85764	-52.07488	0
849	-50.44754	-50.44754	0	50.44754	-25.22377	-25.22377	-7.32303	-51.26121	-61.83892	-73.2303	-72.41663	-52.07488	0
850	-43.12451	-48.00653	-4.88202	45.56552	-20.34175	-25.22377	-7.32303	-51.26121	-61.83892	-70.78929	-67.53461	-49.63387	0
851	-45.56552	-50.44754	-4.88202	48.00653	-20.34175	-27.66478	-9.76404	-51.26121	-61.83892	-70.78929	-62.65259	-47.19286	0
852	-45.56552	-48.00653	-2.44101	45.56552	-22.78276	-25.22377	-9.76404	-51.26121	-59.39791	-68.34828	-60.21158	-47.19286	0
853	-45.56552	-50.44754	-4.88202	48.00653	-20.34175	-27.66478	-14.64606	-56.14323	-59.39791	-68.34828	-60.21158	-47.19286	0
854	-45.56552	-55.32956	-9.76404	50.44754	-17.90074	-32.5468	-21.96909	-61.02525	-64.27993	-70.78929	-60.21158	-49.63387	0
855	-45.56552	-52.88855	-7.32303	48.00653	-20.34175	-30.10579	-26.85111	-63.46626	-66.72094	-70.78929	-57.77057	-49.63387	0
856	-40.6835	-48.00653	-7.32303	43.12451	-17.90074	-27.66478	-29.29212	-65.90727	-71.60296	-73.2303	-55.32956	-49.63387	0
857	-40.6835	-48.00653	-7.32303	43.12451	-17.90074	-27.66478	-31.73313	-68.34828	-74.04397	-73.2303	-55.32956	-49.63387	0
858	-43.12451	-48.00653	-4.88202	45.56552	-20.34175	-25.22377	-34.17414	-70.78929	-76.48498	-75.67131	-57.77057	-52.07488	0
859	-45.56552	-48.00653	-2.44101	45.56552	-22.78276	-25.22377	-36.61515	-75.67131	-76.48498	-75.67131	-57.77057	-52.07488	0
860	-43.12451	-48.00653	-4.88202	45.56552	-20.34175	-25.22377	-41.49717	-75.67131	-78.92599	-78.11232	-55.32956	-52.07488	0
861	-43.12451	-48.00653	-4.88202	45.56552	-20.34175	-25.22377	-39.05616	-75.67131	-78.92599	-80.55333	-55.32956	-52.07488	0
862	-43.12451	-45.56552	-2.44101	43.12451	-20.34175	-22.78276	-39.05616	-73.2303	-76.48498	-78.11232	-55.32956	-52.07488	0
863	-40.6835	-45.56552	-4.88202	43.12451	-17.90074	-25.22377	-36.61515	-73.2303	-74.04397	-75.67131	-55.32956	-52.07488	0
864	-38.24249	-45.56552	-7.32303	39.86983	-15.45973	-25.22377	-31.73313	-70.78929	-69.16195	-73.2303	-55.32956	-49.63387	0
865	-35.80148	-43.12451	-7.32303	39.86983	-15.45973	-25.22377	-31.73313	-68.34828	-69.16195	-68.34828	-52.88855	-44.75185	0
866	-30.91946	-40.6835	-9.76404	34.98781	-10.57771	-25.22377	-31.73313	-68.34828	-69.16195	-68.34828	-50.44754	-39.86983	0
867	-28.47845	-35.80148	-7.32303	32.5468	-10.57771	-20.34175	-29.29212	-68.34828	-66.72094	-63.46626	-45.56552	-34.98781	0
868	-28.47845	-28.47845	0	27.66478	-15.45973	-13.01872	-26.85111	-65.90727	-61.83892	-58.58424	-43.12451	-30.10579	0
869	-30.91946	-20.34175	9.76404	25.22377	-20.34175	-5.69569	-21.96909	-63.46626	-56.9569	-53.70222	-38.24249	-22.78276	0
870	-30.91946	-13.01872	17.08707	22.78276	-22.78276	1.62734	-21.96909	-56.14323	-52.07488	-48.8202	-30.91946	-17.90074	0
871	-26.03744	-0.81367	24.4101	13.01872	-25.22377	12.20505	-17.08707	-51.26121	-47.19286	-41.49717	-23.59643	-12.20505	0
872	-18.71441	13.83239	32.5468	3.25468	-25.22377	24.4101	-14.64606	-46.37919	-42.31084	-34.17414	-13.83239	-7.32303	0
873	-13.83239	26.03744	39.86983	-6.50936	-25.22377	34.17414	-12.20505	-43.93818	-34.98781	-26.85111	-6.50936	-2.44101	0
874	-11.39138	35.80148	47.19286	-11.39138	-27.66478	41.49717	-12.20505	-41.49717	-27.66478	-19.52808	-4.06835	0	0
875	-4.06835	48.00653	52.07488	-21.15542	-27.66478	51.26121	-12.20505	-36.61515	-22.78276	-12.20505	-0.81367	2.44101	0
876	5.69569	55.32956	49.63387	-30.91946	-20.34175	53.70222	-9.76404	-34.17414	-20.34175	-7.32303	-0.81367	2.44101	0
877	15.45973	62.65259	47.19286	-38.24249	-15.45973	56.14323	-9.76404	-31.73313	-17.90074	-2.44101	6.50936	2.44101	0
878	22.78276	67.53461	44.75185	-45.56552	-10.57771	56.14323	-7.32303	-31.73313	-15.45973	-2.44101	11.39138	4.88202	0
879	25.22377	72.41663	47.19286	-48.00653	-10.57771	61.02525	-4.88202	-31.73313	-10.57771	3.25468	13.83239	9.76404	0
880	22.78276	77.29865	54.51589	-50.44754	-15.45973	65.90727	0	-26.85111	-8.1367	5.69569	18.71441	14.64606	0
881	20.34175	77.29865	56.9569	-48.00653	-17.90074	68.34828	2.44101	-26.85111	-8.1367	5.69569	18.71441	17.08707	0
882	25.22377	79.73966	54.51589	-52.88855	-13.01872	68.34828	4.88202	-26.85111	-8.1367	5.69569	18.71441	19.52808	0
883	25.22377	82.18067	56.9569	-52.88855	-15.45973	70.78929	4.88202	-24.4101	-5.69569	8.1367	23.59643	24.4101	0
884	25.22377	84.62168	59.39791	-55.32956	-15.45973	73.2303	4.88202	-24.4101	-3.25468	13.01872	28.47845	26.85111	0
885	25.22377	87.06269	61.83892	-55.32956	-17.90074	75.67131	2.44101	-24.4101	-3.25468	15.45973	30.91946	29.29212	0
886	25.22377	91.94471	66.72094	-57.77057	-20.34175	80.55333	0	-24.4101	-3.25468	17.90074	33.36047	31.73313	0
887	27.66478	96.82673	69.16195	-62.65259	-20.34175	82.99434	-4.88202	-24.4101	-0.81367	22.78276	38.24249	31.73313	0
888	32.5468	96.82673	64.27993	-65.0936	-15.45973	80.55333	-14.64606	-26.85111	-0.81367	22.78276	43.12451	34.17414	0
889	39.86983	99.26774	59.39791	-69.97562	-8.1367	80.55333	-24.4101	-31.73313	-0.81367	25.22377	45.56552	34.17414	0
890	44.75185	99.26774	54.51589	-72.41663	-3.25468	78.11232	-36.61515	-31.73313	-3.25468	25.22377	48.00653	34.17414	0
891	49.63387	96.82673	47.19286	-72.41663	1.62734	73.2303	-46.37919	-34.17414	-3.25468	25.22377	45.56552	34.17414	0
892	54.51589	96.82673	42.31084	-74.85764	6.50936	70.78929	-56.14323	-34.17414	-3.25468	25.22377	40.6835	34.17414	0
893	56.9569	94.38572	37.42882	-74.85764	11.39138	65.90727	-65.90727	-36.61515	-3.25468	25.22377	40.6835	31.73313	0
894	59.39791	91.94471	32.5468	-74.85764	13.83239	63.46626	-73.2303	-36.61515	-0.81367	27.66478	40.6835	31.73313	0
895	66.72094	84.62168	17.08707	-74.85764	26.03744	51.26121	-85.43535	-36.61515	-3.25468	27.66478	40.6835	31.73313	0
896	69.16195	77.29865	7.32303	-72.41663	30.91946	43.93818	-92.75838	-39.05616	-5.69569	27.66478	38.24249	29.29212	0
897	71.60296	72.41663	0	-72.41663	35.80148	36.61515	-97.6404	-41.49717	-10.57771	22.78276	33.36047	24.4101	0
898	74.04397	65.0936	-9.76404	-69.97562	43.12451	29.29212	-100.08141	-43.93818	-10.57771	20.34175	26.03744	19.52808	0
899	76.48498	60.21158	-17.08707	-67.53461	48.00653	21.96909	-104.96343	-46.37919	-13.01872	15.45973	21.15542	17.08707	0
900	76.48498	55.32956	-21.96909	-65.0936	50.44754	17.08707	-107.40444	-46.37919	-17.90074	10.57771	18.71441	17.08707	0
901	76.48498	50.44754	-26.85111	-62.65259	52.88855	12.20505	-107.40444	-48.8202	-22.78276	3.25468	13.83239	17.08707	0
902	76.48498	48.00653	-29.29212	-62.65259	52.88855	9.76404	-107.40444	-51.26121	-27.66478	-2.44101	8.95037	17.08707	0
903	76.48498	43.12451	-34.17414	-60.21158	55.32956	4.88202	-107.40444	-56.14323	-30.10579	-4.88202	4.06835	12.20505	0
904	74.04397	38.24249	-36.61515	-55.32956	55.32956	1.62734	-107.40444	-61.02525	-34.98781	-4.88202	4.06835	9.76404	0
905	66.72094	33.36047	-34.17414	-50.44754	50.44754	-0.81367	-107.40444	-61.02525	-37.42882	-4.88202	4.06835	14.64606	0
906	66.72094	33.36047	-34.17414	-50.44754	50.44754	-0.81367	-107.40444	-63.46626	-39.86983	-4.88202	4.06835	14.64606	0
907	64.27993	33.36047	-31.73313	-48.00653	48.00653	1.62734	-104.96343	-65.90727	-42.31084	-2.44101	6.50936	14.64606	0
908	59.39791	33.36047	-26.85111	-45.56552	43.12451	4.88202	-100.08141	-65.90727	-42.31084	-2.44101	11.39138	14.64606	0
909	54.51589	33.36047	-21.96909	-43.12451	38.24249	7.32303	-100.08141	-70.78929	-42.31084	0.81367	13.83239	14.64606	0
910	49.63387	35.80148	-14.64606	-43.12451	33.36047	12.20505	-100.08141	-70.78929	-44.75185	3.25468	16.2734	12.20505	0
911	44.75185	38.24249	-7.32303	-40.6835	26.03744	17.08707	-97.6404	-70.78929	-47.19286	5.69569	16.2734	12.20505	0
912	34.98781	35.80148	0	-35.80148	18.71441	19.52808	-95.19939	-73.2303	-49.63387	3.25468	16.2734	12.20505	0
913	30.10579	35.80148	4.88202	-33.36047	13.83239	21.96909	-92.75838	-75.67131	-49.63387	0.81367	13.83239	9.76404	0
914	20.34175	30.91946	9.76404	-26.03744	6.50936	21.96909	-87.87636	-78.11232	-52.07488	-2.44101	8.95037	4.88202	0
915	3.25468	21.15542	17.08707	-11.39138	-5.69569	19.52808	-85.43535	-80.55333	-54.51589	-4.88202	1.62734	0	0
916	-6.50936	8.95037	14.64606	-1.62734	-10.57771	12.20505	-82.99434	-85.43535	-61.83892	-9.76404	-4.06835	-7.32303	0
917	-11.39138	-0.81367	9.76404	5.69569	-10.57771	4.88202	-78.11232	-87.87636	-66.72094	-14.64606	-8.95037	-12.20505	0
918	-21.15542	-13.01872	7.32303	17.90074	-13.01872	-3.25468	-75.67131	-92.75838	-69.16195	-19.52808	-16.2734	-17.90074	0
919	-28.47845	-26.03744	2.44101	27.66478	-15.45973	-10.57771	-73.2303	-92.75838	-71.60296	-24.4101	-23.59643	-25.22377	0
920	-35.80148	-33.36047	2.44101	34.98781	-20.34175	-15.45973	-68.34828	-92.75838	-71.60296	-29.29212	-30.91946	-30.10579	0
921	-38.24249	-40.6835	-2.44101	39.86983	-17.90074	-20.34175	-63.46626	-92.75838	-76.48498	-36.61515	-35.80148	-34.98781	0
922	-38.24249	-40.6835	-2.44101	39.86983	-17.90074	-20.34175	-61.02525	-92.75838	-81.367	-39.05616	-38.24249	-34.98781	0
923	-35.80148	-40.6835	-4.88202	37.42882	-15.45973	-22.78276	-61.02525	-95.19939	-81.367	-41.49717	-40.6835	-37.42882	0
924	-35.80148	-40.6835	-4.88202	37.42882	-15.45973	-22.78276	-61.02525	-95.19939	-81.367	-41.49717	-40.6835	-34.98781	0
925	-40.6835	-43.12451	-2.44101	39.86983	-20.34175	-22.78276	-61.02525	-92.75838	-81.367	-41.49717	-43.12451	-34.98781	0
926	-43.12451	-43.12451	0	43.12451	-22.78276	-20.34175	-58.58424	-90.31737	-81.367	-43.93818	-45.56552	-34.98781	0
927	-48.00653	-43.12451	4.88202	45.56552	-27.66478	-17.90074	-56.14323	-90.31737	-81.367	-43.93818	-45.56552	-34.98781	0
928	-50.44754	-43.12451	7.32303	45.56552	-30.10579	-17.90074	-56.14323	-90.31737	-81.367	-43.93818	-40.6835	-32.5468	0
929	-50.44754	-45.56552	4.88202	48.00653	-27.66478	-20.34175	-56.14323	-90.31737	-78.92599	-41.49717	-38.24249	-30.10579	0
930	-52.88855	-45.56552	7.32303	48.00653	-30.10579	-17.90074	-56.14323	-87.87636	-76.48498	-39.05616	-40.6835	-30.10579	0
931	-52.88855	-48.00653	4.88202	50.44754	-30.10579	-20.34175	-56.14323	-85.43535	-76.48498	-41.49717	-43.12451	-34.98781	0
932	-56.14323	-50.44754	4.88202	52.88855	-30.10579	-22.78276	-53.70222	-85.43535	-76.48498	-43.93818	-43.12451	-37.42882	0
933	-61.02525	-48.00653	12.20505	52.88855	-37.42882	-17.90074	-53.70222	-85.43535	-74.04397	-43.93818	-43.12451	-37.42882	0
934	-56.14323	-43.12451	12.20505	48.00653	-34.98781	-15.45973	-53.70222	-85.43535	-74.04397	-43.93818	-40.6835	-37.42882	0
935	-56.14323	-40.6835	14.64606	48.00653	-34.98781	-13.01872	-56.14323	-85.43535	-76.48498	-43.93818	-40.6835	-39.86983	0
936	-52.88855	-38.24249	14.64606	45.56552	-34.98781	-10.57771	-56.14323	-87.87636	-78.92599	-46.37919	-45.56552	-42.31084	0
937	-56.14323	-38.24249	17.08707	45.56552	-37.42882	-10.57771	-53.70222	-87.87636	-81.367	-48.8202	-50.44754	-44.75185	0
938	-56.14323	-38.24249	17.08707	45.56552	-37.42882	-10.57771	-51.26121	-85.43535	-81.367	-48.8202	-52.88855	-47.19286	0
939	-56.14323	-38.24249	17.08707	45.56552	-37.42882	-10.57771	-48.8202	-85.43535	-76.48498	-48.8202	-52.88855	-47.19286	0
940	-56.14323	-40.6835	14.64606	48.00653	-34.98781	-13.01872	-46.37919	-80.55333	-76.48498	-48.8202	-55.32956	-47.19286	0
941	-56.14323	-40.6835	14.64606	48.00653	-34.98781	-13.01872	-43.93818	-78.11232	-76.48498	-48.8202	-57.77057	-49.63387	0
942	-50.44754	-40.6835	9.76404	45.56552	-30.10579	-15.45973	-43.93818	-78.11232	-76.48498	-51.26121	-62.65259	-52.07488	0
943	-52.88855	-45.56552	7.32303	48.00653	-30.10579	-17.90074	-43.93818	-75.67131	-74.04397	-51.26121	-62.65259	-52.07488	0
944	-56.14323	-50.44754	4.88202	52.88855	-30.10579	-22.78276	-41.49717	-75.67131	-74.04397	-51.26121	-62.65259	-52.07488	0
945	-56.14323	-48.00653	7.32303	50.44754	-32.5468	-20.34175	-41.49717	-73.2303	-71.60296	-48.8202	-60.21158	-52.07488	0
946	-56.14323	-45.56552	9.76404	50.44754	-32.5468	-17.90074	-41.49717	-73.2303	-71.60296	-48.8202	-57.77057	-52.07488	0
947	-56.14323	-45.56552	9.76404	50.44754	-32.5468	-17.90074	-41.49717	-73.2303	-74.04397	-48.8202	-55.32956	-54.51589	0
948	-52.88855	-40.6835	12.20505	45.56552	-32.5468	-13.01872	-41.49717	-73.2303	-71.60296	-46.37919	-50.44754	-52.07488	0
949	-52.88855	-38.24249	14.64606	45.56552	-34.98781	-10.57771	-36.61515	-70.78929	-69.16195	-43.93818	-48.00653	-47.19286	0
950	-56.14323	-38.24249	17.08707	45.56552	-37.42882	-10.57771	-36.61515	-65.90727	-69.16195	-43.93818	-48.00653	-47.19286	0
951	-58.58424	-38.24249	19.52808	48.00653	-39.86983	-10.57771	-34.17414	-65.90727	-66.72094	-43.93818	-48.00653	-47.19286	0
952	-58.58424	-33.36047	24.4101	45.56552	-43.12451	-5.69569	-29.29212	-63.46626	-66.72094	-41.49717	-48.00653	-42.31084	0
953	-56.14323	-30.91946	24.4101	43.12451	-39.86983	-3.25468	-29.29212	-63.46626	-64.27993	-41.49717	-45.56552	-42.31084	0
954	-56.14323	-30.91946	24.4101	43.12451	-39.86983	-3.25468	-29.29212	-63.46626	-64.27993	-41.49717	-45.56552	-37.42882	0
955	-56.14323	-30.91946	24.4101	43.12451	-39.86983	-3.25468	-26.85111	-63.46626	-64.27993	-41.49717	-45.56552	-32.5468	0
956	-56.14323	-33.36047	21.96909	43.12451	-39.86983	-5.69569	-26.85111	-61.02525	-64.27993	-39.05616	-45.56552	-32.5468	0
957	-56.14323	-33.36047	21.96909	43.12451	-39.86983	-5.69569	-24.4101	-61.02525	-66.72094	-39.05616	-45.56552	-34.98781	0
958	-56.14323	-35.80148	19.52808	45.56552	-37.42882	-8.1367	-24.4101	-61.02525	-66.72094	-41.49717	-48.00653	-37.42882	0
959	-56.14323	-38.24249	17.08707	45.56552	-37.42882	-10.57771	-24.4101	-63.46626	-66.72094	-41.49717	-48.00653	-37.42882	0
960	-56.14323	-38.24249	17.08707	45.56552	-37.42882	-10.57771	-21.96909	-61.02525	-64.27993	-41.49717	-45.56552	-37.42882	0
961	-58.58424	-35.80148	21.96909	45.56552	-39.86983	-8.1367	-19.52808	-58.58424	-64.27993	-43.93818	-50.44754	-42.31084	0
962	-65.90727	-38.24249	26.85111	50.44754	-48.00653	-5.69569	-14.64606	-58.58424	-66.72094	-48.8202	-52.88855	-44.75185	0
963	-68.34828	-38.24249	29.29212	52.88855	-50.44754	-5.69569	-9.76404	-63.46626	-69.16195	-53.70222	-60.21158	-49.63387	0
964	-73.2303	-40.6835	32.5468	55.32956	-52.88855	-5.69569	-9.76404	-65.90727	-76.48498	-61.02525	-67.53461	-54.51589	0
965	-78.11232	-45.56552	32.5468	60.21158	-55.32956	-8.1367	2.44101	-73.2303	-86.24902	-70.78929	-77.29865	-59.39791	0
966	-85.43535	-50.44754	34.98781	67.53461	-60.21158	-8.1367	-4.88202	-78.11232	-100.89508	-82.99434	-87.06269	-66.72094	0
967	-97.6404	-60.21158	37.42882	77.29865	-67.53461	-13.01872	31.73313	-85.43535	-115.54114	-97.6404	-99.26774	-76.48498	0
968	-114.72747	-77.29865	37.42882	94.38572	-77.29865	-20.34175	51.26121	-90.31737	-130.1872	-117.16848	-113.9138	-86.24902	0
969	-129.37353	-91.94471	37.42882	109.03178	-84.62168	-27.66478	78.11232	-92.75838	-139.95124	-134.25555	-126.11885	-96.01306	0
970	-144.01959	-109.03178	34.98781	126.11885	-89.5037	-37.42882	107.40444	-87.87636	-149.71528	-151.34262	-135.88289	-108.21811	0
971	-153.78363	-123.67784	29.29212	138.3239	-91.94471	-47.19286	142.39225	-82.99434	-161.92033	-170.8707	-148.08794	-117.98215	0
972	-163.54767	-138.3239	24.4101	150.52895	-94.38572	-56.9569	176.56639	-82.99434	-174.12538	-192.83979	-160.29299	-125.30518	0
973	-170.8707	-150.52895	19.52808	160.29299	-96.82673	-66.72094	230.26861	-43.93818	-152.15629	-207.48585	-172.49804	-135.06922	0
974	-173.31171	-155.41097	17.08707	162.734	-96.82673	-69.16195	271.76578	-31.73313	-169.24336	-217.24989	-182.26208	-139.95124	0
975	-180.63474	-172.49804	7.32303	174.93905	-94.38572	-83.80801	318.14497	-61.02525	-203.4175	-219.6909	-184.70309	-142.39225	0
976	-173.31171	-182.26208	-9.76404	177.38006	-82.18067	-96.01306	293.73487	-104.96343	-237.59164	-217.24989	-196.90814	-157.03831	0
977	-156.22464	-160.29299	-4.88202	157.85198	-77.29865	-83.80801	286.41184	-92.75838	-218.06356	-219.6909	-206.67218	-157.03831	0
978	-129.37353	-128.55986	0	128.55986	-65.0936	-64.27993	220.50457	-53.70222	-181.44841	-227.01393	-196.90814	-132.62821	0
979	-90.31737	-133.44188	-43.93818	111.47279	-22.78276	-88.69003	152.15629	-34.17414	-176.56639	-183.07575	-165.17501	-122.86417	0
980	-56.14323	-126.11885	-70.78929	89.5037	6.50936	-98.45407	122.86417	-73.2303	-215.62255	-187.95777	-148.08794	-125.30518	0
981	-26.03744	-128.55986	-102.52242	77.29865	38.24249	-115.54114	127.74619	-165.98868	-323.02699	-248.98302	-167.61602	-132.62821	0
