samplenr	I	II	III	aVR	aVL	aVF	V1	V2	V3	V4	V5	V6	measurement
0	-24.4101	43.12451	66.72094	-8.95037	-44.75185	54.51589	-46.37919	-117.98215	-81.367	-41.49717	-16.2734	-4.88202	0
1	-24.4101	43.12451	66.72094	-8.95037	-44.75185	54.51589	-43.93818	-117.98215	-81.367	-41.49717	-16.2734	-1.62734	0
2	-24.4101	40.6835	64.27993	-8.95037	-44.75185	52.07488	-39.05616	-117.98215	-78.92599	-41.49717	-13.83239	-1.62734	0
3	-26.85111	40.6835	66.72094	-6.50936	-47.19286	52.07488	-36.61515	-117.98215	-78.92599	-39.05616	-13.83239	-1.62734	0
4	-26.85111	38.24249	64.27993	-6.50936	-44.75185	49.63387	-36.61515	-115.54114	-78.92599	-36.61515	-13.83239	3.25468	0
5	-21.96909	43.12451	64.27993	-11.39138	-42.31084	52.07488	-39.05616	-110.65912	-76.48498	-34.17414	-11.39138	5.69569	0
6	-14.64606	50.44754	64.27993	-18.71441	-39.86983	56.9569	-43.93818	-108.21811	-74.04397	-29.29212	-8.95037	10.57771	0
7	-11.39138	55.32956	66.72094	-21.15542	-39.86983	61.83892	-51.26121	-108.21811	-71.60296	-24.4101	-4.06835	15.45973	0
8	-11.39138	60.21158	71.60296	-23.59643	-42.31084	66.72094	-58.58424	-108.21811	-66.72094	-17.08707	1.62734	17.90074	0
9	-14.64606	65.0936	78.92599	-26.03744	-47.19286	71.60296	-63.46626	-108.21811	-59.39791	-17.08707	6.50936	20.34175	0
10	-14.64606	65.0936	78.92599	-26.03744	-47.19286	71.60296	-63.46626	-108.21811	-56.9569	-17.08707	6.50936	22.78276	0
11	-14.64606	65.0936	78.92599	-26.03744	-47.19286	71.60296	-63.46626	-110.65912	-56.9569	-19.52808	6.50936	22.78276	0
12	-14.64606	62.65259	76.48498	-23.59643	-44.75185	69.16195	-61.02525	-110.65912	-54.51589	-19.52808	6.50936	25.22377	0
13	-14.64606	57.77057	71.60296	-21.15542	-42.31084	64.27993	-61.02525	-110.65912	-56.9569	-21.96909	6.50936	25.22377	0
14	-14.64606	48.00653	61.83892	-16.2734	-37.42882	54.51589	-63.46626	-110.65912	-59.39791	-24.4101	1.62734	22.78276	0
15	-14.64606	43.12451	56.9569	-13.83239	-34.98781	49.63387	-65.90727	-108.21811	-64.27993	-24.4101	1.62734	22.78276	0
16	-8.95037	38.24249	47.19286	-13.83239	-27.66478	42.31084	-73.2303	-108.21811	-66.72094	-26.85111	-0.81367	20.34175	0
17	-4.06835	38.24249	42.31084	-16.2734	-22.78276	39.86983	-80.55333	-110.65912	-71.60296	-26.85111	4.06835	20.34175	0
18	-1.62734	33.36047	34.98781	-16.2734	-17.90074	34.98781	-87.87636	-113.10013	-76.48498	-29.29212	1.62734	20.34175	0
19	-1.62734	30.91946	32.5468	-13.83239	-17.90074	32.5468	-90.31737	-117.98215	-81.367	-34.17414	1.62734	17.90074	0
20	-4.06835	26.03744	30.10579	-11.39138	-17.90074	27.66478	-90.31737	-125.30518	-86.24902	-41.49717	-4.06835	15.45973	0
21	-4.06835	26.03744	30.10579	-11.39138	-17.90074	27.66478	-85.43535	-130.1872	-93.57205	-48.8202	-8.95037	13.01872	0
22	-1.62734	23.59643	25.22377	-11.39138	-12.20505	25.22377	-80.55333	-137.51023	-98.45407	-53.70222	-13.83239	10.57771	0
23	-4.06835	21.15542	25.22377	-8.95037	-15.45973	22.78276	-75.67131	-142.39225	-100.89508	-61.02525	-18.71441	5.69569	0
24	-8.95037	16.2734	25.22377	-4.06835	-17.90074	20.34175	-73.2303	-142.39225	-105.7771	-63.46626	-26.03744	3.25468	0
25	-11.39138	16.2734	27.66478	-1.62734	-20.34175	22.78276	-68.34828	-139.95124	-108.21811	-65.90727	-28.47845	0.81367	0
26	-8.95037	16.2734	25.22377	-4.06835	-17.90074	20.34175	-65.90727	-139.95124	-108.21811	-65.90727	-28.47845	0.81367	0
27	-6.50936	21.15542	27.66478	-6.50936	-17.90074	25.22377	-65.90727	-137.51023	-108.21811	-63.46626	-23.59643	0.81367	0
28	-6.50936	23.59643	30.10579	-8.95037	-17.90074	27.66478	-65.90727	-132.62821	-108.21811	-61.02525	-21.15542	0.81367	0
29	-8.95037	23.59643	32.5468	-6.50936	-20.34175	27.66478	-61.02525	-127.74619	-105.7771	-58.58424	-18.71441	3.25468	0
30	-14.64606	23.59643	37.42882	-4.06835	-25.22377	30.10579	-56.14323	-125.30518	-105.7771	-58.58424	-18.71441	5.69569	0
31	-14.64606	26.03744	39.86983	-6.50936	-27.66478	32.5468	-48.8202	-125.30518	-103.33609	-58.58424	-18.71441	8.1367	0
32	-14.64606	26.03744	39.86983	-6.50936	-27.66478	32.5468	-41.49717	-120.42316	-98.45407	-56.14323	-13.83239	10.57771	0
33	-14.64606	30.91946	44.75185	-8.95037	-30.10579	37.42882	-31.73313	-115.54114	-93.57205	-53.70222	-13.83239	15.45973	0
34	-8.95037	33.36047	42.31084	-11.39138	-25.22377	37.42882	-26.85111	-105.7771	-88.69003	-48.8202	-13.83239	20.34175	0
35	-4.06835	35.80148	39.86983	-16.2734	-22.78276	37.42882	-21.96909	-100.89508	-88.69003	-43.93818	-8.95037	22.78276	0
36	-1.62734	38.24249	39.86983	-18.71441	-20.34175	39.86983	-21.96909	-98.45407	-88.69003	-43.93818	-8.95037	22.78276	0
37	-1.62734	35.80148	37.42882	-16.2734	-20.34175	37.42882	-24.4101	-98.45407	-91.13104	-43.93818	-6.50936	22.78276	0
38	-1.62734	30.91946	32.5468	-13.83239	-17.90074	32.5468	-26.85111	-98.45407	-93.57205	-43.93818	-6.50936	20.34175	0
39	-4.06835	30.91946	34.98781	-13.83239	-20.34175	32.5468	-24.4101	-98.45407	-96.01306	-46.37919	-6.50936	17.90074	0
40	-8.95037	28.47845	37.42882	-8.95037	-22.78276	32.5468	-21.96909	-100.89508	-98.45407	-53.70222	-11.39138	15.45973	0
41	-14.64606	26.03744	39.86983	-6.50936	-27.66478	32.5468	-14.64606	-100.89508	-100.89508	-58.58424	-16.2734	13.01872	0
42	-17.08707	23.59643	39.86983	-4.06835	-27.66478	30.10579	-7.32303	-103.33609	-100.89508	-58.58424	-18.71441	10.57771	0
43	-19.52808	18.71441	37.42882	0.81367	-27.66478	27.66478	0	-103.33609	-100.89508	-61.02525	-23.59643	5.69569	0
44	-21.96909	16.2734	37.42882	3.25468	-30.10579	25.22377	0	-100.89508	-100.89508	-63.46626	-30.91946	3.25468	0
45	-26.85111	11.39138	37.42882	5.69569	-32.5468	22.78276	2.44101	-98.45407	-100.89508	-65.90727	-33.36047	-1.62734	0
46	-29.29212	6.50936	34.98781	11.39138	-32.5468	20.34175	0	-98.45407	-105.7771	-68.34828	-38.24249	-4.88202	0
47	-31.73313	0.81367	32.5468	13.83239	-32.5468	15.45973	-4.88202	-100.89508	-110.65912	-70.78929	-38.24249	-9.76404	0
48	-34.17414	0.81367	34.98781	16.2734	-34.98781	17.90074	-7.32303	-103.33609	-115.54114	-73.2303	-40.6835	-14.64606	0
49	-39.05616	-4.06835	34.98781	21.15542	-37.42882	15.45973	-9.76404	-103.33609	-117.98215	-75.67131	-43.12451	-14.64606	0
50	-43.93818	-4.06835	39.86983	23.59643	-42.31084	17.90074	-7.32303	-105.7771	-120.42316	-80.55333	-48.00653	-17.08707	0
51	-46.37919	-6.50936	39.86983	26.03744	-44.75185	15.45973	-2.44101	-108.21811	-125.30518	-85.43535	-50.44754	-19.52808	0
52	-46.37919	-6.50936	39.86983	26.03744	-44.75185	15.45973	2.44101	-110.65912	-125.30518	-85.43535	-50.44754	-19.52808	0
53	-53.70222	-11.39138	42.31084	30.91946	-49.63387	15.45973	4.88202	-110.65912	-125.30518	-87.87636	-52.88855	-19.52808	0
54	-56.14323	-18.71441	37.42882	35.80148	-47.19286	7.32303	4.88202	-108.21811	-125.30518	-90.31737	-60.21158	-21.96909	0
55	-56.14323	-18.71441	37.42882	35.80148	-47.19286	7.32303	4.88202	-105.7771	-125.30518	-90.31737	-60.21158	-21.96909	0
56	-48.8202	-16.2734	32.5468	30.91946	-42.31084	7.32303	0	-103.33609	-125.30518	-87.87636	-57.77057	-21.96909	0
57	-46.37919	-13.83239	32.5468	28.47845	-39.86983	7.32303	-2.44101	-103.33609	-125.30518	-85.43535	-52.88855	-21.96909	0
58	-46.37919	-16.2734	30.10579	30.91946	-39.86983	4.88202	-7.32303	-103.33609	-130.1872	-85.43535	-52.88855	-24.4101	0
59	-48.8202	-18.71441	30.10579	33.36047	-39.86983	4.88202	-7.32303	-105.7771	-132.62821	-87.87636	-52.88855	-24.4101	0
60	-51.26121	-18.71441	32.5468	33.36047	-42.31084	4.88202	-4.88202	-110.65912	-135.06922	-90.31737	-55.32956	-26.85111	0
61	-56.14323	-23.59643	32.5468	38.24249	-44.75185	2.44101	-2.44101	-113.10013	-139.95124	-95.19939	-57.77057	-26.85111	0
62	-61.02525	-26.03744	34.98781	43.12451	-49.63387	2.44101	2.44101	-115.54114	-137.51023	-95.19939	-57.77057	-26.85111	0
63	-63.46626	-28.47845	34.98781	45.56552	-49.63387	2.44101	7.32303	-113.10013	-135.06922	-95.19939	-60.21158	-29.29212	0
64	-61.02525	-28.47845	32.5468	43.12451	-47.19286	0	7.32303	-110.65912	-127.74619	-95.19939	-62.65259	-26.85111	0
65	-56.14323	-26.03744	30.10579	40.6835	-44.75185	0	7.32303	-105.7771	-120.42316	-92.75838	-62.65259	-26.85111	0
66	-48.8202	-23.59643	25.22377	35.80148	-37.42882	0	4.88202	-103.33609	-115.54114	-90.31737	-62.65259	-26.85111	0
67	-43.93818	-21.15542	22.78276	30.91946	-34.98781	0	2.44101	-100.89508	-113.10013	-87.87636	-57.77057	-26.85111	0
68	-43.93818	-18.71441	25.22377	30.91946	-34.98781	2.44101	0	-100.89508	-115.54114	-85.43535	-52.88855	-26.85111	0
69	-46.37919	-18.71441	27.66478	30.91946	-37.42882	2.44101	0	-100.89508	-120.42316	-85.43535	-52.88855	-26.85111	0
70	-46.37919	-18.71441	27.66478	30.91946	-37.42882	2.44101	0	-103.33609	-122.86417	-87.87636	-52.88855	-26.85111	0
71	-48.8202	-18.71441	30.10579	33.36047	-39.86983	4.88202	4.88202	-103.33609	-125.30518	-90.31737	-52.88855	-26.85111	0
72	-48.8202	-18.71441	30.10579	33.36047	-39.86983	4.88202	9.76404	-103.33609	-122.86417	-90.31737	-52.88855	-26.85111	0
73	-51.26121	-21.15542	30.10579	35.80148	-42.31084	2.44101	12.20505	-103.33609	-117.98215	-90.31737	-52.88855	-26.85111	0
74	-48.8202	-21.15542	27.66478	33.36047	-39.86983	2.44101	12.20505	-96.01306	-113.10013	-90.31737	-52.88855	-26.85111	0
75	-43.93818	-18.71441	25.22377	30.91946	-34.98781	2.44101	12.20505	-91.13104	-103.33609	-85.43535	-52.88855	-24.4101	0
76	-41.49717	-16.2734	25.22377	28.47845	-34.98781	2.44101	7.32303	-86.24902	-100.89508	-82.99434	-50.44754	-24.4101	0
77	-41.49717	-16.2734	25.22377	28.47845	-34.98781	2.44101	4.88202	-86.24902	-98.45407	-80.55333	-43.12451	-24.4101	0
78	-41.49717	-16.2734	25.22377	28.47845	-34.98781	2.44101	2.44101	-83.80801	-100.89508	-78.11232	-40.6835	-24.4101	0
79	-43.93818	-16.2734	27.66478	28.47845	-37.42882	4.88202	2.44101	-81.367	-100.89508	-78.11232	-40.6835	-24.4101	0
80	-48.8202	-16.2734	32.5468	30.91946	-42.31084	7.32303	2.44101	-81.367	-103.33609	-78.11232	-40.6835	-24.4101	0
81	-51.26121	-18.71441	32.5468	33.36047	-42.31084	4.88202	7.32303	-81.367	-103.33609	-80.55333	-43.12451	-24.4101	0
82	-51.26121	-21.15542	30.10579	35.80148	-42.31084	2.44101	9.76404	-83.80801	-100.89508	-80.55333	-43.12451	-24.4101	0
83	-51.26121	-21.15542	30.10579	35.80148	-42.31084	2.44101	12.20505	-81.367	-98.45407	-78.11232	-40.6835	-21.96909	0
84	-51.26121	-21.15542	30.10579	35.80148	-42.31084	2.44101	12.20505	-76.48498	-96.01306	-75.67131	-43.12451	-21.96909	0
85	-48.8202	-23.59643	25.22377	35.80148	-37.42882	0	12.20505	-74.04397	-93.57205	-73.2303	-43.12451	-19.52808	0
86	-48.8202	-26.03744	22.78276	35.80148	-37.42882	-2.44101	7.32303	-71.60296	-88.69003	-70.78929	-40.6835	-19.52808	0
87	-46.37919	-26.03744	20.34175	35.80148	-34.98781	-4.88202	4.88202	-71.60296	-86.24902	-65.90727	-35.80148	-17.08707	0
88	-43.93818	-23.59643	20.34175	33.36047	-32.5468	-2.44101	4.88202	-64.27993	-81.367	-58.58424	-28.47845	-14.64606	0
89	-36.61515	-16.2734	20.34175	26.03744	-30.10579	0	9.76404	-52.07488	-66.72094	-48.8202	-18.71441	-9.76404	0
90	-26.85111	-16.2734	9.76404	21.15542	-20.34175	-4.88202	19.52808	-30.10579	-44.75185	-31.73313	-6.50936	-1.62734	0
91	-19.52808	-18.71441	0	18.71441	-9.76404	-9.76404	32.5468	1.62734	-10.57771	-7.32303	11.39138	13.01872	0
92	-8.95037	-28.47845	-19.52808	18.71441	4.88202	-24.4101	47.19286	46.37919	36.61515	32.5468	45.56552	32.5468	0
93	8.1367	-35.80148	-43.93818	13.83239	24.4101	-39.05616	64.27993	107.40444	97.6404	91.13104	94.38572	61.83892	0
94	34.98781	-48.00653	-82.99434	5.69569	58.58424	-65.90727	76.48498	175.75272	170.8707	164.36134	157.85198	105.7771	0
95	66.72094	-60.21158	-126.93252	-4.06835	95.19939	-92.75838	86.24902	248.98302	253.86504	249.79669	238.40531	159.47932	0
96	103.33609	-74.85764	-178.19373	-13.83239	139.13757	-126.93252	86.24902	317.3313	339.30039	344.99608	333.6047	225.38659	0
97	154.5973	-84.62168	-239.21898	-35.80148	195.2808	-161.10666	76.48498	378.35655	422.29473	449.95951	448.33217	305.93992	0
98	218.06356	-89.5037	-307.56726	-65.0936	261.18807	-197.72181	49.63387	422.29473	488.202	542.71789	560.61863	393.81628	0
99	288.85285	-94.38572	-383.23857	-96.82673	334.41837	-239.21898	9.76404	429.61776	522.37614	603.74314	650.936	471.9286	0
100	364.52416	-109.03178	-473.55594	-128.55986	417.41271	-290.48019	-48.8202	405.20766	510.17109	620.83021	704.63822	528.07183	1000	P+0
101	445.07749	-135.88289	-580.96038	-155.41097	512.6121	-358.82847	-124.49151	336.85938	449.14584	584.21506	714.40226	559.80496	0
102	523.18981	-172.49804	-695.68785	-174.93905	607.81149	-434.49978	-217.24989	229.45494	331.97736	491.45668	675.3461	554.92294	0
103	596.42011	-221.31824	-817.73835	-187.1441	705.45189	-519.93513	-324.65433	92.75838	170.8707	340.11406	585.02873	515.86678	0
104	659.88637	-284.7845	-944.67087	-187.1441	800.65128	-615.13452	-436.94079	-59.39791	-22.78276	152.15629	443.45015	437.75446	0
105	713.58859	-343.36874	-1056.95733	-184.70309	883.64562	-700.56987	-537.0222	-213.18154	-225.38659	-58.58424	270.13844	330.35002	0
106	750.20374	-401.95298	-1152.15672	-174.93905	949.55289	-776.24118	-627.33957	-359.64214	-425.54941	-273.39312	84.62168	205.85851	0
107	764.8498	-450.77318	-1215.62298	-157.85198	988.60905	-832.38441	-693.24684	-489.01567	-608.62516	-473.55594	-96.82673	78.92599	0
108	755.08576	-487.38833	-1242.47409	-133.44188	998.37309	-864.11754	-737.18502	-601.30213	-764.8498	-646.86765	-267.69743	-43.93818	0
109	716.0296	-504.4754	-1220.505	-106.59077	966.63996	-861.67653	-751.83108	-698.94253	-891.78232	-790.88724	-421.48106	-156.22464	0
110	650.12233	-504.4754	-1154.59773	-72.41663	900.73269	-829.9434	-739.62603	-789.2599	-991.86373	-903.1737	-550.85459	-258.74706	0
111	559.80496	-489.82934	-1049.6343	-35.80148	803.09229	-768.91815	-705.45189	-862.4902	-1057.771	-976.404	-646.05398	-336.85938	0
112	459.72355	-462.97823	-922.70178	0.81367	690.80583	-693.24684	-651.74967	-903.98737	-1079.74009	-1000.8141	-694.87418	-385.67958	0
113	349.8781	-426.36308	-776.24118	38.24249	561.4323	-600.48846	-583.40139	-906.42838	-1055.32999	-983.72703	-707.07923	-412.53069	0
114	235.15063	-389.74793	-624.89856	77.29865	429.61776	-507.73008	-507.73008	-874.69525	-996.74575	-932.46582	-692.43317	-419.85372	0
115	135.06922	-345.80975	-480.87897	104.14976	307.56726	-412.53069	-427.17675	-813.67	-908.86939	-854.3535	-648.49499	-407.64867	0
116	52.07488	-299.43056	-351.50544	123.67784	200.16282	-324.65433	-346.62342	-725.79364	-799.02394	-756.7131	-587.46974	-380.79756	0
117	-8.95037	-255.49238	-246.54201	131.00087	117.16848	-251.42403	-273.39312	-620.83021	-681.85546	-651.74967	-514.23944	-344.18241	0
118	-58.58424	-216.43622	-158.66565	135.88289	48.8202	-187.95777	-205.04484	-515.86678	-567.12799	-549.22725	-443.45015	-307.56726	0
119	-92.75838	-177.38006	-85.43535	133.44188	-4.88202	-131.81454	-144.01959	-420.66739	-464.60557	-456.46887	-377.54288	-268.5111	0
120	-107.40444	-138.3239	-31.73313	121.23683	-39.86983	-85.43535	-92.75838	-337.67305	-374.2882	-375.91554	-318.95864	-229.45494	0
121	-114.72747	-104.14976	9.76404	109.03178	-64.27993	-48.8202	-51.26121	-271.76578	-298.61689	-307.56726	-267.69743	-195.2808	0
122	-114.72747	-77.29865	37.42882	94.38572	-76.48498	-21.96909	-17.08707	-215.62255	-237.59164	-248.98302	-221.31824	-165.98868	0
123	-107.40444	-55.32956	52.07488	79.73966	-81.367	-2.44101	7.32303	-166.80235	-183.88942	-200.16282	-182.26208	-141.57858	0
124	-97.6404	-35.80148	61.83892	65.0936	-81.367	13.01872	22.78276	-125.30518	-144.83326	-161.10666	-150.52895	-119.60949	0
125	-85.43535	-21.15542	64.27993	52.88855	-76.48498	20.34175	30.10579	-93.57205	-110.65912	-126.93252	-123.67784	-102.52242	0
126	-75.67131	-11.39138	64.27993	43.12451	-71.60296	25.22377	32.5468	-74.04397	-88.69003	-107.40444	-104.14976	-87.87636	0
127	-68.34828	-6.50936	61.83892	35.80148	-66.72094	27.66478	32.5468	-56.9569	-74.04397	-87.87636	-84.62168	-75.67131	0
128	-63.46626	-1.62734	61.83892	30.91946	-64.27993	30.10579	34.98781	-44.75185	-61.83892	-73.2303	-72.41663	-65.90727	0
129	-63.46626	0.81367	64.27993	30.91946	-64.27993	32.5468	39.86983	-34.98781	-47.19286	-61.02525	-62.65259	-58.58424	0
130	-63.46626	0.81367	64.27993	30.91946	-64.27993	32.5468	42.31084	-27.66478	-37.42882	-53.70222	-57.77057	-51.26121	0
131	-65.90727	0.81367	66.72094	30.91946	-66.72094	32.5468	49.63387	-22.78276	-32.5468	-48.8202	-52.88855	-46.37919	0
132	-63.46626	0.81367	64.27993	30.91946	-64.27993	32.5468	52.07488	-17.90074	-25.22377	-41.49717	-48.00653	-43.93818	0
133	-61.02525	0.81367	61.83892	28.47845	-61.83892	30.10579	54.51589	-13.01872	-20.34175	-39.05616	-43.12451	-41.49717	0
134	-61.02525	-1.62734	59.39791	30.91946	-61.83892	27.66478	52.07488	-5.69569	-15.45973	-34.17414	-43.12451	-39.05616	0
135	-56.14323	-1.62734	54.51589	28.47845	-56.9569	25.22377	52.07488	1.62734	-10.57771	-29.29212	-40.6835	-36.61515	0
136	-51.26121	0.81367	52.07488	23.59643	-52.07488	25.22377	49.63387	8.95037	-5.69569	-24.4101	-35.80148	-34.17414	0
137	-51.26121	0.81367	52.07488	23.59643	-52.07488	25.22377	47.19286	11.39138	-0.81367	-21.96909	-28.47845	-31.73313	0
138	-53.70222	0.81367	54.51589	26.03744	-54.51589	27.66478	47.19286	13.83239	4.06835	-17.08707	-23.59643	-29.29212	0
139	-53.70222	6.50936	59.39791	23.59643	-56.9569	32.5468	52.07488	18.71441	8.95037	-12.20505	-18.71441	-26.85111	0
140	-53.70222	11.39138	64.27993	21.15542	-59.39791	37.42882	59.39791	21.15542	13.83239	-9.76404	-16.2734	-21.96909	0
141	-51.26121	13.83239	64.27993	18.71441	-56.9569	37.42882	66.72094	23.59643	16.2734	-7.32303	-16.2734	-19.52808	0
142	-48.8202	18.71441	66.72094	13.83239	-56.9569	42.31084	74.04397	23.59643	18.71441	-2.44101	-11.39138	-14.64606	0
143	-46.37919	21.15542	66.72094	11.39138	-56.9569	42.31084	78.92599	29.29212	23.59643	0	-8.95037	-12.20505	0
144	-43.93818	21.15542	64.27993	11.39138	-54.51589	42.31084	74.04397	36.61515	26.03744	4.88202	-8.95037	-9.76404	0
145	-43.93818	21.15542	64.27993	11.39138	-54.51589	42.31084	71.60296	41.49717	26.03744	7.32303	-8.95037	-9.76404	0
146	-41.49717	18.71441	59.39791	11.39138	-49.63387	37.42882	64.27993	41.49717	26.03744	9.76404	-8.95037	-9.76404	0
147	-39.05616	18.71441	56.9569	8.95037	-47.19286	37.42882	59.39791	41.49717	26.03744	9.76404	-4.06835	-12.20505	0
148	-41.49717	16.2734	56.9569	11.39138	-49.63387	34.98781	56.9569	43.93818	29.29212	12.20505	-4.06835	-12.20505	0
149	-46.37919	13.83239	59.39791	16.2734	-52.07488	34.98781	56.9569	41.49717	29.29212	12.20505	-4.06835	-14.64606	0
150	-43.93818	13.83239	56.9569	13.83239	-49.63387	34.98781	59.39791	41.49717	31.73313	12.20505	-6.50936	-17.08707	0
151	-43.93818	13.83239	56.9569	13.83239	-49.63387	34.98781	64.27993	41.49717	31.73313	9.76404	-8.95037	-17.08707	0
152	-43.93818	16.2734	59.39791	13.83239	-52.07488	37.42882	66.72094	39.05616	34.17414	12.20505	-8.95037	-17.08707	0
153	-43.93818	16.2734	59.39791	13.83239	-52.07488	37.42882	69.16195	41.49717	36.61515	12.20505	-8.95037	-14.64606	0
154	-43.93818	16.2734	59.39791	13.83239	-52.07488	37.42882	66.72094	46.37919	36.61515	14.64606	-11.39138	-14.64606	0
155	-43.93818	13.83239	56.9569	13.83239	-49.63387	34.98781	66.72094	51.26121	36.61515	17.90074	-11.39138	-12.20505	0
156	-43.93818	13.83239	56.9569	13.83239	-49.63387	34.98781	64.27993	56.14323	41.49717	17.90074	-11.39138	-12.20505	0
157	-43.93818	11.39138	54.51589	16.2734	-49.63387	32.5468	59.39791	56.14323	41.49717	22.78276	-6.50936	-12.20505	0
158	-48.8202	8.95037	56.9569	18.71441	-52.07488	32.5468	59.39791	58.58424	41.49717	22.78276	-4.06835	-12.20505	0
159	-53.70222	8.95037	61.83892	21.15542	-56.9569	34.98781	61.83892	58.58424	43.93818	22.78276	-4.06835	-14.64606	0
160	-53.70222	8.95037	61.83892	21.15542	-56.9569	34.98781	66.72094	61.02525	46.37919	22.78276	-4.06835	-12.20505	0
161	-56.14323	11.39138	66.72094	21.15542	-61.83892	37.42882	71.60296	61.02525	48.8202	22.78276	-4.06835	-12.20505	0
162	-56.14323	11.39138	66.72094	21.15542	-61.83892	37.42882	76.48498	61.02525	51.26121	25.22377	-0.81367	-9.76404	0
163	-53.70222	16.2734	69.16195	18.71441	-61.83892	42.31084	81.367	68.34828	56.14323	30.10579	1.62734	-4.88202	0
164	-46.37919	21.15542	66.72094	11.39138	-56.9569	42.31084	83.80801	75.67131	61.02525	32.5468	1.62734	-4.88202	0
165	-43.93818	21.15542	64.27993	11.39138	-54.51589	42.31084	83.80801	82.99434	63.46626	37.42882	1.62734	-4.88202	0
166	-43.93818	21.15542	64.27993	11.39138	-54.51589	42.31084	83.80801	87.87636	68.34828	39.86983	4.06835	-1.62734	0
167	-41.49717	21.15542	61.83892	8.95037	-52.07488	39.86983	81.367	90.31737	70.78929	44.75185	11.39138	-1.62734	0
168	-41.49717	23.59643	64.27993	8.95037	-52.07488	42.31084	78.92599	90.31737	70.78929	44.75185	13.83239	-1.62734	0
169	-46.37919	21.15542	66.72094	11.39138	-56.9569	42.31084	78.92599	90.31737	73.2303	44.75185	13.83239	-4.88202	0
170	-53.70222	18.71441	71.60296	16.2734	-61.83892	44.75185	76.48498	90.31737	75.67131	44.75185	13.83239	-4.88202	0
171	-56.14323	16.2734	71.60296	18.71441	-64.27993	42.31084	76.48498	90.31737	75.67131	42.31084	8.95037	-4.88202	0
172	-56.14323	13.83239	69.16195	21.15542	-61.83892	39.86983	78.92599	90.31737	78.11232	44.75185	11.39138	-4.88202	0
173	-56.14323	13.83239	69.16195	21.15542	-61.83892	39.86983	81.367	92.75838	80.55333	47.19286	11.39138	-4.88202	0
174	-58.58424	11.39138	69.16195	23.59643	-64.27993	39.86983	81.367	100.08141	85.43535	49.63387	8.95037	-4.88202	0
175	-58.58424	8.95037	66.72094	23.59643	-61.83892	37.42882	83.80801	107.40444	90.31737	54.51589	11.39138	-4.88202	0
176	-53.70222	11.39138	64.27993	21.15542	-59.39791	37.42882	83.80801	112.28646	95.19939	56.9569	13.83239	-1.62734	0
177	-48.8202	13.83239	61.83892	16.2734	-54.51589	37.42882	83.80801	119.60949	100.08141	61.83892	21.15542	0.81367	0
178	-48.8202	16.2734	64.27993	16.2734	-56.9569	39.86983	86.24902	124.49151	107.40444	66.72094	23.59643	0.81367	0
179	-48.8202	18.71441	66.72094	13.83239	-56.9569	42.31084	86.24902	129.37353	114.72747	69.16195	26.03744	0.81367	0
180	-48.8202	23.59643	71.60296	11.39138	-59.39791	47.19286	86.24902	131.81454	122.0505	69.16195	26.03744	0.81367	0
181	-48.8202	28.47845	76.48498	8.95037	-61.83892	52.07488	91.13104	136.69656	126.93252	71.60296	26.03744	3.25468	0
182	-43.93818	30.91946	74.04397	5.69569	-59.39791	52.07488	96.01306	141.57858	134.25555	76.48498	28.47845	5.69569	0
183	-41.49717	30.91946	71.60296	5.69569	-56.9569	49.63387	100.89508	148.90161	139.13757	78.92599	30.91946	5.69569	0
184	-39.05616	30.91946	69.16195	3.25468	-54.51589	49.63387	103.33609	158.66565	146.4606	83.80801	30.91946	8.1367	0
185	-36.61515	30.91946	66.72094	3.25468	-52.07488	47.19286	103.33609	168.42969	151.34262	91.13104	30.91946	10.57771	0
186	-34.17414	30.91946	64.27993	0.81367	-49.63387	47.19286	103.33609	175.75272	156.22464	96.01306	35.80148	10.57771	0
187	-31.73313	28.47845	59.39791	0.81367	-44.75185	42.31084	103.33609	180.63474	161.10666	100.89508	40.6835	10.57771	0
188	-36.61515	26.03744	61.83892	5.69569	-49.63387	42.31084	100.89508	187.95777	165.98868	105.7771	43.12451	10.57771	0
189	-41.49717	23.59643	64.27993	8.95037	-52.07488	42.31084	98.45407	192.83979	173.31171	105.7771	43.12451	10.57771	0
190	-46.37919	23.59643	69.16195	11.39138	-56.9569	44.75185	98.45407	200.16282	178.19373	105.7771	43.12451	10.57771	0
191	-51.26121	21.15542	71.60296	13.83239	-61.83892	44.75185	100.89508	205.04484	183.07575	108.21811	40.6835	10.57771	0
192	-53.70222	21.15542	74.04397	16.2734	-64.27993	47.19286	108.21811	212.36787	190.39878	115.54114	43.12451	10.57771	0
193	-53.70222	23.59643	76.48498	13.83239	-64.27993	49.63387	113.10013	219.6909	197.72181	120.42316	45.56552	15.45973	0
194	-51.26121	23.59643	74.04397	13.83239	-61.83892	47.19286	115.54114	231.89595	205.04484	127.74619	45.56552	15.45973	0
195	-41.49717	30.91946	71.60296	5.69569	-56.9569	49.63387	122.86417	244.101	214.80888	137.51023	50.44754	17.90074	0
196	-29.29212	38.24249	66.72094	-4.06835	-47.19286	52.07488	127.74619	258.74706	224.57292	144.83326	55.32956	20.34175	0
197	-24.4101	40.6835	64.27993	-8.95037	-44.75185	52.07488	127.74619	266.07009	231.89595	152.15629	60.21158	20.34175	0
198	-21.96909	43.12451	64.27993	-11.39138	-42.31084	52.07488	130.1872	275.83413	241.65999	157.03831	65.0936	20.34175	0
199	-21.96909	43.12451	64.27993	-11.39138	-42.31084	52.07488	130.1872	280.71615	246.54201	159.47932	65.0936	20.34175	0
200	-17.08707	48.00653	64.27993	-16.2734	-39.86983	54.51589	132.62821	290.48019	256.30605	161.92033	65.0936	20.34175	0
201	-17.08707	50.44754	66.72094	-16.2734	-42.31084	56.9569	135.06922	295.36221	261.18807	164.36134	65.0936	20.34175	0
202	-21.96909	43.12451	64.27993	-11.39138	-42.31084	52.07488	137.51023	300.24423	268.5111	169.24336	65.0936	20.34175	0
203	-19.52808	43.12451	61.83892	-11.39138	-39.86983	52.07488	139.95124	310.00827	275.83413	171.68437	65.0936	20.34175	0
204	-14.64606	43.12451	56.9569	-13.83239	-34.98781	49.63387	142.39225	322.21332	285.59817	179.0074	65.0936	20.34175	0
205	-11.39138	45.56552	56.9569	-16.2734	-34.98781	52.07488	147.27427	334.41837	292.9212	186.33043	67.53461	20.34175	0
206	-11.39138	43.12451	54.51589	-16.2734	-32.5468	49.63387	147.27427	344.18241	302.68524	193.65346	69.97562	20.34175	0
207	-11.39138	40.6835	52.07488	-13.83239	-32.5468	47.19286	147.27427	353.94645	310.00827	198.53548	74.85764	20.34175	0
208	-11.39138	38.24249	49.63387	-13.83239	-30.10579	44.75185	144.83326	361.26948	317.3313	203.4175	77.29865	20.34175	0
209	-14.64606	38.24249	52.07488	-11.39138	-32.5468	44.75185	144.83326	368.59251	324.65433	205.85851	77.29865	20.34175	0
210	-14.64606	38.24249	52.07488	-11.39138	-32.5468	44.75185	144.83326	373.47453	329.53635	208.29952	77.29865	20.34175	0
211	-14.64606	35.80148	49.63387	-11.39138	-32.5468	42.31084	144.83326	378.35655	334.41837	208.29952	77.29865	20.34175	0
212	-11.39138	35.80148	47.19286	-11.39138	-30.10579	42.31084	147.27427	383.23857	339.30039	208.29952	77.29865	20.34175	0
213	-4.06835	40.6835	44.75185	-18.71441	-25.22377	42.31084	152.15629	390.5616	346.62342	213.18154	79.73966	22.78276	0
214	5.69569	45.56552	39.86983	-26.03744	-17.90074	42.31084	154.5973	400.32564	351.50544	218.06356	79.73966	22.78276	0
215	13.01872	45.56552	32.5468	-28.47845	-9.76404	39.86983	154.5973	407.64867	356.38746	222.94558	79.73966	22.78276	0
216	17.90074	48.00653	30.10579	-33.36047	-4.88202	39.86983	154.5973	414.9717	358.82847	225.38659	82.18067	22.78276	0
217	22.78276	48.00653	25.22377	-35.80148	0	37.42882	154.5973	417.41271	361.26948	227.8276	84.62168	22.78276	0
218	22.78276	50.44754	27.66478	-35.80148	-2.44101	39.86983	152.15629	422.29473	363.71049	230.26861	87.06269	22.78276	0
219	22.78276	52.88855	30.10579	-38.24249	-2.44101	42.31084	152.15629	422.29473	366.1515	230.26861	87.06269	20.34175	0
220	22.78276	52.88855	30.10579	-38.24249	-2.44101	42.31084	152.15629	422.29473	366.1515	227.8276	87.06269	17.90074	0
221	17.90074	50.44754	32.5468	-33.36047	-7.32303	42.31084	152.15629	419.85372	363.71049	222.94558	84.62168	15.45973	0
222	17.90074	50.44754	32.5468	-33.36047	-7.32303	42.31084	154.5973	419.85372	363.71049	222.94558	84.62168	15.45973	0
223	20.34175	52.88855	32.5468	-35.80148	-4.88202	42.31084	159.47932	422.29473	366.1515	222.94558	84.62168	15.45973	0
224	25.22377	52.88855	27.66478	-38.24249	0	39.86983	159.47932	424.73574	366.1515	222.94558	79.73966	15.45973	0
225	30.10579	48.00653	17.90074	-38.24249	7.32303	32.5468	159.47932	427.17675	363.71049	225.38659	77.29865	15.45973	0
226	30.10579	45.56552	14.64606	-38.24249	7.32303	30.10579	154.5973	427.17675	363.71049	222.94558	74.85764	15.45973	0
227	32.5468	43.12451	9.76404	-38.24249	12.20505	27.66478	147.27427	422.29473	361.26948	222.94558	77.29865	15.45973	0
228	32.5468	40.6835	7.32303	-35.80148	12.20505	25.22377	139.95124	417.41271	356.38746	220.50457	77.29865	15.45973	0
229	32.5468	40.6835	7.32303	-35.80148	12.20505	25.22377	132.62821	407.64867	353.94645	218.06356	79.73966	15.45973	0
230	34.98781	45.56552	9.76404	-40.6835	12.20505	27.66478	130.1872	400.32564	349.06443	213.18154	82.18067	17.90074	0
231	32.5468	48.00653	14.64606	-40.6835	9.76404	32.5468	127.74619	390.5616	339.30039	208.29952	79.73966	20.34175	0
232	32.5468	48.00653	14.64606	-40.6835	9.76404	32.5468	127.74619	378.35655	331.97736	203.4175	82.18067	22.78276	0
233	34.98781	52.88855	17.90074	-43.12451	9.76404	34.98781	132.62821	368.59251	327.09534	200.97649	79.73966	25.22377	0
234	42.31084	60.21158	17.90074	-50.44754	12.20505	39.86983	135.06922	363.71049	322.21332	200.97649	77.29865	30.10579	0
235	49.63387	65.0936	14.64606	-57.77057	17.08707	39.86983	135.06922	358.82847	314.89029	200.97649	77.29865	34.98781	0
236	56.9569	67.53461	9.76404	-62.65259	24.4101	39.86983	135.06922	351.50544	312.44928	198.53548	77.29865	37.42882	0
237	64.27993	69.97562	4.88202	-67.53461	29.29212	37.42882	130.1872	341.7414	305.12625	198.53548	79.73966	37.42882	0
238	64.27993	72.41663	7.32303	-67.53461	29.29212	39.86983	122.86417	327.09534	295.36221	193.65346	79.73966	39.86983	0
239	64.27993	72.41663	7.32303	-67.53461	29.29212	39.86983	113.10013	310.00827	285.59817	186.33043	84.62168	39.86983	0
240	59.39791	72.41663	12.20505	-65.0936	24.4101	42.31084	103.33609	290.48019	273.39312	179.0074	87.06269	39.86983	0
241	49.63387	67.53461	17.90074	-57.77057	17.08707	42.31084	91.13104	268.5111	256.30605	166.80235	82.18067	39.86983	0
242	44.75185	62.65259	17.90074	-52.88855	14.64606	39.86983	83.80801	248.98302	239.21898	157.03831	82.18067	39.86983	0
243	34.98781	60.21158	25.22377	-48.00653	4.88202	42.31084	83.80801	227.01393	224.57292	147.27427	77.29865	39.86983	0
244	32.5468	57.77057	25.22377	-45.56552	4.88202	42.31084	78.92599	207.48585	209.92686	137.51023	69.97562	39.86983	0
245	32.5468	55.32956	22.78276	-43.12451	4.88202	39.86983	76.48498	192.83979	195.2808	132.62821	67.53461	42.31084	0
246	32.5468	52.88855	20.34175	-43.12451	7.32303	37.42882	69.16195	175.75272	183.07575	125.30518	65.0936	42.31084	0
247	32.5468	52.88855	20.34175	-43.12451	7.32303	37.42882	61.83892	161.10666	170.8707	120.42316	67.53461	42.31084	0
248	25.22377	45.56552	20.34175	-35.80148	2.44101	32.5468	52.07488	141.57858	156.22464	113.10013	65.0936	42.31084	0
249	20.34175	43.12451	22.78276	-30.91946	0	32.5468	44.75185	122.0505	144.01959	105.7771	65.0936	39.86983	0
250	15.45973	43.12451	27.66478	-28.47845	-4.88202	34.98781	37.42882	104.96343	134.25555	96.01306	65.0936	39.86983	0
251	8.1367	43.12451	34.98781	-26.03744	-12.20505	39.86983	32.5468	87.87636	119.60949	86.24902	60.21158	39.86983	0
252	3.25468	43.12451	39.86983	-23.59643	-17.90074	42.31084	32.5468	73.2303	109.84545	78.92599	60.21158	39.86983	0
253	-1.62734	45.56552	47.19286	-21.15542	-25.22377	47.19286	34.98781	58.58424	100.08141	69.16195	55.32956	39.86983	0
254	3.25468	50.44754	47.19286	-26.03744	-22.78276	49.63387	37.42882	51.26121	95.19939	64.27993	48.00653	39.86983	0
255	5.69569	52.88855	47.19286	-28.47845	-20.34175	49.63387	39.86983	43.93818	87.87636	61.83892	45.56552	39.86983	0
256	5.69569	52.88855	47.19286	-28.47845	-20.34175	49.63387	37.42882	39.05616	80.55333	54.51589	43.12451	37.42882	0
257	8.1367	52.88855	44.75185	-30.91946	-17.90074	49.63387	32.5468	31.73313	73.2303	52.07488	43.12451	34.98781	0
258	5.69569	50.44754	44.75185	-28.47845	-20.34175	47.19286	27.66478	23.59643	68.34828	49.63387	43.12451	32.5468	0
259	3.25468	48.00653	44.75185	-26.03744	-20.34175	47.19286	22.78276	13.83239	61.02525	44.75185	43.12451	32.5468	0
260	-4.06835	43.12451	47.19286	-18.71441	-25.22377	44.75185	19.52808	4.06835	51.26121	39.86983	43.12451	27.66478	0
261	-11.39138	40.6835	52.07488	-13.83239	-32.5468	47.19286	14.64606	-5.69569	41.49717	30.10579	40.6835	25.22377	0
262	-14.64606	40.6835	54.51589	-13.83239	-34.98781	47.19286	14.64606	-15.45973	34.17414	25.22377	35.80148	25.22377	0
263	-14.64606	40.6835	54.51589	-13.83239	-34.98781	47.19286	19.52808	-25.22377	26.03744	17.90074	30.91946	22.78276	0
264	-14.64606	38.24249	52.07488	-11.39138	-32.5468	44.75185	19.52808	-30.10579	23.59643	14.64606	23.59643	22.78276	0
265	-14.64606	38.24249	52.07488	-11.39138	-32.5468	44.75185	22.78276	-30.10579	18.71441	14.64606	18.71441	20.34175	0
266	-14.64606	35.80148	49.63387	-11.39138	-32.5468	42.31084	22.78276	-32.5468	16.2734	12.20505	13.83239	20.34175	0
267	-8.95037	35.80148	44.75185	-13.83239	-27.66478	39.86983	22.78276	-32.5468	13.83239	12.20505	13.83239	17.90074	0
268	-8.95037	35.80148	44.75185	-13.83239	-27.66478	39.86983	19.52808	-34.98781	13.83239	12.20505	13.83239	15.45973	0
269	-11.39138	35.80148	47.19286	-11.39138	-30.10579	42.31084	14.64606	-37.42882	11.39138	9.76404	13.83239	13.01872	0
270	-14.64606	35.80148	49.63387	-11.39138	-32.5468	42.31084	12.20505	-42.31084	8.95037	7.32303	18.71441	13.01872	0
271	-21.96909	35.80148	56.9569	-6.50936	-39.86983	44.75185	9.76404	-47.19286	4.06835	0	13.83239	10.57771	0
272	-24.4101	33.36047	56.9569	-4.06835	-39.86983	44.75185	12.20505	-49.63387	1.62734	-2.44101	13.83239	8.1367	0
273	-29.29212	33.36047	61.83892	-1.62734	-44.75185	47.19286	19.52808	-54.51589	-0.81367	-4.88202	8.95037	8.1367	0
274	-29.29212	33.36047	61.83892	-1.62734	-44.75185	47.19286	19.52808	-54.51589	-5.69569	-7.32303	1.62734	8.1367	0
275	-31.73313	28.47845	59.39791	0.81367	-44.75185	42.31084	22.78276	-54.51589	-8.1367	-7.32303	-0.81367	5.69569	0
276	-29.29212	28.47845	56.9569	0.81367	-42.31084	42.31084	22.78276	-49.63387	-8.1367	-7.32303	-4.06835	5.69569	0
277	-24.4101	30.91946	54.51589	-4.06835	-39.86983	42.31084	19.52808	-47.19286	-5.69569	-2.44101	1.62734	8.1367	0
278	-21.96909	33.36047	54.51589	-6.50936	-37.42882	42.31084	17.08707	-49.63387	-5.69569	-2.44101	4.06835	8.1367	0
279	-21.96909	33.36047	54.51589	-6.50936	-37.42882	42.31084	12.20505	-54.51589	-5.69569	-2.44101	6.50936	5.69569	0
280	-21.96909	35.80148	56.9569	-6.50936	-39.86983	44.75185	9.76404	-59.39791	-5.69569	-2.44101	11.39138	3.25468	0
281	-21.96909	40.6835	61.83892	-8.95037	-42.31084	49.63387	7.32303	-61.83892	-8.1367	-7.32303	11.39138	3.25468	0
282	-21.96909	40.6835	61.83892	-8.95037	-42.31084	49.63387	7.32303	-66.72094	-10.57771	-9.76404	11.39138	3.25468	0
283	-26.85111	33.36047	59.39791	-4.06835	-42.31084	44.75185	9.76404	-71.60296	-17.90074	-14.64606	4.06835	-1.62734	0
284	-29.29212	28.47845	56.9569	0.81367	-42.31084	42.31084	12.20505	-74.04397	-20.34175	-17.08707	-4.06835	-4.88202	0
285	-26.85111	26.03744	52.07488	0.81367	-39.86983	37.42882	14.64606	-69.16195	-20.34175	-14.64606	-4.06835	-4.88202	0
286	-21.96909	26.03744	47.19286	-1.62734	-34.98781	34.98781	14.64606	-64.27993	-17.90074	-14.64606	-6.50936	-4.88202	0
287	-21.96909	26.03744	47.19286	-1.62734	-34.98781	34.98781	12.20505	-61.83892	-15.45973	-9.76404	-4.06835	-4.88202	0
288	-24.4101	26.03744	49.63387	-1.62734	-37.42882	37.42882	9.76404	-61.83892	-13.01872	-9.76404	-4.06835	-4.88202	0
289	-24.4101	26.03744	49.63387	-1.62734	-37.42882	37.42882	4.88202	-59.39791	-13.01872	-7.32303	-0.81367	-4.88202	0
290	-29.29212	30.91946	59.39791	-1.62734	-44.75185	44.75185	4.88202	-59.39791	-10.57771	-4.88202	4.06835	-4.88202	0
291	-36.61515	30.91946	66.72094	3.25468	-52.07488	47.19286	2.44101	-61.83892	-13.01872	-9.76404	1.62734	-4.88202	0
292	-41.49717	28.47845	69.16195	5.69569	-54.51589	47.19286	2.44101	-66.72094	-15.45973	-12.20505	1.62734	-7.32303	0
293	-46.37919	23.59643	69.16195	11.39138	-56.9569	44.75185	7.32303	-69.16195	-17.90074	-14.64606	-4.06835	-9.76404	0
294	-43.93818	23.59643	66.72094	8.95037	-54.51589	44.75185	12.20505	-69.16195	-20.34175	-17.08707	-8.95037	-9.76404	1500	QRS+0
295	-41.49717	23.59643	64.27993	8.95037	-52.07488	42.31084	14.64606	-64.27993	-20.34175	-14.64606	-11.39138	-9.76404	0
296	-36.61515	23.59643	59.39791	5.69569	-47.19286	39.86983	14.64606	-61.83892	-15.45973	-14.64606	-11.39138	-9.76404	0
297	-29.29212	23.59643	52.07488	3.25468	-39.86983	37.42882	14.64606	-59.39791	-15.45973	-9.76404	-11.39138	-9.76404	0
298	-26.85111	28.47845	54.51589	-1.62734	-39.86983	39.86983	12.20505	-59.39791	-13.01872	-7.32303	-8.95037	-9.76404	0
299	-24.4101	28.47845	52.07488	-1.62734	-37.42882	39.86983	9.76404	-59.39791	-13.01872	-7.32303	-4.06835	-9.76404	0
300	-29.29212	28.47845	56.9569	0.81367	-42.31084	42.31084	7.32303	-61.83892	-13.01872	-7.32303	-4.06835	-9.76404	0
301	-34.17414	30.91946	64.27993	0.81367	-49.63387	47.19286	4.88202	-64.27993	-15.45973	-9.76404	-4.06835	-9.76404	0
302	-36.61515	33.36047	69.16195	0.81367	-52.07488	49.63387	4.88202	-66.72094	-17.90074	-9.76404	-4.06835	-14.64606	0
303	-39.05616	33.36047	71.60296	3.25468	-54.51589	52.07488	12.20505	-69.16195	-17.90074	-12.20505	-6.50936	-14.64606	0
304	-39.05616	30.91946	69.16195	3.25468	-54.51589	49.63387	14.64606	-66.72094	-13.01872	-12.20505	-13.83239	-14.64606	0
305	-39.05616	30.91946	69.16195	3.25468	-54.51589	49.63387	19.52808	-61.83892	-13.01872	-7.32303	-13.83239	-14.64606	0
306	-36.61515	33.36047	69.16195	0.81367	-52.07488	49.63387	19.52808	-54.51589	-8.1367	-4.88202	-13.83239	-14.64606	0
307	-29.29212	35.80148	64.27993	-4.06835	-47.19286	49.63387	19.52808	-52.07488	-5.69569	0	-11.39138	-14.64606	0
308	-29.29212	35.80148	64.27993	-4.06835	-47.19286	49.63387	14.64606	-52.07488	-5.69569	2.44101	-8.95037	-14.64606	0
309	-29.29212	35.80148	64.27993	-4.06835	-47.19286	49.63387	9.76404	-52.07488	-8.1367	2.44101	-6.50936	-14.64606	0
310	-36.61515	35.80148	71.60296	0.81367	-54.51589	52.07488	7.32303	-54.51589	-8.1367	0	-6.50936	-17.08707	0
311	-39.05616	38.24249	76.48498	0.81367	-56.9569	56.9569	7.32303	-59.39791	-13.01872	-4.88202	-6.50936	-17.08707	0
312	-43.93818	35.80148	78.92599	3.25468	-61.83892	56.9569	9.76404	-64.27993	-13.01872	-4.88202	-8.95037	-17.08707	0
313	-51.26121	30.91946	81.367	8.95037	-66.72094	54.51589	12.20505	-66.72094	-13.01872	-9.76404	-13.83239	-19.52808	0
314	-51.26121	28.47845	78.92599	11.39138	-64.27993	52.07488	14.64606	-66.72094	-10.57771	-12.20505	-18.71441	-19.52808	0
315	-48.8202	28.47845	76.48498	8.95037	-61.83892	52.07488	17.08707	-64.27993	-10.57771	-9.76404	-21.15542	-19.52808	0
316	-46.37919	28.47845	74.04397	8.95037	-59.39791	49.63387	17.08707	-61.83892	-8.1367	-9.76404	-23.59643	-19.52808	0
317	-41.49717	26.03744	66.72094	5.69569	-54.51589	44.75185	12.20505	-61.83892	-8.1367	-4.88202	-18.71441	-21.96909	0
318	-36.61515	23.59643	59.39791	5.69569	-47.19286	39.86983	9.76404	-61.83892	-13.01872	-4.88202	-16.2734	-21.96909	0
319	-34.17414	26.03744	59.39791	3.25468	-47.19286	42.31084	2.44101	-64.27993	-15.45973	-4.88202	-13.83239	-21.96909	0
320	-39.05616	26.03744	64.27993	5.69569	-52.07488	44.75185	-2.44101	-69.16195	-20.34175	-4.88202	-11.39138	-21.96909	0
321	-43.93818	26.03744	69.16195	8.95037	-56.9569	47.19286	-4.88202	-76.48498	-25.22377	-9.76404	-13.83239	-24.4101	0
322	-48.8202	26.03744	74.04397	11.39138	-61.83892	49.63387	-2.44101	-81.367	-27.66478	-12.20505	-13.83239	-24.4101	0
323	-48.8202	26.03744	74.04397	11.39138	-61.83892	49.63387	2.44101	-81.367	-25.22377	-14.64606	-18.71441	-24.4101	0
324	-48.8202	23.59643	71.60296	11.39138	-59.39791	47.19286	4.88202	-83.80801	-22.78276	-14.64606	-23.59643	-24.4101	0
325	-51.26121	18.71441	69.16195	16.2734	-59.39791	42.31084	9.76404	-81.367	-22.78276	-14.64606	-26.03744	-24.4101	0
326	-46.37919	16.2734	61.83892	13.83239	-54.51589	37.42882	9.76404	-78.92599	-22.78276	-14.64606	-28.47845	-26.85111	0
327	-43.93818	13.83239	56.9569	13.83239	-49.63387	34.98781	7.32303	-76.48498	-22.78276	-12.20505	-23.59643	-26.85111	0
328	-39.05616	13.83239	52.07488	11.39138	-44.75185	32.5468	4.88202	-76.48498	-25.22377	-9.76404	-23.59643	-24.4101	0
329	-39.05616	16.2734	54.51589	11.39138	-47.19286	34.98781	0	-76.48498	-27.66478	-9.76404	-18.71441	-24.4101	0
330	-41.49717	16.2734	56.9569	11.39138	-49.63387	34.98781	-2.44101	-81.367	-32.5468	-9.76404	-13.83239	-24.4101	0
331	-43.93818	21.15542	64.27993	11.39138	-54.51589	42.31084	-4.88202	-83.80801	-37.42882	-14.64606	-16.2734	-24.4101	0
332	-43.93818	23.59643	66.72094	8.95037	-54.51589	44.75185	-2.44101	-86.24902	-37.42882	-17.08707	-18.71441	-24.4101	0
333	-43.93818	26.03744	69.16195	8.95037	-56.9569	47.19286	2.44101	-88.69003	-37.42882	-21.96909	-21.15542	-24.4101	0
334	-43.93818	26.03744	69.16195	8.95037	-56.9569	47.19286	4.88202	-88.69003	-37.42882	-21.96909	-28.47845	-24.4101	0
335	-43.93818	18.71441	61.83892	11.39138	-52.07488	39.86983	4.88202	-86.24902	-37.42882	-24.4101	-30.91946	-26.85111	0
336	-41.49717	16.2734	56.9569	11.39138	-49.63387	34.98781	2.44101	-83.80801	-37.42882	-24.4101	-35.80148	-26.85111	0
337	-34.17414	16.2734	49.63387	8.95037	-42.31084	32.5468	0	-83.80801	-39.86983	-24.4101	-30.91946	-26.85111	0
338	-31.73313	13.83239	44.75185	8.95037	-37.42882	27.66478	-4.88202	-83.80801	-42.31084	-24.4101	-28.47845	-26.85111	0
339	-31.73313	11.39138	42.31084	8.95037	-37.42882	25.22377	-12.20505	-86.24902	-47.19286	-24.4101	-26.03744	-26.85111	0
340	-31.73313	13.83239	44.75185	8.95037	-37.42882	27.66478	-14.64606	-88.69003	-47.19286	-24.4101	-21.15542	-26.85111	0
341	-31.73313	16.2734	47.19286	5.69569	-39.86983	30.10579	-14.64606	-91.13104	-49.63387	-24.4101	-21.15542	-24.4101	0
342	-31.73313	16.2734	47.19286	5.69569	-39.86983	30.10579	-12.20505	-96.01306	-49.63387	-24.4101	-18.71441	-21.96909	0
343	-34.17414	16.2734	49.63387	8.95037	-42.31084	32.5468	-7.32303	-98.45407	-49.63387	-26.85111	-21.15542	-21.96909	0
344	-31.73313	18.71441	49.63387	5.69569	-39.86983	32.5468	-4.88202	-96.01306	-49.63387	-24.4101	-26.03744	-17.08707	0
345	-24.4101	21.15542	44.75185	0.81367	-34.98781	32.5468	0	-93.57205	-49.63387	-21.96909	-23.59643	-14.64606	0
346	-19.52808	23.59643	42.31084	-1.62734	-30.10579	32.5468	0	-88.69003	-47.19286	-19.52808	-23.59643	-12.20505	0
347	-17.08707	18.71441	34.98781	-1.62734	-25.22377	25.22377	-2.44101	-86.24902	-44.75185	-17.08707	-18.71441	-9.76404	0
348	-17.08707	18.71441	34.98781	-1.62734	-25.22377	25.22377	-7.32303	-88.69003	-44.75185	-17.08707	-18.71441	-7.32303	0
349	-14.64606	18.71441	32.5468	-1.62734	-22.78276	25.22377	-12.20505	-88.69003	-42.31084	-17.08707	-16.2734	-7.32303	0
350	-17.08707	18.71441	34.98781	-1.62734	-25.22377	25.22377	-17.08707	-93.57205	-44.75185	-19.52808	-11.39138	-4.88202	0
351	-19.52808	13.83239	32.5468	3.25468	-25.22377	22.78276	-21.96909	-100.89508	-52.07488	-24.4101	-13.83239	-7.32303	0
352	-24.4101	13.83239	37.42882	5.69569	-30.10579	25.22377	-21.96909	-105.7771	-56.9569	-29.29212	-16.2734	-7.32303	0
353	-24.4101	13.83239	37.42882	5.69569	-30.10579	25.22377	-19.52808	-110.65912	-59.39791	-34.17414	-18.71441	-7.32303	0
354	-17.08707	13.83239	30.10579	0.81367	-22.78276	20.34175	-17.08707	-110.65912	-61.83892	-34.17414	-21.15542	-7.32303	0
355	-14.64606	13.83239	27.66478	0.81367	-20.34175	20.34175	-12.20505	-110.65912	-64.27993	-31.73313	-23.59643	-7.32303	0
356	-8.95037	11.39138	20.34175	-1.62734	-15.45973	15.45973	-12.20505	-108.21811	-64.27993	-31.73313	-26.03744	-7.32303	0
357	-4.06835	11.39138	14.64606	-4.06835	-9.76404	13.01872	-14.64606	-105.7771	-64.27993	-31.73313	-26.03744	-9.76404	0
358	0.81367	13.83239	12.20505	-6.50936	-4.88202	13.01872	-17.08707	-105.7771	-64.27993	-31.73313	-26.03744	-9.76404	0
359	0.81367	11.39138	9.76404	-6.50936	-4.88202	10.57771	-21.96909	-105.7771	-61.83892	-31.73313	-26.03744	-12.20505	0
360	-6.50936	4.06835	9.76404	0.81367	-7.32303	7.32303	-29.29212	-110.65912	-64.27993	-31.73313	-21.15542	-14.64606	0
361	-14.64606	0.81367	14.64606	5.69569	-15.45973	7.32303	-36.61515	-115.54114	-69.16195	-36.61515	-23.59643	-17.08707	0
362	-14.64606	0.81367	14.64606	5.69569	-15.45973	7.32303	-39.05616	-117.98215	-71.60296	-39.05616	-26.03744	-17.08707	0
363	-19.52808	4.06835	22.78276	5.69569	-20.34175	13.01872	-36.61515	-120.42316	-74.04397	-41.49717	-26.03744	-17.08707	0
364	-14.64606	8.95037	22.78276	3.25468	-17.90074	15.45973	-34.17414	-120.42316	-74.04397	-41.49717	-28.47845	-14.64606	0
365	-14.64606	13.83239	27.66478	0.81367	-20.34175	20.34175	-29.29212	-120.42316	-74.04397	-39.05616	-28.47845	-12.20505	0
366	-8.95037	21.15542	30.10579	-6.50936	-20.34175	25.22377	-26.85111	-115.54114	-69.16195	-34.17414	-26.03744	-7.32303	0
367	-1.62734	28.47845	30.10579	-13.83239	-15.45973	30.10579	-24.4101	-110.65912	-64.27993	-31.73313	-23.59643	-4.88202	0
368	8.1367	38.24249	30.10579	-23.59643	-9.76404	34.98781	-24.4101	-108.21811	-61.83892	-26.85111	-18.71441	-1.62734	0
369	13.01872	43.12451	30.10579	-28.47845	-7.32303	37.42882	-26.85111	-108.21811	-61.83892	-24.4101	-11.39138	0.81367	0
370	13.01872	43.12451	30.10579	-28.47845	-7.32303	37.42882	-29.29212	-108.21811	-56.9569	-21.96909	-6.50936	3.25468	0
371	5.69569	45.56552	39.86983	-26.03744	-17.90074	42.31084	-34.17414	-108.21811	-56.9569	-21.96909	-4.06835	3.25468	0
372	0.81367	43.12451	42.31084	-21.15542	-20.34175	42.31084	-34.17414	-110.65912	-56.9569	-21.96909	-4.06835	5.69569	0
373	-1.62734	43.12451	44.75185	-21.15542	-22.78276	44.75185	-31.73313	-113.10013	-56.9569	-24.4101	-6.50936	5.69569	0
374	-4.06835	40.6835	44.75185	-18.71441	-25.22377	42.31084	-29.29212	-113.10013	-54.51589	-26.85111	-8.95037	5.69569	0
375	-6.50936	38.24249	44.75185	-16.2734	-25.22377	42.31084	-24.4101	-113.10013	-52.07488	-24.4101	-8.95037	5.69569	0
376	-6.50936	40.6835	47.19286	-16.2734	-27.66478	44.75185	-24.4101	-108.21811	-49.63387	-21.96909	-8.95037	10.57771	-1500	QRS-0
377	0.81367	45.56552	44.75185	-23.59643	-22.78276	44.75185	-24.4101	-100.89508	-47.19286	-17.08707	-6.50936	13.01872	0
378	8.1367	52.88855	44.75185	-30.91946	-17.90074	49.63387	-26.85111	-98.45407	-44.75185	-12.20505	-4.06835	15.45973	0
379	13.01872	60.21158	47.19286	-35.80148	-17.90074	54.51589	-34.17414	-96.01306	-42.31084	-7.32303	6.50936	20.34175	0
380	15.45973	69.97562	54.51589	-43.12451	-20.34175	61.83892	-39.05616	-93.57205	-39.86983	0	16.2734	25.22377	0
381	15.45973	79.73966	64.27993	-48.00653	-25.22377	71.60296	-46.37919	-93.57205	-39.86983	4.88202	21.15542	30.10579	0
382	17.90074	82.18067	64.27993	-50.44754	-22.78276	74.04397	-48.8202	-93.57205	-37.42882	7.32303	21.15542	32.5468	0
383	15.45973	82.18067	66.72094	-48.00653	-25.22377	74.04397	-48.8202	-96.01306	-37.42882	7.32303	21.15542	32.5468	0
384	15.45973	79.73966	64.27993	-48.00653	-25.22377	71.60296	-48.8202	-98.45407	-34.98781	4.88202	18.71441	34.98781	0
385	15.45973	74.85764	59.39791	-45.56552	-22.78276	66.72094	-48.8202	-100.89508	-32.5468	4.88202	16.2734	34.98781	0
386	17.90074	67.53461	49.63387	-43.12451	-15.45973	59.39791	-48.8202	-100.89508	-32.5468	2.44101	13.83239	34.98781	0
387	22.78276	62.65259	39.86983	-43.12451	-7.32303	52.07488	-51.26121	-98.45407	-34.98781	2.44101	11.39138	34.98781	0
388	25.22377	57.77057	32.5468	-40.6835	-2.44101	44.75185	-56.14323	-100.89508	-39.86983	0	8.95037	32.5468	0
389	27.66478	52.88855	25.22377	-40.6835	2.44101	39.86983	-63.46626	-105.7771	-44.75185	0	11.39138	32.5468	0
390	25.22377	48.00653	22.78276	-35.80148	2.44101	34.98781	-73.2303	-110.65912	-52.07488	-4.88202	13.83239	27.66478	0
391	22.78276	43.12451	20.34175	-33.36047	2.44101	32.5468	-82.99434	-117.98215	-61.83892	-9.76404	11.39138	25.22377	0
392	22.78276	40.6835	17.90074	-30.91946	2.44101	30.10579	-85.43535	-125.30518	-66.72094	-14.64606	8.95037	22.78276	0
393	22.78276	35.80148	12.20505	-28.47845	4.88202	25.22377	-87.87636	-132.62821	-74.04397	-24.4101	1.62734	17.90074	0
394	27.66478	35.80148	7.32303	-30.91946	9.76404	22.78276	-82.99434	-139.95124	-78.92599	-31.73313	-4.06835	15.45973	0
395	27.66478	33.36047	4.88202	-30.91946	12.20505	20.34175	-80.55333	-144.83326	-81.367	-36.61515	-8.95037	10.57771	0
396	30.10579	30.91946	0	-30.91946	14.64606	15.45973	-78.11232	-147.27427	-83.80801	-41.49717	-13.83239	8.1367	0
397	32.5468	30.91946	-2.44101	-30.91946	17.08707	15.45973	-73.2303	-147.27427	-86.24902	-43.93818	-16.2734	5.69569	0
398	27.66478	28.47845	0	-28.47845	14.64606	15.45973	-70.78929	-147.27427	-88.69003	-46.37919	-18.71441	3.25468	0
399	27.66478	30.91946	2.44101	-28.47845	12.20505	17.90074	-68.34828	-147.27427	-91.13104	-46.37919	-13.83239	3.25468	0
400	20.34175	30.91946	9.76404	-26.03744	4.88202	20.34175	-68.34828	-147.27427	-91.13104	-41.49717	-6.50936	3.25468	0
401	15.45973	30.91946	14.64606	-23.59643	0	22.78276	-68.34828	-147.27427	-91.13104	-39.05616	-4.06835	3.25468	0
402	10.57771	35.80148	25.22377	-23.59643	-7.32303	30.10579	-65.90727	-144.83326	-88.69003	-36.61515	-4.06835	5.69569	0
403	8.1367	35.80148	27.66478	-21.15542	-9.76404	32.5468	-58.58424	-144.83326	-83.80801	-36.61515	-4.06835	8.1367	0
404	5.69569	35.80148	30.10579	-21.15542	-12.20505	32.5468	-53.70222	-142.39225	-81.367	-36.61515	-4.06835	8.1367	0
405	5.69569	35.80148	30.10579	-21.15542	-12.20505	32.5468	-48.8202	-142.39225	-76.48498	-34.17414	-0.81367	10.57771	0
406	8.1367	38.24249	30.10579	-23.59643	-9.76404	34.98781	-46.37919	-137.51023	-69.16195	-31.73313	-4.06835	13.01872	0
407	10.57771	38.24249	27.66478	-23.59643	-7.32303	32.5468	-43.93818	-135.06922	-69.16195	-29.29212	-4.06835	13.01872	0
408	13.01872	38.24249	25.22377	-26.03744	-4.88202	32.5468	-43.93818	-132.62821	-69.16195	-29.29212	-4.06835	13.01872	0
409	15.45973	40.6835	25.22377	-28.47845	-4.88202	32.5468	-43.93818	-132.62821	-71.60296	-29.29212	1.62734	15.45973	0
410	15.45973	40.6835	25.22377	-28.47845	-4.88202	32.5468	-46.37919	-132.62821	-74.04397	-26.85111	6.50936	15.45973	0
411	13.01872	40.6835	27.66478	-26.03744	-7.32303	34.98781	-46.37919	-135.06922	-78.92599	-26.85111	4.06835	13.01872	0
412	5.69569	38.24249	32.5468	-21.15542	-12.20505	34.98781	-43.93818	-137.51023	-81.367	-31.73313	-0.81367	10.57771	0
413	0.81367	35.80148	34.98781	-18.71441	-17.90074	34.98781	-39.05616	-139.95124	-81.367	-36.61515	-4.06835	8.1367	0
414	0.81367	35.80148	34.98781	-18.71441	-17.90074	34.98781	-34.17414	-142.39225	-81.367	-39.05616	-6.50936	5.69569	0
415	-4.06835	30.91946	34.98781	-13.83239	-20.34175	32.5468	-26.85111	-144.83326	-81.367	-41.49717	-11.39138	0.81367	0
416	-6.50936	26.03744	32.5468	-8.95037	-20.34175	30.10579	-24.4101	-144.83326	-81.367	-43.93818	-18.71441	-4.88202	0
417	-6.50936	23.59643	30.10579	-8.95037	-17.90074	27.66478	-21.96909	-144.83326	-81.367	-46.37919	-21.15542	-7.32303	0
418	-6.50936	18.71441	25.22377	-6.50936	-15.45973	22.78276	-21.96909	-144.83326	-86.24902	-51.26121	-26.03744	-9.76404	0
419	-6.50936	13.83239	20.34175	-4.06835	-12.20505	17.90074	-24.4101	-147.27427	-91.13104	-53.70222	-26.03744	-14.64606	0
420	-14.64606	8.95037	22.78276	3.25468	-17.90074	15.45973	-29.29212	-152.15629	-96.01306	-56.14323	-28.47845	-19.52808	0
421	-24.4101	0.81367	25.22377	11.39138	-25.22377	13.01872	-34.17414	-157.03831	-103.33609	-61.02525	-33.36047	-24.4101	0
422	-26.85111	0.81367	27.66478	11.39138	-27.66478	13.01872	-34.17414	-157.03831	-105.7771	-65.90727	-35.80148	-24.4101	0
423	-29.29212	0.81367	30.10579	13.83239	-30.10579	15.45973	-29.29212	-161.92033	-105.7771	-68.34828	-40.6835	-26.85111	0
424	-29.29212	0.81367	30.10579	13.83239	-30.10579	15.45973	-26.85111	-161.92033	-105.7771	-70.78929	-45.56552	-26.85111	0
425	-31.73313	0.81367	32.5468	13.83239	-32.5468	15.45973	-21.96909	-161.92033	-103.33609	-70.78929	-48.00653	-29.29212	0
426	-31.73313	-6.50936	25.22377	18.71441	-30.10579	7.32303	-21.96909	-164.36134	-103.33609	-73.2303	-52.88855	-31.73313	0
427	-31.73313	-8.95037	22.78276	18.71441	-27.66478	4.88202	-21.96909	-161.92033	-103.33609	-73.2303	-55.32956	-31.73313	0
428	-31.73313	-8.95037	22.78276	18.71441	-27.66478	4.88202	-21.96909	-161.92033	-103.33609	-73.2303	-55.32956	-31.73313	0
429	-31.73313	-11.39138	20.34175	21.15542	-27.66478	2.44101	-26.85111	-164.36134	-108.21811	-73.2303	-52.88855	-31.73313	0
430	-39.05616	-16.2734	22.78276	26.03744	-32.5468	2.44101	-31.73313	-166.80235	-113.10013	-73.2303	-50.44754	-31.73313	0
431	-43.93818	-18.71441	25.22377	30.91946	-34.98781	2.44101	-36.61515	-169.24336	-115.54114	-73.2303	-50.44754	-31.73313	0
432	-43.93818	-16.2734	27.66478	28.47845	-37.42882	4.88202	-36.61515	-169.24336	-117.98215	-75.67131	-50.44754	-29.29212	0
433	-43.93818	-13.83239	30.10579	28.47845	-37.42882	7.32303	-34.17414	-171.68437	-115.54114	-75.67131	-50.44754	-26.85111	0
434	-43.93818	-13.83239	30.10579	28.47845	-37.42882	7.32303	-29.29212	-174.12538	-113.10013	-78.11232	-52.88855	-26.85111	0
435	-43.93818	-16.2734	27.66478	28.47845	-37.42882	4.88202	-21.96909	-171.68437	-108.21811	-75.67131	-55.32956	-26.85111	0
436	-39.05616	-16.2734	22.78276	26.03744	-32.5468	2.44101	-17.08707	-169.24336	-105.7771	-75.67131	-57.77057	-26.85111	0
437	-36.61515	-16.2734	20.34175	26.03744	-30.10579	0	-12.20505	-164.36134	-103.33609	-75.67131	-57.77057	-24.4101	0
438	-36.61515	-21.15542	14.64606	28.47845	-27.66478	-4.88202	-12.20505	-164.36134	-103.33609	-75.67131	-57.77057	-24.4101	0
439	-36.61515	-23.59643	12.20505	28.47845	-25.22377	-7.32303	-17.08707	-161.92033	-103.33609	-75.67131	-55.32956	-26.85111	0
440	-39.05616	-23.59643	14.64606	30.91946	-27.66478	-4.88202	-19.52808	-161.92033	-103.33609	-73.2303	-50.44754	-26.85111	0
441	-39.05616	-18.71441	20.34175	28.47845	-30.10579	0	-21.96909	-164.36134	-105.7771	-70.78929	-48.00653	-24.4101	0
442	-41.49717	-18.71441	22.78276	28.47845	-32.5468	0	-24.4101	-164.36134	-105.7771	-73.2303	-48.00653	-24.4101	0
443	-43.93818	-21.15542	22.78276	30.91946	-34.98781	0	-21.96909	-169.24336	-103.33609	-75.67131	-50.44754	-24.4101	0
444	-46.37919	-23.59643	22.78276	33.36047	-34.98781	-2.44101	-19.52808	-171.68437	-103.33609	-78.11232	-52.88855	-24.4101	0
445	-43.93818	-23.59643	20.34175	33.36047	-32.5468	-2.44101	-12.20505	-166.80235	-98.45407	-73.2303	-52.88855	-24.4101	0
446	-41.49717	-21.15542	20.34175	30.91946	-32.5468	-2.44101	-9.76404	-161.92033	-93.57205	-73.2303	-52.88855	-21.96909	0
447	-41.49717	-26.03744	14.64606	33.36047	-30.10579	-7.32303	-9.76404	-159.47932	-93.57205	-73.2303	-55.32956	-24.4101	0
448	-41.49717	-28.47845	12.20505	33.36047	-27.66478	-9.76404	-12.20505	-159.47932	-93.57205	-73.2303	-57.77057	-24.4101	0
449	-41.49717	-30.91946	9.76404	35.80148	-27.66478	-12.20505	-14.64606	-157.03831	-93.57205	-70.78929	-50.44754	-24.4101	0
450	-39.05616	-23.59643	14.64606	30.91946	-27.66478	-4.88202	-14.64606	-154.5973	-93.57205	-65.90727	-43.12451	-24.4101	0
451	-36.61515	-18.71441	17.90074	26.03744	-27.66478	-2.44101	-19.52808	-154.5973	-93.57205	-63.46626	-43.12451	-21.96909	0
452	-39.05616	-18.71441	20.34175	28.47845	-30.10579	0	-19.52808	-154.5973	-96.01306	-65.90727	-43.12451	-24.4101	0
453	-39.05616	-18.71441	20.34175	28.47845	-30.10579	0	-17.08707	-154.5973	-93.57205	-68.34828	-43.12451	-24.4101	0
454	-36.61515	-16.2734	20.34175	26.03744	-30.10579	0	-12.20505	-154.5973	-91.13104	-68.34828	-45.56552	-21.96909	0
455	-31.73313	-13.83239	17.90074	21.15542	-25.22377	0	-7.32303	-149.71528	-86.24902	-65.90727	-43.12451	-21.96909	0
456	-31.73313	-16.2734	14.64606	23.59643	-25.22377	-2.44101	-4.88202	-147.27427	-83.80801	-63.46626	-45.56552	-19.52808	0
457	-31.73313	-18.71441	12.20505	23.59643	-22.78276	-4.88202	-4.88202	-142.39225	-83.80801	-61.02525	-45.56552	-19.52808	0
458	-34.17414	-23.59643	9.76404	28.47845	-22.78276	-7.32303	-4.88202	-139.95124	-83.80801	-61.02525	-45.56552	-19.52808	0
459	-34.17414	-23.59643	9.76404	28.47845	-22.78276	-7.32303	-7.32303	-135.06922	-83.80801	-56.14323	-38.24249	-17.08707	0
460	-36.61515	-23.59643	12.20505	28.47845	-25.22377	-7.32303	-9.76404	-127.74619	-78.92599	-48.8202	-30.91946	-14.64606	0
461	-36.61515	-23.59643	12.20505	28.47845	-25.22377	-7.32303	-9.76404	-120.42316	-71.60296	-41.49717	-23.59643	-12.20505	0
462	-36.61515	-28.47845	7.32303	30.91946	-22.78276	-12.20505	-7.32303	-100.89508	-56.9569	-31.73313	-13.83239	-4.88202	0
463	-31.73313	-33.36047	-2.44101	30.91946	-15.45973	-19.52808	4.88202	-74.04397	-30.10579	-12.20505	-0.81367	3.25468	0
464	-19.52808	-38.24249	-19.52808	28.47845	0	-29.29212	19.52808	-30.10579	13.83239	20.34175	26.03744	20.34175	0
465	0.81367	-43.12451	-43.93818	21.15542	21.96909	-43.93818	34.98781	26.85111	68.34828	74.04397	67.53461	47.19286	0
466	30.10579	-48.00653	-78.11232	8.95037	53.70222	-63.46626	49.63387	92.75838	139.13757	137.51023	123.67784	86.24902	0
467	66.72094	-55.32956	-122.0505	-6.50936	92.75838	-87.87636	61.83892	165.98868	217.24989	218.06356	196.90814	135.06922	0
468	110.65912	-62.65259	-173.31171	-23.59643	141.57858	-117.16848	69.16195	239.21898	302.68524	310.82194	284.7845	196.09447	0
469	161.92033	-67.53461	-229.45494	-48.00653	195.2808	-148.90161	69.16195	310.00827	390.5616	410.90335	394.62995	274.20679	0
470	215.62255	-74.85764	-290.48019	-69.97562	251.42403	-183.07575	52.07488	363.71049	466.23291	510.98476	511.79843	359.64214	0
471	281.52982	-82.18067	-363.71049	-99.26774	322.21332	-222.13191	19.52808	390.5616	517.49412	586.65607	611.87984	442.63648	0
472	354.76012	-94.38572	-449.14584	-131.00087	400.32564	-270.95211	-31.73313	383.23857	527.25816	623.27122	680.22812	508.54375	0
473	427.99042	-118.79582	-546.78624	-155.41097	485.76099	-331.97736	-100.08141	334.41837	490.64301	608.62516	707.07923	547.59991	0
474	506.10274	-150.52895	-656.63169	-177.38006	580.96038	-402.76665	-185.51676	241.65999	397.88463	535.39486	682.66913	557.36395	0
475	581.77405	-194.46713	-776.24118	-194.46713	678.60078	-485.76099	-283.15716	114.72747	248.98302	408.46234	606.99782	525.63082	0
476	655.00435	-250.61036	-905.61471	-201.79016	778.68219	-578.51937	-395.44362	-34.98781	61.02525	230.26861	482.50631	462.16456	0
477	716.0296	-309.1946	-1025.2242	-204.23117	868.99956	-666.39573	-497.96604	-193.65346	-144.83326	25.22377	316.51763	362.08315	0
478	757.52677	-370.21985	-1127.74662	-194.46713	942.22986	-749.39007	-593.16543	-352.31911	-359.64214	-192.83979	131.00087	242.47366	0
479	779.49586	-426.36308	-1205.85894	-177.38006	991.05006	-815.29734	-671.27775	-496.3387	-559.80496	-405.20766	-55.32956	113.10013	0
480	772.17283	-470.30126	-1242.47409	-150.52895	1005.69612	-856.79451	-727.42098	-620.83021	-733.11667	-593.16543	-231.08228	-12.20505	0
481	737.99869	-499.59338	-1237.59207	-118.79582	986.16804	-868.99956	-761.59512	-725.79364	-872.25424	-749.39007	-389.74793	-131.81454	0
482	679.41445	-509.35742	-1188.77187	-84.62168	932.46582	-849.47148	-766.47714	-818.55202	-979.65868	-873.88158	-526.44449	-236.77797	0
483	589.09708	-504.4754	-1093.57248	-43.12451	839.70744	-798.21027	-739.62603	-896.66434	-1055.32999	-961.75794	-633.84893	-324.65433	0
484	486.57466	-484.94732	-971.52198	-1.62734	727.42098	-727.42098	-698.12886	-950.36656	-1094.38615	-1010.57814	-704.63822	-385.67958	0
485	376.72921	-455.6552	-832.38441	38.24249	602.92947	-644.42664	-637.10361	-965.01262	-1087.06312	-1008.13713	-731.48933	-422.29473	0
486	266.88376	-414.15803	-681.04179	72.41663	473.55594	-546.78624	-561.4323	-945.48454	-1038.24292	-966.63996	-726.60731	-432.05877	0
487	169.24336	-365.33783	-534.58119	96.82673	351.50544	-449.14584	-478.43796	-889.34131	-962.57161	-893.40966	-692.43317	-424.73574	0
488	81.367	-316.51763	-397.88463	116.35481	239.21898	-356.38746	-395.44362	-808.78798	-860.04919	-800.65128	-633.84893	-400.32564	0
489	17.90074	-267.69743	-285.59817	123.67784	151.34262	-275.83413	-319.77231	-708.70657	-747.76273	-698.12886	-560.61863	-363.71049	0
490	-29.29212	-221.31824	-192.83979	123.67784	80.55333	-207.48585	-251.42403	-598.86112	-630.59425	-590.72442	-482.50631	-324.65433	0
491	-65.90727	-177.38006	-112.28646	121.23683	21.96909	-146.4606	-190.39878	-496.3387	-520.7488	-493.08402	-411.71702	-283.15716	0
492	-90.31737	-140.76491	-51.26121	113.9138	-20.34175	-97.6404	-139.13757	-408.46234	-425.54941	-407.64867	-348.25076	-244.101	0
493	-102.52242	-106.59077	-4.88202	104.14976	-49.63387	-56.14323	-97.6404	-335.23204	-344.99608	-334.41837	-294.54854	-209.92686	0
494	-104.96343	-77.29865	27.66478	89.5037	-66.72094	-26.85111	-61.02525	-274.20679	-274.20679	-273.39312	-248.16935	-178.19373	0
495	-104.96343	-55.32956	49.63387	79.73966	-78.92599	-4.88202	-31.73313	-222.94558	-218.06356	-222.13191	-211.5542	-153.78363	0
496	-102.52242	-40.6835	61.83892	69.97562	-83.80801	10.57771	-9.76404	-179.0074	-169.24336	-180.63474	-182.26208	-131.81454	0
497	-92.75838	-26.03744	66.72094	57.77057	-81.367	20.34175	4.88202	-142.39225	-132.62821	-146.4606	-155.41097	-112.28646	0
498	-82.99434	-13.83239	69.16195	48.00653	-76.48498	27.66478	12.20505	-117.98215	-108.21811	-122.0505	-133.44188	-97.6404	0
499	-75.67131	-6.50936	69.16195	40.6835	-74.04397	30.10579	14.64606	-100.89508	-91.13104	-102.52242	-113.9138	-85.43535	0
500	-73.2303	-1.62734	71.60296	35.80148	-74.04397	34.98781	17.08707	-86.24902	-76.48498	-87.87636	-96.82673	-75.67131	0
501	-73.2303	-1.62734	71.60296	35.80148	-74.04397	34.98781	17.08707	-81.367	-74.04397	-80.55333	-91.94471	-70.78929	0
502	-73.2303	-1.62734	71.60296	35.80148	-74.04397	34.98781	17.08707	-71.60296	-64.27993	-73.2303	-79.73966	-63.46626	0
503	-70.78929	-1.62734	69.16195	35.80148	-71.60296	32.5468	19.52808	-66.72094	-54.51589	-65.90727	-72.41663	-58.58424	0
504	-65.90727	-1.62734	64.27993	33.36047	-66.72094	30.10579	22.78276	-61.83892	-44.75185	-61.02525	-69.97562	-53.70222	0
505	-63.46626	-1.62734	61.83892	30.91946	-64.27993	30.10579	27.66478	-54.51589	-34.98781	-53.70222	-62.65259	-48.8202	0
506	-56.14323	-1.62734	54.51589	28.47845	-56.9569	25.22377	30.10579	-52.07488	-27.66478	-51.26121	-60.21158	-46.37919	0
507	-48.8202	-4.06835	44.75185	26.03744	-47.19286	20.34175	32.5468	-44.75185	-22.78276	-46.37919	-60.21158	-46.37919	0
508	-43.93818	-1.62734	42.31084	21.15542	-44.75185	20.34175	34.98781	-37.42882	-17.90074	-41.49717	-57.77057	-43.93818	0
509	-36.61515	0.81367	37.42882	16.2734	-37.42882	17.90074	37.42882	-32.5468	-13.01872	-36.61515	-50.44754	-41.49717	0
510	-29.29212	8.95037	37.42882	8.95037	-32.5468	22.78276	37.42882	-27.66478	-10.57771	-31.73313	-43.12451	-36.61515	0
511	-29.29212	13.83239	42.31084	5.69569	-34.98781	27.66478	37.42882	-22.78276	-8.1367	-26.85111	-35.80148	-36.61515	0
512	-31.73313	13.83239	44.75185	8.95037	-37.42882	27.66478	34.98781	-22.78276	-8.1367	-26.85111	-33.36047	-34.17414	0
513	-34.17414	16.2734	49.63387	8.95037	-42.31084	32.5468	37.42882	-20.34175	-5.69569	-26.85111	-30.91946	-31.73313	0
514	-34.17414	18.71441	52.07488	5.69569	-42.31084	34.98781	39.86983	-20.34175	-3.25468	-31.73313	-30.91946	-29.29212	0
515	-34.17414	18.71441	52.07488	5.69569	-42.31084	34.98781	44.75185	-17.90074	1.62734	-31.73313	-30.91946	-29.29212	0
516	-39.05616	13.83239	52.07488	11.39138	-44.75185	32.5468	47.19286	-15.45973	6.50936	-29.29212	-30.91946	-29.29212	0
517	-48.8202	6.50936	54.51589	21.15542	-52.07488	30.10579	47.19286	-10.57771	8.95037	-29.29212	-30.91946	-29.29212	0
518	-48.8202	6.50936	54.51589	21.15542	-52.07488	30.10579	47.19286	-3.25468	13.83239	-24.4101	-30.91946	-29.29212	0
519	-46.37919	6.50936	52.07488	18.71441	-49.63387	27.66478	47.19286	-0.81367	13.83239	-24.4101	-30.91946	-26.85111	0
520	-46.37919	6.50936	52.07488	18.71441	-49.63387	27.66478	44.75185	4.06835	13.83239	-19.52808	-23.59643	-26.85111	0
521	-46.37919	8.95037	54.51589	18.71441	-49.63387	30.10579	42.31084	6.50936	13.83239	-17.08707	-18.71441	-21.96909	0
522	-43.93818	13.83239	56.9569	13.83239	-49.63387	34.98781	39.86983	8.95037	16.2734	-14.64606	-13.83239	-21.96909	0
523	-39.05616	18.71441	56.9569	8.95037	-47.19286	37.42882	44.75185	8.95037	16.2734	-17.08707	-13.83239	-19.52808	0
524	-31.73313	21.15542	52.07488	5.69569	-42.31084	34.98781	47.19286	8.95037	16.2734	-17.08707	-13.83239	-19.52808	0
525	-26.85111	21.15542	47.19286	3.25468	-37.42882	32.5468	52.07488	11.39138	23.59643	-17.08707	-11.39138	-17.08707	0
526	-24.4101	21.15542	44.75185	0.81367	-34.98781	32.5468	56.9569	13.83239	26.03744	-17.08707	-11.39138	-17.08707	0
527	-24.4101	18.71441	42.31084	3.25468	-32.5468	30.10579	56.9569	18.71441	29.29212	-14.64606	-16.2734	-14.64606	0
528	-24.4101	16.2734	39.86983	3.25468	-32.5468	27.66478	59.39791	23.59643	29.29212	-12.20505	-18.71441	-14.64606	0
529	-29.29212	16.2734	44.75185	5.69569	-37.42882	30.10579	61.83892	26.85111	31.73313	-7.32303	-16.2734	-14.64606	0
530	-34.17414	16.2734	49.63387	8.95037	-42.31084	32.5468	61.83892	31.73313	34.17414	-4.88202	-11.39138	-14.64606	0
531	-41.49717	16.2734	56.9569	11.39138	-49.63387	34.98781	59.39791	34.17414	34.17414	0	-8.95037	-14.64606	0
532	-46.37919	16.2734	61.83892	13.83239	-54.51589	37.42882	61.83892	39.05616	36.61515	0	-8.95037	-12.20505	0
533	-51.26121	16.2734	66.72094	16.2734	-59.39791	39.86983	66.72094	39.05616	39.05616	2.44101	-6.50936	-12.20505	0
534	-56.14323	11.39138	66.72094	21.15542	-61.83892	37.42882	71.60296	39.05616	43.93818	2.44101	-6.50936	-12.20505	0
535	-56.14323	8.95037	64.27993	23.59643	-59.39791	34.98781	74.04397	43.93818	46.37919	2.44101	-6.50936	-12.20505	0
536	-48.8202	8.95037	56.9569	18.71441	-52.07488	32.5468	74.04397	46.37919	51.26121	4.88202	-6.50936	-9.76404	0
537	-43.93818	11.39138	54.51589	16.2734	-49.63387	32.5468	74.04397	51.26121	53.70222	7.32303	-6.50936	-9.76404	0
538	-41.49717	11.39138	52.07488	13.83239	-47.19286	30.10579	74.04397	56.14323	56.14323	9.76404	-8.95037	-9.76404	0
539	-36.61515	11.39138	47.19286	11.39138	-42.31084	27.66478	71.60296	58.58424	58.58424	9.76404	-11.39138	-9.76404	0
540	-31.73313	16.2734	47.19286	5.69569	-39.86983	30.10579	71.60296	61.02525	58.58424	14.64606	-11.39138	-9.76404	0
541	-26.85111	23.59643	49.63387	0.81367	-37.42882	34.98781	71.60296	63.46626	58.58424	17.90074	-8.95037	-9.76404	0
542	-31.73313	26.03744	56.9569	3.25468	-44.75185	39.86983	69.16195	63.46626	61.02525	17.90074	-6.50936	-7.32303	0
543	-36.61515	26.03744	61.83892	5.69569	-49.63387	42.31084	74.04397	65.90727	61.02525	17.90074	-4.06835	-7.32303	0
544	-39.05616	26.03744	64.27993	5.69569	-52.07488	44.75185	76.48498	65.90727	63.46626	14.64606	-4.06835	-7.32303	0
545	-36.61515	26.03744	61.83892	5.69569	-49.63387	42.31084	78.92599	70.78929	68.34828	17.90074	4.06835	-4.88202	0
546	-36.61515	28.47845	64.27993	3.25468	-49.63387	44.75185	78.92599	75.67131	75.67131	20.34175	6.50936	-4.88202	0
547	-36.61515	28.47845	64.27993	3.25468	-49.63387	44.75185	78.92599	82.99434	80.55333	22.78276	6.50936	-4.88202	0
548	-36.61515	26.03744	61.83892	5.69569	-49.63387	42.31084	76.48498	87.87636	85.43535	25.22377	4.06835	-4.88202	0
549	-36.61515	23.59643	59.39791	5.69569	-47.19286	39.86983	76.48498	90.31737	87.87636	27.66478	4.06835	-7.32303	0
550	-34.17414	23.59643	56.9569	5.69569	-44.75185	39.86983	74.04397	92.75838	90.31737	32.5468	4.06835	-7.32303	0
551	-36.61515	21.15542	56.9569	5.69569	-47.19286	37.42882	74.04397	95.19939	92.75838	37.42882	6.50936	-7.32303	0
552	-39.05616	18.71441	56.9569	8.95037	-47.19286	37.42882	71.60296	97.6404	95.19939	37.42882	6.50936	-7.32303	0
553	-41.49717	16.2734	56.9569	11.39138	-49.63387	34.98781	76.48498	100.08141	97.6404	39.86983	11.39138	-4.88202	0
554	-41.49717	16.2734	56.9569	11.39138	-49.63387	34.98781	78.92599	102.52242	102.52242	39.86983	11.39138	-4.88202	0
555	-39.05616	16.2734	54.51589	11.39138	-47.19286	34.98781	83.80801	107.40444	109.84545	44.75185	13.83239	-1.62734	0
556	-39.05616	16.2734	54.51589	11.39138	-47.19286	34.98781	86.24902	114.72747	119.60949	47.19286	18.71441	-1.62734	0
557	-34.17414	21.15542	54.51589	5.69569	-44.75185	37.42882	86.24902	126.93252	129.37353	52.07488	18.71441	0.81367	0
558	-29.29212	23.59643	52.07488	3.25468	-39.86983	37.42882	86.24902	134.25555	136.69656	56.9569	18.71441	3.25468	0
559	-24.4101	28.47845	52.07488	-1.62734	-37.42882	39.86983	88.69003	144.01959	144.01959	61.83892	18.71441	5.69569	0
560	-21.96909	33.36047	54.51589	-6.50936	-37.42882	42.31084	88.69003	151.34262	146.4606	66.72094	23.59643	5.69569	0
561	-21.96909	35.80148	56.9569	-6.50936	-39.86983	44.75185	88.69003	158.66565	146.4606	69.16195	28.47845	5.69569	0
562	-17.08707	38.24249	54.51589	-11.39138	-34.98781	44.75185	86.24902	165.98868	151.34262	69.16195	28.47845	5.69569	0
563	-14.64606	38.24249	52.07488	-11.39138	-32.5468	44.75185	88.69003	170.8707	153.78363	71.60296	28.47845	3.25468	0
564	-14.64606	38.24249	52.07488	-11.39138	-32.5468	44.75185	91.13104	178.19373	158.66565	71.60296	28.47845	3.25468	0
565	-19.52808	33.36047	52.07488	-6.50936	-34.98781	42.31084	93.57205	192.83979	168.42969	78.92599	30.91946	5.69569	0
566	-21.96909	33.36047	54.51589	-6.50936	-37.42882	42.31084	96.01306	207.48585	180.63474	86.24902	33.36047	8.1367	0
567	-21.96909	35.80148	56.9569	-6.50936	-39.86983	44.75185	100.89508	224.57292	195.2808	93.57205	33.36047	13.01872	0
568	-21.96909	35.80148	56.9569	-6.50936	-39.86983	44.75185	103.33609	239.21898	207.48585	103.33609	35.80148	15.45973	0
569	-26.85111	35.80148	61.83892	-4.06835	-44.75185	47.19286	105.7771	253.86504	217.24989	108.21811	40.6835	17.90074	0
570	-29.29212	33.36047	61.83892	-1.62734	-44.75185	47.19286	108.21811	263.62908	222.13191	115.54114	48.00653	17.90074	0
571	-29.29212	33.36047	61.83892	-1.62734	-44.75185	47.19286	108.21811	273.39312	224.57292	120.42316	50.44754	17.90074	0
572	-21.96909	35.80148	56.9569	-6.50936	-39.86983	44.75185	105.7771	280.71615	227.01393	120.42316	50.44754	17.90074	0
573	-14.64606	35.80148	49.63387	-11.39138	-32.5468	42.31084	105.7771	285.59817	229.45494	117.98215	48.00653	15.45973	0
574	-4.06835	35.80148	39.86983	-16.2734	-22.78276	37.42882	105.7771	288.03918	231.89595	117.98215	43.12451	10.57771	0
575	3.25468	33.36047	30.10579	-18.71441	-12.20505	32.5468	105.7771	295.36221	239.21898	117.98215	43.12451	10.57771	0
576	15.45973	33.36047	17.90074	-23.59643	0	25.22377	105.7771	305.12625	246.54201	120.42316	40.6835	10.57771	0
577	22.78276	38.24249	14.64606	-30.91946	4.88202	27.66478	105.7771	319.77231	256.30605	127.74619	40.6835	13.01872	0
578	25.22377	40.6835	14.64606	-33.36047	4.88202	27.66478	105.7771	334.41837	268.5111	135.06922	43.12451	15.45973	0
579	22.78276	40.6835	17.90074	-30.91946	2.44101	30.10579	113.10013	349.06443	278.27514	144.83326	50.44754	20.34175	0
580	13.01872	38.24249	25.22377	-26.03744	-4.88202	32.5468	115.54114	361.26948	285.59817	154.5973	60.21158	20.34175	0
581	5.69569	38.24249	32.5468	-21.15542	-12.20505	34.98781	120.42316	371.03352	292.9212	164.36134	67.53461	25.22377	0
582	-1.62734	43.12451	44.75185	-21.15542	-22.78276	44.75185	125.30518	383.23857	302.68524	171.68437	74.85764	30.10579	0
583	-6.50936	45.56552	52.07488	-18.71441	-30.10579	49.63387	130.1872	390.5616	310.00827	179.0074	79.73966	32.5468	0
584	-4.06835	45.56552	49.63387	-21.15542	-27.66478	47.19286	132.62821	393.00261	314.89029	179.0074	79.73966	32.5468	0
585	0.81367	43.12451	42.31084	-21.15542	-20.34175	42.31084	135.06922	400.32564	319.77231	183.88942	79.73966	30.10579	0
586	5.69569	43.12451	37.42882	-23.59643	-15.45973	39.86983	135.06922	405.20766	324.65433	186.33043	77.29865	27.66478	0
587	10.57771	40.6835	30.10579	-26.03744	-9.76404	34.98781	132.62821	412.53069	329.53635	188.77144	74.85764	27.66478	0
588	15.45973	38.24249	22.78276	-26.03744	-2.44101	30.10579	130.1872	419.85372	331.97736	188.77144	72.41663	27.66478	0
589	25.22377	43.12451	17.90074	-33.36047	4.88202	30.10579	132.62821	427.17675	336.85938	191.21245	72.41663	25.22377	0
590	27.66478	45.56552	17.90074	-35.80148	4.88202	32.5468	132.62821	429.61776	336.85938	193.65346	79.73966	25.22377	0
591	25.22377	45.56552	20.34175	-35.80148	2.44101	32.5468	132.62821	432.05877	336.85938	198.53548	84.62168	25.22377	0
592	22.78276	50.44754	27.66478	-35.80148	-2.44101	39.86983	132.62821	434.49978	339.30039	200.97649	84.62168	25.22377	0
593	22.78276	50.44754	27.66478	-35.80148	-2.44101	39.86983	135.06922	434.49978	339.30039	203.4175	84.62168	25.22377	0
594	30.10579	55.32956	25.22377	-43.12451	2.44101	39.86983	139.95124	439.3818	336.85938	203.4175	84.62168	27.66478	0
595	30.10579	52.88855	22.78276	-40.6835	4.88202	37.42882	142.39225	439.3818	336.85938	203.4175	82.18067	25.22377	0
596	30.10579	50.44754	20.34175	-40.6835	4.88202	34.98781	142.39225	444.26382	336.85938	203.4175	77.29865	22.78276	0
597	37.42882	50.44754	12.20505	-43.12451	12.20505	32.5468	142.39225	454.02786	341.7414	203.4175	74.85764	22.78276	0
598	42.31084	48.00653	4.88202	-45.56552	19.52808	27.66478	144.83326	461.35089	346.62342	200.97649	69.97562	22.78276	0
599	47.19286	45.56552	-2.44101	-45.56552	24.4101	22.78276	139.95124	466.23291	349.06443	198.53548	69.97562	20.34175	0
600	47.19286	45.56552	-2.44101	-45.56552	24.4101	22.78276	137.51023	463.7919	349.06443	198.53548	74.85764	17.90074	0
601	39.86983	43.12451	2.44101	-40.6835	19.52808	22.78276	132.62821	458.90988	346.62342	198.53548	77.29865	17.90074	0
602	34.98781	40.6835	4.88202	-38.24249	14.64606	22.78276	127.74619	454.02786	341.7414	198.53548	79.73966	20.34175	0
603	32.5468	43.12451	9.76404	-38.24249	12.20505	27.66478	125.30518	444.26382	334.41837	196.09447	82.18067	25.22377	0
604	30.10579	40.6835	9.76404	-35.80148	9.76404	25.22377	122.86417	432.05877	319.77231	188.77144	79.73966	27.66478	0
605	27.66478	38.24249	9.76404	-33.36047	9.76404	25.22377	120.42316	419.85372	305.12625	183.88942	77.29865	27.66478	0
606	34.98781	40.6835	4.88202	-38.24249	14.64606	22.78276	117.98215	412.53069	295.36221	179.0074	72.41663	27.66478	0
607	42.31084	45.56552	2.44101	-43.12451	19.52808	25.22377	113.10013	405.20766	288.03918	174.12538	69.97562	27.66478	0
608	52.07488	45.56552	-7.32303	-48.00653	29.29212	20.34175	105.7771	397.88463	280.71615	171.68437	65.0936	30.10579	0
609	59.39791	48.00653	-12.20505	-52.88855	36.61515	17.90074	100.89508	388.12059	275.83413	169.24336	65.0936	30.10579	0
610	64.27993	52.88855	-12.20505	-57.77057	39.05616	20.34175	93.57205	373.47453	270.95211	166.80235	69.97562	30.10579	0
611	61.83892	57.77057	-4.88202	-60.21158	34.17414	27.66478	83.80801	361.26948	263.62908	166.80235	77.29865	32.5468	0
612	54.51589	57.77057	2.44101	-55.32956	26.85111	30.10579	78.92599	344.18241	256.30605	166.80235	84.62168	37.42882	0
613	44.75185	57.77057	12.20505	-50.44754	17.08707	34.98781	76.48498	329.53635	246.54201	161.92033	87.06269	42.31084	0
614	39.86983	57.77057	17.90074	-48.00653	12.20505	37.42882	76.48498	310.00827	234.33696	154.5973	84.62168	44.75185	0
615	34.98781	57.77057	22.78276	-45.56552	7.32303	39.86983	76.48498	292.9212	222.13191	147.27427	82.18067	47.19286	0
616	34.98781	55.32956	20.34175	-45.56552	7.32303	37.42882	78.92599	278.27514	212.36787	139.95124	79.73966	49.63387	0
617	34.98781	52.88855	17.90074	-43.12451	9.76404	34.98781	74.04397	268.5111	202.60383	132.62821	74.85764	52.07488	0
618	37.42882	52.88855	14.64606	-45.56552	12.20505	34.98781	69.16195	256.30605	190.39878	125.30518	69.97562	52.07488	0
619	42.31084	55.32956	12.20505	-48.00653	14.64606	34.98781	64.27993	244.101	183.07575	120.42316	67.53461	52.07488	0
620	44.75185	57.77057	12.20505	-50.44754	17.08707	34.98781	54.51589	227.01393	170.8707	115.54114	69.97562	49.63387	0
621	39.86983	57.77057	17.90074	-48.00653	12.20505	37.42882	42.31084	209.92686	153.78363	110.65912	69.97562	47.19286	0
622	34.98781	57.77057	22.78276	-45.56552	7.32303	39.86983	32.5468	190.39878	136.69656	100.89508	72.41663	44.75185	0
623	27.66478	55.32956	27.66478	-40.6835	0	42.31084	25.22377	170.8707	119.60949	91.13104	67.53461	44.75185	0
624	22.78276	55.32956	32.5468	-38.24249	-4.88202	44.75185	25.22377	153.78363	102.52242	78.92599	60.21158	39.86983	0
625	20.34175	55.32956	34.98781	-38.24249	-7.32303	44.75185	30.10579	141.57858	87.87636	69.16195	57.77057	39.86983	0
626	15.45973	57.77057	42.31084	-35.80148	-12.20505	49.63387	34.98781	131.81454	78.11232	61.83892	50.44754	39.86983	0
627	13.01872	52.88855	39.86983	-33.36047	-12.20505	47.19286	34.98781	124.49151	70.78929	54.51589	43.12451	37.42882	0
628	10.57771	48.00653	37.42882	-28.47845	-12.20505	42.31084	32.5468	122.0505	63.46626	49.63387	35.80148	34.98781	0
629	10.57771	43.12451	32.5468	-26.03744	-9.76404	37.42882	27.66478	114.72747	58.58424	44.75185	30.91946	30.10579	0
630	15.45973	40.6835	25.22377	-28.47845	-4.88202	32.5468	19.52808	107.40444	51.26121	39.86983	28.47845	22.78276	0
631	15.45973	40.6835	25.22377	-28.47845	-4.88202	32.5468	9.76404	95.19939	43.93818	37.42882	30.91946	20.34175	0
632	15.45973	38.24249	22.78276	-26.03744	-2.44101	30.10579	2.44101	82.99434	34.17414	32.5468	28.47845	17.90074	0
633	15.45973	43.12451	27.66478	-28.47845	-4.88202	34.98781	0	73.2303	26.03744	30.10579	28.47845	17.90074	0
634	8.1367	45.56552	37.42882	-26.03744	-15.45973	42.31084	4.88202	65.90727	23.59643	25.22377	26.03744	20.34175	0
635	5.69569	45.56552	39.86983	-26.03744	-17.90074	42.31084	9.76404	58.58424	16.2734	17.90074	21.15542	22.78276	0
636	0.81367	43.12451	42.31084	-21.15542	-20.34175	42.31084	14.64606	56.14323	11.39138	14.64606	18.71441	22.78276	0
637	-4.06835	40.6835	44.75185	-18.71441	-25.22377	42.31084	17.08707	56.14323	8.95037	9.76404	13.83239	25.22377	0
638	-6.50936	40.6835	47.19286	-16.2734	-27.66478	44.75185	17.08707	56.14323	8.95037	9.76404	8.95037	25.22377	0
639	-6.50936	40.6835	47.19286	-16.2734	-27.66478	44.75185	14.64606	58.58424	6.50936	7.32303	6.50936	22.78276	0
640	-4.06835	38.24249	42.31084	-16.2734	-22.78276	39.86983	4.88202	53.70222	1.62734	2.44101	6.50936	15.45973	0
641	-6.50936	38.24249	44.75185	-16.2734	-25.22377	42.31084	-4.88202	46.37919	-5.69569	2.44101	8.95037	10.57771	0
642	-6.50936	40.6835	47.19286	-16.2734	-27.66478	44.75185	-9.76404	41.49717	-10.57771	0	11.39138	10.57771	0
643	-11.39138	43.12451	54.51589	-16.2734	-32.5468	49.63387	-9.76404	36.61515	-15.45973	-2.44101	11.39138	10.57771	0
644	-14.64606	43.12451	56.9569	-13.83239	-34.98781	49.63387	-7.32303	29.29212	-20.34175	-7.32303	6.50936	8.1367	0
645	-17.08707	38.24249	54.51589	-11.39138	-34.98781	44.75185	-4.88202	23.59643	-27.66478	-14.64606	1.62734	5.69569	0
646	-17.08707	35.80148	52.07488	-8.95037	-34.98781	42.31084	-2.44101	21.15542	-27.66478	-19.52808	-4.06835	5.69569	0
647	-17.08707	33.36047	49.63387	-8.95037	-32.5468	39.86983	0	23.59643	-27.66478	-19.52808	-6.50936	5.69569	0
648	-21.96909	30.91946	52.07488	-4.06835	-37.42882	39.86983	2.44101	23.59643	-25.22377	-19.52808	-8.95037	5.69569	0
649	-26.85111	28.47845	54.51589	-1.62734	-39.86983	39.86983	2.44101	29.29212	-20.34175	-14.64606	-8.95037	8.1367	0
650	-24.4101	30.91946	54.51589	-4.06835	-39.86983	42.31084	0	29.29212	-15.45973	-9.76404	-4.06835	5.69569	-1250	T-0
651	-24.4101	33.36047	56.9569	-4.06835	-39.86983	44.75185	-4.88202	26.85111	-17.90074	-7.32303	1.62734	5.69569	0
652	-26.85111	33.36047	59.39791	-4.06835	-42.31084	44.75185	-9.76404	23.59643	-20.34175	-7.32303	4.06835	5.69569	0
653	-29.29212	35.80148	64.27993	-4.06835	-47.19286	49.63387	-9.76404	16.2734	-25.22377	-7.32303	4.06835	5.69569	0
654	-29.29212	33.36047	61.83892	-1.62734	-44.75185	47.19286	-9.76404	8.95037	-32.5468	-12.20505	-0.81367	3.25468	0
655	-26.85111	33.36047	59.39791	-4.06835	-42.31084	44.75185	-7.32303	4.06835	-37.42882	-17.08707	-4.06835	0.81367	0
656	-21.96909	35.80148	56.9569	-6.50936	-39.86983	44.75185	-4.88202	1.62734	-39.86983	-21.96909	-11.39138	-1.62734	0
657	-14.64606	38.24249	52.07488	-11.39138	-32.5468	44.75185	-2.44101	1.62734	-42.31084	-21.96909	-16.2734	-4.88202	0
658	-11.39138	38.24249	49.63387	-13.83239	-30.10579	44.75185	-2.44101	4.06835	-42.31084	-21.96909	-18.71441	-4.88202	0
659	-14.64606	35.80148	49.63387	-11.39138	-32.5468	42.31084	0	8.95037	-37.42882	-19.52808	-18.71441	-4.88202	0
660	-19.52808	33.36047	52.07488	-6.50936	-34.98781	42.31084	2.44101	13.83239	-32.5468	-14.64606	-11.39138	-4.88202	0
661	-29.29212	33.36047	61.83892	-1.62734	-44.75185	47.19286	2.44101	18.71441	-32.5468	-7.32303	-6.50936	-4.88202	0
662	-34.17414	28.47845	61.83892	3.25468	-47.19286	44.75185	0	18.71441	-32.5468	-7.32303	-4.06835	-4.88202	0
663	-43.93818	26.03744	69.16195	8.95037	-56.9569	47.19286	0	16.2734	-34.98781	-7.32303	-0.81367	-1.62734	0
664	-53.70222	21.15542	74.04397	16.2734	-64.27993	47.19286	4.88202	16.2734	-34.98781	-7.32303	-4.06835	0.81367	0
665	-58.58424	21.15542	78.92599	18.71441	-69.16195	49.63387	7.32303	16.2734	-32.5468	-9.76404	-4.06835	3.25468	0
666	-58.58424	21.15542	78.92599	18.71441	-69.16195	49.63387	9.76404	13.83239	-30.10579	-9.76404	-4.06835	5.69569	0
667	-51.26121	21.15542	71.60296	13.83239	-61.83892	44.75185	9.76404	16.2734	-27.66478	-9.76404	-6.50936	5.69569	0
668	-41.49717	23.59643	64.27993	8.95037	-52.07488	42.31084	9.76404	18.71441	-27.66478	-9.76404	-8.95037	5.69569	0
669	-34.17414	26.03744	59.39791	3.25468	-47.19286	42.31084	9.76404	21.15542	-22.78276	-9.76404	-8.95037	5.69569	0
670	-31.73313	28.47845	59.39791	0.81367	-44.75185	42.31084	7.32303	21.15542	-20.34175	-7.32303	-4.06835	0.81367	0
671	-34.17414	28.47845	61.83892	3.25468	-47.19286	44.75185	4.88202	18.71441	-22.78276	-4.88202	-0.81367	-1.62734	0
672	-39.05616	28.47845	66.72094	5.69569	-52.07488	47.19286	0	16.2734	-25.22377	-4.88202	4.06835	-1.62734	0
673	-43.93818	30.91946	74.04397	5.69569	-59.39791	52.07488	2.44101	13.83239	-27.66478	-4.88202	4.06835	-1.62734	0
674	-48.8202	35.80148	83.80801	5.69569	-66.72094	59.39791	2.44101	8.95037	-27.66478	-7.32303	1.62734	0.81367	0
675	-53.70222	30.91946	83.80801	11.39138	-69.16195	56.9569	2.44101	4.06835	-27.66478	-9.76404	-4.06835	-1.62734	0
676	-58.58424	30.91946	88.69003	13.83239	-74.04397	59.39791	2.44101	4.06835	-27.66478	-12.20505	-4.06835	-4.88202	0
677	-58.58424	26.03744	83.80801	16.2734	-71.60296	54.51589	2.44101	4.06835	-22.78276	-14.64606	-8.95037	-4.88202	0
678	-48.8202	26.03744	74.04397	11.39138	-61.83892	49.63387	4.88202	6.50936	-22.78276	-14.64606	-11.39138	-4.88202	0
679	-39.05616	26.03744	64.27993	5.69569	-52.07488	44.75185	0	6.50936	-22.78276	-14.64606	-13.83239	-9.76404	0
680	-31.73313	23.59643	54.51589	3.25468	-42.31084	37.42882	0	6.50936	-22.78276	-12.20505	-8.95037	-14.64606	0
681	-26.85111	23.59643	49.63387	0.81367	-37.42882	34.98781	-2.44101	6.50936	-27.66478	-9.76404	-6.50936	-17.08707	0
682	-26.85111	26.03744	52.07488	0.81367	-39.86983	37.42882	-2.44101	6.50936	-30.10579	-7.32303	-0.81367	-17.08707	0
683	-29.29212	28.47845	56.9569	0.81367	-42.31084	42.31084	2.44101	8.95037	-30.10579	-7.32303	1.62734	-14.64606	0
684	-29.29212	30.91946	59.39791	-1.62734	-44.75185	44.75185	7.32303	8.95037	-32.5468	-9.76404	-0.81367	-14.64606	0
685	-39.05616	26.03744	64.27993	5.69569	-52.07488	44.75185	14.64606	8.95037	-32.5468	-14.64606	-4.06835	-14.64606	0
686	-51.26121	23.59643	74.04397	13.83239	-61.83892	47.19286	19.52808	11.39138	-27.66478	-14.64606	-4.06835	-12.20505	0
687	-58.58424	26.03744	83.80801	16.2734	-71.60296	54.51589	27.66478	18.71441	-20.34175	-14.64606	-6.50936	-9.76404	0
688	-51.26121	28.47845	78.92599	11.39138	-64.27993	52.07488	30.10579	23.59643	-15.45973	-12.20505	-6.50936	-7.32303	0
689	-43.93818	30.91946	74.04397	5.69569	-59.39791	52.07488	30.10579	23.59643	-13.01872	-9.76404	-6.50936	-7.32303	0
690	-46.37919	33.36047	78.92599	5.69569	-61.83892	54.51589	27.66478	23.59643	-13.01872	-7.32303	-4.06835	-9.76404	0
691	-53.70222	30.91946	83.80801	11.39138	-69.16195	56.9569	22.78276	21.15542	-17.90074	-4.88202	1.62734	-9.76404	0
692	-56.14323	30.91946	86.24902	11.39138	-71.60296	56.9569	19.52808	16.2734	-22.78276	-4.88202	4.06835	-12.20505	0
693	-56.14323	30.91946	86.24902	11.39138	-71.60296	56.9569	19.52808	11.39138	-25.22377	-4.88202	6.50936	-9.76404	0
694	-53.70222	28.47845	81.367	11.39138	-66.72094	54.51589	19.52808	1.62734	-30.10579	-9.76404	-0.81367	-9.76404	0
695	-53.70222	21.15542	74.04397	16.2734	-64.27993	47.19286	19.52808	-8.1367	-34.98781	-14.64606	-6.50936	-12.20505	0
696	-56.14323	18.71441	74.04397	18.71441	-64.27993	44.75185	19.52808	-10.57771	-32.5468	-17.08707	-11.39138	-12.20505	0
697	-48.8202	21.15542	69.16195	13.83239	-59.39791	44.75185	19.52808	-5.69569	-30.10579	-17.08707	-16.2734	-12.20505	0
698	-39.05616	26.03744	64.27993	5.69569	-52.07488	44.75185	22.78276	-0.81367	-25.22377	-17.08707	-16.2734	-9.76404	0
699	-31.73313	26.03744	56.9569	3.25468	-44.75185	39.86983	19.52808	1.62734	-25.22377	-17.08707	-18.71441	-12.20505	0
700	-34.17414	26.03744	59.39791	3.25468	-47.19286	42.31084	19.52808	4.06835	-27.66478	-14.64606	-11.39138	-12.20505	0
701	-43.93818	26.03744	69.16195	8.95037	-56.9569	47.19286	17.08707	6.50936	-30.10579	-7.32303	-4.06835	-12.20505	0
702	-48.8202	26.03744	74.04397	11.39138	-61.83892	49.63387	12.20505	6.50936	-34.98781	-7.32303	-4.06835	-12.20505	0
703	-51.26121	23.59643	74.04397	13.83239	-61.83892	47.19286	12.20505	1.62734	-39.86983	-9.76404	-4.06835	-14.64606	0
704	-53.70222	21.15542	74.04397	16.2734	-64.27993	47.19286	12.20505	-3.25468	-44.75185	-12.20505	-4.06835	-17.08707	0
705	-53.70222	21.15542	74.04397	16.2734	-64.27993	47.19286	17.08707	-8.1367	-47.19286	-14.64606	-6.50936	-17.08707	0
706	-56.14323	18.71441	74.04397	18.71441	-64.27993	44.75185	19.52808	-8.1367	-44.75185	-17.08707	-8.95037	-17.08707	0
707	-53.70222	16.2734	69.16195	18.71441	-61.83892	42.31084	19.52808	-5.69569	-42.31084	-19.52808	-16.2734	-17.08707	0
708	-43.93818	16.2734	59.39791	13.83239	-52.07488	37.42882	19.52808	-3.25468	-44.75185	-21.96909	-21.15542	-17.08707	0
709	-34.17414	16.2734	49.63387	8.95037	-42.31084	32.5468	14.64606	-3.25468	-44.75185	-21.96909	-23.59643	-17.08707	0
710	-29.29212	16.2734	44.75185	5.69569	-37.42882	30.10579	9.76404	-8.1367	-44.75185	-21.96909	-18.71441	-21.96909	0
711	-21.96909	16.2734	37.42882	3.25468	-30.10579	25.22377	0	-15.45973	-52.07488	-24.4101	-18.71441	-26.85111	0
712	-17.08707	13.83239	30.10579	0.81367	-22.78276	20.34175	-9.76404	-20.34175	-61.83892	-29.29212	-18.71441	-31.73313	0
713	-17.08707	13.83239	30.10579	0.81367	-22.78276	20.34175	-12.20505	-25.22377	-69.16195	-31.73313	-16.2734	-31.73313	0
714	-26.85111	16.2734	42.31084	5.69569	-34.98781	27.66478	-9.76404	-27.66478	-69.16195	-34.17414	-16.2734	-26.85111	0
715	-39.05616	16.2734	54.51589	11.39138	-47.19286	34.98781	-2.44101	-27.66478	-69.16195	-34.17414	-16.2734	-21.96909	0
716	-41.49717	16.2734	56.9569	11.39138	-49.63387	34.98781	2.44101	-30.10579	-69.16195	-34.17414	-18.71441	-21.96909	0
717	-39.05616	18.71441	56.9569	8.95037	-47.19286	37.42882	2.44101	-27.66478	-66.72094	-36.61515	-23.59643	-19.52808	0
718	-31.73313	21.15542	52.07488	5.69569	-42.31084	34.98781	4.88202	-25.22377	-64.27993	-34.17414	-23.59643	-14.64606	0
719	-31.73313	23.59643	54.51589	3.25468	-42.31084	37.42882	7.32303	-20.34175	-59.39791	-29.29212	-23.59643	-12.20505	0
720	-26.85111	26.03744	52.07488	0.81367	-39.86983	37.42882	4.88202	-25.22377	-59.39791	-26.85111	-18.71441	-14.64606	0
721	-19.52808	23.59643	42.31084	-1.62734	-30.10579	32.5468	-2.44101	-32.5468	-64.27993	-29.29212	-18.71441	-17.08707	0
722	-21.96909	18.71441	39.86983	0.81367	-30.10579	27.66478	-9.76404	-37.42882	-69.16195	-29.29212	-16.2734	-14.64606	0
723	-34.17414	16.2734	49.63387	8.95037	-42.31084	32.5468	-7.32303	-39.86983	-69.16195	-26.85111	-11.39138	-9.76404	0
724	-46.37919	13.83239	59.39791	16.2734	-52.07488	34.98781	-4.88202	-44.75185	-69.16195	-26.85111	-11.39138	-4.88202	0
725	-53.70222	8.95037	61.83892	21.15542	-56.9569	34.98781	-2.44101	-52.07488	-74.04397	-31.73313	-11.39138	-4.88202	0
726	-48.8202	8.95037	56.9569	18.71441	-52.07488	32.5468	-2.44101	-56.9569	-74.04397	-36.61515	-13.83239	-4.88202	0
727	-36.61515	13.83239	49.63387	11.39138	-42.31084	30.10579	2.44101	-56.9569	-71.60296	-36.61515	-13.83239	-1.62734	0
728	-29.29212	16.2734	44.75185	5.69569	-37.42882	30.10579	7.32303	-56.9569	-69.16195	-34.17414	-13.83239	-1.62734	0
729	-21.96909	16.2734	37.42882	3.25468	-30.10579	25.22377	4.88202	-56.9569	-69.16195	-34.17414	-16.2734	-4.88202	0
730	-19.52808	13.83239	32.5468	3.25468	-25.22377	22.78276	2.44101	-59.39791	-71.60296	-34.17414	-13.83239	-7.32303	0
731	-17.08707	13.83239	30.10579	0.81367	-22.78276	20.34175	-2.44101	-59.39791	-74.04397	-29.29212	-13.83239	-7.32303	0
732	-19.52808	8.95037	27.66478	5.69569	-22.78276	17.90074	-7.32303	-61.83892	-78.92599	-29.29212	-11.39138	-7.32303	0
733	-29.29212	0.81367	30.10579	13.83239	-30.10579	15.45973	-14.64606	-61.83892	-81.367	-29.29212	-11.39138	-7.32303	0
734	-36.61515	-1.62734	34.98781	18.71441	-37.42882	15.45973	-19.52808	-61.83892	-86.24902	-31.73313	-13.83239	-7.32303	0
735	-36.61515	-1.62734	34.98781	18.71441	-37.42882	15.45973	-21.96909	-66.72094	-91.13104	-36.61515	-18.71441	-7.32303	0
736	-34.17414	0.81367	34.98781	16.2734	-34.98781	17.90074	-19.52808	-66.72094	-91.13104	-39.05616	-18.71441	-4.88202	0
737	-31.73313	0.81367	32.5468	13.83239	-32.5468	15.45973	-19.52808	-69.16195	-91.13104	-39.05616	-21.15542	-4.88202	0
738	-31.73313	4.06835	34.98781	13.83239	-32.5468	17.90074	-14.64606	-69.16195	-86.24902	-39.05616	-23.59643	-4.88202	0
739	-31.73313	8.95037	39.86983	11.39138	-34.98781	22.78276	-12.20505	-66.72094	-83.80801	-34.17414	-23.59643	-4.88202	0
740	-29.29212	13.83239	42.31084	5.69569	-34.98781	27.66478	-9.76404	-66.72094	-81.367	-31.73313	-18.71441	-4.88202	0
741	-29.29212	16.2734	44.75185	5.69569	-37.42882	30.10579	-9.76404	-66.72094	-81.367	-29.29212	-16.2734	-4.88202	0
742	-34.17414	18.71441	52.07488	5.69569	-42.31084	34.98781	-7.32303	-69.16195	-81.367	-24.4101	-8.95037	-1.62734	0
743	-34.17414	23.59643	56.9569	5.69569	-44.75185	39.86983	-7.32303	-66.72094	-78.92599	-21.96909	-6.50936	0.81367	0
744	-34.17414	23.59643	56.9569	5.69569	-44.75185	39.86983	-7.32303	-66.72094	-78.92599	-21.96909	-6.50936	0.81367	0
745	-26.85111	23.59643	49.63387	0.81367	-37.42882	34.98781	-9.76404	-69.16195	-83.80801	-29.29212	-11.39138	-1.62734	0
746	-17.08707	26.03744	42.31084	-4.06835	-30.10579	32.5468	-9.76404	-69.16195	-86.24902	-31.73313	-13.83239	-1.62734	0
747	-8.95037	30.91946	39.86983	-11.39138	-25.22377	34.98781	-7.32303	-66.72094	-86.24902	-31.73313	-16.2734	0.81367	0
748	0.81367	35.80148	34.98781	-18.71441	-17.90074	34.98781	-7.32303	-61.83892	-83.80801	-31.73313	-16.2734	3.25468	0
749	8.1367	40.6835	32.5468	-23.59643	-12.20505	37.42882	-12.20505	-61.83892	-81.367	-29.29212	-13.83239	3.25468	0
750	10.57771	45.56552	34.98781	-28.47845	-12.20505	39.86983	-14.64606	-56.9569	-76.48498	-21.96909	-8.95037	8.1367	0
751	10.57771	52.88855	42.31084	-30.91946	-15.45973	47.19286	-14.64606	-54.51589	-71.60296	-12.20505	-0.81367	13.01872	0
752	5.69569	57.77057	52.07488	-30.91946	-22.78276	54.51589	-19.52808	-49.63387	-64.27993	-2.44101	11.39138	20.34175	0
753	-1.62734	62.65259	64.27993	-30.91946	-32.5468	64.27993	-21.96909	-49.63387	-59.39791	4.88202	16.2734	25.22377	0
754	-11.39138	62.65259	74.04397	-26.03744	-42.31084	69.16195	-24.4101	-49.63387	-56.9569	7.32303	18.71441	27.66478	0
755	-17.08707	62.65259	78.92599	-23.59643	-47.19286	69.16195	-24.4101	-52.07488	-56.9569	4.88202	18.71441	27.66478	0
756	-21.96909	57.77057	78.92599	-18.71441	-49.63387	66.72094	-21.96909	-52.07488	-56.9569	2.44101	16.2734	27.66478	0
757	-19.52808	57.77057	76.48498	-18.71441	-47.19286	66.72094	-21.96909	-56.9569	-61.83892	-2.44101	13.83239	27.66478	0
758	-14.64606	52.88855	66.72094	-18.71441	-39.86983	59.39791	-24.4101	-56.9569	-64.27993	-4.88202	8.95037	27.66478	0
759	-11.39138	48.00653	59.39791	-18.71441	-34.98781	54.51589	-29.29212	-56.9569	-66.72094	-7.32303	6.50936	25.22377	0
760	-6.50936	45.56552	52.07488	-18.71441	-30.10579	49.63387	-36.61515	-59.39791	-69.16195	-9.76404	6.50936	22.78276	0
761	-4.06835	43.12451	47.19286	-18.71441	-25.22377	44.75185	-43.93818	-56.9569	-71.60296	-7.32303	8.95037	22.78276	0
762	-4.06835	38.24249	42.31084	-16.2734	-22.78276	39.86983	-51.26121	-59.39791	-76.48498	-7.32303	13.83239	22.78276	0
763	-1.62734	33.36047	34.98781	-16.2734	-17.90074	34.98781	-61.02525	-64.27993	-83.80801	-12.20505	11.39138	20.34175	0
764	5.69569	30.91946	25.22377	-18.71441	-9.76404	27.66478	-68.34828	-71.60296	-93.57205	-19.52808	4.06835	13.01872	0
765	10.57771	28.47845	17.90074	-18.71441	-2.44101	22.78276	-70.78929	-78.92599	-103.33609	-29.29212	-4.06835	8.1367	0
766	13.01872	26.03744	12.20505	-18.71441	0	20.34175	-68.34828	-83.80801	-108.21811	-36.61515	-8.95037	5.69569	0
767	22.78276	18.71441	-4.88202	-21.15542	14.64606	7.32303	-70.78929	-93.57205	-117.98215	-46.37919	-21.15542	-4.88202	0
768	32.5468	16.2734	-17.08707	-23.59643	24.4101	0	-73.2303	-103.33609	-125.30518	-56.14323	-30.91946	-9.76404	0
769	37.42882	16.2734	-21.96909	-26.03744	29.29212	-2.44101	-73.2303	-103.33609	-125.30518	-58.58424	-38.24249	-14.64606	0
770	27.66478	18.71441	-9.76404	-23.59643	19.52808	4.88202	-68.34828	-100.89508	-122.86417	-56.14323	-33.36047	-12.20505	0
771	10.57771	21.15542	9.76404	-16.2734	0	15.45973	-63.46626	-100.89508	-117.98215	-51.26121	-26.03744	-7.32303	0
772	0.81367	21.15542	20.34175	-11.39138	-9.76404	20.34175	-63.46626	-100.89508	-115.54114	-46.37919	-18.71441	-4.88202	0
773	-11.39138	21.15542	32.5468	-4.06835	-22.78276	27.66478	-61.02525	-100.89508	-115.54114	-41.49717	-11.39138	3.25468	0
774	-24.4101	23.59643	47.19286	0.81367	-34.98781	34.98781	-53.70222	-98.45407	-110.65912	-36.61515	-4.06835	10.57771	0
775	-29.29212	23.59643	52.07488	3.25468	-39.86983	37.42882	-46.37919	-98.45407	-108.21811	-36.61515	-4.06835	15.45973	0
776	-26.85111	26.03744	52.07488	0.81367	-39.86983	37.42882	-43.93818	-98.45407	-105.7771	-36.61515	-4.06835	20.34175	0
777	-14.64606	26.03744	39.86983	-6.50936	-27.66478	32.5468	-41.49717	-98.45407	-103.33609	-36.61515	-4.06835	20.34175	0
778	-6.50936	28.47845	34.98781	-11.39138	-20.34175	32.5468	-39.05616	-93.57205	-103.33609	-36.61515	-4.06835	20.34175	0
779	-1.62734	30.91946	32.5468	-13.83239	-17.90074	32.5468	-36.61515	-91.13104	-100.89508	-34.17414	-6.50936	22.78276	0
780	3.25468	33.36047	30.10579	-18.71441	-12.20505	32.5468	-34.17414	-86.24902	-96.01306	-29.29212	-4.06835	22.78276	0
781	5.69569	38.24249	32.5468	-21.15542	-12.20505	34.98781	-34.17414	-86.24902	-96.01306	-24.4101	1.62734	22.78276	0
782	5.69569	38.24249	32.5468	-21.15542	-12.20505	34.98781	-31.73313	-86.24902	-98.45407	-24.4101	4.06835	22.78276	0
783	0.81367	35.80148	34.98781	-18.71441	-17.90074	34.98781	-31.73313	-88.69003	-100.89508	-26.85111	6.50936	22.78276	0
784	-8.95037	30.91946	39.86983	-11.39138	-25.22377	34.98781	-31.73313	-93.57205	-105.7771	-31.73313	1.62734	17.90074	0
785	-14.64606	26.03744	39.86983	-6.50936	-27.66478	32.5468	-26.85111	-100.89508	-113.10013	-39.05616	-4.06835	13.01872	0
786	-19.52808	21.15542	39.86983	-1.62734	-30.10579	30.10579	-24.4101	-108.21811	-117.98215	-46.37919	-11.39138	5.69569	0
787	-24.4101	16.2734	39.86983	3.25468	-32.5468	27.66478	-21.96909	-115.54114	-120.42316	-53.70222	-21.15542	0.81367	0
788	-26.85111	11.39138	37.42882	5.69569	-32.5468	22.78276	-19.52808	-117.98215	-122.86417	-58.58424	-28.47845	-4.88202	0
789	-29.29212	6.50936	34.98781	11.39138	-32.5468	20.34175	-19.52808	-115.54114	-122.86417	-61.02525	-35.80148	-9.76404	0
790	-31.73313	6.50936	37.42882	11.39138	-34.98781	20.34175	-19.52808	-110.65912	-122.86417	-61.02525	-35.80148	-14.64606	0
791	-34.17414	0.81367	34.98781	16.2734	-34.98781	17.90074	-21.96909	-110.65912	-122.86417	-61.02525	-35.80148	-17.08707	0
792	-34.17414	-1.62734	32.5468	16.2734	-34.98781	15.45973	-29.29212	-110.65912	-127.74619	-63.46626	-35.80148	-19.52808	0
793	-39.05616	-6.50936	32.5468	21.15542	-37.42882	13.01872	-34.17414	-110.65912	-130.1872	-65.90727	-35.80148	-21.96909	0
794	-43.93818	-11.39138	32.5468	26.03744	-39.86983	10.57771	-36.61515	-115.54114	-135.06922	-70.78929	-38.24249	-24.4101	0
795	-48.8202	-18.71441	30.10579	33.36047	-39.86983	4.88202	-39.05616	-125.30518	-144.83326	-78.11232	-45.56552	-29.29212	0
796	-48.8202	-23.59643	25.22377	35.80148	-37.42882	0	-39.05616	-137.51023	-147.27427	-85.43535	-52.88855	-34.17414	0
797	-46.37919	-23.59643	22.78276	33.36047	-34.98781	-2.44101	-36.61515	-142.39225	-147.27427	-87.87636	-55.32956	-36.61515	0
798	-41.49717	-26.03744	14.64606	33.36047	-30.10579	-7.32303	-34.17414	-142.39225	-147.27427	-90.31737	-60.21158	-39.05616	0
799	-41.49717	-23.59643	17.90074	30.91946	-30.10579	-4.88202	-31.73313	-137.51023	-144.83326	-90.31737	-62.65259	-41.49717	0
800	-39.05616	-21.15542	17.90074	28.47845	-30.10579	-2.44101	-29.29212	-132.62821	-144.83326	-87.87636	-62.65259	-46.37919	0
801	-39.05616	-16.2734	22.78276	26.03744	-32.5468	2.44101	-29.29212	-125.30518	-142.39225	-80.55333	-57.77057	-46.37919	0
802	-41.49717	-11.39138	30.10579	26.03744	-37.42882	7.32303	-26.85111	-117.98215	-139.95124	-78.11232	-50.44754	-41.49717	0
803	-41.49717	-8.95037	32.5468	23.59643	-37.42882	10.57771	-26.85111	-115.54114	-142.39225	-78.11232	-48.00653	-41.49717	0
804	-41.49717	-8.95037	32.5468	23.59643	-37.42882	10.57771	-29.29212	-117.98215	-142.39225	-78.11232	-50.44754	-41.49717	0
805	-41.49717	-11.39138	30.10579	26.03744	-37.42882	7.32303	-24.4101	-120.42316	-144.83326	-80.55333	-52.88855	-41.49717	0
806	-39.05616	-8.95037	30.10579	23.59643	-34.98781	10.57771	-19.52808	-125.30518	-144.83326	-82.99434	-52.88855	-41.49717	0
807	-34.17414	-11.39138	22.78276	21.15542	-30.10579	4.88202	-17.08707	-127.74619	-142.39225	-82.99434	-55.32956	-39.05616	0
808	-19.52808	-8.95037	9.76404	13.83239	-15.45973	0	-14.64606	-130.1872	-142.39225	-85.43535	-57.77057	-39.05616	0
809	-14.64606	-11.39138	2.44101	11.39138	-9.76404	-4.88202	-14.64606	-130.1872	-142.39225	-85.43535	-62.65259	-41.49717	0
810	-11.39138	-13.83239	-2.44101	11.39138	-4.88202	-7.32303	-14.64606	-130.1872	-142.39225	-85.43535	-60.21158	-41.49717	0
811	-8.95037	-16.2734	-7.32303	11.39138	-2.44101	-12.20505	-19.52808	-127.74619	-147.27427	-82.99434	-60.21158	-43.93818	0
812	-14.64606	-16.2734	-2.44101	13.83239	-7.32303	-9.76404	-21.96909	-125.30518	-149.71528	-80.55333	-55.32956	-43.93818	0
813	-21.96909	-21.15542	0	21.15542	-12.20505	-12.20505	-21.96909	-122.86417	-149.71528	-78.11232	-50.44754	-39.05616	0
814	-36.61515	-26.03744	9.76404	30.91946	-25.22377	-9.76404	-21.96909	-122.86417	-149.71528	-78.11232	-50.44754	-39.05616	0
815	-53.70222	-28.47845	25.22377	40.6835	-39.86983	-2.44101	-14.64606	-122.86417	-149.71528	-78.11232	-50.44754	-36.61515	0
816	-58.58424	-28.47845	30.10579	43.12451	-44.75185	0	-9.76404	-120.42316	-142.39225	-75.67131	-48.00653	-36.61515	0
817	-58.58424	-30.91946	27.66478	43.12451	-44.75185	-2.44101	-4.88202	-120.42316	-139.95124	-75.67131	-50.44754	-36.61515	0
818	-56.14323	-30.91946	25.22377	43.12451	-42.31084	-4.88202	-2.44101	-120.42316	-139.95124	-78.11232	-55.32956	-36.61515	0
819	-43.93818	-30.91946	12.20505	35.80148	-30.10579	-9.76404	-4.88202	-120.42316	-139.95124	-80.55333	-62.65259	-43.93818	0
820	-26.85111	-30.91946	-4.88202	28.47845	-12.20505	-19.52808	-9.76404	-120.42316	-142.39225	-82.99434	-65.0936	-51.26121	0
821	-14.64606	-28.47845	-14.64606	21.15542	0	-21.96909	-12.20505	-117.98215	-144.83326	-82.99434	-62.65259	-53.70222	0
822	-21.96909	-28.47845	-7.32303	23.59643	-7.32303	-19.52808	-12.20505	-115.54114	-142.39225	-78.11232	-55.32956	-48.8202	0
823	-39.05616	-26.03744	12.20505	30.91946	-27.66478	-7.32303	-7.32303	-110.65912	-137.51023	-70.78929	-45.56552	-41.49717	0
824	-46.37919	-23.59643	22.78276	33.36047	-34.98781	-2.44101	-4.88202	-110.65912	-132.62821	-65.90727	-40.6835	-34.17414	0
825	-51.26121	-21.15542	30.10579	35.80148	-42.31084	2.44101	0	-117.98215	-130.1872	-63.46626	-38.24249	-29.29212	0
826	-63.46626	-21.15542	42.31084	40.6835	-54.51589	10.57771	4.88202	-125.30518	-122.86417	-61.02525	-33.36047	-24.4101	0
827	-75.67131	-23.59643	52.07488	48.00653	-64.27993	13.01872	7.32303	-130.1872	-117.98215	-61.02525	-33.36047	-21.96909	0
828	-75.67131	-26.03744	49.63387	50.44754	-64.27993	10.57771	7.32303	-135.06922	-117.98215	-61.02525	-35.80148	-21.96909	0
829	-58.58424	-28.47845	30.10579	43.12451	-44.75185	0	2.44101	-144.83326	-117.98215	-61.02525	-43.12451	-26.85111	0
830	-41.49717	-23.59643	17.90074	30.91946	-30.10579	-4.88202	0	-152.15629	-117.98215	-61.02525	-43.12451	-29.29212	0
831	-41.49717	-23.59643	17.90074	30.91946	-30.10579	-4.88202	0	-152.15629	-120.42316	-56.14323	-38.24249	-29.29212	0
832	-46.37919	-28.47845	17.90074	35.80148	-32.5468	-7.32303	-2.44101	-147.27427	-117.98215	-51.26121	-30.91946	-29.29212	0
833	-43.93818	-28.47845	14.64606	35.80148	-30.10579	-7.32303	0	-137.51023	-108.21811	-41.49717	-18.71441	-21.96909	0
834	-34.17414	-26.03744	7.32303	28.47845	-22.78276	-9.76404	7.32303	-120.42316	-88.69003	-21.96909	-4.06835	-12.20505	0
835	-26.85111	-26.03744	0	26.03744	-15.45973	-14.64606	19.52808	-91.13104	-56.9569	2.44101	16.2734	0.81367	0
836	-17.08707	-35.80148	-19.52808	26.03744	0	-29.29212	32.5468	-47.19286	-10.57771	39.86983	48.00653	20.34175	0
837	-1.62734	-50.44754	-48.8202	26.03744	21.96909	-48.8202	44.75185	8.95037	48.8202	96.01306	96.82673	49.63387	0
838	27.66478	-57.77057	-85.43535	13.83239	56.14323	-70.78929	59.39791	73.2303	122.0505	169.24336	162.734	96.01306	0
839	61.83892	-65.0936	-126.93252	0.81367	92.75838	-95.19939	71.60296	146.4606	207.48585	259.56073	245.72834	152.15629	0
840	98.45407	-77.29865	-175.75272	-11.39138	136.69656	-126.93252	76.48498	219.6909	300.24423	364.52416	350.69177	222.94558	0
841	142.39225	-87.06269	-229.45494	-28.47845	185.51676	-158.66565	74.04397	288.03918	390.5616	479.25163	470.30126	308.38093	0
842	196.09447	-94.38572	-290.48019	-50.44754	241.65999	-192.83979	59.39791	339.30039	471.11493	591.53809	599.67479	406.02133	0
843	259.56073	-104.14976	-363.71049	-77.29865	310.00827	-234.33696	27.66478	366.1515	524.81715	676.97344	711.96125	496.3387	0
844	327.90901	-116.35481	-444.26382	-106.59077	385.67958	-280.71615	-19.52808	358.82847	544.34523	723.35263	792.51458	572.01001	0
845	401.13931	-138.3239	-539.46321	-131.00087	468.67392	-339.30039	-85.43535	314.89029	512.6121	718.47061	829.12973	620.83021	0
846	479.25163	-165.17501	-644.42664	-157.85198	561.4323	-405.20766	-168.42969	227.01393	422.29473	650.12233	814.48367	640.35829	0
847	550.04092	-209.11319	-759.15411	-170.05703	654.19068	-483.31998	-268.5111	102.52242	275.83413	520.7488	743.69438	620.83021	0
848	620.83021	-262.81541	-883.64562	-179.82107	751.83108	-573.63735	-380.79756	-47.19286	90.31737	340.11406	619.20287	564.68698	0
849	676.97344	-318.95864	-995.93208	-179.82107	834.82542	-656.63169	-485.76099	-200.97649	-115.54114	132.62821	455.6552	471.9286	0
850	718.47061	-372.66086	-1091.13147	-172.49804	903.1737	-732.303	-578.51937	-357.20113	-325.468	-87.87636	272.57945	359.64214	0
851	737.99869	-421.48106	-1159.47975	-157.85198	947.11188	-790.88724	-654.19068	-498.77971	-528.07183	-302.68524	79.73966	232.70962	0
852	733.11667	-460.53722	-1193.65389	-135.88289	961.75794	-827.50239	-707.8929	-623.27122	-708.70657	-500.40705	-101.70875	105.7771	0
853	696.50152	-482.50631	-1179.00783	-106.59077	937.34784	-829.9434	-739.62603	-733.11667	-855.16717	-668.83674	-272.57945	-17.08707	0
854	628.15324	-484.94732	-1113.10056	-72.41663	868.99956	-798.21027	-737.18502	-830.75707	-972.33565	-803.09229	-423.92207	-131.81454	0
855	532.95385	-477.62429	-1010.57814	-28.47845	771.35916	-744.50805	-710.33391	-911.3104	-1057.771	-905.61471	-545.97257	-234.33696	0
856	430.43143	-458.09621	-888.52764	13.83239	659.0727	-673.71876	-668.83674	-965.01262	-1104.15019	-964.19895	-631.40792	-310.00827	0
857	323.02699	-423.92207	-746.94906	50.44754	534.58119	-585.8424	-605.37048	-974.77666	-1101.70918	-973.96299	-675.3461	-363.71049	0
858	213.18154	-387.30692	-600.48846	87.06269	405.20766	-493.08402	-527.25816	-952.80757	-1057.771	-939.78885	-682.66913	-393.00261	0
859	117.98215	-345.80975	-463.7919	113.9138	290.48019	-405.20766	-444.26382	-896.66434	-982.09969	-876.32259	-663.14105	-402.76665	0
860	47.19286	-299.43056	-346.62342	126.11885	195.2808	-322.21332	-363.71049	-813.67	-879.57727	-786.00522	-611.87984	-390.5616	0
861	-4.06835	-257.93339	-253.86504	131.00087	124.49151	-256.30605	-290.48019	-713.58859	-769.73182	-688.36482	-550.85459	-368.59251	0
862	-41.49717	-218.87723	-178.19373	128.55986	68.34828	-200.16282	-224.57292	-611.06617	-657.44536	-588.28341	-482.50631	-339.30039	0
863	-75.67131	-184.70309	-109.84545	128.55986	17.08707	-148.90161	-163.54767	-513.42577	-552.48193	-493.08402	-416.59904	-305.12625	0
864	-92.75838	-150.52895	-58.58424	121.23683	-17.90074	-104.96343	-117.16848	-430.43143	-464.60557	-412.53069	-360.45581	-273.39312	0
865	-95.19939	-123.67784	-29.29212	109.03178	-34.98781	-78.11232	-80.55333	-364.52416	-393.81628	-349.06443	-311.63561	-244.101	0
866	-95.19939	-99.26774	-4.88202	96.82673	-47.19286	-53.70222	-48.8202	-308.38093	-330.35002	-295.36221	-272.57945	-219.6909	0
867	-92.75838	-82.18067	9.76404	87.06269	-52.07488	-36.61515	-21.96909	-259.56073	-274.20679	-248.98302	-235.9643	-192.83979	0
868	-87.87636	-62.65259	25.22377	74.85764	-56.9569	-19.52808	-2.44101	-213.18154	-225.38659	-205.04484	-201.79016	-165.98868	0
869	-80.55333	-48.00653	32.5468	62.65259	-56.9569	-9.76404	12.20505	-174.12538	-186.33043	-168.42969	-170.05703	-144.01959	0
870	-68.34828	-33.36047	34.98781	50.44754	-52.07488	0	19.52808	-149.71528	-159.47932	-141.57858	-148.08794	-126.93252	0
871	-65.90727	-23.59643	42.31084	43.12451	-54.51589	7.32303	25.22377	-132.62821	-137.51023	-114.72747	-123.67784	-112.28646	0
872	-73.2303	-13.83239	59.39791	43.12451	-66.72094	22.78276	34.98781	-115.54114	-117.98215	-90.31737	-99.26774	-95.19939	0
873	-80.55333	-6.50936	74.04397	43.12451	-78.92599	32.5468	42.31084	-98.45407	-100.89508	-70.78929	-79.73966	-80.55333	0
874	-87.87636	-4.06835	83.80801	45.56552	-86.24902	39.86983	47.19286	-86.24902	-86.24902	-56.14323	-67.53461	-73.2303	0
875	-87.87636	-1.62734	86.24902	43.12451	-88.69003	42.31084	54.51589	-81.367	-78.92599	-48.8202	-60.21158	-65.90727	0
876	-87.87636	0.81367	88.69003	43.12451	-88.69003	44.75185	59.39791	-76.48498	-69.16195	-43.93818	-55.32956	-61.02525	0
877	-90.31737	-1.62734	88.69003	45.56552	-91.13104	42.31084	64.27993	-69.16195	-59.39791	-39.05616	-52.88855	-56.14323	0
878	-80.55333	-4.06835	76.48498	40.6835	-78.92599	34.98781	66.72094	-64.27993	-54.51589	-39.05616	-52.88855	-56.14323	0
879	-63.46626	-1.62734	61.83892	30.91946	-64.27993	30.10579	64.27993	-59.39791	-52.07488	-36.61515	-55.32956	-56.14323	0
880	-51.26121	-1.62734	49.63387	26.03744	-52.07488	22.78276	59.39791	-54.51589	-52.07488	-34.17414	-52.88855	-58.58424	0
881	-43.93818	0.81367	44.75185	21.15542	-44.75185	22.78276	56.9569	-54.51589	-49.63387	-29.29212	-48.00653	-58.58424	0
882	-41.49717	0.81367	42.31084	18.71441	-42.31084	20.34175	54.51589	-54.51589	-52.07488	-24.4101	-43.12451	-56.14323	0
883	-41.49717	6.50936	47.19286	16.2734	-44.75185	25.22377	52.07488	-52.07488	-52.07488	-19.52808	-38.24249	-53.70222	0
884	-46.37919	8.95037	54.51589	18.71441	-49.63387	30.10579	52.07488	-49.63387	-47.19286	-17.08707	-35.80148	-53.70222	0
885	-51.26121	6.50936	56.9569	21.15542	-54.51589	30.10579	54.51589	-52.07488	-47.19286	-19.52808	-38.24249	-53.70222	0
886	-58.58424	4.06835	61.83892	26.03744	-59.39791	32.5468	56.9569	-49.63387	-44.75185	-19.52808	-38.24249	-53.70222	0
887	-56.14323	6.50936	61.83892	23.59643	-59.39791	32.5468	61.83892	-44.75185	-39.86983	-17.08707	-38.24249	-51.26121	0
888	-51.26121	8.95037	59.39791	21.15542	-54.51589	32.5468	64.27993	-37.42882	-34.98781	-14.64606	-40.6835	-51.26121	0
889	-41.49717	8.95037	49.63387	16.2734	-44.75185	27.66478	66.72094	-32.5468	-27.66478	-12.20505	-43.12451	-51.26121	0
890	-29.29212	8.95037	37.42882	8.95037	-32.5468	22.78276	66.72094	-30.10579	-25.22377	-9.76404	-43.12451	-51.26121	0
891	-24.4101	11.39138	34.98781	5.69569	-30.10579	22.78276	66.72094	-27.66478	-22.78276	-4.88202	-38.24249	-51.26121	0
892	-26.85111	11.39138	37.42882	5.69569	-32.5468	22.78276	66.72094	-25.22377	-20.34175	-2.44101	-30.91946	-46.37919	0
893	-36.61515	8.95037	44.75185	13.83239	-39.86983	25.22377	69.16195	-22.78276	-17.90074	0	-26.03744	-43.93818	0
894	-48.8202	11.39138	59.39791	18.71441	-54.51589	34.98781	74.04397	-17.90074	-17.90074	4.88202	-21.15542	-39.05616	0
895	-61.02525	13.83239	74.04397	23.59643	-66.72094	42.31084	81.367	-15.45973	-17.90074	7.32303	-21.15542	-34.17414	0
896	-70.78929	16.2734	86.24902	26.03744	-78.92599	49.63387	88.69003	-10.57771	-15.45973	7.32303	-18.71441	-31.73313	0
897	-78.11232	18.71441	96.01306	28.47845	-86.24902	56.9569	93.57205	-5.69569	-10.57771	7.32303	-18.71441	-29.29212	0
898	-78.11232	18.71441	96.01306	28.47845	-86.24902	56.9569	96.01306	-3.25468	-5.69569	9.76404	-21.15542	-29.29212	0
899	-80.55333	18.71441	98.45407	30.91946	-88.69003	56.9569	96.01306	1.62734	1.62734	14.64606	-21.15542	-29.29212	0
900	-80.55333	16.2734	96.01306	30.91946	-88.69003	54.51589	96.01306	4.06835	6.50936	14.64606	-18.71441	-29.29212	0
901	-80.55333	16.2734	96.01306	30.91946	-88.69003	54.51589	93.57205	4.06835	8.95037	20.34175	-16.2734	-29.29212	0
902	-80.55333	13.83239	93.57205	33.36047	-86.24902	52.07488	88.69003	6.50936	11.39138	22.78276	-11.39138	-29.29212	0
903	-82.99434	11.39138	93.57205	35.80148	-88.69003	52.07488	86.24902	6.50936	13.83239	25.22377	-8.95037	-29.29212	0
904	-85.43535	11.39138	96.01306	35.80148	-91.13104	52.07488	86.24902	6.50936	13.83239	25.22377	-8.95037	-29.29212	0
905	-85.43535	11.39138	96.01306	35.80148	-91.13104	52.07488	86.24902	6.50936	11.39138	22.78276	-13.83239	-31.73313	0
906	-80.55333	11.39138	91.13104	33.36047	-86.24902	49.63387	86.24902	6.50936	11.39138	20.34175	-18.71441	-31.73313	0
907	-78.11232	11.39138	88.69003	33.36047	-83.80801	49.63387	86.24902	6.50936	11.39138	17.90074	-18.71441	-31.73313	0
908	-75.67131	11.39138	86.24902	30.91946	-81.367	47.19286	83.80801	11.39138	13.83239	17.90074	-21.15542	-31.73313	0
909	-75.67131	11.39138	86.24902	30.91946	-81.367	47.19286	83.80801	18.71441	21.15542	22.78276	-21.15542	-29.29212	0
910	-82.99434	16.2734	98.45407	33.36047	-91.13104	56.9569	86.24902	23.59643	26.03744	30.10579	-13.83239	-26.85111	0
911	-87.87636	18.71441	105.7771	33.36047	-96.01306	61.83892	86.24902	26.85111	31.73313	37.42882	-6.50936	-21.96909	0
912	-92.75838	21.15542	113.10013	35.80148	-103.33609	66.72094	86.24902	29.29212	36.61515	44.75185	1.62734	-17.08707	0
913	-100.08141	23.59643	122.86417	38.24249	-110.65912	71.60296	86.24902	31.73313	41.49717	47.19286	6.50936	-14.64606	0
914	-100.08141	26.03744	125.30518	35.80148	-113.10013	74.04397	86.24902	34.17414	43.93818	49.63387	8.95037	-12.20505	0
915	-100.08141	26.03744	125.30518	35.80148	-113.10013	74.04397	91.13104	34.17414	43.93818	44.75185	6.50936	-12.20505	0
916	-95.19939	26.03744	120.42316	33.36047	-108.21811	71.60296	93.57205	34.17414	46.37919	42.31084	1.62734	-14.64606	0
917	-85.43535	26.03744	110.65912	28.47845	-98.45407	66.72094	96.01306	39.05616	46.37919	39.86983	-0.81367	-14.64606	0
918	-80.55333	21.15542	100.89508	28.47845	-91.13104	59.39791	98.45407	46.37919	51.26121	39.86983	-4.06835	-14.64606	0
919	-80.55333	21.15542	100.89508	28.47845	-91.13104	59.39791	105.7771	61.02525	58.58424	47.19286	-0.81367	-9.76404	0
920	-82.99434	21.15542	103.33609	30.91946	-93.57205	61.83892	108.21811	68.34828	63.46626	52.07488	4.06835	-9.76404	0
921	-85.43535	18.71441	103.33609	33.36047	-93.57205	59.39791	110.65912	73.2303	68.34828	61.83892	8.95037	-4.88202	0
922	-90.31737	18.71441	108.21811	35.80148	-98.45407	61.83892	110.65912	78.11232	70.78929	69.16195	16.2734	-4.88202	0
923	-100.08141	16.2734	115.54114	40.6835	-108.21811	64.27993	113.10013	82.99434	73.2303	74.04397	21.15542	-1.62734	0
924	-107.40444	18.71441	125.30518	43.12451	-115.54114	71.60296	117.98215	87.87636	78.11232	78.92599	26.03744	0.81367	0
925	-107.40444	21.15542	127.74619	43.12451	-117.98215	74.04397	120.42316	87.87636	80.55333	78.92599	23.59643	0.81367	0
926	-109.84545	18.71441	127.74619	45.56552	-117.98215	71.60296	125.30518	92.75838	85.43535	78.92599	21.15542	0.81367	0
927	-109.84545	18.71441	127.74619	45.56552	-117.98215	71.60296	130.1872	100.08141	92.75838	83.80801	21.15542	0.81367	0
928	-107.40444	18.71441	125.30518	43.12451	-115.54114	71.60296	130.1872	109.84545	97.6404	86.24902	18.71441	3.25468	0
929	-107.40444	18.71441	125.30518	43.12451	-115.54114	71.60296	132.62821	122.0505	107.40444	93.57205	18.71441	3.25468	0
930	-107.40444	18.71441	125.30518	43.12451	-115.54114	71.60296	132.62821	126.93252	114.72747	98.45407	21.15542	3.25468	0
931	-104.96343	21.15542	125.30518	40.6835	-115.54114	71.60296	132.62821	134.25555	122.0505	105.7771	26.03744	3.25468	0
932	-104.96343	23.59643	127.74619	40.6835	-115.54114	74.04397	132.62821	141.57858	129.37353	115.54114	33.36047	5.69569	0
933	-107.40444	26.03744	132.62821	40.6835	-120.42316	78.92599	135.06922	148.90161	139.13757	122.86417	40.6835	10.57771	0
934	-107.40444	30.91946	137.51023	38.24249	-122.86417	83.80801	142.39225	156.22464	146.4606	130.1872	45.56552	10.57771	0
935	-107.40444	33.36047	139.95124	35.80148	-122.86417	86.24902	149.71528	161.10666	153.78363	130.1872	45.56552	10.57771	0
936	-102.52242	33.36047	135.06922	33.36047	-117.98215	83.80801	157.03831	165.98868	158.66565	130.1872	43.12451	8.1367	0
937	-97.6404	30.91946	127.74619	33.36047	-113.10013	78.92599	159.47932	173.31171	161.10666	130.1872	40.6835	5.69569	0
938	-95.19939	28.47845	122.86417	33.36047	-108.21811	74.04397	159.47932	180.63474	165.98868	130.1872	38.24249	3.25468	0
939	-95.19939	26.03744	120.42316	33.36047	-108.21811	71.60296	159.47932	190.39878	173.31171	132.62821	33.36047	0.81367	0
940	-87.87636	28.47845	115.54114	28.47845	-100.89508	71.60296	157.03831	197.72181	178.19373	135.06922	33.36047	-1.62734	0
941	-82.99434	33.36047	115.54114	23.59643	-98.45407	74.04397	157.03831	207.48585	187.95777	144.83326	40.6835	-1.62734	0
942	-82.99434	40.6835	122.86417	21.15542	-103.33609	81.367	159.47932	219.6909	197.72181	154.5973	50.44754	5.69569	0
943	-90.31737	45.56552	135.06922	21.15542	-113.10013	88.69003	164.36134	231.89595	212.36787	169.24336	62.65259	15.45973	0
944	-92.75838	48.00653	139.95124	21.15542	-115.54114	93.57205	171.68437	244.101	227.01393	179.0074	69.97562	20.34175	0
945	-102.52242	48.00653	149.71528	26.03744	-125.30518	98.45407	181.44841	253.86504	239.21898	186.33043	74.85764	27.66478	0
946	-109.84545	48.00653	157.03831	30.91946	-132.62821	100.89508	188.77144	268.5111	251.42403	191.21245	77.29865	32.5468	0
947	-122.0505	45.56552	166.80235	38.24249	-144.83326	105.7771	196.09447	283.15716	263.62908	198.53548	82.18067	32.5468	0
948	-124.49151	43.12451	166.80235	40.6835	-144.83326	103.33609	196.09447	295.36221	273.39312	200.97649	79.73966	32.5468	0
949	-117.16848	43.12451	159.47932	35.80148	-137.51023	100.89508	196.09447	310.00827	280.71615	205.85851	79.73966	32.5468	0
950	-114.72747	43.12451	157.03831	35.80148	-135.06922	98.45407	198.53548	319.77231	288.03918	210.74053	82.18067	32.5468	0
951	-109.84545	43.12451	152.15629	33.36047	-130.1872	96.01306	196.09447	329.53635	295.36221	215.62255	84.62168	30.10579	0
952	-100.08141	45.56552	144.83326	26.03744	-122.86417	93.57205	196.09447	339.30039	297.80322	222.94558	89.5037	30.10579	0
953	-95.19939	45.56552	139.95124	23.59643	-117.98215	91.13104	196.09447	344.18241	305.12625	227.8276	94.38572	32.5468	0
954	-87.87636	45.56552	132.62821	21.15542	-110.65912	88.69003	198.53548	353.94645	310.00827	232.70962	96.82673	34.98781	0
955	-87.87636	40.6835	127.74619	23.59643	-108.21811	83.80801	200.97649	356.38746	314.89029	232.70962	96.82673	34.98781	0
956	-90.31737	35.80148	125.30518	26.03744	-108.21811	78.92599	203.4175	361.26948	319.77231	232.70962	94.38572	32.5468	0
957	-85.43535	38.24249	122.86417	23.59643	-103.33609	78.92599	208.29952	371.03352	329.53635	235.15063	94.38572	34.98781	0
958	-68.34828	43.12451	110.65912	11.39138	-88.69003	76.48498	210.74053	378.35655	334.41837	235.15063	91.94471	34.98781	0
959	-58.58424	45.56552	103.33609	5.69569	-81.367	74.04397	208.29952	388.12059	341.7414	235.15063	87.06269	32.5468	0
960	-61.02525	43.12451	103.33609	8.95037	-81.367	71.60296	205.85851	395.44362	346.62342	237.59164	87.06269	30.10579	0
961	-70.78929	43.12451	113.10013	13.83239	-91.13104	76.48498	205.85851	400.32564	351.50544	244.91467	91.94471	30.10579	0
962	-70.78929	43.12451	113.10013	13.83239	-91.13104	76.48498	203.4175	405.20766	353.94645	249.79669	96.82673	30.10579	0
963	-70.78929	43.12451	113.10013	13.83239	-91.13104	76.48498	203.4175	407.64867	356.38746	254.67871	99.26774	32.5468	0
964	-73.2303	40.6835	113.10013	16.2734	-93.57205	76.48498	203.4175	410.08968	361.26948	257.11972	104.14976	37.42882	0
965	-90.31737	33.36047	122.86417	28.47845	-105.7771	76.48498	208.29952	412.53069	366.1515	257.11972	106.59077	39.86983	0
966	-95.19939	33.36047	127.74619	30.91946	-110.65912	78.92599	213.18154	417.41271	368.59251	259.56073	106.59077	44.75185	0
967	-87.87636	43.12451	130.1872	21.15542	-108.21811	86.24902	218.06356	424.73574	375.91554	259.56073	111.47279	52.07488	0
968	-85.43535	48.00653	132.62821	18.71441	-108.21811	88.69003	222.94558	434.49978	380.79756	259.56073	113.9138	59.39791	0
969	-87.87636	48.00653	135.06922	18.71441	-110.65912	91.13104	222.94558	441.82281	383.23857	259.56073	113.9138	61.83892	0
970	-90.31737	48.00653	137.51023	21.15542	-113.10013	91.13104	222.94558	444.26382	383.23857	259.56073	113.9138	61.83892	0
971	-85.43535	50.44754	135.06922	16.2734	-110.65912	91.13104	222.94558	446.70483	380.79756	264.44275	116.35481	64.27993	0
972	-80.55333	52.88855	132.62821	13.83239	-105.7771	91.13104	218.06356	441.82281	380.79756	269.32477	121.23683	64.27993	0
973	-78.11232	50.44754	127.74619	13.83239	-103.33609	88.69003	215.62255	434.49978	378.35655	269.32477	121.23683	66.72094	0
974	-73.2303	50.44754	122.86417	11.39138	-98.45407	86.24902	213.18154	427.17675	375.91554	271.76578	121.23683	66.72094	0
975	-70.78929	50.44754	120.42316	8.95037	-96.01306	83.80801	215.62255	417.41271	371.03352	269.32477	121.23683	66.72094	0
976	-70.78929	52.88855	122.86417	8.95037	-96.01306	86.24902	215.62255	410.08968	363.71049	266.88376	123.67784	71.60296	0
977	-80.55333	55.32956	135.06922	11.39138	-108.21811	93.57205	218.06356	405.20766	361.26948	262.00174	126.11885	76.48498	0
978	-82.99434	57.77057	139.95124	11.39138	-110.65912	98.45407	215.62255	397.88463	351.50544	254.67871	123.67784	78.92599	0
979	-87.87636	60.21158	147.27427	13.83239	-117.98215	103.33609	210.74053	395.44362	344.18241	247.35568	121.23683	78.92599	0
980	-92.75838	62.65259	154.5973	13.83239	-122.86417	108.21811	205.85851	388.12059	339.30039	242.47366	121.23683	76.48498	0
981	-97.6404	67.53461	164.36134	13.83239	-130.1872	115.54114	198.53548	375.91554	329.53635	240.03265	118.79582	76.48498	0
982	-102.52242	69.97562	171.68437	16.2734	-137.51023	120.42316	188.77144	361.26948	322.21332	237.59164	121.23683	74.04397	0
983	-104.96343	69.97562	174.12538	16.2734	-139.95124	120.42316	176.56639	341.7414	312.44928	235.15063	121.23683	74.04397	0
984	-104.96343	67.53461	171.68437	18.71441	-137.51023	117.98215	169.24336	327.09534	302.68524	232.70962	121.23683	74.04397	0
985	-107.40444	72.41663	179.0074	16.2734	-142.39225	125.30518	166.80235	307.56726	292.9212	232.70962	123.67784	78.92599	0
986	-107.40444	72.41663	179.0074	16.2734	-142.39225	125.30518	161.92033	285.59817	280.71615	225.38659	123.67784	81.367	0
987	-112.28646	72.41663	183.88942	18.71441	-147.27427	127.74619	159.47932	266.07009	270.95211	220.50457	128.55986	88.69003	0
988	-112.28646	72.41663	183.88942	18.71441	-147.27427	127.74619	154.5973	251.42403	258.74706	210.74053	128.55986	93.57205	0
989	-112.28646	74.85764	186.33043	18.71441	-149.71528	130.1872	149.71528	241.65999	246.54201	200.97649	128.55986	98.45407	0
990	-112.28646	77.29865	188.77144	16.2734	-149.71528	132.62821	144.83326	229.45494	236.77797	196.09447	128.55986	98.45407	0
991	-114.72747	74.85764	188.77144	18.71441	-152.15629	130.1872	137.51023	217.24989	224.57292	188.77144	126.11885	98.45407	0
992	-117.16848	72.41663	188.77144	21.15542	-152.15629	130.1872	130.1872	202.60383	212.36787	183.88942	126.11885	96.01306	0
993	-114.72747	69.97562	183.88942	21.15542	-149.71528	125.30518	120.42316	190.39878	202.60383	179.0074	123.67784	96.01306	0
994	-119.60949	65.0936	183.88942	26.03744	-152.15629	122.86417	115.54114	178.19373	192.83979	176.56639	123.67784	96.01306	0
995	-131.81454	60.21158	191.21245	35.80148	-161.92033	125.30518	115.54114	165.98868	187.95777	171.68437	121.23683	96.01306	0
996	-141.57858	57.77057	198.53548	40.6835	-169.24336	127.74619	115.54114	148.90161	178.19373	166.80235	121.23683	100.89508	0
997	-146.4606	57.77057	203.4175	43.12451	-174.12538	130.1872	115.54114	134.25555	168.42969	157.03831	121.23683	103.33609	0
998	-156.22464	60.21158	215.62255	48.00653	-186.33043	137.51023	115.54114	124.49151	161.10666	149.71528	121.23683	108.21811	0
999	-170.8707	60.21158	230.26861	55.32956	-200.97649	144.83326	113.10013	117.16848	148.90161	137.51023	116.35481	108.21811	0
1000	-183.07575	60.21158	242.47366	60.21158	-213.18154	149.71528	108.21811	109.84545	139.13757	127.74619	111.47279	103.33609	0
1001	-183.07575	60.21158	242.47366	60.21158	-213.18154	149.71528	105.7771	107.40444	131.81454	125.30518	109.03178	100.89508	0
1002	-180.63474	62.65259	242.47366	57.77057	-210.74053	152.15629	96.01306	100.08141	122.0505	120.42316	106.59077	96.01306	0
1003	-178.19373	62.65259	240.03265	57.77057	-208.29952	149.71528	86.24902	95.19939	114.72747	117.98215	104.14976	91.13104	0
1004	-180.63474	60.21158	240.03265	60.21158	-210.74053	149.71528	78.92599	90.31737	104.96343	115.54114	96.82673	86.24902	0
1005	-183.07575	55.32956	237.59164	62.65259	-210.74053	144.83326	74.04397	80.55333	92.75838	108.21811	91.94471	81.367	0
1006	-183.07575	55.32956	237.59164	62.65259	-210.74053	144.83326	71.60296	68.34828	85.43535	100.89508	84.62168	76.48498	0
1007	-180.63474	57.77057	237.59164	60.21158	-208.29952	147.27427	74.04397	61.02525	80.55333	96.01306	84.62168	76.48498	0
