samplenr	I	II	III	aVR	aVL	aVF	V1	V2	V3	V4	V5	V6	measurement
0	-20.34175	-96.01306	-75.67131	57.77057	27.66478	-86.24902	26.85111	14.64606	63.46626	23.59643	195.2808	1052.07531	0
1	-27.66478	-103.33609	-75.67131	65.0936	22.78276	-91.13104	26.85111	12.20505	63.46626	23.59643	192.83979	1047.19329	0
2	-25.22377	-105.7771	-80.55333	65.0936	27.66478	-93.57205	29.29212	17.08707	68.34828	30.91946	197.72181	1039.87026	0
3	-25.22377	-110.65912	-85.43535	67.53461	30.10579	-98.45407	29.29212	21.96909	73.2303	35.80148	202.60383	1037.42925	0
4	-32.5468	-113.10013	-80.55333	72.41663	22.78276	-98.45407	26.85111	19.52808	73.2303	35.80148	200.16282	1025.2242	0
5	-34.98781	-117.98215	-82.99434	74.85764	22.78276	-100.89508	19.52808	9.76404	70.78929	35.80148	200.16282	1013.01915	0
6	-32.5468	-125.30518	-92.75838	77.29865	30.10579	-110.65912	14.64606	4.88202	68.34828	40.6835	207.48585	1005.69612	0
7	-32.5468	-125.30518	-92.75838	77.29865	30.10579	-110.65912	8.95037	2.44101	63.46626	38.24249	212.36787	995.93208	0
8	-32.5468	-122.86417	-90.31737	77.29865	27.66478	-108.21811	4.06835	2.44101	58.58424	30.91946	209.92686	988.60905	0
9	-32.5468	-117.98215	-85.43535	74.85764	25.22377	-103.33609	1.62734	4.88202	53.70222	18.71441	205.04484	976.404	0
10	-30.10579	-110.65912	-80.55333	69.97562	25.22377	-96.01306	-0.81367	7.32303	56.14323	16.2734	200.16282	966.63996	0
11	-20.34175	-98.45407	-78.11232	57.77057	27.66478	-88.69003	-0.81367	9.76404	58.58424	23.59643	207.48585	959.31693	0
12	-15.45973	-78.92599	-63.46626	45.56552	22.78276	-71.60296	-5.69569	9.76404	58.58424	23.59643	207.48585	947.11188	0
13	-10.57771	-69.16195	-58.58424	38.24249	22.78276	-64.27993	-5.69569	12.20505	58.58424	23.59643	207.48585	937.34784	0
14	-3.25468	-59.39791	-56.14323	30.91946	25.22377	-59.39791	-5.69569	12.20505	58.58424	21.15542	202.60383	927.5838	0
15	-0.81367	-59.39791	-58.58424	28.47845	27.66478	-59.39791	-8.1367	4.88202	56.14323	18.71441	200.16282	912.93774	0
16	2.44101	-59.39791	-61.02525	28.47845	30.10579	-59.39791	-10.57771	-2.44101	48.8202	16.2734	197.72181	898.29168	0
17	-0.81367	-64.27993	-63.46626	30.91946	30.10579	-64.27993	-13.01872	-9.76404	36.61515	8.95037	195.2808	886.08663	0
18	-8.1367	-69.16195	-61.02525	38.24249	25.22377	-66.72094	-10.57771	-4.88202	29.29212	-0.81367	190.39878	873.88158	0
19	-3.25468	-64.27993	-61.02525	33.36047	27.66478	-64.27993	-13.01872	-4.88202	24.4101	-10.57771	183.07575	861.67653	0
20	-0.81367	-61.83892	-61.02525	30.91946	30.10579	-61.83892	-15.45973	-2.44101	24.4101	-15.45973	173.31171	847.03047	0
21	-3.25468	-64.27993	-61.02525	33.36047	27.66478	-64.27993	-15.45973	0	24.4101	-10.57771	173.31171	834.82542	0
22	-8.1367	-71.60296	-63.46626	38.24249	27.66478	-69.16195	-17.90074	7.32303	26.85111	-3.25468	175.75272	822.62037	0
23	-10.57771	-74.04397	-63.46626	40.6835	25.22377	-69.16195	-20.34175	12.20505	29.29212	-0.81367	175.75272	812.85633	0
24	-5.69569	-74.04397	-68.34828	38.24249	30.10579	-71.60296	-25.22377	12.20505	31.73313	4.06835	180.63474	800.65128	0
25	-3.25468	-81.367	-78.11232	40.6835	37.42882	-81.367	-25.22377	7.32303	29.29212	8.95037	187.95777	788.44623	0
26	-3.25468	-93.57205	-90.31737	48.00653	42.31084	-93.57205	-25.22377	0	26.85111	18.71441	202.60383	778.68219	0
27	-3.25468	-96.01306	-92.75838	48.00653	44.75185	-96.01306	-30.10579	-4.88202	17.08707	18.71441	209.92686	766.47714	0
28	-5.69569	-91.13104	-85.43535	48.00653	39.86983	-88.69003	-34.98781	-9.76404	6.50936	6.50936	207.48585	749.39007	0
29	-10.57771	-81.367	-70.78929	45.56552	30.10579	-76.48498	-37.42882	-12.20505	-0.81367	-5.69569	197.72181	732.303	0
30	-13.01872	-76.48498	-63.46626	43.12451	25.22377	-71.60296	-34.98781	-12.20505	-3.25468	-15.45973	185.51676	712.77492	0
31	-13.01872	-69.16195	-56.14323	40.6835	20.34175	-64.27993	-30.10579	-12.20505	-3.25468	-20.34175	173.31171	690.80583	0
32	-8.1367	-54.51589	-46.37919	30.91946	17.90074	-52.07488	-27.66478	-2.44101	-0.81367	-22.78276	165.98868	668.83674	0
33	-8.1367	-39.86983	-31.73313	23.59643	10.57771	-37.42882	-27.66478	0	-0.81367	-25.22377	153.78363	644.42664	0
34	-8.1367	-27.66478	-19.52808	16.2734	5.69569	-25.22377	-25.22377	0	-0.81367	-27.66478	148.90161	622.45755	0
35	-3.25468	-20.34175	-17.08707	11.39138	5.69569	-20.34175	-22.78276	0	1.62734	-20.34175	153.78363	602.92947	0
36	2.44101	-20.34175	-21.96909	8.95037	10.57771	-20.34175	-20.34175	-2.44101	1.62734	-13.01872	165.98868	585.8424	0
37	2.44101	-25.22377	-26.85111	11.39138	13.01872	-25.22377	-22.78276	-2.44101	-3.25468	-5.69569	178.19373	573.63735	0
38	-0.81367	-27.66478	-26.85111	13.83239	13.01872	-27.66478	-22.78276	0	-5.69569	-3.25468	183.07575	556.55028	0
39	-3.25468	-27.66478	-24.4101	13.83239	10.57771	-27.66478	-20.34175	4.88202	-10.57771	-13.01872	175.75272	541.90422	0
40	-3.25468	-34.98781	-31.73313	18.71441	13.01872	-34.98781	-13.01872	9.76404	-8.1367	-17.90074	163.54767	529.69917	0
41	-8.1367	-44.75185	-36.61515	26.03744	13.01872	-42.31084	-3.25468	21.96909	-0.81367	-15.45973	158.66565	517.49412	0
42	-10.57771	-47.19286	-36.61515	28.47845	13.01872	-42.31084	-0.81367	36.61515	8.95037	-10.57771	151.34262	497.96604	0
43	-5.69569	-39.86983	-34.17414	21.15542	13.01872	-37.42882	4.06835	64.27993	29.29212	-0.81367	146.4606	485.76099	0
44	-5.69569	-44.75185	-39.05616	23.59643	15.45973	-42.31084	12.20505	103.33609	61.02525	8.95037	144.01959	471.11493	0
45	-0.81367	-49.63387	-48.8202	23.59643	22.78276	-49.63387	19.52808	157.03831	107.40444	38.24249	153.78363	456.46887	0
46	12.20505	-49.63387	-61.02525	18.71441	34.98781	-54.51589	31.73313	220.50457	165.98868	87.06269	178.19373	446.70483	0
47	34.17414	-49.63387	-82.99434	6.50936	56.9569	-66.72094	41.49717	296.17588	227.01393	138.3239	209.92686	441.82281	0
48	56.14323	-52.07488	-107.40444	-1.62734	81.367	-78.92599	46.37919	364.52416	290.48019	201.79016	248.98302	446.70483	0
49	73.2303	-56.9569	-129.37353	-8.95037	100.89508	-93.57205	46.37919	401.13931	346.62342	275.02046	302.68524	463.7919	0
50	95.19939	-54.51589	-148.90161	-21.15542	120.42316	-100.89508	36.61515	415.78537	400.32564	370.21985	375.91554	485.76099	0
51	122.0505	-39.86983	-161.10666	-40.6835	139.95124	-100.89508	29.29212	423.1084	458.90988	499.59338	485.76099	529.69917	0
52	158.66565	-15.45973	-173.31171	-72.41663	164.36134	-93.57205	19.52808	427.99042	527.25816	660.70004	629.78058	595.60644	0
53	192.83979	12.20505	-180.63474	-101.70875	186.33043	-83.80801	4.06835	427.99042	607.81149	853.53983	810.41532	683.4828	0
54	227.01393	46.37919	-180.63474	-135.88289	203.4175	-66.72094	-20.34175	410.90335	681.04179	1061.02568	1013.01915	783.56421	0
55	263.62908	90.31737	-173.31171	-177.38006	218.06356	-42.31084	-39.86983	391.37527	742.06704	1266.07052	1222.94601	881.20461	0
56	290.48019	134.25555	-156.22464	-211.5542	222.94558	-10.57771	-56.9569	357.20113	783.56421	1456.4693	1432.87287	986.16804	0
57	310.00827	180.63474	-129.37353	-245.72834	220.50457	26.85111	-81.367	291.29386	773.80017	1583.40182	1601.30256	1078.92642	0
58	312.44928	214.80888	-97.6404	-262.81541	205.85851	58.58424	-132.62821	161.92033	673.71876	1580.96081	1661.51414	1127.74662	0
59	297.80322	234.33696	-63.46626	-265.25642	181.44841	85.43535	-205.85851	-29.29212	478.43796	1427.17718	1596.42054	1122.8646	0
60	268.5111	244.101	-24.4101	-255.49238	147.27427	109.84545	-283.97083	-261.18807	214.80888	1144.02002	1413.34479	1066.72137	0
61	229.45494	241.65999	13.01872	-235.9643	108.21811	126.93252	-364.52416	-497.96604	-74.04397	797.3966	1164.36177	981.28602	0
62	180.63474	224.57292	44.75185	-201.79016	69.16195	134.25555	-442.63648	-705.45189	-354.76012	431.2451	878.7636	868.99956	0
63	126.93252	207.48585	81.367	-167.61602	22.78276	144.01959	-506.10274	-876.32259	-603.74314	65.0936	578.51937	746.94906	0
64	75.67131	197.72181	122.86417	-135.88289	-24.4101	161.10666	-547.59991	-995.93208	-791.70091	-235.9643	319.77231	629.78058	0
65	34.17414	200.16282	166.80235	-116.35481	-65.90727	183.07575	-562.24597	-1047.19329	-896.66434	-428.80409	146.4606	541.90422	0
66	2.44101	202.60383	200.97649	-101.70875	-100.08141	202.60383	-562.24597	-1047.19329	-933.27949	-524.00348	51.26121	485.76099	0
67	-17.90074	212.36787	230.26861	-96.82673	-124.49151	219.6909	-542.71789	-998.37309	-916.19242	-550.85459	12.20505	451.58685	0
68	-32.5468	222.13191	254.67871	-94.38572	-144.01959	236.77797	-515.86678	-930.02481	-879.57727	-555.73661	-9.76404	427.17675	0
69	-27.66478	241.65999	269.32477	-106.59077	-148.90161	253.86504	-489.01567	-861.67653	-838.0801	-558.17762	-24.4101	407.64867	0
70	-17.90074	246.54201	264.44275	-113.9138	-141.57858	253.86504	-459.72355	-790.88724	-786.81889	-548.41358	-39.05616	388.12059	0
71	-17.90074	236.77797	254.67871	-109.03178	-136.69656	244.101	-435.31345	-727.42098	-745.32172	-548.41358	-64.27993	356.38746	0
72	-20.34175	219.6909	240.03265	-99.26774	-129.37353	229.45494	-403.58032	-663.95472	-703.82455	-541.09055	-86.24902	314.89029	0
73	-25.22377	192.83979	218.06356	-84.62168	-122.0505	205.04484	-364.52416	-600.48846	-657.44536	-528.8855	-108.21811	270.95211	0
74	-25.22377	170.8707	196.09447	-72.41663	-109.84545	183.07575	-327.90901	-544.34523	-608.62516	-514.23944	-125.30518	224.57292	0
75	-32.5468	144.01959	176.56639	-55.32956	-104.96343	158.66565	-283.97083	-488.202	-557.36395	-484.94732	-127.74619	180.63474	0
76	-49.63387	112.28646	161.92033	-30.91946	-104.96343	136.69656	-249.79669	-441.82281	-515.86678	-455.6552	-125.30518	139.13757	0
77	-56.9569	87.87636	144.83326	-16.2734	-100.08141	114.72747	-215.62255	-395.44362	-476.81062	-428.80409	-120.42316	100.08141	0
78	-59.39791	68.34828	127.74619	-4.06835	-92.75838	97.6404	-179.0074	-339.30039	-432.87244	-399.51197	-105.7771	78.11232	0
79	-59.39791	65.90727	125.30518	-4.06835	-92.75838	95.19939	-147.27427	-295.36221	-391.37527	-367.77884	-88.69003	61.02525	0
80	-61.83892	70.78929	132.62821	-4.06835	-97.6404	100.08141	-122.86417	-253.86504	-347.43709	-333.6047	-69.16195	46.37919	0
81	-61.83892	70.78929	132.62821	-4.06835	-97.6404	100.08141	-105.7771	-224.57292	-318.14497	-314.07662	-61.02525	31.73313	0
82	-56.9569	63.46626	120.42316	-4.06835	-87.87636	90.31737	-91.13104	-192.83979	-293.73487	-301.87157	-61.02525	19.52808	0
83	-56.9569	58.58424	115.54114	-1.62734	-85.43535	85.43535	-71.60296	-165.98868	-266.88376	-289.66652	-58.58424	12.20505	0
84	-59.39791	56.14323	115.54114	0.81367	-87.87636	85.43535	-59.39791	-148.90161	-244.91467	-277.46147	-56.14323	0	0
85	-61.83892	36.61515	98.45407	11.39138	-80.55333	65.90727	-49.63387	-146.4606	-235.15063	-275.02046	-61.02525	-12.20505	0
86	-66.72094	24.4101	91.13104	21.15542	-78.11232	56.14323	-42.31084	-146.4606	-232.70962	-272.57945	-64.27993	-22.78276	0
87	-76.48498	14.64606	91.13104	30.91946	-82.99434	51.26121	-37.42882	-146.4606	-230.26861	-270.13844	-64.27993	-30.10579	0
88	-78.92599	9.76404	88.69003	33.36047	-82.99434	48.8202	-34.98781	-139.13757	-222.94558	-265.25642	-61.02525	-32.5468	0
89	-81.367	2.44101	83.80801	38.24249	-82.99434	41.49717	-32.5468	-131.81454	-218.06356	-265.25642	-64.27993	-39.86983	0
90	-81.367	-3.25468	78.92599	40.6835	-80.55333	36.61515	-30.10579	-129.37353	-213.18154	-267.69743	-71.60296	-47.19286	0
91	-78.92599	2.44101	81.367	38.24249	-80.55333	41.49717	-32.5468	-131.81454	-208.29952	-257.93339	-66.72094	-52.07488	0
92	-74.04397	14.64606	88.69003	28.47845	-80.55333	51.26121	-34.98781	-126.93252	-198.53548	-240.84632	-48.8202	-49.63387	0
93	-66.72094	26.85111	93.57205	18.71441	-80.55333	58.58424	-34.98781	-119.60949	-188.77144	-231.08228	-36.61515	-47.19286	0
94	-66.72094	39.05616	105.7771	13.83239	-85.43535	70.78929	-34.98781	-122.0505	-186.33043	-235.9643	-39.05616	-49.63387	0
95	-71.60296	48.8202	120.42316	11.39138	-95.19939	82.99434	-37.42882	-129.37353	-186.33043	-238.40531	-46.37919	-56.9569	0
96	-74.04397	51.26121	125.30518	11.39138	-100.08141	87.87636	-34.98781	-134.25555	-188.77144	-233.52329	-43.93818	-56.9569	0
97	-76.48498	53.70222	130.1872	11.39138	-102.52242	90.31737	-30.10579	-136.69656	-188.77144	-235.9643	-48.8202	-64.27993	0
98	-78.92599	46.37919	125.30518	16.2734	-102.52242	85.43535	-25.22377	-134.25555	-193.65346	-248.16935	-61.02525	-71.60296	0
99	-81.367	41.49717	122.86417	18.71441	-102.52242	80.55333	-17.90074	-136.69656	-198.53548	-262.81541	-74.04397	-83.80801	0
100	-86.24902	29.29212	115.54114	28.47845	-100.08141	70.78929	-13.01872	-136.69656	-193.65346	-257.93339	-74.04397	-93.57205	0
101	-86.24902	12.20505	98.45407	35.80148	-92.75838	53.70222	-8.1367	-129.37353	-186.33043	-245.72834	-64.27993	-98.45407	0
102	-81.367	14.64606	96.01306	33.36047	-87.87636	53.70222	-8.1367	-129.37353	-186.33043	-248.16935	-61.02525	-108.21811	0
103	-74.04397	17.08707	91.13104	28.47845	-82.99434	53.70222	-10.57771	-124.49151	-181.44841	-243.28733	-56.14323	-108.21811	0
104	-69.16195	9.76404	78.92599	28.47845	-73.2303	43.93818	-13.01872	-122.0505	-171.68437	-231.08228	-41.49717	-108.21811	0
105	-71.60296	2.44101	74.04397	33.36047	-73.2303	36.61515	-17.90074	-117.16848	-164.36134	-221.31824	-36.61515	-108.21811	0
106	-71.60296	0	71.60296	35.80148	-70.78929	34.17414	-25.22377	-122.0505	-171.68437	-226.20026	-41.49717	-113.10013	0
107	-71.60296	9.76404	81.367	30.91946	-75.67131	43.93818	-30.10579	-126.93252	-174.12538	-228.64127	-43.93818	-120.42316	0
108	-64.27993	17.08707	81.367	23.59643	-73.2303	48.8202	-34.98781	-126.93252	-171.68437	-228.64127	-39.05616	-122.86417	0
109	-64.27993	14.64606	78.92599	23.59643	-70.78929	46.37919	-37.42882	-126.93252	-171.68437	-228.64127	-34.17414	-130.1872	0
110	-66.72094	17.08707	83.80801	23.59643	-75.67131	48.8202	-39.86983	-126.93252	-174.12538	-228.64127	-31.73313	-139.95124	0
111	-69.16195	31.73313	100.89508	18.71441	-85.43535	65.90727	-42.31084	-124.49151	-174.12538	-235.9643	-31.73313	-149.71528	0
112	-66.72094	46.37919	113.10013	8.95037	-90.31737	78.11232	-42.31084	-117.16848	-166.80235	-231.08228	-21.96909	-152.15629	0
113	-59.39791	53.70222	113.10013	0.81367	-85.43535	82.99434	-47.19286	-112.28646	-157.03831	-223.75925	-17.08707	-157.03831	0
114	-56.9569	51.26121	108.21811	0.81367	-82.99434	78.11232	-54.51589	-109.84545	-154.5973	-221.31824	-14.64606	-161.92033	0
115	-59.39791	51.26121	110.65912	4.06835	-85.43535	80.55333	-56.9569	-104.96343	-147.27427	-209.11319	-9.76404	-169.24336	0
116	-59.39791	43.93818	103.33609	6.50936	-80.55333	73.2303	-59.39791	-100.08141	-144.83326	-206.67218	-7.32303	-174.12538	0
117	-56.9569	41.49717	98.45407	6.50936	-78.11232	68.34828	-59.39791	-97.6404	-142.39225	-209.11319	-7.32303	-181.44841	0
118	-54.51589	41.49717	96.01306	6.50936	-75.67131	68.34828	-59.39791	-92.75838	-139.95124	-204.23117	-2.44101	-188.77144	0
119	-61.83892	29.29212	91.13104	16.2734	-75.67131	58.58424	-54.51589	-87.87636	-139.95124	-206.67218	-2.44101	-200.97649	0
120	-61.83892	29.29212	91.13104	16.2734	-75.67131	58.58424	-44.75185	-75.67131	-135.06922	-209.11319	-9.76404	-213.18154	0
121	-64.27993	36.61515	100.89508	13.83239	-82.99434	68.34828	-32.5468	-63.46626	-125.30518	-209.11319	-9.76404	-225.38659	0
122	-61.83892	46.37919	108.21811	6.50936	-85.43535	75.67131	-30.10579	-51.26121	-110.65912	-206.67218	-9.76404	-235.15063	0
123	-64.27993	48.8202	113.10013	6.50936	-87.87636	80.55333	-30.10579	-39.05616	-96.01306	-204.23117	-14.64606	-242.47366	0
124	-61.83892	43.93818	105.7771	8.95037	-82.99434	73.2303	-25.22377	-24.4101	-83.80801	-209.11319	-24.4101	-249.79669	0
125	-52.07488	39.05616	91.13104	6.50936	-70.78929	63.46626	-15.45973	-9.76404	-69.16195	-199.34915	-24.4101	-254.67871	0
126	-42.31084	41.49717	83.80801	0.81367	-63.46626	61.02525	-15.45973	2.44101	-54.51589	-177.38006	-7.32303	-257.11972	0
127	-34.98781	46.37919	81.367	-6.50936	-58.58424	63.46626	-10.57771	17.08707	-39.86983	-155.41097	12.20505	-257.11972	0
128	-30.10579	46.37919	76.48498	-8.95037	-53.70222	61.02525	-5.69569	34.17414	-25.22377	-138.3239	29.29212	-257.11972	0
129	-27.66478	51.26121	78.92599	-11.39138	-53.70222	63.46626	4.06835	52.07488	-10.57771	-121.23683	51.26121	-257.11972	0
130	-22.78276	53.70222	76.48498	-16.2734	-48.8202	63.46626	8.95037	74.04397	6.50936	-101.70875	68.34828	-264.44275	0
131	-27.66478	53.70222	81.367	-13.83239	-53.70222	65.90727	14.64606	91.13104	17.08707	-91.94471	73.2303	-279.08881	0
132	-34.98781	53.70222	88.69003	-8.95037	-61.02525	70.78929	17.08707	113.10013	31.73313	-91.94471	68.34828	-288.85285	0
133	-44.75185	41.49717	86.24902	0.81367	-65.90727	63.46626	19.52808	130.1872	48.8202	-91.94471	61.02525	-298.61689	0
134	-52.07488	29.29212	81.367	11.39138	-65.90727	53.70222	24.4101	147.27427	65.90727	-89.5037	53.70222	-305.93992	0
135	-52.07488	26.85111	78.92599	11.39138	-65.90727	51.26121	31.73313	164.36134	80.55333	-82.18067	43.93818	-315.70396	0
136	-49.63387	26.85111	76.48498	11.39138	-63.46626	51.26121	39.05616	183.88942	92.75838	-84.62168	31.73313	-325.468	0
137	-44.75185	31.73313	76.48498	6.50936	-61.02525	53.70222	43.93818	203.4175	104.96343	-84.62168	21.96909	-330.35002	0
138	-34.98781	29.29212	64.27993	0.81367	-48.8202	46.37919	48.8202	225.38659	124.49151	-74.85764	24.4101	-335.23204	0
139	-32.5468	12.20505	44.75185	8.95037	-39.05616	26.85111	58.58424	244.91467	139.13757	-67.53461	21.96909	-344.99608	0
140	-25.22377	-3.25468	22.78276	13.83239	-24.4101	9.76404	68.34828	269.32477	156.22464	-57.77057	24.4101	-352.31911	0
141	-22.78276	-15.45973	8.1367	18.71441	-17.08707	-5.69569	70.78929	286.41184	168.42969	-44.75185	34.17414	-364.52416	0
142	-17.90074	-22.78276	-4.88202	18.71441	-7.32303	-15.45973	75.67131	301.0579	187.95777	-27.66478	46.37919	-366.96517	0
143	-13.01872	-25.22377	-12.20505	18.71441	-2.44101	-20.34175	80.55333	313.26295	202.60383	-20.34175	48.8202	-374.2882	0
144	-15.45973	-32.5468	-17.08707	23.59643	0	-25.22377	90.31737	325.468	214.80888	-17.90074	48.8202	-376.72921	0
145	-3.25468	-27.66478	-24.4101	13.83239	10.57771	-27.66478	95.19939	337.67305	224.57292	-13.01872	48.8202	-381.61123	0
146	-0.81367	-34.98781	-34.17414	16.2734	15.45973	-34.98781	102.52242	352.31911	239.21898	-0.81367	56.14323	-384.05224	0
147	-3.25468	-52.07488	-48.8202	26.03744	22.78276	-52.07488	109.84545	371.84719	251.42403	6.50936	63.46626	-384.05224	0
148	-0.81367	-71.60296	-70.78929	35.80148	34.98781	-71.60296	112.28646	384.05224	261.18807	13.83239	70.78929	-388.93426	0
149	-0.81367	-83.80801	-82.99434	40.6835	39.86983	-83.80801	109.84545	396.25729	270.95211	30.91946	85.43535	-388.93426	0
150	-0.81367	-96.01306	-95.19939	48.00653	47.19286	-96.01306	107.40444	406.02133	275.83413	43.12451	95.19939	-398.6983	0
151	-0.81367	-96.01306	-95.19939	48.00653	47.19286	-96.01306	104.96343	413.34436	280.71615	48.00653	104.96343	-408.46234	0
152	2.44101	-91.13104	-92.75838	43.12451	47.19286	-91.13104	107.40444	423.1084	288.03918	45.56552	100.08141	-420.66739	0
153	14.64606	-78.92599	-92.75838	30.91946	52.07488	-86.24902	100.08141	423.1084	288.03918	35.80148	80.55333	-435.31345	0
154	17.08707	-78.92599	-95.19939	30.91946	54.51589	-86.24902	97.6404	423.1084	290.48019	21.15542	56.14323	-445.07749	0
155	14.64606	-100.89508	-114.72747	43.12451	64.27993	-108.21811	100.08141	423.1084	283.15716	4.06835	29.29212	-459.72355	0
156	19.52808	-120.42316	-139.13757	50.44754	78.92599	-130.1872	104.96343	425.54941	283.15716	4.06835	19.52808	-471.9286	0
157	26.85111	-137.51023	-163.54767	55.32956	93.57205	-149.71528	107.40444	430.43143	290.48019	8.95037	19.52808	-476.81062	0
158	26.85111	-157.03831	-183.07575	65.0936	103.33609	-169.24336	100.08141	430.43143	290.48019	13.83239	19.52808	-476.81062	0
159	26.85111	-171.68437	-197.72181	72.41663	110.65912	-183.88942	100.08141	430.43143	295.36221	26.03744	36.61515	-476.81062	0
160	26.85111	-174.12538	-200.16282	72.41663	113.10013	-186.33043	102.52242	427.99042	295.36221	35.80148	46.37919	-479.25163	0
161	36.61515	-159.47932	-195.2808	60.21158	115.54114	-176.56639	102.52242	427.99042	297.80322	38.24249	51.26121	-486.57466	0
162	46.37919	-144.83326	-190.39878	48.00653	117.98215	-166.80235	97.6404	427.99042	302.68524	38.24249	51.26121	-489.01567	0
163	39.05616	-144.83326	-183.07575	52.88855	110.65912	-164.36134	95.19939	420.66739	307.56726	38.24249	51.26121	-489.01567	0
164	39.05616	-147.27427	-185.51676	52.88855	110.65912	-166.80235	95.19939	408.46234	307.56726	45.56552	56.14323	-491.45668	0
165	46.37919	-139.95124	-185.51676	45.56552	115.54114	-161.92033	95.19939	396.25729	305.12625	52.88855	61.02525	-493.89769	0
166	48.8202	-137.51023	-185.51676	43.12451	115.54114	-161.92033	92.75838	384.05224	297.80322	50.44754	61.02525	-498.77971	0
167	48.8202	-139.95124	-187.95777	45.56552	117.98215	-164.36134	85.43535	369.40618	288.03918	48.00653	65.90727	-498.77971	0
168	36.61515	-149.71528	-185.51676	55.32956	110.65912	-166.80235	85.43535	357.20113	280.71615	48.00653	75.67131	-498.77971	0
169	24.4101	-159.47932	-183.07575	67.53461	103.33609	-171.68437	87.87636	342.55507	270.95211	48.00653	85.43535	-501.22072	0
170	17.08707	-161.92033	-178.19373	72.41663	96.01306	-169.24336	80.55333	332.79103	263.62908	48.00653	90.31737	-503.66173	0
171	19.52808	-157.03831	-175.75272	67.53461	96.01306	-166.80235	78.11232	325.468	258.74706	48.00653	97.6404	-508.54375	0
172	17.08707	-149.71528	-165.98868	65.0936	91.13104	-157.03831	82.99434	320.58598	258.74706	45.56552	100.08141	-508.54375	0
173	12.20505	-139.95124	-151.34262	62.65259	81.367	-144.83326	85.43535	313.26295	261.18807	45.56552	102.52242	-508.54375	0
174	14.64606	-130.1872	-144.01959	57.77057	78.92599	-137.51023	85.43535	308.38093	263.62908	50.44754	107.40444	-503.66173	0
175	19.52808	-122.86417	-141.57858	50.44754	78.92599	-132.62821	80.55333	298.61689	261.18807	55.32956	109.84545	-506.10274	0
176	24.4101	-110.65912	-134.25555	43.12451	78.92599	-122.86417	80.55333	286.41184	251.42403	48.00653	112.28646	-513.42577	0
177	26.85111	-110.65912	-136.69656	40.6835	81.367	-122.86417	85.43535	279.08881	244.101	38.24249	112.28646	-515.86678	0
178	19.52808	-120.42316	-139.13757	50.44754	78.92599	-130.1872	87.87636	271.76578	239.21898	33.36047	109.84545	-518.30779	0
179	12.20505	-125.30518	-136.69656	55.32956	74.04397	-130.1872	90.31737	259.56073	231.89595	30.91946	114.72747	-525.63082	0
180	12.20505	-127.74619	-139.13757	57.77057	74.04397	-132.62821	95.19939	252.2377	224.57292	30.91946	124.49151	-528.07183	0
181	9.76404	-122.86417	-131.81454	55.32956	69.16195	-127.74619	102.52242	247.35568	222.13191	30.91946	136.69656	-528.07183	0
182	9.76404	-120.42316	-129.37353	55.32956	69.16195	-125.30518	102.52242	242.47366	222.13191	28.47845	141.57858	-528.07183	0
183	9.76404	-122.86417	-131.81454	55.32956	69.16195	-127.74619	100.08141	232.70962	227.01393	33.36047	146.4606	-525.63082	0
184	12.20505	-108.21811	-119.60949	48.00653	64.27993	-113.10013	95.19939	225.38659	229.45494	43.12451	163.54767	-515.86678	0
185	9.76404	-98.45407	-107.40444	43.12451	56.9569	-103.33609	90.31737	218.06356	229.45494	60.21158	187.95777	-503.66173	0
186	12.20505	-83.80801	-95.19939	35.80148	52.07488	-88.69003	85.43535	210.74053	227.01393	67.53461	200.16282	-498.77971	0
187	12.20505	-76.48498	-87.87636	30.91946	49.63387	-81.367	85.43535	200.97649	219.6909	57.77057	197.72181	-498.77971	0
188	12.20505	-76.48498	-87.87636	30.91946	49.63387	-81.367	85.43535	193.65346	209.92686	38.24249	185.51676	-506.10274	0
189	12.20505	-78.92599	-90.31737	33.36047	49.63387	-83.80801	90.31737	191.21245	202.60383	28.47845	178.19373	-515.86678	0
190	4.88202	-91.13104	-95.19939	43.12451	49.63387	-93.57205	97.6404	188.77144	197.72181	21.15542	170.8707	-525.63082	0
191	2.44101	-105.7771	-107.40444	50.44754	54.51589	-105.7771	104.96343	186.33043	192.83979	11.39138	163.54767	-537.83587	0
192	2.44101	-115.54114	-117.16848	55.32956	59.39791	-115.54114	107.40444	186.33043	197.72181	8.95037	163.54767	-545.1589	0
193	2.44101	-115.54114	-117.16848	55.32956	59.39791	-115.54114	102.52242	186.33043	202.60383	8.95037	165.98868	-552.48193	0
194	-0.81367	-120.42316	-119.60949	60.21158	59.39791	-120.42316	102.52242	186.33043	209.92686	16.2734	173.31171	-552.48193	0
195	-0.81367	-120.42316	-119.60949	60.21158	59.39791	-120.42316	102.52242	186.33043	217.24989	35.80148	195.2808	-547.59991	0
196	-0.81367	-103.33609	-102.52242	50.44754	49.63387	-103.33609	100.08141	186.33043	224.57292	52.88855	219.6909	-540.27688	0
197	4.88202	-86.24902	-90.31737	40.6835	47.19286	-88.69003	97.6404	193.65346	229.45494	60.21158	231.89595	-537.83587	0
198	9.76404	-76.48498	-85.43535	33.36047	47.19286	-81.367	97.6404	196.09447	229.45494	50.44754	224.57292	-540.27688	0
199	14.64606	-71.60296	-85.43535	28.47845	49.63387	-78.92599	97.6404	193.65346	224.57292	40.6835	212.36787	-547.59991	0
200	12.20505	-69.16195	-80.55333	28.47845	44.75185	-74.04397	97.6404	193.65346	222.13191	38.24249	207.48585	-559.80496	0
201	9.76404	-54.51589	-63.46626	21.15542	34.98781	-59.39791	102.52242	196.09447	224.57292	40.6835	209.92686	-567.12799	0
202	2.44101	-52.07488	-53.70222	23.59643	27.66478	-52.07488	107.40444	198.53548	229.45494	40.6835	207.48585	-574.45102	0
203	-0.81367	-54.51589	-53.70222	26.03744	25.22377	-54.51589	104.96343	196.09447	239.21898	43.12451	205.04484	-579.33304	0
204	-8.1367	-56.9569	-48.8202	30.91946	20.34175	-54.51589	102.52242	191.21245	244.101	50.44754	212.36787	-584.21506	0
205	-10.57771	-61.83892	-51.26121	35.80148	20.34175	-56.9569	102.52242	191.21245	248.98302	57.77057	217.24989	-589.09708	0
206	-13.01872	-69.16195	-56.14323	40.6835	20.34175	-64.27993	104.96343	193.65346	256.30605	72.41663	231.89595	-586.65607	0
207	-5.69569	-78.92599	-73.2303	40.6835	32.5468	-76.48498	102.52242	193.65346	258.74706	77.29865	244.101	-584.21506	0
208	-3.25468	-81.367	-78.11232	40.6835	37.42882	-81.367	97.6404	193.65346	263.62908	84.62168	256.30605	-584.21506	0
209	-0.81367	-66.72094	-65.90727	33.36047	32.5468	-66.72094	95.19939	198.53548	268.5111	91.94471	266.07009	-586.65607	0
210	4.88202	-59.39791	-63.46626	26.03744	32.5468	-61.83892	100.08141	203.4175	270.95211	87.06269	261.18807	-591.53809	0
211	4.88202	-66.72094	-70.78929	30.91946	37.42882	-69.16195	104.96343	213.18154	278.27514	87.06269	258.74706	-596.42011	0
212	4.88202	-64.27993	-68.34828	28.47845	34.98781	-66.72094	107.40444	218.06356	285.59817	84.62168	256.30605	-601.30213	0
213	4.88202	-59.39791	-63.46626	26.03744	32.5468	-61.83892	109.84545	218.06356	295.36221	89.5037	256.30605	-601.30213	0
214	4.88202	-52.07488	-56.14323	23.59643	30.10579	-54.51589	112.28646	222.94558	307.56726	106.59077	273.39312	-596.42011	0
215	4.88202	-56.9569	-61.02525	26.03744	32.5468	-59.39791	112.28646	220.50457	310.00827	109.03178	278.27514	-596.42011	0
216	7.32303	-56.9569	-63.46626	23.59643	34.98781	-59.39791	112.28646	220.50457	310.00827	106.59077	278.27514	-598.86112	0
217	12.20505	-44.75185	-56.14323	16.2734	32.5468	-49.63387	109.84545	218.06356	307.56726	111.47279	283.15716	-601.30213	0
218	17.08707	-32.5468	-48.8202	6.50936	32.5468	-39.86983	109.84545	215.62255	312.44928	126.11885	305.12625	-598.86112	0
219	17.08707	-22.78276	-39.05616	0.81367	27.66478	-30.10579	112.28646	218.06356	317.3313	135.88289	327.09534	-596.42011	0
220	14.64606	-15.45973	-29.29212	0.81367	20.34175	-22.78276	114.72747	220.50457	312.44928	121.23683	312.44928	-608.62516	0
221	17.08707	-13.01872	-29.29212	-1.62734	22.78276	-20.34175	119.60949	222.94558	310.00827	101.70875	285.59817	-628.15324	0
222	12.20505	-20.34175	-31.73313	4.06835	20.34175	-25.22377	124.49151	227.8276	314.89029	104.14976	280.71615	-637.91728	0
223	2.44101	-42.31084	-43.93818	18.71441	22.78276	-42.31084	131.81454	227.8276	324.65433	113.9138	288.03918	-642.7993	0
224	-5.69569	-49.63387	-43.93818	26.03744	17.90074	-47.19286	131.81454	227.8276	331.97736	121.23683	297.80322	-647.68132	0
225	-10.57771	-49.63387	-39.05616	28.47845	13.01872	-44.75185	134.25555	225.38659	331.97736	118.79582	285.59817	-657.44536	0
226	-13.01872	-56.9569	-43.93818	33.36047	15.45973	-52.07488	136.69656	225.38659	329.53635	113.9138	273.39312	-667.2094	0
227	-13.01872	-56.9569	-43.93818	33.36047	15.45973	-52.07488	139.13757	225.38659	329.53635	113.9138	273.39312	-672.09142	0
228	-17.90074	-56.9569	-39.05616	35.80148	10.57771	-49.63387	139.13757	222.94558	327.09534	111.47279	270.95211	-679.41445	0
229	-15.45973	-49.63387	-34.17414	30.91946	8.1367	-42.31084	139.13757	220.50457	319.77231	104.14976	266.07009	-686.73748	0
230	-5.69569	-42.31084	-36.61515	23.59643	15.45973	-39.86983	139.13757	222.94558	317.3313	94.38572	253.86504	-698.94253	0
231	-0.81367	-54.51589	-53.70222	26.03744	25.22377	-54.51589	139.13757	225.38659	310.00827	82.18067	241.65999	-711.14758	0
232	-0.81367	-64.27993	-63.46626	30.91946	30.10579	-64.27993	136.69656	225.38659	314.89029	82.18067	246.54201	-713.58859	0
233	-0.81367	-76.48498	-75.67131	38.24249	37.42882	-76.48498	129.37353	222.94558	317.3313	89.5037	261.18807	-713.58859	0
234	2.44101	-83.80801	-85.43535	40.6835	42.31084	-83.80801	124.49151	215.62255	319.77231	99.26774	283.15716	-711.14758	0
235	4.88202	-83.80801	-87.87636	38.24249	44.75185	-86.24902	119.60949	210.74053	317.3313	106.59077	297.80322	-708.70657	0
236	4.88202	-74.04397	-78.11232	33.36047	39.86983	-76.48498	114.72747	208.29952	310.00827	99.26774	295.36221	-713.58859	0
237	2.44101	-69.16195	-70.78929	33.36047	34.98781	-69.16195	112.28646	203.4175	302.68524	89.5037	288.03918	-718.47061	0
238	-0.81367	-61.83892	-61.02525	30.91946	30.10579	-61.83892	109.84545	198.53548	295.36221	79.73966	278.27514	-728.23465	0
239	2.44101	-54.51589	-56.14323	26.03744	27.66478	-54.51589	109.84545	196.09447	285.59817	69.97562	266.07009	-740.4397	0
240	4.88202	-49.63387	-53.70222	21.15542	27.66478	-52.07488	109.84545	198.53548	280.71615	60.21158	248.98302	-755.08576	0
241	4.88202	-52.07488	-56.14323	23.59643	30.10579	-54.51589	112.28646	203.4175	278.27514	50.44754	231.89595	-769.73182	0
242	2.44101	-66.72094	-68.34828	30.91946	34.98781	-66.72094	107.40444	203.4175	275.83413	48.00653	224.57292	-781.93687	0
243	-0.81367	-76.48498	-75.67131	38.24249	37.42882	-76.48498	107.40444	200.97649	283.15716	55.32956	227.01393	-786.81889	0
244	2.44101	-81.367	-82.99434	38.24249	42.31084	-81.367	100.08141	193.65346	278.27514	52.88855	222.13191	-794.14192	0
245	7.32303	-81.367	-87.87636	35.80148	47.19286	-83.80801	97.6404	186.33043	273.39312	50.44754	219.6909	-799.02394	0
246	14.64606	-78.92599	-92.75838	30.91946	52.07488	-86.24902	97.6404	181.44841	268.5111	50.44754	219.6909	-803.90596	0
247	12.20505	-88.69003	-100.08141	38.24249	54.51589	-93.57205	92.75838	171.68437	258.74706	40.6835	217.24989	-808.78798	0
248	9.76404	-93.57205	-102.52242	40.6835	54.51589	-98.45407	87.87636	166.80235	253.86504	35.80148	219.6909	-816.11101	0
249	12.20505	-81.367	-92.75838	33.36047	52.07488	-86.24902	87.87636	166.80235	246.54201	30.91946	222.13191	-823.43404	0
250	14.64606	-81.367	-95.19939	33.36047	54.51589	-88.69003	87.87636	166.80235	244.101	28.47845	224.57292	-828.31606	0
251	17.08707	-83.80801	-100.08141	33.36047	56.9569	-91.13104	92.75838	174.12538	248.98302	38.24249	236.77797	-830.75707	0
252	12.20505	-88.69003	-100.08141	38.24249	54.51589	-93.57205	92.75838	176.56639	251.42403	40.6835	236.77797	-840.52111	0
253	9.76404	-83.80801	-92.75838	35.80148	49.63387	-88.69003	95.19939	176.56639	256.30605	38.24249	234.33696	-845.40313	0
254	12.20505	-71.60296	-82.99434	28.47845	47.19286	-76.48498	95.19939	179.0074	261.18807	35.80148	229.45494	-847.84414	0
255	17.08707	-69.16195	-85.43535	26.03744	49.63387	-76.48498	97.6404	181.44841	261.18807	33.36047	222.13191	-847.84414	0
256	17.08707	-74.04397	-90.31737	28.47845	52.07488	-81.367	92.75838	181.44841	258.74706	30.91946	219.6909	-850.28515	0
257	14.64606	-66.72094	-80.55333	26.03744	47.19286	-74.04397	85.43535	176.56639	256.30605	33.36047	224.57292	-855.16717	0
258	14.64606	-61.83892	-75.67131	23.59643	44.75185	-69.16195	80.55333	176.56639	253.86504	35.80148	231.89595	-857.60818	0
259	17.08707	-56.9569	-73.2303	18.71441	44.75185	-64.27993	78.11232	176.56639	253.86504	40.6835	239.21898	-857.60818	0
260	12.20505	-61.83892	-73.2303	23.59643	42.31084	-66.72094	75.67131	179.0074	251.42403	38.24249	234.33696	-869.81323	0
261	4.88202	-71.60296	-75.67131	33.36047	39.86983	-74.04397	75.67131	179.0074	244.101	30.91946	219.6909	-886.9003	0
262	-0.81367	-76.48498	-75.67131	38.24249	37.42882	-76.48498	78.11232	179.0074	246.54201	26.03744	209.92686	-899.10535	0
263	-0.81367	-81.367	-80.55333	40.6835	39.86983	-81.367	80.55333	183.88942	253.86504	26.03744	202.60383	-903.98737	0
264	2.44101	-83.80801	-85.43535	40.6835	42.31084	-83.80801	80.55333	183.88942	253.86504	18.71441	192.83979	-908.86939	0
265	-3.25468	-83.80801	-80.55333	43.12451	37.42882	-83.80801	75.67131	179.0074	246.54201	13.83239	180.63474	-916.19242	0
266	-5.69569	-78.92599	-73.2303	40.6835	32.5468	-76.48498	70.78929	176.56639	244.101	16.2734	183.07575	-918.63343	0
267	-3.25468	-76.48498	-73.2303	38.24249	34.98781	-76.48498	68.34828	176.56639	244.101	23.59643	192.83979	-916.19242	0
268	-0.81367	-76.48498	-75.67131	38.24249	37.42882	-76.48498	68.34828	176.56639	246.54201	26.03744	197.72181	-913.75141	0
269	2.44101	-74.04397	-75.67131	35.80148	37.42882	-74.04397	73.2303	176.56639	239.21898	23.59643	197.72181	-916.19242	0
270	2.44101	-69.16195	-70.78929	33.36047	34.98781	-69.16195	73.2303	174.12538	231.89595	13.83239	185.51676	-928.39747	0
271	-3.25468	-76.48498	-73.2303	38.24249	34.98781	-76.48498	73.2303	171.68437	227.01393	13.83239	183.07575	-940.60252	0
272	-5.69569	-91.13104	-85.43535	48.00653	39.86983	-88.69003	75.67131	174.12538	231.89595	13.83239	183.07575	-947.92555	0
273	-3.25468	-91.13104	-87.87636	45.56552	42.31084	-91.13104	75.67131	174.12538	234.33696	8.95037	173.31171	-952.80757	0
274	-0.81367	-76.48498	-75.67131	38.24249	37.42882	-76.48498	70.78929	169.24336	231.89595	-0.81367	163.54767	-957.68959	0
275	-3.25468	-74.04397	-70.78929	38.24249	32.5468	-74.04397	63.46626	161.92033	227.01393	-3.25468	158.66565	-962.57161	0
276	-8.1367	-76.48498	-68.34828	40.6835	30.10579	-74.04397	53.70222	157.03831	222.13191	-3.25468	158.66565	-965.01262	0
277	-8.1367	-76.48498	-68.34828	40.6835	30.10579	-74.04397	51.26121	157.03831	219.6909	-3.25468	161.10666	-965.01262	0
278	-3.25468	-71.60296	-68.34828	35.80148	32.5468	-71.60296	46.37919	154.5973	214.80888	-8.1367	153.78363	-967.45363	0
279	-0.81367	-69.16195	-68.34828	33.36047	32.5468	-69.16195	46.37919	152.15629	207.48585	-10.57771	153.78363	-969.89464	0
280	-3.25468	-76.48498	-73.2303	38.24249	34.98781	-76.48498	48.8202	154.5973	207.48585	-3.25468	156.22464	-974.77666	0
281	-0.81367	-86.24902	-85.43535	43.12451	42.31084	-86.24902	51.26121	161.92033	209.92686	1.62734	158.66565	-977.21767	0
282	-0.81367	-83.80801	-82.99434	40.6835	39.86983	-83.80801	46.37919	159.47932	207.48585	-5.69569	148.90161	-989.42272	0
283	-3.25468	-86.24902	-82.99434	43.12451	39.86983	-86.24902	43.93818	157.03831	207.48585	-10.57771	139.13757	-994.30474	0
284	-0.81367	-86.24902	-85.43535	43.12451	42.31084	-86.24902	39.05616	157.03831	207.48585	-15.45973	126.93252	-994.30474	0
285	-3.25468	-88.69003	-85.43535	45.56552	39.86983	-88.69003	36.61515	154.5973	205.04484	-15.45973	119.60949	-991.86373	0
286	-0.81367	-81.367	-80.55333	40.6835	39.86983	-81.367	34.17414	149.71528	200.16282	-15.45973	117.16848	-994.30474	0
287	-5.69569	-76.48498	-70.78929	40.6835	32.5468	-74.04397	29.29212	144.83326	195.2808	-22.78276	112.28646	-996.74575	0
288	-8.1367	-66.72094	-58.58424	35.80148	25.22377	-64.27993	24.4101	142.39225	190.39878	-25.22377	104.96343	-999.18676	0
289	-8.1367	-64.27993	-56.14323	35.80148	22.78276	-61.83892	26.85111	142.39225	185.51676	-27.66478	100.08141	-1001.62777	0
290	-8.1367	-59.39791	-51.26121	33.36047	20.34175	-56.9569	26.85111	142.39225	183.07575	-30.10579	92.75838	-1008.9508	0
291	-5.69569	-59.39791	-53.70222	30.91946	22.78276	-56.9569	29.29212	144.83326	183.07575	-25.22377	92.75838	-1016.27383	0
292	-5.69569	-54.51589	-48.8202	28.47845	20.34175	-52.07488	29.29212	147.27427	187.95777	-22.78276	90.31737	-1018.71484	0
293	-0.81367	-47.19286	-46.37919	23.59643	22.78276	-47.19286	26.85111	147.27427	190.39878	-22.78276	80.55333	-1021.15585	0
294	2.44101	-37.42882	-39.05616	16.2734	20.34175	-37.42882	21.96909	147.27427	190.39878	-22.78276	75.67131	-1018.71484	0
295	2.44101	-37.42882	-39.05616	16.2734	20.34175	-37.42882	24.4101	142.39225	187.95777	-20.34175	73.2303	-1018.71484	0
296	-0.81367	-37.42882	-36.61515	18.71441	17.90074	-37.42882	21.96909	139.95124	180.63474	-20.34175	70.78929	-1016.27383	0
297	-5.69569	-34.98781	-29.29212	18.71441	10.57771	-32.5468	17.08707	132.62821	170.8707	-27.66478	61.02525	-1021.15585	0
298	-10.57771	-30.10579	-19.52808	18.71441	3.25468	-25.22377	8.95037	127.74619	161.10666	-34.98781	51.26121	-1026.03787	0
299	-13.01872	-30.10579	-17.08707	21.15542	0	-25.22377	4.06835	122.86417	151.34262	-39.86983	46.37919	-1028.47888	0
300	-22.78276	-34.98781	-12.20505	28.47845	-7.32303	-25.22377	-0.81367	120.42316	141.57858	-44.75185	36.61515	-1038.24292	0
301	-30.10579	-42.31084	-12.20505	35.80148	-9.76404	-27.66478	-5.69569	120.42316	139.13757	-49.63387	31.73313	-1045.56595	0
302	-34.98781	-49.63387	-14.64606	40.6835	-12.20505	-32.5468	-10.57771	120.42316	139.13757	-52.07488	26.85111	-1052.88898	0
303	-34.98781	-54.51589	-19.52808	43.12451	-9.76404	-37.42882	-17.90074	120.42316	139.13757	-54.51589	19.52808	-1055.32999	0
304	-32.5468	-59.39791	-26.85111	45.56552	-4.88202	-44.75185	-22.78276	115.54114	134.25555	-62.65259	7.32303	-1057.771	0
305	-34.98781	-61.83892	-26.85111	48.00653	-4.88202	-44.75185	-27.66478	110.65912	126.93252	-69.97562	-4.88202	-1060.21201	0
306	-34.98781	-66.72094	-31.73313	50.44754	-2.44101	-49.63387	-30.10579	108.21811	119.60949	-77.29865	-14.64606	-1065.09403	0
307	-32.5468	-69.16195	-36.61515	50.44754	0	-54.51589	-32.5468	105.7771	114.72747	-79.73966	-24.4101	-1065.09403	0
308	-30.10579	-61.83892	-31.73313	45.56552	0	-47.19286	-39.86983	100.89508	102.52242	-87.06269	-36.61515	-1069.97605	0
309	-30.10579	-54.51589	-24.4101	40.6835	-4.88202	-39.86983	-47.19286	93.57205	87.87636	-94.38572	-46.37919	-1074.85807	0
310	-32.5468	-52.07488	-19.52808	40.6835	-7.32303	-37.42882	-54.51589	93.57205	78.11232	-99.26774	-56.14323	-1082.1811	0
311	-37.42882	-52.07488	-14.64606	43.12451	-12.20505	-34.98781	-56.9569	91.13104	68.34828	-101.70875	-64.27993	-1087.06312	0
312	-39.86983	-56.9569	-17.08707	48.00653	-12.20505	-37.42882	-64.27993	88.69003	61.02525	-104.14976	-71.60296	-1089.50413	0
313	-42.31084	-52.07488	-9.76404	45.56552	-17.08707	-32.5468	-78.92599	81.367	51.26121	-111.47279	-86.24902	-1094.38615	0
314	-47.19286	-54.51589	-7.32303	50.44754	-21.96909	-32.5468	-88.69003	71.60296	39.05616	-121.23683	-100.89508	-1096.82716	0
315	-47.19286	-61.83892	-14.64606	52.88855	-17.08707	-39.86983	-98.45407	64.27993	24.4101	-128.55986	-113.10013	-1096.82716	0
316	-47.19286	-71.60296	-24.4101	57.77057	-12.20505	-49.63387	-103.33609	59.39791	11.39138	-133.44188	-122.86417	-1094.38615	0
317	-47.19286	-83.80801	-36.61515	65.0936	-7.32303	-61.83892	-110.65912	54.51589	-0.81367	-138.3239	-130.1872	-1094.38615	0
318	-44.75185	-91.13104	-46.37919	67.53461	0	-69.16195	-117.98215	46.37919	-22.78276	-145.64693	-142.39225	-1096.82716	0
319	-44.75185	-98.45407	-53.70222	69.97562	3.25468	-76.48498	-125.30518	39.05616	-44.75185	-152.96996	-154.5973	-1099.26817	0
320	-44.75185	-108.21811	-63.46626	74.85764	8.1367	-86.24902	-127.74619	34.17414	-64.27993	-160.29299	-169.24336	-1101.70918	0
321	-39.86983	-105.7771	-65.90727	72.41663	13.01872	-86.24902	-132.62821	29.29212	-78.92599	-165.17501	-183.88942	-1111.47322	0
322	-39.86983	-103.33609	-63.46626	69.97562	10.57771	-83.80801	-142.39225	24.4101	-88.69003	-172.49804	-200.97649	-1116.35524	0
323	-30.10579	-91.13104	-61.02525	60.21158	15.45973	-76.48498	-149.71528	17.08707	-98.45407	-177.38006	-215.62255	-1121.23726	0
324	-25.22377	-76.48498	-51.26121	50.44754	13.01872	-64.27993	-161.92033	7.32303	-105.7771	-182.26208	-232.70962	-1121.23726	0
325	-20.34175	-61.83892	-41.49717	40.6835	10.57771	-52.07488	-171.68437	0	-113.10013	-187.1441	-247.35568	-1118.79625	0
326	-15.45973	-39.86983	-24.4101	26.03744	3.25468	-32.5468	-183.88942	-12.20505	-125.30518	-194.46713	-262.00174	-1123.67827	0
327	-15.45973	-39.86983	-24.4101	26.03744	3.25468	-32.5468	-196.09447	-19.52808	-132.62821	-194.46713	-269.32477	-1121.23726	0
328	-15.45973	-47.19286	-31.73313	30.91946	8.1367	-39.86983	-205.85851	-24.4101	-139.95124	-196.90814	-274.20679	-1116.35524	0
329	-17.90074	-52.07488	-34.17414	33.36047	8.1367	-44.75185	-210.74053	-26.85111	-147.27427	-194.46713	-279.08881	-1109.03221	0
330	-20.34175	-59.39791	-39.05616	38.24249	8.1367	-49.63387	-218.06356	-31.73313	-154.5973	-199.34915	-283.97083	-1109.03221	0
331	-25.22377	-69.16195	-43.93818	45.56552	8.1367	-56.9569	-225.38659	-31.73313	-159.47932	-199.34915	-291.29386	-1113.91423	0
332	-32.5468	-83.80801	-51.26121	57.77057	8.1367	-69.16195	-230.26861	-31.73313	-157.03831	-199.34915	-296.17588	-1113.91423	0
333	-30.10579	-88.69003	-58.58424	57.77057	13.01872	-74.04397	-235.15063	-31.73313	-154.5973	-196.90814	-298.61689	-1109.03221	0
334	-30.10579	-88.69003	-58.58424	57.77057	13.01872	-74.04397	-240.03265	-31.73313	-157.03831	-199.34915	-305.93992	-1106.5912	0
335	-30.10579	-81.367	-51.26121	55.32956	10.57771	-66.72094	-242.47366	-34.17414	-157.03831	-201.79016	-315.70396	-1106.5912	0
336	-30.10579	-71.60296	-41.49717	50.44754	5.69569	-56.9569	-242.47366	-26.85111	-154.5973	-199.34915	-323.02699	-1106.5912	0
337	-27.66478	-71.60296	-43.93818	48.00653	8.1367	-59.39791	-242.47366	-9.76404	-144.83326	-192.02612	-323.02699	-1104.15019	0
338	-22.78276	-71.60296	-48.8202	45.56552	13.01872	-61.83892	-240.03265	24.4101	-120.42316	-172.49804	-320.58598	-1099.26817	0
339	-15.45973	-69.16195	-53.70222	40.6835	17.90074	-61.83892	-227.8276	81.367	-76.48498	-140.76491	-310.82194	-1094.38615	0
340	-5.69569	-76.48498	-70.78929	40.6835	32.5468	-74.04397	-215.62255	157.03831	-17.90074	-99.26774	-296.17588	-1089.50413	0
341	12.20505	-81.367	-92.75838	33.36047	52.07488	-86.24902	-205.85851	242.47366	51.26121	-44.75185	-271.76578	-1084.62211	0
342	34.17414	-86.24902	-119.60949	26.03744	76.48498	-103.33609	-208.29952	310.82194	124.49151	26.03744	-235.15063	-1069.97605	0
343	53.70222	-91.13104	-144.01959	18.71441	98.45407	-117.98215	-222.94558	347.43709	187.95777	106.59077	-183.88942	-1045.56595	0
344	80.55333	-86.24902	-165.98868	0.81367	122.86417	-125.30518	-240.03265	364.52416	244.101	199.34915	-115.54114	-1006.50979	0
345	107.40444	-78.92599	-185.51676	-13.83239	144.83326	-132.62821	-257.11972	366.96517	302.68524	321.39965	-19.52808	-952.80757	0
346	141.57858	-56.9569	-197.72181	-43.12451	169.24336	-127.74619	-281.52982	364.52416	368.59251	480.0653	117.16848	-882.01828	0
347	178.19373	-17.90074	-195.2808	-79.73966	186.33043	-105.7771	-310.82194	354.76012	441.82281	670.46408	288.03918	-791.70091	0
348	214.80888	24.4101	-190.39878	-118.79582	203.4175	-83.80801	-337.67305	337.67305	510.17109	877.94993	483.31998	-686.73748	0
349	246.54201	63.46626	-183.07575	-155.41097	215.62255	-59.39791	-359.64214	325.468	576.07836	1092.75881	690.80583	-574.45102	0
350	273.39312	107.40444	-165.98868	-189.58511	220.50457	-30.10579	-384.05224	301.0579	622.45755	1285.5986	888.52764	-469.48759	0
351	292.9212	151.34262	-141.57858	-221.31824	218.06356	4.88202	-420.66739	237.59164	612.69351	1412.53112	1042.31127	-379.17022	0
352	292.9212	180.63474	-112.28646	-235.9643	203.4175	34.17414	-484.13365	103.33609	510.17109	1400.32607	1088.69046	-325.468	0
353	280.71615	190.39878	-90.31737	-235.9643	186.33043	51.26121	-569.569	-92.75838	305.12625	1231.89638	1005.69612	-320.58598	0
354	253.86504	192.83979	-61.02525	-223.75925	157.03831	65.90727	-662.32738	-334.41837	24.4101	941.41619	825.06138	-352.31911	0
355	217.24989	187.95777	-29.29212	-201.79016	122.86417	80.55333	-757.52677	-588.28341	-288.85285	580.14671	576.07836	-415.78537	0
356	170.8707	178.19373	8.1367	-174.93905	81.367	92.75838	-845.40313	-817.73835	-593.9791	194.46713	295.36221	-503.66173	0
357	129.37353	168.42969	39.86983	-148.08794	44.75185	104.96343	-913.75141	-1005.69612	-864.93121	-174.93905	7.32303	-598.86112	0
358	90.31737	163.54767	74.04397	-126.11885	8.1367	119.60949	-960.1306	-1130.18763	-1069.97605	-480.0653	-237.59164	-686.73748	0
359	56.14323	165.98868	110.65912	-111.47279	-26.85111	139.13757	-974.77666	-1186.33086	-1189.58554	-670.46408	-401.13931	-747.76273	0
360	36.61515	183.07575	147.27427	-109.03178	-56.14323	165.98868	-965.01262	-1181.44884	-1228.6417	-765.66347	-491.45668	-789.2599	0
361	12.20505	187.95777	176.56639	-99.26774	-82.99434	183.07575	-943.04353	-1132.62864	-1211.55463	-794.95559	-537.83587	-816.11101	0
362	2.44101	200.16282	198.53548	-101.70875	-97.6404	200.16282	-908.86939	-1066.72137	-1170.05746	-794.95559	-559.80496	-828.31606	0
363	-5.69569	207.48585	213.18154	-101.70875	-109.84545	209.92686	-879.57727	-1003.25511	-1128.56029	-790.07357	-576.89203	-838.0801	0
364	-13.01872	207.48585	220.50457	-96.82673	-117.16848	212.36787	-850.28515	-942.22986	-1089.50413	-782.75054	-591.53809	-845.40313	0
365	-13.01872	200.16282	213.18154	-94.38572	-112.28646	205.04484	-813.67	-886.08663	-1048.00696	-775.42751	-606.18415	-855.16717	0
366	-20.34175	178.19373	198.53548	-79.73966	-109.84545	187.95777	-774.61384	-827.50239	-1011.39181	-768.10448	-620.83021	-869.81323	0
367	-30.10579	158.66565	188.77144	-65.0936	-109.84545	173.31171	-735.55768	-776.24118	-974.77666	-755.89943	-635.47627	-886.9003	0
368	-39.86983	144.01959	183.88942	-52.88855	-112.28646	163.54767	-698.94253	-727.42098	-938.16151	-743.69438	-645.24031	-906.42838	0
369	-42.31084	129.37353	171.68437	-43.12451	-107.40444	148.90161	-655.00435	-671.27775	-891.78232	-719.28428	-647.68132	-921.07444	0
370	-47.19286	109.84545	157.03831	-30.91946	-102.52242	131.81454	-608.62516	-612.69351	-845.40313	-692.43317	-645.24031	-935.7205	0
371	-47.19286	97.6404	144.83326	-26.03744	-95.19939	119.60949	-569.569	-561.4323	-799.02394	-665.58206	-640.35829	-952.80757	0
372	-44.75185	97.6404	142.39225	-26.03744	-92.75838	119.60949	-540.27688	-512.6121	-755.08576	-636.28994	-633.03526	-962.57161	0
373	-37.42882	102.52242	139.95124	-33.36047	-87.87636	119.60949	-508.54375	-471.11493	-711.14758	-609.43883	-623.27122	-967.45363	0
374	-32.5468	95.19939	127.74619	-30.91946	-80.55333	109.84545	-481.69264	-432.05877	-672.09142	-582.58772	-613.50718	-965.01262	0
375	-32.5468	85.43535	117.98215	-26.03744	-75.67131	100.08141	-457.28254	-402.76665	-642.7993	-558.17762	-603.74314	-965.01262	0
376	-39.86983	75.67131	115.54114	-18.71441	-78.11232	95.19939	-440.19547	-380.79756	-620.83021	-541.09055	-598.86112	-967.45363	0
377	-44.75185	73.2303	117.98215	-13.83239	-80.55333	95.19939	-425.54941	-363.71049	-601.30213	-524.00348	-591.53809	-967.45363	0
378	-52.07488	65.90727	117.98215	-6.50936	-85.43535	90.31737	-408.46234	-349.06443	-586.65607	-511.79843	-586.65607	-965.01262	0
379	-59.39791	53.70222	113.10013	0.81367	-85.43535	82.99434	-393.81628	-339.30039	-579.33304	-502.03439	-584.21506	-960.1306	0
380	-64.27993	48.8202	113.10013	6.50936	-87.87636	80.55333	-381.61123	-331.97736	-569.569	-497.15237	-584.21506	-960.1306	0
381	-69.16195	48.8202	117.98215	8.95037	-92.75838	82.99434	-369.40618	-322.21332	-559.80496	-492.27035	-581.77405	-960.1306	0
382	-66.72094	51.26121	117.98215	6.50936	-92.75838	82.99434	-359.64214	-314.89029	-547.59991	-487.38833	-581.77405	-955.24858	0
383	-66.72094	51.26121	117.98215	6.50936	-92.75838	82.99434	-352.31911	-310.00827	-537.83587	-482.50631	-581.77405	-950.36656	0
384	-71.60296	46.37919	117.98215	11.39138	-95.19939	80.55333	-344.99608	-307.56726	-530.51284	-480.0653	-581.77405	-938.16151	0
385	-74.04397	48.8202	122.86417	11.39138	-97.6404	85.43535	-340.11406	-307.56726	-528.07183	-477.62429	-581.77405	-928.39747	0
386	-76.48498	48.8202	125.30518	13.83239	-100.08141	85.43535	-335.23204	-310.00827	-528.07183	-477.62429	-581.77405	-918.63343	0
387	-78.92599	51.26121	130.1872	13.83239	-104.96343	90.31737	-335.23204	-314.89029	-530.51284	-475.18328	-581.77405	-911.3104	0
388	-83.80801	51.26121	135.06922	16.2734	-109.84545	92.75838	-335.23204	-319.77231	-535.39486	-477.62429	-584.21506	-906.42838	0
389	-91.13104	48.8202	139.95124	21.15542	-114.72747	92.75838	-330.35002	-322.21332	-537.83587	-477.62429	-581.77405	-896.66434	0
390	-88.69003	53.70222	142.39225	16.2734	-114.72747	97.6404	-325.468	-319.77231	-540.27688	-477.62429	-581.77405	-889.34131	0
391	-91.13104	51.26121	142.39225	18.71441	-117.16848	95.19939	-320.58598	-317.3313	-540.27688	-477.62429	-581.77405	-886.9003	0
392	-88.69003	53.70222	142.39225	16.2734	-114.72747	97.6404	-318.14497	-314.89029	-532.95385	-477.62429	-581.77405	-882.01828	0
393	-93.57205	51.26121	144.83326	21.15542	-119.60949	97.6404	-318.14497	-314.89029	-530.51284	-477.62429	-581.77405	-879.57727	0
394	-91.13104	48.8202	139.95124	21.15542	-114.72747	92.75838	-315.70396	-312.44928	-528.07183	-477.62429	-581.77405	-867.37222	0
395	-86.24902	56.14323	142.39225	13.83239	-114.72747	97.6404	-313.26295	-312.44928	-525.63082	-475.18328	-579.33304	-855.16717	0
396	-83.80801	61.02525	144.83326	11.39138	-114.72747	102.52242	-313.26295	-317.3313	-525.63082	-472.74227	-576.89203	-852.72616	0
397	-81.367	65.90727	147.27427	6.50936	-114.72747	104.96343	-308.38093	-317.3313	-525.63082	-470.30126	-569.569	-842.96212	0
398	-76.48498	70.78929	147.27427	0.81367	-112.28646	107.40444	-301.0579	-317.3313	-525.63082	-465.41924	-559.80496	-835.63909	0
399	-76.48498	61.02525	137.51023	6.50936	-107.40444	97.6404	-291.29386	-314.89029	-525.63082	-458.09621	-550.04092	-825.87505	0
400	-69.16195	61.02525	130.1872	4.06835	-100.08141	95.19939	-283.97083	-310.00827	-523.18981	-455.6552	-545.1589	-818.55202	1500	QRS+0
401	-69.16195	63.46626	132.62821	0.81367	-100.08141	97.6404	-279.08881	-310.00827	-523.18981	-455.6552	-542.71789	-818.55202	0
402	-66.72094	63.46626	130.1872	0.81367	-97.6404	95.19939	-276.6478	-310.00827	-520.7488	-455.6552	-542.71789	-816.11101	0
403	-66.72094	68.34828	135.06922	-1.62734	-100.08141	100.08141	-276.6478	-310.00827	-518.30779	-460.53722	-545.1589	-811.22899	0
404	-66.72094	61.02525	127.74619	0.81367	-97.6404	92.75838	-283.97083	-314.89029	-520.7488	-465.41924	-550.04092	-806.34697	0
405	-71.60296	58.58424	130.1872	6.50936	-100.08141	92.75838	-283.97083	-319.77231	-520.7488	-465.41924	-550.04092	-801.46495	0
406	-71.60296	63.46626	135.06922	4.06835	-102.52242	97.6404	-283.97083	-322.21332	-520.7488	-465.41924	-547.59991	-796.58293	0
407	-71.60296	65.90727	137.51023	0.81367	-104.96343	100.08141	-286.41184	-324.65433	-523.18981	-462.97823	-540.27688	-789.2599	0
408	-66.72094	70.78929	137.51023	-1.62734	-102.52242	102.52242	-286.41184	-324.65433	-523.18981	-460.53722	-532.95385	-781.93687	0
409	-66.72094	68.34828	135.06922	-1.62734	-100.08141	100.08141	-281.52982	-324.65433	-525.63082	-455.6552	-530.51284	-774.61384	0
410	-64.27993	68.34828	132.62821	-1.62734	-97.6404	100.08141	-274.20679	-317.3313	-520.7488	-450.77318	-523.18981	-767.29081	0
411	-59.39791	75.67131	135.06922	-8.95037	-97.6404	104.96343	-271.76578	-312.44928	-515.86678	-445.89116	-515.86678	-764.8498	0
412	-56.9569	80.55333	137.51023	-11.39138	-97.6404	107.40444	-271.76578	-307.56726	-510.98476	-443.45015	-515.86678	-759.96778	0
413	-54.51589	85.43535	139.95124	-16.2734	-97.6404	112.28646	-269.32477	-302.68524	-503.66173	-441.00914	-515.86678	-757.52677	0
414	-52.07488	82.99434	135.06922	-16.2734	-92.75838	107.40444	-264.44275	-295.36221	-496.3387	-436.12712	-513.42577	-747.76273	0
415	-44.75185	87.87636	132.62821	-21.15542	-87.87636	109.84545	-259.56073	-288.03918	-484.13365	-426.36308	-506.10274	-735.55768	0
416	-42.31084	97.6404	139.95124	-28.47845	-90.31737	117.16848	-254.67871	-280.71615	-476.81062	-421.48106	-501.22072	-728.23465	0
417	-47.19286	92.75838	139.95124	-23.59643	-92.75838	114.72747	-252.2377	-273.39312	-471.9286	-416.59904	-496.3387	-718.47061	0
418	-42.31084	95.19939	137.51023	-26.03744	-90.31737	114.72747	-242.47366	-261.18807	-464.60557	-409.27601	-489.01567	-706.26556	0
419	-42.31084	95.19939	137.51023	-26.03744	-90.31737	114.72747	-235.15063	-251.42403	-459.72355	-401.95298	-484.13365	-694.06051	0
420	-37.42882	95.19939	132.62821	-28.47845	-85.43535	112.28646	-227.8276	-236.77797	-452.40052	-394.62995	-476.81062	-686.73748	0
421	-37.42882	100.08141	137.51023	-30.91946	-87.87636	117.16848	-222.94558	-222.13191	-442.63648	-389.74793	-476.81062	-684.29647	0
422	-44.75185	92.75838	137.51023	-23.59643	-90.31737	114.72747	-220.50457	-209.92686	-432.87244	-387.30692	-476.81062	-679.41445	0
423	-34.98781	95.19939	130.1872	-30.91946	-82.99434	112.28646	-215.62255	-195.2808	-418.22638	-375.10187	-469.48759	-672.09142	0
424	-32.5468	92.75838	125.30518	-30.91946	-78.11232	107.40444	-208.29952	-180.63474	-403.58032	-367.77884	-464.60557	-659.88637	0
425	-32.5468	87.87636	120.42316	-28.47845	-75.67131	102.52242	-198.53548	-163.54767	-384.05224	-355.57379	-457.28254	-652.56334	0
426	-27.66478	87.87636	115.54114	-30.91946	-70.78929	100.08141	-188.77144	-146.4606	-371.84719	-343.36874	-449.95951	-647.68132	0
427	-27.66478	85.43535	113.10013	-28.47845	-70.78929	97.6404	-183.88942	-134.25555	-362.08315	-336.04571	-445.07749	-640.35829	0
428	-22.78276	75.67131	98.45407	-26.03744	-61.02525	85.43535	-171.68437	-114.72747	-347.43709	-323.84066	-435.31345	-635.47627	0
429	-27.66478	63.46626	91.13104	-18.71441	-58.58424	75.67131	-159.47932	-95.19939	-332.79103	-311.63561	-427.99042	-630.59425	0
430	-22.78276	63.46626	86.24902	-21.15542	-53.70222	73.2303	-149.71528	-75.67131	-320.58598	-304.31258	-425.54941	-630.59425	0
431	-10.57771	73.2303	83.80801	-30.91946	-46.37919	78.11232	-144.83326	-53.70222	-303.49891	-294.54854	-423.1084	-637.91728	0
432	-0.81367	82.99434	83.80801	-40.6835	-41.49717	82.99434	-137.51023	-31.73313	-283.97083	-282.34349	-418.22638	-633.03526	0
433	2.44101	78.11232	76.48498	-40.6835	-36.61515	78.11232	-127.74619	-7.32303	-259.56073	-270.13844	-413.34436	-630.59425	0
434	4.88202	73.2303	69.16195	-38.24249	-31.73313	70.78929	-120.42316	12.20505	-240.03265	-260.3744	-410.90335	-625.71223	0
435	7.32303	73.2303	66.72094	-40.6835	-29.29212	70.78929	-113.10013	29.29212	-222.94558	-248.16935	-406.02133	-620.83021	0
436	14.64606	70.78929	56.9569	-43.12451	-21.96909	63.46626	-108.21811	48.8202	-208.29952	-235.9643	-401.13931	-615.94819	0
437	14.64606	61.02525	47.19286	-38.24249	-17.08707	53.70222	-98.45407	61.83892	-196.09447	-223.75925	-393.81628	-608.62516	0
438	9.76404	41.49717	32.5468	-26.03744	-12.20505	36.61515	-93.57205	76.48498	-186.33043	-218.87723	-388.93426	-603.74314	0
439	2.44101	26.85111	25.22377	-13.83239	-12.20505	26.85111	-88.69003	91.13104	-179.0074	-211.5542	-388.93426	-603.74314	0
440	7.32303	19.52808	13.01872	-13.83239	-2.44101	17.08707	-83.80801	105.7771	-169.24336	-206.67218	-388.93426	-603.74314	0
441	14.64606	17.08707	3.25468	-16.2734	5.69569	9.76404	-76.48498	125.30518	-152.15629	-199.34915	-384.05224	-606.18415	0
442	21.96909	17.08707	-4.88202	-18.71441	13.01872	7.32303	-71.60296	142.39225	-137.51023	-192.02612	-381.61123	-608.62516	0
443	26.85111	17.08707	-9.76404	-21.15542	17.90074	4.88202	-69.16195	157.03831	-120.42316	-182.26208	-381.61123	-608.62516	0
444	29.29212	9.76404	-19.52808	-18.71441	25.22377	-5.69569	-69.16195	171.68437	-105.7771	-174.93905	-381.61123	-603.74314	0
445	31.73313	0	-31.73313	-16.2734	32.5468	-15.45973	-64.27993	183.88942	-91.13104	-162.734	-374.2882	-598.86112	0
446	41.49717	-3.25468	-43.93818	-18.71441	42.31084	-22.78276	-59.39791	196.09447	-78.92599	-148.08794	-366.96517	-589.09708	0
447	46.37919	-10.57771	-56.14323	-18.71441	49.63387	-32.5468	-56.9569	208.29952	-69.16195	-135.88289	-357.20113	-581.77405	0
448	48.8202	-20.34175	-68.34828	-13.83239	56.9569	-44.75185	-54.51589	218.06356	-61.83892	-128.55986	-352.31911	-574.45102	0
449	51.26121	-27.66478	-78.11232	-11.39138	64.27993	-52.07488	-49.63387	225.38659	-59.39791	-121.23683	-349.8781	-569.569	0
450	51.26121	-39.86983	-90.31737	-6.50936	69.16195	-64.27993	-44.75185	235.15063	-54.51589	-118.79582	-349.8781	-569.569	0
451	58.58424	-37.42882	-95.19939	-11.39138	76.48498	-66.72094	-44.75185	244.91467	-47.19286	-113.9138	-347.43709	-576.89203	0
452	58.58424	-39.86983	-97.6404	-8.95037	76.48498	-69.16195	-44.75185	249.79669	-39.86983	-113.9138	-347.43709	-584.21506	0
453	58.58424	-47.19286	-104.96343	-6.50936	81.367	-76.48498	-44.75185	254.67871	-30.10579	-109.03178	-347.43709	-589.09708	0
454	58.58424	-52.07488	-109.84545	-4.06835	83.80801	-81.367	-42.31084	259.56073	-22.78276	-104.14976	-344.99608	-586.65607	0
455	65.90727	-47.19286	-112.28646	-8.95037	88.69003	-78.92599	-37.42882	264.44275	-13.01872	-96.82673	-340.11406	-581.77405	0
456	68.34828	-49.63387	-117.16848	-8.95037	91.13104	-83.80801	-34.98781	269.32477	-5.69569	-89.5037	-335.23204	-581.77405	0
457	70.78929	-49.63387	-119.60949	-11.39138	93.57205	-83.80801	-34.98781	271.76578	-0.81367	-79.73966	-330.35002	-574.45102	0
458	70.78929	-52.07488	-122.0505	-8.95037	96.01306	-86.24902	-34.98781	269.32477	-3.25468	-77.29865	-330.35002	-572.01001	0
459	73.2303	-52.07488	-124.49151	-11.39138	98.45407	-88.69003	-32.5468	266.88376	-3.25468	-72.41663	-327.90901	-569.569	0
460	75.67131	-54.51589	-129.37353	-11.39138	100.89508	-91.13104	-27.66478	271.76578	-0.81367	-69.97562	-327.90901	-567.12799	0
461	73.2303	-56.9569	-129.37353	-8.95037	100.89508	-93.57205	-27.66478	271.76578	-0.81367	-69.97562	-330.35002	-569.569	0
462	65.90727	-64.27993	-129.37353	-1.62734	96.01306	-96.01306	-27.66478	269.32477	1.62734	-67.53461	-335.23204	-572.01001	0
463	63.46626	-69.16195	-131.81454	0.81367	96.01306	-100.89508	-22.78276	266.88376	6.50936	-67.53461	-340.11406	-569.569	0
464	63.46626	-69.16195	-131.81454	0.81367	96.01306	-100.89508	-15.45973	266.88376	8.95037	-65.0936	-340.11406	-562.24597	0
465	63.46626	-69.16195	-131.81454	0.81367	96.01306	-100.89508	-10.57771	262.00174	8.95037	-62.65259	-344.99608	-557.36395	0
466	61.02525	-59.39791	-119.60949	-1.62734	88.69003	-88.69003	-8.1367	252.2377	1.62734	-65.0936	-347.43709	-557.36395	0
467	58.58424	-59.39791	-117.16848	0.81367	86.24902	-88.69003	-8.1367	240.03265	-5.69569	-65.0936	-347.43709	-554.92294	0
468	61.02525	-59.39791	-119.60949	-1.62734	88.69003	-88.69003	-5.69569	230.26861	-13.01872	-65.0936	-342.55507	-552.48193	0
469	63.46626	-56.9569	-119.60949	-4.06835	91.13104	-88.69003	-3.25468	220.50457	-20.34175	-62.65259	-335.23204	-547.59991	0
470	58.58424	-64.27993	-122.0505	0.81367	88.69003	-93.57205	-0.81367	210.74053	-30.10579	-62.65259	-330.35002	-550.04092	0
471	51.26121	-64.27993	-114.72747	6.50936	81.367	-88.69003	-0.81367	200.97649	-37.42882	-65.0936	-327.90901	-557.36395	0
472	51.26121	-64.27993	-114.72747	6.50936	81.367	-88.69003	1.62734	193.65346	-39.86983	-65.0936	-330.35002	-557.36395	0
473	48.8202	-69.16195	-117.16848	8.95037	81.367	-93.57205	-0.81367	179.0074	-47.19286	-72.41663	-340.11406	-559.80496	0
474	48.8202	-66.72094	-114.72747	8.95037	81.367	-91.13104	-3.25468	164.36134	-54.51589	-77.29865	-344.99608	-557.36395	0
475	39.05616	-69.16195	-107.40444	13.83239	71.60296	-88.69003	-8.1367	144.83326	-64.27993	-84.62168	-349.8781	-557.36395	0
476	36.61515	-74.04397	-109.84545	18.71441	71.60296	-91.13104	-10.57771	127.74619	-76.48498	-89.5037	-354.76012	-557.36395	0
477	36.61515	-74.04397	-109.84545	18.71441	71.60296	-91.13104	-10.57771	110.65912	-86.24902	-94.38572	-359.64214	-559.80496	0
478	36.61515	-74.04397	-109.84545	18.71441	71.60296	-91.13104	-10.57771	96.01306	-96.01306	-96.82673	-357.20113	-557.36395	0
479	34.17414	-76.48498	-109.84545	21.15542	71.60296	-93.57205	-5.69569	81.367	-108.21811	-96.82673	-352.31911	-557.36395	0
480	31.73313	-76.48498	-107.40444	21.15542	69.16195	-91.13104	-5.69569	69.16195	-115.54114	-101.70875	-354.76012	-559.80496	0
481	31.73313	-76.48498	-107.40444	21.15542	69.16195	-91.13104	-5.69569	59.39791	-122.86417	-111.47279	-362.08315	-569.569	0
482	31.73313	-69.16195	-100.08141	18.71441	64.27993	-83.80801	-3.25468	48.8202	-125.30518	-116.35481	-366.96517	-569.569	-1500	QRS-0
483	34.17414	-64.27993	-97.6404	13.83239	64.27993	-81.367	-5.69569	39.05616	-127.74619	-118.79582	-369.40618	-569.569	0
484	31.73313	-66.72094	-97.6404	16.2734	64.27993	-81.367	-8.1367	29.29212	-132.62821	-123.67784	-374.2882	-569.569	0
485	34.17414	-61.83892	-95.19939	13.83239	64.27993	-78.92599	-8.1367	14.64606	-137.51023	-128.55986	-379.17022	-564.68698	0
486	34.17414	-61.83892	-95.19939	13.83239	64.27993	-78.92599	-8.1367	4.88202	-139.95124	-131.00087	-379.17022	-559.80496	0
487	34.17414	-59.39791	-92.75838	11.39138	61.83892	-76.48498	-8.1367	-4.88202	-144.83326	-131.00087	-376.72921	-552.48193	0
488	34.17414	-54.51589	-87.87636	8.95037	59.39791	-71.60296	-10.57771	-14.64606	-152.15629	-133.44188	-376.72921	-547.59991	0
489	36.61515	-47.19286	-82.99434	4.06835	59.39791	-64.27993	-10.57771	-24.4101	-161.92033	-135.88289	-376.72921	-545.1589	0
490	36.61515	-42.31084	-78.11232	0.81367	56.9569	-59.39791	-10.57771	-29.29212	-166.80235	-143.20592	-379.17022	-540.27688	0
491	34.17414	-37.42882	-70.78929	0.81367	52.07488	-54.51589	-13.01872	-31.73313	-169.24336	-148.08794	-381.61123	-545.1589	0
492	29.29212	-34.98781	-63.46626	0.81367	44.75185	-49.63387	-15.45973	-34.17414	-169.24336	-148.08794	-384.05224	-547.59991	0
493	21.96909	-34.98781	-56.14323	6.50936	37.42882	-44.75185	-17.90074	-36.61515	-164.36134	-148.08794	-381.61123	-542.71789	0
494	12.20505	-39.86983	-51.26121	13.83239	30.10579	-44.75185	-22.78276	-39.05616	-161.92033	-145.64693	-381.61123	-537.83587	0
495	7.32303	-44.75185	-51.26121	18.71441	27.66478	-47.19286	-20.34175	-39.05616	-157.03831	-138.3239	-379.17022	-532.95385	0
496	7.32303	-42.31084	-48.8202	16.2734	27.66478	-44.75185	-17.90074	-41.49717	-152.15629	-135.88289	-379.17022	-532.95385	0
497	4.88202	-47.19286	-51.26121	21.15542	27.66478	-49.63387	-13.01872	-41.49717	-147.27427	-128.55986	-374.2882	-525.63082	0
498	2.44101	-54.51589	-56.14323	26.03744	27.66478	-54.51589	-8.1367	-41.49717	-144.83326	-128.55986	-371.84719	-518.30779	0
499	7.32303	-49.63387	-56.14323	21.15542	30.10579	-52.07488	-0.81367	-39.05616	-142.39225	-126.11885	-369.40618	-513.42577	0
500	7.32303	-44.75185	-51.26121	18.71441	27.66478	-47.19286	4.06835	-34.17414	-137.51023	-123.67784	-369.40618	-513.42577	0
501	9.76404	-39.86983	-48.8202	13.83239	27.66478	-44.75185	8.95037	-31.73313	-135.06922	-121.23683	-366.96517	-515.86678	0
502	9.76404	-37.42882	-46.37919	13.83239	27.66478	-42.31084	8.95037	-26.85111	-125.30518	-116.35481	-364.52416	-513.42577	0
503	7.32303	-44.75185	-51.26121	18.71441	27.66478	-47.19286	12.20505	-19.52808	-110.65912	-111.47279	-362.08315	-508.54375	0
504	4.88202	-39.86983	-43.93818	16.2734	22.78276	-42.31084	12.20505	-14.64606	-100.89508	-109.03178	-362.08315	-503.66173	0
505	7.32303	-32.5468	-39.05616	11.39138	22.78276	-34.98781	14.64606	-9.76404	-88.69003	-99.26774	-359.64214	-491.45668	0
506	7.32303	-30.10579	-36.61515	11.39138	20.34175	-32.5468	17.08707	-4.88202	-81.367	-91.94471	-354.76012	-484.13365	0
507	9.76404	-32.5468	-41.49717	11.39138	25.22377	-37.42882	21.96909	2.44101	-71.60296	-82.18067	-347.43709	-474.36961	0
508	14.64606	-32.5468	-46.37919	8.95037	30.10579	-39.86983	26.85111	7.32303	-64.27993	-74.85764	-337.67305	-464.60557	0
509	17.08707	-32.5468	-48.8202	6.50936	32.5468	-39.86983	31.73313	9.76404	-61.83892	-69.97562	-327.90901	-452.40052	0
510	17.08707	-39.86983	-56.14323	11.39138	34.98781	-47.19286	36.61515	17.08707	-56.9569	-60.21158	-313.26295	-440.19547	0
511	17.08707	-44.75185	-61.02525	13.83239	37.42882	-52.07488	41.49717	21.96909	-49.63387	-57.77057	-305.93992	-437.75446	0
512	17.08707	-47.19286	-63.46626	13.83239	39.86983	-54.51589	46.37919	29.29212	-39.86983	-49.63387	-298.61689	-435.31345	0
513	17.08707	-52.07488	-68.34828	16.2734	42.31084	-59.39791	51.26121	39.05616	-25.22377	-44.75185	-296.17588	-430.43143	0
514	21.96909	-49.63387	-70.78929	13.83239	44.75185	-59.39791	53.70222	43.93818	-15.45973	-39.86983	-293.73487	-423.1084	0
515	19.52808	-49.63387	-68.34828	13.83239	42.31084	-59.39791	58.58424	48.8202	-5.69569	-32.5468	-288.85285	-413.34436	0
516	24.4101	-44.75185	-68.34828	8.95037	44.75185	-56.9569	61.02525	52.07488	1.62734	-27.66478	-288.85285	-408.46234	0
517	26.85111	-37.42882	-63.46626	4.06835	44.75185	-49.63387	63.46626	56.9569	8.95037	-22.78276	-288.85285	-403.58032	0
518	26.85111	-34.98781	-61.02525	4.06835	42.31084	-47.19286	65.90727	59.39791	11.39138	-20.34175	-288.85285	-393.81628	0
519	24.4101	-34.98781	-58.58424	4.06835	39.86983	-47.19286	65.90727	56.9569	8.95037	-20.34175	-288.85285	-386.49325	0
520	19.52808	-32.5468	-51.26121	6.50936	34.98781	-42.31084	70.78929	56.9569	8.95037	-20.34175	-286.41184	-374.2882	0
521	17.08707	-34.98781	-51.26121	8.95037	32.5468	-42.31084	75.67131	61.83892	13.83239	-17.90074	-286.41184	-366.96517	0
522	17.08707	-30.10579	-46.37919	6.50936	30.10579	-37.42882	80.55333	69.16195	19.52808	-13.01872	-286.41184	-359.64214	0
523	24.4101	-25.22377	-48.8202	0.81367	34.98781	-37.42882	87.87636	76.48498	34.17414	-5.69569	-283.97083	-344.99608	0
524	26.85111	-22.78276	-48.8202	-1.62734	37.42882	-34.98781	92.75838	81.367	43.93818	-0.81367	-276.6478	-330.35002	0
525	31.73313	-20.34175	-51.26121	-6.50936	39.86983	-34.98781	95.19939	83.80801	51.26121	8.95037	-269.32477	-318.14497	0
526	34.17414	-15.45973	-48.8202	-8.95037	39.86983	-32.5468	95.19939	83.80801	53.70222	13.83239	-269.32477	-313.26295	0
527	36.61515	-15.45973	-51.26121	-11.39138	42.31084	-32.5468	95.19939	83.80801	56.14323	16.2734	-269.32477	-305.93992	0
528	36.61515	-15.45973	-51.26121	-11.39138	42.31084	-32.5468	92.75838	83.80801	56.14323	13.83239	-269.32477	-293.73487	0
529	39.05616	-10.57771	-48.8202	-13.83239	42.31084	-30.10579	95.19939	81.367	51.26121	13.83239	-269.32477	-286.41184	0
530	39.05616	-5.69569	-43.93818	-16.2734	39.86983	-25.22377	97.6404	81.367	48.8202	13.83239	-269.32477	-276.6478	0
531	41.49717	-3.25468	-43.93818	-18.71441	42.31084	-22.78276	102.52242	86.24902	51.26121	11.39138	-269.32477	-271.76578	0
532	41.49717	0	-41.49717	-21.15542	42.31084	-20.34175	109.84545	93.57205	58.58424	13.83239	-269.32477	-264.44275	0
533	46.37919	9.76404	-36.61515	-28.47845	42.31084	-13.01872	112.28646	98.45407	68.34828	16.2734	-264.44275	-257.11972	0
534	53.70222	14.64606	-39.05616	-33.36047	47.19286	-13.01872	117.16848	103.33609	78.11232	26.03744	-254.67871	-247.35568	0
535	56.14323	21.96909	-34.17414	-38.24249	44.75185	-5.69569	117.16848	105.7771	85.43535	33.36047	-249.79669	-240.03265	0
536	53.70222	26.85111	-26.85111	-40.6835	39.86983	0	114.72747	103.33609	85.43535	33.36047	-247.35568	-232.70962	0
537	53.70222	29.29212	-24.4101	-40.6835	39.86983	2.44101	114.72747	98.45407	85.43535	35.80148	-242.47366	-225.38659	0
538	51.26121	31.73313	-19.52808	-40.6835	34.98781	7.32303	112.28646	91.13104	80.55333	33.36047	-240.03265	-215.62255	0
539	46.37919	26.85111	-19.52808	-35.80148	32.5468	4.88202	114.72747	83.80801	75.67131	33.36047	-242.47366	-205.85851	0
540	34.17414	12.20505	-21.96909	-23.59643	27.66478	-5.69569	114.72747	81.367	70.78929	28.47845	-249.79669	-191.21245	0
541	26.85111	9.76404	-17.08707	-18.71441	22.78276	-3.25468	119.60949	78.92599	70.78929	23.59643	-257.11972	-183.88942	0
542	19.52808	0	-19.52808	-8.95037	20.34175	-10.57771	122.0505	78.92599	73.2303	21.15542	-262.00174	-171.68437	0
543	12.20505	0	-12.20505	-6.50936	13.01872	-5.69569	122.0505	76.48498	78.11232	21.15542	-266.88376	-159.47932	0
544	7.32303	0	-7.32303	-4.06835	8.1367	-3.25468	122.0505	74.04397	82.99434	21.15542	-266.88376	-142.39225	0
545	7.32303	0	-7.32303	-4.06835	8.1367	-3.25468	119.60949	69.16195	85.43535	23.59643	-264.44275	-125.30518	0
546	7.32303	4.88202	-2.44101	-6.50936	5.69569	2.44101	117.16848	64.27993	82.99434	23.59643	-259.56073	-113.10013	0
547	4.88202	12.20505	8.1367	-8.95037	-2.44101	9.76404	114.72747	56.9569	75.67131	23.59643	-254.67871	-100.89508	0
548	4.88202	17.08707	13.01872	-11.39138	-4.88202	14.64606	112.28646	48.8202	70.78929	23.59643	-247.35568	-86.24902	0
549	4.88202	17.08707	13.01872	-11.39138	-4.88202	14.64606	112.28646	46.37919	63.46626	23.59643	-242.47366	-74.04397	0
550	2.44101	14.64606	13.01872	-8.95037	-4.88202	14.64606	117.16848	43.93818	58.58424	23.59643	-235.15063	-59.39791	0
551	7.32303	17.08707	10.57771	-11.39138	-2.44101	14.64606	122.0505	46.37919	58.58424	21.15542	-230.26861	-52.07488	0
552	9.76404	19.52808	10.57771	-13.83239	0	14.64606	129.37353	52.07488	63.46626	23.59643	-225.38659	-44.75185	0
553	7.32303	19.52808	13.01872	-13.83239	-2.44101	17.08707	134.25555	64.27993	75.67131	28.47845	-220.50457	-39.86983	0
554	7.32303	14.64606	8.1367	-11.39138	0	12.20505	141.57858	83.80801	95.19939	38.24249	-215.62255	-37.42882	0
555	9.76404	12.20505	3.25468	-11.39138	3.25468	7.32303	151.34262	122.86417	129.37353	60.21158	-203.4175	-30.10579	0
556	14.64606	4.88202	-9.76404	-8.95037	13.01872	-3.25468	165.98868	181.44841	180.63474	96.82673	-188.77144	-22.78276	0
557	19.52808	-3.25468	-21.96909	-8.95037	20.34175	-13.01872	183.07575	259.56073	248.98302	143.20592	-166.80235	-17.90074	0
558	24.4101	-13.01872	-36.61515	-6.50936	30.10579	-25.22377	200.16282	332.79103	319.77231	199.34915	-139.95124	-7.32303	0
559	43.93818	-22.78276	-65.90727	-11.39138	54.51589	-44.75185	207.48585	381.61123	378.35655	262.81541	-100.89508	14.64606	0
560	70.78929	-25.22377	-95.19939	-23.59643	81.367	-59.39791	202.60383	403.58032	427.17675	336.04571	-51.26121	46.37919	0
561	92.75838	-20.34175	-112.28646	-35.80148	100.89508	-66.72094	195.2808	410.90335	475.99695	421.48106	12.20505	82.99434	0
562	114.72747	-5.69569	-119.60949	-55.32956	115.54114	-61.83892	185.51676	406.02133	529.69917	536.20853	102.52242	131.81454	0
563	148.90161	17.08707	-131.81454	-82.18067	139.95124	-56.9569	168.42969	388.93426	593.16543	687.55115	234.33696	202.60383	0
564	185.51676	56.14323	-129.37353	-121.23683	157.03831	-37.42882	141.57858	371.84719	666.39573	882.83195	410.08968	302.68524	0
565	224.57292	97.6404	-126.93252	-160.29299	176.56639	-15.45973	119.60949	364.52416	756.7131	1112.28689	624.89856	419.85372	0
566	253.86504	144.01959	-109.84545	-199.34915	181.44841	17.08707	102.52242	364.52416	844.58946	1351.50587	851.91249	539.46321	0
567	275.83413	183.07575	-92.75838	-228.64127	183.88942	46.37919	80.55333	357.20113	920.26077	1590.72485	1093.57248	668.83674	0
568	297.80322	224.57292	-73.2303	-260.3744	186.33043	75.67131	24.4101	308.38093	951.9939	1790.074	1315.70439	793.32825	0
569	314.89029	263.62908	-51.26121	-289.66652	183.88942	107.40444	-59.39791	210.74053	908.05572	1890.15541	1462.16499	890.96865	0
570	317.3313	288.03918	-29.29212	-301.87157	174.12538	129.37353	-152.15629	59.39791	764.03613	1826.68915	1474.37004	939.78885	0
571	300.24423	290.48019	-9.76404	-294.54854	154.5973	141.57858	-254.67871	-139.13757	532.14018	1605.37091	1349.87853	925.14279	0
572	278.27514	290.48019	13.01872	-284.7845	132.62821	151.34262	-352.31911	-361.26948	246.54201	1270.95254	1130.18763	873.88158	0
573	251.42403	283.15716	32.5468	-267.69743	110.65912	158.66565	-445.07749	-566.31432	-37.42882	890.15498	856.79451	795.76926	0
574	222.13191	273.39312	52.07488	-248.16935	86.24902	163.54767	-513.42577	-737.18502	-305.93992	492.27035	546.78624	698.12886	0
575	185.51676	261.18807	76.48498	-223.75925	54.51589	168.42969	-540.27688	-864.11754	-532.95385	116.35481	234.33696	593.16543	0
576	141.57858	246.54201	105.7771	-194.46713	17.90074	175.75272	-540.27688	-942.22986	-694.06051	-177.38006	-17.08707	500.40705	0
577	107.40444	239.21898	132.62821	-172.49804	-12.20505	185.51676	-518.30779	-966.63996	-779.49586	-355.57379	-176.56639	434.49978	0
578	75.67131	241.65999	166.80235	-157.85198	-46.37919	205.04484	-486.57466	-944.67087	-794.14192	-438.56813	-269.32477	390.5616	0
579	51.26121	253.86504	203.4175	-152.96996	-75.67131	229.45494	-449.95951	-900.73269	-779.49586	-470.30126	-320.58598	356.38746	0
580	34.17414	268.5111	235.15063	-150.52895	-100.08141	251.42403	-410.90335	-851.91249	-755.08576	-487.38833	-357.20113	331.97736	0
581	19.52808	270.95211	252.2377	-145.64693	-117.16848	261.18807	-366.96517	-800.65128	-723.35263	-494.71136	-381.61123	310.00827	0
582	14.64606	268.5111	254.67871	-140.76491	-119.60949	261.18807	-325.468	-749.39007	-689.17849	-497.15237	-398.6983	290.48019	0
583	9.76404	263.62908	254.67871	-135.88289	-122.0505	258.74706	-288.85285	-700.56987	-650.12233	-492.27035	-413.34436	273.39312	0
584	7.32303	261.18807	254.67871	-133.44188	-124.49151	258.74706	-252.2377	-654.19068	-613.50718	-484.94732	-427.99042	253.86504	0
585	2.44101	251.42403	249.79669	-126.11885	-124.49151	251.42403	-215.62255	-605.37048	-572.01001	-470.30126	-435.31345	239.21898	0
586	-3.25468	227.01393	230.26861	-111.47279	-117.16848	227.01393	-176.56639	-558.99129	-532.95385	-450.77318	-435.31345	222.13191	0
587	-13.01872	202.60383	215.62255	-94.38572	-114.72747	207.48585	-139.95124	-510.17109	-489.01567	-428.80409	-430.43143	205.04484	0
588	-25.22377	173.31171	198.53548	-74.85764	-112.28646	185.51676	-105.7771	-463.7919	-447.5185	-399.51197	-418.22638	195.2808	0
589	-34.98781	151.34262	186.33043	-57.77057	-109.84545	168.42969	-71.60296	-417.41271	-406.02133	-362.89682	-403.58032	185.51676	0
590	-39.86983	134.25555	174.12538	-48.00653	-107.40444	153.78363	-39.86983	-371.03352	-366.96517	-331.16369	-386.49325	180.63474	0
591	-49.63387	114.72747	164.36134	-33.36047	-107.40444	139.13757	-10.57771	-329.53635	-327.90901	-304.31258	-379.17022	168.42969	0
592	-54.51589	97.6404	152.15629	-21.15542	-102.52242	124.49151	12.20505	-292.9212	-291.29386	-279.90248	-371.84719	161.10666	0
593	-56.9569	82.99434	139.95124	-13.83239	-97.6404	109.84545	29.29212	-266.07009	-259.56073	-257.93339	-366.96517	158.66565	0
594	-61.83892	73.2303	135.06922	-6.50936	-97.6404	102.52242	41.49717	-244.101	-240.03265	-243.28733	-362.08315	151.34262	0
595	-64.27993	68.34828	132.62821	-1.62734	-97.6404	100.08141	51.26121	-231.89595	-222.94558	-231.08228	-362.08315	153.78363	0
596	-64.27993	63.46626	127.74619	0.81367	-95.19939	95.19939	56.14323	-219.6909	-213.18154	-223.75925	-354.76012	163.54767	0
597	-59.39791	63.46626	122.86417	-1.62734	-90.31737	92.75838	65.90727	-209.92686	-200.97649	-213.99521	-342.55507	185.51676	0
598	-54.51589	68.34828	122.86417	-6.50936	-87.87636	95.19939	70.78929	-202.60383	-191.21245	-204.23117	-327.90901	209.92686	0
599	-52.07488	73.2303	125.30518	-11.39138	-87.87636	97.6404	78.11232	-195.2808	-183.88942	-189.58511	-313.26295	239.21898	0
600	-49.63387	78.11232	127.74619	-13.83239	-87.87636	102.52242	85.43535	-183.07575	-176.56639	-179.82107	-303.49891	270.95211	0
601	-44.75185	90.31737	135.06922	-23.59643	-90.31737	112.28646	90.31737	-175.75272	-169.24336	-177.38006	-298.61689	295.36221	0
602	-42.31084	92.75838	135.06922	-26.03744	-87.87636	112.28646	92.75838	-165.98868	-157.03831	-172.49804	-293.73487	317.3313	0
603	-49.63387	82.99434	132.62821	-16.2734	-90.31737	107.40444	92.75838	-165.98868	-149.71528	-167.61602	-291.29386	324.65433	0
604	-54.51589	75.67131	130.1872	-11.39138	-92.75838	102.52242	92.75838	-163.54767	-144.83326	-165.17501	-291.29386	331.97736	0
605	-56.9569	65.90727	122.86417	-4.06835	-90.31737	92.75838	92.75838	-163.54767	-139.95124	-165.17501	-288.85285	339.30039	0
606	-54.51589	65.90727	120.42316	-6.50936	-87.87636	92.75838	97.6404	-161.10666	-137.51023	-165.17501	-291.29386	339.30039	0
607	-49.63387	63.46626	113.10013	-6.50936	-80.55333	87.87636	102.52242	-161.10666	-135.06922	-165.17501	-286.41184	344.18241	0
608	-49.63387	58.58424	108.21811	-4.06835	-78.11232	82.99434	102.52242	-161.10666	-132.62821	-162.734	-286.41184	344.18241	0
609	-49.63387	65.90727	115.54114	-8.95037	-82.99434	90.31737	102.52242	-161.10666	-137.51023	-165.17501	-288.85285	344.18241	0
610	-47.19286	73.2303	120.42316	-13.83239	-82.99434	95.19939	104.96343	-156.22464	-137.51023	-162.734	-288.85285	351.50544	0
611	-47.19286	82.99434	130.1872	-18.71441	-87.87636	104.96343	104.96343	-151.34262	-135.06922	-162.734	-291.29386	356.38746	0
612	-52.07488	82.99434	135.06922	-16.2734	-92.75838	107.40444	102.52242	-148.90161	-130.1872	-160.29299	-291.29386	361.26948	0
613	-59.39791	78.11232	137.51023	-8.95037	-97.6404	107.40444	100.08141	-148.90161	-125.30518	-155.41097	-286.41184	371.03352	0
614	-64.27993	70.78929	135.06922	-4.06835	-100.08141	102.52242	97.6404	-146.4606	-122.86417	-148.08794	-281.52982	383.23857	0
615	-64.27993	65.90727	130.1872	-1.62734	-97.6404	97.6404	100.08141	-141.57858	-115.54114	-140.76491	-271.76578	395.44362	0
616	-66.72094	58.58424	125.30518	4.06835	-95.19939	90.31737	102.52242	-136.69656	-110.65912	-135.88289	-262.00174	405.20766	0
617	-64.27993	53.70222	117.98215	4.06835	-90.31737	85.43535	104.96343	-134.25555	-108.21811	-128.55986	-254.67871	414.9717	0
618	-56.9569	58.58424	115.54114	-1.62734	-85.43535	85.43535	109.84545	-131.81454	-105.7771	-126.11885	-249.79669	422.29473	0
619	-56.9569	65.90727	122.86417	-4.06835	-90.31737	92.75838	112.28646	-129.37353	-105.7771	-123.67784	-249.79669	432.05877	0
620	-56.9569	75.67131	132.62821	-8.95037	-95.19939	102.52242	117.16848	-124.49151	-105.7771	-126.11885	-254.67871	436.94079	0
621	-61.83892	78.11232	139.95124	-8.95037	-100.08141	107.40444	117.16848	-122.0505	-105.7771	-131.00087	-264.44275	441.82281	0
622	-59.39791	87.87636	147.27427	-13.83239	-102.52242	117.16848	117.16848	-122.0505	-105.7771	-131.00087	-271.76578	444.26382	0
623	-59.39791	97.6404	157.03831	-18.71441	-107.40444	126.93252	117.16848	-119.60949	-105.7771	-131.00087	-276.6478	446.70483	0
624	-64.27993	100.08141	164.36134	-18.71441	-114.72747	131.81454	117.16848	-119.60949	-105.7771	-131.00087	-281.52982	451.58685	0
625	-66.72094	104.96343	171.68437	-18.71441	-119.60949	136.69656	114.72747	-114.72747	-105.7771	-131.00087	-283.97083	456.46887	0
626	-69.16195	104.96343	174.12538	-18.71441	-122.0505	139.13757	112.28646	-112.28646	-103.33609	-131.00087	-286.41184	461.35089	0
627	-66.72094	107.40444	174.12538	-21.15542	-119.60949	139.13757	112.28646	-112.28646	-105.7771	-128.55986	-281.52982	463.7919	0
628	-69.16195	109.84545	179.0074	-21.15542	-124.49151	144.01959	112.28646	-107.40444	-103.33609	-128.55986	-276.6478	468.67392	0
629	-76.48498	102.52242	179.0074	-13.83239	-126.93252	139.13757	114.72747	-100.08141	-100.89508	-126.11885	-274.20679	475.99695	0
630	-81.367	95.19939	176.56639	-6.50936	-129.37353	134.25555	119.60949	-87.87636	-91.13104	-118.79582	-271.76578	483.31998	0
631	-86.24902	87.87636	174.12538	-1.62734	-129.37353	129.37353	119.60949	-75.67131	-81.367	-116.35481	-271.76578	488.202	0
632	-91.13104	78.11232	169.24336	6.50936	-129.37353	122.0505	119.60949	-65.90727	-74.04397	-111.47279	-274.20679	490.64301	0
633	-88.69003	75.67131	164.36134	6.50936	-126.93252	119.60949	122.0505	-53.70222	-61.83892	-104.14976	-271.76578	497.96604	0
634	-88.69003	73.2303	161.92033	6.50936	-124.49151	117.16848	124.49151	-41.49717	-52.07488	-94.38572	-274.20679	505.28907	0
635	-81.367	80.55333	161.92033	0.81367	-122.0505	119.60949	126.93252	-26.85111	-39.86983	-89.5037	-271.76578	510.17109	0
636	-76.48498	80.55333	157.03831	-1.62734	-117.16848	117.16848	129.37353	-14.64606	-32.5468	-84.62168	-271.76578	515.05311	0
637	-71.60296	82.99434	154.5973	-6.50936	-112.28646	117.16848	129.37353	-7.32303	-27.66478	-79.73966	-271.76578	517.49412	0
638	-71.60296	82.99434	154.5973	-6.50936	-112.28646	117.16848	129.37353	4.88202	-20.34175	-77.29865	-269.32477	519.93513	0
639	-69.16195	87.87636	157.03831	-8.95037	-112.28646	122.0505	129.37353	14.64606	-15.45973	-72.41663	-266.88376	527.25816	0
640	-69.16195	90.31737	159.47932	-11.39138	-114.72747	124.49151	134.25555	31.73313	-3.25468	-67.53461	-262.00174	534.58119	0
641	-71.60296	82.99434	154.5973	-6.50936	-112.28646	117.16848	136.69656	52.07488	11.39138	-57.77057	-257.11972	539.46321	0
642	-71.60296	78.11232	149.71528	-4.06835	-109.84545	112.28646	139.13757	69.16195	24.4101	-49.63387	-257.11972	546.78624	0
643	-74.04397	82.99434	157.03831	-4.06835	-114.72747	119.60949	134.25555	81.367	34.17414	-47.19286	-262.00174	546.78624	0
644	-71.60296	75.67131	147.27427	-1.62734	-109.84545	109.84545	134.25555	100.89508	48.8202	-37.42882	-259.56073	551.66826	0
645	-61.83892	73.2303	135.06922	-6.50936	-97.6404	102.52242	136.69656	122.86417	65.90727	-25.22377	-254.67871	556.55028	0
646	-61.83892	61.02525	122.86417	0.81367	-92.75838	90.31737	139.13757	142.39225	78.11232	-15.45973	-249.79669	558.99129	0
647	-59.39791	48.8202	108.21811	4.06835	-82.99434	78.11232	139.13757	161.92033	90.31737	-5.69569	-247.35568	558.99129	0
648	-56.9569	34.17414	91.13104	11.39138	-73.2303	61.02525	144.01959	179.0074	104.96343	4.06835	-235.15063	563.87331	0
649	-56.9569	17.08707	74.04397	18.71441	-65.90727	43.93818	153.78363	203.4175	122.0505	16.2734	-222.94558	573.63735	0
650	-59.39791	0	59.39791	28.47845	-58.58424	29.29212	161.10666	227.8276	141.57858	28.47845	-213.18154	578.51937	0
651	-66.72094	-13.01872	54.51589	38.24249	-61.02525	19.52808	163.54767	247.35568	156.22464	33.36047	-213.18154	576.07836	0
652	-76.48498	-30.10579	47.19286	52.88855	-63.46626	7.32303	165.98868	264.44275	170.8707	40.6835	-208.29952	573.63735	0
653	-76.48498	-34.98781	42.31084	55.32956	-61.02525	2.44101	165.98868	279.08881	185.51676	50.44754	-200.97649	576.07836	0
654	-78.92599	-39.86983	39.86983	57.77057	-61.02525	0	165.98868	291.29386	195.2808	57.77057	-191.21245	576.07836	0
655	-86.24902	-54.51589	32.5468	69.97562	-61.02525	-13.01872	163.54767	301.0579	205.04484	60.21158	-179.0074	573.63735	0
656	-86.24902	-64.27993	22.78276	74.85764	-56.14323	-22.78276	158.66565	310.82194	209.92686	65.0936	-161.92033	573.63735	0
657	-88.69003	-76.48498	13.01872	82.18067	-51.26121	-32.5468	158.66565	320.58598	214.80888	69.97562	-137.51023	576.07836	0
658	-86.24902	-88.69003	-2.44101	87.06269	-43.93818	-47.19286	156.22464	327.90901	217.24989	69.97562	-117.98215	578.51937	0
659	-88.69003	-98.45407	-9.76404	91.94471	-41.49717	-54.51589	153.78363	332.79103	214.80888	69.97562	-103.33609	578.51937	0
660	-88.69003	-105.7771	-17.08707	96.82673	-36.61515	-61.83892	153.78363	342.55507	219.6909	67.53461	-93.57205	580.96038	0
661	-86.24902	-115.54114	-29.29212	99.26774	-29.29212	-74.04397	151.34262	347.43709	219.6909	65.0936	-88.69003	583.40139	0
662	-88.69003	-125.30518	-36.61515	106.59077	-26.85111	-81.367	148.90161	349.8781	224.57292	65.0936	-86.24902	585.8424	0
663	-88.69003	-130.1872	-41.49717	109.03178	-24.4101	-86.24902	146.4606	349.8781	227.01393	65.0936	-86.24902	585.8424	0
664	-86.24902	-132.62821	-46.37919	109.03178	-21.96909	-91.13104	141.57858	349.8781	227.01393	69.97562	-86.24902	583.40139	0
665	-78.92599	-135.06922	-56.14323	106.59077	-12.20505	-96.01306	139.13757	349.8781	229.45494	69.97562	-86.24902	583.40139	0
666	-76.48498	-142.39225	-65.90727	109.03178	-7.32303	-105.7771	136.69656	347.43709	224.57292	69.97562	-83.80801	588.28341	0
667	-74.04397	-149.71528	-75.67131	111.47279	0	-113.10013	134.25555	344.99608	222.13191	74.85764	-74.04397	593.16543	0
668	-64.27993	-144.83326	-80.55333	104.14976	8.1367	-113.10013	129.37353	340.11406	219.6909	74.85764	-69.16195	595.60644	0
669	-54.51589	-139.95124	-85.43535	96.82673	15.45973	-113.10013	129.37353	340.11406	212.36787	74.85764	-69.16195	602.92947	0
670	-52.07488	-147.27427	-95.19939	99.26774	20.34175	-122.86417	129.37353	340.11406	212.36787	72.41663	-66.72094	610.2525	0
671	-47.19286	-152.15629	-104.96343	99.26774	27.66478	-130.1872	129.37353	337.67305	212.36787	74.85764	-64.27993	615.13452	0
672	-47.19286	-164.36134	-117.16848	104.14976	34.98781	-142.39225	126.93252	335.23204	214.80888	79.73966	-61.02525	617.57553	0
673	-47.19286	-176.56639	-129.37353	111.47279	39.86983	-154.5973	126.93252	327.90901	212.36787	79.73966	-61.02525	617.57553	0
674	-49.63387	-186.33043	-136.69656	116.35481	42.31084	-161.92033	124.49151	318.14497	202.60383	77.29865	-64.27993	617.57553	0
675	-52.07488	-200.97649	-148.90161	126.11885	47.19286	-176.56639	122.0505	308.38093	197.72181	72.41663	-61.02525	620.01654	0
676	-49.63387	-200.97649	-151.34262	123.67784	49.63387	-176.56639	117.16848	296.17588	187.95777	69.97562	-58.58424	624.89856	0
677	-44.75185	-188.77144	-144.01959	116.35481	49.63387	-166.80235	114.72747	279.08881	175.75272	67.53461	-56.14323	627.33957	0
678	-39.86983	-186.33043	-146.4606	111.47279	52.07488	-166.80235	114.72747	266.88376	168.42969	62.65259	-51.26121	634.6626	0
679	-37.42882	-179.0074	-141.57858	106.59077	52.07488	-161.92033	112.28646	254.67871	158.66565	57.77057	-48.8202	641.98563	0
680	-30.10579	-169.24336	-139.13757	99.26774	54.51589	-154.5973	112.28646	247.35568	156.22464	57.77057	-41.49717	649.30866	0
681	-22.78276	-161.92033	-139.13757	91.94471	56.9569	-152.15629	112.28646	242.47366	153.78363	62.65259	-31.73313	659.0727	0
682	-20.34175	-157.03831	-136.69656	87.06269	56.9569	-147.27427	112.28646	230.26861	151.34262	65.0936	-24.4101	659.0727	0
683	-25.22377	-157.03831	-131.81454	89.5037	52.07488	-144.83326	109.84545	218.06356	144.01959	67.53461	-17.08707	659.0727	0
684	-30.10579	-157.03831	-126.93252	91.94471	47.19286	-142.39225	104.96343	203.4175	129.37353	62.65259	-12.20505	661.51371	0
685	-37.42882	-154.5973	-117.16848	94.38572	39.86983	-137.51023	97.6404	188.77144	119.60949	60.21158	-9.76404	661.51371	0
686	-42.31084	-154.5973	-112.28646	96.82673	34.98781	-135.06922	92.75838	174.12538	104.96343	55.32956	-9.76404	659.0727	0
687	-49.63387	-157.03831	-107.40444	101.70875	27.66478	-132.62821	87.87636	157.03831	92.75838	48.00653	-12.20505	663.95472	0
688	-49.63387	-154.5973	-104.96343	101.70875	27.66478	-130.1872	92.75838	147.27427	82.99434	43.12451	-9.76404	671.27775	0
689	-44.75185	-154.5973	-109.84545	99.26774	32.5468	-132.62821	97.6404	139.95124	78.11232	43.12451	-4.88202	683.4828	0
690	-47.19286	-154.5973	-107.40444	99.26774	30.10579	-132.62821	104.96343	135.06922	75.67131	43.12451	-7.32303	690.80583	0
691	-44.75185	-149.71528	-104.96343	96.82673	30.10579	-127.74619	112.28646	127.74619	70.78929	40.6835	-9.76404	693.24684	0
692	-42.31084	-139.95124	-97.6404	89.5037	27.66478	-120.42316	114.72747	117.98215	65.90727	38.24249	-9.76404	698.12886	0
693	-42.31084	-132.62821	-90.31737	87.06269	22.78276	-113.10013	117.16848	110.65912	61.02525	35.80148	-7.32303	698.12886	0
694	-42.31084	-122.86417	-80.55333	82.18067	17.90074	-103.33609	117.16848	100.89508	53.70222	35.80148	-7.32303	695.68785	0
695	-49.63387	-115.54114	-65.90727	82.18067	8.1367	-91.13104	114.72747	88.69003	43.93818	28.47845	-9.76404	690.80583	0
696	-52.07488	-108.21811	-56.14323	79.73966	0	-83.80801	112.28646	78.92599	34.17414	21.15542	-7.32303	695.68785	0
697	-52.07488	-103.33609	-51.26121	77.29865	-2.44101	-78.92599	114.72747	71.60296	26.85111	21.15542	-2.44101	707.8929	0
698	-54.51589	-110.65912	-56.14323	82.18067	0	-83.80801	117.16848	66.72094	26.85111	21.15542	4.88202	720.09795	0
699	-59.39791	-117.98215	-58.58424	87.06269	-2.44101	-88.69003	122.0505	66.72094	24.4101	21.15542	7.32303	734.74401	0
700	-61.83892	-115.54114	-53.70222	87.06269	-4.88202	-86.24902	126.93252	69.16195	26.85111	18.71441	7.32303	749.39007	0
701	-61.83892	-115.54114	-53.70222	87.06269	-4.88202	-86.24902	134.25555	74.04397	31.73313	16.2734	9.76404	764.03613	0
702	-69.16195	-115.54114	-46.37919	91.94471	-12.20505	-81.367	136.69656	74.04397	31.73313	21.15542	12.20505	766.47714	0
703	-69.16195	-115.54114	-46.37919	91.94471	-12.20505	-81.367	139.13757	74.04397	34.17414	23.59643	9.76404	771.35916	0
704	-69.16195	-108.21811	-39.05616	87.06269	-17.08707	-74.04397	139.13757	74.04397	31.73313	26.03744	9.76404	771.35916	0
705	-69.16195	-91.13104	-21.96909	79.73966	-24.4101	-56.9569	136.69656	69.16195	26.85111	26.03744	12.20505	771.35916	0
706	-69.16195	-81.367	-12.20505	74.85764	-29.29212	-47.19286	136.69656	61.83892	19.52808	26.03744	14.64606	773.80017	0
707	-64.27993	-76.48498	-12.20505	69.97562	-26.85111	-44.75185	134.25555	56.9569	13.83239	30.91946	17.08707	776.24118	0
708	-61.83892	-76.48498	-14.64606	67.53461	-24.4101	-47.19286	134.25555	54.51589	13.83239	33.36047	19.52808	783.56421	0
709	-64.27993	-78.92599	-14.64606	69.97562	-26.85111	-47.19286	134.25555	52.07488	13.83239	35.80148	19.52808	790.88724	0
710	-66.72094	-81.367	-14.64606	72.41663	-26.85111	-49.63387	136.69656	54.51589	13.83239	38.24249	19.52808	800.65128	0
711	-61.83892	-81.367	-19.52808	69.97562	-21.96909	-52.07488	141.57858	61.83892	24.4101	45.56552	24.4101	812.85633	0
712	-61.83892	-78.92599	-17.08707	69.97562	-24.4101	-49.63387	141.57858	64.27993	29.29212	50.44754	21.96909	812.85633	0
713	-69.16195	-78.92599	-9.76404	72.41663	-31.73313	-44.75185	141.57858	61.83892	34.17414	52.88855	21.96909	810.41532	0
714	-71.60296	-76.48498	-4.88202	72.41663	-34.17414	-42.31084	139.13757	61.83892	34.17414	52.88855	21.96909	810.41532	0
715	-64.27993	-66.72094	-2.44101	65.0936	-31.73313	-34.98781	139.13757	61.83892	36.61515	57.77057	26.85111	812.85633	0
716	-61.83892	-59.39791	3.25468	60.21158	-34.17414	-30.10579	139.13757	61.83892	36.61515	62.65259	31.73313	815.29734	0
717	-66.72094	-54.51589	13.01872	60.21158	-41.49717	-22.78276	134.25555	56.9569	31.73313	60.21158	34.17414	815.29734	0
718	-66.72094	-54.51589	13.01872	60.21158	-41.49717	-22.78276	131.81454	48.8202	26.85111	57.77057	39.05616	822.62037	0
719	-64.27993	-61.83892	3.25468	62.65259	-34.17414	-30.10579	136.69656	52.07488	26.85111	65.0936	48.8202	837.26643	0
720	-56.9569	-59.39791	-2.44101	57.77057	-29.29212	-32.5468	139.13757	56.9569	31.73313	69.97562	56.14323	849.47148	0
721	-54.51589	-59.39791	-4.88202	55.32956	-26.85111	-32.5468	144.01959	59.39791	36.61515	67.53461	51.26121	854.3535	0
722	-54.51589	-56.9569	-2.44101	55.32956	-26.85111	-30.10579	144.01959	59.39791	39.05616	67.53461	46.37919	859.23552	0
723	-47.19286	-61.83892	-14.64606	52.88855	-17.08707	-39.86983	148.90161	61.83892	46.37919	74.85764	51.26121	866.55855	0
724	-42.31084	-66.72094	-24.4101	52.88855	-9.76404	-47.19286	151.34262	66.72094	53.70222	84.62168	53.70222	873.88158	0
725	-39.86983	-66.72094	-26.85111	52.88855	-7.32303	-47.19286	151.34262	69.16195	58.58424	87.06269	56.14323	876.32259	0
726	-39.86983	-64.27993	-24.4101	50.44754	-9.76404	-44.75185	151.34262	69.16195	56.14323	89.5037	61.02525	876.32259	0
727	-47.19286	-64.27993	-17.08707	55.32956	-17.08707	-42.31084	153.78363	66.72094	53.70222	91.94471	68.34828	878.7636	0
728	-44.75185	-61.83892	-17.08707	52.88855	-14.64606	-39.86983	158.66565	69.16195	58.58424	99.26774	82.99434	888.52764	0
729	-44.75185	-54.51589	-9.76404	48.00653	-19.52808	-32.5468	161.10666	66.72094	56.14323	99.26774	87.87636	895.85067	0
730	-49.63387	-49.63387	0.81367	48.00653	-26.85111	-25.22377	161.10666	69.16195	58.58424	99.26774	90.31737	900.73269	0
731	-49.63387	-49.63387	0.81367	48.00653	-26.85111	-25.22377	165.98868	71.60296	63.46626	99.26774	92.75838	908.05572	0
732	-44.75185	-49.63387	-4.88202	45.56552	-21.96909	-27.66478	170.8707	76.48498	70.78929	106.59077	97.6404	917.81976	0
733	-44.75185	-56.9569	-12.20505	50.44754	-17.08707	-34.98781	173.31171	81.367	78.11232	111.47279	104.96343	925.14279	0
734	-44.75185	-61.83892	-17.08707	52.88855	-14.64606	-39.86983	175.75272	81.367	80.55333	116.35481	104.96343	932.46582	0
735	-42.31084	-69.16195	-26.85111	55.32956	-9.76404	-49.63387	175.75272	83.80801	85.43535	118.79582	112.28646	939.78885	0
736	-37.42882	-71.60296	-34.17414	52.88855	-2.44101	-54.51589	180.63474	86.24902	85.43535	123.67784	117.16848	944.67087	0
737	-37.42882	-69.16195	-31.73313	52.88855	-4.88202	-52.07488	178.19373	78.92599	80.55333	123.67784	119.60949	949.55289	0
738	-39.86983	-61.83892	-21.96909	50.44754	-9.76404	-42.31084	175.75272	74.04397	78.11232	121.23683	126.93252	956.87592	0
739	-39.86983	-54.51589	-14.64606	45.56552	-14.64606	-34.98781	175.75272	69.16195	73.2303	116.35481	126.93252	964.19895	0
740	-37.42882	-49.63387	-12.20505	43.12451	-14.64606	-32.5468	178.19373	69.16195	73.2303	116.35481	131.81454	978.84501	0
741	-37.42882	-49.63387	-12.20505	43.12451	-14.64606	-32.5468	180.63474	69.16195	73.2303	116.35481	134.25555	988.60905	0
742	-27.66478	-42.31084	-14.64606	33.36047	-7.32303	-30.10579	183.07575	71.60296	78.11232	118.79582	139.13757	998.37309	0
743	-22.78276	-34.98781	-12.20505	28.47845	-7.32303	-25.22377	185.51676	71.60296	80.55333	121.23683	146.4606	1008.13713	0
744	-20.34175	-39.86983	-19.52808	28.47845	-2.44101	-30.10579	187.95777	71.60296	80.55333	123.67784	148.90161	1015.46016	0
745	-25.22377	-44.75185	-19.52808	33.36047	-4.88202	-32.5468	185.51676	69.16195	75.67131	123.67784	148.90161	1022.78319	0
746	-30.10579	-44.75185	-14.64606	35.80148	-9.76404	-30.10579	180.63474	59.39791	65.90727	116.35481	146.4606	1025.2242	0
747	-30.10579	-44.75185	-14.64606	35.80148	-9.76404	-30.10579	178.19373	52.07488	58.58424	113.9138	148.90161	1032.54723	0
748	-37.42882	-47.19286	-9.76404	40.6835	-14.64606	-30.10579	175.75272	48.8202	53.70222	111.47279	151.34262	1042.31127	0
749	-39.86983	-49.63387	-9.76404	43.12451	-17.08707	-30.10579	175.75272	43.93818	46.37919	109.03178	151.34262	1054.51632	0
750	-34.98781	-47.19286	-12.20505	40.6835	-12.20505	-30.10579	170.8707	39.05616	41.49717	101.70875	148.90161	1064.28036	0
751	-30.10579	-47.19286	-17.08707	38.24249	-7.32303	-32.5468	170.8707	36.61515	41.49717	101.70875	146.4606	1076.48541	0
752	-27.66478	-47.19286	-19.52808	35.80148	-4.88202	-34.98781	175.75272	39.05616	48.8202	109.03178	153.78363	1088.69046	0
753	-22.78276	-42.31084	-19.52808	30.91946	-2.44101	-32.5468	175.75272	39.05616	51.26121	113.9138	156.22464	1100.89551	0
754	-20.34175	-32.5468	-12.20505	26.03744	-4.88202	-22.78276	173.31171	34.17414	46.37919	113.9138	153.78363	1110.65955	0
755	-20.34175	-27.66478	-7.32303	23.59643	-7.32303	-17.90074	168.42969	26.85111	41.49717	111.47279	153.78363	1120.42359	0
756	-22.78276	-27.66478	-4.88202	23.59643	-9.76404	-17.90074	168.42969	24.4101	39.05616	111.47279	158.66565	1137.51066	0
757	-27.66478	-30.10579	-2.44101	28.47845	-14.64606	-17.90074	168.42969	24.4101	34.17414	111.47279	163.54767	1154.59773	0
758	-25.22377	-25.22377	0.81367	23.59643	-14.64606	-13.01872	165.98868	17.08707	29.29212	109.03178	165.98868	1169.24379	0
759	-25.22377	-25.22377	0.81367	23.59643	-14.64606	-13.01872	163.54767	12.20505	21.96909	109.03178	170.8707	1186.33086	0
760	-22.78276	-30.10579	-7.32303	26.03744	-9.76404	-20.34175	165.98868	14.64606	26.85111	113.9138	178.19373	1205.85894	0
761	-20.34175	-34.98781	-14.64606	26.03744	-4.88202	-25.22377	165.98868	19.52808	31.73313	118.79582	183.07575	1220.505	0
762	-17.90074	-34.98781	-17.08707	26.03744	-2.44101	-27.66478	165.98868	19.52808	36.61515	121.23683	183.07575	1230.26904	0
763	-17.90074	-27.66478	-9.76404	21.15542	-4.88202	-20.34175	163.54767	17.08707	39.05616	126.11885	190.39878	1235.15106	0
764	-15.45973	-25.22377	-9.76404	18.71441	-4.88202	-17.90074	163.54767	14.64606	36.61515	128.55986	192.83979	1242.47409	0
765	-17.90074	-27.66478	-9.76404	21.15542	-4.88202	-20.34175	165.98868	12.20505	36.61515	126.11885	195.2808	1247.35611	0
766	-20.34175	-30.10579	-9.76404	23.59643	-7.32303	-20.34175	165.98868	12.20505	31.73313	121.23683	192.83979	1249.79712	0
767	-27.66478	-34.98781	-7.32303	30.91946	-12.20505	-22.78276	163.54767	2.44101	24.4101	113.9138	192.83979	1252.23813	0
768	-30.10579	-37.42882	-7.32303	33.36047	-12.20505	-22.78276	163.54767	-7.32303	19.52808	113.9138	197.72181	1259.56116	0
769	-30.10579	-37.42882	-7.32303	33.36047	-12.20505	-22.78276	165.98868	-9.76404	17.08707	113.9138	205.04484	1269.3252	0
770	-27.66478	-32.5468	-4.88202	28.47845	-12.20505	-20.34175	168.42969	-12.20505	17.08707	113.9138	207.48585	1279.08924	0
771	-25.22377	-32.5468	-7.32303	28.47845	-9.76404	-20.34175	168.42969	-12.20505	19.52808	113.9138	212.36787	1283.97126	0
772	-20.34175	-27.66478	-7.32303	23.59643	-7.32303	-17.90074	168.42969	-12.20505	24.4101	118.79582	217.24989	1288.85328	0
773	-15.45973	-30.10579	-14.64606	21.15542	-2.44101	-22.78276	173.31171	-7.32303	29.29212	126.11885	222.13191	1296.17631	0
774	-8.1367	-25.22377	-17.08707	16.2734	3.25468	-22.78276	175.75272	-2.44101	31.73313	131.00087	224.57292	1303.49934	0
775	-5.69569	-25.22377	-19.52808	13.83239	5.69569	-22.78276	175.75272	-2.44101	34.17414	133.44188	229.45494	1308.38136	0
776	-5.69569	-27.66478	-21.96909	16.2734	8.1367	-25.22377	175.75272	-2.44101	31.73313	138.3239	234.33696	1313.26338	0
777	-5.69569	-30.10579	-24.4101	16.2734	8.1367	-27.66478	178.19373	-7.32303	29.29212	143.20592	241.65999	1323.02742	0
778	-8.1367	-27.66478	-19.52808	16.2734	5.69569	-25.22377	178.19373	-12.20505	26.85111	143.20592	248.98302	1332.79146	0
779	-8.1367	-27.66478	-19.52808	16.2734	5.69569	-25.22377	178.19373	-21.96909	21.96909	145.64693	253.86504	1342.5555	0
780	-5.69569	-27.66478	-21.96909	16.2734	8.1367	-25.22377	178.19373	-26.85111	21.96909	148.08794	261.18807	1352.31954	0
781	-10.57771	-30.10579	-19.52808	18.71441	3.25468	-25.22377	178.19373	-26.85111	21.96909	148.08794	261.18807	1357.20156	0
782	-15.45973	-34.98781	-19.52808	23.59643	0	-27.66478	178.19373	-29.29212	21.96909	148.08794	261.18807	1362.08358	0
783	-22.78276	-37.42882	-14.64606	28.47845	-4.88202	-27.66478	178.19373	-29.29212	24.4101	148.08794	258.74706	1364.52459	0
784	-25.22377	-39.86983	-14.64606	30.91946	-7.32303	-27.66478	178.19373	-29.29212	19.52808	143.20592	251.42403	1364.52459	0
785	-30.10579	-39.86983	-9.76404	33.36047	-12.20505	-25.22377	178.19373	-31.73313	17.08707	131.00087	241.65999	1364.52459	0
786	-34.98781	-37.42882	-2.44101	35.80148	-17.08707	-20.34175	178.19373	-39.05616	8.95037	123.67784	231.89595	1366.9656	0
787	-32.5468	-34.98781	-2.44101	33.36047	-17.08707	-20.34175	178.19373	-43.93818	4.06835	121.23683	229.45494	1371.84762	0
788	-30.10579	-30.10579	0.81367	28.47845	-17.08707	-15.45973	178.19373	-51.26121	-0.81367	118.79582	231.89595	1381.61166	0
789	-32.5468	-34.98781	-2.44101	33.36047	-17.08707	-20.34175	175.75272	-56.14323	-5.69569	116.35481	229.45494	1391.3757	0
790	-32.5468	-44.75185	-12.20505	38.24249	-12.20505	-30.10579	178.19373	-58.58424	-3.25468	118.79582	231.89595	1403.58075	0
791	-32.5468	-52.07488	-19.52808	40.6835	-7.32303	-37.42882	175.75272	-58.58424	-3.25468	126.11885	236.77797	1413.34479	0
792	-32.5468	-56.9569	-24.4101	43.12451	-4.88202	-42.31084	175.75272	-56.14323	4.06835	133.44188	241.65999	1420.66782	0
793	-32.5468	-56.9569	-24.4101	43.12451	-4.88202	-42.31084	175.75272	-51.26121	8.95037	138.3239	246.54201	1427.99085	0
794	-32.5468	-61.83892	-29.29212	45.56552	-2.44101	-47.19286	173.31171	-48.8202	11.39138	138.3239	241.65999	1430.43186	0
795	-32.5468	-59.39791	-26.85111	45.56552	-4.88202	-44.75185	173.31171	-46.37919	11.39138	133.44188	239.21898	1437.75489	0
796	-34.98781	-49.63387	-14.64606	40.6835	-12.20505	-32.5468	168.42969	-51.26121	6.50936	131.00087	236.77797	1442.63691	0
797	-34.98781	-49.63387	-14.64606	40.6835	-12.20505	-32.5468	168.42969	-53.70222	6.50936	135.88289	244.101	1452.40095	0
798	-34.98781	-47.19286	-12.20505	40.6835	-12.20505	-30.10579	170.8707	-56.14323	8.95037	138.3239	246.54201	1464.606	0
799	-34.98781	-49.63387	-14.64606	40.6835	-12.20505	-32.5468	170.8707	-61.02525	4.06835	133.44188	246.54201	1474.37004	0
800	-34.98781	-49.63387	-14.64606	40.6835	-12.20505	-32.5468	168.42969	-65.90727	1.62734	133.44188	246.54201	1486.57509	0
801	-32.5468	-56.9569	-24.4101	43.12451	-4.88202	-42.31084	173.31171	-63.46626	6.50936	135.88289	251.42403	1501.22115	0
802	-25.22377	-59.39791	-34.17414	40.6835	3.25468	-47.19286	175.75272	-63.46626	11.39138	138.3239	256.30605	1506.10317	0
803	-22.78276	-61.83892	-39.05616	40.6835	8.1367	-52.07488	178.19373	-63.46626	11.39138	138.3239	256.30605	1510.98519	0
804	-17.90074	-66.72094	-48.8202	40.6835	15.45973	-59.39791	178.19373	-61.02525	11.39138	133.44188	256.30605	1515.86721	0
805	-15.45973	-71.60296	-56.14323	43.12451	20.34175	-64.27993	180.63474	-58.58424	13.83239	131.00087	256.30605	1525.63125	0
806	-15.45973	-74.04397	-58.58424	43.12451	20.34175	-66.72094	183.07575	-56.14323	13.83239	131.00087	258.74706	1530.51327	0
807	-13.01872	-71.60296	-58.58424	40.6835	22.78276	-66.72094	183.07575	-58.58424	13.83239	135.88289	266.07009	1535.39529	0
808	-13.01872	-69.16195	-56.14323	40.6835	20.34175	-64.27993	183.07575	-63.46626	13.83239	138.3239	270.95211	1542.71832	0
809	-17.90074	-64.27993	-46.37919	40.6835	13.01872	-56.9569	180.63474	-65.90727	13.83239	140.76491	268.5111	1547.60034	0
810	-22.78276	-59.39791	-36.61515	40.6835	5.69569	-49.63387	180.63474	-70.78929	13.83239	135.88289	266.07009	1552.48236	0
811	-30.10579	-56.9569	-26.85111	43.12451	-2.44101	-42.31084	175.75272	-75.67131	13.83239	133.44188	261.18807	1550.04135	0
812	-32.5468	-56.9569	-24.4101	43.12451	-4.88202	-42.31084	173.31171	-80.55333	13.83239	133.44188	261.18807	1547.60034	0
813	-30.10579	-54.51589	-24.4101	40.6835	-4.88202	-39.86983	173.31171	-78.11232	17.08707	135.88289	263.62908	1552.48236	0
814	-30.10579	-52.07488	-21.96909	40.6835	-4.88202	-37.42882	168.42969	-75.67131	17.08707	131.00087	261.18807	1554.92337	0
815	-32.5468	-56.9569	-24.4101	43.12451	-4.88202	-42.31084	168.42969	-70.78929	19.52808	126.11885	258.74706	1562.2464	0
816	-27.66478	-69.16195	-41.49717	48.00653	5.69569	-56.9569	173.31171	-63.46626	24.4101	128.55986	266.07009	1569.56943	0
817	-17.90074	-64.27993	-46.37919	40.6835	13.01872	-56.9569	178.19373	-61.02525	26.85111	133.44188	275.83413	1576.89246	0
818	-10.57771	-56.9569	-46.37919	33.36047	17.90074	-52.07488	183.07575	-56.14323	31.73313	138.3239	285.59817	1586.6565	0
819	-10.57771	-54.51589	-43.93818	30.91946	15.45973	-49.63387	183.07575	-56.14323	36.61515	140.76491	288.03918	1591.53852	0
820	-20.34175	-61.83892	-41.49717	40.6835	10.57771	-52.07488	183.07575	-51.26121	46.37919	145.64693	292.9212	1591.53852	0
821	-13.01872	-61.83892	-48.8202	35.80148	17.90074	-56.9569	187.95777	-31.73313	65.90727	160.29299	302.68524	1591.53852	0
822	-10.57771	-61.83892	-51.26121	35.80148	20.34175	-56.9569	192.83979	2.44101	97.6404	174.93905	310.00827	1589.09751	0
823	-10.57771	-66.72094	-56.14323	38.24249	22.78276	-61.83892	202.60383	56.9569	148.90161	206.67218	324.65433	1589.09751	0
824	-10.57771	-86.24902	-75.67131	48.00653	32.5468	-81.367	217.24989	130.1872	212.36787	245.72834	341.7414	1591.53852	0
825	-0.81367	-103.33609	-102.52242	50.44754	49.63387	-103.33609	234.33696	210.74053	283.15716	296.98955	368.59251	1601.30256	0
826	21.96909	-115.54114	-136.69656	45.56552	78.92599	-125.30518	241.65999	274.20679	349.06443	358.0148	402.76665	1613.50761	0
827	43.93818	-117.98215	-161.10666	35.80148	100.89508	-139.95124	239.21898	305.93992	405.20766	433.68611	454.02786	1637.91771	0
828	68.34828	-117.98215	-185.51676	23.59643	125.30518	-152.15629	227.01393	315.70396	461.35089	531.32651	532.14018	1676.1602	0
829	100.08141	-100.89508	-200.16282	0.81367	149.71528	-149.71528	209.92686	310.82194	515.05311	650.936	632.22159	1727.42141	0
830	134.25555	-69.16195	-202.60383	-33.36047	166.80235	-135.06922	187.95777	291.29386	576.07836	804.71963	768.91815	1795.76969	0
831	178.19373	-22.78276	-200.16282	-77.29865	188.77144	-110.65912	161.10666	281.52982	651.74967	1007.32346	959.31693	1886.08706	0
832	219.6909	31.73313	-187.95777	-126.11885	203.4175	-78.92599	136.69656	264.44275	737.18502	1236.7784	1183.88985	1993.4915	0
833	251.42403	80.55333	-170.8707	-165.17501	210.74053	-44.75185	109.84545	252.2377	812.85633	1466.23334	1418.22681	2103.33695	0
834	270.95211	117.16848	-153.78363	-194.46713	213.18154	-17.90074	87.87636	237.59164	873.88158	1685.11057	1651.7501	2222.94644	0
835	288.03918	158.66565	-129.37353	-223.75925	208.29952	14.64606	53.70222	188.77144	893.40966	1860.86329	1864.11797	2335.2329	0
836	295.36221	192.83979	-102.52242	-243.28733	198.53548	46.37919	-8.1367	76.48498	825.06138	1921.88854	1986.16847	2418.22724	0
837	288.03918	209.92686	-78.11232	-248.16935	183.88942	65.90727	-91.13104	-100.08141	651.74967	1809.60208	1959.31736	2445.07835	0
838	261.18807	205.04484	-56.14323	-233.52329	159.47932	75.67131	-186.33043	-324.65433	393.00261	1544.34566	1795.76969	2415.78623	0
839	229.45494	185.51676	-43.93818	-206.67218	137.51023	70.78929	-274.20679	-568.75533	85.43535	1183.07618	1547.60034	2354.76098	0
840	202.60383	178.19373	-24.4101	-189.58511	113.10013	78.11232	-354.76012	-793.32825	-215.62255	790.07357	1257.12015	2266.88462	0
841	168.42969	178.19373	10.57771	-172.49804	78.92599	95.19939	-427.99042	-988.60905	-501.22072	379.98389	932.46582	2149.71614	0
842	122.0505	156.22464	34.98781	-138.3239	44.75185	95.19939	-469.48759	-1122.8646	-725.79364	18.71441	634.6626	2034.98867	0
843	80.55333	146.4606	66.72094	-113.9138	8.1367	107.40444	-481.69264	-1188.77187	-864.93121	-231.08228	417.41271	1939.78928	0
844	53.70222	153.78363	100.89508	-104.14976	-24.4101	126.93252	-469.48759	-1193.65389	-923.51545	-375.10187	285.59817	1878.76403	0
845	31.73313	175.75272	144.83326	-104.14976	-56.14323	161.10666	-445.07749	-1149.71571	-918.63343	-433.68611	214.80888	1839.70787	0
846	9.76404	192.83979	183.88942	-101.70875	-87.87636	187.95777	-410.90335	-1083.80844	-884.45929	-450.77318	175.75272	1812.85676	0
847	-3.25468	202.60383	205.85851	-99.26774	-104.96343	202.60383	-374.2882	-1020.34218	-842.96212	-458.09621	151.34262	1793.32868	0
848	-5.69569	222.13191	227.8276	-109.03178	-117.16848	224.57292	-340.11406	-954.43491	-799.02394	-453.21419	136.69656	1781.12363	0
849	-3.25468	239.21898	242.47366	-118.79582	-122.0505	239.21898	-305.93992	-898.29168	-759.96778	-458.09621	109.84545	1759.15454	0
850	-0.81367	234.33696	235.15063	-116.35481	-117.16848	234.33696	-266.88376	-839.70744	-720.91162	-458.09621	87.87636	1734.74444	0
851	-10.57771	219.6909	230.26861	-104.14976	-119.60949	224.57292	-227.8276	-783.56421	-679.41445	-443.45015	78.11232	1705.45232	0
852	-15.45973	205.04484	220.50457	-94.38572	-117.16848	212.36787	-188.77144	-732.303	-633.03526	-428.80409	75.67131	1676.1602	0
853	-22.78276	185.51676	208.29952	-82.18067	-114.72747	195.2808	-147.27427	-671.27775	-584.21506	-404.39399	80.55333	1647.68175	0
854	-34.98781	158.66565	193.65346	-62.65259	-114.72747	175.75272	-105.7771	-607.81149	-535.39486	-379.98389	85.43535	1620.83064	0
855	-44.75185	124.49151	169.24336	-40.6835	-107.40444	146.4606	-66.72094	-546.78624	-484.13365	-353.13278	100.08141	1601.30256	0
856	-54.51589	100.08141	154.5973	-23.59643	-104.96343	126.93252	-27.66478	-488.202	-435.31345	-318.95864	117.16848	1589.09751	0
857	-59.39791	87.87636	147.27427	-13.83239	-102.52242	117.16848	1.62734	-439.3818	-391.37527	-289.66652	131.81454	1579.33347	0
858	-61.83892	80.55333	142.39225	-8.95037	-102.52242	109.84545	26.85111	-395.44362	-349.8781	-260.3744	146.4606	1572.01044	0
859	-59.39791	85.43535	144.83326	-13.83239	-102.52242	114.72747	48.8202	-358.82847	-315.70396	-235.9643	156.22464	1567.12842	0
860	-64.27993	85.43535	149.71528	-11.39138	-107.40444	117.16848	63.46626	-336.85938	-291.29386	-213.99521	163.54767	1559.80539	0
861	-66.72094	82.99434	149.71528	-8.95037	-107.40444	114.72747	75.67131	-317.3313	-269.32477	-192.02612	175.75272	1552.48236	0
862	-69.16195	87.87636	157.03831	-8.95037	-112.28646	122.0505	82.99434	-302.68524	-252.2377	-179.82107	178.19373	1542.71832	0
863	-69.16195	90.31737	159.47932	-11.39138	-114.72747	124.49151	87.87636	-292.9212	-240.03265	-174.93905	180.63474	1530.51327	0
864	-71.60296	90.31737	161.92033	-8.95037	-117.16848	124.49151	92.75838	-283.15716	-235.15063	-172.49804	180.63474	1520.74923	0
865	-74.04397	85.43535	159.47932	-6.50936	-117.16848	122.0505	92.75838	-275.83413	-230.26861	-174.93905	180.63474	1513.4262	0
866	-76.48498	78.11232	154.5973	-1.62734	-114.72747	114.72747	97.6404	-266.07009	-227.8276	-172.49804	180.63474	1510.98519	0
867	-74.04397	80.55333	154.5973	-4.06835	-114.72747	117.16848	100.08141	-261.18807	-225.38659	-179.82107	175.75272	1506.10317	0
868	-69.16195	80.55333	149.71528	-6.50936	-109.84545	114.72747	100.08141	-261.18807	-225.38659	-184.70309	168.42969	1506.10317	0
869	-69.16195	75.67131	144.83326	-4.06835	-107.40444	109.84545	100.08141	-258.74706	-220.50457	-177.38006	170.8707	1506.10317	0
870	-71.60296	73.2303	144.83326	-1.62734	-107.40444	107.40444	95.19939	-263.62908	-218.06356	-172.49804	173.31171	1506.10317	0
871	-74.04397	75.67131	149.71528	-1.62734	-112.28646	112.28646	90.31737	-266.07009	-215.62255	-170.05703	178.19373	1503.66216	0
872	-76.48498	82.99434	159.47932	-4.06835	-117.16848	119.60949	82.99434	-273.39312	-215.62255	-172.49804	175.75272	1493.89812	0
873	-76.48498	80.55333	157.03831	-1.62734	-117.16848	117.16848	80.55333	-275.83413	-218.06356	-177.38006	173.31171	1481.69307	0
874	-78.92599	78.11232	157.03831	0.81367	-117.16848	117.16848	78.11232	-270.95211	-215.62255	-177.38006	173.31171	1474.37004	0
875	-76.48498	82.99434	159.47932	-4.06835	-117.16848	119.60949	73.2303	-270.95211	-215.62255	-179.82107	168.42969	1464.606	0
876	-76.48498	90.31737	166.80235	-6.50936	-122.0505	126.93252	68.34828	-273.39312	-220.50457	-187.1441	158.66565	1452.40095	0
877	-78.92599	85.43535	164.36134	-4.06835	-122.0505	124.49151	70.78929	-273.39312	-220.50457	-189.58511	156.22464	1447.51893	0
878	-78.92599	82.99434	161.92033	-1.62734	-119.60949	122.0505	70.78929	-273.39312	-220.50457	-189.58511	151.34262	1445.07792	0
879	-74.04397	90.31737	164.36134	-8.95037	-119.60949	126.93252	70.78929	-270.95211	-215.62255	-184.70309	148.90161	1440.1959	0
880	-81.367	92.75838	174.12538	-6.50936	-126.93252	131.81454	61.02525	-278.27514	-220.50457	-187.1441	139.13757	1432.87287	0
881	-78.92599	90.31737	169.24336	-6.50936	-124.49151	129.37353	53.70222	-280.71615	-222.94558	-189.58511	131.81454	1420.66782	0
882	-76.48498	97.6404	174.12538	-11.39138	-124.49151	134.25555	48.8202	-283.15716	-220.50457	-189.58511	129.37353	1410.90378	0
883	-76.48498	100.08141	176.56639	-11.39138	-126.93252	136.69656	43.93818	-280.71615	-218.06356	-184.70309	129.37353	1393.81671	0
884	-69.16195	107.40444	176.56639	-18.71441	-122.0505	141.57858	36.61515	-273.39312	-210.74053	-172.49804	139.13757	1384.05267	0
885	-71.60296	104.96343	176.56639	-16.2734	-124.49151	139.13757	29.29212	-266.07009	-208.29952	-170.05703	144.01959	1369.40661	0
886	-69.16195	104.96343	174.12538	-18.71441	-122.0505	139.13757	26.85111	-258.74706	-208.29952	-170.05703	146.4606	1357.20156	0
887	-61.83892	109.84545	171.68437	-23.59643	-117.16848	139.13757	29.29212	-253.86504	-200.97649	-165.17501	153.78363	1347.43752	0
888	-69.16195	107.40444	176.56639	-18.71441	-122.0505	141.57858	29.29212	-248.98302	-198.53548	-162.734	156.22464	1335.23247	0
889	-74.04397	95.19939	169.24336	-11.39138	-122.0505	131.81454	29.29212	-241.65999	-193.65346	-160.29299	158.66565	1320.58641	0
890	-74.04397	90.31737	164.36134	-8.95037	-119.60949	126.93252	29.29212	-239.21898	-191.21245	-167.61602	148.90161	1305.94035	0
891	-76.48498	85.43535	161.92033	-4.06835	-119.60949	122.0505	31.73313	-236.77797	-196.09447	-177.38006	134.25555	1281.53025	0
892	-78.92599	78.11232	157.03831	0.81367	-117.16848	117.16848	36.61515	-234.33696	-193.65346	-179.82107	131.81454	1264.44318	0
893	-81.367	70.78929	152.15629	4.06835	-117.16848	109.84545	36.61515	-227.01393	-188.77144	-174.93905	134.25555	1244.9151	0
894	-83.80801	70.78929	154.5973	6.50936	-119.60949	112.28646	34.17414	-217.24989	-183.88942	-174.93905	134.25555	1225.38702	0
895	-76.48498	73.2303	149.71528	0.81367	-112.28646	109.84545	31.73313	-205.04484	-179.0074	-179.82107	129.37353	1208.29995	0
896	-69.16195	73.2303	142.39225	-1.62734	-104.96343	107.40444	29.29212	-195.2808	-176.56639	-177.38006	131.81454	1193.65389	0
897	-64.27993	68.34828	132.62821	-1.62734	-97.6404	100.08141	24.4101	-190.39878	-169.24336	-170.05703	139.13757	1186.33086	0
898	-61.83892	68.34828	130.1872	-4.06835	-95.19939	97.6404	19.52808	-183.07575	-161.92033	-160.29299	148.90161	1179.00783	0
899	-56.9569	75.67131	132.62821	-8.95037	-95.19939	102.52242	12.20505	-178.19373	-152.15629	-148.08794	158.66565	1169.24379	0
900	-52.07488	85.43535	137.51023	-16.2734	-95.19939	109.84545	6.50936	-173.31171	-144.83326	-138.3239	165.98868	1157.03874	0
901	-54.51589	87.87636	142.39225	-16.2734	-97.6404	114.72747	1.62734	-165.98868	-137.51023	-131.00087	170.8707	1139.95167	0
902	-52.07488	90.31737	142.39225	-18.71441	-97.6404	114.72747	-5.69569	-158.66565	-132.62821	-131.00087	168.42969	1117.98258	0
903	-49.63387	95.19939	144.83326	-23.59643	-97.6404	119.60949	-5.69569	-148.90161	-125.30518	-133.44188	163.54767	1093.57248	0
904	-49.63387	97.6404	147.27427	-23.59643	-97.6404	122.0505	-5.69569	-129.37353	-115.54114	-133.44188	161.10666	1069.16238	0
905	-49.63387	92.75838	142.39225	-21.15542	-95.19939	117.16848	-10.57771	-112.28646	-105.7771	-133.44188	153.78363	1047.19329	0
906	-44.75185	85.43535	130.1872	-21.15542	-87.87636	107.40444	-5.69569	-90.31737	-93.57205	-133.44188	148.90161	1030.10622	0
907	-37.42882	75.67131	113.10013	-18.71441	-75.67131	92.75838	-0.81367	-73.2303	-81.367	-131.00087	141.57858	1015.46016	0
908	-32.5468	75.67131	108.21811	-21.15542	-70.78929	90.31737	1.62734	-56.14323	-66.72094	-126.11885	139.13757	1003.25511	0
909	-32.5468	65.90727	98.45407	-16.2734	-65.90727	80.55333	1.62734	-36.61515	-49.63387	-113.9138	141.57858	991.05006	0
910	-27.66478	56.14323	83.80801	-13.83239	-56.14323	68.34828	-0.81367	-19.52808	-32.5468	-101.70875	141.57858	978.84501	0
911	-27.66478	43.93818	71.60296	-8.95037	-48.8202	56.14323	4.06835	0	-15.45973	-89.5037	146.4606	959.31693	0
912	-25.22377	39.05616	64.27993	-6.50936	-43.93818	51.26121	4.06835	14.64606	1.62734	-77.29865	148.90161	937.34784	0
913	-22.78276	31.73313	54.51589	-4.06835	-39.05616	41.49717	-0.81367	34.17414	13.83239	-67.53461	151.34262	910.49673	0
914	-20.34175	24.4101	44.75185	-1.62734	-31.73313	34.17414	1.62734	54.51589	29.29212	-60.21158	156.22464	888.52764	0
915	-17.90074	17.08707	34.98781	0.81367	-26.85111	24.4101	4.06835	78.92599	48.8202	-52.07488	163.54767	868.99956	0
916	-20.34175	14.64606	34.98781	0.81367	-26.85111	24.4101	8.95037	100.89508	65.90727	-37.42882	168.42969	851.91249	0
917	-20.34175	14.64606	34.98781	0.81367	-26.85111	24.4101	14.64606	120.42316	80.55333	-27.66478	170.8707	837.26643	0
918	-17.90074	4.88202	22.78276	6.50936	-19.52808	12.20505	17.08707	142.39225	97.6404	-22.78276	170.8707	822.62037	0
919	-10.57771	-3.25468	8.1367	6.50936	-9.76404	2.44101	24.4101	164.36134	114.72747	-15.45973	168.42969	810.41532	0
920	-0.81367	-3.25468	-2.44101	0.81367	0	-3.25468	31.73313	183.88942	136.69656	-0.81367	170.8707	798.21027	0
921	-3.25468	-8.1367	-4.88202	4.06835	0	-8.1367	31.73313	200.97649	153.78363	16.2734	178.19373	778.68219	0
922	-3.25468	-22.78276	-19.52808	11.39138	8.1367	-22.78276	31.73313	215.62255	170.8707	26.03744	180.63474	751.83108	0
923	2.44101	-32.5468	-34.17414	13.83239	17.90074	-32.5468	31.73313	235.15063	185.51676	30.91946	173.31171	722.53896	0
924	14.64606	-27.66478	-41.49717	6.50936	27.66478	-34.98781	36.61515	259.56073	202.60383	38.24249	173.31171	693.24684	0
925	19.52808	-25.22377	-43.93818	0.81367	30.10579	-34.98781	39.05616	279.08881	219.6909	48.00653	173.31171	663.95472	0
926	19.52808	-34.98781	-53.70222	6.50936	34.98781	-44.75185	36.61515	296.17588	229.45494	60.21158	175.75272	634.6626	0
927	24.4101	-47.19286	-70.78929	11.39138	47.19286	-59.39791	34.17414	305.93992	239.21898	62.65259	170.8707	605.37048	0
928	31.73313	-42.31084	-73.2303	4.06835	52.07488	-56.9569	36.61515	320.58598	251.42403	62.65259	165.98868	583.40139	0
929	41.49717	-32.5468	-73.2303	-4.06835	56.9569	-52.07488	39.05616	330.35002	263.62908	74.85764	168.42969	563.87331	0
930	41.49717	-39.86983	-80.55333	-1.62734	59.39791	-59.39791	39.05616	337.67305	275.83413	91.94471	178.19373	544.34523	0
931	41.49717	-39.86983	-80.55333	-1.62734	59.39791	-59.39791	39.05616	344.99608	285.59817	101.70875	185.51676	522.37614	0
932	36.61515	-44.75185	-80.55333	4.06835	56.9569	-61.83892	41.49717	352.31911	292.9212	104.14976	187.95777	497.96604	0
933	36.61515	-44.75185	-80.55333	4.06835	56.9569	-61.83892	46.37919	362.08315	302.68524	109.03178	185.51676	471.11493	0
934	39.05616	-52.07488	-90.31737	6.50936	64.27993	-71.60296	53.70222	379.17022	314.89029	118.79582	192.83979	449.14584	0
935	41.49717	-69.16195	-109.84545	13.83239	74.04397	-88.69003	61.02525	393.81628	324.65433	126.11885	195.2808	429.61776	0
936	41.49717	-76.48498	-117.16848	16.2734	78.92599	-96.01306	63.46626	406.02133	329.53635	123.67784	190.39878	410.08968	0
937	36.61515	-81.367	-117.16848	21.15542	76.48498	-98.45407	68.34828	410.90335	329.53635	116.35481	178.19373	390.5616	0
938	36.61515	-86.24902	-122.0505	23.59643	78.92599	-103.33609	70.78929	418.22638	334.41837	113.9138	168.42969	375.91554	0
939	39.05616	-93.57205	-131.81454	26.03744	83.80801	-113.10013	78.11232	420.66739	339.30039	113.9138	161.10666	366.1515	0
940	39.05616	-96.01306	-134.25555	28.47845	86.24902	-115.54114	82.99434	418.22638	341.7414	118.79582	158.66565	356.38746	0
941	41.49717	-93.57205	-134.25555	26.03744	86.24902	-113.10013	78.11232	410.90335	339.30039	123.67784	158.66565	336.85938	0
942	41.49717	-88.69003	-129.37353	23.59643	83.80801	-108.21811	75.67131	403.58032	339.30039	123.67784	153.78363	319.77231	0
943	46.37919	-83.80801	-129.37353	18.71441	86.24902	-105.7771	70.78929	396.25729	331.97736	116.35481	146.4606	297.80322	0
944	48.8202	-81.367	-129.37353	16.2734	88.69003	-105.7771	70.78929	388.93426	324.65433	116.35481	146.4606	280.71615	0
945	46.37919	-83.80801	-129.37353	18.71441	86.24902	-105.7771	68.34828	381.61123	322.21332	121.23683	156.22464	266.07009	0
946	46.37919	-78.92599	-124.49151	16.2734	83.80801	-100.89508	61.02525	371.84719	314.89029	123.67784	163.54767	253.86504	0
947	41.49717	-81.367	-122.0505	18.71441	81.367	-100.89508	61.02525	362.08315	307.56726	116.35481	163.54767	241.65999	0
948	26.85111	-100.89508	-126.93252	35.80148	76.48498	-113.10013	61.02525	347.43709	297.80322	106.59077	153.78363	229.45494	0
949	17.08707	-113.10013	-129.37353	48.00653	71.60296	-120.42316	56.14323	327.90901	288.03918	99.26774	148.90161	214.80888	0
950	9.76404	-130.1872	-139.13757	60.21158	74.04397	-135.06922	56.14323	308.38093	278.27514	96.82673	146.4606	200.16282	0
951	9.76404	-137.51023	-146.4606	62.65259	76.48498	-142.39225	51.26121	288.85285	266.07009	94.38572	144.01959	180.63474	0
952	4.88202	-130.1872	-134.25555	62.65259	69.16195	-132.62821	46.37919	271.76578	256.30605	87.06269	136.69656	158.66565	0
953	2.44101	-130.1872	-131.81454	62.65259	66.72094	-130.1872	39.05616	257.11972	241.65999	72.41663	129.37353	134.25555	0
954	4.88202	-115.54114	-119.60949	55.32956	61.83892	-117.98215	29.29212	242.47366	229.45494	65.0936	126.93252	114.72747	0
955	12.20505	-98.45407	-109.84545	43.12451	59.39791	-103.33609	24.4101	230.26861	219.6909	62.65259	129.37353	97.6404	0
956	19.52808	-86.24902	-104.96343	33.36047	61.83892	-96.01306	19.52808	222.94558	214.80888	62.65259	134.25555	90.31737	0
957	19.52808	-74.04397	-92.75838	26.03744	54.51589	-83.80801	8.95037	213.18154	207.48585	57.77057	134.25555	80.55333	0
958	14.64606	-76.48498	-90.31737	30.91946	52.07488	-83.80801	6.50936	200.97649	197.72181	50.44754	131.81454	70.78929	0
959	2.44101	-86.24902	-87.87636	40.6835	44.75185	-86.24902	6.50936	186.33043	187.95777	45.56552	129.37353	63.46626	0
960	-0.81367	-86.24902	-85.43535	43.12451	42.31084	-86.24902	8.95037	169.24336	178.19373	40.6835	122.0505	51.26121	0
961	-0.81367	-86.24902	-85.43535	43.12451	42.31084	-86.24902	12.20505	157.03831	168.42969	38.24249	119.60949	39.05616	0
962	-5.69569	-93.57205	-87.87636	48.00653	39.86983	-91.13104	19.52808	142.39225	163.54767	35.80148	119.60949	26.85111	0
963	-8.1367	-96.01306	-87.87636	50.44754	39.86983	-93.57205	24.4101	130.1872	153.78363	40.6835	129.37353	9.76404	0
964	-8.1367	-93.57205	-85.43535	50.44754	37.42882	-91.13104	26.85111	125.30518	146.4606	40.6835	134.25555	-2.44101	0
965	-0.81367	-83.80801	-82.99434	40.6835	39.86983	-83.80801	26.85111	120.42316	139.13757	26.03744	126.93252	-17.90074	0
966	4.88202	-78.92599	-82.99434	35.80148	42.31084	-81.367	24.4101	115.54114	129.37353	16.2734	117.16848	-27.66478	0
967	9.76404	-78.92599	-87.87636	33.36047	47.19286	-83.80801	19.52808	105.7771	119.60949	8.95037	112.28646	-39.86983	0
968	14.64606	-74.04397	-87.87636	28.47845	49.63387	-81.367	8.95037	93.57205	112.28646	1.62734	107.40444	-54.51589	0
969	26.85111	-54.51589	-80.55333	13.83239	52.07488	-66.72094	4.06835	86.24902	109.84545	-5.69569	100.08141	-66.72094	0
970	34.17414	-37.42882	-70.78929	0.81367	52.07488	-54.51589	-0.81367	76.48498	102.52242	-15.45973	92.75838	-78.92599	0
971	41.49717	-34.98781	-75.67131	-4.06835	56.9569	-54.51589	-5.69569	64.27993	95.19939	-15.45973	92.75838	-96.01306	0
972	36.61515	-37.42882	-73.2303	0.81367	54.51589	-54.51589	-13.01872	52.07488	92.75838	-10.57771	95.19939	-110.65912	0
973	26.85111	-47.19286	-73.2303	8.95037	49.63387	-59.39791	-15.45973	46.37919	90.31737	-10.57771	90.31737	-127.74619	0
