samplenr	I	II	III	aVR	aVL	aVF	V1	V2	V3	V4	V5	V6	measurement
0	-56.14323	-124.49151	-69.16195	88.69003	6.50936	-98.45407	18.71441	106.59077	-30.91946	-61.83892	-89.5037	-117.16848	0
1	-56.14323	-122.0505	-66.72094	88.69003	4.06835	-96.01306	16.2734	106.59077	-28.47845	-61.83892	-89.5037	-117.16848	0
2	-51.26121	-119.60949	-69.16195	83.80801	8.95037	-96.01306	13.83239	109.03178	-23.59643	-64.27993	-91.94471	-119.60949	0
3	-48.8202	-117.16848	-69.16195	81.367	8.95037	-93.57205	13.83239	106.59077	-16.2734	-64.27993	-91.94471	-122.0505	0
4	-46.37919	-117.16848	-71.60296	81.367	11.39138	-96.01306	13.83239	104.14976	-11.39138	-61.83892	-89.5037	-122.0505	0
5	-43.93818	-114.72747	-71.60296	78.92599	13.83239	-93.57205	16.2734	104.14976	-4.06835	-56.9569	-84.62168	-119.60949	0
6	-36.61515	-112.28646	-76.48498	74.04397	18.71441	-96.01306	16.2734	104.14976	-1.62734	-52.07488	-79.73966	-117.16848	0
7	-31.73313	-104.96343	-74.04397	66.72094	21.15542	-91.13104	16.2734	99.26774	-4.06835	-47.19286	-74.85764	-109.84545	0
8	-26.85111	-100.08141	-74.04397	61.83892	23.59643	-88.69003	16.2734	96.82673	-8.95037	-44.75185	-69.97562	-104.96343	0
9	-21.96909	-92.75838	-71.60296	56.9569	23.59643	-83.80801	16.2734	94.38572	-13.83239	-44.75185	-67.53461	-97.6404	0
10	-17.08707	-85.43535	-69.16195	49.63387	26.03744	-78.92599	11.39138	91.94471	-16.2734	-47.19286	-67.53461	-92.75838	0
11	-14.64606	-80.55333	-66.72094	47.19286	26.03744	-74.04397	6.50936	89.5037	-18.71441	-47.19286	-67.53461	-90.31737	0
12	-12.20505	-78.11232	-66.72094	44.75185	26.03744	-74.04397	1.62734	87.06269	-16.2734	-52.07488	-67.53461	-87.87636	0
13	-9.76404	-78.11232	-69.16195	42.31084	28.47845	-74.04397	-3.25468	82.18067	-13.83239	-54.51589	-67.53461	-87.87636	0
14	-9.76404	-78.11232	-69.16195	42.31084	28.47845	-74.04397	-8.1367	82.18067	-11.39138	-54.51589	-65.0936	-87.87636	0
15	-6.50936	-78.11232	-71.60296	42.31084	30.91946	-74.04397	-13.01872	79.73966	-4.06835	-52.07488	-62.65259	-87.87636	0
16	0.81367	-78.11232	-78.92599	37.42882	38.24249	-78.92599	-17.90074	74.85764	-4.06835	-52.07488	-62.65259	-85.43535	0
17	3.25468	-78.11232	-81.367	37.42882	40.6835	-78.92599	-25.22377	69.97562	-6.50936	-49.63387	-60.21158	-85.43535	0
18	8.1367	-75.67131	-83.80801	32.5468	45.56552	-78.92599	-32.5468	62.65259	-13.83239	-52.07488	-60.21158	-82.99434	0
19	8.1367	-73.2303	-81.367	32.5468	43.12451	-76.48498	-37.42882	57.77057	-23.59643	-54.51589	-60.21158	-80.55333	0
20	10.57771	-70.78929	-81.367	30.10579	45.56552	-76.48498	-42.31084	52.88855	-28.47845	-59.39791	-65.0936	-80.55333	0
21	13.01872	-70.78929	-83.80801	27.66478	48.00653	-76.48498	-49.63387	48.00653	-38.24249	-69.16195	-69.97562	-85.43535	0
22	13.01872	-73.2303	-86.24902	30.10579	48.00653	-78.92599	-52.07488	40.6835	-43.12451	-76.48498	-77.29865	-87.87636	0
23	5.69569	-75.67131	-81.367	34.98781	43.12451	-78.92599	-52.07488	38.24249	-43.12451	-78.92599	-79.73966	-90.31737	0
24	3.25468	-75.67131	-78.92599	34.98781	40.6835	-76.48498	-52.07488	32.5468	-45.56552	-81.367	-79.73966	-90.31737	0
25	3.25468	-78.11232	-81.367	37.42882	40.6835	-78.92599	-54.51589	30.10579	-45.56552	-83.80801	-79.73966	-90.31737	0
26	8.1367	-80.55333	-88.69003	34.98781	48.00653	-83.80801	-54.51589	25.22377	-45.56552	-83.80801	-74.85764	-87.87636	0
27	13.01872	-78.11232	-91.13104	32.5468	50.44754	-83.80801	-56.9569	22.78276	-45.56552	-78.92599	-72.41663	-82.99434	0
28	13.01872	-75.67131	-88.69003	30.10579	50.44754	-81.367	-56.9569	20.34175	-48.00653	-78.92599	-67.53461	-80.55333	0
29	15.45973	-73.2303	-88.69003	27.66478	50.44754	-81.367	-56.9569	20.34175	-55.32956	-78.92599	-67.53461	-80.55333	0
30	20.34175	-73.2303	-93.57205	25.22377	55.32956	-83.80801	-56.9569	20.34175	-60.21158	-83.80801	-72.41663	-80.55333	0
31	20.34175	-73.2303	-93.57205	25.22377	55.32956	-83.80801	-52.07488	20.34175	-60.21158	-86.24902	-74.85764	-82.99434	0
32	15.45973	-78.11232	-93.57205	30.10579	52.88855	-86.24902	-49.63387	20.34175	-57.77057	-86.24902	-79.73966	-85.43535	0
33	8.1367	-80.55333	-88.69003	34.98781	48.00653	-83.80801	-42.31084	22.78276	-55.32956	-88.69003	-82.18067	-90.31737	0
34	0.81367	-87.87636	-88.69003	42.31084	43.12451	-88.69003	-34.98781	22.78276	-52.88855	-91.13104	-87.06269	-95.19939	0
35	-1.62734	-92.75838	-91.13104	47.19286	43.12451	-91.13104	-30.10579	20.34175	-48.00653	-91.13104	-87.06269	-97.6404	0
36	-4.06835	-97.6404	-93.57205	49.63387	43.12451	-96.01306	-25.22377	20.34175	-45.56552	-88.69003	-87.06269	-97.6404	0
37	-4.06835	-102.52242	-98.45407	52.07488	45.56552	-100.89508	-22.78276	17.90074	-43.12451	-86.24902	-87.06269	-97.6404	0
38	-9.76404	-109.84545	-100.89508	59.39791	45.56552	-105.7771	-17.90074	17.90074	-48.00653	-86.24902	-87.06269	-97.6404	0
39	-12.20505	-114.72747	-103.33609	61.83892	45.56552	-110.65912	-13.01872	15.45973	-52.88855	-86.24902	-87.06269	-97.6404	0
40	-14.64606	-114.72747	-100.89508	64.27993	43.12451	-108.21811	-10.57771	15.45973	-55.32956	-88.69003	-89.5037	-97.6404	0
41	-14.64606	-117.16848	-103.33609	64.27993	43.12451	-110.65912	-10.57771	13.01872	-57.77057	-93.57205	-91.94471	-97.6404	0
42	-19.52808	-122.0505	-103.33609	69.16195	40.6835	-113.10013	-10.57771	8.1367	-55.32956	-96.01306	-96.82673	-100.08141	0
43	-21.96909	-126.93252	-105.7771	74.04397	40.6835	-117.98215	-8.1367	3.25468	-55.32956	-100.89508	-99.26774	-107.40444	0
44	-24.4101	-129.37353	-105.7771	76.48498	40.6835	-117.98215	-8.1367	-1.62734	-55.32956	-100.89508	-101.70875	-112.28646	0
45	-21.96909	-129.37353	-108.21811	74.04397	43.12451	-120.42316	-8.1367	-8.95037	-55.32956	-105.7771	-106.59077	-119.60949	0
46	-24.4101	-134.25555	-110.65912	78.92599	43.12451	-122.86417	-8.1367	-13.83239	-52.88855	-103.33609	-106.59077	-122.0505	0
47	-24.4101	-139.13757	-115.54114	81.367	45.56552	-127.74619	-8.1367	-16.2734	-50.44754	-103.33609	-106.59077	-122.0505	0
48	-26.85111	-144.01959	-117.98215	83.80801	45.56552	-132.62821	-5.69569	-18.71441	-55.32956	-103.33609	-106.59077	-122.0505	0
49	-26.85111	-146.4606	-120.42316	86.24902	45.56552	-135.06922	-5.69569	-21.15542	-62.65259	-103.33609	-109.03178	-122.0505	0
50	-29.29212	-146.4606	-117.98215	86.24902	43.12451	-132.62821	-3.25468	-21.15542	-65.0936	-105.7771	-109.03178	-119.60949	0
51	-36.61515	-148.90161	-113.10013	91.13104	38.24249	-132.62821	-3.25468	-21.15542	-67.53461	-105.7771	-111.47279	-119.60949	0
52	-39.05616	-148.90161	-110.65912	93.57205	35.80148	-130.1872	-0.81367	-23.59643	-67.53461	-110.65912	-113.9138	-119.60949	0
53	-36.61515	-146.4606	-110.65912	91.13104	35.80148	-130.1872	-0.81367	-28.47845	-67.53461	-110.65912	-116.35481	-124.49151	0
54	-39.05616	-146.4606	-108.21811	91.13104	33.36047	-127.74619	-0.81367	-28.47845	-67.53461	-113.10013	-118.79582	-126.93252	0
55	-41.49717	-148.90161	-108.21811	93.57205	33.36047	-130.1872	1.62734	-30.91946	-62.65259	-113.10013	-118.79582	-129.37353	0
56	-43.93818	-151.34262	-108.21811	96.01306	30.91946	-130.1872	4.06835	-30.91946	-60.21158	-110.65912	-118.79582	-129.37353	0
57	-41.49717	-151.34262	-110.65912	96.01306	33.36047	-132.62821	4.06835	-33.36047	-60.21158	-110.65912	-118.79582	-129.37353	0
58	-36.61515	-153.78363	-117.98215	93.57205	40.6835	-137.51023	4.06835	-33.36047	-65.0936	-108.21811	-113.9138	-126.93252	0
59	-39.05616	-158.66565	-120.42316	98.45407	40.6835	-139.95124	4.06835	-30.91946	-69.97562	-108.21811	-111.47279	-122.0505	0
60	-39.05616	-158.66565	-120.42316	98.45407	40.6835	-139.95124	4.06835	-26.03744	-74.85764	-108.21811	-111.47279	-122.0505	0
61	-36.61515	-158.66565	-122.86417	96.01306	43.12451	-142.39225	1.62734	-23.59643	-74.85764	-113.10013	-113.9138	-122.0505	0
62	-34.17414	-158.66565	-125.30518	96.01306	45.56552	-142.39225	1.62734	-21.15542	-74.85764	-115.54114	-116.35481	-122.0505	0
63	-36.61515	-156.22464	-120.42316	96.01306	40.6835	-139.95124	4.06835	-18.71441	-72.41663	-115.54114	-116.35481	-122.0505	0
64	-39.05616	-156.22464	-117.98215	96.01306	38.24249	-137.51023	4.06835	-18.71441	-69.97562	-115.54114	-116.35481	-122.0505	0
65	-41.49717	-156.22464	-115.54114	98.45407	35.80148	-137.51023	6.50936	-16.2734	-65.0936	-113.10013	-113.9138	-124.49151	0
66	-41.49717	-153.78363	-113.10013	96.01306	35.80148	-135.06922	8.95037	-16.2734	-62.65259	-110.65912	-113.9138	-126.93252	0
67	-43.93818	-158.66565	-115.54114	100.89508	35.80148	-137.51023	11.39138	-16.2734	-60.21158	-110.65912	-113.9138	-126.93252	0
68	-46.37919	-163.54767	-117.98215	103.33609	35.80148	-142.39225	18.71441	-13.83239	-65.0936	-110.65912	-113.9138	-126.93252	0
69	-53.70222	-168.42969	-115.54114	110.65912	30.91946	-142.39225	28.47845	-6.50936	-69.97562	-115.54114	-116.35481	-131.81454	0
70	-63.46626	-178.19373	-115.54114	120.42316	26.03744	-147.27427	39.05616	5.69569	-69.97562	-122.86417	-126.11885	-136.69656	0
71	-68.34828	-185.51676	-117.98215	125.30518	23.59643	-152.15629	51.26121	17.90074	-72.41663	-132.62821	-138.3239	-148.90161	0
72	-73.2303	-192.83979	-120.42316	132.62821	23.59643	-157.03831	61.02525	30.10579	-65.0936	-139.95124	-152.96996	-161.10666	0
73	-78.11232	-197.72181	-120.42316	137.51023	21.15542	-159.47932	70.78929	43.12451	-55.32956	-142.39225	-160.29299	-170.8707	0
74	-82.99434	-200.16282	-117.98215	139.95124	16.2734	-159.47932	78.11232	55.32956	-43.12451	-142.39225	-167.61602	-178.19373	0
75	-82.99434	-200.16282	-117.98215	139.95124	16.2734	-159.47932	78.11232	65.0936	-23.59643	-132.62821	-165.17501	-183.07575	0
76	-78.11232	-192.83979	-115.54114	135.06922	18.71441	-154.5973	68.34828	77.29865	-1.62734	-110.65912	-152.96996	-175.75272	0
77	-65.90727	-183.07575	-117.98215	122.86417	26.03744	-152.15629	56.14323	91.94471	33.36047	-78.92599	-128.55986	-161.10666	0
78	-48.8202	-165.98868	-117.98215	105.7771	33.36047	-142.39225	36.61515	118.79582	79.73966	-27.66478	-84.62168	-129.37353	0
79	-24.4101	-141.57858	-117.98215	81.367	45.56552	-130.1872	11.39138	155.41097	143.20592	46.37919	-23.59643	-87.87636	0
80	13.01872	-107.40444	-120.42316	47.19286	65.0936	-113.10013	-25.22377	199.34915	231.08228	141.57858	55.32956	-31.73313	0
81	71.60296	-61.02525	-132.62821	-4.88202	101.70875	-96.01306	-76.48498	240.84632	336.04571	261.18807	157.85198	37.42882	0
82	144.83326	-7.32303	-152.15629	-68.34828	148.08794	-78.92599	-137.51023	272.57945	450.77318	397.88463	275.02046	120.42316	0
83	230.26861	49.63387	-181.44841	-139.13757	206.67218	-66.72094	-210.74053	292.10753	563.05964	546.78624	406.835	210.74053	0
84	318.14497	110.65912	-208.29952	-214.80888	262.81541	-49.63387	-288.85285	294.54854	670.46408	703.01088	550.85459	305.93992	0
85	413.34436	174.12538	-240.03265	-292.9212	326.28167	-32.5468	-376.72921	270.13844	763.22246	859.23552	692.43317	403.58032	0
86	508.54375	232.70962	-276.6478	-371.03352	392.18894	-22.78276	-467.04658	226.20026	836.45276	1008.13713	834.01175	503.66173	0
87	586.65607	286.41184	-301.0579	-436.94079	443.45015	-8.1367	-552.48193	157.85198	875.50892	1132.62864	960.94427	596.42011	0
88	640.35829	332.79103	-308.38093	-485.76099	475.18328	12.20505	-630.59425	65.0936	873.06791	1213.18197	1058.58467	674.53243	0
89	672.09142	374.2882	-298.61689	-522.37614	484.94732	39.05616	-696.50152	-45.56552	826.68872	1247.35611	1114.7279	733.11667	0
90	686.73748	408.46234	-279.08881	-546.78624	482.50631	65.90727	-750.20374	-170.05703	748.5764	1227.82803	1129.37396	767.29081	0
91	679.41445	430.43143	-249.79669	-554.10927	465.41924	90.31737	-799.02394	-318.95864	616.76186	1142.39268	1092.75881	774.61384	0
92	652.56334	440.19547	-213.18154	-546.78624	433.68611	114.72747	-838.0801	-489.82934	426.36308	988.60905	1002.44144	752.64475	0
93	611.06617	440.19547	-171.68437	-524.81715	392.18894	134.25555	-864.93121	-680.22812	184.70309	771.35916	868.18589	706.26556	0
94	562.24597	427.99042	-135.06922	-495.52503	348.25076	146.4606	-886.9003	-877.94993	-94.38572	505.28907	697.31519	635.47627	0
95	506.10274	398.6983	-108.21811	-451.58685	306.75359	146.4606	-901.54636	-1061.02568	-372.66086	227.01393	511.79843	550.04092	0
96	452.40052	357.20113	-96.01306	-405.20766	275.02046	131.81454	-903.98737	-1207.48628	-626.5259	-32.5468	331.16369	462.16456	0
97	393.81628	305.93992	-88.69003	-349.06443	240.84632	109.84545	-884.45929	-1300.24466	-824.24771	-249.79669	172.49804	374.2882	0
98	330.35002	254.67871	-76.48498	-292.9212	204.23117	90.31737	-840.52111	-1327.09577	-951.18023	-408.46234	43.12451	296.17588	0
99	262.00174	208.29952	-54.51589	-234.33696	157.85198	78.11232	-777.05485	-1290.48062	-1002.44144	-508.54375	-52.88855	225.38659	0
100	200.97649	164.36134	-37.42882	-183.07575	118.79582	63.46626	-696.50152	-1195.28123	-975.59033	-545.1589	-116.35481	164.36134	1000	P+0
101	142.39225	127.74619	-15.45973	-134.25555	79.73966	56.14323	-603.74314	-1056.14366	-892.59599	-532.95385	-152.96996	110.65912	0
102	91.13104	98.45407	6.50936	-95.19939	43.12451	53.70222	-508.54375	-897.47801	-772.9865	-491.45668	-170.05703	69.16195	0
103	47.19286	81.367	34.17414	-63.46626	6.50936	58.58424	-413.34436	-748.5764	-653.37701	-437.75446	-172.49804	37.42882	0
104	20.34175	69.16195	48.8202	-43.93818	-13.83239	58.58424	-332.79103	-614.32085	-545.97257	-384.05224	-167.61602	13.01872	0
105	0.81367	54.51589	53.70222	-26.85111	-26.03744	53.70222	-262.00174	-497.15237	-443.45015	-330.35002	-157.85198	-6.50936	0
106	-4.06835	42.31084	46.37919	-19.52808	-26.03744	43.93818	-200.97649	-394.62995	-358.0148	-281.52982	-143.20592	-17.08707	0
107	-6.50936	32.5468	39.05616	-12.20505	-23.59643	36.61515	-152.15629	-306.75359	-284.7845	-235.15063	-126.11885	-24.4101	0
108	-6.50936	25.22377	31.73313	-9.76404	-18.71441	29.29212	-110.65912	-235.9643	-228.64127	-196.09447	-109.03178	-24.4101	0
109	-9.76404	20.34175	29.29212	-4.88202	-18.71441	24.4101	-76.48498	-179.82107	-189.58511	-169.24336	-94.38572	-24.4101	0
110	-14.64606	13.01872	26.85111	0	-21.15542	19.52808	-49.63387	-138.3239	-157.85198	-149.71528	-87.06269	-26.85111	0
111	-19.52808	8.1367	26.85111	4.88202	-23.59643	17.08707	-32.5468	-111.47279	-138.3239	-142.39225	-87.06269	-29.29212	0
112	-24.4101	3.25468	26.85111	10.57771	-26.03744	14.64606	-20.34175	-96.82673	-126.11885	-139.95124	-89.5037	-34.17414	0
113	-31.73313	-2.44101	29.29212	15.45973	-30.91946	12.20505	-8.1367	-87.06269	-118.79582	-139.95124	-89.5037	-36.61515	0
114	-43.93818	-2.44101	41.49717	22.78276	-43.12451	19.52808	4.06835	-77.29865	-111.47279	-137.51023	-89.5037	-39.05616	0
115	-46.37919	-4.88202	41.49717	25.22377	-45.56552	17.08707	11.39138	-72.41663	-104.14976	-135.06922	-89.5037	-41.49717	0
116	-43.93818	-4.88202	39.05616	22.78276	-43.12451	17.08707	18.71441	-67.53461	-99.26774	-130.1872	-87.06269	-39.05616	0
117	-39.05616	-2.44101	36.61515	20.34175	-38.24249	17.08707	21.15542	-62.65259	-94.38572	-127.74619	-82.18067	-34.17414	0
118	-34.17414	-2.44101	31.73313	17.90074	-33.36047	14.64606	23.59643	-60.21158	-96.82673	-122.86417	-79.73966	-34.17414	0
119	-39.05616	-2.44101	36.61515	20.34175	-38.24249	17.08707	26.03744	-57.77057	-99.26774	-122.86417	-79.73966	-31.73313	0
120	-43.93818	-4.88202	39.05616	22.78276	-43.12451	17.08707	26.03744	-55.32956	-99.26774	-122.86417	-79.73966	-31.73313	0
121	-46.37919	-4.88202	41.49717	25.22377	-45.56552	17.08707	26.03744	-52.88855	-99.26774	-127.74619	-87.06269	-36.61515	0
122	-53.70222	-9.76404	43.93818	30.10579	-50.44754	17.08707	26.03744	-50.44754	-96.82673	-130.1872	-91.94471	-41.49717	0
123	-61.02525	-12.20505	48.8202	34.98781	-55.32956	17.08707	28.47845	-45.56552	-91.94471	-130.1872	-94.38572	-43.93818	0
124	-68.34828	-12.20505	56.14323	39.86983	-62.65259	21.96909	34.17414	-40.6835	-89.5037	-127.74619	-94.38572	-43.93818	0
125	-68.34828	-12.20505	56.14323	39.86983	-62.65259	21.96909	39.05616	-35.80148	-82.18067	-125.30518	-94.38572	-43.93818	0
126	-61.02525	-7.32303	53.70222	32.5468	-57.77057	21.96909	39.05616	-30.91946	-77.29865	-120.42316	-89.5037	-41.49717	0
127	-53.70222	-2.44101	51.26121	27.66478	-52.88855	24.4101	39.05616	-28.47845	-74.85764	-113.10013	-84.62168	-34.17414	0
128	-48.8202	5.69569	53.70222	20.34175	-50.44754	29.29212	41.49717	-26.03744	-74.85764	-108.21811	-79.73966	-29.29212	0
129	-43.93818	10.57771	53.70222	15.45973	-48.00653	31.73313	41.49717	-28.47845	-79.73966	-108.21811	-77.29865	-29.29212	0
130	-41.49717	13.01872	53.70222	13.01872	-48.00653	31.73313	39.05616	-30.91946	-79.73966	-113.10013	-77.29865	-26.85111	0
131	-43.93818	13.01872	56.14323	15.45973	-50.44754	34.17414	39.05616	-30.91946	-79.73966	-115.54114	-79.73966	-26.85111	0
132	-56.14323	10.57771	65.90727	22.78276	-60.21158	36.61515	39.05616	-30.91946	-74.85764	-115.54114	-79.73966	-29.29212	0
133	-63.46626	8.1367	70.78929	27.66478	-67.53461	39.05616	43.93818	-28.47845	-69.97562	-115.54114	-79.73966	-29.29212	0
134	-65.90727	8.1367	73.2303	27.66478	-69.97562	39.05616	43.93818	-28.47845	-67.53461	-113.10013	-79.73966	-29.29212	0
135	-65.90727	8.1367	73.2303	27.66478	-69.97562	39.05616	46.37919	-26.03744	-62.65259	-105.7771	-77.29865	-26.85111	0
136	-61.02525	15.45973	75.67131	22.78276	-67.53461	43.93818	48.8202	-21.15542	-55.32956	-98.45407	-69.97562	-21.96909	0
137	-53.70222	25.22377	78.11232	13.01872	-65.0936	51.26121	51.26121	-18.71441	-50.44754	-91.13104	-65.0936	-14.64606	0
138	-43.93818	34.98781	78.11232	4.88202	-60.21158	56.14323	53.70222	-18.71441	-55.32956	-88.69003	-62.65259	-12.20505	0
139	-39.05616	42.31084	80.55333	-2.44101	-60.21158	61.02525	53.70222	-21.15542	-60.21158	-88.69003	-62.65259	-12.20505	0
140	-39.05616	47.19286	85.43535	-4.88202	-62.65259	65.90727	51.26121	-21.15542	-62.65259	-91.13104	-62.65259	-12.20505	0
141	-43.93818	47.19286	90.31737	-2.44101	-67.53461	68.34828	51.26121	-23.59643	-65.0936	-96.01306	-65.0936	-12.20505	0
142	-48.8202	42.31084	90.31737	2.44101	-69.97562	65.90727	48.8202	-26.03744	-62.65259	-100.89508	-67.53461	-12.20505	0
143	-58.58424	39.86983	97.6404	8.1367	-77.29865	68.34828	51.26121	-26.03744	-60.21158	-100.89508	-67.53461	-12.20505	0
144	-63.46626	39.86983	102.52242	10.57771	-82.18067	70.78929	51.26121	-26.03744	-55.32956	-98.45407	-65.0936	-12.20505	0
145	-63.46626	39.86983	102.52242	10.57771	-82.18067	70.78929	53.70222	-21.15542	-50.44754	-93.57205	-60.21158	-12.20505	0
146	-56.14323	47.19286	102.52242	4.88202	-79.73966	73.2303	56.14323	-18.71441	-43.12451	-86.24902	-52.88855	-4.06835	0
147	-46.37919	59.39791	104.96343	-7.32303	-74.85764	80.55333	56.14323	-13.83239	-38.24249	-78.92599	-45.56552	3.25468	0
148	-39.05616	69.16195	107.40444	-14.64606	-72.41663	87.87636	58.58424	-11.39138	-38.24249	-74.04397	-40.6835	10.57771	0
149	-31.73313	76.48498	107.40444	-21.96909	-69.97562	90.31737	61.02525	-8.95037	-43.12451	-71.60296	-38.24249	13.01872	0
150	-34.17414	81.367	114.72747	-24.4101	-74.85764	97.6404	61.02525	-6.50936	-43.12451	-74.04397	-35.80148	17.90074	0
151	-36.61515	83.80801	119.60949	-24.4101	-77.29865	100.08141	56.14323	-6.50936	-43.12451	-78.92599	-38.24249	17.90074	0
152	-43.93818	81.367	124.49151	-19.52808	-84.62168	102.52242	56.14323	-8.95037	-43.12451	-81.367	-38.24249	17.90074	0
153	-46.37919	78.92599	124.49151	-17.08707	-84.62168	100.08141	56.14323	-8.95037	-43.12451	-83.80801	-40.6835	17.90074	0
154	-51.26121	78.92599	129.37353	-14.64606	-89.5037	102.52242	56.14323	-8.95037	-38.24249	-81.367	-35.80148	20.34175	0
155	-53.70222	81.367	134.25555	-14.64606	-94.38572	107.40444	58.58424	-4.06835	-33.36047	-74.04397	-28.47845	27.66478	0
156	-43.93818	91.13104	134.25555	-24.4101	-89.5037	112.28646	61.02525	-1.62734	-28.47845	-66.72094	-20.34175	34.98781	0
157	-31.73313	103.33609	134.25555	-36.61515	-82.18067	117.16848	63.46626	3.25468	-23.59643	-56.9569	-13.01872	44.75185	0
158	-21.96909	115.54114	136.69656	-46.37919	-79.73966	124.49151	65.90727	5.69569	-23.59643	-49.63387	-3.25468	54.51589	0
159	-19.52808	125.30518	144.01959	-53.70222	-82.18067	134.25555	65.90727	8.1367	-26.03744	-44.75185	4.06835	61.83892	0
160	-21.96909	130.1872	151.34262	-53.70222	-87.06269	139.13757	63.46626	8.1367	-26.03744	-44.75185	4.06835	64.27993	0
161	-24.4101	132.62821	156.22464	-53.70222	-89.5037	144.01959	56.14323	5.69569	-28.47845	-49.63387	1.62734	64.27993	0
162	-31.73313	132.62821	163.54767	-51.26121	-96.82673	146.4606	53.70222	3.25468	-28.47845	-52.07488	-0.81367	61.83892	0
163	-41.49717	132.62821	173.31171	-46.37919	-106.59077	151.34262	53.70222	3.25468	-26.03744	-52.07488	-0.81367	59.39791	0
164	-46.37919	132.62821	178.19373	-43.93818	-111.47279	153.78363	53.70222	3.25468	-21.15542	-49.63387	1.62734	59.39791	0
165	-43.93818	139.95124	183.07575	-48.8202	-113.9138	161.10666	56.14323	5.69569	-16.2734	-44.75185	6.50936	64.27993	0
166	-36.61515	152.15629	187.95777	-58.58424	-111.47279	168.42969	58.58424	10.57771	-8.95037	-34.98781	16.2734	71.60296	0
167	-26.85111	166.80235	192.83979	-70.78929	-109.03178	178.19373	61.02525	17.90074	-1.62734	-27.66478	26.03744	83.80801	0
168	-14.64606	181.44841	195.2808	-82.99434	-104.14976	187.95777	63.46626	22.78276	-1.62734	-19.52808	35.80148	91.13104	0
169	-6.50936	193.65346	200.16282	-92.75838	-104.14976	197.72181	65.90727	27.66478	-1.62734	-14.64606	40.6835	98.45407	0
170	-9.76404	200.97649	209.92686	-95.19939	-109.03178	205.04484	65.90727	30.10579	-1.62734	-12.20505	43.12451	105.7771	0
171	-12.20505	203.4175	214.80888	-95.19939	-113.9138	207.48585	63.46626	30.10579	1.62734	-14.64606	45.56552	108.21811	0
172	-19.52808	203.4175	222.13191	-92.75838	-121.23683	212.36787	58.58424	30.10579	6.50936	-14.64606	45.56552	108.21811	0
173	-26.85111	203.4175	229.45494	-87.87636	-128.55986	214.80888	58.58424	32.5468	11.39138	-9.76404	50.44754	113.10013	0
174	-34.17414	205.85851	239.21898	-85.43535	-135.88289	222.13191	63.46626	38.24249	18.71441	-2.44101	60.21158	117.98215	0
175	-36.61515	210.74053	246.54201	-87.87636	-140.76491	227.01393	65.90727	45.56552	30.91946	12.20505	74.85764	130.1872	0
176	-29.29212	225.38659	253.86504	-97.6404	-140.76491	239.21898	70.78929	55.32956	43.12451	26.85111	89.5037	144.83326	0
177	-14.64606	242.47366	256.30605	-114.72747	-135.88289	248.98302	70.78929	62.65259	52.88855	41.49717	104.14976	159.47932	0
178	0.81367	259.56073	258.74706	-129.37353	-128.55986	258.74706	73.2303	69.97562	57.77057	51.26121	116.35481	171.68437	0
179	13.01872	274.20679	261.18807	-144.01959	-123.67784	268.5111	73.2303	72.41663	57.77057	58.58424	123.67784	181.44841	0
180	17.90074	286.41184	268.5111	-151.34262	-126.11885	278.27514	70.78929	74.85764	57.77057	58.58424	128.55986	186.33043	0
181	15.45973	291.29386	275.83413	-153.78363	-131.00087	283.15716	65.90727	77.29865	60.21158	58.58424	131.00087	188.77144	0
182	10.57771	291.29386	280.71615	-151.34262	-135.88289	285.59817	63.46626	77.29865	65.0936	58.58424	131.00087	188.77144	0
183	3.25468	291.29386	288.03918	-146.4606	-143.20592	290.48019	63.46626	79.73966	69.97562	61.02525	133.44188	188.77144	0
184	-4.06835	293.73487	297.80322	-144.01959	-150.52895	295.36221	65.90727	84.62168	77.29865	68.34828	143.20592	191.21245	0
185	-9.76404	298.61689	307.56726	-144.01959	-157.85198	302.68524	73.2303	94.38572	91.94471	85.43535	155.41097	200.97649	0
186	-4.06835	310.82194	314.89029	-153.78363	-160.29299	312.44928	82.99434	106.59077	109.03178	102.52242	170.05703	215.62255	0
187	10.57771	327.90901	317.3313	-168.42969	-152.96996	322.21332	87.87636	116.35481	123.67784	119.60949	187.1441	227.8276	0
188	22.78276	342.55507	319.77231	-183.07575	-148.08794	331.97736	92.75838	123.67784	131.00087	136.69656	201.79016	240.03265	0
189	30.10579	354.76012	324.65433	-192.83979	-148.08794	339.30039	95.19939	131.00087	138.3239	146.4606	213.99521	249.79669	0
190	37.42882	362.08315	324.65433	-200.16282	-143.20592	344.18241	92.75838	133.44188	143.20592	153.78363	221.31824	259.56073	0
191	37.42882	362.08315	324.65433	-200.16282	-143.20592	344.18241	90.31737	135.88289	148.08794	156.22464	226.20026	259.56073	0
192	32.5468	354.76012	322.21332	-192.83979	-145.64693	339.30039	85.43535	138.3239	150.52895	156.22464	228.64127	259.56073	0
193	22.78276	349.8781	327.09534	-185.51676	-152.96996	339.30039	85.43535	143.20592	155.41097	158.66565	231.08228	262.00174	0
194	17.90074	347.43709	329.53635	-183.07575	-155.41097	339.30039	85.43535	150.52895	162.734	168.42969	235.9643	262.00174	0
195	15.45973	349.8781	334.41837	-183.07575	-160.29299	341.7414	85.43535	157.85198	174.93905	178.19373	243.28733	266.88376	0
196	25.22377	359.64214	334.41837	-192.83979	-155.41097	346.62342	90.31737	167.61602	192.02612	195.2808	253.05137	274.20679	0
197	37.42882	371.84719	334.41837	-205.04484	-148.08794	353.94645	92.75838	177.38006	204.23117	209.92686	265.25642	281.52982	0
198	52.07488	384.05224	331.97736	-217.24989	-140.76491	358.82847	97.6404	184.70309	211.5542	222.13191	275.02046	288.85285	0
199	64.27993	393.81628	329.53635	-229.45494	-133.44188	361.26948	97.6404	189.58511	216.43622	231.89595	282.34349	291.29386	0
200	64.27993	393.81628	329.53635	-229.45494	-133.44188	361.26948	95.19939	194.46713	223.75925	239.21898	284.7845	293.73487	0
201	59.39791	386.49325	327.09534	-222.13191	-133.44188	356.38746	95.19939	196.90814	228.64127	239.21898	284.7845	291.29386	0
202	49.63387	371.84719	322.21332	-209.92686	-135.88289	346.62342	90.31737	199.34915	231.08228	239.21898	284.7845	286.41184	0
203	39.86983	354.76012	314.89029	-197.72181	-138.3239	334.41837	92.75838	201.79016	235.9643	241.65999	284.7845	281.52982	0
204	27.66478	340.11406	312.44928	-183.07575	-143.20592	327.09534	95.19939	209.11319	245.72834	246.54201	284.7845	279.08881	0
205	25.22377	330.35002	305.12625	-178.19373	-140.76491	317.3313	97.6404	218.87723	262.81541	256.30605	289.66652	279.08881	0
206	32.5468	327.90901	295.36221	-180.63474	-131.00087	312.44928	104.96343	228.64127	277.46147	268.5111	294.54854	279.08881	0
207	47.19286	330.35002	283.15716	-187.95777	-118.79582	307.56726	107.40444	235.9643	289.66652	280.71615	301.87157	281.52982	0
208	61.83892	332.79103	270.95211	-197.72181	-104.14976	302.68524	107.40444	240.84632	294.54854	290.48019	306.75359	281.52982	0
209	71.60296	332.79103	261.18807	-202.60383	-94.38572	297.80322	104.96343	243.28733	294.54854	295.36221	306.75359	276.6478	0
210	76.48498	325.468	248.98302	-200.16282	-87.06269	288.03918	97.6404	240.84632	294.54854	292.9212	299.43056	269.32477	0
211	76.48498	310.82194	234.33696	-192.83979	-79.73966	273.39312	90.31737	235.9643	287.22551	285.59817	289.66652	257.11972	0
212	66.72094	286.41184	219.6909	-175.75272	-77.29865	253.86504	82.99434	231.08228	284.7845	278.27514	279.90248	242.47366	0
213	54.51589	259.56073	205.04484	-156.22464	-74.85764	231.89595	80.55333	228.64127	279.90248	270.95211	267.69743	227.8276	0
214	47.19286	235.15063	187.95777	-141.57858	-69.97562	212.36787	78.11232	228.64127	279.90248	268.5111	260.3744	215.62255	0
215	47.19286	218.06356	170.8707	-131.81454	-62.65259	195.2808	78.11232	228.64127	287.22551	266.07009	253.05137	205.85851	0
216	56.9569	205.85851	148.90161	-131.81454	-45.56552	178.19373	80.55333	231.08228	294.54854	268.5111	248.16935	198.53548	0
217	69.16195	200.97649	131.81454	-134.25555	-30.91946	165.98868	85.43535	233.52329	296.98955	268.5111	243.28733	193.65346	0
218	78.92599	198.53548	119.60949	-139.13757	-21.15542	158.66565	85.43535	233.52329	294.54854	268.5111	240.84632	186.33043	0
219	86.24902	191.21245	104.96343	-139.13757	-8.95037	148.90161	80.55333	228.64127	284.7845	261.18807	231.08228	174.12538	0
220	86.24902	179.0074	92.75838	-131.81454	-3.25468	136.69656	73.2303	221.31824	272.57945	248.98302	213.99521	159.47932	0
221	83.80801	157.03831	73.2303	-119.60949	6.50936	114.72747	63.46626	211.5542	255.49238	229.45494	194.46713	142.39225	0
222	71.60296	130.1872	58.58424	-100.08141	6.50936	95.19939	53.70222	201.79016	238.40531	209.92686	177.38006	122.86417	0
223	52.07488	100.89508	48.8202	-75.67131	1.62734	75.67131	51.26121	194.46713	221.31824	192.83979	157.85198	105.7771	0
224	37.42882	78.92599	41.49717	-58.58424	-0.81367	61.02525	51.26121	189.58511	211.5542	180.63474	143.20592	88.69003	0
225	32.5468	64.27993	31.73313	-48.8202	1.62734	48.8202	51.26121	184.70309	206.67218	170.8707	131.00087	76.48498	0
226	39.86983	56.9569	17.08707	-48.8202	11.39138	36.61515	56.14323	179.82107	204.23117	163.54767	118.79582	66.72094	0
227	52.07488	56.9569	4.06835	-53.70222	23.59643	31.73313	61.02525	172.49804	199.34915	158.66565	111.47279	59.39791	0
228	61.83892	59.39791	-3.25468	-61.02525	33.36047	29.29212	63.46626	162.734	189.58511	151.34262	104.14976	52.07488	0
229	66.72094	59.39791	-8.1367	-63.46626	38.24249	26.85111	63.46626	148.08794	172.49804	139.13757	94.38572	39.86983	0
230	64.27993	52.07488	-13.01872	-58.58424	38.24249	19.52808	56.14323	131.00087	157.85198	124.49151	77.29865	27.66478	0
231	54.51589	32.5468	-22.78276	-43.93818	38.24249	4.88202	48.8202	111.47279	135.88289	102.52242	57.77057	10.57771	0
232	37.42882	8.1367	-30.10579	-21.96909	33.36047	-10.57771	43.93818	91.94471	116.35481	80.55333	38.24249	-6.50936	0
233	17.90074	-14.64606	-32.5468	-2.44101	23.59643	-22.78276	43.93818	77.29865	99.26774	61.02525	21.15542	-21.96909	0
234	-1.62734	-36.61515	-34.98781	17.90074	16.2734	-34.98781	43.93818	67.53461	89.5037	48.8202	8.95037	-34.17414	0
235	-9.76404	-46.37919	-37.42882	27.66478	13.83239	-42.31084	46.37919	62.65259	87.06269	41.49717	-3.25468	-43.93818	0
236	-6.50936	-48.8202	-42.31084	27.66478	16.2734	-44.75185	53.70222	57.77057	87.06269	36.61515	-8.1367	-46.37919	0
237	5.69569	-41.49717	-47.19286	17.90074	26.03744	-44.75185	61.02525	55.32956	84.62168	36.61515	-10.57771	-48.8202	0
238	17.90074	-34.17414	-52.07488	8.1367	33.36047	-42.31084	65.90727	52.88855	74.85764	31.73313	-13.01872	-51.26121	0
239	22.78276	-26.85111	-49.63387	2.44101	35.80148	-37.42882	63.46626	43.12451	62.65259	24.4101	-23.59643	-58.58424	0
240	22.78276	-29.29212	-52.07488	2.44101	35.80148	-39.86983	58.58424	32.5468	48.00653	9.76404	-33.36047	-68.34828	0
241	15.45973	-41.49717	-56.9569	13.01872	35.80148	-49.63387	51.26121	20.34175	30.91946	-7.32303	-48.00653	-80.55333	0
242	0.81367	-61.02525	-61.83892	30.10579	30.91946	-61.83892	46.37919	8.1367	16.2734	-24.4101	-62.65259	-92.75838	0
243	-9.76404	-80.55333	-71.60296	44.75185	30.91946	-76.48498	43.93818	-1.62734	4.06835	-37.42882	-74.85764	-104.96343	0
244	-21.96909	-95.19939	-74.04397	56.9569	26.03744	-86.24902	43.93818	-6.50936	-1.62734	-44.75185	-82.18067	-109.84545	0
245	-29.29212	-97.6404	-69.16195	61.83892	18.71441	-83.80801	51.26121	-1.62734	6.50936	-42.31084	-82.18067	-107.40444	0
246	-24.4101	-95.19939	-71.60296	59.39791	23.59643	-83.80801	61.02525	3.25468	16.2734	-34.98781	-77.29865	-100.08141	0
247	-12.20505	-80.55333	-69.16195	44.75185	28.47845	-76.48498	68.34828	8.1367	21.15542	-27.66478	-69.97562	-92.75838	0
248	-1.62734	-65.90727	-64.27993	32.5468	30.91946	-64.27993	73.2303	10.57771	23.59643	-19.52808	-65.0936	-87.87636	0
249	5.69569	-56.14323	-61.83892	25.22377	33.36047	-59.39791	75.67131	10.57771	16.2734	-19.52808	-62.65259	-87.87636	0
250	5.69569	-56.14323	-61.83892	25.22377	33.36047	-59.39791	68.34828	3.25468	11.39138	-24.4101	-67.53461	-90.31737	0
251	0.81367	-65.90727	-66.72094	32.5468	33.36047	-66.72094	61.02525	-4.06835	-1.62734	-34.98781	-77.29865	-100.08141	0
252	-12.20505	-82.99434	-71.60296	47.19286	28.47845	-78.92599	51.26121	-13.83239	-11.39138	-49.63387	-87.06269	-112.28646	1500	QRS+0
253	-29.29212	-102.52242	-74.04397	64.27993	21.15542	-88.69003	48.8202	-21.15542	-18.71441	-59.39791	-96.82673	-119.60949	0
254	-41.49717	-117.16848	-76.48498	78.92599	16.2734	-98.45407	48.8202	-21.15542	-18.71441	-61.83892	-96.82673	-122.0505	0
255	-43.93818	-119.60949	-76.48498	81.367	16.2734	-98.45407	53.70222	-16.2734	-11.39138	-59.39791	-96.82673	-122.0505	0
256	-31.73313	-112.28646	-81.367	71.60296	23.59643	-98.45407	58.58424	-11.39138	-1.62734	-52.07488	-91.94471	-117.16848	0
257	-14.64606	-95.19939	-81.367	54.51589	33.36047	-88.69003	65.90727	-6.50936	6.50936	-44.75185	-82.18067	-112.28646	0
258	0.81367	-78.11232	-78.92599	37.42882	38.24249	-78.92599	68.34828	-1.62734	8.95037	-37.42882	-74.85764	-104.96343	0
259	10.57771	-63.46626	-74.04397	25.22377	40.6835	-69.16195	65.90727	-4.06835	4.06835	-37.42882	-74.85764	-104.96343	0
260	13.01872	-61.02525	-74.04397	22.78276	43.12451	-66.72094	58.58424	-8.95037	-1.62734	-42.31084	-79.73966	-109.84545	0
261	3.25468	-70.78929	-74.04397	32.5468	38.24249	-71.60296	51.26121	-16.2734	-8.95037	-54.51589	-87.06269	-117.16848	0
262	-14.64606	-87.87636	-74.04397	49.63387	28.47845	-81.367	43.93818	-23.59643	-18.71441	-66.72094	-96.82673	-126.93252	0
263	-34.17414	-107.40444	-74.04397	69.16195	18.71441	-91.13104	41.49717	-28.47845	-26.03744	-74.04397	-101.70875	-134.25555	0
264	-48.8202	-122.0505	-74.04397	83.80801	11.39138	-98.45407	41.49717	-28.47845	-28.47845	-76.48498	-104.14976	-136.69656	0
265	-51.26121	-124.49151	-74.04397	86.24902	11.39138	-100.89508	43.93818	-26.03744	-18.71441	-71.60296	-104.14976	-134.25555	0
266	-43.93818	-117.16848	-74.04397	78.92599	13.83239	-96.01306	51.26121	-16.2734	-6.50936	-64.27993	-96.82673	-126.93252	0
267	-26.85111	-100.08141	-74.04397	61.83892	23.59643	-88.69003	58.58424	-11.39138	-1.62734	-54.51589	-87.06269	-117.16848	0
268	-12.20505	-82.99434	-71.60296	47.19286	28.47845	-78.92599	61.02525	-6.50936	1.62734	-47.19286	-79.73966	-109.84545	0
269	-1.62734	-70.78929	-69.16195	34.98781	33.36047	-69.16195	58.58424	-6.50936	-4.06835	-47.19286	-79.73966	-109.84545	0
270	0.81367	-65.90727	-66.72094	32.5468	33.36047	-66.72094	48.8202	-13.83239	-13.83239	-54.51589	-87.06269	-112.28646	0
271	-9.76404	-78.11232	-69.16195	42.31084	28.47845	-74.04397	39.05616	-21.15542	-26.03744	-66.72094	-96.82673	-122.0505	0
272	-26.85111	-97.6404	-71.60296	61.83892	21.15542	-86.24902	28.47845	-30.91946	-38.24249	-81.367	-109.03178	-131.81454	0
273	-48.8202	-119.60949	-71.60296	83.80801	11.39138	-96.01306	26.03744	-35.80148	-45.56552	-88.69003	-116.35481	-141.57858	0
274	-68.34828	-134.25555	-66.72094	100.89508	-0.81367	-100.89508	26.03744	-35.80148	-43.12451	-91.13104	-116.35481	-144.01959	0
275	-73.2303	-139.13757	-66.72094	105.7771	-3.25468	-103.33609	28.47845	-30.91946	-33.36047	-88.69003	-116.35481	-144.01959	0
276	-65.90727	-131.81454	-66.72094	98.45407	-0.81367	-100.89508	34.17414	-23.59643	-21.15542	-78.92599	-111.47279	-136.69656	0
277	-51.26121	-119.60949	-69.16195	83.80801	8.95037	-96.01306	41.49717	-13.83239	-11.39138	-66.72094	-101.70875	-129.37353	0
278	-34.17414	-102.52242	-69.16195	66.72094	16.2734	-86.24902	46.37919	-8.95037	-8.95037	-59.39791	-94.38572	-124.49151	0
279	-26.85111	-92.75838	-66.72094	59.39791	18.71441	-81.367	46.37919	-8.95037	-11.39138	-56.9569	-91.94471	-124.49151	0
280	-26.85111	-92.75838	-66.72094	59.39791	18.71441	-81.367	39.05616	-13.83239	-18.71441	-61.83892	-96.82673	-129.37353	0
281	-36.61515	-107.40444	-71.60296	71.60296	16.2734	-91.13104	28.47845	-23.59643	-28.47845	-74.04397	-104.14976	-136.69656	0
282	-58.58424	-129.37353	-71.60296	93.57205	6.50936	-100.89508	23.59643	-30.91946	-38.24249	-86.24902	-113.9138	-146.4606	0
283	-85.43535	-153.78363	-69.16195	117.98215	-8.95037	-113.10013	21.15542	-35.80148	-45.56552	-93.57205	-123.67784	-156.22464	0
284	-102.52242	-170.8707	-69.16195	135.06922	-18.71441	-120.42316	21.15542	-35.80148	-45.56552	-96.01306	-126.11885	-158.66565	0
285	-104.96343	-175.75272	-71.60296	139.95124	-18.71441	-125.30518	23.59643	-33.36047	-35.80148	-93.57205	-126.11885	-158.66565	0
286	-95.19939	-168.42969	-74.04397	130.1872	-11.39138	-122.86417	28.47845	-26.03744	-26.03744	-86.24902	-121.23683	-151.34262	0
287	-75.67131	-151.34262	-76.48498	113.10013	-0.81367	-115.54114	36.61515	-18.71441	-16.2734	-76.48498	-113.9138	-144.01959	0
288	-56.14323	-131.81454	-76.48498	93.57205	8.95037	-105.7771	41.49717	-13.83239	-13.83239	-69.16195	-106.59077	-139.13757	0
289	-46.37919	-122.0505	-76.48498	83.80801	13.83239	-100.89508	43.93818	-13.83239	-16.2734	-66.72094	-104.14976	-136.69656	0
290	-46.37919	-119.60949	-74.04397	81.367	13.83239	-98.45407	36.61515	-18.71441	-21.15542	-71.60296	-109.03178	-141.57858	0
291	-53.70222	-131.81454	-78.92599	91.13104	11.39138	-105.7771	28.47845	-26.03744	-30.91946	-83.80801	-118.79582	-148.90161	0
292	-68.34828	-153.78363	-86.24902	110.65912	8.95037	-120.42316	21.15542	-35.80148	-43.12451	-96.01306	-131.00087	-161.10666	0
293	-92.75838	-178.19373	-86.24902	135.06922	-3.25468	-132.62821	18.71441	-40.6835	-50.44754	-105.7771	-138.3239	-168.42969	0
294	-112.28646	-192.83979	-81.367	152.15629	-16.2734	-137.51023	18.71441	-40.6835	-50.44754	-105.7771	-140.76491	-173.31171	0
295	-114.72747	-197.72181	-83.80801	154.5973	-16.2734	-142.39225	23.59643	-35.80148	-43.12451	-103.33609	-140.76491	-170.8707	0
296	-97.6404	-187.95777	-91.13104	142.39225	-3.25468	-139.95124	28.47845	-30.91946	-33.36047	-96.01306	-135.88289	-165.98868	0
297	-82.99434	-168.42969	-86.24902	125.30518	1.62734	-127.74619	36.61515	-21.15542	-21.15542	-83.80801	-126.11885	-156.22464	0
298	-68.34828	-148.90161	-81.367	108.21811	6.50936	-115.54114	43.93818	-13.83239	-16.2734	-74.04397	-118.79582	-148.90161	0
299	-58.58424	-134.25555	-76.48498	96.01306	8.95037	-105.7771	46.37919	-13.83239	-18.71441	-74.04397	-116.35481	-148.90161	0
300	-56.14323	-131.81454	-76.48498	93.57205	8.95037	-105.7771	41.49717	-16.2734	-26.03744	-78.92599	-121.23683	-151.34262	0
301	-63.46626	-141.57858	-78.92599	100.89508	6.50936	-110.65912	36.61515	-21.15542	-33.36047	-88.69003	-128.55986	-158.66565	0
302	-82.99434	-161.10666	-78.92599	120.42316	-3.25468	-120.42316	31.73313	-26.03744	-43.12451	-100.89508	-138.3239	-165.98868	0
303	-102.52242	-180.63474	-78.92599	139.95124	-13.83239	-130.1872	31.73313	-28.47845	-48.00653	-108.21811	-143.20592	-173.31171	0
304	-112.28646	-192.83979	-81.367	152.15629	-16.2734	-137.51023	31.73313	-26.03744	-48.00653	-108.21811	-145.64693	-175.75272	0
305	-109.84545	-190.39878	-81.367	149.71528	-16.2734	-137.51023	39.05616	-21.15542	-35.80148	-103.33609	-143.20592	-170.8707	0
306	-90.31737	-178.19373	-88.69003	132.62821	-0.81367	-135.06922	48.8202	-11.39138	-23.59643	-93.57205	-135.88289	-161.10666	0
307	-65.90727	-153.78363	-88.69003	108.21811	11.39138	-122.86417	56.14323	-1.62734	-11.39138	-81.367	-123.67784	-151.34262	0
308	-41.49717	-129.37353	-88.69003	83.80801	23.59643	-110.65912	63.46626	3.25468	-8.95037	-71.60296	-116.35481	-144.01959	0
309	-24.4101	-112.28646	-88.69003	66.72094	30.91946	-100.89508	63.46626	3.25468	-11.39138	-69.16195	-113.9138	-139.13757	0
310	-17.08707	-107.40444	-91.13104	61.83892	35.80148	-100.89508	58.58424	0.81367	-16.2734	-74.04397	-118.79582	-139.13757	0
311	-24.4101	-114.72747	-91.13104	69.16195	33.36047	-103.33609	53.70222	-6.50936	-26.03744	-83.80801	-126.11885	-144.01959	0
312	-43.93818	-131.81454	-88.69003	86.24902	21.15542	-110.65912	48.8202	-13.83239	-35.80148	-96.01306	-135.88289	-153.78363	0
313	-61.02525	-153.78363	-93.57205	105.7771	16.2734	-125.30518	43.93818	-21.15542	-45.56552	-105.7771	-145.64693	-161.10666	0
314	-73.2303	-168.42969	-96.01306	120.42316	11.39138	-132.62821	43.93818	-21.15542	-45.56552	-108.21811	-148.08794	-163.54767	0
315	-78.11232	-170.8707	-93.57205	122.86417	6.50936	-132.62821	48.8202	-16.2734	-35.80148	-103.33609	-148.08794	-161.10666	0
316	-68.34828	-161.10666	-93.57205	113.10013	11.39138	-127.74619	58.58424	-8.95037	-23.59643	-93.57205	-140.76491	-153.78363	0
317	-48.8202	-144.01959	-96.01306	96.01306	23.59643	-120.42316	63.46626	-1.62734	-13.83239	-83.80801	-131.00087	-146.4606	0
318	-26.85111	-124.49151	-98.45407	74.04397	35.80148	-113.10013	68.34828	3.25468	-11.39138	-74.04397	-121.23683	-141.57858	0
319	-14.64606	-112.28646	-98.45407	61.83892	40.6835	-105.7771	68.34828	3.25468	-13.83239	-71.60296	-118.79582	-139.13757	0
320	-12.20505	-107.40444	-96.01306	59.39791	40.6835	-103.33609	61.02525	-1.62734	-18.71441	-74.04397	-121.23683	-139.13757	0
321	-21.96909	-119.60949	-98.45407	69.16195	38.24249	-110.65912	53.70222	-8.95037	-28.47845	-86.24902	-128.55986	-146.4606	0
322	-39.05616	-139.13757	-100.89508	88.69003	30.91946	-120.42316	46.37919	-18.71441	-40.6835	-96.01306	-135.88289	-153.78363	0
323	-63.46626	-161.10666	-98.45407	110.65912	16.2734	-130.1872	43.93818	-26.03744	-48.00653	-105.7771	-143.20592	-161.10666	0
324	-78.11232	-175.75272	-98.45407	125.30518	8.95037	-137.51023	41.49717	-28.47845	-50.44754	-108.21811	-148.08794	-163.54767	0
325	-82.99434	-183.07575	-100.89508	132.62821	8.95037	-142.39225	41.49717	-28.47845	-45.56552	-110.65912	-148.08794	-163.54767	0
326	-73.2303	-178.19373	-105.7771	125.30518	16.2734	-142.39225	46.37919	-26.03744	-35.80148	-103.33609	-143.20592	-156.22464	0
327	-56.14323	-165.98868	-110.65912	110.65912	26.03744	-139.95124	51.26121	-16.2734	-23.59643	-91.13104	-133.44188	-146.4606	0
328	-36.61515	-146.4606	-110.65912	91.13104	35.80148	-130.1872	56.14323	-8.95037	-18.71441	-81.367	-121.23683	-136.69656	0
329	-17.08707	-129.37353	-113.10013	71.60296	48.00653	-122.86417	56.14323	-4.06835	-18.71441	-76.48498	-118.79582	-134.25555	0
330	-9.76404	-122.0505	-113.10013	64.27993	50.44754	-117.98215	53.70222	-4.06835	-18.71441	-74.04397	-118.79582	-131.81454	0
331	-14.64606	-124.49151	-110.65912	69.16195	48.00653	-117.98215	48.8202	-4.06835	-23.59643	-78.92599	-118.79582	-134.25555	0
332	-29.29212	-139.13757	-110.65912	83.80801	40.6835	-125.30518	43.93818	-11.39138	-33.36047	-91.13104	-126.11885	-141.57858	0
333	-43.93818	-158.66565	-115.54114	100.89508	35.80148	-137.51023	36.61515	-18.71441	-45.56552	-103.33609	-140.76491	-153.78363	0
334	-63.46626	-180.63474	-117.98215	120.42316	26.03744	-149.71528	28.47845	-28.47845	-55.32956	-117.98215	-152.96996	-165.98868	0
335	-85.43535	-200.16282	-115.54114	142.39225	13.83239	-159.47932	23.59643	-33.36047	-57.77057	-125.30518	-162.734	-173.31171	0
336	-102.52242	-209.92686	-108.21811	154.5973	1.62734	-159.47932	23.59643	-35.80148	-57.77057	-127.74619	-165.17501	-175.75272	0
337	-104.96343	-212.36787	-108.21811	157.03831	1.62734	-161.92033	23.59643	-35.80148	-57.77057	-125.30518	-165.17501	-175.75272	0
338	-102.52242	-207.48585	-105.7771	154.5973	1.62734	-157.03831	26.03744	-33.36047	-52.88855	-115.54114	-155.41097	-168.42969	0
339	-87.87636	-192.83979	-105.7771	139.95124	8.95037	-149.71528	31.73313	-28.47845	-48.00653	-105.7771	-145.64693	-156.22464	0
340	-70.78929	-173.31171	-103.33609	120.42316	16.2734	-139.95124	39.05616	-21.15542	-35.80148	-91.13104	-131.00087	-139.13757	0
341	-46.37919	-148.90161	-103.33609	96.01306	28.47845	-127.74619	48.8202	-13.83239	-26.03744	-78.92599	-116.35481	-124.49151	0
342	-19.52808	-129.37353	-110.65912	74.04397	45.56552	-120.42316	53.70222	-8.95037	-23.59643	-74.04397	-106.59077	-114.72747	-1500	QRS-0
343	-1.62734	-114.72747	-113.10013	56.9569	55.32956	-113.10013	56.14323	-8.95037	-26.03744	-76.48498	-104.14976	-112.28646	0
344	3.25468	-109.84545	-113.10013	52.07488	57.77057	-110.65912	51.26121	-11.39138	-28.47845	-83.80801	-111.47279	-117.16848	0
345	-4.06835	-117.16848	-113.10013	59.39791	52.88855	-115.54114	43.93818	-18.71441	-38.24249	-96.01306	-123.67784	-126.93252	0
346	-26.85111	-134.25555	-108.21811	78.92599	40.6835	-122.86417	34.17414	-28.47845	-48.00653	-110.65912	-138.3239	-144.01959	0
347	-53.70222	-158.66565	-105.7771	105.7771	26.03744	-132.62821	26.03744	-40.6835	-60.21158	-125.30518	-150.52895	-158.66565	0
348	-80.55333	-178.19373	-98.45407	127.74619	8.95037	-139.95124	21.15542	-48.00653	-65.0936	-130.1872	-157.85198	-168.42969	0
349	-100.08141	-192.83979	-93.57205	144.83326	-3.25468	-144.83326	21.15542	-48.00653	-65.0936	-125.30518	-157.85198	-165.98868	0
350	-100.08141	-190.39878	-91.13104	144.83326	-5.69569	-142.39225	23.59643	-43.12451	-57.77057	-115.54114	-150.52895	-156.22464	0
351	-82.99434	-178.19373	-96.01306	130.1872	6.50936	-137.51023	31.73313	-35.80148	-48.00653	-100.89508	-135.88289	-141.57858	0
352	-61.02525	-156.22464	-96.01306	108.21811	16.2734	-127.74619	39.05616	-23.59643	-40.6835	-86.24902	-121.23683	-124.49151	0
353	-36.61515	-131.81454	-96.01306	83.80801	28.47845	-115.54114	46.37919	-16.2734	-35.80148	-76.48498	-111.47279	-109.84545	0
354	-19.52808	-117.16848	-98.45407	66.72094	38.24249	-108.21811	46.37919	-13.83239	-35.80148	-76.48498	-109.03178	-109.84545	0
355	-14.64606	-112.28646	-98.45407	61.83892	40.6835	-105.7771	36.61515	-18.71441	-43.12451	-86.24902	-118.79582	-117.16848	0
356	-26.85111	-122.0505	-96.01306	74.04397	33.36047	-110.65912	28.47845	-28.47845	-50.44754	-98.45407	-131.00087	-129.37353	0
357	-58.58424	-141.57858	-83.80801	98.45407	11.39138	-113.10013	21.15542	-35.80148	-60.21158	-105.7771	-140.76491	-139.13757	0
358	-85.43535	-163.54767	-78.92599	122.86417	-3.25468	-122.86417	16.2734	-40.6835	-65.0936	-110.65912	-145.64693	-148.90161	0
359	-102.52242	-178.19373	-76.48498	139.95124	-13.83239	-127.74619	11.39138	-43.12451	-62.65259	-108.21811	-143.20592	-148.90161	0
360	-102.52242	-178.19373	-76.48498	139.95124	-13.83239	-127.74619	11.39138	-38.24249	-55.32956	-98.45407	-133.44188	-136.69656	0
361	-87.87636	-161.10666	-74.04397	122.86417	-8.95037	-117.98215	21.15542	-28.47845	-45.56552	-83.80801	-116.35481	-119.60949	0
362	-56.14323	-134.25555	-78.92599	93.57205	11.39138	-108.21811	28.47845	-21.15542	-38.24249	-71.60296	-99.26774	-100.08141	0
363	-24.4101	-107.40444	-83.80801	64.27993	28.47845	-96.01306	28.47845	-13.83239	-33.36047	-61.83892	-89.5037	-87.87636	0
364	-1.62734	-85.43535	-83.80801	42.31084	40.6835	-83.80801	28.47845	-13.83239	-30.91946	-61.83892	-87.06269	-85.43535	0
365	8.1367	-78.11232	-86.24902	34.98781	45.56552	-81.367	21.15542	-21.15542	-38.24249	-71.60296	-96.82673	-90.31737	0
366	-1.62734	-85.43535	-83.80801	42.31084	40.6835	-83.80801	8.95037	-30.91946	-45.56552	-83.80801	-109.03178	-104.96343	0
367	-21.96909	-104.96343	-83.80801	61.83892	30.91946	-96.01306	-0.81367	-40.6835	-55.32956	-93.57205	-118.79582	-117.16848	0
368	-46.37919	-124.49151	-78.92599	83.80801	16.2734	-103.33609	-10.57771	-48.00653	-57.77057	-98.45407	-126.11885	-124.49151	0
369	-65.90727	-139.13757	-74.04397	100.89508	4.06835	-108.21811	-15.45973	-45.56552	-55.32956	-93.57205	-121.23683	-122.0505	0
370	-61.02525	-141.57858	-81.367	100.89508	8.95037	-113.10013	-15.45973	-40.6835	-45.56552	-81.367	-109.03178	-109.84545	0
371	-41.49717	-126.93252	-86.24902	83.80801	21.15542	-108.21811	-13.01872	-33.36047	-35.80148	-66.72094	-94.38572	-92.75838	0
372	-9.76404	-102.52242	-93.57205	54.51589	40.6835	-98.45407	-5.69569	-23.59643	-28.47845	-54.51589	-77.29865	-75.67131	0
373	25.22377	-78.11232	-103.33609	25.22377	62.65259	-91.13104	-5.69569	-18.71441	-26.03744	-47.19286	-69.97562	-63.46626	0
374	44.75185	-58.58424	-103.33609	4.88202	72.41663	-81.367	-5.69569	-18.71441	-26.03744	-47.19286	-67.53461	-63.46626	0
375	49.63387	-58.58424	-108.21811	4.88202	77.29865	-83.80801	-13.01872	-26.03744	-35.80148	-59.39791	-82.18067	-73.2303	0
376	34.98781	-73.2303	-108.21811	17.90074	69.97562	-91.13104	-22.78276	-40.6835	-48.00653	-76.48498	-101.70875	-90.31737	0
377	5.69569	-100.08141	-105.7771	47.19286	55.32956	-103.33609	-30.10579	-55.32956	-62.65259	-93.57205	-116.35481	-109.84545	0
378	-26.85111	-124.49151	-98.45407	74.04397	35.80148	-113.10013	-37.42882	-65.0936	-72.41663	-100.89508	-123.67784	-119.60949	0
379	-48.8202	-144.01959	-96.01306	96.01306	23.59643	-120.42316	-37.42882	-69.97562	-74.85764	-103.33609	-126.11885	-119.60949	0
380	-48.8202	-146.4606	-98.45407	96.01306	23.59643	-122.86417	-34.98781	-69.97562	-69.97562	-96.01306	-118.79582	-112.28646	0
381	-29.29212	-134.25555	-105.7771	81.367	38.24249	-120.42316	-25.22377	-60.21158	-62.65259	-83.80801	-104.14976	-95.19939	0
382	-4.06835	-109.84545	-105.7771	56.9569	50.44754	-108.21811	-15.45973	-48.00653	-52.88855	-66.72094	-84.62168	-75.67131	0
383	25.22377	-82.99434	-108.21811	27.66478	65.0936	-96.01306	-5.69569	-38.24249	-45.56552	-56.9569	-72.41663	-61.02525	0
384	42.31084	-65.90727	-108.21811	10.57771	74.85764	-86.24902	-3.25468	-35.80148	-45.56552	-56.9569	-69.97562	-58.58424	0
385	42.31084	-65.90727	-108.21811	10.57771	74.85764	-86.24902	-8.1367	-38.24249	-50.44754	-66.72094	-82.18067	-65.90727	0
386	22.78276	-82.99434	-105.7771	30.10579	62.65259	-93.57205	-13.01872	-48.00653	-62.65259	-81.367	-96.82673	-85.43535	0
387	-9.76404	-109.84545	-100.89508	59.39791	45.56552	-105.7771	-17.90074	-57.77057	-74.85764	-98.45407	-111.47279	-102.52242	0
388	-41.49717	-141.57858	-100.89508	91.13104	28.47845	-122.86417	-22.78276	-67.53461	-82.18067	-108.21811	-123.67784	-119.60949	0
389	-70.78929	-163.54767	-93.57205	115.54114	11.39138	-130.1872	-22.78276	-69.97562	-84.62168	-110.65912	-128.55986	-124.49151	0
390	-78.11232	-168.42969	-91.13104	122.86417	6.50936	-130.1872	-15.45973	-65.0936	-79.73966	-103.33609	-121.23683	-117.16848	0
391	-63.46626	-161.10666	-98.45407	110.65912	16.2734	-130.1872	-3.25468	-55.32956	-69.97562	-91.13104	-109.03178	-104.96343	0
392	-34.17414	-141.57858	-108.21811	86.24902	35.80148	-125.30518	6.50936	-43.12451	-62.65259	-78.92599	-94.38572	-90.31737	0
393	-6.50936	-119.60949	-113.10013	61.83892	52.88855	-115.54114	13.83239	-33.36047	-55.32956	-71.60296	-87.06269	-80.55333	0
394	13.01872	-104.96343	-117.98215	44.75185	65.0936	-110.65912	16.2734	-28.47845	-55.32956	-74.04397	-87.06269	-82.99434	0
395	15.45973	-102.52242	-117.98215	42.31084	65.0936	-110.65912	8.95037	-33.36047	-62.65259	-83.80801	-99.26774	-92.75838	0
396	0.81367	-119.60949	-120.42316	59.39791	60.21158	-120.42316	1.62734	-40.6835	-72.41663	-100.89508	-116.35481	-112.28646	0
397	-26.85111	-146.4606	-120.42316	86.24902	45.56552	-135.06922	-8.1367	-52.88855	-87.06269	-115.54114	-133.44188	-131.81454	0
398	-63.46626	-175.75272	-113.10013	117.98215	23.59643	-144.83326	-13.01872	-60.21158	-94.38572	-127.74619	-145.64693	-146.4606	0
399	-90.31737	-197.72181	-108.21811	142.39225	8.95037	-154.5973	-10.57771	-60.21158	-94.38572	-127.74619	-148.08794	-148.90161	0
400	-102.52242	-202.60383	-100.89508	152.15629	-0.81367	-152.15629	-5.69569	-50.44754	-87.06269	-115.54114	-138.3239	-139.13757	0
401	-87.87636	-192.83979	-105.7771	139.95124	8.95037	-149.71528	6.50936	-38.24249	-74.85764	-103.33609	-126.11885	-124.49151	0
402	-61.02525	-170.8707	-110.65912	115.54114	23.59643	-142.39225	18.71441	-26.03744	-67.53461	-88.69003	-109.03178	-107.40444	0
403	-29.29212	-144.01959	-115.54114	86.24902	43.12451	-130.1872	26.03744	-16.2734	-62.65259	-81.367	-101.70875	-95.19939	0
404	-9.76404	-126.93252	-117.98215	66.72094	52.88855	-122.86417	26.03744	-13.83239	-60.21158	-81.367	-101.70875	-95.19939	0
405	-1.62734	-122.0505	-120.42316	61.83892	57.77057	-120.42316	21.15542	-23.59643	-69.97562	-93.57205	-113.9138	-104.96343	0
406	-12.20505	-134.25555	-122.86417	71.60296	55.32956	-130.1872	11.39138	-35.80148	-79.73966	-108.21811	-131.00087	-122.0505	0
407	-41.49717	-158.66565	-117.98215	98.45407	38.24249	-139.95124	4.06835	-48.00653	-94.38572	-122.86417	-148.08794	-141.57858	0
408	-75.67131	-185.51676	-110.65912	130.1872	16.2734	-149.71528	-3.25468	-57.77057	-101.70875	-132.62821	-157.85198	-153.78363	0
409	-95.19939	-202.60383	-108.21811	147.27427	6.50936	-157.03831	-3.25468	-60.21158	-101.70875	-132.62821	-160.29299	-156.22464	0
410	-102.52242	-205.04484	-103.33609	152.15629	-0.81367	-154.5973	1.62734	-52.88855	-91.94471	-122.86417	-150.52895	-144.01959	0
411	-87.87636	-187.95777	-100.89508	137.51023	6.50936	-144.83326	11.39138	-40.6835	-79.73966	-105.7771	-133.44188	-126.93252	0
412	-58.58424	-163.54767	-105.7771	110.65912	23.59643	-135.06922	21.15542	-26.03744	-69.97562	-91.13104	-116.35481	-109.84545	0
413	-26.85111	-136.69656	-110.65912	81.367	40.6835	-125.30518	26.03744	-18.71441	-65.0936	-83.80801	-106.59077	-95.19939	0
414	-4.06835	-117.16848	-113.10013	59.39791	52.88855	-115.54114	26.03744	-16.2734	-62.65259	-83.80801	-104.14976	-95.19939	0
415	0.81367	-114.72747	-115.54114	56.9569	57.77057	-115.54114	18.71441	-21.15542	-69.97562	-96.01306	-113.9138	-102.52242	0
416	-14.64606	-126.93252	-113.10013	69.16195	48.00653	-120.42316	8.95037	-30.91946	-79.73966	-110.65912	-128.55986	-119.60949	0
417	-41.49717	-153.78363	-113.10013	96.01306	35.80148	-135.06922	-0.81367	-40.6835	-91.94471	-125.30518	-143.20592	-136.69656	0
418	-73.2303	-183.07575	-110.65912	127.74619	18.71441	-147.27427	-5.69569	-50.44754	-101.70875	-135.06922	-152.96996	-151.34262	0
419	-95.19939	-202.60383	-108.21811	147.27427	6.50936	-157.03831	-5.69569	-50.44754	-101.70875	-135.06922	-155.41097	-153.78363	0
420	-102.52242	-207.48585	-105.7771	154.5973	1.62734	-157.03831	4.06835	-40.6835	-91.94471	-125.30518	-148.08794	-141.57858	0
421	-92.75838	-195.2808	-103.33609	142.39225	4.06835	-149.71528	18.71441	-23.59643	-79.73966	-110.65912	-133.44188	-126.93252	0
422	-70.78929	-173.31171	-103.33609	120.42316	16.2734	-139.95124	34.17414	-6.50936	-72.41663	-100.89508	-121.23683	-112.28646	0
423	-43.93818	-151.34262	-108.21811	96.01306	30.91946	-130.1872	51.26121	10.57771	-67.53461	-98.45407	-116.35481	-104.96343	0
424	-29.29212	-136.69656	-108.21811	81.367	38.24249	-122.86417	63.46626	25.22377	-65.0936	-103.33609	-123.67784	-109.84545	0
425	-34.17414	-141.57858	-108.21811	86.24902	35.80148	-125.30518	70.78929	32.5468	-67.53461	-117.98215	-140.76491	-124.49151	0
426	-56.14323	-158.66565	-103.33609	105.7771	23.59643	-132.62821	73.2303	32.5468	-72.41663	-137.51023	-162.734	-148.90161	0
427	-90.31737	-190.39878	-100.89508	139.95124	4.06835	-147.27427	70.78929	38.24249	-74.85764	-149.71528	-182.26208	-170.8707	0
428	-126.93252	-219.6909	-93.57205	171.68437	-18.71441	-157.03831	65.90727	48.00653	-65.0936	-147.27427	-187.1441	-183.07575	0
429	-148.90161	-234.33696	-86.24902	191.21245	-33.36047	-161.92033	58.58424	65.0936	-35.80148	-125.30518	-174.93905	-178.19373	0
430	-146.4606	-227.01393	-81.367	186.33043	-33.36047	-154.5973	53.70222	96.82673	6.50936	-83.80801	-145.64693	-153.78363	0
431	-112.28646	-195.2808	-83.80801	152.15629	-16.2734	-139.95124	43.93818	143.20592	74.85764	-19.52808	-91.94471	-112.28646	0
432	-53.70222	-146.4606	-93.57205	98.45407	18.71441	-120.42316	28.47845	204.23117	162.734	68.34828	-23.59643	-61.02525	0
433	22.78276	-85.43535	-108.21811	30.10579	65.0936	-96.01306	-0.81367	267.69743	265.25642	173.31171	62.65259	-1.62734	0
434	110.65912	-21.96909	-132.62821	-43.93818	121.23683	-76.48498	-54.51589	328.72268	382.4249	292.9212	157.85198	61.83892	0
435	196.09447	30.10579	-166.80235	-112.28646	182.26208	-69.16195	-127.74619	372.66086	502.03439	422.29473	260.3744	125.30518	0
436	274.20679	69.16195	-205.85851	-170.8707	240.84632	-69.16195	-210.74053	399.51197	619.20287	558.99129	367.77884	188.77144	0
437	340.11406	96.01306	-244.91467	-217.24989	292.10753	-74.04397	-305.93992	401.95298	724.1663	703.01088	484.94732	259.56073	0
438	401.13931	120.42316	-281.52982	-261.18807	340.92773	-81.367	-403.58032	387.30692	826.68872	854.3535	611.87984	337.67305	0
439	467.04658	154.5973	-313.26295	-310.00827	389.74793	-78.92599	-498.77971	355.57379	919.4471	1010.57814	746.13539	425.54941	0
440	542.71789	203.4175	-340.11406	-373.47453	441.00914	-69.16195	-586.65607	306.75359	990.23639	1154.59773	877.94993	520.7488	0
441	625.71223	264.44275	-362.08315	-444.26382	494.71136	-49.63387	-662.32738	231.08228	1024.41053	1269.3252	992.6774	611.06617	0
442	701.38354	330.35002	-371.84719	-515.05311	536.20853	-20.34175	-725.79364	133.44188	1017.0875	1337.67348	1078.11275	689.17849	0
443	755.08576	393.81628	-362.08315	-573.63735	558.17762	17.08707	-784.37788	17.90074	970.70831	1354.76055	1119.60992	742.88071	0
444	781.93687	440.19547	-342.55507	-610.2525	563.05964	48.8202	-838.0801	-133.44188	858.42185	1298.61732	1107.40487	762.40879	0
445	772.17283	459.72355	-313.26295	-615.13452	543.53156	73.2303	-891.78232	-323.84066	672.90509	1159.47975	1034.17457	747.76273	0
446	725.79364	447.5185	-279.08881	-585.8424	502.03439	85.43535	-935.7205	-545.97257	416.59904	947.11188	909.68306	698.94253	0
447	645.24031	408.46234	-237.59164	-527.25816	441.00914	85.43535	-969.89464	-787.63256	109.03178	678.60078	746.13539	630.59425	0
448	554.92294	352.31911	-203.4175	-454.02786	379.98389	75.67131	-996.74575	-1017.0875	-211.5542	388.12059	565.50065	547.59991	0
449	467.04658	291.29386	-176.56639	-378.35655	321.39965	58.58424	-1004.06878	-1207.48628	-504.4754	117.16848	392.18894	467.04658	0
450	398.6983	237.59164	-161.92033	-317.3313	279.90248	39.05616	-984.5407	-1334.4188	-738.81236	-110.65912	240.84632	396.25729	0
451	352.31911	203.4175	-149.71528	-278.27514	250.61036	26.85111	-935.7205	-1383.239	-892.59599	-276.6478	123.67784	337.67305	0
452	315.70396	186.33043	-130.1872	-251.42403	223.75925	29.29212	-862.4902	-1358.8289	-963.38528	-381.61123	40.6835	288.85285	0
453	281.52982	179.0074	-103.33609	-229.45494	192.02612	39.05616	-774.61384	-1266.07052	-956.06225	-430.43143	-17.90074	244.91467	0
454	244.91467	169.24336	-76.48498	-207.48585	160.29299	46.37919	-674.53243	-1126.93295	-882.83195	-432.87244	-57.77057	196.09447	0
455	198.53548	152.15629	-47.19286	-175.75272	123.67784	53.70222	-574.45102	-970.70831	-780.30953	-408.46234	-87.06269	149.71528	0
456	135.06922	127.74619	-8.1367	-131.81454	72.41663	61.02525	-481.69264	-816.92468	-670.46408	-374.2882	-111.47279	103.33609	0
457	69.16195	91.13104	21.96909	-80.55333	23.59643	56.14323	-401.13931	-680.22812	-570.38267	-340.11406	-126.11885	61.83892	0
458	5.69569	47.19286	41.49717	-26.85111	-18.71441	43.93818	-327.90901	-560.61863	-480.0653	-303.49891	-135.88289	25.22377	0
459	-34.17414	10.57771	43.93818	10.57771	-38.24249	26.85111	-262.00174	-450.77318	-397.07096	-262.00174	-133.44188	0.81367	0
460	-53.70222	-9.76404	43.93818	30.10579	-50.44754	17.08707	-200.97649	-350.69177	-314.07662	-213.18154	-118.79582	-4.06835	0
461	-46.37919	-12.20505	34.17414	27.66478	-40.6835	9.76404	-142.39225	-257.93339	-240.84632	-164.36134	-94.38572	0.81367	0
462	-21.96909	3.25468	24.4101	8.1367	-23.59643	12.20505	-93.57205	-182.26208	-179.82107	-120.42316	-67.53461	13.01872	0
463	3.25468	25.22377	21.96909	-14.64606	-8.95037	24.4101	-56.9569	-126.11885	-138.3239	-91.13104	-48.00653	20.34175	0
464	22.78276	39.86983	17.08707	-31.73313	4.06835	29.29212	-32.5468	-89.5037	-113.9138	-78.92599	-45.56552	20.34175	0
465	27.66478	39.86983	12.20505	-34.17414	8.95037	26.85111	-25.22377	-77.29865	-106.59077	-83.80801	-52.88855	8.1367	0
466	10.57771	22.78276	12.20505	-17.08707	-0.81367	17.08707	-25.22377	-77.29865	-111.47279	-98.45407	-69.97562	-12.20505	0
467	-21.96909	-4.88202	17.08707	13.01872	-21.15542	4.88202	-25.22377	-84.62168	-123.67784	-115.54114	-87.06269	-29.29212	0
468	-65.90727	-36.61515	29.29212	49.63387	-48.00653	-5.69569	-25.22377	-87.06269	-128.55986	-125.30518	-99.26774	-43.93818	0
469	-97.6404	-61.02525	36.61515	78.92599	-67.53461	-13.01872	-20.34175	-84.62168	-128.55986	-127.74619	-101.70875	-48.8202	0
470	-104.96343	-65.90727	39.05616	83.80801	-72.41663	-15.45973	-10.57771	-77.29865	-118.79582	-120.42316	-99.26774	-41.49717	0
471	-97.6404	-56.14323	41.49717	76.48498	-69.97562	-8.1367	4.06835	-60.21158	-106.59077	-105.7771	-84.62168	-24.4101	0
472	-75.67131	-34.17414	41.49717	54.51589	-60.21158	1.62734	21.15542	-40.6835	-91.94471	-91.13104	-67.53461	-8.95037	0
473	-43.93818	-7.32303	36.61515	25.22377	-40.6835	14.64606	28.47845	-26.03744	-82.18067	-81.367	-57.77057	3.25468	0
474	-24.4101	10.57771	34.17414	4.88202	-28.47845	21.96909	31.73313	-18.71441	-77.29865	-81.367	-57.77057	3.25468	0
475	-21.96909	10.57771	31.73313	4.88202	-26.03744	19.52808	28.47845	-21.15542	-82.18067	-91.13104	-69.97562	-6.50936	0
476	-46.37919	-2.44101	43.93818	22.78276	-45.56552	19.52808	26.03744	-26.03744	-87.06269	-103.33609	-84.62168	-21.96909	0
477	-82.99434	-31.73313	51.26121	56.9569	-67.53461	9.76404	21.15542	-35.80148	-96.82673	-117.98215	-96.82673	-39.05616	0
478	-117.16848	-63.46626	53.70222	88.69003	-87.06269	-5.69569	13.83239	-43.12451	-104.14976	-127.74619	-109.03178	-53.70222	0
479	-144.01959	-82.99434	61.02525	113.10013	-104.14976	-13.01872	13.83239	-45.56552	-101.70875	-125.30518	-111.47279	-58.58424	0
480	-153.78363	-85.43535	68.34828	117.98215	-111.47279	-10.57771	21.15542	-35.80148	-91.94471	-115.54114	-99.26774	-46.37919	0
481	-136.69656	-70.78929	65.90727	103.33609	-101.70875	-3.25468	28.47845	-23.59643	-79.73966	-98.45407	-82.18067	-29.29212	0
482	-102.52242	-43.93818	58.58424	71.60296	-82.18067	7.32303	41.49717	-8.95037	-67.53461	-83.80801	-65.0936	-12.20505	0
483	-63.46626	-12.20505	51.26121	37.42882	-57.77057	19.52808	46.37919	0.81367	-57.77057	-74.04397	-52.88855	0.81367	0
484	-39.05616	5.69569	43.93818	15.45973	-40.6835	24.4101	48.8202	5.69569	-52.88855	-71.60296	-50.44754	3.25468	0
485	-31.73313	10.57771	41.49717	10.57771	-35.80148	24.4101	43.93818	3.25468	-55.32956	-78.92599	-57.77057	-4.06835	0
486	-46.37919	-2.44101	43.93818	22.78276	-45.56552	19.52808	36.61515	-6.50936	-65.0936	-91.13104	-72.41663	-17.08707	0
487	-75.67131	-26.85111	48.8202	49.63387	-62.65259	9.76404	28.47845	-18.71441	-77.29865	-105.7771	-87.06269	-36.61515	0
488	-112.28646	-56.14323	56.14323	83.80801	-84.62168	-0.81367	23.59643	-26.03744	-87.06269	-115.54114	-96.82673	-51.26121	0
489	-139.13757	-75.67131	63.46626	105.7771	-101.70875	-8.1367	23.59643	-28.47845	-87.06269	-115.54114	-96.82673	-53.70222	0
490	-148.90161	-75.67131	73.2303	110.65912	-111.47279	-3.25468	28.47845	-18.71441	-77.29865	-103.33609	-87.06269	-41.49717	0
491	-134.25555	-58.58424	75.67131	96.01306	-106.59077	7.32303	41.49717	-6.50936	-67.53461	-88.69003	-69.97562	-24.4101	0
492	-104.96343	-31.73313	73.2303	66.72094	-89.5037	19.52808	53.70222	8.1367	-55.32956	-71.60296	-52.88855	-6.50936	0
493	-68.34828	-2.44101	65.90727	34.98781	-67.53461	31.73313	61.02525	20.34175	-48.00653	-61.83892	-38.24249	8.1367	0
494	-41.49717	22.78276	63.46626	8.1367	-52.88855	41.49717	61.02525	25.22377	-43.12451	-59.39791	-35.80148	13.01872	0
495	-34.17414	30.10579	63.46626	2.44101	-48.00653	46.37919	58.58424	22.78276	-48.00653	-66.72094	-43.12451	8.1367	0
496	-48.8202	20.34175	68.34828	13.01872	-57.77057	43.93818	51.26121	13.01872	-55.32956	-81.367	-57.77057	-6.50936	0
497	-75.67131	-2.44101	73.2303	37.42882	-74.85764	34.17414	41.49717	0.81367	-67.53461	-96.01306	-72.41663	-21.96909	0
498	-109.84545	-29.29212	80.55333	69.16195	-96.82673	24.4101	36.61515	-8.95037	-74.85764	-103.33609	-79.73966	-34.17414	0
499	-136.69656	-43.93818	92.75838	88.69003	-116.35481	24.4101	36.61515	-11.39138	-72.41663	-100.89508	-79.73966	-34.17414	0
500	-144.01959	-43.93818	100.08141	93.57205	-123.67784	26.85111	43.93818	-4.06835	-62.65259	-88.69003	-69.97562	-19.52808	0
501	-136.69656	-36.61515	100.08141	86.24902	-118.79582	31.73313	46.37919	0.81367	-57.77057	-81.367	-62.65259	-12.20505	0
502	-109.84545	-12.20505	97.6404	59.39791	-104.14976	41.49717	58.58424	15.45973	-43.12451	-64.27993	-40.6835	8.1367	0
503	-75.67131	20.34175	95.19939	27.66478	-84.62168	56.14323	70.78929	30.10579	-33.36047	-47.19286	-23.59643	30.10579	0
504	-43.93818	49.63387	92.75838	-2.44101	-67.53461	70.78929	75.67131	35.80148	-26.03744	-39.86983	-15.45973	42.31084	0
505	-26.85111	64.27993	90.31737	-19.52808	-57.77057	75.67131	75.67131	38.24249	-26.03744	-39.86983	-17.90074	42.31084	0
506	-31.73313	64.27993	95.19939	-17.08707	-62.65259	78.11232	70.78929	32.5468	-33.36047	-49.63387	-26.03744	32.5468	0
507	-56.14323	47.19286	102.52242	4.88202	-79.73966	73.2303	63.46626	25.22377	-40.6835	-61.83892	-35.80148	20.34175	0
508	-92.75838	20.34175	112.28646	34.98781	-101.70875	65.90727	56.14323	15.45973	-50.44754	-71.60296	-45.56552	8.1367	0
509	-124.49151	-2.44101	122.0505	61.83892	-123.67784	58.58424	53.70222	10.57771	-52.88855	-76.48498	-48.00653	3.25468	0
510	-136.69656	-7.32303	129.37353	71.60296	-133.44188	61.02525	53.70222	10.57771	-48.00653	-69.16195	-43.12451	8.1367	0
511	-131.81454	3.25468	134.25555	64.27993	-133.44188	68.34828	61.02525	22.78276	-38.24249	-54.51589	-28.47845	27.66478	0
512	-104.96343	30.10579	134.25555	37.42882	-118.79582	80.55333	73.2303	35.80148	-23.59643	-34.98781	-8.1367	49.63387	0
513	-65.90727	64.27993	129.37353	0	-96.82673	95.19939	82.99434	50.44754	-13.83239	-21.96909	8.95037	71.60296	0
514	-26.85111	96.01306	122.0505	-34.17414	-74.85764	107.40444	87.87636	60.21158	-6.50936	-14.64606	21.15542	83.80801	0
515	-9.76404	115.54114	124.49151	-53.70222	-67.53461	119.60949	87.87636	62.65259	-6.50936	-14.64606	21.15542	86.24902	0
516	-12.20505	117.98215	129.37353	-53.70222	-69.97562	122.0505	80.55333	60.21158	-8.95037	-24.4101	11.39138	78.92599	0
517	-31.73313	103.33609	134.25555	-36.61515	-82.18067	117.16848	73.2303	52.88855	-18.71441	-34.98781	1.62734	69.16195	0
518	-61.02525	81.367	141.57858	-9.76404	-101.70875	109.84545	68.34828	45.56552	-26.03744	-42.31084	-5.69569	59.39791	0
519	-90.31737	61.83892	151.34262	13.01872	-121.23683	104.96343	65.90727	45.56552	-26.03744	-42.31084	-5.69569	56.9569	0
520	-107.40444	59.39791	165.98868	22.78276	-135.88289	112.28646	70.78929	52.88855	-13.83239	-32.5468	6.50936	69.16195	0
521	-100.08141	76.48498	175.75272	10.57771	-138.3239	124.49151	82.99434	67.53461	-1.62734	-14.64606	26.03744	91.13104	0
522	-68.34828	110.65912	178.19373	-21.96909	-123.67784	144.01959	95.19939	84.62168	16.2734	7.32303	50.44754	115.54114	0
523	-26.85111	149.71528	175.75272	-61.02525	-101.70875	161.10666	107.40444	101.70875	30.91946	29.29212	74.85764	139.95124	0
524	8.1367	191.21245	183.07575	-100.08141	-87.06269	187.95777	117.16848	116.35481	43.12451	41.49717	91.94471	157.03831	0
525	30.10579	218.06356	187.95777	-124.49151	-79.73966	202.60383	117.16848	121.23683	48.00653	43.93818	94.38572	161.92033	0
526	39.86983	227.8276	187.95777	-134.25555	-74.85764	207.48585	112.28646	118.79582	45.56552	39.05616	89.5037	157.03831	0
527	27.66478	220.50457	192.83979	-124.49151	-82.18067	207.48585	104.96343	111.47279	40.6835	29.29212	82.18067	144.83326	0
528	3.25468	203.4175	200.16282	-102.52242	-99.26774	202.60383	97.6404	104.14976	35.80148	24.4101	74.85764	137.51023	0
529	-24.4101	191.21245	214.80888	-82.99434	-118.79582	202.60383	97.6404	104.14976	38.24249	26.85111	79.73966	137.51023	0
530	-34.17414	191.21245	224.57292	-78.11232	-128.55986	207.48585	100.08141	109.03178	50.44754	39.05616	91.94471	149.71528	0
531	-24.4101	208.29952	231.89595	-92.75838	-128.55986	219.6909	109.84545	121.23683	65.0936	58.58424	111.47279	171.68437	0
532	3.25468	240.03265	236.77797	-122.0505	-116.35481	239.21898	122.0505	138.3239	82.18067	82.99434	138.3239	198.53548	0
533	37.42882	276.6478	239.21898	-156.22464	-101.70875	258.74706	131.81454	157.85198	99.26774	104.96343	162.734	225.38659	0
534	69.16195	313.26295	244.101	-190.39878	-87.06269	278.27514	139.13757	172.49804	113.9138	122.0505	182.26208	244.91467	0
535	88.69003	337.67305	248.98302	-212.36787	-79.73966	292.9212	139.13757	177.38006	121.23683	126.93252	189.58511	252.2377	0
536	88.69003	342.55507	253.86504	-214.80888	-82.18067	297.80322	134.25555	177.38006	123.67784	124.49151	184.70309	252.2377	0
537	71.60296	332.79103	261.18807	-202.60383	-94.38572	297.80322	126.93252	172.49804	121.23683	119.60949	179.82107	244.91467	0
538	42.31084	315.70396	273.39312	-178.19373	-116.35481	295.36221	122.0505	170.05703	118.79582	117.16848	179.82107	240.03265	0
539	15.45973	298.61689	283.15716	-156.22464	-133.44188	290.48019	119.60949	170.05703	121.23683	122.0505	184.70309	242.47366	0
540	5.69569	296.17588	290.48019	-151.34262	-143.20592	292.9212	119.60949	177.38006	133.44188	134.25555	196.90814	252.2377	0
541	13.01872	308.38093	295.36221	-161.10666	-140.76491	302.68524	126.93252	192.02612	148.08794	156.22464	218.87723	274.20679	0
542	39.86983	335.23204	295.36221	-187.95777	-128.55986	314.89029	139.13757	211.5542	167.61602	180.63474	245.72834	298.61689	0
543	78.92599	369.40618	290.48019	-224.57292	-106.59077	329.53635	148.90161	228.64127	184.70309	202.60383	267.69743	320.58598	0
544	115.54114	401.13931	285.59817	-258.74706	-84.62168	344.18241	153.78363	243.28733	199.34915	219.6909	284.7845	335.23204	0
545	137.51023	418.22638	280.71615	-278.27514	-72.41663	349.06443	153.78363	253.05137	209.11319	227.01393	289.66652	340.11406	0
546	137.51023	423.1084	285.59817	-280.71615	-74.85764	353.94645	151.34262	260.3744	218.87723	229.45494	292.10753	340.11406	0
547	130.1872	420.66739	290.48019	-275.83413	-79.73966	356.38746	163.54767	277.46147	238.40531	248.98302	309.1946	354.76012	0
548	147.27427	440.19547	292.9212	-292.9212	-72.41663	366.1515	165.98868	289.66652	253.05137	263.62908	321.39965	362.08315	0
549	154.5973	454.84153	300.24423	-305.12625	-72.41663	378.35655	168.42969	296.98955	265.25642	273.39312	331.16369	366.96517	0
550	154.5973	459.72355	305.12625	-307.56726	-74.85764	383.23857	168.42969	304.31258	275.02046	285.59817	338.48672	371.84719	0
551	154.5973	462.16456	307.56726	-307.56726	-77.29865	385.67958	168.42969	314.07662	282.34349	295.36221	348.25076	379.17022	0
552	159.47932	464.60557	305.12625	-312.44928	-72.41663	385.67958	170.8707	321.39965	289.66652	307.56726	360.45581	386.49325	0
553	169.24336	469.48759	300.24423	-319.77231	-65.0936	385.67958	168.42969	323.84066	292.10753	310.00827	362.89682	384.05224	0
554	154.5973	449.95951	295.36221	-302.68524	-69.97562	373.47453	158.66565	318.95864	284.7845	297.80322	350.69177	371.84719	0
555	132.62821	425.54941	292.9212	-278.27514	-79.73966	358.82847	156.22464	323.84066	289.66652	300.24423	348.25076	369.40618	0
556	125.30518	413.34436	288.03918	-268.5111	-82.18067	351.50544	163.54767	333.6047	304.31258	310.00827	353.13278	371.84719	0
557	130.1872	413.34436	283.15716	-270.95211	-77.29865	349.06443	170.8707	345.80975	318.95864	322.21332	360.45581	374.2882	0
558	139.95124	420.66739	280.71615	-280.71615	-69.97562	351.50544	175.75272	355.57379	333.6047	334.41837	367.77884	376.72921	0
559	152.15629	425.54941	273.39312	-288.03918	-60.21158	349.06443	178.19373	360.45581	340.92773	341.7414	370.21985	374.2882	0
560	159.47932	423.1084	263.62908	-290.48019	-52.88855	344.18241	170.8707	360.45581	343.36874	341.7414	367.77884	364.52416	0
561	157.03831	406.02133	248.98302	-280.71615	-45.56552	327.09534	161.10666	353.13278	338.48672	336.85938	358.0148	352.31911	0
562	139.95124	376.72921	236.77797	-258.74706	-48.00653	307.56726	151.34262	345.80975	328.72268	327.09534	348.25076	337.67305	0
563	117.98215	340.11406	222.13191	-229.45494	-52.88855	280.71615	141.57858	338.48672	318.95864	317.3313	338.48672	323.02699	0
564	98.45407	305.93992	207.48585	-202.60383	-55.32956	256.30605	134.25555	336.04571	316.51763	312.44928	328.72268	313.26295	0
565	88.69003	281.52982	192.83979	-185.51676	-52.88855	236.77797	131.81454	336.04571	318.95864	312.44928	323.84066	308.38093	0
566	88.69003	269.32477	180.63474	-178.19373	-45.56552	224.57292	134.25555	343.36874	328.72268	317.3313	323.84066	308.38093	0
567	98.45407	266.88376	168.42969	-183.07575	-35.80148	217.24989	139.13757	348.25076	338.48672	322.21332	323.84066	308.38093	0
568	115.54114	266.88376	151.34262	-190.39878	-18.71441	209.92686	139.13757	350.69177	345.80975	327.09534	326.28167	303.49891	0
569	125.30518	266.88376	141.57858	-195.2808	-8.95037	205.04484	139.13757	350.69177	348.25076	327.09534	318.95864	293.73487	0
570	130.1872	259.56073	129.37353	-195.2808	1.62734	195.2808	129.37353	343.36874	343.36874	319.77231	306.75359	276.6478	0
571	122.86417	237.59164	114.72747	-180.63474	4.06835	175.75272	117.16848	328.72268	331.16369	302.68524	287.22551	254.67871	0
572	105.7771	203.4175	97.6404	-153.78363	4.06835	151.34262	104.96343	314.07662	311.63561	283.15716	267.69743	232.70962	0
573	76.48498	161.92033	85.43535	-119.60949	-3.25468	124.49151	95.19939	301.87157	292.10753	266.07009	248.16935	210.74053	0
574	54.51589	122.86417	68.34828	-87.87636	-5.69569	95.19939	87.87636	292.10753	277.46147	248.98302	228.64127	191.21245	0
575	39.86983	96.01306	56.14323	-68.34828	-8.95037	75.67131	85.43535	282.34349	270.13844	234.33696	213.99521	179.0074	0
576	39.86983	78.92599	39.05616	-58.58424	1.62734	58.58424	87.87636	279.90248	270.13844	229.45494	201.79016	169.24336	0
577	47.19286	74.04397	26.85111	-61.02525	11.39138	51.26121	92.75838	275.02046	270.13844	224.57292	194.46713	161.92033	0
578	56.9569	74.04397	17.08707	-65.90727	21.15542	46.37919	97.6404	270.13844	267.69743	219.6909	187.1441	152.15629	0
579	66.72094	74.04397	6.50936	-70.78929	30.91946	41.49717	97.6404	260.3744	257.93339	209.92686	177.38006	137.51023	0
580	74.04397	64.27993	-10.57771	-68.34828	43.12451	26.85111	90.31737	243.28733	243.28733	195.2808	157.85198	117.98215	0
581	61.83892	44.75185	-17.90074	-53.70222	40.6835	14.64606	80.55333	226.20026	223.75925	175.75272	140.76491	100.89508	0
582	42.31084	10.57771	-32.5468	-26.85111	38.24249	-10.57771	70.78929	206.67218	199.34915	153.78363	118.79582	78.92599	0
583	17.90074	-26.85111	-44.75185	4.88202	30.91946	-34.98781	61.02525	189.58511	170.05703	129.37353	99.26774	59.39791	0
584	-6.50936	-61.02525	-54.51589	32.5468	23.59643	-56.9569	56.14323	177.38006	150.52895	107.40444	79.73966	44.75185	0
585	-17.08707	-87.87636	-71.60296	52.07488	26.03744	-81.367	56.14323	167.61602	138.3239	90.31737	65.0936	34.98781	0
586	-21.96909	-100.08141	-78.92599	59.39791	28.47845	-91.13104	58.58424	165.17501	135.88289	82.99434	50.44754	27.66478	0
587	-17.08707	-100.08141	-83.80801	56.9569	33.36047	-93.57205	68.34828	165.17501	138.3239	78.11232	45.56552	22.78276	0
588	-12.20505	-92.75838	-81.367	52.07488	33.36047	-88.69003	75.67131	160.29299	135.88289	75.67131	40.6835	15.45973	0
589	-6.50936	-85.43535	-78.92599	44.75185	35.80148	-81.367	80.55333	152.96996	131.00087	70.78929	33.36047	5.69569	0
590	-1.62734	-82.99434	-81.367	42.31084	38.24249	-81.367	78.11232	140.76491	123.67784	61.02525	21.15542	-8.95037	0
591	-6.50936	-95.19939	-88.69003	49.63387	40.6835	-91.13104	68.34828	123.67784	106.59077	46.37919	6.50936	-21.96909	0
592	-24.4101	-117.16848	-93.57205	69.16195	33.36047	-105.7771	63.46626	109.03178	84.62168	29.29212	-8.1367	-34.17414	0
593	-46.37919	-144.01959	-98.45407	93.57205	26.03744	-122.86417	58.58424	94.38572	60.21158	14.64606	-20.34175	-46.37919	0
594	-65.90727	-168.42969	-103.33609	115.54114	18.71441	-137.51023	56.14323	84.62168	43.12451	-2.44101	-30.91946	-53.70222	0
595	-75.67131	-183.07575	-108.21811	127.74619	16.2734	-147.27427	56.14323	79.73966	38.24249	-12.20505	-40.6835	-58.58424	0
596	-75.67131	-187.95777	-113.10013	130.1872	18.71441	-152.15629	61.02525	82.18067	40.6835	-14.64606	-48.00653	-56.14323	0
597	-73.2303	-180.63474	-108.21811	125.30518	16.2734	-144.83326	73.2303	87.06269	48.00653	-14.64606	-48.00653	-53.70222	0
598	-61.02525	-165.98868	-105.7771	113.10013	21.15542	-137.51023	82.99434	89.5037	52.88855	-12.20505	-48.00653	-53.70222	0
599	-48.8202	-153.78363	-105.7771	100.89508	28.47845	-130.1872	85.43535	89.5037	52.88855	-12.20505	-50.44754	-61.02525	0
600	-41.49717	-146.4606	-105.7771	93.57205	30.91946	-127.74619	80.55333	82.18067	48.00653	-17.08707	-55.32956	-70.78929	0
601	-43.93818	-151.34262	-108.21811	96.01306	30.91946	-130.1872	73.2303	74.85764	35.80148	-24.4101	-62.65259	-78.11232	0
602	-53.70222	-165.98868	-113.10013	108.21811	28.47845	-139.95124	68.34828	65.0936	18.71441	-34.98781	-69.97562	-85.43535	0
603	-65.90727	-185.51676	-120.42316	125.30518	26.03744	-154.5973	61.02525	55.32956	-1.62734	-47.19286	-74.85764	-92.75838	0
604	-80.55333	-202.60383	-122.86417	139.95124	21.15542	-164.36134	61.02525	52.88855	-8.95037	-54.51589	-79.73966	-95.19939	0
605	-82.99434	-207.48585	-125.30518	144.83326	21.15542	-166.80235	63.46626	52.88855	-8.95037	-59.39791	-82.18067	-92.75838	0
606	-78.11232	-202.60383	-125.30518	139.95124	23.59643	-164.36134	70.78929	60.21158	1.62734	-56.9569	-82.18067	-87.87636	0
607	-61.02525	-185.51676	-125.30518	122.86417	30.91946	-157.03831	82.99434	69.97562	13.83239	-52.07488	-77.29865	-80.55333	0
608	-43.93818	-163.54767	-120.42316	103.33609	38.24249	-142.39225	92.75838	77.29865	26.03744	-42.31084	-69.97562	-75.67131	0
609	-29.29212	-144.01959	-115.54114	86.24902	43.12451	-130.1872	97.6404	82.18067	33.36047	-34.98781	-65.0936	-75.67131	0
610	-21.96909	-134.25555	-113.10013	76.48498	45.56552	-125.30518	95.19939	79.73966	40.6835	-32.5468	-62.65259	-78.11232	0
611	-21.96909	-134.25555	-113.10013	76.48498	45.56552	-125.30518	87.87636	74.85764	35.80148	-37.42882	-67.53461	-80.55333	0
612	-29.29212	-146.4606	-117.98215	86.24902	43.12451	-132.62821	80.55333	67.53461	23.59643	-42.31084	-69.97562	-85.43535	0
613	-39.05616	-165.98868	-127.74619	100.89508	43.12451	-147.27427	75.67131	60.21158	6.50936	-52.07488	-74.85764	-90.31737	0
614	-51.26121	-180.63474	-130.1872	115.54114	38.24249	-157.03831	70.78929	57.77057	-1.62734	-59.39791	-79.73966	-90.31737	0
615	-63.46626	-190.39878	-127.74619	125.30518	30.91946	-159.47932	70.78929	57.77057	-1.62734	-61.83892	-79.73966	-90.31737	0
616	-63.46626	-187.95777	-125.30518	125.30518	30.91946	-157.03831	73.2303	62.65259	8.95037	-61.83892	-79.73966	-82.99434	0
617	-53.70222	-178.19373	-125.30518	115.54114	35.80148	-152.15629	80.55333	69.97562	18.71441	-56.9569	-77.29865	-80.55333	0
618	-41.49717	-163.54767	-122.86417	100.89508	40.6835	-144.83326	87.87636	74.85764	26.03744	-49.63387	-69.97562	-78.11232	0
619	-34.17414	-148.90161	-115.54114	91.13104	40.6835	-132.62821	87.87636	77.29865	33.36047	-44.75185	-67.53461	-78.11232	0
620	-29.29212	-144.01959	-115.54114	86.24902	43.12451	-130.1872	85.43535	74.85764	35.80148	-42.31084	-65.0936	-80.55333	0
621	-29.29212	-148.90161	-120.42316	88.69003	45.56552	-135.06922	75.67131	67.53461	28.47845	-47.19286	-72.41663	-82.99434	0
622	-36.61515	-163.54767	-127.74619	98.45407	45.56552	-147.27427	68.34828	57.77057	13.83239	-54.51589	-77.29865	-87.87636	-1250	T-0
623	-51.26121	-183.07575	-132.62821	115.54114	40.6835	-159.47932	63.46626	50.44754	-1.62734	-59.39791	-79.73966	-92.75838	0
624	-68.34828	-202.60383	-135.06922	135.06922	33.36047	-169.24336	61.02525	48.00653	-6.50936	-66.72094	-84.62168	-92.75838	0
625	-80.55333	-212.36787	-132.62821	144.83326	26.03744	-174.12538	61.02525	48.00653	-4.06835	-69.16195	-84.62168	-92.75838	0
626	-82.99434	-212.36787	-130.1872	147.27427	23.59643	-171.68437	65.90727	55.32956	4.06835	-66.72094	-87.06269	-87.87636	0
627	-75.67131	-202.60383	-127.74619	137.51023	26.03744	-166.80235	75.67131	62.65259	16.2734	-59.39791	-82.18067	-82.99434	0
628	-65.90727	-187.95777	-122.86417	125.30518	28.47845	-157.03831	82.99434	69.97562	26.03744	-54.51589	-77.29865	-82.99434	0
629	-56.14323	-175.75272	-120.42316	115.54114	30.91946	-149.71528	82.99434	69.97562	30.91946	-49.63387	-72.41663	-85.43535	0
630	-48.8202	-170.8707	-122.86417	108.21811	35.80148	-147.27427	78.11232	65.0936	33.36047	-47.19286	-72.41663	-87.87636	0
631	-46.37919	-173.31171	-127.74619	108.21811	40.6835	-152.15629	68.34828	57.77057	28.47845	-52.07488	-77.29865	-92.75838	0
632	-51.26121	-183.07575	-132.62821	115.54114	40.6835	-159.47932	61.02525	48.00653	16.2734	-56.9569	-79.73966	-97.6404	0
633	-63.46626	-197.72181	-135.06922	130.1872	35.80148	-166.80235	56.14323	38.24249	1.62734	-64.27993	-82.18067	-100.08141	0
634	-78.11232	-212.36787	-135.06922	144.83326	28.47845	-174.12538	56.14323	32.5468	-4.06835	-69.16195	-87.06269	-100.08141	0
635	-85.43535	-219.6909	-135.06922	152.15629	23.59643	-179.0074	56.14323	32.5468	-1.62734	-71.60296	-89.5037	-97.6404	0
636	-85.43535	-214.80888	-130.1872	149.71528	21.15542	-174.12538	61.02525	35.80148	6.50936	-69.16195	-91.94471	-92.75838	0
637	-78.11232	-205.04484	-127.74619	139.95124	23.59643	-166.80235	70.78929	40.6835	18.71441	-64.27993	-89.5037	-90.31737	0
638	-68.34828	-192.83979	-125.30518	130.1872	28.47845	-159.47932	75.67131	45.56552	28.47845	-56.9569	-87.06269	-87.87636	0
639	-58.58424	-178.19373	-120.42316	117.98215	30.91946	-149.71528	78.11232	45.56552	33.36047	-49.63387	-84.62168	-90.31737	0
640	-41.49717	-173.31171	-132.62821	105.7771	45.56552	-154.5973	73.2303	40.6835	35.80148	-49.63387	-87.06269	-97.6404	0
641	-36.61515	-173.31171	-137.51023	103.33609	50.44754	-157.03831	63.46626	32.5468	26.03744	-52.07488	-91.94471	-100.08141	0
642	-51.26121	-185.51676	-135.06922	117.98215	40.6835	-161.92033	58.58424	27.66478	16.2734	-54.51589	-91.94471	-102.52242	0
643	-63.46626	-200.16282	-137.51023	130.1872	35.80148	-169.24336	53.70222	22.78276	4.06835	-59.39791	-89.5037	-102.52242	0
644	-75.67131	-214.80888	-139.95124	144.83326	30.91946	-179.0074	53.70222	22.78276	-1.62734	-64.27993	-91.94471	-102.52242	0
645	-82.99434	-224.57292	-142.39225	152.15629	28.47845	-183.88942	53.70222	25.22377	-1.62734	-64.27993	-94.38572	-100.08141	0
646	-90.31737	-227.01393	-137.51023	157.03831	23.59643	-183.88942	61.02525	32.5468	11.39138	-61.83892	-94.38572	-92.75838	0
647	-92.75838	-219.6909	-127.74619	154.5973	16.2734	-174.12538	75.67131	43.12451	26.03744	-54.51589	-89.5037	-90.31737	0
648	-82.99434	-207.48585	-125.30518	144.83326	21.15542	-166.80235	82.99434	50.44754	33.36047	-47.19286	-84.62168	-87.87636	0
649	-68.34828	-195.2808	-127.74619	130.1872	28.47845	-161.92033	82.99434	50.44754	35.80148	-44.75185	-84.62168	-92.75838	0
650	-63.46626	-187.95777	-125.30518	125.30518	30.91946	-157.03831	80.55333	48.00653	38.24249	-42.31084	-87.06269	-97.6404	0
651	-63.46626	-185.51676	-122.86417	122.86417	28.47845	-154.5973	73.2303	43.12451	30.91946	-44.75185	-91.94471	-97.6404	0
652	-68.34828	-190.39878	-122.86417	127.74619	26.03744	-157.03831	68.34828	32.5468	16.2734	-49.63387	-94.38572	-102.52242	0
653	-75.67131	-200.16282	-125.30518	137.51023	23.59643	-164.36134	61.02525	25.22377	-1.62734	-56.9569	-96.82673	-104.96343	0
654	-82.99434	-209.92686	-127.74619	144.83326	21.15542	-169.24336	58.58424	20.34175	-11.39138	-66.72094	-104.14976	-107.40444	0
655	-90.31737	-212.36787	-122.86417	149.71528	16.2734	-169.24336	58.58424	20.34175	-11.39138	-71.60296	-109.03178	-107.40444	0
656	-87.87636	-207.48585	-120.42316	147.27427	16.2734	-164.36134	63.46626	22.78276	-4.06835	-71.60296	-111.47279	-102.52242	0
657	-80.55333	-197.72181	-117.98215	137.51023	18.71441	-159.47932	68.34828	27.66478	4.06835	-69.16195	-111.47279	-102.52242	0
658	-68.34828	-183.07575	-115.54114	125.30518	23.59643	-149.71528	75.67131	30.10579	11.39138	-64.27993	-109.03178	-102.52242	0
659	-61.02525	-168.42969	-108.21811	113.10013	23.59643	-139.95124	75.67131	32.5468	16.2734	-61.83892	-106.59077	-107.40444	0
660	-58.58424	-161.10666	-103.33609	108.21811	21.15542	-132.62821	73.2303	32.5468	21.15542	-56.9569	-106.59077	-109.84545	0
661	-61.02525	-158.66565	-98.45407	108.21811	18.71441	-130.1872	65.90727	30.10579	18.71441	-56.9569	-109.03178	-109.84545	0
662	-70.78929	-168.42969	-98.45407	117.98215	13.83239	-135.06922	58.58424	25.22377	6.50936	-61.83892	-109.03178	-114.72747	0
663	-80.55333	-180.63474	-100.89508	130.1872	8.95037	-142.39225	51.26121	20.34175	-6.50936	-69.16195	-111.47279	-117.16848	0
664	-90.31737	-190.39878	-100.89508	139.95124	4.06835	-147.27427	46.37919	17.90074	-13.83239	-74.04397	-113.9138	-117.16848	0
665	-97.6404	-195.2808	-98.45407	144.83326	-0.81367	-147.27427	46.37919	17.90074	-13.83239	-78.92599	-116.35481	-117.16848	0
666	-92.75838	-192.83979	-100.89508	142.39225	4.06835	-147.27427	46.37919	20.34175	-6.50936	-78.92599	-121.23683	-112.28646	0
667	-82.99434	-180.63474	-98.45407	130.1872	6.50936	-139.95124	48.8202	25.22377	1.62734	-78.92599	-121.23683	-112.28646	0
668	-73.2303	-165.98868	-93.57205	117.98215	8.95037	-130.1872	53.70222	30.10579	6.50936	-74.04397	-118.79582	-112.28646	0
669	-65.90727	-151.34262	-86.24902	108.21811	8.95037	-120.42316	53.70222	30.10579	11.39138	-71.60296	-116.35481	-117.16848	0
670	-58.58424	-144.01959	-86.24902	100.89508	13.83239	-115.54114	51.26121	27.66478	16.2734	-66.72094	-113.9138	-119.60949	0
671	-56.14323	-144.01959	-88.69003	98.45407	16.2734	-117.98215	41.49717	22.78276	13.83239	-69.16195	-118.79582	-122.0505	0
672	-61.02525	-151.34262	-91.13104	105.7771	13.83239	-122.86417	36.61515	17.90074	1.62734	-71.60296	-118.79582	-124.49151	0
673	-70.78929	-163.54767	-93.57205	115.54114	11.39138	-130.1872	34.17414	13.01872	-8.95037	-76.48498	-121.23683	-129.37353	0
674	-80.55333	-175.75272	-96.01306	127.74619	6.50936	-137.51023	28.47845	13.01872	-18.71441	-83.80801	-123.67784	-131.81454	0
675	-82.99434	-180.63474	-98.45407	130.1872	6.50936	-139.95124	28.47845	13.01872	-18.71441	-86.24902	-128.55986	-131.81454	0
676	-80.55333	-180.63474	-100.89508	130.1872	8.95037	-142.39225	31.73313	17.90074	-11.39138	-88.69003	-133.44188	-129.37353	0
677	-75.67131	-173.31171	-98.45407	122.86417	11.39138	-137.51023	36.61515	25.22377	-4.06835	-86.24902	-131.00087	-129.37353	0
678	-63.46626	-161.10666	-98.45407	110.65912	16.2734	-130.1872	41.49717	27.66478	1.62734	-83.80801	-128.55986	-129.37353	0
679	-58.58424	-151.34262	-93.57205	103.33609	16.2734	-122.86417	43.93818	32.5468	6.50936	-78.92599	-126.11885	-131.81454	0
680	-53.70222	-144.01959	-91.13104	98.45407	18.71441	-117.98215	41.49717	32.5468	11.39138	-76.48498	-126.11885	-134.25555	0
681	-53.70222	-144.01959	-91.13104	98.45407	18.71441	-117.98215	34.17414	27.66478	6.50936	-76.48498	-126.11885	-134.25555	0
682	-58.58424	-153.78363	-96.01306	105.7771	18.71441	-125.30518	28.47845	22.78276	-1.62734	-78.92599	-126.11885	-134.25555	0
683	-63.46626	-165.98868	-103.33609	113.10013	18.71441	-135.06922	23.59643	20.34175	-13.83239	-83.80801	-126.11885	-136.69656	0
684	-65.90727	-175.75272	-110.65912	120.42316	21.15542	-144.83326	21.15542	17.90074	-21.15542	-88.69003	-128.55986	-136.69656	0
685	-70.78929	-178.19373	-108.21811	122.86417	18.71441	-144.83326	18.71441	15.45973	-23.59643	-93.57205	-128.55986	-136.69656	0
686	-63.46626	-173.31171	-110.65912	117.98215	23.59643	-142.39225	18.71441	20.34175	-16.2734	-93.57205	-131.00087	-131.81454	0
687	-56.14323	-161.10666	-105.7771	108.21811	23.59643	-135.06922	23.59643	27.66478	-6.50936	-91.13104	-128.55986	-126.93252	0
688	-43.93818	-144.01959	-100.89508	93.57205	28.47845	-122.86417	26.03744	30.10579	-4.06835	-86.24902	-126.11885	-126.93252	0
689	-31.73313	-126.93252	-96.01306	78.92599	30.91946	-113.10013	26.03744	32.5468	-1.62734	-83.80801	-123.67784	-126.93252	0
690	-24.4101	-114.72747	-91.13104	69.16195	33.36047	-103.33609	26.03744	32.5468	1.62734	-81.367	-123.67784	-126.93252	0
691	-24.4101	-107.40444	-83.80801	64.27993	28.47845	-96.01306	21.15542	27.66478	-1.62734	-78.92599	-126.11885	-126.93252	0
692	-24.4101	-109.84545	-86.24902	66.72094	30.91946	-98.45407	13.83239	20.34175	-8.95037	-81.367	-131.00087	-131.81454	0
693	-29.29212	-117.16848	-88.69003	71.60296	28.47845	-103.33609	11.39138	15.45973	-21.15542	-86.24902	-133.44188	-136.69656	0
694	-34.17414	-122.0505	-88.69003	76.48498	26.03744	-105.7771	8.95037	10.57771	-30.91946	-93.57205	-138.3239	-139.13757	0
695	-41.49717	-124.49151	-83.80801	81.367	21.15542	-105.7771	8.95037	8.1367	-30.91946	-96.01306	-138.3239	-139.13757	0
696	-41.49717	-124.49151	-83.80801	81.367	21.15542	-105.7771	11.39138	13.01872	-26.03744	-98.45407	-140.76491	-139.13757	0
697	-36.61515	-119.60949	-83.80801	76.48498	23.59643	-103.33609	16.2734	15.45973	-18.71441	-98.45407	-140.76491	-136.69656	0
698	-34.17414	-112.28646	-78.92599	71.60296	21.15542	-96.01306	21.15542	17.90074	-18.71441	-96.01306	-138.3239	-136.69656	0
699	-26.85111	-107.40444	-81.367	66.72094	26.03744	-96.01306	21.15542	17.90074	-16.2734	-96.01306	-138.3239	-136.69656	0
700	-26.85111	-107.40444	-81.367	66.72094	26.03744	-96.01306	16.2734	13.01872	-18.71441	-96.01306	-138.3239	-139.13757	0
701	-26.85111	-109.84545	-83.80801	66.72094	28.47845	-98.45407	8.95037	8.1367	-26.03744	-100.89508	-143.20592	-144.01959	0
702	-34.17414	-119.60949	-86.24902	76.48498	26.03744	-103.33609	-0.81367	3.25468	-38.24249	-108.21811	-145.64693	-146.4606	0
703	-46.37919	-131.81454	-86.24902	88.69003	18.71441	-110.65912	-5.69569	-1.62734	-50.44754	-113.10013	-150.52895	-148.90161	0
704	-53.70222	-144.01959	-91.13104	98.45407	18.71441	-117.98215	-13.01872	-6.50936	-62.65259	-120.42316	-152.96996	-148.90161	0
705	-61.02525	-148.90161	-88.69003	103.33609	13.83239	-120.42316	-15.45973	-6.50936	-65.0936	-122.86417	-155.41097	-148.90161	0
706	-63.46626	-151.34262	-88.69003	105.7771	11.39138	-120.42316	-15.45973	-4.06835	-62.65259	-122.86417	-157.85198	-146.4606	0
707	-63.46626	-148.90161	-86.24902	105.7771	11.39138	-117.98215	-13.01872	-1.62734	-60.21158	-122.86417	-157.85198	-146.4606	0
708	-58.58424	-141.57858	-83.80801	98.45407	11.39138	-113.10013	-10.57771	0.81367	-57.77057	-122.86417	-152.96996	-146.4606	0
709	-53.70222	-136.69656	-83.80801	93.57205	13.83239	-110.65912	-10.57771	3.25468	-57.77057	-120.42316	-152.96996	-146.4606	0
710	-51.26121	-136.69656	-86.24902	93.57205	16.2734	-113.10013	-15.45973	-1.62734	-57.77057	-120.42316	-152.96996	-148.90161	0
711	-51.26121	-136.69656	-86.24902	93.57205	16.2734	-113.10013	-20.34175	-4.06835	-60.21158	-122.86417	-155.41097	-151.34262	0
712	-56.14323	-144.01959	-88.69003	98.45407	16.2734	-117.98215	-27.66478	-11.39138	-69.97562	-127.74619	-155.41097	-153.78363	0
713	-61.02525	-153.78363	-93.57205	105.7771	16.2734	-125.30518	-32.5468	-16.2734	-79.73966	-132.62821	-157.85198	-156.22464	0
714	-70.78929	-163.54767	-93.57205	115.54114	11.39138	-130.1872	-34.98781	-21.15542	-89.5037	-137.51023	-162.734	-158.66565	0
715	-75.67131	-165.98868	-91.13104	120.42316	6.50936	-130.1872	-37.42882	-21.15542	-91.94471	-137.51023	-162.734	-158.66565	0
716	-75.67131	-165.98868	-91.13104	120.42316	6.50936	-130.1872	-37.42882	-21.15542	-87.06269	-137.51023	-162.734	-153.78363	0
717	-70.78929	-161.10666	-91.13104	115.54114	8.95037	-127.74619	-32.5468	-16.2734	-82.18067	-137.51023	-160.29299	-153.78363	0
718	-68.34828	-153.78363	-86.24902	110.65912	8.95037	-120.42316	-30.10579	-13.83239	-79.73966	-135.06922	-157.85198	-153.78363	0
719	-65.90727	-146.4606	-81.367	105.7771	6.50936	-115.54114	-30.10579	-11.39138	-74.85764	-130.1872	-155.41097	-153.78363	0
720	-63.46626	-144.01959	-81.367	103.33609	8.95037	-113.10013	-30.10579	-11.39138	-69.97562	-130.1872	-155.41097	-153.78363	0
721	-63.46626	-144.01959	-81.367	103.33609	8.95037	-113.10013	-34.98781	-13.83239	-72.41663	-130.1872	-157.85198	-156.22464	0
722	-65.90727	-148.90161	-83.80801	105.7771	8.95037	-117.98215	-39.86983	-16.2734	-79.73966	-132.62821	-160.29299	-161.10666	0
723	-70.78929	-156.22464	-86.24902	113.10013	6.50936	-122.86417	-44.75185	-21.15542	-87.06269	-137.51023	-160.29299	-163.54767	0
724	-75.67131	-158.66565	-83.80801	115.54114	4.06835	-122.86417	-44.75185	-23.59643	-91.94471	-139.95124	-165.17501	-163.54767	0
725	-75.67131	-161.10666	-86.24902	117.98215	4.06835	-125.30518	-44.75185	-28.47845	-94.38572	-144.83326	-165.17501	-163.54767	0
726	-73.2303	-161.10666	-88.69003	115.54114	6.50936	-125.30518	-44.75185	-28.47845	-91.94471	-144.83326	-167.61602	-161.10666	0
727	-68.34828	-153.78363	-86.24902	110.65912	8.95037	-120.42316	-39.86983	-28.47845	-87.06269	-144.83326	-167.61602	-161.10666	0
728	-61.02525	-144.01959	-83.80801	100.89508	11.39138	-115.54114	-34.98781	-28.47845	-84.62168	-142.39225	-165.17501	-158.66565	0
729	-53.70222	-136.69656	-83.80801	93.57205	13.83239	-110.65912	-34.98781	-30.91946	-79.73966	-142.39225	-165.17501	-161.10666	0
730	-43.93818	-134.25555	-91.13104	88.69003	23.59643	-113.10013	-39.86983	-35.80148	-79.73966	-142.39225	-165.17501	-163.54767	0
731	-43.93818	-134.25555	-91.13104	88.69003	23.59643	-113.10013	-42.31084	-38.24249	-79.73966	-142.39225	-165.17501	-165.98868	0
732	-48.8202	-136.69656	-88.69003	91.13104	18.71441	-113.10013	-44.75185	-40.6835	-84.62168	-142.39225	-165.17501	-165.98868	0
733	-58.58424	-144.01959	-86.24902	100.89508	13.83239	-115.54114	-47.19286	-40.6835	-89.5037	-142.39225	-165.17501	-165.98868	0
734	-63.46626	-148.90161	-86.24902	105.7771	11.39138	-117.98215	-47.19286	-40.6835	-91.94471	-142.39225	-165.17501	-163.54767	0
735	-68.34828	-151.34262	-83.80801	108.21811	6.50936	-117.98215	-49.63387	-43.12451	-89.5037	-142.39225	-165.17501	-161.10666	0
736	-70.78929	-148.90161	-78.92599	108.21811	4.06835	-115.54114	-44.75185	-38.24249	-84.62168	-142.39225	-162.734	-156.22464	0
737	-73.2303	-144.01959	-71.60296	108.21811	-0.81367	-108.21811	-37.42882	-33.36047	-74.85764	-137.51023	-160.29299	-151.34262	0
738	-70.78929	-139.13757	-69.16195	103.33609	-0.81367	-105.7771	-30.10579	-30.91946	-69.97562	-135.06922	-157.85198	-151.34262	0
739	-65.90727	-131.81454	-66.72094	98.45407	-0.81367	-100.89508	-30.10579	-28.47845	-67.53461	-132.62821	-155.41097	-151.34262	0
740	-61.02525	-126.93252	-66.72094	93.57205	1.62734	-98.45407	-27.66478	-28.47845	-67.53461	-130.1872	-152.96996	-151.34262	0
741	-61.02525	-126.93252	-66.72094	93.57205	1.62734	-98.45407	-27.66478	-28.47845	-69.97562	-130.1872	-152.96996	-151.34262	0
742	-61.02525	-126.93252	-66.72094	93.57205	1.62734	-98.45407	-27.66478	-30.91946	-74.85764	-127.74619	-150.52895	-148.90161	0
743	-63.46626	-126.93252	-64.27993	93.57205	-0.81367	-96.01306	-30.10579	-33.36047	-82.18067	-130.1872	-145.64693	-148.90161	0
744	-65.90727	-126.93252	-61.83892	96.01306	-3.25468	-96.01306	-32.5468	-33.36047	-87.06269	-130.1872	-145.64693	-144.01959	0
745	-63.46626	-122.0505	-59.39791	91.13104	-3.25468	-91.13104	-32.5468	-35.80148	-84.62168	-130.1872	-145.64693	-141.57858	0
746	-58.58424	-117.16848	-59.39791	86.24902	-0.81367	-88.69003	-32.5468	-33.36047	-79.73966	-130.1872	-145.64693	-139.13757	0
747	-53.70222	-107.40444	-54.51589	78.92599	-0.81367	-81.367	-27.66478	-30.91946	-72.41663	-130.1872	-145.64693	-139.13757	0
748	-51.26121	-100.08141	-49.63387	74.04397	-0.81367	-76.48498	-25.22377	-28.47845	-67.53461	-125.30518	-143.20592	-136.69656	0
749	-51.26121	-92.75838	-42.31084	71.60296	-5.69569	-69.16195	-22.78276	-26.03744	-62.65259	-122.86417	-143.20592	-136.69656	0
750	-43.93818	-92.75838	-49.63387	66.72094	1.62734	-71.60296	-22.78276	-26.03744	-62.65259	-122.86417	-143.20592	-139.13757	0
751	-41.49717	-92.75838	-52.07488	66.72094	4.06835	-74.04397	-27.66478	-26.03744	-65.0936	-122.86417	-143.20592	-139.13757	0
752	-43.93818	-95.19939	-52.07488	69.16195	4.06835	-74.04397	-30.10579	-26.03744	-67.53461	-120.42316	-140.76491	-136.69656	0
753	-48.8202	-97.6404	-49.63387	71.60296	-0.81367	-74.04397	-30.10579	-26.03744	-72.41663	-120.42316	-135.88289	-131.81454	0
754	-48.8202	-97.6404	-49.63387	71.60296	-0.81367	-74.04397	-30.10579	-28.47845	-74.85764	-120.42316	-133.44188	-126.93252	0
755	-46.37919	-92.75838	-47.19286	69.16195	-0.81367	-71.60296	-32.5468	-28.47845	-72.41663	-120.42316	-131.00087	-124.49151	0
756	-46.37919	-85.43535	-39.86983	64.27993	-3.25468	-64.27993	-32.5468	-28.47845	-65.0936	-115.54114	-128.55986	-119.60949	0
757	-41.49717	-75.67131	-34.98781	56.9569	-3.25468	-56.9569	-32.5468	-23.59643	-55.32956	-110.65912	-123.67784	-114.72747	0
758	-34.17414	-68.34828	-34.98781	49.63387	-0.81367	-52.07488	-32.5468	-23.59643	-50.44754	-108.21811	-118.79582	-112.28646	0
759	-29.29212	-58.58424	-30.10579	42.31084	-0.81367	-44.75185	-37.42882	-23.59643	-45.56552	-103.33609	-113.9138	-112.28646	0
760	-24.4101	-53.70222	-30.10579	37.42882	1.62734	-42.31084	-42.31084	-23.59643	-43.12451	-98.45407	-113.9138	-112.28646	0
761	-19.52808	-53.70222	-34.98781	34.98781	6.50936	-44.75185	-49.63387	-23.59643	-43.12451	-96.01306	-113.9138	-109.84545	0
762	-17.08707	-56.14323	-39.86983	34.98781	11.39138	-49.63387	-56.9569	-26.03744	-45.56552	-96.01306	-111.47279	-107.40444	0
763	-14.64606	-61.02525	-47.19286	37.42882	16.2734	-54.51589	-61.83892	-28.47845	-52.88855	-96.01306	-111.47279	-107.40444	0
764	-14.64606	-63.46626	-49.63387	37.42882	16.2734	-56.9569	-64.27993	-30.91946	-60.21158	-98.45407	-111.47279	-104.96343	0
765	-14.64606	-68.34828	-54.51589	39.86983	18.71441	-61.83892	-64.27993	-33.36047	-60.21158	-100.89508	-111.47279	-104.96343	0
766	-14.64606	-73.2303	-59.39791	42.31084	21.15542	-66.72094	-66.72094	-35.80148	-60.21158	-103.33609	-116.35481	-104.96343	0
767	-17.08707	-75.67131	-59.39791	44.75185	21.15542	-69.16195	-66.72094	-40.6835	-60.21158	-108.21811	-118.79582	-107.40444	0
768	-17.08707	-78.11232	-61.83892	47.19286	21.15542	-71.60296	-69.16195	-43.12451	-62.65259	-110.65912	-121.23683	-109.84545	0
769	-17.08707	-75.67131	-59.39791	44.75185	21.15542	-69.16195	-71.60296	-48.00653	-65.0936	-110.65912	-121.23683	-112.28646	0
770	-19.52808	-75.67131	-56.9569	47.19286	18.71441	-66.72094	-74.04397	-52.88855	-65.0936	-110.65912	-121.23683	-112.28646	0
771	-19.52808	-75.67131	-56.9569	47.19286	18.71441	-66.72094	-76.48498	-52.88855	-67.53461	-110.65912	-121.23683	-112.28646	0
772	-14.64606	-75.67131	-61.83892	44.75185	23.59643	-69.16195	-78.92599	-55.32956	-74.85764	-110.65912	-121.23683	-109.84545	0
773	-14.64606	-75.67131	-61.83892	44.75185	23.59643	-69.16195	-78.92599	-55.32956	-79.73966	-110.65912	-116.35481	-104.96343	0
774	-14.64606	-75.67131	-61.83892	44.75185	23.59643	-69.16195	-78.92599	-55.32956	-82.18067	-110.65912	-116.35481	-100.08141	0
775	-14.64606	-75.67131	-61.83892	44.75185	23.59643	-69.16195	-78.92599	-55.32956	-84.62168	-113.10013	-116.35481	-97.6404	0
776	-19.52808	-80.55333	-61.83892	49.63387	21.15542	-71.60296	-76.48498	-55.32956	-82.18067	-113.10013	-118.79582	-97.6404	0
777	-21.96909	-80.55333	-59.39791	49.63387	18.71441	-71.60296	-74.04397	-55.32956	-77.29865	-115.54114	-118.79582	-100.08141	0
778	-26.85111	-82.99434	-56.9569	54.51589	13.83239	-71.60296	-69.16195	-55.32956	-77.29865	-117.98215	-123.67784	-102.52242	0
779	-36.61515	-82.99434	-47.19286	59.39791	4.06835	-66.72094	-66.72094	-57.77057	-77.29865	-120.42316	-126.11885	-109.84545	0
780	-43.93818	-87.87636	-44.75185	64.27993	-0.81367	-66.72094	-64.27993	-60.21158	-77.29865	-120.42316	-128.55986	-114.72747	0
781	-48.8202	-90.31737	-42.31084	69.16195	-3.25468	-66.72094	-61.83892	-60.21158	-77.29865	-122.86417	-133.44188	-117.16848	0
782	-53.70222	-95.19939	-42.31084	74.04397	-5.69569	-69.16195	-59.39791	-60.21158	-82.18067	-125.30518	-133.44188	-122.0505	0
783	-58.58424	-102.52242	-44.75185	78.92599	-8.95037	-74.04397	-54.51589	-60.21158	-89.5037	-127.74619	-135.88289	-122.0505	0
784	-63.46626	-109.84545	-47.19286	86.24902	-8.95037	-78.92599	-52.07488	-60.21158	-94.38572	-127.74619	-138.3239	-122.0505	0
785	-68.34828	-114.72747	-47.19286	91.13104	-11.39138	-81.367	-49.63387	-60.21158	-94.38572	-130.1872	-138.3239	-122.0505	0
786	-70.78929	-119.60949	-49.63387	93.57205	-11.39138	-86.24902	-49.63387	-60.21158	-94.38572	-132.62821	-140.76491	-122.0505	0
787	-73.2303	-124.49151	-52.07488	98.45407	-11.39138	-88.69003	-47.19286	-62.65259	-91.94471	-135.06922	-143.20592	-126.93252	0
788	-80.55333	-126.93252	-47.19286	103.33609	-18.71441	-88.69003	-42.31084	-62.65259	-91.94471	-137.51023	-145.64693	-129.37353	0
789	-85.43535	-129.37353	-44.75185	105.7771	-21.15542	-88.69003	-42.31084	-62.65259	-89.5037	-135.06922	-148.08794	-131.81454	0
790	-87.87636	-131.81454	-44.75185	108.21811	-23.59643	-88.69003	-39.86983	-62.65259	-84.62168	-135.06922	-148.08794	-136.69656	0
791	-90.31737	-134.25555	-44.75185	110.65912	-23.59643	-91.13104	-39.86983	-62.65259	-87.06269	-135.06922	-150.52895	-136.69656	0
792	-85.43535	-134.25555	-49.63387	108.21811	-18.71441	-93.57205	-39.86983	-65.0936	-89.5037	-135.06922	-152.96996	-139.13757	0
793	-85.43535	-136.69656	-52.07488	110.65912	-18.71441	-96.01306	-39.86983	-65.0936	-94.38572	-135.06922	-152.96996	-139.13757	0
794	-90.31737	-136.69656	-47.19286	113.10013	-23.59643	-93.57205	-34.98781	-65.0936	-96.82673	-135.06922	-152.96996	-134.25555	0
795	-95.19939	-136.69656	-42.31084	115.54114	-28.47845	-91.13104	-32.5468	-65.0936	-96.82673	-137.51023	-152.96996	-134.25555	0
796	-95.19939	-139.13757	-44.75185	115.54114	-26.03744	-93.57205	-32.5468	-65.0936	-96.82673	-139.95124	-155.41097	-134.25555	0
797	-92.75838	-136.69656	-44.75185	113.10013	-26.03744	-91.13104	-32.5468	-67.53461	-94.38572	-142.39225	-157.85198	-136.69656	0
798	-95.19939	-136.69656	-42.31084	115.54114	-28.47845	-91.13104	-30.10579	-67.53461	-94.38572	-142.39225	-157.85198	-136.69656	0
799	-102.52242	-136.69656	-34.98781	117.98215	-35.80148	-86.24902	-30.10579	-67.53461	-89.5037	-137.51023	-152.96996	-136.69656	0
800	-100.08141	-134.25555	-34.98781	115.54114	-33.36047	-86.24902	-27.66478	-67.53461	-84.62168	-132.62821	-150.52895	-134.25555	0
801	-92.75838	-134.25555	-42.31084	113.10013	-26.03744	-88.69003	-30.10579	-67.53461	-84.62168	-132.62821	-150.52895	-134.25555	0
802	-85.43535	-134.25555	-49.63387	108.21811	-18.71441	-93.57205	-30.10579	-67.53461	-87.06269	-130.1872	-145.64693	-131.81454	0
803	-82.99434	-134.25555	-52.07488	108.21811	-16.2734	-93.57205	-27.66478	-67.53461	-89.5037	-127.74619	-140.76491	-126.93252	0
804	-85.43535	-134.25555	-49.63387	108.21811	-18.71441	-93.57205	-22.78276	-65.0936	-91.94471	-125.30518	-140.76491	-124.49151	0
805	-85.43535	-136.69656	-52.07488	110.65912	-18.71441	-96.01306	-17.90074	-65.0936	-91.94471	-127.74619	-143.20592	-124.49151	0
806	-82.99434	-139.13757	-56.9569	110.65912	-13.83239	-98.45407	-15.45973	-65.0936	-91.94471	-132.62821	-148.08794	-126.93252	0
807	-87.87636	-141.57858	-54.51589	113.10013	-18.71441	-98.45407	-10.57771	-65.0936	-87.06269	-132.62821	-150.52895	-129.37353	0
808	-92.75838	-139.13757	-47.19286	115.54114	-23.59643	-93.57205	-5.69569	-65.0936	-87.06269	-132.62821	-150.52895	-131.81454	0
809	-95.19939	-139.13757	-44.75185	115.54114	-26.03744	-93.57205	-3.25468	-65.0936	-87.06269	-132.62821	-150.52895	-131.81454	0
810	-95.19939	-139.13757	-44.75185	115.54114	-26.03744	-93.57205	-3.25468	-65.0936	-84.62168	-132.62821	-148.08794	-134.25555	0
811	-95.19939	-139.13757	-44.75185	115.54114	-26.03744	-93.57205	-0.81367	-65.0936	-84.62168	-132.62821	-148.08794	-134.25555	0
812	-95.19939	-139.13757	-44.75185	115.54114	-26.03744	-93.57205	4.06835	-60.21158	-84.62168	-130.1872	-148.08794	-131.81454	0
813	-100.08141	-141.57858	-42.31084	120.42316	-30.91946	-93.57205	13.83239	-55.32956	-89.5037	-132.62821	-150.52895	-134.25555	0
814	-107.40444	-146.4606	-39.86983	125.30518	-35.80148	-93.57205	23.59643	-48.00653	-91.94471	-139.95124	-157.85198	-139.13757	0
815	-119.60949	-156.22464	-37.42882	137.51023	-43.12451	-98.45407	36.61515	-38.24249	-89.5037	-144.83326	-167.61602	-148.90161	0
816	-126.93252	-161.10666	-34.98781	142.39225	-48.00653	-98.45407	48.8202	-26.03744	-84.62168	-152.15629	-179.82107	-156.22464	0
817	-136.69656	-163.54767	-27.66478	149.71528	-55.32956	-96.01306	61.02525	-13.83239	-77.29865	-157.03831	-189.58511	-168.42969	0
818	-148.90161	-165.98868	-17.90074	157.03831	-67.53461	-93.57205	73.2303	0.81367	-62.65259	-152.15629	-192.02612	-173.31171	0
819	-156.22464	-163.54767	-8.1367	159.47932	-74.85764	-86.24902	75.67131	15.45973	-43.12451	-139.95124	-187.1441	-173.31171	0
820	-148.90161	-153.78363	-5.69569	149.71528	-72.41663	-81.367	70.78929	32.5468	-13.83239	-120.42316	-172.49804	-168.42969	0
821	-139.13757	-139.13757	-0.81367	137.51023	-69.97562	-71.60296	58.58424	52.88855	23.59643	-83.80801	-148.08794	-151.34262	0
822	-117.16848	-122.0505	-5.69569	117.98215	-57.77057	-64.27993	39.05616	82.18067	72.41663	-34.98781	-111.47279	-124.49151	0
823	-87.87636	-100.08141	-13.01872	93.57205	-38.24249	-56.9569	18.71441	126.11885	143.20592	31.73313	-55.32956	-87.87636	0
824	-41.49717	-68.34828	-27.66478	54.51589	-8.95037	-49.63387	-17.90074	174.93905	228.64127	124.49151	13.83239	-39.05616	0
825	25.22377	-29.29212	-54.51589	2.44101	38.24249	-42.31084	-64.27993	221.31824	336.04571	236.77797	104.14976	17.90074	0
826	105.7771	15.45973	-91.13104	-61.02525	99.26774	-37.42882	-125.30518	260.3744	450.77318	371.03352	211.5542	91.13104	0
827	196.09447	64.27993	-132.62821	-129.37353	165.17501	-34.98781	-193.65346	282.34349	565.50065	515.05311	331.16369	166.80235	0
828	293.73487	115.54114	-179.0074	-205.04484	235.9643	-32.5468	-274.20679	282.34349	672.90509	668.83674	460.53722	252.2377	0
829	393.81628	171.68437	-222.94558	-283.15716	309.1946	-25.22377	-362.08315	257.93339	768.10448	825.06138	599.67479	340.11406	0
830	496.3387	225.38659	-271.76578	-361.26948	384.86591	-22.78276	-454.84153	213.99521	851.09882	978.84501	736.37135	432.87244	0
831	579.33304	279.08881	-301.0579	-429.61776	441.00914	-10.57771	-545.1589	150.52895	907.24205	1117.98258	865.74488	523.18981	0
832	645.24031	325.468	-320.58598	-485.76099	482.50631	1.62734	-630.59425	55.32956	924.32912	1215.62298	968.2673	601.30213	0
833	689.17849	366.96517	-323.02699	-527.25816	506.91641	21.96909	-701.38354	-55.32956	897.47801	1269.3252	1036.61558	664.76839	0
834	708.70657	403.58032	-305.93992	-556.55028	506.91641	48.8202	-762.40879	-177.38006	836.45276	1274.20722	1065.9077	708.70657	0
835	706.26556	430.43143	-276.6478	-568.75533	492.27035	78.11232	-816.11101	-328.72268	724.1663	1213.18197	1048.82063	725.79364	0
836	681.85546	445.07749	-237.59164	-563.87331	460.53722	104.96343	-857.60818	-504.4754	548.41358	1078.92642	978.03134	716.0296	0
837	642.7993	447.5185	-196.09447	-544.34523	419.04005	126.93252	-891.78232	-709.52024	306.75359	873.88158	858.42185	676.97344	0
838	591.53809	440.19547	-152.15629	-515.05311	372.66086	144.01959	-916.19242	-929.21114	13.83239	612.69351	702.19721	618.3892	0
839	528.07183	415.78537	-113.10013	-471.11493	321.39965	151.34262	-933.27949	-1139.138	-289.66652	331.97736	528.8855	545.1589	0
840	464.60557	374.2882	-91.13104	-419.85372	277.46147	141.57858	-940.60252	-1314.89072	-572.82368	58.58424	355.57379	464.60557	0
841	396.25729	323.02699	-74.04397	-358.82847	235.9643	124.49151	-928.39747	-1439.38223	-804.71963	-174.12538	196.90814	384.05224	0
842	330.35002	274.20679	-56.9569	-302.68524	194.46713	109.84545	-894.22333	-1493.08445	-965.82629	-352.31911	69.97562	313.26295	0
843	259.56073	227.8276	-32.5468	-244.101	145.64693	97.6404	-835.63909	-1473.55637	-1041.4976	-464.60557	-26.03744	249.79669	0
844	188.77144	183.88942	-5.69569	-185.51676	96.82673	90.31737	-762.40879	-1388.12102	-1036.61558	-518.30779	-94.38572	193.65346	0
845	127.74619	147.27427	19.52808	-136.69656	55.32956	82.99434	-672.09142	-1251.42446	-963.38528	-520.7488	-135.88289	144.83326	0
846	69.16195	115.54114	46.37919	-92.75838	11.39138	80.55333	-574.45102	-1082.99477	-846.2168	-486.57466	-157.85198	103.33609	0
847	22.78276	96.01306	73.2303	-58.58424	-26.03744	85.43535	-476.81062	-914.56508	-716.84327	-435.31345	-165.17501	71.60296	0
848	-14.64606	78.92599	92.75838	-31.73313	-52.88855	85.43535	-388.93426	-760.78145	-599.67479	-384.05224	-165.17501	42.31084	0
849	-41.49717	59.39791	100.08141	-9.76404	-69.97562	78.11232	-313.26295	-624.08489	-494.71136	-332.79103	-162.734	17.90074	0
850	-58.58424	39.86983	97.6404	8.1367	-77.29865	68.34828	-247.35568	-506.91641	-401.95298	-286.41184	-155.41097	-4.06835	0
851	-68.34828	20.34175	87.87636	22.78276	-77.29865	53.70222	-191.21245	-404.39399	-321.39965	-240.03265	-143.20592	-14.64606	0
852	-73.2303	5.69569	78.11232	32.5468	-74.85764	41.49717	-144.83326	-318.95864	-257.93339	-200.97649	-128.55986	-21.96909	0
853	-78.11232	-2.44101	75.67131	39.86983	-77.29865	36.61515	-105.7771	-253.05137	-209.11319	-169.24336	-116.35481	-24.4101	0
854	-80.55333	-9.76404	70.78929	44.75185	-77.29865	29.29212	-76.48498	-204.23117	-177.38006	-149.71528	-106.59077	-24.4101	0
855	-82.99434	-12.20505	70.78929	47.19286	-77.29865	29.29212	-54.51589	-172.49804	-152.96996	-137.51023	-101.70875	-24.4101	0
856	-85.43535	-12.20505	73.2303	47.19286	-79.73966	29.29212	-39.86983	-152.96996	-138.3239	-135.06922	-101.70875	-24.4101	0
857	-87.87636	-12.20505	75.67131	49.63387	-82.18067	31.73313	-27.66478	-140.76491	-128.55986	-135.06922	-106.59077	-29.29212	0
858	-90.31737	-7.32303	82.99434	47.19286	-87.06269	36.61515	-15.45973	-133.44188	-126.11885	-135.06922	-109.03178	-31.73313	0
859	-92.75838	-4.88202	87.87636	47.19286	-91.94471	41.49717	-8.1367	-128.55986	-121.23683	-137.51023	-111.47279	-39.05616	0
860	-92.75838	-2.44101	90.31737	47.19286	-91.94471	43.93818	-3.25468	-121.23683	-113.9138	-135.06922	-113.9138	-41.49717	0
861	-92.75838	0.81367	92.75838	44.75185	-91.94471	46.37919	1.62734	-113.9138	-111.47279	-135.06922	-116.35481	-43.93818	0
862	-87.87636	3.25468	90.31737	42.31084	-89.5037	46.37919	6.50936	-109.03178	-111.47279	-135.06922	-116.35481	-43.93818	0
863	-82.99434	8.1367	90.31737	37.42882	-87.06269	48.8202	11.39138	-104.14976	-113.9138	-135.06922	-116.35481	-43.93818	0
864	-82.99434	8.1367	90.31737	37.42882	-87.06269	48.8202	11.39138	-99.26774	-113.9138	-135.06922	-113.9138	-41.49717	0
865	-85.43535	8.1367	92.75838	37.42882	-89.5037	48.8202	16.2734	-96.82673	-111.47279	-137.51023	-113.9138	-39.05616	0
866	-82.99434	8.1367	90.31737	37.42882	-87.06269	48.8202	16.2734	-91.94471	-109.03178	-137.51023	-116.35481	-39.05616	0
867	-82.99434	8.1367	90.31737	37.42882	-87.06269	48.8202	21.15542	-87.06269	-104.14976	-137.51023	-116.35481	-41.49717	0
868	-85.43535	8.1367	92.75838	37.42882	-89.5037	48.8202	26.03744	-82.18067	-99.26774	-135.06922	-113.9138	-41.49717	0
869	-95.19939	8.1367	102.52242	42.31084	-99.26774	53.70222	28.47845	-77.29865	-91.94471	-130.1872	-109.03178	-41.49717	0
870	-95.19939	10.57771	104.96343	42.31084	-99.26774	56.14323	31.73313	-72.41663	-87.06269	-125.30518	-109.03178	-43.93818	0
871	-90.31737	13.01872	102.52242	37.42882	-96.82673	56.14323	31.73313	-69.97562	-82.18067	-122.86417	-106.59077	-41.49717	0
872	-87.87636	20.34175	107.40444	32.5468	-96.82673	63.46626	34.17414	-65.0936	-79.73966	-115.54114	-101.70875	-36.61515	0
873	-80.55333	25.22377	104.96343	27.66478	-91.94471	63.46626	36.61515	-62.65259	-79.73966	-113.10013	-94.38572	-31.73313	0
874	-80.55333	27.66478	107.40444	25.22377	-94.38572	65.90727	39.05616	-60.21158	-79.73966	-110.65912	-91.94471	-26.85111	0
875	-70.78929	34.98781	104.96343	17.90074	-87.06269	68.34828	41.49717	-60.21158	-77.29865	-110.65912	-89.5037	-24.4101	0
876	-65.90727	42.31084	107.40444	10.57771	-87.06269	73.2303	43.93818	-55.32956	-72.41663	-108.21811	-87.06269	-19.52808	0
877	-61.02525	49.63387	109.84545	4.88202	-84.62168	78.11232	48.8202	-52.88855	-65.0936	-105.7771	-84.62168	-14.64606	0
878	-56.14323	56.9569	112.28646	0	-84.62168	82.99434	51.26121	-52.88855	-62.65259	-103.33609	-79.73966	-14.64606	0
879	-51.26121	66.72094	117.16848	-7.32303	-84.62168	90.31737	53.70222	-55.32956	-60.21158	-98.45407	-77.29865	-12.20505	0
880	-48.8202	78.92599	126.93252	-14.64606	-87.06269	102.52242	53.70222	-57.77057	-52.88855	-93.57205	-72.41663	-8.95037	0
881	-41.49717	88.69003	129.37353	-24.4101	-84.62168	107.40444	53.70222	-60.21158	-50.44754	-88.69003	-67.53461	-6.50936	0
882	-34.17414	96.01306	129.37353	-31.73313	-82.18067	112.28646	53.70222	-60.21158	-50.44754	-86.24902	-62.65259	-1.62734	0
883	-26.85111	100.89508	126.93252	-36.61515	-77.29865	112.28646	56.14323	-60.21158	-52.88855	-83.80801	-57.77057	3.25468	0
884	-21.96909	105.7771	126.93252	-41.49717	-74.85764	114.72747	61.02525	-55.32956	-55.32956	-81.367	-52.88855	8.1367	0
885	-21.96909	105.7771	126.93252	-41.49717	-74.85764	114.72747	61.02525	-52.88855	-50.44754	-81.367	-52.88855	8.1367	0
886	-21.96909	105.7771	126.93252	-41.49717	-74.85764	114.72747	63.46626	-50.44754	-48.00653	-83.80801	-55.32956	10.57771	0
887	-24.4101	108.21811	131.81454	-41.49717	-77.29865	119.60949	68.34828	-45.56552	-43.12451	-83.80801	-57.77057	13.01872	0
888	-24.4101	110.65912	134.25555	-43.93818	-79.73966	122.0505	70.78929	-45.56552	-43.12451	-81.367	-57.77057	15.45973	0
889	-24.4101	115.54114	139.13757	-46.37919	-82.18067	126.93252	70.78929	-45.56552	-38.24249	-78.92599	-55.32956	15.45973	0
890	-24.4101	122.86417	146.4606	-48.8202	-84.62168	134.25555	70.78929	-43.12451	-33.36047	-76.48498	-50.44754	20.34175	0
891	-19.52808	127.74619	146.4606	-53.70222	-82.18067	136.69656	73.2303	-40.6835	-30.91946	-71.60296	-48.00653	25.22377	0
892	-12.20505	135.06922	146.4606	-61.02525	-79.73966	139.13757	75.67131	-40.6835	-30.91946	-66.72094	-40.6835	32.5468	0
893	-6.50936	137.51023	144.01959	-65.90727	-74.85764	141.57858	75.67131	-40.6835	-33.36047	-64.27993	-33.36047	39.86983	0
894	-4.06835	139.95124	144.01959	-68.34828	-74.85764	141.57858	75.67131	-38.24249	-35.80148	-61.83892	-30.91946	44.75185	0
895	-9.76404	139.95124	148.90161	-65.90727	-79.73966	144.01959	75.67131	-38.24249	-30.91946	-61.83892	-26.03744	49.63387	0
896	-12.20505	139.95124	151.34262	-63.46626	-82.18067	144.01959	75.67131	-35.80148	-28.47845	-59.39791	-26.03744	52.07488	0
897	-12.20505	142.39225	153.78363	-65.90727	-82.18067	146.4606	75.67131	-33.36047	-26.03744	-59.39791	-26.03744	52.07488	0
898	-17.08707	142.39225	158.66565	-63.46626	-87.06269	148.90161	75.67131	-33.36047	-23.59643	-56.9569	-23.59643	52.07488	0
899	-24.4101	147.27427	170.8707	-61.02525	-96.82673	158.66565	75.67131	-30.91946	-23.59643	-54.51589	-23.59643	52.07488	0
900	-24.4101	152.15629	175.75272	-63.46626	-99.26774	163.54767	78.11232	-30.91946	-16.2734	-47.19286	-17.90074	54.51589	0
901	-17.08707	159.47932	175.75272	-70.78929	-96.82673	165.98868	75.67131	-28.47845	-13.83239	-42.31084	-13.01872	61.83892	0
902	-9.76404	166.80235	175.75272	-78.11232	-91.94471	170.8707	73.2303	-28.47845	-16.2734	-39.86983	-8.1367	66.72094	0
903	-6.50936	169.24336	175.75272	-80.55333	-91.94471	173.31171	75.67131	-23.59643	-18.71441	-34.98781	-0.81367	74.04397	0
904	-6.50936	174.12538	180.63474	-82.99434	-94.38572	178.19373	78.11232	-21.15542	-18.71441	-32.5468	6.50936	81.367	0
905	-6.50936	174.12538	180.63474	-82.99434	-94.38572	178.19373	78.11232	-18.71441	-16.2734	-32.5468	11.39138	88.69003	0
906	-6.50936	176.56639	183.07575	-85.43535	-94.38572	180.63474	78.11232	-13.83239	-11.39138	-30.10579	11.39138	93.57205	0
907	-9.76404	179.0074	187.95777	-85.43535	-99.26774	183.07575	78.11232	-11.39138	-6.50936	-30.10579	13.83239	93.57205	0
908	-12.20505	183.88942	195.2808	-85.43535	-104.14976	187.95777	78.11232	-8.95037	-4.06835	-30.10579	16.2734	93.57205	0
909	-21.96909	188.77144	209.92686	-82.99434	-116.35481	197.72181	78.11232	-6.50936	-1.62734	-27.66478	21.15542	98.45407	0
910	-19.52808	198.53548	217.24989	-90.31737	-118.79582	207.48585	78.11232	-6.50936	4.06835	-21.96909	26.03744	105.7771	0
911	-14.64606	208.29952	222.13191	-97.6404	-118.79582	214.80888	75.67131	-4.06835	6.50936	-17.08707	30.91946	110.65912	0
912	-9.76404	220.50457	229.45494	-104.96343	-118.79582	224.57292	73.2303	-1.62734	6.50936	-12.20505	35.80148	117.98215	0
913	-1.62734	230.26861	231.89595	-114.72747	-116.35481	231.89595	75.67131	0.81367	4.06835	-9.76404	43.12451	125.30518	0
914	0.81367	240.03265	239.21898	-119.60949	-118.79582	239.21898	75.67131	5.69569	4.06835	-2.44101	50.44754	135.06922	0
915	5.69569	247.35568	241.65999	-126.93252	-118.79582	244.101	75.67131	8.1367	8.95037	0	57.77057	139.95124	0
916	5.69569	254.67871	248.98302	-129.37353	-121.23683	251.42403	75.67131	13.01872	16.2734	4.88202	65.0936	149.71528	0
917	3.25468	257.11972	253.86504	-129.37353	-126.11885	256.30605	78.11232	17.90074	26.03744	9.76404	69.97562	154.5973	0
918	0.81367	262.00174	261.18807	-131.81454	-131.00087	261.18807	82.99434	25.22377	33.36047	19.52808	79.73966	161.92033	0
919	-4.06835	269.32477	273.39312	-131.81454	-138.3239	270.95211	82.99434	30.10579	40.6835	29.29212	91.94471	171.68437	0
920	-1.62734	274.20679	275.83413	-136.69656	-138.3239	275.83413	82.99434	32.5468	50.44754	36.61515	99.26774	179.0074	0
921	0.81367	283.97083	283.15716	-141.57858	-140.76491	283.15716	80.55333	35.80148	57.77057	46.37919	109.03178	188.77144	0
922	5.69569	296.17588	290.48019	-151.34262	-143.20592	292.9212	78.11232	38.24249	57.77057	53.70222	118.79582	198.53548	0
923	8.1367	305.93992	297.80322	-156.22464	-145.64693	302.68524	78.11232	43.12451	60.21158	61.02525	131.00087	208.29952	0
924	13.01872	320.58598	307.56726	-165.98868	-148.08794	314.89029	78.11232	45.56552	60.21158	65.90727	138.3239	220.50457	0
925	13.01872	330.35002	317.3313	-170.8707	-152.96996	324.65433	78.11232	48.00653	65.0936	70.78929	145.64693	230.26861	0
926	13.01872	342.55507	329.53635	-178.19373	-157.85198	336.85938	78.11232	52.88855	72.41663	78.11232	152.96996	240.03265	0
927	13.01872	349.8781	336.85938	-180.63474	-162.734	344.18241	80.55333	60.21158	82.18067	85.43535	160.29299	247.35568	0
928	15.45973	354.76012	339.30039	-185.51676	-162.734	346.62342	82.99434	65.0936	89.5037	92.75838	167.61602	252.2377	0
929	15.45973	359.64214	344.18241	-187.95777	-165.17501	351.50544	82.99434	69.97562	99.26774	100.08141	177.38006	257.11972	0
930	17.90074	366.96517	349.06443	-192.83979	-165.17501	358.82847	82.99434	74.85764	109.03178	112.28646	187.1441	264.44275	0
931	22.78276	374.2882	351.50544	-197.72181	-165.17501	363.71049	80.55333	79.73966	118.79582	122.0505	196.90814	274.20679	0
932	30.10579	379.17022	349.06443	-205.04484	-160.29299	363.71049	78.11232	87.06269	123.67784	131.81454	209.11319	283.97083	0
933	34.98781	384.05224	349.06443	-209.92686	-157.85198	366.1515	80.55333	91.94471	126.11885	144.01959	223.75925	293.73487	0
934	39.86983	391.37527	351.50544	-214.80888	-155.41097	371.03352	82.99434	99.26774	131.00087	151.34262	233.52329	303.49891	0
935	42.31084	398.6983	356.38746	-219.6909	-157.85198	378.35655	82.99434	106.59077	140.76491	161.10666	243.28733	313.26295	0
936	44.75185	406.02133	361.26948	-224.57292	-157.85198	383.23857	85.43535	113.9138	150.52895	168.42969	250.61036	320.58598	0
937	47.19286	410.90335	363.71049	-229.45494	-157.85198	388.12059	87.87636	121.23683	160.29299	178.19373	257.93339	327.90901	0
938	49.63387	418.22638	368.59251	-234.33696	-160.29299	393.00261	90.31737	128.55986	170.05703	187.95777	267.69743	335.23204	0
939	54.51589	423.1084	368.59251	-239.21898	-157.85198	395.44362	90.31737	135.88289	179.82107	200.16282	277.46147	340.11406	0
940	56.9569	427.99042	371.03352	-241.65999	-157.85198	400.32564	90.31737	143.20592	192.02612	209.92686	287.22551	344.99608	0
941	61.83892	432.87244	371.03352	-246.54201	-155.41097	402.76665	90.31737	150.52895	201.79016	219.6909	294.54854	349.8781	0
942	69.16195	437.75446	368.59251	-253.86504	-150.52895	402.76665	87.87636	157.85198	206.67218	227.01393	301.87157	354.76012	0
943	71.60296	437.75446	366.1515	-253.86504	-148.08794	402.76665	90.31737	165.17501	211.5542	236.77797	311.63561	359.64214	0
944	76.48498	437.75446	361.26948	-256.30605	-143.20592	400.32564	92.75838	170.05703	213.99521	244.101	316.51763	364.52416	0
945	81.367	435.31345	353.94645	-258.74706	-135.88289	395.44362	92.75838	174.93905	221.31824	248.98302	321.39965	366.96517	0
946	81.367	432.87244	351.50544	-256.30605	-135.88289	393.00261	92.75838	182.26208	231.08228	253.86504	321.39965	366.96517	0
947	78.92599	430.43143	351.50544	-253.86504	-135.88289	390.5616	97.6404	187.1441	240.84632	261.18807	326.28167	369.40618	0
948	78.92599	427.99042	349.06443	-253.86504	-135.88289	388.12059	100.08141	194.46713	248.16935	268.5111	331.16369	369.40618	0
949	78.92599	425.54941	346.62342	-251.42403	-133.44188	385.67958	100.08141	196.90814	255.49238	275.83413	333.6047	369.40618	0
950	83.80801	425.54941	341.7414	-253.86504	-128.55986	383.23857	100.08141	201.79016	262.81541	283.15716	333.6047	364.52416	0
951	86.24902	420.66739	334.41837	-253.86504	-123.67784	378.35655	97.6404	206.67218	267.69743	288.03918	333.6047	364.52416	0
952	93.57205	418.22638	324.65433	-256.30605	-116.35481	371.03352	97.6404	211.5542	267.69743	292.9212	333.6047	362.08315	0
953	103.33609	413.34436	310.00827	-258.74706	-104.14976	361.26948	95.19939	213.99521	267.69743	295.36221	336.04571	362.08315	0
954	105.7771	406.02133	300.24423	-256.30605	-96.82673	353.94645	95.19939	221.31824	270.13844	297.80322	336.04571	362.08315	0
955	108.21811	398.6983	290.48019	-253.86504	-91.94471	344.18241	92.75838	221.31824	272.57945	295.36221	333.6047	357.20113	0
956	113.10013	388.93426	275.83413	-251.42403	-82.18067	331.97736	92.75838	226.20026	277.46147	292.9212	326.28167	349.8781	0
957	113.10013	376.72921	263.62908	-244.101	-74.85764	319.77231	92.75838	228.64127	282.34349	292.9212	318.95864	340.11406	0
958	113.10013	369.40618	256.30605	-241.65999	-72.41663	312.44928	92.75838	231.08228	287.22551	292.9212	314.07662	330.35002	0
959	115.54114	357.20113	241.65999	-236.77797	-62.65259	300.24423	95.19939	233.52329	292.10753	292.9212	306.75359	318.14497	0
960	120.42316	347.43709	227.01393	-234.33696	-52.88855	288.03918	95.19939	233.52329	296.98955	290.48019	299.43056	305.93992	0
961	132.62821	337.67305	205.04484	-234.33696	-35.80148	270.95211	90.31737	233.52329	296.98955	288.03918	289.66652	291.29386	0
962	142.39225	325.468	183.07575	-234.33696	-21.15542	253.86504	90.31737	231.08228	292.10753	285.59817	282.34349	283.97083	0
963	144.83326	315.70396	170.8707	-229.45494	-13.83239	244.101	90.31737	231.08228	287.22551	280.71615	277.46147	276.6478	0
964	147.27427	303.49891	156.22464	-224.57292	-3.25468	229.45494	90.31737	228.64127	279.90248	273.39312	265.25642	266.88376	0
965	144.83326	288.85285	144.01959	-217.24989	1.62734	217.24989	87.87636	221.31824	275.02046	263.62908	253.05137	254.67871	0
966	144.83326	271.76578	126.93252	-207.48585	8.95037	200.16282	85.43535	216.43622	270.13844	253.86504	238.40531	242.47366	0
967	137.51023	254.67871	117.16848	-195.2808	11.39138	185.51676	85.43535	211.5542	267.69743	244.101	226.20026	230.26861	0
