samplenr	I	II	III	aVR	aVL	aVF	V1	V2	V3	V4	V5	V6	measurement
0	-23.59643	-18.71441	5.69569	18.71441	-15.45973	-6.50936	-249.79669	74.85764	121.23683	71.60296	32.5468	17.08707	0
1	-33.36047	-18.71441	15.45973	23.59643	-25.22377	-2.44101	-254.67871	69.97562	111.47279	66.72094	32.5468	12.20505	0
2	-23.59643	-8.95037	15.45973	13.83239	-20.34175	1.62734	-249.79669	74.85764	111.47279	66.72094	32.5468	12.20505	0
3	-13.83239	-4.06835	10.57771	8.95037	-10.57771	1.62734	-235.15063	84.62168	116.35481	66.72094	37.42882	17.08707	0
4	-23.59643	-8.95037	15.45973	13.83239	-20.34175	1.62734	-225.38659	79.73966	111.47279	56.9569	37.42882	7.32303	0
5	-33.36047	-8.95037	25.22377	18.71441	-30.10579	6.50936	-230.26861	74.85764	101.70875	52.07488	32.5468	3.25468	0
6	-28.47845	-8.95037	20.34175	18.71441	-25.22377	6.50936	-225.38659	74.85764	106.59077	56.9569	42.31084	3.25468	0
7	-28.47845	-8.95037	20.34175	18.71441	-25.22377	6.50936	-220.50457	79.73966	101.70875	52.07488	42.31084	3.25468	0
8	-28.47845	-4.06835	25.22377	18.71441	-25.22377	11.39138	-215.62255	89.5037	106.59077	56.9569	47.19286	12.20505	0
9	-33.36047	-4.06835	30.10579	18.71441	-30.10579	11.39138	-215.62255	89.5037	111.47279	56.9569	47.19286	12.20505	0
10	-43.12451	0.81367	43.93818	18.71441	-44.75185	21.15542	-220.50457	84.62168	111.47279	56.9569	47.19286	17.08707	0
11	-52.88855	0.81367	52.88855	23.59643	-54.51589	26.03744	-225.38659	74.85764	106.59077	56.9569	37.42882	12.20505	0
12	-52.88855	-4.06835	48.00653	28.47845	-49.63387	21.15542	-210.74053	69.97562	101.70875	52.07488	32.5468	7.32303	0
13	-52.88855	-8.95037	43.93818	28.47845	-49.63387	16.2734	-196.09447	74.85764	101.70875	52.07488	37.42882	7.32303	0
14	-62.65259	-8.95037	52.88855	33.36047	-59.39791	21.15542	-191.21245	69.97562	96.82673	52.07488	37.42882	7.32303	0
15	-72.41663	-8.95037	62.65259	38.24249	-68.34828	26.03744	-200.97649	55.32956	87.06269	42.31084	27.66478	3.25468	0
16	-72.41663	-8.95037	62.65259	38.24249	-68.34828	26.03744	-196.09447	55.32956	82.18067	37.42882	27.66478	3.25468	0
17	-62.65259	0.81367	62.65259	28.47845	-64.27993	30.91946	-191.21245	55.32956	82.18067	37.42882	27.66478	3.25468	0
18	-57.77057	10.57771	67.53461	23.59643	-64.27993	40.6835	-176.56639	60.21158	82.18067	37.42882	32.5468	7.32303	0
19	-62.65259	5.69569	67.53461	28.47845	-64.27993	35.80148	-176.56639	60.21158	82.18067	42.31084	37.42882	17.08707	0
20	-57.77057	10.57771	67.53461	23.59643	-64.27993	40.6835	-171.68437	60.21158	82.18067	47.19286	37.42882	17.08707	0
21	-72.41663	0.81367	72.41663	33.36047	-72.41663	35.80148	-171.68437	60.21158	77.29865	47.19286	32.5468	12.20505	0
22	-91.13104	0.81367	91.94471	43.12451	-91.94471	45.56552	-161.92033	69.97562	72.41663	47.19286	27.66478	12.20505	0
23	-91.13104	0.81367	91.94471	43.12451	-91.94471	45.56552	-152.15629	65.0936	67.53461	42.31084	22.78276	7.32303	0
24	-82.18067	10.57771	91.94471	33.36047	-87.06269	50.44754	-147.27427	60.21158	67.53461	37.42882	22.78276	12.20505	0
25	-82.18067	10.57771	91.94471	33.36047	-87.06269	50.44754	-147.27427	50.44754	62.65259	37.42882	22.78276	12.20505	0
26	-77.29865	15.45973	91.94471	33.36047	-82.18067	55.32956	-142.39225	50.44754	67.53461	42.31084	27.66478	17.08707	0
27	-77.29865	20.34175	96.82673	28.47845	-87.06269	60.21158	-142.39225	50.44754	62.65259	37.42882	32.5468	21.96909	0
28	-77.29865	25.22377	101.70875	28.47845	-87.06269	65.0936	-137.51023	50.44754	62.65259	37.42882	32.5468	21.96909	0
29	-82.18067	25.22377	106.59077	28.47845	-91.94471	65.0936	-127.74619	50.44754	57.77057	37.42882	32.5468	31.73313	0
30	-82.18067	25.22377	106.59077	28.47845	-91.94471	65.0936	-132.62821	40.6835	48.00653	32.5468	22.78276	26.85111	0
31	-77.29865	25.22377	101.70875	28.47845	-87.06269	65.0936	-137.51023	30.91946	43.12451	22.78276	17.90074	21.96909	0
32	-77.29865	25.22377	101.70875	28.47845	-87.06269	65.0936	-132.62821	30.91946	43.12451	17.90074	17.90074	21.96909	0
33	-82.18067	25.22377	106.59077	28.47845	-91.94471	65.0936	-127.74619	30.91946	38.24249	17.90074	17.90074	17.08707	0
34	-91.13104	15.45973	106.59077	38.24249	-96.82673	60.21158	-137.51023	26.03744	38.24249	17.90074	22.78276	21.96909	0
35	-91.13104	10.57771	101.70875	38.24249	-96.82673	55.32956	-152.15629	21.15542	33.36047	13.01872	17.90074	17.08707	0
36	-95.19939	15.45973	111.47279	38.24249	-101.70875	60.21158	-157.03831	16.2734	23.59643	8.95037	17.90074	7.32303	0
37	-91.13104	15.45973	106.59077	38.24249	-96.82673	60.21158	-157.03831	16.2734	23.59643	8.95037	22.78276	7.32303	0
38	-91.13104	10.57771	101.70875	38.24249	-96.82673	55.32956	-147.27427	16.2734	23.59643	8.95037	17.90074	3.25468	0
39	-87.06269	10.57771	96.82673	38.24249	-91.94471	55.32956	-142.39225	21.15542	43.12451	8.95037	17.90074	7.32303	0
40	-72.41663	20.34175	91.94471	23.59643	-82.18067	55.32956	-147.27427	11.39138	52.88855	8.95037	17.90074	7.32303	0
41	-77.29865	20.34175	96.82673	28.47845	-87.06269	60.21158	-157.03831	11.39138	52.88855	8.95037	13.01872	12.20505	0
42	-77.29865	20.34175	96.82673	28.47845	-87.06269	60.21158	-171.68437	6.50936	48.00653	4.88202	8.95037	7.32303	0
43	-77.29865	20.34175	96.82673	28.47845	-87.06269	60.21158	-161.92033	11.39138	52.88855	0	8.95037	12.20505	0
44	-67.53461	20.34175	87.06269	23.59643	-77.29865	55.32956	-147.27427	21.15542	62.65259	8.95037	13.01872	21.96909	0
45	-67.53461	20.34175	87.06269	23.59643	-77.29865	55.32956	-152.15629	16.2734	57.77057	8.95037	8.95037	17.08707	0
46	-67.53461	15.45973	82.18067	28.47845	-72.41663	50.44754	-161.92033	6.50936	52.88855	8.95037	8.95037	17.08707	0
47	-72.41663	15.45973	87.06269	28.47845	-77.29865	50.44754	-166.80235	6.50936	48.00653	8.95037	8.95037	17.08707	0
48	-87.06269	20.34175	106.59077	33.36047	-96.82673	65.0936	-157.03831	6.50936	48.00653	8.95037	13.01872	21.96909	0
49	-91.13104	15.45973	106.59077	38.24249	-96.82673	60.21158	-152.15629	6.50936	48.00653	13.01872	17.90074	21.96909	0
50	-82.18067	20.34175	101.70875	28.47845	-91.94471	60.21158	-152.15629	11.39138	52.88855	13.01872	22.78276	26.85111	0
51	-77.29865	10.57771	87.06269	33.36047	-82.18067	50.44754	-157.03831	6.50936	52.88855	8.95037	22.78276	26.85111	0
52	-77.29865	10.57771	87.06269	33.36047	-82.18067	50.44754	-147.27427	11.39138	48.00653	8.95037	27.66478	26.85111	0
53	-77.29865	20.34175	96.82673	28.47845	-87.06269	60.21158	-132.62821	21.15542	48.00653	13.01872	32.5468	26.85111	0
54	-82.18067	25.22377	106.59077	28.47845	-91.94471	65.0936	-127.74619	21.15542	52.88855	17.90074	37.42882	26.85111	0
55	-77.29865	34.98781	111.47279	23.59643	-91.94471	74.85764	-127.74619	26.03744	57.77057	27.66478	42.31084	31.73313	0
56	-72.41663	39.86983	111.47279	13.83239	-91.94471	74.85764	-122.86417	26.03744	72.41663	37.42882	47.19286	31.73313	0
57	-67.53461	44.75185	111.47279	13.83239	-87.06269	79.73966	-117.98215	30.91946	77.29865	42.31084	47.19286	36.61515	0
58	-72.41663	44.75185	116.35481	13.83239	-91.94471	79.73966	-108.21811	40.6835	82.18067	47.19286	47.19286	46.37919	0
59	-72.41663	49.63387	121.23683	8.95037	-96.82673	84.62168	-108.21811	45.56552	77.29865	37.42882	47.19286	41.49717	0
60	-62.65259	64.27993	126.11885	-0.81367	-91.94471	94.38572	-113.10013	35.80148	72.41663	37.42882	42.31084	31.73313	0
61	-57.77057	78.92599	135.88289	-10.57771	-96.82673	109.03178	-117.98215	40.6835	77.29865	42.31084	47.19286	36.61515	0
62	-48.00653	83.80801	131.00087	-15.45973	-87.06269	109.03178	-117.98215	50.44754	82.18067	47.19286	52.07488	31.73313	0
63	-43.12451	88.69003	131.00087	-25.22377	-87.06269	109.03178	-113.10013	50.44754	91.94471	56.9569	52.07488	41.49717	0
64	-33.36047	93.57205	126.11885	-30.10579	-77.29865	109.03178	-108.21811	55.32956	106.59077	61.83892	61.83892	46.37919	0
65	-13.83239	103.33609	116.35481	-44.75185	-64.27993	109.03178	-103.33609	55.32956	111.47279	66.72094	71.60296	56.14323	0
66	-18.71441	93.57205	111.47279	-34.98781	-64.27993	104.14976	-113.10013	50.44754	111.47279	61.83892	71.60296	51.26121	0
67	-13.83239	98.45407	111.47279	-44.75185	-64.27993	104.14976	-122.86417	50.44754	106.59077	61.83892	71.60296	51.26121	0
68	-13.83239	108.21811	121.23683	-49.63387	-68.34828	113.9138	-127.74619	55.32956	106.59077	66.72094	66.72094	51.26121	0
69	-18.71441	103.33609	121.23683	-39.86983	-68.34828	113.9138	-127.74619	60.21158	111.47279	76.48498	76.48498	51.26121	0
70	-18.71441	108.21811	126.11885	-44.75185	-72.41663	118.79582	-137.51023	50.44754	116.35481	76.48498	81.367	51.26121	0
71	-28.47845	113.10013	140.76491	-39.86983	-82.18067	128.55986	-157.03831	35.80148	116.35481	61.83892	71.60296	46.37919	0
72	-23.59643	122.86417	145.64693	-49.63387	-82.18067	133.44188	-171.68437	26.03744	116.35481	61.83892	76.48498	51.26121	0
73	-13.83239	127.74619	140.76491	-59.39791	-77.29865	133.44188	-176.56639	21.15542	126.11885	66.72094	81.367	61.02525	0
74	-28.47845	117.98215	145.64693	-44.75185	-87.06269	133.44188	-186.33043	16.2734	126.11885	56.9569	81.367	70.78929	0
75	-33.36047	113.10013	145.64693	-39.86983	-87.06269	128.55986	-200.97649	6.50936	131.00087	61.83892	81.367	75.67131	0
76	-4.06835	132.62821	135.88289	-64.27993	-68.34828	133.44188	-196.09447	6.50936	135.88289	71.60296	91.13104	80.55333	0
77	25.22377	157.03831	131.00087	-93.57205	-54.51589	143.20592	-196.09447	16.2734	140.76491	81.367	100.89508	90.31737	0
78	34.98781	161.92033	126.11885	-98.45407	-44.75185	143.20592	-196.09447	16.2734	140.76491	91.13104	105.7771	95.19939	0
79	44.75185	152.15629	106.59077	-98.45407	-30.10579	128.55986	-200.97649	11.39138	135.88289	86.24902	110.65912	90.31737	0
80	49.63387	147.27427	96.82673	-98.45407	-25.22377	123.67784	-205.85851	11.39138	135.88289	86.24902	115.54114	85.43535	0
81	44.75185	137.51023	91.94471	-93.57205	-25.22377	113.9138	-215.62255	11.39138	131.00087	81.367	110.65912	80.55333	0
82	39.86983	117.98215	77.29865	-78.92599	-20.34175	99.26774	-220.50457	6.50936	126.11885	76.48498	105.7771	75.67131	0
83	30.10579	83.80801	52.88855	-54.51589	-10.57771	69.97562	-225.38659	6.50936	121.23683	66.72094	96.01306	70.78929	0
84	30.10579	69.16195	39.86983	-49.63387	-5.69569	55.32956	-230.26861	2.44101	111.47279	56.9569	86.24902	65.90727	0
85	34.98781	59.39791	25.22377	-49.63387	4.06835	40.6835	-249.79669	2.44101	111.47279	52.07488	81.367	65.90727	0
86	34.98781	59.39791	25.22377	-49.63387	4.06835	40.6835	-254.67871	-1.62734	106.59077	52.07488	81.367	65.90727	0
87	34.98781	54.51589	20.34175	-44.75185	8.95037	35.80148	-259.56073	-6.50936	96.82673	42.31084	81.367	61.02525	0
88	20.34175	34.98781	15.45973	-25.22377	4.06835	26.03744	-254.67871	-16.2734	82.18067	37.42882	76.48498	61.02525	0
89	15.45973	25.22377	10.57771	-20.34175	4.06835	16.2734	-249.79669	-21.15542	77.29865	37.42882	76.48498	61.02525	0
90	15.45973	20.34175	5.69569	-20.34175	4.06835	11.39138	-259.56073	-21.15542	72.41663	32.5468	66.72094	56.14323	0
91	30.10579	20.34175	-8.95037	-25.22377	18.71441	6.50936	-259.56073	-26.03744	77.29865	27.66478	66.72094	56.14323	0
92	34.98781	10.57771	-23.59643	-25.22377	28.47845	-6.50936	-259.56073	-26.03744	72.41663	17.90074	56.9569	41.49717	0
93	30.10579	5.69569	-23.59643	-15.45973	28.47845	-6.50936	-254.67871	-26.03744	72.41663	8.95037	52.07488	31.73313	0
94	25.22377	0.81367	-23.59643	-15.45973	23.59643	-11.39138	-264.44275	-40.6835	57.77057	4.88202	37.42882	21.96909	0
95	15.45973	-8.95037	-23.59643	-5.69569	18.71441	-16.2734	-259.56073	-45.56552	57.77057	4.88202	37.42882	17.08707	0
96	15.45973	-13.83239	-28.47845	-0.81367	23.59643	-21.15542	-259.56073	-45.56552	52.88855	4.88202	32.5468	12.20505	0
97	25.22377	-4.06835	-28.47845	-10.57771	28.47845	-16.2734	-249.79669	-30.91946	62.65259	8.95037	32.5468	21.96909	0
98	15.45973	-18.71441	-33.36047	-0.81367	23.59643	-26.03744	-235.15063	-21.15542	67.53461	13.01872	27.66478	21.96909	0
99	10.57771	-23.59643	-33.36047	8.95037	23.59643	-26.03744	-230.26861	-16.2734	62.65259	13.01872	22.78276	12.20505	0
100	-4.06835	-18.71441	-13.83239	8.95037	4.06835	-16.2734	-230.26861	-21.15542	57.77057	8.95037	17.90074	7.32303	1000	P+0
101	-23.59643	-28.47845	-4.06835	23.59643	-10.57771	-16.2734	-225.38659	-21.15542	57.77057	8.95037	22.78276	3.25468	0
102	-43.12451	-56.14323	-13.83239	48.00653	-15.45973	-35.80148	-230.26861	-26.03744	57.77057	4.88202	17.90074	3.25468	0
103	-52.88855	-65.90727	-13.83239	57.77057	-20.34175	-40.6835	-215.62255	-16.2734	57.77057	0	13.01872	3.25468	0
104	-57.77057	-75.67131	-18.71441	66.72094	-20.34175	-45.56552	-215.62255	-11.39138	57.77057	0	8.95037	-0.81367	0
105	-48.00653	-70.78929	-23.59643	57.77057	-15.45973	-45.56552	-215.62255	-16.2734	52.88855	0	13.01872	3.25468	0
106	-48.00653	-70.78929	-23.59643	57.77057	-15.45973	-45.56552	-225.38659	-26.03744	48.00653	-4.88202	8.95037	-0.81367	0
107	-62.65259	-80.55333	-18.71441	66.72094	-25.22377	-50.44754	-225.38659	-30.91946	43.12451	-4.88202	8.95037	-5.69569	0
108	-67.53461	-85.43535	-18.71441	75.67131	-25.22377	-50.44754	-225.38659	-30.91946	38.24249	-9.76404	4.88202	-10.57771	0
109	-72.41663	-90.31737	-18.71441	75.67131	-30.10579	-55.32956	-220.50457	-30.91946	33.36047	-14.64606	-4.88202	-20.34175	0
110	-62.65259	-80.55333	-18.71441	66.72094	-25.22377	-50.44754	-210.74053	-26.03744	43.12451	-9.76404	4.88202	-20.34175	0
111	-72.41663	-85.43535	-13.83239	75.67131	-30.10579	-50.44754	-215.62255	-30.91946	38.24249	-9.76404	0	-20.34175	0
112	-62.65259	-70.78929	-8.95037	62.65259	-30.10579	-40.6835	-215.62255	-26.03744	43.12451	-4.88202	4.88202	-20.34175	0
113	-52.88855	-70.78929	-18.71441	57.77057	-20.34175	-45.56552	-210.74053	-21.15542	43.12451	-4.88202	4.88202	-20.34175	0
114	-48.00653	-70.78929	-23.59643	57.77057	-15.45973	-45.56552	-205.85851	-26.03744	38.24249	-9.76404	8.95037	-20.34175	0
115	-38.24249	-70.78929	-33.36047	52.88855	-5.69569	-50.44754	-210.74053	-26.03744	38.24249	-9.76404	8.95037	-15.45973	0
116	-43.12451	-80.55333	-38.24249	57.77057	-5.69569	-60.21158	-215.62255	-26.03744	28.47845	-9.76404	8.95037	-15.45973	0
117	-52.88855	-85.43535	-33.36047	66.72094	-10.57771	-60.21158	-215.62255	-26.03744	28.47845	-9.76404	0	-20.34175	0
118	-48.00653	-85.43535	-38.24249	66.72094	-5.69569	-60.21158	-215.62255	-26.03744	28.47845	-9.76404	-4.88202	-25.22377	0
119	-57.77057	-90.31737	-33.36047	70.78929	-15.45973	-60.21158	-215.62255	-26.03744	28.47845	-4.88202	-4.88202	-25.22377	0
120	-67.53461	-90.31737	-23.59643	75.67131	-25.22377	-55.32956	-220.50457	-26.03744	28.47845	-4.88202	-4.88202	-25.22377	0
121	-77.29865	-95.19939	-18.71441	85.43535	-30.10579	-55.32956	-230.26861	-30.91946	13.83239	-9.76404	-9.76404	-20.34175	0
122	-72.41663	-90.31737	-18.71441	75.67131	-30.10579	-55.32956	-220.50457	-30.91946	18.71441	-14.64606	-9.76404	-15.45973	0
123	-67.53461	-95.19939	-28.47845	80.55333	-20.34175	-60.21158	-215.62255	-30.91946	18.71441	-19.52808	-9.76404	-20.34175	0
124	-67.53461	-90.31737	-23.59643	75.67131	-25.22377	-55.32956	-220.50457	-35.80148	18.71441	-19.52808	-9.76404	-25.22377	0
125	-62.65259	-70.78929	-8.95037	62.65259	-30.10579	-40.6835	-220.50457	-21.15542	28.47845	-9.76404	0	-15.45973	0
126	-48.00653	-61.02525	-13.83239	52.88855	-20.34175	-35.80148	-225.38659	-21.15542	33.36047	-9.76404	4.88202	-15.45973	0
127	-48.00653	-75.67131	-28.47845	62.65259	-10.57771	-50.44754	-220.50457	-26.03744	28.47845	-9.76404	4.88202	-15.45973	0
128	-52.88855	-80.55333	-28.47845	62.65259	-15.45973	-55.32956	-205.85851	-26.03744	28.47845	-9.76404	0	-15.45973	0
129	-62.65259	-95.19939	-33.36047	75.67131	-15.45973	-65.0936	-200.97649	-26.03744	18.71441	-9.76404	0	-15.45973	0
130	-72.41663	-104.96343	-33.36047	85.43535	-20.34175	-69.97562	-210.74053	-30.91946	13.83239	-9.76404	-4.88202	-15.45973	0
131	-67.53461	-100.08141	-33.36047	80.55333	-20.34175	-65.0936	-215.62255	-26.03744	18.71441	-14.64606	-4.88202	-15.45973	0
132	-67.53461	-100.08141	-33.36047	80.55333	-20.34175	-65.0936	-225.38659	-26.03744	18.71441	-14.64606	-4.88202	-20.34175	0
133	-67.53461	-100.08141	-33.36047	80.55333	-20.34175	-65.0936	-215.62255	-30.91946	18.71441	-19.52808	-4.88202	-20.34175	0
134	-62.65259	-100.08141	-38.24249	75.67131	-15.45973	-69.97562	-220.50457	-30.91946	28.47845	-24.4101	-4.88202	-20.34175	0
135	-52.88855	-95.19939	-43.12451	70.78929	-5.69569	-69.97562	-225.38659	-30.91946	33.36047	-19.52808	4.88202	-20.34175	0
136	-52.88855	-95.19939	-43.12451	70.78929	-5.69569	-69.97562	-230.26861	-35.80148	33.36047	-14.64606	4.88202	-20.34175	0
137	-62.65259	-85.43535	-23.59643	70.78929	-20.34175	-55.32956	-225.38659	-26.03744	33.36047	-14.64606	0	-20.34175	0
138	-62.65259	-75.67131	-13.83239	66.72094	-25.22377	-45.56552	-205.85851	-16.2734	28.47845	-9.76404	0	-20.34175	0
139	-57.77057	-70.78929	-13.83239	62.65259	-25.22377	-40.6835	-205.85851	-16.2734	23.59643	-9.76404	-4.88202	-25.22377	0
140	-67.53461	-90.31737	-23.59643	75.67131	-25.22377	-55.32956	-220.50457	-26.03744	18.71441	-14.64606	-9.76404	-30.10579	0
141	-87.06269	-109.84545	-23.59643	95.19939	-34.98781	-65.0936	-230.26861	-30.91946	13.83239	-19.52808	-4.88202	-25.22377	0
142	-91.13104	-109.84545	-18.71441	95.19939	-39.86983	-65.0936	-220.50457	-21.15542	23.59643	-19.52808	0	-25.22377	0
143	-87.06269	-100.08141	-13.83239	90.31737	-39.86983	-55.32956	-210.74053	-16.2734	23.59643	-19.52808	0	-25.22377	0
144	-82.18067	-95.19939	-13.83239	85.43535	-34.98781	-55.32956	-205.85851	-16.2734	28.47845	-19.52808	4.88202	-25.22377	0
145	-72.41663	-90.31737	-18.71441	75.67131	-30.10579	-55.32956	-205.85851	-16.2734	33.36047	-14.64606	4.88202	-25.22377	0
146	-62.65259	-80.55333	-18.71441	66.72094	-25.22377	-50.44754	-200.97649	-11.39138	38.24249	-4.88202	8.95037	-20.34175	0
147	-72.41663	-80.55333	-8.95037	70.78929	-34.98781	-45.56552	-200.97649	-11.39138	33.36047	-9.76404	0	-25.22377	0
148	-95.19939	-75.67131	20.34175	80.55333	-59.39791	-30.91946	-200.97649	-11.39138	28.47845	-14.64606	-9.76404	-25.22377	0
149	-124.49151	-65.90727	57.77057	90.31737	-91.94471	-6.50936	-186.33043	-11.39138	28.47845	-24.4101	-9.76404	-25.22377	0
150	-134.25555	-56.14323	77.29865	90.31737	-106.59077	6.50936	-171.68437	-21.15542	23.59643	-29.29212	-9.76404	-20.34175	0
151	-124.49151	-33.36047	91.94471	75.67131	-106.59077	26.03744	-176.56639	-40.6835	4.06835	-39.05616	-14.64606	-20.34175	0
152	-124.49151	-28.47845	96.82673	70.78929	-111.47279	30.91946	-186.33043	-65.0936	-8.95037	-39.05616	-4.88202	-5.69569	0
153	-124.49151	-43.12451	82.18067	80.55333	-101.70875	16.2734	-196.09447	-94.38572	-43.12451	-58.58424	-4.88202	3.25468	0
154	-124.49151	-61.02525	62.65259	85.43535	-96.82673	-2.44101	-191.21245	-113.9138	-72.41663	-73.2303	-4.88202	3.25468	0
155	-134.25555	-90.31737	43.93818	104.96343	-91.94471	-26.03744	-196.09447	-143.20592	-111.47279	-97.6404	-9.76404	3.25468	0
156	-148.90161	-119.60949	30.10579	129.37353	-91.94471	-45.56552	-196.09447	-182.26208	-145.64693	-126.93252	-14.64606	3.25468	0
157	-139.13757	-148.90161	-8.95037	139.13757	-68.34828	-79.73966	-210.74053	-245.72834	-209.11319	-146.4606	0	17.08707	0
158	-109.84545	-173.31171	-62.65259	139.13757	-25.22377	-118.79582	-269.32477	-377.54288	-326.28167	-195.2808	8.95037	46.37919	0
159	-72.41663	-212.36787	-140.76491	139.13757	33.36047	-177.38006	-376.72921	-577.7057	-492.27035	-283.15716	0	41.49717	0
160	-23.59643	-251.42403	-228.64127	134.25555	101.70875	-240.84632	-508.54375	-787.63256	-663.14105	-356.38746	-4.88202	51.26121	0
161	49.63387	-266.07009	-316.51763	104.96343	179.82107	-289.66652	-659.88637	-992.6774	-824.24771	-414.9717	8.95037	80.55333	0
162	137.51023	-266.07009	-404.39399	62.65259	267.69743	-333.6047	-835.63909	-1197.72224	-975.59033	-454.02786	32.5468	134.25555	0
163	249.79669	-246.54201	-497.15237	-5.69569	370.21985	-372.66086	-1055.32999	-1446.70526	-1180.63517	-512.6121	56.9569	187.95777	0
164	376.72921	-227.01393	-604.55681	-78.92599	487.38833	-416.59904	-1284.78493	-1695.68828	-1375.91597	-576.07836	71.60296	231.89595	0
165	518.30779	-227.01393	-746.13539	-147.27427	628.96691	-484.94732	-1528.88593	-1905.61514	-1561.43273	-649.30866	61.83892	261.18807	0
166	669.65041	-222.13191	-892.59599	-225.38659	780.30953	-558.17762	-1738.81279	-2085.43621	-1732.30343	-737.18502	32.5468	266.07009	0
167	816.11101	-241.65999	-1058.58467	-288.85285	936.53417	-650.936	-1934.09359	-2266.07095	-1912.93817	-854.3535	-14.64606	251.42403	0
168	947.92555	-285.59817	-1234.33739	-332.79103	1087.87679	-758.34044	-2128.56072	-2427.17761	-2082.9952	-995.93208	-107.40444	187.95777	0
169	1040.68393	-363.71049	-1405.20809	-342.55507	1219.69133	-885.27296	-2260.37526	-2524.81801	-2190.39964	-1127.74662	-244.101	70.78929	0
170	1109.03221	-485.76099	-1595.60687	-313.26295	1351.50587	-1041.4976	-2333.60556	-2549.22811	-2224.57378	-1254.67914	-439.3818	-108.21811	0
171	1123.67827	-632.22159	-1756.71353	-244.91467	1439.38223	-1192.84022	-2338.48758	-2510.17195	-2190.39964	-1332.79146	-624.89856	-288.85285	0
172	1084.62211	-812.85633	-1898.29211	-137.51023	1488.20243	-1353.94688	-2299.43142	-2446.70569	-2131.8154	-1396.25772	-795.76926	-459.72355	0
173	1006.50979	-905.61471	-1912.93817	-49.63387	1458.91031	-1407.6491	-2211.55506	-2329.53721	-2014.64692	-1386.49368	-878.7636	-552.48193	0
174	908.86939	-905.61471	-1815.29777	-0.81367	1361.26991	-1358.8289	-2065.09446	-2163.54853	-1873.88201	-1327.90944	-893.40966	-586.65607	0
175	796.58293	-861.67653	-1659.07313	28.47845	1224.57335	-1261.1885	-1890.15541	-1964.19938	-1707.89333	-1259.56116	-893.40966	-596.42011	0
176	640.35829	-773.80017	-1414.97213	62.65259	1024.41053	-1095.19982	-1650.93643	-1705.45232	-1483.32041	-1152.15672	-859.23552	-596.42011	0
177	474.36961	-656.63169	-1131.81497	85.43535	799.83761	-895.037	-1406.83543	-1446.70526	-1278.27557	-1054.51632	-820.17936	-581.77405	0
178	308.38093	-500.40705	-809.60165	90.31737	555.73661	-655.81802	-1157.85241	-1197.72224	-1087.87679	-951.9939	-746.94906	-532.95385	0
179	186.33043	-329.53635	-516.68045	70.78929	350.69177	-421.48106	-938.16151	-973.14932	-877.94993	-790.88724	-615.13452	-435.31345	0
180	113.10013	-183.07575	-296.98955	33.36047	204.23117	-240.84632	-772.17283	-792.51458	-677.78711	-624.89856	-473.55594	-332.79103	0
181	78.92599	-75.67131	-155.41097	-0.81367	116.35481	-113.9138	-650.12233	-641.17196	-506.91641	-483.31998	-356.38746	-244.91467	0
182	39.86983	-13.83239	-52.88855	-10.57771	48.00653	-30.91946	-552.48193	-509.35742	-360.45581	-375.91554	-268.5111	-171.68437	0
183	5.69569	20.34175	15.45973	-15.45973	-5.69569	16.2734	-479.25163	-387.30692	-253.05137	-302.68524	-219.6909	-127.74619	0
184	-23.59643	30.10579	52.88855	-5.69569	-39.86983	40.6835	-420.66739	-284.7845	-155.41097	-239.21898	-185.51676	-108.21811	0
185	-57.77057	0.81367	57.77057	28.47845	-59.39791	30.91946	-366.96517	-182.26208	-77.29865	-185.51676	-156.22464	-103.33609	0
186	-82.18067	-18.71441	62.65259	48.00653	-72.41663	21.15542	-308.38093	-94.38572	-13.83239	-126.93252	-126.93252	-108.21811	0
187	-100.08141	-43.12451	57.77057	70.78929	-77.29865	6.50936	-254.67871	-21.15542	38.24249	-63.46626	-97.6404	-103.33609	0
188	-100.08141	-47.19286	52.88855	70.78929	-77.29865	1.62734	-205.85851	30.91946	101.70875	4.88202	-58.58424	-88.69003	0
189	-91.13104	-51.26121	39.86983	66.72094	-68.34828	-6.50936	-157.03831	84.62168	160.29299	66.72094	-14.64606	-69.16195	0
190	-82.18067	-47.19286	34.98781	62.65259	-59.39791	-6.50936	-127.74619	113.9138	199.34915	105.7771	8.95037	-54.51589	0
191	-72.41663	-38.24249	34.98781	52.88855	-54.51589	-2.44101	-117.98215	128.55986	218.87723	110.65912	13.01872	-44.75185	0
192	-77.29865	-28.47845	48.00653	52.88855	-64.27993	11.39138	-103.33609	138.3239	228.64127	96.01306	13.01872	-30.10579	0
193	-87.06269	-33.36047	52.88855	62.65259	-68.34828	11.39138	-108.21811	148.08794	223.75925	76.48498	8.95037	-30.10579	0
194	-77.29865	-28.47845	48.00653	52.88855	-64.27993	11.39138	-108.21811	162.734	223.75925	61.83892	8.95037	-30.10579	0
195	-87.06269	-38.24249	48.00653	62.65259	-68.34828	6.50936	-108.21811	172.49804	228.64127	56.9569	8.95037	-25.22377	0
196	-100.08141	-47.19286	52.88855	70.78929	-77.29865	1.62734	-103.33609	187.1441	233.52329	61.83892	8.95037	-25.22377	0
197	-119.60949	-47.19286	72.41663	80.55333	-96.82673	11.39138	-88.69003	196.90814	238.40531	81.367	8.95037	-25.22377	0
198	-119.60949	-47.19286	72.41663	80.55333	-96.82673	11.39138	-74.04397	211.5542	257.93339	105.7771	22.78276	-25.22377	0
199	-119.60949	-61.02525	57.77057	85.43535	-91.94471	-2.44101	-64.27993	221.31824	267.69743	115.54114	27.66478	-30.10579	0
200	-109.84545	-56.14323	52.88855	80.55333	-82.18067	-2.44101	-54.51589	221.31824	277.46147	120.42316	32.5468	-30.10579	0
201	-104.96343	-43.12451	62.65259	70.78929	-82.18067	6.50936	-54.51589	231.08228	287.22551	125.30518	37.42882	-25.22377	0
202	-104.96343	-43.12451	62.65259	70.78929	-82.18067	6.50936	-54.51589	235.9643	292.10753	120.42316	37.42882	-25.22377	0
203	-109.84545	-38.24249	72.41663	70.78929	-91.94471	16.2734	-49.63387	245.72834	287.22551	115.54114	37.42882	-20.34175	0
204	-104.96343	-38.24249	67.53461	66.72094	-87.06269	11.39138	-49.63387	245.72834	282.34349	105.7771	27.66478	-20.34175	0
205	-104.96343	-38.24249	67.53461	66.72094	-87.06269	11.39138	-54.51589	245.72834	282.34349	105.7771	32.5468	-15.45973	0
206	-109.84545	-47.19286	62.65259	75.67131	-87.06269	6.50936	-59.39791	250.61036	282.34349	110.65912	32.5468	-15.45973	0
207	-104.96343	-56.14323	48.00653	75.67131	-77.29865	-6.50936	-54.51589	250.61036	287.22551	125.30518	32.5468	-20.34175	0
208	-95.19939	-47.19286	48.00653	66.72094	-72.41663	-2.44101	-44.75185	260.3744	292.10753	130.1872	32.5468	-20.34175	0
209	-95.19939	-38.24249	57.77057	62.65259	-77.29865	6.50936	-34.98781	265.25642	301.87157	144.83326	42.31084	-20.34175	0
210	-91.13104	-28.47845	62.65259	57.77057	-77.29865	16.2734	-30.10579	265.25642	306.75359	144.83326	47.19286	-20.34175	0
211	-82.18067	-18.71441	62.65259	48.00653	-72.41663	21.15542	-30.10579	265.25642	311.63561	139.95124	47.19286	-20.34175	0
212	-82.18067	-13.83239	67.53461	48.00653	-72.41663	26.03744	-25.22377	275.02046	316.51763	139.95124	52.07488	-15.45973	0
213	-91.13104	-23.59643	67.53461	57.77057	-77.29865	21.15542	-11.39138	279.90248	316.51763	139.95124	56.9569	-10.57771	0
214	-95.19939	-28.47845	67.53461	57.77057	-82.18067	16.2734	-7.32303	284.7845	316.51763	139.95124	56.9569	-10.57771	0
215	-95.19939	-28.47845	67.53461	57.77057	-82.18067	16.2734	-7.32303	279.90248	311.63561	139.95124	56.9569	-15.45973	0
216	-91.13104	-23.59643	67.53461	57.77057	-77.29865	21.15542	-2.44101	279.90248	316.51763	139.95124	56.9569	-15.45973	0
217	-91.13104	-23.59643	67.53461	57.77057	-77.29865	21.15542	-2.44101	279.90248	316.51763	139.95124	56.9569	-15.45973	0
218	-87.06269	-18.71441	67.53461	52.88855	-77.29865	26.03744	-7.32303	279.90248	316.51763	144.83326	52.07488	-10.57771	0
219	-87.06269	-18.71441	67.53461	52.88855	-77.29865	26.03744	-11.39138	284.7845	321.39965	154.5973	52.07488	-10.57771	0
220	-91.13104	-23.59643	67.53461	57.77057	-77.29865	21.15542	-7.32303	284.7845	331.16369	159.47932	56.9569	-5.69569	0
221	-95.19939	-23.59643	72.41663	57.77057	-82.18067	21.15542	-7.32303	294.54854	340.92773	169.24336	61.83892	-0.81367	0
222	-95.19939	-23.59643	72.41663	57.77057	-82.18067	21.15542	-7.32303	299.43056	340.92773	169.24336	66.72094	-0.81367	0
223	-87.06269	-18.71441	67.53461	52.88855	-77.29865	26.03744	2.44101	309.1946	350.69177	179.0074	71.60296	-0.81367	0
224	-95.19939	-23.59643	72.41663	57.77057	-82.18067	21.15542	-2.44101	314.07662	355.57379	183.88942	66.72094	-5.69569	0
225	-100.08141	-23.59643	77.29865	62.65259	-87.06269	26.03744	-2.44101	318.95864	355.57379	183.88942	71.60296	-5.69569	0
226	-100.08141	-13.83239	87.06269	57.77057	-91.94471	35.80148	2.44101	328.72268	360.45581	188.77144	76.48498	-0.81367	0
227	-95.19939	-4.06835	91.94471	48.00653	-91.94471	40.6835	2.44101	328.72268	365.33783	183.88942	71.60296	3.25468	0
228	-91.13104	0.81367	91.94471	43.12451	-91.94471	45.56552	12.20505	333.6047	370.21985	193.65346	76.48498	3.25468	0
229	-91.13104	0.81367	91.94471	43.12451	-91.94471	45.56552	12.20505	343.36874	375.10187	198.53548	86.24902	7.32303	0
230	-91.13104	5.69569	96.82673	43.12451	-91.94471	50.44754	12.20505	348.25076	379.98389	203.4175	86.24902	3.25468	0
231	-91.13104	5.69569	96.82673	43.12451	-91.94471	50.44754	12.20505	353.13278	389.74793	203.4175	86.24902	3.25468	0
232	-91.13104	5.69569	96.82673	43.12451	-91.94471	50.44754	21.96909	362.89682	399.51197	203.4175	91.13104	3.25468	0
233	-95.19939	5.69569	101.70875	43.12451	-96.82673	50.44754	26.85111	377.54288	404.39399	203.4175	91.13104	3.25468	0
234	-91.13104	0.81367	91.94471	43.12451	-91.94471	45.56552	26.85111	387.30692	414.15803	208.29952	91.13104	3.25468	0
235	-91.13104	0.81367	91.94471	43.12451	-91.94471	45.56552	26.85111	392.18894	423.92207	218.06356	100.89508	3.25468	0
236	-91.13104	5.69569	96.82673	43.12451	-91.94471	50.44754	36.61515	401.95298	428.80409	222.94558	100.89508	7.32303	0
237	-100.08141	5.69569	106.59077	48.00653	-101.70875	55.32956	51.26121	411.71702	433.68611	222.94558	96.01306	12.20505	0
238	-109.84545	-4.06835	106.59077	57.77057	-106.59077	50.44754	56.14323	416.59904	438.56813	218.06356	91.13104	7.32303	0
239	-104.96343	-4.06835	101.70875	52.88855	-101.70875	45.56552	56.14323	431.2451	453.21419	222.94558	100.89508	17.08707	0
240	-100.08141	-4.06835	96.82673	52.88855	-96.82673	45.56552	51.26121	436.12712	458.09621	222.94558	105.7771	21.96909	0
241	-100.08141	0.81367	101.70875	48.00653	-101.70875	50.44754	56.14323	445.89116	462.97823	232.70962	110.65912	31.73313	0
242	-100.08141	0.81367	101.70875	48.00653	-101.70875	50.44754	61.02525	445.89116	462.97823	227.8276	105.7771	26.85111	0
243	-100.08141	10.57771	111.47279	43.12451	-106.59077	60.21158	75.67131	460.53722	467.86025	232.70962	105.7771	26.85111	0
244	-95.19939	20.34175	116.35481	33.36047	-106.59077	65.0936	80.55333	470.30126	477.62429	237.59164	110.65912	21.96909	0
245	-91.13104	30.10579	121.23683	28.47845	-106.59077	74.85764	85.43535	480.0653	487.38833	247.35568	115.54114	21.96909	0
246	-91.13104	34.98781	126.11885	28.47845	-106.59077	79.73966	75.67131	484.94732	492.27035	247.35568	110.65912	21.96909	0
247	-91.13104	30.10579	121.23683	28.47845	-106.59077	74.85764	80.55333	489.82934	492.27035	247.35568	110.65912	21.96909	0
248	-91.13104	25.22377	116.35481	33.36047	-101.70875	69.97562	95.19939	499.59338	497.15237	252.2377	110.65912	21.96909	0
249	-95.19939	20.34175	116.35481	33.36047	-106.59077	65.0936	109.84545	509.35742	511.79843	257.11972	120.42316	26.85111	0
250	-100.08141	34.98781	135.88289	33.36047	-116.35481	84.62168	109.84545	519.12146	516.68045	262.00174	130.1872	31.73313	0
251	-91.13104	54.51589	145.64693	18.71441	-116.35481	99.26774	114.72747	533.76752	526.44449	266.88376	135.06922	31.73313	0
252	-87.06269	59.39791	145.64693	13.83239	-116.35481	104.14976	114.72747	543.53156	531.32651	266.88376	135.06922	26.85111	0
253	-87.06269	69.16195	155.41097	8.95037	-121.23683	113.9138	119.60949	558.17762	541.09055	266.88376	135.06922	21.96909	0
254	-91.13104	59.39791	150.52895	13.83239	-121.23683	104.14976	124.49151	567.94166	550.85459	271.76578	130.1872	17.08707	0
255	-82.18067	64.27993	145.64693	8.95037	-111.47279	104.14976	129.37353	577.7057	565.50065	281.52982	139.95124	26.85111	0
256	-77.29865	59.39791	135.88289	8.95037	-106.59077	99.26774	129.37353	582.58772	570.38267	281.52982	139.95124	31.73313	0
257	-67.53461	69.16195	135.88289	-0.81367	-101.70875	104.14976	124.49151	587.46974	575.26469	276.6478	139.95124	41.49717	0
258	-72.41663	74.04397	145.64693	-0.81367	-106.59077	109.03178	129.37353	592.35176	575.26469	271.76578	139.95124	46.37919	0
259	-82.18067	69.16195	150.52895	4.06835	-116.35481	109.03178	134.25555	592.35176	575.26469	271.76578	144.83326	46.37919	0
260	-72.41663	78.92599	150.52895	-5.69569	-111.47279	113.9138	139.13757	592.35176	575.26469	271.76578	149.71528	46.37919	0
261	-57.77057	103.33609	160.29299	-20.34175	-106.59077	133.44188	139.13757	592.35176	570.38267	271.76578	149.71528	46.37919	0
262	-57.77057	113.10013	170.05703	-25.22377	-111.47279	143.20592	139.13757	592.35176	570.38267	276.6478	144.83326	46.37919	0
263	-62.65259	117.98215	179.82107	-30.10579	-121.23683	148.08794	139.13757	597.23378	575.26469	276.6478	139.95124	51.26121	0
264	-57.77057	122.86417	179.82107	-30.10579	-116.35481	152.96996	134.25555	597.23378	575.26469	276.6478	135.06922	56.14323	0
265	-52.88855	132.62821	184.70309	-39.86983	-116.35481	157.85198	129.37353	592.35176	575.26469	276.6478	135.06922	61.02525	0
266	-67.53461	117.98215	184.70309	-25.22377	-126.11885	152.96996	129.37353	587.46974	565.50065	266.88376	135.06922	70.78929	0
267	-62.65259	117.98215	179.82107	-30.10579	-121.23683	148.08794	119.60949	582.58772	555.73661	252.2377	135.06922	70.78929	0
268	-57.77057	122.86417	179.82107	-30.10579	-116.35481	152.96996	114.72747	577.7057	541.09055	252.2377	139.95124	70.78929	0
269	-52.88855	127.74619	179.82107	-39.86983	-116.35481	152.96996	119.60949	567.94166	536.20853	242.47366	144.83326	80.55333	0
270	-38.24249	142.39225	179.82107	-49.63387	-106.59077	162.734	114.72747	548.41358	521.56247	232.70962	139.95124	85.43535	0
271	-28.47845	152.15629	179.82107	-59.39791	-101.70875	167.61602	104.96343	533.76752	511.79843	222.94558	139.95124	90.31737	0
272	-23.59643	157.03831	179.82107	-69.16195	-101.70875	167.61602	109.84545	524.00348	506.91641	213.18154	144.83326	100.08141	0
273	-23.59643	152.15629	174.93905	-64.27993	-96.82673	162.734	109.84545	514.23944	492.27035	198.53548	139.95124	100.08141	0
274	-13.83239	157.03831	170.05703	-74.04397	-91.94471	162.734	100.08141	494.71136	477.62429	179.0074	130.1872	95.19939	0
275	-13.83239	166.80235	179.82107	-78.92599	-96.82673	172.49804	85.43535	475.18328	462.97823	179.0074	135.06922	95.19939	0
276	-18.71441	171.68437	189.58511	-74.04397	-101.70875	182.26208	70.78929	450.77318	448.33217	174.12538	139.95124	100.08141	0
277	-4.06835	181.44841	184.70309	-88.69003	-91.94471	182.26208	65.90727	436.12712	428.80409	164.36134	139.95124	104.96343	0
278	-4.06835	176.56639	179.82107	-88.69003	-91.94471	177.38006	61.02525	416.59904	414.15803	154.5973	139.95124	109.84545	0
279	-4.06835	171.68437	174.93905	-83.80801	-87.06269	172.49804	51.26121	401.95298	394.62995	139.95124	135.06922	114.72747	0
280	-8.95037	166.80235	174.93905	-78.92599	-91.94471	172.49804	41.49717	387.30692	379.98389	130.1872	130.1872	119.60949	0
281	-4.06835	171.68437	174.93905	-83.80801	-87.06269	172.49804	26.85111	358.0148	355.57379	110.65912	125.30518	119.60949	0
282	15.45973	181.44841	165.17501	-98.45407	-72.41663	172.49804	21.96909	338.48672	340.92773	96.01306	125.30518	134.25555	0
283	25.22377	181.44841	155.41097	-103.33609	-64.27993	167.61602	26.85111	323.84066	326.28167	86.24902	125.30518	144.01959	0
284	30.10579	181.44841	150.52895	-103.33609	-59.39791	167.61602	12.20505	294.54854	301.87157	71.60296	120.42316	144.01959	0
285	34.98781	181.44841	145.64693	-108.21811	-54.51589	162.734	-2.44101	270.13844	282.34349	61.83892	110.65912	134.25555	0
286	34.98781	181.44841	145.64693	-108.21811	-54.51589	162.734	-11.39138	245.72834	262.81541	52.07488	105.7771	129.37353	0
287	39.86983	181.44841	140.76491	-108.21811	-49.63387	162.734	-25.22377	226.20026	243.28733	37.42882	100.89508	129.37353	0
288	44.75185	181.44841	135.88289	-113.10013	-44.75185	157.85198	-25.22377	211.5542	223.75925	22.78276	100.89508	124.49151	0
289	44.75185	176.56639	131.00087	-113.10013	-44.75185	152.96996	-34.98781	196.90814	204.23117	17.90074	96.01306	119.60949	0
290	49.63387	176.56639	126.11885	-113.10013	-39.86983	152.96996	-39.86983	182.26208	184.70309	8.95037	91.13104	109.84545	0
291	54.51589	176.56639	121.23683	-117.98215	-34.98781	148.08794	-49.63387	162.734	170.05703	8.95037	81.367	109.84545	0
292	34.98781	161.92033	126.11885	-98.45407	-44.75185	143.20592	-59.39791	143.20592	150.52895	0	71.60296	104.96343	0
293	30.10579	147.27427	116.35481	-88.69003	-44.75185	133.44188	-49.63387	123.67784	131.00087	-9.76404	56.9569	100.08141	0
294	30.10579	132.62821	101.70875	-78.92599	-34.98781	118.79582	-34.98781	104.14976	116.35481	-19.52808	52.07488	95.19939	0
295	34.98781	137.51023	101.70875	-88.69003	-34.98781	118.79582	-44.75185	89.5037	106.59077	-24.4101	47.19286	85.43535	0
296	34.98781	132.62821	96.82673	-83.80801	-30.10579	113.9138	-59.39791	74.85764	96.82673	-29.29212	42.31084	80.55333	0
297	34.98781	132.62821	96.82673	-83.80801	-30.10579	113.9138	-69.16195	74.85764	91.94471	-39.05616	42.31084	70.78929	0
298	30.10579	122.86417	91.94471	-74.04397	-30.10579	109.03178	-64.27993	69.97562	87.06269	-39.05616	47.19286	65.90727	0
299	20.34175	108.21811	87.06269	-64.27993	-34.98781	99.26774	-64.27993	65.0936	82.18067	-43.93818	47.19286	70.78929	0
300	30.10579	108.21811	77.29865	-69.16195	-25.22377	94.38572	-69.16195	55.32956	72.41663	-48.8202	42.31084	70.78929	0
301	34.98781	103.33609	67.53461	-69.16195	-15.45973	84.62168	-64.27993	50.44754	67.53461	-48.8202	32.5468	65.90727	0
302	30.10579	93.57205	62.65259	-59.39791	-15.45973	79.73966	-64.27993	45.56552	57.77057	-48.8202	32.5468	65.90727	0
303	25.22377	83.80801	57.77057	-54.51589	-15.45973	69.97562	-64.27993	40.6835	48.00653	-53.70222	27.66478	61.02525	0
304	10.57771	64.27993	52.88855	-34.98781	-20.34175	60.21158	-54.51589	35.80148	43.12451	-48.8202	27.66478	56.14323	1500	QRS+0
305	5.69569	54.51589	48.00653	-30.10579	-20.34175	50.44754	-59.39791	26.03744	38.24249	-53.70222	27.66478	41.49717	0
306	10.57771	59.39791	48.00653	-34.98781	-20.34175	55.32956	-59.39791	16.2734	28.47845	-58.58424	22.78276	31.73313	0
307	-4.06835	54.51589	57.77057	-25.22377	-30.10579	55.32956	-64.27993	2.44101	13.83239	-73.2303	8.95037	17.08707	0
308	-8.95037	54.51589	62.65259	-20.34175	-34.98781	60.21158	-54.51589	2.44101	18.71441	-73.2303	8.95037	12.20505	0
309	5.69569	54.51589	48.00653	-30.10579	-20.34175	50.44754	-49.63387	6.50936	23.59643	-63.46626	8.95037	12.20505	0
310	15.45973	49.63387	34.98781	-34.98781	-10.57771	40.6835	-44.75185	6.50936	28.47845	-58.58424	13.01872	12.20505	0
311	-4.06835	25.22377	30.10579	-10.57771	-15.45973	26.03744	-44.75185	6.50936	28.47845	-68.34828	8.95037	12.20505	0
312	-13.83239	20.34175	34.98781	-5.69569	-25.22377	26.03744	-34.98781	11.39138	28.47845	-73.2303	8.95037	12.20505	0
313	-13.83239	30.10579	43.93818	-10.57771	-30.10579	35.80148	-20.34175	16.2734	33.36047	-68.34828	8.95037	12.20505	0
314	-18.71441	25.22377	43.93818	-0.81367	-30.10579	35.80148	-15.45973	16.2734	33.36047	-58.58424	13.01872	12.20505	0
315	-23.59643	5.69569	30.10579	8.95037	-25.22377	16.2734	-15.45973	11.39138	33.36047	-53.70222	17.90074	7.32303	0
316	-18.71441	5.69569	25.22377	8.95037	-20.34175	16.2734	-11.39138	11.39138	43.12451	-43.93818	22.78276	12.20505	0
317	-13.83239	10.57771	25.22377	-0.81367	-20.34175	16.2734	-7.32303	16.2734	38.24249	-43.93818	17.90074	7.32303	0
318	-13.83239	10.57771	25.22377	-0.81367	-20.34175	16.2734	2.44101	21.15542	38.24249	-39.05616	17.90074	7.32303	0
319	-13.83239	5.69569	20.34175	4.06835	-15.45973	11.39138	-2.44101	21.15542	38.24249	-39.05616	17.90074	3.25468	0
320	-18.71441	10.57771	30.10579	4.06835	-25.22377	21.15542	-2.44101	21.15542	43.12451	-39.05616	17.90074	3.25468	0
321	-33.36047	5.69569	39.86983	13.83239	-34.98781	21.15542	2.44101	26.03744	52.88855	-39.05616	17.90074	3.25468	0
322	-28.47845	-4.06835	25.22377	18.71441	-25.22377	11.39138	12.20505	26.03744	52.88855	-39.05616	17.90074	7.32303	0
323	-18.71441	-8.95037	10.57771	13.83239	-15.45973	1.62734	17.08707	26.03744	57.77057	-43.93818	22.78276	7.32303	0
324	-18.71441	-8.95037	10.57771	13.83239	-15.45973	1.62734	21.96909	35.80148	52.88855	-48.8202	22.78276	3.25468	0
325	-8.95037	5.69569	15.45973	4.06835	-10.57771	11.39138	21.96909	30.91946	48.00653	-43.93818	17.90074	3.25468	0
326	0.81367	10.57771	10.57771	-5.69569	-5.69569	11.39138	21.96909	35.80148	52.88855	-39.05616	17.90074	3.25468	0
327	0.81367	10.57771	10.57771	-5.69569	-5.69569	11.39138	36.61515	45.56552	57.77057	-39.05616	17.90074	3.25468	0
328	-13.83239	0.81367	15.45973	4.06835	-15.45973	6.50936	41.49717	50.44754	52.88855	-39.05616	8.95037	-0.81367	0
329	-18.71441	-4.06835	15.45973	13.83239	-15.45973	6.50936	51.26121	55.32956	52.88855	-48.8202	8.95037	-5.69569	0
330	-28.47845	-13.83239	15.45973	23.59643	-20.34175	1.62734	51.26121	50.44754	52.88855	-43.93818	8.95037	-0.81367	0
331	-38.24249	-18.71441	20.34175	28.47845	-30.10579	1.62734	56.14323	50.44754	48.00653	-48.8202	8.95037	-0.81367	0
332	-28.47845	-8.95037	20.34175	18.71441	-25.22377	6.50936	65.90727	55.32956	48.00653	-48.8202	8.95037	3.25468	0
333	-23.59643	-4.06835	20.34175	13.83239	-20.34175	6.50936	70.78929	50.44754	43.12451	-53.70222	8.95037	-5.69569	0
334	-28.47845	-8.95037	20.34175	18.71441	-25.22377	6.50936	70.78929	45.56552	43.12451	-53.70222	8.95037	-15.45973	0
335	-23.59643	-13.83239	10.57771	18.71441	-15.45973	-2.44101	75.67131	50.44754	52.88855	-53.70222	13.01872	-15.45973	0
336	-18.71441	-13.83239	5.69569	18.71441	-10.57771	-2.44101	85.43535	55.32956	57.77057	-43.93818	22.78276	-15.45973	0
337	-13.83239	-8.95037	5.69569	8.95037	-10.57771	-2.44101	100.08141	65.0936	57.77057	-39.05616	22.78276	-10.57771	0
338	-13.83239	-13.83239	0.81367	13.83239	-5.69569	-6.50936	109.84545	65.0936	57.77057	-43.93818	17.90074	-10.57771	0
339	-13.83239	-13.83239	0.81367	13.83239	-5.69569	-6.50936	114.72747	69.97562	62.65259	-39.05616	13.01872	-5.69569	0
340	-18.71441	-28.47845	-8.95037	23.59643	-5.69569	-16.2734	114.72747	65.0936	67.53461	-39.05616	8.95037	-5.69569	0
341	-33.36047	-33.36047	0.81367	33.36047	-15.45973	-16.2734	114.72747	60.21158	67.53461	-48.8202	8.95037	-10.57771	0
342	-28.47845	-13.83239	15.45973	23.59643	-20.34175	1.62734	129.37353	55.32956	67.53461	-53.70222	8.95037	-10.57771	0
343	-33.36047	-8.95037	25.22377	18.71441	-30.10579	6.50936	139.13757	60.21158	67.53461	-48.8202	8.95037	-10.57771	0
344	-28.47845	-13.83239	15.45973	23.59643	-20.34175	1.62734	153.78363	69.97562	67.53461	-48.8202	8.95037	-15.45973	0
345	-28.47845	-13.83239	15.45973	23.59643	-20.34175	1.62734	148.90161	74.85764	77.29865	-48.8202	8.95037	-15.45973	0
346	-28.47845	-13.83239	15.45973	23.59643	-20.34175	1.62734	148.90161	69.97562	72.41663	-48.8202	13.01872	-20.34175	0
347	-33.36047	-13.83239	20.34175	23.59643	-25.22377	1.62734	153.78363	74.85764	67.53461	-53.70222	13.01872	-20.34175	0
348	-38.24249	-18.71441	20.34175	28.47845	-30.10579	1.62734	158.66565	79.73966	62.65259	-58.58424	8.95037	-20.34175	0
349	-33.36047	-13.83239	20.34175	23.59643	-25.22377	1.62734	168.42969	74.85764	62.65259	-58.58424	8.95037	-15.45973	0
350	-43.12451	-13.83239	30.10579	28.47845	-34.98781	6.50936	168.42969	65.0936	62.65259	-58.58424	8.95037	-20.34175	0
351	-43.12451	-13.83239	30.10579	28.47845	-34.98781	6.50936	168.42969	60.21158	57.77057	-63.46626	8.95037	-25.22377	0
352	-48.00653	-18.71441	30.10579	33.36047	-39.86983	6.50936	183.07575	69.97562	57.77057	-58.58424	8.95037	-20.34175	0
353	-33.36047	-13.83239	20.34175	23.59643	-25.22377	1.62734	222.13191	79.73966	62.65259	-53.70222	17.90074	-5.69569	0
354	-38.24249	-13.83239	25.22377	28.47845	-30.10579	6.50936	256.30605	89.5037	67.53461	-48.8202	22.78276	-0.81367	0
355	-43.12451	-8.95037	34.98781	23.59643	-39.86983	11.39138	270.95211	79.73966	57.77057	-53.70222	13.01872	-10.57771	0
356	-43.12451	-4.06835	39.86983	23.59643	-39.86983	16.2734	275.83413	79.73966	57.77057	-58.58424	8.95037	-10.57771	0
357	-48.00653	-4.06835	43.93818	28.47845	-44.75185	21.15542	275.83413	74.85764	52.88855	-63.46626	8.95037	-20.34175	0
358	-62.65259	-4.06835	57.77057	33.36047	-59.39791	26.03744	285.59817	74.85764	62.65259	-63.46626	8.95037	-25.22377	0
359	-67.53461	0.81367	67.53461	33.36047	-68.34828	35.80148	295.36221	74.85764	62.65259	-63.46626	8.95037	-25.22377	0
360	-52.88855	15.45973	67.53461	18.71441	-59.39791	40.6835	300.24423	74.85764	67.53461	-63.46626	8.95037	-25.22377	0
361	-52.88855	5.69569	57.77057	23.59643	-54.51589	30.91946	295.36221	65.0936	57.77057	-68.34828	8.95037	-30.10579	0
362	-57.77057	-4.06835	52.88855	33.36047	-54.51589	26.03744	305.12625	60.21158	52.88855	-73.2303	8.95037	-30.10579	0
363	-67.53461	10.57771	77.29865	28.47845	-72.41663	45.56552	314.89029	65.0936	48.00653	-73.2303	8.95037	-25.22377	0
364	-91.13104	10.57771	101.70875	38.24249	-96.82673	55.32956	324.65433	69.97562	57.77057	-68.34828	13.01872	-5.69569	0
365	-91.13104	-4.06835	87.06269	48.00653	-87.06269	40.6835	319.77231	65.0936	62.65259	-73.2303	17.90074	-0.81367	0
366	-91.13104	-4.06835	87.06269	48.00653	-87.06269	40.6835	319.77231	60.21158	52.88855	-78.11232	8.95037	-0.81367	0
367	-87.06269	0.81367	87.06269	43.12451	-87.06269	45.56552	319.77231	55.32956	52.88855	-87.87636	4.88202	-10.57771	0
368	-82.18067	10.57771	91.94471	33.36047	-87.06269	50.44754	324.65433	65.0936	52.88855	-87.87636	4.88202	-15.45973	0
369	-87.06269	15.45973	101.70875	38.24249	-91.94471	60.21158	319.77231	65.0936	52.88855	-87.87636	0	-20.34175	0
370	-87.06269	15.45973	101.70875	38.24249	-91.94471	60.21158	314.89029	60.21158	48.00653	-92.75838	0	-30.10579	0
371	-87.06269	15.45973	101.70875	38.24249	-91.94471	60.21158	329.53635	60.21158	48.00653	-92.75838	-4.88202	-30.10579	0
372	-82.18067	25.22377	106.59077	28.47845	-91.94471	65.0936	344.18241	65.0936	43.12451	-97.6404	0	-30.10579	0
373	-77.29865	30.10579	106.59077	23.59643	-91.94471	69.97562	358.82847	65.0936	33.36047	-102.52242	-4.88202	-30.10579	0
374	-77.29865	34.98781	111.47279	23.59643	-91.94471	74.85764	383.23857	55.32956	23.59643	-102.52242	-9.76404	-30.10579	0
375	-77.29865	39.86983	116.35481	18.71441	-96.82673	79.73966	393.00261	45.56552	28.47845	-107.40444	-9.76404	-30.10579	0
376	-77.29865	44.75185	121.23683	18.71441	-96.82673	84.62168	417.41271	40.6835	28.47845	-107.40444	-9.76404	-30.10579	0
377	-87.06269	39.86983	126.11885	23.59643	-106.59077	84.62168	451.58685	35.80148	23.59643	-107.40444	-4.88202	-25.22377	0
378	-82.18067	30.10579	111.47279	23.59643	-96.82673	69.97562	485.76099	45.56552	23.59643	-102.52242	4.88202	-20.34175	0
379	-82.18067	30.10579	111.47279	23.59643	-96.82673	69.97562	515.05311	50.44754	18.71441	-97.6404	4.88202	-20.34175	0
380	-82.18067	30.10579	111.47279	23.59643	-96.82673	69.97562	534.58119	45.56552	8.95037	-102.52242	0	-25.22377	0
381	-87.06269	20.34175	106.59077	33.36047	-96.82673	65.0936	544.34523	40.6835	-0.81367	-107.40444	-4.88202	-20.34175	0
382	-91.13104	20.34175	111.47279	33.36047	-101.70875	65.0936	558.99129	45.56552	4.06835	-112.28646	-4.88202	-15.45973	0
383	-95.19939	20.34175	116.35481	33.36047	-106.59077	65.0936	544.34523	50.44754	4.06835	-112.28646	0	-5.69569	0
384	-95.19939	44.75185	140.76491	23.59643	-116.35481	89.5037	490.64301	50.44754	4.06835	-112.28646	4.88202	-0.81367	0
385	-87.06269	64.27993	150.52895	13.83239	-116.35481	109.03178	456.46887	45.56552	13.83239	-112.28646	8.95037	3.25468	0
386	-77.29865	69.16195	145.64693	4.06835	-111.47279	109.03178	427.17675	40.6835	13.83239	-112.28646	8.95037	3.25468	0
387	-57.77057	88.69003	145.64693	-15.45973	-101.70875	118.79582	412.53069	45.56552	13.83239	-112.28646	8.95037	3.25468	0
388	-57.77057	93.57205	150.52895	-15.45973	-101.70875	123.67784	407.64867	50.44754	18.71441	-107.40444	13.01872	7.32303	0
389	-52.88855	108.21811	160.29299	-30.10579	-106.59077	133.44188	397.88463	55.32956	28.47845	-107.40444	17.90074	7.32303	0
390	-48.00653	113.10013	160.29299	-30.10579	-101.70875	138.3239	378.35655	55.32956	33.36047	-97.6404	13.01872	3.25468	0
391	-62.65259	108.21811	170.05703	-25.22377	-116.35481	138.3239	353.94645	55.32956	38.24249	-92.75838	17.90074	7.32303	0
392	-67.53461	108.21811	174.93905	-20.34175	-121.23683	143.20592	324.65433	65.0936	38.24249	-92.75838	22.78276	7.32303	0
393	-72.41663	103.33609	174.93905	-15.45973	-121.23683	138.3239	295.36221	65.0936	33.36047	-97.6404	22.78276	7.32303	0
394	-77.29865	93.57205	170.05703	-5.69569	-121.23683	133.44188	266.07009	69.97562	33.36047	-97.6404	17.90074	3.25468	0
395	-67.53461	98.45407	165.17501	-15.45973	-116.35481	133.44188	231.89595	74.85764	43.12451	-92.75838	27.66478	12.20505	0
396	-52.88855	108.21811	160.29299	-30.10579	-106.59077	133.44188	178.19373	74.85764	48.00653	-92.75838	27.66478	7.32303	0
397	-43.12451	117.98215	160.29299	-39.86983	-101.70875	138.3239	114.72747	74.85764	48.00653	-92.75838	32.5468	7.32303	0
398	-48.00653	132.62821	179.82107	-39.86983	-111.47279	157.85198	41.49717	74.85764	52.88855	-87.87636	37.42882	12.20505	0
399	-48.00653	137.51023	184.70309	-44.75185	-116.35481	162.734	-20.34175	79.73966	57.77057	-82.99434	52.07488	17.08707	0
400	-52.88855	137.51023	189.58511	-44.75185	-121.23683	162.734	-88.69003	69.97562	57.77057	-82.99434	47.19286	17.08707	-1500	QRS-0
401	-52.88855	137.51023	189.58511	-44.75185	-121.23683	162.734	-132.62821	60.21158	43.12451	-87.87636	32.5468	12.20505	0
402	-57.77057	132.62821	189.58511	-34.98781	-121.23683	162.734	-30.10579	55.32956	33.36047	-92.75838	32.5468	12.20505	0
403	-43.12451	152.15629	194.46713	-54.51589	-116.35481	172.49804	144.01959	55.32956	33.36047	-92.75838	32.5468	17.08707	0
404	-33.36047	157.03831	189.58511	-64.27993	-111.47279	172.49804	319.77231	40.6835	28.47845	-102.52242	27.66478	12.20505	0
405	-28.47845	157.03831	184.70309	-64.27993	-106.59077	172.49804	466.23291	30.91946	28.47845	-102.52242	27.66478	17.08707	0
406	-18.71441	161.92033	179.82107	-69.16195	-96.82673	172.49804	578.51937	16.2734	23.59643	-112.28646	27.66478	17.08707	0
407	-18.71441	161.92033	179.82107	-69.16195	-96.82673	172.49804	671.27775	16.2734	23.59643	-122.0505	27.66478	17.08707	0
408	-33.36047	147.27427	179.82107	-59.39791	-106.59077	162.734	768.91815	11.39138	23.59643	-117.16848	37.42882	31.73313	0
409	-13.83239	157.03831	170.05703	-74.04397	-91.94471	162.734	856.79451	16.2734	23.59643	-112.28646	47.19286	41.49717	0
410	-8.95037	157.03831	165.17501	-74.04397	-87.06269	162.734	920.26077	16.2734	23.59643	-107.40444	52.07488	46.37919	0
411	0.81367	157.03831	155.41097	-78.92599	-77.29865	157.85198	983.72703	21.15542	28.47845	-102.52242	56.9569	51.26121	0
412	15.45973	157.03831	140.76491	-88.69003	-64.27993	148.08794	1037.42925	26.03744	33.36047	-92.75838	61.83892	56.14323	0
413	20.34175	161.92033	140.76491	-88.69003	-59.39791	152.96996	1096.01349	26.03744	28.47845	-97.6404	56.9569	56.14323	0
414	20.34175	152.15629	131.00087	-83.80801	-54.51589	143.20592	1144.83369	26.03744	23.59643	-97.6404	56.9569	51.26121	0
415	20.34175	142.39225	121.23683	-78.92599	-49.63387	133.44188	1174.12581	16.2734	23.59643	-102.52242	52.07488	41.49717	0
416	20.34175	127.74619	106.59077	-74.04397	-44.75185	118.79582	1198.53591	11.39138	18.71441	-107.40444	47.19286	41.49717	0
417	34.98781	122.86417	87.06269	-78.92599	-25.22377	104.14976	1232.71005	6.50936	18.71441	-117.16848	47.19286	41.49717	0
418	39.86983	117.98215	77.29865	-78.92599	-20.34175	99.26774	1296.17631	6.50936	18.71441	-112.28646	52.07488	51.26121	0
419	39.86983	103.33609	62.65259	-69.16195	-10.57771	84.62168	1354.76055	2.44101	4.06835	-126.93252	42.31084	41.49717	0
420	34.98781	93.57205	57.77057	-64.27993	-10.57771	74.85764	1398.69873	-1.62734	-4.88202	-131.81454	37.42882	41.49717	0
421	25.22377	78.92599	52.88855	-54.51589	-15.45973	65.0936	1437.75489	-11.39138	-4.88202	-141.57858	27.66478	36.61515	0
422	20.34175	69.16195	48.00653	-44.75185	-15.45973	60.21158	1476.81105	-16.2734	-4.88202	-151.34262	17.90074	31.73313	0
423	25.22377	59.39791	34.98781	-44.75185	-5.69569	45.56552	1520.74923	-11.39138	-4.88202	-156.22464	17.90074	31.73313	0
424	25.22377	39.86983	15.45973	-34.98781	4.06835	26.03744	1554.92337	-21.15542	-4.88202	-165.98868	8.95037	17.08707	0
425	15.45973	20.34175	5.69569	-20.34175	4.06835	11.39138	1598.86155	-35.80148	-8.95037	-170.8707	8.95037	3.25468	0
426	20.34175	15.45973	-4.06835	-15.45973	13.83239	6.50936	1652.56377	-50.44754	-4.88202	-180.63474	0	-10.57771	0
427	20.34175	30.10579	10.57771	-25.22377	4.06835	21.15542	1725.79407	-45.56552	-0.81367	-180.63474	4.88202	-10.57771	0
428	20.34175	30.10579	10.57771	-25.22377	4.06835	21.15542	1794.14235	-35.80148	18.71441	-170.8707	4.88202	-15.45973	0
429	15.45973	15.45973	0.81367	-15.45973	8.95037	6.50936	1862.49063	-35.80148	28.47845	-170.8707	4.88202	-15.45973	0
430	10.57771	0.81367	-8.95037	-5.69569	8.95037	-2.44101	1911.31083	-40.6835	28.47845	-185.51676	-9.76404	-30.10579	0
431	0.81367	-4.06835	-4.06835	4.06835	4.06835	-2.44101	1955.24901	-35.80148	28.47845	-185.51676	-19.52808	-39.86983	0
432	-4.06835	-4.06835	0.81367	4.06835	-0.81367	-2.44101	1998.37352	-21.15542	38.24249	-180.63474	-19.52808	-34.98781	0
433	-4.06835	-4.06835	0.81367	4.06835	-0.81367	-2.44101	2042.3117	-11.39138	43.12451	-175.75272	-14.64606	-25.22377	0
434	-18.71441	-23.59643	-4.06835	23.59643	-5.69569	-11.39138	2081.36786	-6.50936	38.24249	-175.75272	-9.76404	-25.22377	0
435	-43.12451	-47.19286	-4.06835	43.12451	-20.34175	-26.03744	2125.30604	-11.39138	28.47845	-185.51676	-24.4101	-34.98781	0
436	-52.88855	-56.14323	-4.06835	52.88855	-25.22377	-30.91946	2159.48018	-16.2734	23.59643	-200.16282	-34.17414	-39.86983	0
437	-57.77057	-56.14323	0.81367	57.77057	-30.10579	-26.03744	2198.53634	-11.39138	28.47845	-200.16282	-34.17414	-44.75185	0
438	-57.77057	-56.14323	0.81367	57.77057	-30.10579	-26.03744	2242.47452	-6.50936	33.36047	-200.16282	-34.17414	-49.63387	0
439	-62.65259	-56.14323	5.69569	57.77057	-34.98781	-26.03744	2296.17674	-6.50936	28.47845	-209.92686	-43.93818	-54.51589	0
440	-62.65259	-61.02525	0.81367	57.77057	-34.98781	-30.91946	2330.35088	-16.2734	23.59643	-219.6909	-53.70222	-64.27993	0
441	-62.65259	-75.67131	-13.83239	66.72094	-25.22377	-45.56552	2349.87896	-16.2734	23.59643	-219.6909	-53.70222	-69.16195	0
442	-48.00653	-75.67131	-28.47845	62.65259	-10.57771	-50.44754	2384.0531	-11.39138	23.59643	-209.92686	-48.8202	-64.27993	0
443	-57.77057	-85.43535	-28.47845	70.78929	-15.45973	-55.32956	2413.34522	-16.2734	18.71441	-214.80888	-58.58424	-74.04397	0
444	-52.88855	-85.43535	-33.36047	66.72094	-10.57771	-60.21158	2432.8733	-11.39138	13.83239	-205.04484	-58.58424	-74.04397	0
445	-52.88855	-80.55333	-28.47845	62.65259	-15.45973	-55.32956	2442.63734	-21.15542	8.95037	-200.16282	-58.58424	-74.04397	0
446	-57.77057	-80.55333	-23.59643	66.72094	-20.34175	-50.44754	2467.04744	-26.03744	8.95037	-205.04484	-53.70222	-69.16195	0
447	-52.88855	-70.78929	-18.71441	57.77057	-20.34175	-45.56552	2501.22158	-26.03744	8.95037	-205.04484	-53.70222	-64.27993	0
448	-48.00653	-65.90727	-18.71441	57.77057	-15.45973	-40.6835	2535.39572	-16.2734	18.71441	-205.04484	-48.8202	-54.51589	0
449	-52.88855	-70.78929	-18.71441	57.77057	-20.34175	-45.56552	2550.04178	-6.50936	23.59643	-205.04484	-43.93818	-49.63387	0
450	-52.88855	-70.78929	-18.71441	57.77057	-20.34175	-45.56552	2559.80582	-16.2734	28.47845	-205.04484	-43.93818	-49.63387	0
451	-52.88855	-75.67131	-23.59643	62.65259	-15.45973	-50.44754	2569.56986	-21.15542	23.59643	-209.92686	-58.58424	-59.39791	0
452	-48.00653	-70.78929	-23.59643	57.77057	-15.45973	-45.56552	2579.3339	-11.39138	18.71441	-205.04484	-58.58424	-69.16195	0
453	-52.88855	-65.90727	-13.83239	57.77057	-20.34175	-40.6835	2579.3339	-6.50936	18.71441	-200.16282	-58.58424	-64.27993	0
454	-57.77057	-65.90727	-8.95037	62.65259	-25.22377	-35.80148	2574.45188	-11.39138	18.71441	-200.16282	-58.58424	-69.16195	0
455	-52.88855	-65.90727	-13.83239	57.77057	-20.34175	-40.6835	2584.21592	-16.2734	18.71441	-209.92686	-58.58424	-69.16195	0
456	-52.88855	-70.78929	-18.71441	57.77057	-20.34175	-45.56552	2589.09794	-21.15542	23.59643	-209.92686	-58.58424	-69.16195	0
457	-48.00653	-75.67131	-28.47845	62.65259	-10.57771	-50.44754	2598.86198	-21.15542	23.59643	-209.92686	-58.58424	-64.27993	0
458	-52.88855	-85.43535	-33.36047	66.72094	-10.57771	-60.21158	2613.50804	-21.15542	28.47845	-209.92686	-63.46626	-64.27993	0
459	-52.88855	-80.55333	-28.47845	62.65259	-15.45973	-55.32956	2628.1541	-21.15542	23.59643	-214.80888	-63.46626	-69.16195	0
460	-48.00653	-75.67131	-28.47845	62.65259	-10.57771	-50.44754	2642.80016	-16.2734	28.47845	-209.92686	-48.8202	-64.27993	0
461	-48.00653	-80.55333	-33.36047	62.65259	-10.57771	-55.32956	2642.80016	-21.15542	23.59643	-224.57292	-53.70222	-64.27993	0
462	-43.12451	-75.67131	-33.36047	57.77057	-5.69569	-55.32956	2642.80016	-16.2734	23.59643	-234.33696	-58.58424	-69.16195	0
463	-43.12451	-75.67131	-33.36047	57.77057	-5.69569	-55.32956	2652.5642	-11.39138	23.59643	-224.57292	-53.70222	-64.27993	0
464	-57.77057	-85.43535	-28.47845	70.78929	-15.45973	-55.32956	2672.09228	-11.39138	18.71441	-224.57292	-58.58424	-64.27993	0
465	-72.41663	-90.31737	-18.71441	75.67131	-30.10579	-55.32956	2686.73834	-16.2734	13.83239	-229.45494	-63.46626	-74.04397	0
466	-77.29865	-90.31737	-13.83239	80.55333	-34.98781	-50.44754	2686.73834	-30.91946	8.95037	-234.33696	-68.34828	-78.92599	0
467	-67.53461	-85.43535	-18.71441	75.67131	-25.22377	-50.44754	2701.3844	-26.03744	13.83239	-224.57292	-63.46626	-74.04397	0
468	-62.65259	-90.31737	-28.47845	70.78929	-20.34175	-60.21158	2720.91248	-21.15542	18.71441	-224.57292	-68.34828	-78.92599	0
469	-57.77057	-85.43535	-28.47845	70.78929	-15.45973	-55.32956	2730.67652	-16.2734	18.71441	-224.57292	-68.34828	-78.92599	0
470	-67.53461	-85.43535	-18.71441	75.67131	-25.22377	-50.44754	2725.7945	-26.03744	18.71441	-229.45494	-68.34828	-78.92599	0
471	-77.29865	-85.43535	-8.95037	80.55333	-34.98781	-45.56552	2725.7945	-26.03744	13.83239	-229.45494	-68.34828	-78.92599	0
472	-72.41663	-85.43535	-13.83239	75.67131	-30.10579	-50.44754	2735.55854	-16.2734	18.71441	-224.57292	-68.34828	-78.92599	0
473	-57.77057	-80.55333	-23.59643	66.72094	-20.34175	-50.44754	2735.55854	-16.2734	23.59643	-229.45494	-68.34828	-83.80801	0
474	-62.65259	-80.55333	-18.71441	66.72094	-25.22377	-50.44754	2725.7945	-6.50936	23.59643	-224.57292	-63.46626	-78.92599	0
475	-77.29865	-85.43535	-8.95037	80.55333	-34.98781	-45.56552	2686.73834	-16.2734	18.71441	-224.57292	-73.2303	-78.92599	0
476	-82.18067	-85.43535	-4.06835	80.55333	-39.86983	-45.56552	2642.80016	-16.2734	18.71441	-224.57292	-68.34828	-74.04397	0
477	-87.06269	-90.31737	-4.06835	85.43535	-44.75185	-45.56552	2598.86198	-21.15542	13.83239	-234.33696	-73.2303	-78.92599	0
478	-72.41663	-80.55333	-8.95037	70.78929	-34.98781	-45.56552	2564.68784	-6.50936	23.59643	-219.6909	-48.8202	-64.27993	0
479	-72.41663	-80.55333	-8.95037	70.78929	-34.98781	-45.56552	2520.74966	2.44101	38.24249	-205.04484	-34.17414	-49.63387	0
480	-82.18067	-75.67131	5.69569	75.67131	-44.75185	-35.80148	2462.16542	2.44101	38.24249	-200.16282	-34.17414	-49.63387	0
481	-91.13104	-70.78929	20.34175	75.67131	-59.39791	-26.03744	2403.58118	-6.50936	23.59643	-214.80888	-43.93818	-54.51589	0
482	-109.84545	-65.90727	43.93818	85.43535	-77.29865	-11.39138	2354.76098	-11.39138	13.83239	-229.45494	-58.58424	-54.51589	0
483	-119.60949	-43.12451	77.29865	80.55333	-96.82673	16.2734	2310.8228	-6.50936	8.95037	-248.98302	-73.2303	-64.27993	0
484	-124.49151	-18.71441	106.59077	66.72094	-116.35481	40.6835	2252.23856	-26.03744	-8.95037	-263.62908	-82.99434	-69.16195	0
485	-124.49151	-23.59643	101.70875	70.78929	-111.47279	35.80148	2183.89028	-55.32956	-23.59643	-268.5111	-78.11232	-64.27993	0
486	-114.72747	-38.24249	77.29865	70.78929	-96.82673	16.2734	2125.30604	-89.5037	-52.88855	-278.27514	-63.46626	-44.75185	0
487	-119.60949	-61.02525	57.77057	85.43535	-91.94471	-2.44101	2091.1319	-104.14976	-87.06269	-292.9212	-63.46626	-34.98781	0
488	-119.60949	-80.55333	39.86983	95.19939	-82.18067	-21.15542	2061.83978	-118.79582	-116.35481	-307.56726	-48.8202	-20.34175	0
489	-129.37353	-109.84545	20.34175	114.72747	-77.29865	-45.56552	2037.42968	-148.08794	-145.64693	-327.09534	-43.93818	-15.45973	0
490	-129.37353	-139.13757	-8.95037	129.37353	-64.27993	-74.85764	1988.60948	-187.1441	-184.70309	-341.7414	-24.4101	-5.69569	0
491	-109.84545	-168.42969	-57.77057	134.25555	-30.10579	-113.9138	1886.90073	-289.66652	-277.46147	-385.67958	-14.64606	3.25468	0
492	-82.18067	-197.72181	-116.35481	134.25555	13.83239	-157.85198	1740.44013	-450.77318	-423.92207	-468.67392	-29.29212	7.32303	0
493	-48.00653	-231.89595	-184.70309	139.13757	67.53461	-206.67218	1559.80539	-636.28994	-594.79277	-551.66826	-43.93818	17.08707	0
494	0.81367	-266.07009	-267.69743	129.37353	131.00087	-265.25642	1369.40661	-826.68872	-770.54549	-605.37048	-34.17414	46.37919	0
495	93.57205	-266.07009	-360.45581	80.55333	223.75925	-314.07662	1174.12581	-1017.0875	-917.00609	-629.78058	8.95037	104.96343	0
496	215.62255	-241.65999	-458.09621	13.83239	336.04571	-348.25076	939.78885	-1241.66042	-1087.87679	-654.19068	66.72094	178.19373	0
497	337.67305	-207.48585	-545.97257	-69.16195	438.56813	-377.54288	685.92381	-1490.64344	-1283.15759	-703.01088	120.42316	246.54201	0
498	464.60557	-187.95777	-653.37701	-142.39225	555.73661	-421.48106	436.94079	-1705.45232	-1454.02829	-761.59512	139.95124	295.36221	0
499	596.42011	-173.31171	-770.54549	-210.74053	682.66913	-470.30126	207.48585	-1881.20504	-1605.37091	-834.82542	125.30518	314.89029	0
500	728.23465	-173.31171	-902.36003	-279.08881	814.48367	-538.64954	2.44101	-2051.26207	-1751.83151	-917.81976	96.01306	314.89029	0
501	850.28515	-207.48585	-1058.58467	-323.02699	951.18023	-631.40792	-205.85851	-2217.25075	-1908.05615	-1030.10622	27.66478	275.83413	0
502	977.21767	-251.42403	-1229.45537	-362.08315	1102.52285	-738.81236	-371.84719	-2310.00913	-2004.88288	-1137.51066	-73.2303	202.60383	0
503	1055.32999	-358.82847	-1414.97213	-347.43709	1234.33739	-885.27296	-474.36961	-2339.30125	-2053.70308	-1254.67914	-263.62908	51.26121	0
504	1089.50413	-490.64301	-1580.96081	-303.49891	1331.97779	-1036.61558	-523.18981	-2310.00913	-2039.05702	-1342.5555	-468.67392	-127.74619	0
505	1069.97605	-666.39573	-1737.18545	-205.85851	1400.32607	-1202.60426	-532.95385	-2280.71701	-2019.52894	-1415.7858	-654.19068	-308.38093	0
506	1001.62777	-807.97431	-1810.41575	-98.45407	1405.20809	-1310.0087	-484.13365	-2222.13277	-1951.99433	-1454.84196	-776.24118	-449.95951	0
507	908.86939	-851.91249	-1761.59555	-30.10579	1331.97779	-1305.12668	-366.96517	-2090.31823	-1829.94383	-1425.54984	-815.29734	-513.42577	0
508	791.70091	-822.62037	-1615.13495	13.83239	1200.16325	-1217.25032	-215.62255	-1930.02524	-1693.24727	-1396.25772	-825.06138	-542.71789	0
509	645.24031	-749.39007	-1395.44405	52.88855	1019.52851	-1070.78972	-7.32303	-1720.09838	-1512.61253	-1337.67348	-834.82542	-572.01001	0
510	474.36961	-646.86765	-1122.05093	80.55333	794.95559	-885.27296	236.77797	-1495.52546	-1322.21375	-1264.44318	-834.82542	-581.77405	0
511	313.26295	-524.81715	-838.89377	104.96343	575.26469	-680.22812	485.76099	-1275.83456	-1151.34305	-1196.0949	-800.65128	-552.48193	0
512	191.21245	-363.71049	-555.73661	80.55333	370.21985	-460.53722	715.21593	-1046.37962	-951.18023	-1064.28036	-693.24684	-459.72355	0
513	122.86417	-212.36787	-336.04571	43.12451	228.64127	-275.02046	871.44057	-836.45276	-755.89943	-898.29168	-551.66826	-347.43709	0
514	69.16195	-109.84545	-179.82107	18.71441	121.23683	-143.20592	964.19895	-665.58206	-594.79277	-756.7131	-429.61776	-259.56073	0
515	25.22377	-38.24249	-62.65259	4.06835	43.12451	-50.44754	1008.13713	-519.12146	-448.33217	-644.42664	-331.97736	-196.09447	0
516	0.81367	20.34175	20.34175	-10.57771	-10.57771	21.15542	1017.90117	-397.07096	-326.28167	-556.55028	-263.62908	-157.03831	0
517	-28.47845	30.10579	57.77057	-0.81367	-44.75185	45.56552	1008.13713	-284.7845	-223.75925	-493.08402	-219.6909	-142.39225	0
518	-67.53461	0.81367	67.53461	33.36047	-68.34828	35.80148	988.60905	-201.79016	-150.52895	-444.26382	-205.04484	-152.15629	0
519	-87.06269	-13.83239	72.41663	52.88855	-77.29865	30.91946	969.08097	-128.55986	-82.18067	-395.44362	-195.2808	-157.03831	0
520	-95.19939	-28.47845	67.53461	57.77057	-82.18067	16.2734	930.02481	-69.97562	-13.83239	-322.21332	-165.98868	-152.15629	0
521	-109.84545	-47.19286	62.65259	75.67131	-87.06269	6.50936	876.32259	-21.15542	38.24249	-248.98302	-126.93252	-132.62821	0
522	-104.96343	-47.19286	57.77057	70.78929	-82.18067	1.62734	827.50239	21.15542	96.82673	-175.75272	-82.99434	-113.10013	0
523	-91.13104	-38.24249	52.88855	62.65259	-72.41663	6.50936	773.80017	69.97562	135.88289	-131.81454	-43.93818	-98.45407	0
524	-82.18067	-28.47845	52.88855	52.88855	-68.34828	11.39138	715.21593	109.03178	150.52895	-122.0505	-19.52808	-88.69003	0
525	-77.29865	-33.36047	43.93818	57.77057	-59.39791	6.50936	632.22159	138.3239	160.29299	-131.81454	-14.64606	-83.80801	0
526	-72.41663	-38.24249	34.98781	52.88855	-54.51589	-2.44101	554.10927	152.96996	165.17501	-151.34262	-24.4101	-78.92599	0
527	-77.29865	-47.19286	30.10579	62.65259	-54.51589	-6.50936	485.76099	167.61602	170.05703	-165.98868	-29.29212	-74.04397	0
528	-77.29865	-43.12451	34.98781	62.65259	-54.51589	-2.44101	407.64867	167.61602	174.93905	-175.75272	-43.93818	-74.04397	0
529	-87.06269	-47.19286	39.86983	66.72094	-64.27993	-2.44101	344.18241	167.61602	179.82107	-170.8707	-48.8202	-83.80801	0
530	-87.06269	-43.12451	43.93818	66.72094	-64.27993	1.62734	270.95211	167.61602	194.46713	-151.34262	-39.05616	-83.80801	0
531	-87.06269	-38.24249	48.00653	62.65259	-68.34828	6.50936	197.72181	167.61602	209.11319	-131.81454	-29.29212	-78.92599	0
532	-91.13104	-47.19286	43.93818	66.72094	-68.34828	-2.44101	144.01959	182.26208	218.87723	-107.40444	-19.52808	-74.04397	0
533	-100.08141	-56.14323	43.93818	75.67131	-72.41663	-6.50936	90.31737	196.90814	228.64127	-102.52242	-9.76404	-69.16195	0
534	-95.19939	-51.26121	43.93818	66.72094	-72.41663	-6.50936	36.61515	206.67218	223.75925	-112.28646	-9.76404	-69.16195	0
535	-82.18067	-43.12451	39.86983	62.65259	-59.39791	-2.44101	-15.45973	206.67218	218.87723	-122.0505	-9.76404	-69.16195	0
536	-72.41663	-33.36047	39.86983	52.88855	-54.51589	1.62734	-69.16195	211.5542	218.87723	-126.93252	-9.76404	-69.16195	0
537	-77.29865	-33.36047	43.93818	57.77057	-59.39791	6.50936	-122.86417	211.5542	218.87723	-122.0505	-9.76404	-64.27993	0
538	-82.18067	-38.24249	43.93818	57.77057	-64.27993	1.62734	-161.92033	216.43622	223.75925	-117.16848	-4.88202	-59.39791	0
539	-87.06269	-38.24249	48.00653	62.65259	-68.34828	6.50936	-191.21245	221.31824	233.52329	-107.40444	-4.88202	-54.51589	0
540	-91.13104	-33.36047	57.77057	62.65259	-72.41663	11.39138	-215.62255	216.43622	238.40531	-102.52242	-4.88202	-64.27993	0
541	-95.19939	-33.36047	62.65259	62.65259	-77.29865	11.39138	-230.26861	221.31824	238.40531	-97.6404	-9.76404	-69.16195	0
542	-100.08141	-28.47845	72.41663	62.65259	-87.06269	21.15542	-225.38659	226.20026	243.28733	-87.87636	-9.76404	-59.39791	0
543	-91.13104	-23.59643	67.53461	57.77057	-77.29865	21.15542	-210.74053	231.08228	248.16935	-82.99434	0	-49.63387	0
544	-91.13104	-28.47845	62.65259	57.77057	-77.29865	16.2734	-181.44841	240.84632	253.05137	-78.11232	8.95037	-44.75185	0
545	-82.18067	-33.36047	48.00653	57.77057	-64.27993	6.50936	-166.80235	240.84632	253.05137	-78.11232	8.95037	-44.75185	0
546	-77.29865	-28.47845	48.00653	52.88855	-64.27993	11.39138	-157.03831	235.9643	257.93339	-78.11232	8.95037	-44.75185	0
547	-77.29865	-28.47845	48.00653	52.88855	-64.27993	11.39138	-147.27427	235.9643	267.69743	-82.99434	8.95037	-44.75185	0
548	-67.53461	-23.59643	43.93818	48.00653	-54.51589	11.39138	-137.51023	235.9643	262.81541	-78.11232	8.95037	-44.75185	0
549	-67.53461	-18.71441	48.00653	43.12451	-59.39791	16.2734	-127.74619	235.9643	262.81541	-78.11232	8.95037	-49.63387	0
550	-67.53461	-18.71441	48.00653	43.12451	-59.39791	16.2734	-122.86417	231.08228	267.69743	-73.2303	8.95037	-49.63387	0
551	-87.06269	-18.71441	67.53461	52.88855	-77.29865	26.03744	-117.98215	240.84632	277.46147	-63.46626	8.95037	-49.63387	0
552	-91.13104	-23.59643	67.53461	57.77057	-77.29865	21.15542	-122.86417	240.84632	272.57945	-68.34828	8.95037	-49.63387	0
553	-91.13104	-28.47845	62.65259	57.77057	-77.29865	16.2734	-132.62821	245.72834	277.46147	-58.58424	8.95037	-39.86983	0
554	-91.13104	-33.36047	57.77057	62.65259	-72.41663	11.39138	-147.27427	250.61036	282.34349	-53.70222	17.90074	-34.98781	0
555	-100.08141	-38.24249	62.65259	66.72094	-82.18067	11.39138	-176.56639	245.72834	282.34349	-48.8202	17.90074	-39.86983	0
556	-109.84545	-47.19286	62.65259	75.67131	-87.06269	6.50936	-205.85851	250.61036	292.10753	-39.05616	17.90074	-39.86983	0
557	-114.72747	-47.19286	67.53461	75.67131	-91.94471	6.50936	-220.50457	260.3744	301.87157	-34.17414	22.78276	-39.86983	0
558	-100.08141	-38.24249	62.65259	66.72094	-82.18067	11.39138	-230.26861	275.02046	311.63561	-19.52808	32.5468	-30.10579	0
559	-91.13104	-18.71441	72.41663	52.88855	-82.18067	26.03744	-230.26861	279.90248	311.63561	-19.52808	32.5468	-30.10579	0
560	-77.29865	-4.06835	72.41663	43.12451	-72.41663	35.80148	-230.26861	279.90248	316.51763	-4.88202	37.42882	-30.10579	0
561	-77.29865	-18.71441	57.77057	48.00653	-68.34828	21.15542	-215.62255	279.90248	321.39965	0	37.42882	-30.10579	0
562	-82.18067	-23.59643	57.77057	52.88855	-68.34828	16.2734	-191.21245	284.7845	326.28167	4.88202	37.42882	-25.22377	0
563	-87.06269	-23.59643	62.65259	57.77057	-72.41663	21.15542	-157.03831	294.54854	331.16369	8.95037	37.42882	-20.34175	0
564	-95.19939	-28.47845	67.53461	57.77057	-82.18067	16.2734	-122.86417	294.54854	331.16369	8.95037	32.5468	-25.22377	0
565	-104.96343	-28.47845	77.29865	62.65259	-91.94471	21.15542	-98.45407	299.43056	336.04571	4.88202	32.5468	-30.10579	0
566	-104.96343	-23.59643	82.18067	62.65259	-91.94471	26.03744	-69.16195	304.31258	336.04571	8.95037	32.5468	-30.10579	0
567	-104.96343	-23.59643	82.18067	62.65259	-91.94471	26.03744	-34.98781	318.95864	345.80975	8.95037	42.31084	-15.45973	0
568	-95.19939	-18.71441	77.29865	52.88855	-87.06269	26.03744	-11.39138	328.72268	350.69177	13.01872	42.31084	-20.34175	0
569	-91.13104	-8.95037	82.18067	48.00653	-87.06269	35.80148	2.44101	338.48672	355.57379	13.01872	47.19286	-20.34175	0
570	-82.18067	0.81367	82.18067	38.24249	-82.18067	40.6835	17.08707	343.36874	355.57379	17.90074	47.19286	-25.22377	0
571	-82.18067	0.81367	82.18067	38.24249	-82.18067	40.6835	31.73313	343.36874	360.45581	17.90074	47.19286	-30.10579	0
572	-87.06269	15.45973	101.70875	38.24249	-91.94471	60.21158	41.49717	353.13278	365.33783	22.78276	42.31084	-30.10579	0
573	-87.06269	25.22377	111.47279	33.36047	-96.82673	69.97562	61.02525	377.54288	389.74793	37.42882	56.9569	-15.45973	0
574	-91.13104	20.34175	111.47279	33.36047	-101.70875	65.0936	51.26121	387.30692	394.62995	52.07488	61.83892	-10.57771	0
575	-91.13104	15.45973	106.59077	38.24249	-96.82673	60.21158	36.61515	392.18894	399.51197	52.07488	52.07488	-15.45973	0
576	-87.06269	20.34175	106.59077	33.36047	-96.82673	65.0936	36.61515	392.18894	394.62995	42.31084	47.19286	-25.22377	0
577	-82.18067	20.34175	101.70875	28.47845	-91.94471	60.21158	36.61515	397.07096	399.51197	37.42882	52.07488	-25.22377	0
578	-91.13104	15.45973	106.59077	38.24249	-96.82673	60.21158	41.49717	406.835	404.39399	47.19286	61.83892	-20.34175	0
579	-91.13104	15.45973	106.59077	38.24249	-96.82673	60.21158	46.37919	411.71702	414.15803	47.19286	61.83892	-15.45973	0
580	-87.06269	20.34175	106.59077	33.36047	-96.82673	65.0936	61.02525	416.59904	443.45015	61.83892	71.60296	-5.69569	0
581	-77.29865	30.10579	106.59077	23.59643	-91.94471	69.97562	75.67131	431.2451	467.86025	66.72094	81.367	-0.81367	0
582	-82.18067	25.22377	106.59077	28.47845	-91.94471	65.0936	90.31737	441.00914	477.62429	71.60296	81.367	3.25468	0
583	-77.29865	25.22377	101.70875	28.47845	-87.06269	65.0936	124.49151	455.6552	482.50631	76.48498	76.48498	3.25468	0
584	-87.06269	25.22377	111.47279	33.36047	-96.82673	69.97562	158.66565	470.30126	487.38833	76.48498	71.60296	3.25468	0
585	-95.19939	25.22377	121.23683	33.36047	-106.59077	69.97562	178.19373	475.18328	492.27035	76.48498	66.72094	3.25468	0
586	-82.18067	44.75185	126.11885	18.71441	-101.70875	84.62168	187.95777	480.0653	487.38833	76.48498	66.72094	3.25468	0
587	-72.41663	59.39791	131.00087	4.06835	-101.70875	94.38572	207.48585	484.94732	492.27035	81.367	71.60296	3.25468	0
588	-72.41663	69.16195	140.76491	-0.81367	-106.59077	104.14976	227.01393	494.71136	502.03439	86.24902	81.367	3.25468	0
589	-77.29865	69.16195	145.64693	4.06835	-111.47279	109.03178	241.65999	499.59338	502.03439	91.13104	86.24902	3.25468	0
590	-77.29865	69.16195	145.64693	4.06835	-111.47279	109.03178	241.65999	499.59338	511.79843	91.13104	86.24902	3.25468	0
591	-72.41663	88.69003	160.29299	-10.57771	-116.35481	123.67784	236.77797	509.35742	511.79843	91.13104	86.24902	3.25468	0
592	-67.53461	103.33609	170.05703	-15.45973	-116.35481	138.3239	227.01393	519.12146	516.68045	96.01306	96.01306	7.32303	0
593	-62.65259	113.10013	174.93905	-25.22377	-116.35481	143.20592	222.13191	514.23944	511.79843	96.01306	105.7771	17.08707	0
594	-57.77057	103.33609	160.29299	-20.34175	-106.59077	133.44188	192.83979	524.00348	511.79843	105.7771	110.65912	26.85111	0
595	-57.77057	103.33609	160.29299	-20.34175	-106.59077	133.44188	153.78363	514.23944	502.03439	100.89508	105.7771	31.73313	0
596	-67.53461	108.21811	174.93905	-20.34175	-121.23683	143.20592	124.49151	509.35742	502.03439	105.7771	105.7771	36.61515	0
597	-77.29865	108.21811	184.70309	-15.45973	-131.00087	148.08794	104.96343	504.4754	497.15237	110.65912	105.7771	36.61515	0
598	-77.29865	113.10013	189.58511	-15.45973	-131.00087	152.96996	104.96343	504.4754	492.27035	115.54114	110.65912	41.49717	0
599	-52.88855	122.86417	174.93905	-34.98781	-111.47279	148.08794	114.72747	504.4754	487.38833	115.54114	120.42316	46.37919	0
600	-43.12451	113.10013	155.41097	-34.98781	-96.82673	133.44188	114.72747	489.82934	477.62429	115.54114	125.30518	56.14323	0
601	-38.24249	113.10013	150.52895	-34.98781	-91.94471	133.44188	124.49151	480.0653	467.86025	105.7771	120.42316	61.02525	0
602	-33.36047	127.74619	160.29299	-49.63387	-96.82673	143.20592	148.90161	470.30126	448.33217	100.89508	115.54114	70.78929	0
603	-28.47845	132.62821	160.29299	-49.63387	-91.94471	148.08794	178.19373	460.53722	433.68611	105.7771	120.42316	80.55333	0
604	-18.71441	132.62821	150.52895	-54.51589	-82.18067	143.20592	212.36787	450.77318	414.15803	105.7771	120.42316	85.43535	0
605	-13.83239	137.51023	150.52895	-64.27993	-82.18067	143.20592	241.65999	436.12712	409.27601	100.89508	120.42316	85.43535	0
606	-8.95037	152.15629	160.29299	-69.16195	-82.18067	157.85198	246.54201	416.59904	394.62995	91.13104	120.42316	85.43535	0
607	-8.95037	157.03831	165.17501	-74.04397	-87.06269	162.734	236.77797	401.95298	379.98389	76.48498	115.54114	85.43535	0
608	-4.06835	166.80235	170.05703	-83.80801	-87.06269	167.61602	222.13191	382.4249	365.33783	71.60296	110.65912	90.31737	0
609	5.69569	176.56639	170.05703	-93.57205	-82.18067	172.49804	207.48585	372.66086	350.69177	56.9569	120.42316	95.19939	0
610	15.45973	181.44841	165.17501	-98.45407	-72.41663	172.49804	183.07575	348.25076	336.04571	47.19286	115.54114	104.96343	0
611	15.45973	181.44841	165.17501	-98.45407	-72.41663	172.49804	163.54767	328.72268	316.51763	32.5468	105.7771	104.96343	0
612	20.34175	186.33043	165.17501	-103.33609	-72.41663	177.38006	148.90161	314.07662	292.10753	17.90074	100.89508	109.84545	0
613	15.45973	181.44841	165.17501	-98.45407	-72.41663	172.49804	124.49151	289.66652	262.81541	4.88202	96.01306	104.96343	0
614	20.34175	181.44841	160.29299	-98.45407	-68.34828	172.49804	119.60949	284.7845	243.28733	4.88202	105.7771	109.84545	0
615	25.22377	181.44841	155.41097	-103.33609	-64.27993	167.61602	85.43535	260.3744	223.75925	4.88202	105.7771	109.84545	0
616	30.10579	181.44841	150.52895	-103.33609	-59.39791	167.61602	41.49717	235.9643	199.34915	-4.88202	100.89508	119.60949	0
617	44.75185	191.21245	145.64693	-117.98215	-49.63387	167.61602	12.20505	216.43622	179.82107	-14.64606	100.89508	119.60949	0
618	34.98781	181.44841	145.64693	-108.21811	-54.51589	162.734	-11.39138	192.02612	145.64693	-39.05616	86.24902	104.96343	0
619	39.86983	181.44841	140.76491	-108.21811	-49.63387	162.734	-20.34175	172.49804	126.11885	-53.70222	81.367	104.96343	0
620	39.86983	176.56639	135.88289	-108.21811	-49.63387	157.85198	-44.75185	148.08794	106.59077	-63.46626	91.13104	104.96343	0
621	30.10579	166.80235	135.88289	-98.45407	-54.51589	152.96996	-54.51589	133.44188	87.06269	-68.34828	91.13104	109.84545	0
622	25.22377	166.80235	140.76491	-98.45407	-59.39791	152.96996	-54.51589	113.9138	72.41663	-73.2303	91.13104	114.72747	0
623	25.22377	166.80235	140.76491	-98.45407	-59.39791	152.96996	-44.75185	99.26774	57.77057	-78.11232	81.367	114.72747	0
624	30.10579	166.80235	135.88289	-98.45407	-54.51589	152.96996	-30.10579	79.73966	38.24249	-97.6404	66.72094	109.84545	0
625	34.98781	157.03831	121.23683	-98.45407	-44.75185	138.3239	-11.39138	60.21158	13.83239	-112.28646	47.19286	90.31737	0
626	39.86983	152.15629	111.47279	-93.57205	-34.98781	133.44188	12.20505	45.56552	4.06835	-112.28646	42.31084	80.55333	0
627	44.75185	147.27427	101.70875	-98.45407	-30.10579	123.67784	56.14323	35.80148	-0.81367	-112.28646	42.31084	75.67131	0
628	39.86983	142.39225	101.70875	-88.69003	-30.10579	123.67784	100.08141	21.15542	-8.95037	-122.0505	32.5468	65.90727	0
629	44.75185	132.62821	87.06269	-88.69003	-20.34175	109.03178	148.90161	6.50936	-23.59643	-131.81454	27.66478	56.14323	0
630	34.98781	108.21811	72.41663	-74.04397	-20.34175	89.5037	183.07575	-1.62734	-43.12451	-141.57858	13.01872	46.37919	0
631	30.10579	98.45407	67.53461	-64.27993	-20.34175	84.62168	212.36787	-16.2734	-57.77057	-151.34262	8.95037	41.49717	0
632	15.45973	93.57205	77.29865	-54.51589	-30.10579	84.62168	241.65999	-16.2734	-52.88855	-141.57858	8.95037	41.49717	0
633	20.34175	98.45407	77.29865	-59.39791	-30.10579	89.5037	285.59817	-11.39138	-48.00653	-131.81454	8.95037	36.61515	0
634	25.22377	93.57205	67.53461	-59.39791	-20.34175	79.73966	441.82281	-11.39138	-52.88855	-131.81454	8.95037	31.73313	0
635	10.57771	78.92599	67.53461	-44.75185	-30.10579	74.85764	764.03613	-21.15542	-52.88855	-117.16848	8.95037	31.73313	0
636	10.57771	78.92599	67.53461	-44.75185	-30.10579	74.85764	983.72703	-26.03744	-57.77057	-102.52242	8.95037	26.85111	0
637	10.57771	69.16195	57.77057	-39.86983	-25.22377	65.0936	959.31693	-30.91946	-62.65259	-97.6404	8.95037	17.08707	0
638	10.57771	54.51589	43.93818	-30.10579	-15.45973	50.44754	793.32825	-35.80148	-67.53461	-102.52242	4.88202	12.20505	0
639	5.69569	49.63387	43.93818	-30.10579	-20.34175	45.56552	568.75533	-35.80148	-67.53461	-102.52242	0	12.20505	0
640	0.81367	49.63387	48.00653	-25.22377	-25.22377	50.44754	300.24423	-45.56552	-67.53461	-102.52242	-4.88202	7.32303	0
641	0.81367	49.63387	48.00653	-25.22377	-25.22377	50.44754	17.08707	-45.56552	-67.53461	-97.6404	-4.88202	3.25468	0
642	5.69569	54.51589	48.00653	-30.10579	-20.34175	50.44754	-254.67871	-30.91946	-62.65259	-92.75838	0	12.20505	0
643	10.57771	64.27993	52.88855	-34.98781	-20.34175	60.21158	-528.07183	-21.15542	-62.65259	-82.99434	4.88202	12.20505	0
644	5.69569	59.39791	52.88855	-34.98781	-25.22377	55.32956	-806.34697	-26.03744	-62.65259	-78.11232	0	3.25468	0
645	0.81367	44.75185	43.93818	-20.34175	-20.34175	45.56552	-1060.21201	-35.80148	-57.77057	-78.11232	0	-5.69569	0
646	0.81367	39.86983	39.86983	-20.34175	-20.34175	40.6835	-1275.02089	-30.91946	-48.00653	-53.70222	8.95037	-0.81367	0
647	-4.06835	39.86983	43.93818	-20.34175	-25.22377	40.6835	-1460.53765	-30.91946	-43.12451	-43.93818	8.95037	-0.81367	0
648	-4.06835	44.75185	48.00653	-20.34175	-25.22377	45.56552	-1616.76229	-26.03744	-43.12451	-34.17414	8.95037	-5.69569	0
649	-8.95037	34.98781	43.93818	-10.57771	-25.22377	40.6835	-1748.57683	-21.15542	-38.24249	-29.29212	8.95037	-0.81367	0
650	-13.83239	25.22377	39.86983	-5.69569	-25.22377	30.91946	-1880.39137	-21.15542	-33.36047	-14.64606	8.95037	-0.81367	0
651	-18.71441	10.57771	30.10579	4.06835	-25.22377	21.15542	-1996.74618	-21.15542	-33.36047	-14.64606	8.95037	-5.69569	0
652	-28.47845	-4.06835	25.22377	18.71441	-25.22377	11.39138	-2094.38658	-16.2734	-33.36047	-14.64606	4.88202	-10.57771	0
653	-23.59643	-4.06835	20.34175	13.83239	-20.34175	6.50936	-2167.61688	-11.39138	-33.36047	-4.88202	4.88202	-10.57771	0
654	-23.59643	0.81367	25.22377	8.95037	-25.22377	11.39138	-2245.7292	-1.62734	-28.47845	0	4.88202	-15.45973	-1250	T-0
655	-18.71441	-8.95037	10.57771	13.83239	-15.45973	1.62734	-2323.84152	-6.50936	-28.47845	8.95037	0	-20.34175	0
656	-13.83239	-4.06835	10.57771	8.95037	-10.57771	1.62734	-2382.42576	-6.50936	-23.59643	8.95037	0	-25.22377	0
657	-13.83239	-18.71441	-4.06835	13.83239	-5.69569	-11.39138	-2421.48192	2.44101	-18.71441	22.78276	0	-20.34175	0
658	-13.83239	-23.59643	-8.95037	18.71441	-0.81367	-16.2734	-2441.01	2.44101	-8.95037	42.31084	4.88202	-10.57771	0
659	-8.95037	-18.71441	-8.95037	13.83239	-0.81367	-11.39138	-2475.18414	2.44101	-8.95037	42.31084	4.88202	-15.45973	0
660	-13.83239	-18.71441	-4.06835	13.83239	-5.69569	-11.39138	-2533.76838	2.44101	-18.71441	32.5468	0	-20.34175	0
661	-13.83239	-8.95037	5.69569	8.95037	-10.57771	-2.44101	-2606.99868	2.44101	-13.83239	37.42882	4.88202	-25.22377	0
662	-13.83239	-8.95037	5.69569	8.95037	-10.57771	-2.44101	-2704.63908	2.44101	-8.95037	32.5468	0	-30.10579	0
663	-18.71441	-13.83239	5.69569	18.71441	-10.57771	-2.44101	-2812.04352	2.44101	-13.83239	22.78276	0	-39.86983	0
664	-28.47845	-23.59643	5.69569	28.47845	-15.45973	-6.50936	-2909.68392	2.44101	-8.95037	22.78276	0	-34.98781	0
665	-33.36047	-28.47845	5.69569	28.47845	-20.34175	-11.39138	-2997.56028	2.44101	-8.95037	27.66478	0	-39.86983	0
666	-38.24249	-33.36047	5.69569	38.24249	-20.34175	-11.39138	-3056.14452	2.44101	-4.88202	37.42882	4.88202	-34.98781	0
667	-38.24249	-33.36047	5.69569	38.24249	-20.34175	-11.39138	-3075.6726	2.44101	-4.88202	37.42882	4.88202	-30.10579	0
668	-28.47845	-33.36047	-4.06835	33.36047	-10.57771	-16.2734	-3065.90856	11.39138	-0.81367	42.31084	8.95037	-30.10579	0
669	-23.59643	-28.47845	-4.06835	23.59643	-10.57771	-16.2734	-3046.38048	16.2734	4.06835	47.19286	8.95037	-25.22377	0
670	-33.36047	-33.36047	0.81367	33.36047	-15.45973	-16.2734	-3036.61644	16.2734	8.95037	47.19286	4.88202	-30.10579	0
671	-28.47845	-33.36047	-4.06835	33.36047	-10.57771	-16.2734	-3070.79058	11.39138	8.95037	37.42882	0	-34.98781	0
672	-8.95037	-13.83239	-4.06835	13.83239	-0.81367	-6.50936	-3144.02088	16.2734	13.83239	42.31084	8.95037	-30.10579	0
673	-4.06835	-4.06835	0.81367	4.06835	-0.81367	-2.44101	-3241.66128	21.15542	13.83239	47.19286	8.95037	-25.22377	0
674	-13.83239	-18.71441	-4.06835	13.83239	-5.69569	-11.39138	-3358.82976	16.2734	8.95037	42.31084	8.95037	-25.22377	0
675	-33.36047	-33.36047	0.81367	33.36047	-15.45973	-16.2734	-3480.88026	2.44101	-0.81367	42.31084	4.88202	-34.98781	0
676	-43.12451	-33.36047	10.57771	38.24249	-25.22377	-11.39138	-3588.2847	2.44101	-0.81367	47.19286	0	-34.98781	0
677	-33.36047	-8.95037	25.22377	18.71441	-30.10579	6.50936	-3685.9251	6.50936	4.06835	52.07488	4.88202	-30.10579	0
678	-23.59643	5.69569	30.10579	8.95037	-25.22377	16.2734	-3768.91944	6.50936	8.95037	56.9569	4.88202	-30.10579	0
679	-33.36047	-8.95037	25.22377	18.71441	-30.10579	6.50936	-3832.3857	6.50936	13.83239	52.07488	4.88202	-30.10579	0
680	-33.36047	-13.83239	20.34175	23.59643	-25.22377	1.62734	-3866.55984	11.39138	18.71441	52.07488	8.95037	-34.98781	0
681	-28.47845	-13.83239	15.45973	23.59643	-20.34175	1.62734	-3890.96994	11.39138	23.59643	61.83892	8.95037	-30.10579	0
682	-33.36047	-8.95037	25.22377	18.71441	-30.10579	6.50936	-3905.616	11.39138	18.71441	47.19286	4.88202	-34.98781	0
683	-28.47845	-8.95037	20.34175	18.71441	-25.22377	6.50936	-3920.26206	21.15542	13.83239	32.5468	-4.88202	-34.98781	0
684	-23.59643	-13.83239	10.57771	18.71441	-15.45973	-2.44101	-3925.14408	26.03744	18.71441	37.42882	-4.88202	-39.86983	0
685	-23.59643	-13.83239	10.57771	18.71441	-15.45973	-2.44101	-3925.14408	21.15542	18.71441	47.19286	-4.88202	-34.98781	0
686	-28.47845	-8.95037	20.34175	18.71441	-25.22377	6.50936	-3925.14408	16.2734	8.95037	47.19286	-4.88202	-39.86983	0
687	-38.24249	-8.95037	30.10579	23.59643	-34.98781	11.39138	-3925.14408	11.39138	8.95037	52.07488	-9.76404	-39.86983	0
688	-38.24249	-4.06835	34.98781	23.59643	-34.98781	16.2734	-3910.49802	11.39138	8.95037	47.19286	-14.64606	-44.75185	0
689	-38.24249	5.69569	43.93818	18.71441	-39.86983	26.03744	-3886.08792	11.39138	13.83239	52.07488	-14.64606	-44.75185	0
690	-48.00653	5.69569	52.88855	23.59643	-49.63387	30.91946	-3851.91378	2.44101	18.71441	47.19286	-9.76404	-44.75185	0
691	-43.12451	15.45973	57.77057	13.83239	-49.63387	35.80148	-3812.85762	2.44101	18.71441	47.19286	-4.88202	-44.75185	0
692	-48.00653	20.34175	67.53461	13.83239	-59.39791	45.56552	-3773.80146	2.44101	18.71441	42.31084	-14.64606	-49.63387	0
693	-48.00653	15.45973	62.65259	18.71441	-54.51589	40.6835	-3729.86328	2.44101	18.71441	37.42882	-19.52808	-54.51589	0
694	-48.00653	20.34175	67.53461	13.83239	-59.39791	45.56552	-3695.68914	2.44101	18.71441	37.42882	-19.52808	-54.51589	0
695	-52.88855	20.34175	72.41663	13.83239	-64.27993	45.56552	-3676.16106	2.44101	18.71441	32.5468	-24.4101	-59.39791	0
696	-52.88855	20.34175	72.41663	13.83239	-64.27993	45.56552	-3661.515	2.44101	23.59643	37.42882	-14.64606	-49.63387	0
697	-62.65259	5.69569	67.53461	28.47845	-64.27993	35.80148	-3656.63298	2.44101	13.83239	32.5468	-19.52808	-54.51589	0
698	-82.18067	-4.06835	77.29865	43.12451	-77.29865	35.80148	-3632.22288	2.44101	13.83239	32.5468	-24.4101	-54.51589	0
699	-87.06269	-4.06835	82.18067	48.00653	-82.18067	40.6835	-3598.04874	2.44101	8.95037	32.5468	-24.4101	-54.51589	0
700	-82.18067	5.69569	87.06269	38.24249	-82.18067	45.56552	-3563.8746	-1.62734	8.95037	32.5468	-24.4101	-54.51589	0
701	-87.06269	5.69569	91.94471	43.12451	-87.06269	50.44754	-3529.70046	-6.50936	-0.81367	22.78276	-29.29212	-54.51589	0
702	-72.41663	10.57771	82.18067	28.47845	-77.29865	45.56552	-3490.6443	-1.62734	4.06835	22.78276	-29.29212	-44.75185	0
703	-62.65259	20.34175	82.18067	18.71441	-72.41663	50.44754	-3461.35218	2.44101	8.95037	32.5468	-24.4101	-39.86983	0
704	-57.77057	30.10579	87.06269	13.83239	-72.41663	60.21158	-3441.8241	2.44101	4.06835	27.66478	-29.29212	-44.75185	0
705	-67.53461	30.10579	96.82673	18.71441	-82.18067	65.0936	-3407.64996	-1.62734	-0.81367	22.78276	-39.05616	-59.39791	0
706	-72.41663	25.22377	96.82673	23.59643	-82.18067	60.21158	-3353.94774	-1.62734	-4.88202	22.78276	-39.05616	-54.51589	0
707	-72.41663	30.10579	101.70875	18.71441	-87.06269	65.0936	-3261.18936	-1.62734	-4.88202	17.90074	-43.93818	-49.63387	0
708	-87.06269	20.34175	106.59077	33.36047	-96.82673	65.0936	-3153.78492	-1.62734	-4.88202	27.66478	-34.17414	-39.86983	0
709	-87.06269	20.34175	106.59077	33.36047	-96.82673	65.0936	-3061.02654	-1.62734	-4.88202	32.5468	-19.52808	-30.10579	0
710	-91.13104	20.34175	111.47279	33.36047	-101.70875	65.0936	-2992.67826	-6.50936	-4.88202	27.66478	-19.52808	-30.10579	0
711	-91.13104	25.22377	116.35481	33.36047	-101.70875	69.97562	-2938.97604	-16.2734	-4.88202	17.90074	-19.52808	-25.22377	0
712	-82.18067	39.86983	121.23683	18.71441	-101.70875	79.73966	-2895.03786	-11.39138	-4.88202	17.90074	-9.76404	-15.45973	0
713	-62.65259	64.27993	126.11885	-0.81367	-91.94471	94.38572	-2851.09968	-6.50936	-0.81367	22.78276	-4.88202	-10.57771	0
714	-52.88855	78.92599	131.00087	-15.45973	-91.94471	104.14976	-2826.68958	-6.50936	4.06835	22.78276	-14.64606	-10.57771	0
715	-57.77057	83.80801	140.76491	-10.57771	-96.82673	113.9138	-2821.80756	-11.39138	-0.81367	22.78276	-19.52808	-15.45973	0
716	-48.00653	103.33609	150.52895	-25.22377	-96.82673	128.55986	-2821.80756	-6.50936	4.06835	27.66478	-19.52808	-15.45973	0
717	-38.24249	117.98215	155.41097	-39.86983	-96.82673	138.3239	-2816.92554	-6.50936	4.06835	32.5468	-14.64606	-10.57771	0
718	-48.00653	108.21811	155.41097	-30.10579	-101.70875	133.44188	-2812.04352	2.44101	8.95037	37.42882	-4.88202	-0.81367	0
719	-48.00653	113.10013	160.29299	-30.10579	-101.70875	138.3239	-2836.45362	2.44101	8.95037	32.5468	0	-0.81367	0
720	-52.88855	117.98215	170.05703	-34.98781	-111.47279	143.20592	-2885.27382	2.44101	18.71441	42.31084	8.95037	3.25468	0
721	-62.65259	113.10013	174.93905	-25.22377	-116.35481	143.20592	-2943.85806	2.44101	18.71441	47.19286	8.95037	3.25468	0
722	-62.65259	122.86417	184.70309	-30.10579	-121.23683	152.96996	-2997.56028	6.50936	23.59643	52.07488	8.95037	7.32303	0
723	-62.65259	122.86417	184.70309	-30.10579	-121.23683	152.96996	-3056.14452	6.50936	18.71441	52.07488	8.95037	3.25468	0
724	-57.77057	122.86417	179.82107	-30.10579	-116.35481	152.96996	-3109.84674	6.50936	28.47845	61.83892	8.95037	3.25468	0
725	-38.24249	132.62821	170.05703	-44.75185	-101.70875	152.96996	-3144.02088	6.50936	38.24249	76.48498	17.90074	3.25468	0
726	-33.36047	137.51023	170.05703	-54.51589	-101.70875	152.96996	-3168.43098	6.50936	38.24249	71.60296	17.90074	3.25468	0
727	-28.47845	132.62821	160.29299	-49.63387	-91.94471	148.08794	-3178.19502	6.50936	28.47845	61.83892	13.01872	-0.81367	0
728	-28.47845	132.62821	160.29299	-49.63387	-91.94471	148.08794	-3178.19502	2.44101	28.47845	56.9569	13.01872	3.25468	0
729	-28.47845	142.39225	170.05703	-54.51589	-96.82673	157.85198	-3173.313	2.44101	33.36047	56.9569	13.01872	3.25468	0
730	-33.36047	157.03831	189.58511	-64.27993	-111.47279	172.49804	-3183.07704	-1.62734	38.24249	56.9569	22.78276	3.25468	0
731	-33.36047	166.80235	199.34915	-69.16195	-116.35481	182.26208	-3187.95906	-11.39138	33.36047	52.07488	27.66478	3.25468	0
732	-33.36047	166.80235	199.34915	-69.16195	-116.35481	182.26208	-3187.95906	-16.2734	28.47845	52.07488	22.78276	3.25468	0
733	-28.47845	166.80235	194.46713	-69.16195	-111.47279	182.26208	-3178.19502	-21.15542	23.59643	52.07488	22.78276	7.32303	0
734	-18.71441	171.68437	189.58511	-74.04397	-101.70875	182.26208	-3187.95906	-35.80148	13.83239	61.83892	27.66478	12.20505	0
735	-23.59643	166.80235	189.58511	-74.04397	-106.59077	177.38006	-3202.60512	-50.44754	4.06835	56.9569	22.78276	7.32303	0
736	-28.47845	166.80235	194.46713	-69.16195	-111.47279	182.26208	-3207.48714	-60.21158	-0.81367	52.07488	17.90074	12.20505	0
737	-43.12451	181.44841	223.75925	-69.16195	-131.00087	201.79016	-3207.48714	-60.21158	-0.81367	47.19286	17.90074	12.20505	0
738	-38.24249	196.09447	233.52329	-78.92599	-135.88289	216.43622	-3197.7231	-60.21158	4.06835	56.9569	22.78276	17.08707	0
739	-23.59643	196.09447	218.87723	-88.69003	-121.23683	206.67218	-3178.19502	-55.32956	8.95037	56.9569	22.78276	21.96909	0
740	5.69569	200.97649	194.46713	-103.33609	-91.94471	196.90814	-3148.9029	-55.32956	8.95037	52.07488	27.66478	31.73313	0
741	20.34175	200.97649	179.82107	-108.21811	-77.29865	192.02612	-3100.0827	-55.32956	8.95037	56.9569	32.5468	36.61515	0
742	30.10579	196.09447	165.17501	-113.10013	-68.34828	182.26208	-3061.02654	-60.21158	4.06835	52.07488	22.78276	36.61515	0
743	25.22377	181.44841	155.41097	-103.33609	-64.27993	167.61602	-3017.08836	-65.0936	-0.81367	52.07488	17.90074	26.85111	0
744	20.34175	161.92033	140.76491	-88.69003	-59.39791	152.96996	-2929.212	-65.0936	-4.88202	47.19286	17.90074	26.85111	0
745	15.45973	142.39225	126.11885	-78.92599	-54.51589	133.44188	-2792.51544	-69.97562	-4.88202	47.19286	22.78276	31.73313	0
746	10.57771	137.51023	126.11885	-74.04397	-59.39791	133.44188	-2621.64474	-69.97562	-4.88202	42.31084	27.66478	31.73313	0
747	25.22377	137.51023	111.47279	-83.80801	-44.75185	123.67784	-2450.77404	-65.0936	-4.88202	42.31084	32.5468	36.61515	0
748	25.22377	117.98215	91.94471	-74.04397	-34.98781	104.14976	-2294.5494	-65.0936	-8.95037	27.66478	22.78276	31.73313	0
749	15.45973	93.57205	77.29865	-54.51589	-30.10579	84.62168	-2148.0888	-69.97562	-13.83239	17.90074	13.01872	21.96909	0
750	15.45973	74.04397	57.77057	-44.75185	-20.34175	65.0936	-2026.0383	-84.62168	-28.47845	8.95037	8.95037	12.20505	0
751	15.45973	64.27993	48.00653	-39.86983	-15.45973	55.32956	-1914.56551	-84.62168	-33.36047	8.95037	8.95037	12.20505	0
752	39.86983	78.92599	39.86983	-59.39791	-0.81367	60.21158	-1816.92511	-84.62168	-33.36047	8.95037	8.95037	12.20505	0
753	30.10579	59.39791	30.10579	-44.75185	-0.81367	45.56552	-1733.93077	-89.5037	-52.88855	4.88202	0	7.32303	0
754	15.45973	34.98781	20.34175	-25.22377	-0.81367	26.03744	-1665.58249	-99.26774	-57.77057	-4.88202	-9.76404	-0.81367	0
755	15.45973	25.22377	10.57771	-20.34175	4.06835	16.2734	-1611.88027	-104.14976	-57.77057	0	-4.88202	3.25468	0
756	25.22377	34.98781	10.57771	-30.10579	8.95037	21.15542	-1553.29603	-104.14976	-52.88855	-4.88202	0	3.25468	0
757	10.57771	20.34175	10.57771	-15.45973	-0.81367	16.2734	-1509.35785	-104.14976	-57.77057	-14.64606	-9.76404	-0.81367	0
758	-4.06835	-4.06835	0.81367	4.06835	-0.81367	-2.44101	-1460.53765	-94.38572	-62.65259	-19.52808	-9.76404	-5.69569	0
759	5.69569	-8.95037	-13.83239	-0.81367	8.95037	-11.39138	-1445.89159	-84.62168	-52.88855	-14.64606	-9.76404	-5.69569	0
760	5.69569	0.81367	-4.06835	-5.69569	4.06835	-2.44101	-1524.00391	-79.73966	-52.88855	-9.76404	-9.76404	-5.69569	0
761	-4.06835	0.81367	5.69569	-0.81367	-5.69569	1.62734	-1626.52633	-74.85764	-48.00653	-9.76404	-14.64606	-15.45973	0
762	-13.83239	-4.06835	10.57771	8.95037	-10.57771	1.62734	-1719.28471	-74.85764	-48.00653	-9.76404	-19.52808	-25.22377	0
763	-23.59643	-18.71441	5.69569	18.71441	-15.45973	-6.50936	-1772.98693	-74.85764	-52.88855	-9.76404	-24.4101	-30.10579	0
764	-38.24249	-28.47845	10.57771	33.36047	-25.22377	-6.50936	-1812.04309	-74.85764	-57.77057	-14.64606	-39.05616	-39.86983	0
765	-48.00653	-33.36047	15.45973	43.12451	-30.10579	-6.50936	-1860.86329	-79.73966	-57.77057	-24.4101	-48.8202	-54.51589	0
766	-62.65259	-43.12451	20.34175	52.88855	-39.86983	-11.39138	-1914.56551	-84.62168	-57.77057	-29.29212	-48.8202	-54.51589	0
767	-67.53461	-47.19286	20.34175	57.77057	-44.75185	-11.39138	-1963.38571	-79.73966	-52.88855	-34.17414	-48.8202	-59.39791	0
768	-67.53461	-47.19286	20.34175	57.77057	-44.75185	-11.39138	-2006.51022	-74.85764	-52.88855	-43.93818	-63.46626	-69.16195	0
769	-62.65259	-51.26121	10.57771	52.88855	-39.86983	-21.15542	-2035.80234	-79.73966	-57.77057	-53.70222	-73.2303	-83.80801	0
770	-57.77057	-56.14323	0.81367	57.77057	-30.10579	-26.03744	-2045.56638	-84.62168	-62.65259	-43.93818	-73.2303	-83.80801	0
771	-52.88855	-56.14323	-4.06835	52.88855	-25.22377	-30.91946	-2050.4484	-89.5037	-62.65259	-39.05616	-63.46626	-83.80801	0
772	-48.00653	-56.14323	-8.95037	52.88855	-20.34175	-30.91946	-2040.68436	-84.62168	-67.53461	-39.05616	-68.34828	-83.80801	0
773	-43.12451	-61.02525	-18.71441	48.00653	-15.45973	-40.6835	-2026.0383	-84.62168	-77.29865	-43.93818	-78.11232	-88.69003	0
774	-38.24249	-61.02525	-23.59643	48.00653	-10.57771	-40.6835	-2011.39224	-84.62168	-72.41663	-39.05616	-73.2303	-78.92599	0
775	-43.12451	-61.02525	-18.71441	48.00653	-15.45973	-40.6835	-2011.39224	-89.5037	-67.53461	-29.29212	-68.34828	-78.92599	0
776	-43.12451	-65.90727	-23.59643	52.88855	-10.57771	-45.56552	-2001.6282	-84.62168	-57.77057	-9.76404	-63.46626	-69.16195	0
777	-38.24249	-56.14323	-18.71441	48.00653	-10.57771	-35.80148	-1963.38571	-79.73966	-57.77057	8.95037	-63.46626	-64.27993	0
778	-43.12451	-56.14323	-13.83239	48.00653	-15.45973	-35.80148	-1904.80147	-79.73966	-57.77057	37.42882	-63.46626	-64.27993	0
779	-48.00653	-61.02525	-13.83239	52.88855	-20.34175	-35.80148	-1841.33521	-69.97562	-62.65259	71.60296	-58.58424	-64.27993	0
780	-52.88855	-65.90727	-13.83239	57.77057	-20.34175	-40.6835	-1782.75097	-74.85764	-62.65259	100.89508	-58.58424	-69.16195	0
781	-57.77057	-80.55333	-23.59643	66.72094	-20.34175	-50.44754	-1724.16673	-74.85764	-67.53461	125.30518	-63.46626	-69.16195	0
782	-77.29865	-95.19939	-18.71441	85.43535	-30.10579	-55.32956	-1655.81845	-74.85764	-57.77057	149.71528	-58.58424	-74.04397	0
783	-72.41663	-85.43535	-13.83239	75.67131	-30.10579	-50.44754	-1587.47017	-69.97562	-62.65259	169.24336	-58.58424	-74.04397	0
784	-72.41663	-85.43535	-13.83239	75.67131	-30.10579	-50.44754	-1543.53199	-74.85764	-62.65259	183.88942	-63.46626	-78.92599	0
785	-57.77057	-80.55333	-23.59643	66.72094	-20.34175	-50.44754	-1509.35785	-74.85764	-57.77057	198.53548	-58.58424	-74.04397	0
786	-52.88855	-80.55333	-28.47845	62.65259	-15.45973	-55.32956	-1489.82977	-79.73966	-67.53461	208.29952	-63.46626	-74.04397	0
787	-52.88855	-75.67131	-23.59643	62.65259	-15.45973	-50.44754	-1465.41967	-74.85764	-62.65259	218.06356	-58.58424	-64.27993	0
788	-52.88855	-70.78929	-18.71441	57.77057	-20.34175	-45.56552	-1436.12755	-69.97562	-62.65259	222.94558	-53.70222	-64.27993	0
789	-52.88855	-70.78929	-18.71441	57.77057	-20.34175	-45.56552	-1416.59947	-65.0936	-67.53461	227.8276	-58.58424	-64.27993	0
790	-52.88855	-75.67131	-23.59643	62.65259	-15.45973	-50.44754	-1387.30735	-74.85764	-77.29865	237.59164	-58.58424	-69.16195	0
791	-57.77057	-85.43535	-28.47845	70.78929	-15.45973	-55.32956	-1343.36917	-79.73966	-72.41663	247.35568	-58.58424	-69.16195	0
792	-43.12451	-65.90727	-23.59643	52.88855	-10.57771	-45.56552	-1299.43099	-69.97562	-67.53461	257.11972	-53.70222	-64.27993	0
793	-48.00653	-70.78929	-23.59643	57.77057	-15.45973	-45.56552	-1260.37483	-69.97562	-67.53461	257.11972	-58.58424	-64.27993	0
794	-52.88855	-75.67131	-23.59643	62.65259	-15.45973	-50.44754	-1231.08271	-69.97562	-67.53461	252.2377	-68.34828	-74.04397	0
795	-43.12451	-65.90727	-23.59643	52.88855	-10.57771	-45.56552	-1211.55463	-69.97562	-67.53461	257.11972	-68.34828	-88.69003	0
796	-28.47845	-61.02525	-33.36047	43.12451	-0.81367	-45.56552	-1177.38049	-69.97562	-67.53461	262.00174	-63.46626	-93.57205	0
797	-28.47845	-56.14323	-28.47845	43.12451	-0.81367	-40.6835	-1123.67827	-69.97562	-62.65259	266.88376	-58.58424	-88.69003	0
798	-38.24249	-75.67131	-38.24249	57.77057	-0.81367	-55.32956	-1079.74009	-60.21158	-62.65259	271.76578	-53.70222	-78.92599	0
799	-48.00653	-85.43535	-38.24249	66.72094	-5.69569	-60.21158	-1055.32999	-65.0936	-72.41663	266.88376	-63.46626	-78.92599	0
800	-57.77057	-90.31737	-33.36047	70.78929	-15.45973	-60.21158	-1035.80191	-74.85764	-77.29865	266.88376	-68.34828	-83.80801	0
801	-67.53461	-90.31737	-23.59643	75.67131	-25.22377	-55.32956	-1011.39181	-74.85764	-77.29865	266.88376	-68.34828	-88.69003	0
802	-67.53461	-85.43535	-18.71441	75.67131	-25.22377	-50.44754	-986.98171	-65.0936	-72.41663	271.76578	-63.46626	-78.92599	0
803	-77.29865	-90.31737	-13.83239	80.55333	-34.98781	-50.44754	-957.68959	-65.0936	-77.29865	262.00174	-73.2303	-83.80801	0
804	-87.06269	-85.43535	0.81367	85.43535	-44.75185	-40.6835	-903.98737	-65.0936	-72.41663	266.88376	-68.34828	-88.69003	0
805	-87.06269	-80.55333	5.69569	80.55333	-49.63387	-35.80148	-864.93121	-60.21158	-62.65259	276.6478	-63.46626	-78.92599	0
806	-77.29865	-70.78929	5.69569	70.78929	-44.75185	-30.91946	-825.87505	-50.44754	-52.88855	286.41184	-58.58424	-74.04397	0
807	-67.53461	-70.78929	-4.06835	66.72094	-34.98781	-35.80148	-791.70091	-40.6835	-48.00653	286.41184	-58.58424	-64.27993	0
808	-67.53461	-65.90727	0.81367	66.72094	-34.98781	-30.91946	-757.52677	-35.80148	-48.00653	286.41184	-58.58424	-64.27993	0
809	-77.29865	-61.02525	15.45973	66.72094	-49.63387	-21.15542	-713.58859	-40.6835	-52.88855	291.29386	-63.46626	-69.16195	0
810	-82.18067	-51.26121	30.10579	62.65259	-59.39791	-11.39138	-684.29647	-50.44754	-62.65259	281.52982	-78.11232	-69.16195	0
811	-95.19939	-47.19286	48.00653	66.72094	-72.41663	-2.44101	-650.12233	-65.0936	-77.29865	271.76578	-87.87636	-83.80801	0
812	-119.60949	-56.14323	62.65259	85.43535	-91.94471	1.62734	-601.30213	-79.73966	-82.18067	257.11972	-97.6404	-88.69003	0
813	-124.49151	-51.26121	72.41663	80.55333	-101.70875	6.50936	-562.24597	-104.14976	-96.82673	252.2377	-87.87636	-78.92599	0
814	-119.60949	-47.19286	72.41663	80.55333	-96.82673	11.39138	-518.30779	-128.55986	-121.23683	247.35568	-73.2303	-69.16195	0
815	-114.72747	-47.19286	67.53461	75.67131	-91.94471	6.50936	-489.01567	-157.85198	-155.41097	227.8276	-73.2303	-69.16195	0
816	-129.37353	-65.90727	62.65259	95.19939	-96.82673	-2.44101	-445.07749	-182.26208	-184.70309	203.4175	-68.34828	-64.27993	0
817	-148.90161	-109.84545	39.86983	124.49151	-96.82673	-35.80148	-401.13931	-211.5542	-218.87723	169.24336	-73.2303	-59.39791	0
818	-148.90161	-124.49151	25.22377	134.25555	-87.06269	-50.44754	-342.55507	-245.72834	-257.93339	149.71528	-53.70222	-34.98781	0
819	-134.25555	-153.78363	-18.71441	139.13757	-59.39791	-89.5037	-337.67305	-338.48672	-355.57379	115.54114	-39.05616	-5.69569	0
820	-91.13104	-173.31171	-82.18067	129.37353	-5.69569	-128.55986	-376.72921	-489.82934	-506.91641	52.07488	-34.17414	21.96909	0
821	-38.24249	-212.36787	-174.93905	124.49151	67.53461	-192.02612	-435.31345	-675.3461	-677.78711	-9.76404	-39.05616	41.49717	0
822	20.34175	-227.01393	-248.16935	100.08141	131.00087	-235.9643	-503.66173	-855.98084	-843.77579	-68.34828	-19.52808	80.55333	0
823	98.45407	-231.89595	-331.16369	66.72094	213.99521	-279.90248	-586.65607	-1046.37962	-1000.00043	-97.6404	22.78276	129.37353	0
824	200.97649	-202.60383	-404.39399	-0.81367	301.87157	-304.31258	-703.82455	-1251.42446	-1161.10709	-122.0505	91.13104	207.48585	0
825	313.26295	-173.31171	-487.38833	-69.16195	399.51197	-328.72268	-874.69525	-1490.64344	-1351.50587	-161.10666	154.5973	275.83413	0
826	420.66739	-158.66565	-580.14671	-132.62821	497.15237	-367.77884	-1055.32999	-1695.68828	-1502.84849	-185.51676	213.18154	344.18241	0
827	542.71789	-158.66565	-702.19721	-196.09447	619.20287	-431.2451	-1235.96473	-1847.0309	-1615.13495	-205.04484	252.2377	397.88463	0
828	674.53243	-158.66565	-834.01175	-259.56073	751.01741	-494.71136	-1416.59947	-1978.03177	-1727.42141	-244.101	266.88376	432.05877	0
829	801.46495	-163.54767	-965.82629	-318.14497	882.83195	-563.05964	-1602.11623	-2114.72833	-1859.23595	-317.3313	237.59164	436.94079	0
830	908.86939	-192.83979	-1102.52285	-357.20113	1004.88245	-646.05398	-1768.10491	-2212.36873	-1951.99433	-390.5616	154.5973	388.12059	0
831	1006.50979	-275.83413	-1283.15759	-366.96517	1141.57901	-777.86852	-1865.74531	-2256.30691	-1985.3548	-473.55594	4.88202	266.07009	0
832	1050.44797	-422.29473	-1473.55637	-318.14497	1258.74749	-948.73922	-1895.03743	-2227.01479	-1971.52241	-556.55028	-205.04484	90.31737	0
833	1050.44797	-598.04745	-1649.30909	-230.26861	1346.62385	-1124.49194	-1875.50935	-2187.95863	-1942.23029	-634.6626	-400.32564	-88.69003	0
834	1011.39181	-759.15411	-1771.35959	-127.74619	1390.56203	-1266.07052	-1807.16107	-2144.02045	-1903.17413	-707.8929	-561.4323	-249.79669	0
835	928.39747	-827.50239	-1756.71353	-49.63387	1341.74183	-1290.48062	-1694.87461	-2061.02611	-1815.29777	-722.53896	-649.30866	-352.31911	0
836	835.63909	-817.73835	-1654.19111	-10.57771	1244.10143	-1236.7784	-1538.64997	-1930.02524	-1703.01131	-717.65694	-693.24684	-406.02133	0
837	713.58859	-749.39007	-1463.79233	18.71441	1087.87679	-1104.96386	-1338.48715	-1749.3905	-1556.55071	-688.36482	-727.42098	-454.84153	0
838	547.59991	-656.63169	-1205.04527	52.88855	873.06791	-929.21114	-1104.15019	-1534.58162	-1380.79799	-649.30866	-756.7131	-493.89769	0
839	376.72921	-534.58119	-912.12407	75.67131	643.61297	-724.1663	-864.93121	-1324.65476	-1229.45537	-605.37048	-766.47714	-508.54375	0
840	240.03265	-378.35655	-619.20287	66.72094	428.80409	-499.59338	-645.24031	-1119.60992	-1063.46669	-522.37614	-707.8929	-459.72355	0
841	152.15629	-217.24989	-370.21985	28.47845	257.93339	-294.54854	-449.95951	-934.09316	-882.83195	-385.67958	-595.60644	-371.84719	0
842	83.80801	-109.84545	-194.46713	8.95037	135.88289	-152.96996	-298.61689	-763.22246	-716.84327	-248.98302	-478.43796	-279.08881	0
843	44.75185	-38.24249	-82.18067	-5.69569	62.65259	-60.21158	-166.80235	-616.76186	-560.61863	-141.57858	-375.91554	-205.85851	0
844	20.34175	15.45973	-4.06835	-15.45973	13.83239	6.50936	-44.75185	-484.94732	-428.80409	-43.93818	-297.80322	-157.03831	0
845	-4.06835	44.75185	48.00653	-20.34175	-25.22377	45.56552	51.26121	-372.66086	-316.51763	27.66478	-239.21898	-137.51023	0
846	-23.59643	39.86983	62.65259	-10.57771	-44.75185	50.44754	144.01959	-279.90248	-223.75925	86.24902	-209.92686	-132.62821	0
847	-57.77057	15.45973	72.41663	23.59643	-64.27993	45.56552	227.01393	-192.02612	-150.52895	149.71528	-195.2808	-142.39225	0
848	-87.06269	-13.83239	72.41663	52.88855	-77.29865	30.91946	305.12625	-118.79582	-87.06269	208.29952	-185.51676	-152.15629	0
849	-109.84545	-33.36047	77.29865	70.78929	-91.94471	21.15542	383.23857	-55.32956	-33.36047	271.76578	-156.22464	-147.27427	0
850	-119.60949	-38.24249	82.18067	75.67131	-101.70875	21.15542	436.94079	-11.39138	13.83239	340.11406	-122.0505	-132.62821	0
851	-104.96343	-43.12451	62.65259	70.78929	-82.18067	6.50936	475.99695	21.15542	62.65259	393.81628	-78.11232	-108.21811	0
852	-95.19939	-47.19286	48.00653	66.72094	-72.41663	-2.44101	534.58119	60.21158	101.70875	418.22638	-43.93818	-78.92599	0
853	-91.13104	-47.19286	43.93818	66.72094	-68.34828	-2.44101	602.92947	94.38572	121.23683	423.1084	-24.4101	-69.16195	0
854	-77.29865	-43.12451	34.98781	62.65259	-54.51589	-2.44101	646.86765	109.03178	126.11885	408.46234	-24.4101	-59.39791	0
855	-82.18067	-47.19286	34.98781	62.65259	-59.39791	-6.50936	671.27775	113.9138	121.23683	388.93426	-29.29212	-59.39791	0
856	-77.29865	-47.19286	30.10579	62.65259	-54.51589	-6.50936	676.15977	123.67784	121.23683	379.17022	-34.17414	-59.39791	0
857	-87.06269	-47.19286	39.86983	66.72094	-64.27993	-2.44101	676.15977	123.67784	126.11885	379.17022	-43.93818	-64.27993	0
858	-91.13104	-47.19286	43.93818	66.72094	-68.34828	-2.44101	690.80583	138.3239	131.00087	388.93426	-48.8202	-69.16195	0
859	-100.08141	-47.19286	52.88855	70.78929	-77.29865	1.62734	710.33391	148.08794	135.88289	403.58032	-39.05616	-69.16195	0
860	-100.08141	-47.19286	52.88855	70.78929	-77.29865	1.62734	744.50805	157.85198	155.41097	423.1084	-24.4101	-59.39791	0
861	-100.08141	-43.12451	57.77057	70.78929	-77.29865	6.50936	773.80017	162.734	165.17501	437.75446	-19.52808	-59.39791	0
862	-95.19939	-33.36047	62.65259	62.65259	-77.29865	11.39138	793.32825	172.49804	165.17501	442.63648	-14.64606	-59.39791	0
863	-82.18067	-18.71441	62.65259	48.00653	-72.41663	21.15542	812.85633	177.38006	170.05703	437.75446	-14.64606	-64.27993	0
864	-77.29865	-13.83239	62.65259	48.00653	-68.34828	26.03744	822.62037	177.38006	170.05703	437.75446	-14.64606	-64.27993	0
865	-82.18067	-23.59643	57.77057	52.88855	-68.34828	16.2734	827.50239	172.49804	170.05703	432.87244	-19.52808	-64.27993	0
866	-87.06269	-33.36047	52.88855	62.65259	-68.34828	11.39138	827.50239	172.49804	174.93905	427.99042	-19.52808	-64.27993	0
867	-87.06269	-33.36047	52.88855	62.65259	-68.34828	11.39138	832.38441	177.38006	179.82107	427.99042	-24.4101	-64.27993	0
868	-91.13104	-43.12451	48.00653	66.72094	-68.34828	1.62734	837.26643	187.1441	179.82107	432.87244	-24.4101	-69.16195	0
869	-91.13104	-43.12451	48.00653	66.72094	-68.34828	1.62734	856.79451	192.02612	189.58511	437.75446	-24.4101	-69.16195	0
870	-87.06269	-28.47845	57.77057	57.77057	-72.41663	16.2734	871.44057	196.90814	189.58511	447.5185	-29.29212	-69.16195	0
871	-87.06269	-33.36047	52.88855	62.65259	-68.34828	11.39138	886.08663	196.90814	189.58511	442.63648	-24.4101	-64.27993	0
872	-77.29865	-33.36047	43.93818	57.77057	-59.39791	6.50936	910.49673	201.79016	199.34915	452.40052	-14.64606	-54.51589	0
873	-87.06269	-38.24249	48.00653	62.65259	-68.34828	6.50936	925.14279	201.79016	199.34915	457.28254	-9.76404	-54.51589	0
874	-91.13104	-38.24249	52.88855	62.65259	-72.41663	6.50936	939.78885	211.5542	204.23117	457.28254	-4.88202	-49.63387	0
875	-87.06269	-28.47845	57.77057	57.77057	-72.41663	16.2734	934.90683	211.5542	204.23117	452.40052	0	-49.63387	0
876	-82.18067	-23.59643	57.77057	52.88855	-68.34828	16.2734	930.02481	211.5542	209.11319	452.40052	0	-49.63387	0
877	-82.18067	-28.47845	52.88855	52.88855	-68.34828	11.39138	934.90683	221.31824	218.87723	462.16456	8.95037	-39.86983	0
878	-87.06269	-38.24249	48.00653	62.65259	-68.34828	6.50936	939.78885	221.31824	218.87723	457.28254	8.95037	-39.86983	0
879	-72.41663	-13.83239	57.77057	43.12451	-64.27993	21.15542	954.43491	231.08228	233.52329	471.9286	8.95037	-30.10579	0
880	-77.29865	-18.71441	57.77057	48.00653	-68.34828	21.15542	949.55289	226.20026	238.40531	476.81062	13.01872	-34.98781	0
881	-91.13104	-23.59643	67.53461	57.77057	-77.29865	21.15542	949.55289	221.31824	233.52329	471.9286	8.95037	-39.86983	0
882	-100.08141	-23.59643	77.29865	62.65259	-87.06269	26.03744	954.43491	226.20026	233.52329	471.9286	13.01872	-34.98781	0
883	-95.19939	-28.47845	67.53461	57.77057	-82.18067	16.2734	954.43491	231.08228	238.40531	481.69264	13.01872	-34.98781	0
884	-87.06269	-28.47845	57.77057	57.77057	-72.41663	16.2734	959.31693	235.9643	248.16935	491.45668	17.90074	-39.86983	0
885	-91.13104	-18.71441	72.41663	52.88855	-82.18067	26.03744	959.31693	240.84632	253.05137	496.3387	22.78276	-30.10579	0
886	-87.06269	-8.95037	77.29865	48.00653	-82.18067	35.80148	959.31693	240.84632	257.93339	496.3387	22.78276	-34.98781	0
887	-82.18067	-4.06835	77.29865	43.12451	-77.29865	35.80148	973.96299	255.49238	262.81541	506.10274	27.66478	-25.22377	0
888	-77.29865	0.81367	77.29865	38.24249	-77.29865	40.6835	988.60905	265.25642	272.57945	501.22072	27.66478	-20.34175	0
889	-87.06269	-4.06835	82.18067	48.00653	-82.18067	40.6835	993.49107	270.13844	282.34349	501.22072	27.66478	-20.34175	0
890	-91.13104	-4.06835	87.06269	48.00653	-87.06269	40.6835	993.49107	275.02046	287.22551	501.22072	27.66478	-20.34175	0
891	-95.19939	-4.06835	91.94471	48.00653	-91.94471	40.6835	998.37309	279.90248	296.98955	501.22072	22.78276	-25.22377	0
892	-91.13104	0.81367	91.94471	43.12451	-91.94471	45.56552	998.37309	284.7845	301.87157	501.22072	22.78276	-30.10579	0
893	-91.13104	-4.06835	87.06269	48.00653	-87.06269	40.6835	1003.25511	284.7845	306.75359	506.10274	17.90074	-25.22377	0
894	-87.06269	0.81367	87.06269	43.12451	-87.06269	45.56552	1003.25511	299.43056	321.39965	510.98476	22.78276	-20.34175	0
895	-91.13104	0.81367	91.94471	43.12451	-91.94471	45.56552	998.37309	294.54854	326.28167	520.7488	22.78276	-25.22377	0
896	-82.18067	5.69569	87.06269	38.24249	-82.18067	45.56552	1008.13713	304.31258	331.16369	520.7488	22.78276	-30.10579	0
897	-82.18067	10.57771	91.94471	33.36047	-87.06269	50.44754	1013.01915	314.07662	331.16369	520.7488	22.78276	-30.10579	0
898	-95.19939	0.81367	96.82673	43.12451	-96.82673	45.56552	1037.42925	333.6047	336.04571	525.63082	32.5468	-20.34175	0
899	-100.08141	-4.06835	96.82673	52.88855	-96.82673	45.56552	1042.31127	343.36874	336.04571	525.63082	32.5468	-20.34175	0
900	-104.96343	-4.06835	101.70875	52.88855	-101.70875	45.56552	1032.54723	348.25076	340.92773	525.63082	27.66478	-15.45973	0
901	-109.84545	0.81367	111.47279	52.88855	-111.47279	55.32956	1032.54723	358.0148	345.80975	525.63082	32.5468	-10.57771	0
902	-91.13104	20.34175	111.47279	33.36047	-101.70875	65.0936	1047.19329	372.66086	360.45581	545.1589	42.31084	-5.69569	0
903	-82.18067	30.10579	111.47279	23.59643	-96.82673	69.97562	1061.83935	382.4249	375.10187	554.92294	47.19286	3.25468	0
904	-82.18067	34.98781	116.35481	23.59643	-96.82673	74.85764	1061.83935	392.18894	375.10187	559.80496	47.19286	3.25468	0
905	-77.29865	30.10579	106.59077	23.59643	-91.94471	69.97562	1056.95733	397.07096	384.86591	559.80496	47.19286	3.25468	0
906	-77.29865	34.98781	111.47279	23.59643	-91.94471	74.85764	1056.95733	406.835	394.62995	559.80496	47.19286	3.25468	0
907	-72.41663	49.63387	121.23683	8.95037	-96.82673	84.62168	1056.95733	406.835	399.51197	554.92294	47.19286	3.25468	0
908	-82.18067	39.86983	121.23683	18.71441	-101.70875	79.73966	1061.83935	421.48106	399.51197	554.92294	52.07488	3.25468	0
909	-82.18067	44.75185	126.11885	18.71441	-101.70875	84.62168	1066.72137	431.2451	399.51197	559.80496	56.9569	3.25468	0
910	-77.29865	54.51589	131.00087	13.83239	-101.70875	94.38572	1061.83935	441.00914	409.27601	569.569	61.83892	12.20505	0
911	-67.53461	54.51589	121.23683	8.95037	-91.94471	89.5037	1061.83935	450.77318	423.92207	584.21506	71.60296	21.96909	0
912	-77.29865	54.51589	131.00087	13.83239	-101.70875	94.38572	1061.83935	460.53722	433.68611	589.09708	66.72094	21.96909	0
913	-77.29865	54.51589	131.00087	13.83239	-101.70875	94.38572	1061.83935	470.30126	443.45015	593.9791	61.83892	26.85111	0
914	-87.06269	39.86983	126.11885	23.59643	-106.59077	84.62168	1056.95733	470.30126	453.21419	593.9791	66.72094	26.85111	0
915	-87.06269	44.75185	131.00087	23.59643	-106.59077	89.5037	1052.07531	480.0653	453.21419	589.09708	66.72094	21.96909	0
916	-77.29865	59.39791	135.88289	8.95037	-106.59077	99.26774	1056.95733	489.82934	458.09621	584.21506	66.72094	21.96909	0
917	-72.41663	69.16195	140.76491	-0.81367	-106.59077	104.14976	1056.95733	499.59338	462.97823	584.21506	71.60296	26.85111	0
918	-67.53461	69.16195	135.88289	-0.81367	-101.70875	104.14976	1061.83935	509.35742	462.97823	579.33304	71.60296	31.73313	0
919	-67.53461	78.92599	145.64693	-5.69569	-106.59077	113.9138	1052.07531	514.23944	462.97823	579.33304	71.60296	36.61515	0
920	-62.65259	88.69003	150.52895	-15.45973	-106.59077	118.79582	1047.19329	519.12146	472.74227	584.21506	76.48498	46.37919	0
921	-62.65259	93.57205	155.41097	-15.45973	-106.59077	123.67784	1047.19329	524.00348	477.62429	584.21506	86.24902	51.26121	0
922	-62.65259	108.21811	170.05703	-25.22377	-116.35481	138.3239	1042.31127	528.8855	487.38833	593.9791	96.01306	65.90727	0
923	-67.53461	117.98215	184.70309	-25.22377	-126.11885	152.96996	1047.19329	533.76752	487.38833	589.09708	96.01306	70.78929	0
924	-67.53461	122.86417	189.58511	-25.22377	-126.11885	157.85198	1042.31127	524.00348	482.50631	593.9791	100.89508	75.67131	0
925	-62.65259	127.74619	189.58511	-34.98781	-126.11885	157.85198	1032.54723	519.12146	477.62429	593.9791	105.7771	80.55333	0
926	-57.77057	137.51023	194.46713	-39.86983	-126.11885	167.61602	1032.54723	514.23944	467.86025	589.09708	110.65912	85.43535	0
927	-43.12451	137.51023	179.82107	-49.63387	-111.47279	157.85198	1022.78319	514.23944	462.97823	589.09708	115.54114	90.31737	0
928	-38.24249	137.51023	174.93905	-49.63387	-106.59077	157.85198	1022.78319	514.23944	453.21419	579.33304	110.65912	95.19939	0
929	-33.36047	147.27427	179.82107	-59.39791	-106.59077	162.734	1008.13713	504.4754	443.45015	564.68698	105.7771	95.19939	0
930	-33.36047	157.03831	189.58511	-64.27993	-111.47279	172.49804	998.37309	494.71136	433.68611	559.80496	110.65912	100.08141	0
931	-33.36047	157.03831	189.58511	-64.27993	-111.47279	172.49804	983.72703	480.0653	433.68611	554.92294	105.7771	100.08141	0
932	-33.36047	157.03831	189.58511	-64.27993	-111.47279	172.49804	973.96299	470.30126	423.92207	550.04092	105.7771	104.96343	0
933	-18.71441	171.68437	189.58511	-74.04397	-101.70875	182.26208	964.19895	460.53722	419.04005	540.27688	100.89508	109.84545	0
934	-18.71441	176.56639	194.46713	-78.92599	-106.59077	187.1441	949.55289	450.77318	409.27601	530.51284	96.01306	109.84545	0
935	-23.59643	176.56639	199.34915	-78.92599	-111.47279	187.1441	925.14279	426.36308	389.74793	520.7488	91.13104	109.84545	0
936	-23.59643	171.68437	194.46713	-74.04397	-106.59077	182.26208	910.49673	401.95298	375.10187	515.86678	96.01306	114.72747	0
937	-18.71441	171.68437	189.58511	-74.04397	-101.70875	182.26208	895.85067	382.4249	355.57379	506.10274	100.89508	129.37353	0
938	-4.06835	186.33043	189.58511	-93.57205	-96.82673	187.1441	876.32259	367.77884	331.16369	486.57466	96.01306	134.25555	0
939	10.57771	196.09447	184.70309	-103.33609	-87.06269	192.02612	851.91249	348.25076	306.75359	476.81062	96.01306	144.01959	0
940	39.86983	205.85851	165.17501	-122.86417	-64.27993	187.1441	827.50239	323.84066	287.22551	467.04658	100.89508	148.90161	0
941	39.86983	210.74053	170.05703	-122.86417	-64.27993	192.02612	807.97431	309.1946	277.46147	462.16456	105.7771	153.78363	0
942	34.98781	205.85851	170.05703	-122.86417	-68.34828	187.1441	793.32825	284.7845	253.05137	447.5185	105.7771	144.01959	0
943	39.86983	205.85851	165.17501	-122.86417	-64.27993	187.1441	793.32825	270.13844	243.28733	442.63648	105.7771	153.78363	0
944	39.86983	200.97649	160.29299	-117.98215	-59.39791	182.26208	778.68219	250.61036	223.75925	427.99042	100.89508	153.78363	0
945	44.75185	200.97649	155.41097	-122.86417	-54.51589	177.38006	754.27209	231.08228	204.23117	423.1084	100.89508	158.66565	0
946	39.86983	196.09447	155.41097	-117.98215	-59.39791	177.38006	729.86199	211.5542	189.58511	408.46234	96.01306	163.54767	0
947	44.75185	196.09447	150.52895	-122.86417	-54.51589	172.49804	705.45189	192.02612	160.29299	393.81628	91.13104	158.66565	0
948	39.86983	191.21245	150.52895	-113.10013	-54.51589	172.49804	705.45189	172.49804	145.64693	379.17022	86.24902	158.66565	0
949	34.98781	181.44841	145.64693	-108.21811	-54.51589	162.734	690.80583	152.96996	121.23683	369.40618	81.367	153.78363	0
950	39.86983	176.56639	135.88289	-108.21811	-49.63387	157.85198	661.51371	128.55986	101.70875	354.76012	71.60296	144.01959	0
951	49.63387	181.44841	131.00087	-113.10013	-39.86983	157.85198	637.10361	109.03178	82.18067	340.11406	56.9569	139.13757	0
952	49.63387	181.44841	131.00087	-113.10013	-39.86983	157.85198	622.45755	94.38572	62.65259	335.23204	47.19286	134.25555	0
953	39.86983	171.68437	131.00087	-103.33609	-44.75185	152.96996	617.57553	84.62168	57.77057	330.35002	37.42882	124.49151	0
954	34.98781	152.15629	116.35481	-93.57205	-39.86983	133.44188	598.04745	74.85764	48.00653	315.70396	37.42882	124.49151	0
955	34.98781	147.27427	111.47279	-93.57205	-39.86983	128.55986	573.63735	55.32956	33.36047	305.93992	32.5468	119.60949	0
956	39.86983	147.27427	106.59077	-93.57205	-34.98781	128.55986	563.87331	35.80148	23.59643	305.93992	32.5468	109.84545	0
957	44.75185	152.15629	106.59077	-98.45407	-30.10579	128.55986	558.99129	30.91946	13.83239	301.0579	32.5468	104.96343	0
958	44.75185	147.27427	101.70875	-98.45407	-30.10579	123.67784	549.22725	26.03744	8.95037	305.93992	27.66478	100.08141	0
959	39.86983	137.51023	96.82673	-88.69003	-30.10579	118.79582	544.34523	21.15542	4.06835	305.93992	17.90074	100.08141	0
960	34.98781	127.74619	91.94471	-83.80801	-30.10579	109.03178	529.69917	16.2734	-4.88202	301.0579	8.95037	95.19939	0
961	20.34175	113.10013	91.94471	-64.27993	-34.98781	104.14976	510.17109	6.50936	-4.88202	296.17588	8.95037	90.31737	0
962	15.45973	113.10013	96.82673	-64.27993	-39.86983	104.14976	505.28907	2.44101	-4.88202	286.41184	4.88202	85.43535	0
963	5.69569	108.21811	101.70875	-59.39791	-49.63387	104.14976	495.52503	2.44101	-4.88202	286.41184	0	75.67131	0
964	20.34175	108.21811	87.06269	-64.27993	-34.98781	99.26774	490.64301	2.44101	-4.88202	286.41184	0	70.78929	0
965	25.22377	103.33609	77.29865	-64.27993	-25.22377	89.5037	471.11493	2.44101	-4.88202	286.41184	4.88202	61.02525	0
966	30.10579	98.45407	67.53461	-64.27993	-20.34175	84.62168	461.35089	2.44101	-4.88202	286.41184	4.88202	56.14323	0
967	20.34175	88.69003	67.53461	-54.51589	-25.22377	79.73966	461.35089	2.44101	-4.88202	291.29386	8.95037	56.14323	0
968	15.45973	69.16195	52.88855	-44.75185	-20.34175	60.21158	456.46887	2.44101	-8.95037	296.17588	4.88202	56.14323	0
969	10.57771	64.27993	52.88855	-34.98781	-20.34175	60.21158	446.70483	2.44101	-13.83239	296.17588	-4.88202	51.26121	0
970	10.57771	49.63387	39.86983	-30.10579	-15.45973	45.56552	427.17675	-6.50936	-18.71441	291.29386	-14.64606	41.49717	0
971	10.57771	39.86983	30.10579	-25.22377	-10.57771	35.80148	412.53069	-6.50936	-23.59643	291.29386	-19.52808	41.49717	0
972	5.69569	44.75185	39.86983	-25.22377	-15.45973	40.6835	407.64867	-1.62734	-18.71441	301.0579	-14.64606	46.37919	0
973	-8.95037	30.10579	39.86983	-10.57771	-25.22377	35.80148	402.76665	-1.62734	-18.71441	301.0579	-9.76404	41.49717	0
974	-13.83239	20.34175	34.98781	-5.69569	-25.22377	26.03744	402.76665	-1.62734	-18.71441	305.93992	-4.88202	36.61515	0
975	-13.83239	10.57771	25.22377	-0.81367	-20.34175	16.2734	397.88463	-1.62734	-23.59643	301.0579	-4.88202	26.85111	0
976	-13.83239	10.57771	25.22377	-0.81367	-20.34175	16.2734	393.00261	2.44101	-18.71441	301.0579	-9.76404	26.85111	0
977	-8.95037	20.34175	30.10579	-5.69569	-20.34175	26.03744	402.76665	11.39138	-8.95037	310.82194	0	31.73313	0
978	0.81367	30.10579	30.10579	-15.45973	-15.45973	30.91946	402.76665	21.15542	-4.88202	325.468	4.88202	31.73313	0
979	-4.06835	25.22377	30.10579	-10.57771	-15.45973	26.03744	388.12059	21.15542	-4.88202	315.70396	-4.88202	17.08707	0
980	-4.06835	34.98781	39.86983	-15.45973	-20.34175	35.80148	378.35655	16.2734	-4.88202	315.70396	-9.76404	12.20505	0
981	-4.06835	25.22377	30.10579	-10.57771	-15.45973	26.03744	363.71049	11.39138	-4.88202	315.70396	-14.64606	7.32303	0
982	0.81367	30.10579	30.10579	-15.45973	-15.45973	30.91946	368.59251	21.15542	8.95037	335.23204	-4.88202	21.96909	0
983	0.81367	25.22377	25.22377	-10.57771	-10.57771	26.03744	368.59251	26.03744	13.83239	340.11406	-4.88202	21.96909	0
984	-13.83239	5.69569	20.34175	4.06835	-15.45973	11.39138	358.82847	30.91946	8.95037	335.23204	-9.76404	17.08707	0
985	-18.71441	-4.06835	15.45973	13.83239	-15.45973	6.50936	353.94645	30.91946	4.06835	335.23204	-14.64606	7.32303	0
