samplenr	I	II	III	aVR	aVL	aVF	V1	V2	V3	V4	V5	V6	measurement
0	-4.88202	-50.44754	-45.56552	26.03744	20.34175	-46.37919	-21.15542	-90.31737	-55.32956	-126.11885	-103.33609	-65.0936	0
1	2.44101	-43.12451	-45.56552	18.71441	22.78276	-43.93818	-16.2734	-85.43535	-50.44754	-121.23683	-100.89508	-62.65259	0
2	12.20505	-33.36047	-45.56552	8.95037	27.66478	-39.05616	-13.83239	-80.55333	-48.00653	-118.79582	-98.45407	-60.21158	0
3	14.64606	-28.47845	-43.12451	6.50936	27.66478	-34.17414	-8.95037	-80.55333	-48.00653	-118.79582	-98.45407	-57.77057	0
4	9.76404	-30.91946	-40.6835	8.95037	25.22377	-34.17414	-8.95037	-80.55333	-50.44754	-121.23683	-96.01306	-60.21158	0
5	4.88202	-35.80148	-40.6835	13.83239	22.78276	-36.61515	-8.95037	-82.99434	-50.44754	-121.23683	-98.45407	-62.65259	0
6	2.44101	-35.80148	-38.24249	16.2734	20.34175	-36.61515	-8.95037	-82.99434	-50.44754	-121.23683	-98.45407	-62.65259	0
7	-2.44101	-35.80148	-33.36047	18.71441	15.45973	-34.17414	-6.50936	-82.99434	-50.44754	-121.23683	-98.45407	-62.65259	0
8	2.44101	-33.36047	-35.80148	13.83239	17.90074	-34.17414	-6.50936	-82.99434	-50.44754	-121.23683	-98.45407	-62.65259	0
9	2.44101	-33.36047	-35.80148	13.83239	17.90074	-34.17414	-11.39138	-82.99434	-50.44754	-118.79582	-98.45407	-62.65259	0
10	0	-35.80148	-35.80148	16.2734	17.90074	-34.17414	-11.39138	-82.99434	-50.44754	-121.23683	-98.45407	-62.65259	0
11	-4.88202	-40.6835	-35.80148	21.15542	15.45973	-36.61515	-16.2734	-85.43535	-50.44754	-123.67784	-100.89508	-62.65259	0
12	-8.1367	-48.00653	-40.6835	26.03744	15.45973	-43.93818	-18.71441	-85.43535	-55.32956	-126.11885	-103.33609	-65.0936	0
13	-8.1367	-45.56552	-38.24249	26.03744	15.45973	-41.49717	-18.71441	-85.43535	-55.32956	-126.11885	-103.33609	-62.65259	0
14	-8.1367	-45.56552	-38.24249	26.03744	15.45973	-41.49717	-21.15542	-87.87636	-57.77057	-131.00087	-103.33609	-67.53461	0
15	-13.01872	-52.88855	-40.6835	30.91946	13.01872	-46.37919	-23.59643	-90.31737	-60.21158	-133.44188	-105.7771	-69.97562	0
16	-17.90074	-55.32956	-38.24249	35.80148	10.57771	-46.37919	-23.59643	-92.75838	-62.65259	-133.44188	-105.7771	-69.97562	0
17	-22.78276	-55.32956	-33.36047	38.24249	5.69569	-43.93818	-21.15542	-90.31737	-60.21158	-131.00087	-103.33609	-67.53461	0
18	-22.78276	-55.32956	-33.36047	38.24249	5.69569	-43.93818	-21.15542	-90.31737	-60.21158	-128.55986	-103.33609	-67.53461	0
19	-15.45973	-50.44754	-35.80148	30.91946	10.57771	-43.93818	-21.15542	-90.31737	-60.21158	-126.11885	-103.33609	-62.65259	0
20	-10.57771	-48.00653	-38.24249	28.47845	13.01872	-43.93818	-18.71441	-87.87636	-55.32956	-123.67784	-103.33609	-57.77057	0
21	-13.01872	-45.56552	-33.36047	28.47845	10.57771	-39.05616	-13.83239	-82.99434	-48.00653	-121.23683	-100.89508	-52.88855	0
22	-15.45973	-48.00653	-33.36047	30.91946	8.1367	-41.49717	-13.83239	-80.55333	-48.00653	-121.23683	-103.33609	-52.88855	0
23	-10.57771	-43.12451	-33.36047	26.03744	10.57771	-39.05616	-11.39138	-78.11232	-45.56552	-118.79582	-100.89508	-50.44754	0
24	-15.45973	-43.12451	-28.47845	28.47845	5.69569	-36.61515	-8.95037	-78.11232	-45.56552	-118.79582	-100.89508	-52.88855	0
25	-22.78276	-48.00653	-26.03744	33.36047	0.81367	-36.61515	-8.95037	-78.11232	-45.56552	-121.23683	-103.33609	-57.77057	0
26	-25.22377	-55.32956	-30.91946	38.24249	3.25468	-43.93818	-13.83239	-82.99434	-50.44754	-123.67784	-103.33609	-65.0936	0
27	-32.5468	-60.21158	-28.47845	45.56552	-1.62734	-43.93818	-16.2734	-82.99434	-50.44754	-126.11885	-105.7771	-67.53461	0
28	-32.5468	-60.21158	-28.47845	45.56552	-1.62734	-43.93818	-16.2734	-80.55333	-48.00653	-123.67784	-103.33609	-67.53461	0
29	-30.10579	-62.65259	-33.36047	45.56552	0.81367	-48.8202	-21.15542	-80.55333	-48.00653	-123.67784	-103.33609	-69.97562	0
30	-32.5468	-65.0936	-33.36047	48.00653	0.81367	-48.8202	-21.15542	-80.55333	-50.44754	-123.67784	-105.7771	-72.41663	0
31	-37.42882	-65.0936	-28.47845	50.44754	-4.06835	-46.37919	-21.15542	-80.55333	-45.56552	-123.67784	-105.7771	-72.41663	0
32	-37.42882	-65.0936	-28.47845	50.44754	-4.06835	-46.37919	-18.71441	-75.67131	-43.12451	-121.23683	-105.7771	-72.41663	0
33	-32.5468	-62.65259	-30.91946	45.56552	-1.62734	-46.37919	-13.83239	-73.2303	-43.12451	-118.79582	-100.89508	-67.53461	0
34	-27.66478	-57.77057	-30.91946	40.6835	0.81367	-43.93818	-8.95037	-68.34828	-38.24249	-118.79582	-98.45407	-67.53461	0
35	-22.78276	-48.00653	-26.03744	33.36047	0.81367	-36.61515	-6.50936	-65.90727	-33.36047	-113.9138	-96.01306	-62.65259	0
36	-17.90074	-40.6835	-23.59643	28.47845	3.25468	-31.73313	-1.62734	-65.90727	-30.91946	-111.47279	-93.57205	-62.65259	0
37	-17.90074	-35.80148	-18.71441	26.03744	0.81367	-26.85111	-1.62734	-63.46626	-28.47845	-109.03178	-88.69003	-57.77057	0
38	-15.45973	-28.47845	-13.83239	21.15542	-1.62734	-21.96909	3.25468	-58.58424	-26.03744	-101.70875	-83.80801	-52.88855	0
39	-10.57771	-16.2734	-6.50936	11.39138	-1.62734	-12.20505	5.69569	-53.70222	-18.71441	-94.38572	-76.48498	-48.00653	0
40	-10.57771	-8.95037	0.81367	8.95037	-7.32303	-4.88202	13.01872	-48.8202	-13.83239	-89.5037	-71.60296	-40.6835	0
41	-4.88202	-1.62734	3.25468	3.25468	-4.06835	2.44101	13.01872	-43.93818	-8.95037	-89.5037	-71.60296	-38.24249	0
42	-2.44101	8.95037	11.39138	-4.06835	-7.32303	10.57771	20.34175	-36.61515	-4.06835	-84.62168	-66.72094	-33.36047	0
43	-2.44101	18.71441	21.15542	-8.95037	-12.20505	20.34175	27.66478	-31.73313	0.81367	-79.73966	-59.39791	-26.03744	0
44	-8.1367	23.59643	30.91946	-8.95037	-19.52808	27.66478	32.5468	-26.85111	5.69569	-79.73966	-56.9569	-26.03744	0
45	-10.57771	28.47845	38.24249	-8.95037	-24.4101	32.5468	37.42882	-21.96909	10.57771	-74.85764	-54.51589	-23.59643	0
46	-10.57771	33.36047	43.12451	-11.39138	-26.85111	37.42882	42.31084	-17.08707	13.83239	-69.97562	-54.51589	-21.15542	0
47	-13.01872	35.80148	48.00653	-11.39138	-29.29212	42.31084	44.75185	-14.64606	16.2734	-67.53461	-49.63387	-21.15542	0
48	-8.1367	43.12451	50.44754	-18.71441	-29.29212	47.19286	49.63387	-9.76404	23.59643	-60.21158	-44.75185	-16.2734	0
49	-8.1367	48.00653	55.32956	-21.15542	-31.73313	52.07488	49.63387	-4.88202	28.47845	-52.88855	-39.86983	-16.2734	0
50	-8.1367	52.88855	60.21158	-23.59643	-34.17414	56.9569	52.07488	0	33.36047	-50.44754	-34.98781	-13.01872	0
51	-2.44101	60.21158	62.65259	-28.47845	-31.73313	61.83892	54.51589	4.88202	38.24249	-45.56552	-30.10579	-8.1367	0
52	2.44101	65.0936	62.65259	-33.36047	-29.29212	64.27993	54.51589	12.20505	43.12451	-40.6835	-27.66478	-3.25468	0
53	7.32303	69.97562	62.65259	-38.24249	-26.85111	66.72094	56.9569	12.20505	43.12451	-38.24249	-21.96909	1.62734	0
54	12.20505	77.29865	65.0936	-45.56552	-26.85111	71.60296	59.39791	14.64606	45.56552	-38.24249	-14.64606	6.50936	0
55	19.52808	89.5037	69.97562	-55.32956	-24.4101	81.367	64.27993	17.08707	50.44754	-33.36047	-7.32303	11.39138	0
56	29.29212	96.82673	67.53461	-62.65259	-19.52808	83.80801	64.27993	17.08707	50.44754	-30.91946	-2.44101	16.2734	0
57	34.17414	94.38572	60.21158	-65.0936	-12.20505	78.92599	56.9569	12.20505	48.00653	-30.91946	-2.44101	16.2734	0
58	29.29212	87.06269	57.77057	-57.77057	-14.64606	74.04397	49.63387	9.76404	45.56552	-30.91946	0	16.2734	0
59	26.85111	77.29865	50.44754	-52.88855	-12.20505	64.27993	37.42882	0	43.12451	-30.91946	0	18.71441	0
60	21.96909	65.0936	43.12451	-43.12451	-9.76404	54.51589	25.22377	-7.32303	38.24249	-33.36047	0	16.2734	0
61	21.96909	57.77057	35.80148	-40.6835	-7.32303	47.19286	15.45973	-12.20505	35.80148	-35.80148	0	13.83239	0
62	14.64606	43.12451	28.47845	-28.47845	-7.32303	37.42882	-1.62734	-19.52808	28.47845	-43.12451	-7.32303	8.95037	0
63	9.76404	28.47845	18.71441	-18.71441	-4.06835	25.22377	-13.83239	-29.29212	21.15542	-48.00653	-9.76404	4.06835	0
64	2.44101	13.83239	11.39138	-8.95037	-4.06835	13.01872	-28.47845	-36.61515	13.83239	-52.88855	-14.64606	-0.81367	0
65	2.44101	6.50936	3.25468	-4.06835	0.81367	5.69569	-36.61515	-43.93818	10.57771	-57.77057	-17.08707	-3.25468	0
66	9.76404	4.06835	-6.50936	-6.50936	8.1367	0	-43.93818	-48.8202	8.1367	-57.77057	-19.52808	-3.25468	0
67	17.08707	6.50936	-11.39138	-11.39138	15.45973	-2.44101	-46.37919	-48.8202	8.1367	-57.77057	-19.52808	-3.25468	0
68	19.52808	8.95037	-11.39138	-13.83239	15.45973	0	-48.8202	-51.26121	5.69569	-55.32956	-19.52808	-3.25468	0
69	24.4101	4.06835	-21.15542	-13.83239	22.78276	-7.32303	-53.70222	-56.14323	0.81367	-55.32956	-21.96909	-3.25468	0
70	29.29212	4.06835	-26.03744	-16.2734	27.66478	-9.76404	-56.14323	-58.58424	-1.62734	-57.77057	-21.96909	-3.25468	0
71	36.61515	4.06835	-33.36047	-21.15542	34.98781	-14.64606	-58.58424	-61.02525	-1.62734	-57.77057	-21.96909	-3.25468	0
72	34.17414	1.62734	-33.36047	-18.71441	34.98781	-14.64606	-58.58424	-58.58424	-4.06835	-57.77057	-21.96909	-0.81367	0
73	34.17414	1.62734	-33.36047	-18.71441	34.98781	-14.64606	-53.70222	-58.58424	-8.95037	-60.21158	-19.52808	1.62734	0
74	34.17414	1.62734	-33.36047	-18.71441	34.98781	-14.64606	-51.26121	-61.02525	-8.95037	-62.65259	-19.52808	-0.81367	0
75	26.85111	-1.62734	-28.47845	-13.83239	27.66478	-14.64606	-51.26121	-63.46626	-11.39138	-65.0936	-19.52808	-3.25468	0
76	26.85111	-4.06835	-30.91946	-11.39138	27.66478	-17.08707	-51.26121	-65.90727	-16.2734	-67.53461	-19.52808	-5.69569	0
77	26.85111	-4.06835	-30.91946	-11.39138	27.66478	-17.08707	-46.37919	-63.46626	-16.2734	-67.53461	-19.52808	-5.69569	0
78	24.4101	-1.62734	-26.03744	-11.39138	25.22377	-12.20505	-43.93818	-63.46626	-16.2734	-65.0936	-19.52808	-5.69569	0
79	21.96909	-1.62734	-23.59643	-11.39138	22.78276	-12.20505	-39.05616	-61.02525	-13.83239	-62.65259	-17.08707	-5.69569	0
80	21.96909	1.62734	-21.15542	-11.39138	22.78276	-9.76404	-34.17414	-58.58424	-11.39138	-62.65259	-17.08707	-5.69569	0
81	17.08707	-1.62734	-18.71441	-8.95037	17.90074	-9.76404	-34.17414	-58.58424	-13.83239	-65.0936	-21.96909	-8.1367	0
82	9.76404	-6.50936	-16.2734	-1.62734	13.01872	-9.76404	-34.17414	-61.02525	-16.2734	-69.97562	-27.66478	-10.57771	0
83	0	-13.83239	-13.83239	6.50936	5.69569	-12.20505	-34.17414	-63.46626	-21.15542	-77.29865	-27.66478	-10.57771	0
84	-10.57771	-21.15542	-11.39138	13.83239	0.81367	-17.08707	-34.17414	-65.90727	-26.03744	-84.62168	-32.5468	-16.2734	0
85	-22.78276	-30.91946	-8.95037	26.03744	-7.32303	-19.52808	-34.17414	-70.78929	-30.91946	-89.5037	-39.86983	-21.15542	0
86	-37.42882	-38.24249	-1.62734	35.80148	-19.52808	-19.52808	-34.17414	-73.2303	-33.36047	-94.38572	-44.75185	-26.03744	0
87	-44.75185	-45.56552	-1.62734	43.12451	-21.96909	-24.4101	-34.17414	-73.2303	-38.24249	-96.82673	-49.63387	-33.36047	0
88	-44.75185	-50.44754	-6.50936	45.56552	-19.52808	-29.29212	-34.17414	-78.11232	-43.12451	-101.70875	-56.9569	-40.6835	0
89	-44.75185	-55.32956	-11.39138	48.00653	-17.08707	-34.17414	-36.61515	-78.11232	-45.56552	-104.14976	-59.39791	-43.12451	0
90	-47.19286	-57.77057	-11.39138	50.44754	-19.52808	-34.17414	-36.61515	-78.11232	-48.00653	-104.14976	-61.83892	-45.56552	0
91	-49.63387	-57.77057	-8.95037	52.88855	-21.96909	-34.17414	-36.61515	-78.11232	-48.00653	-106.59077	-64.27993	-48.00653	0
92	-44.75185	-55.32956	-11.39138	48.00653	-17.08707	-34.17414	-36.61515	-78.11232	-48.00653	-106.59077	-66.72094	-50.44754	0
93	-44.75185	-57.77057	-13.83239	50.44754	-17.08707	-36.61515	-34.17414	-78.11232	-50.44754	-109.03178	-66.72094	-50.44754	0
94	-42.31084	-57.77057	-16.2734	48.00653	-14.64606	-36.61515	-34.17414	-78.11232	-50.44754	-111.47279	-66.72094	-50.44754	0
95	-42.31084	-52.88855	-11.39138	45.56552	-17.08707	-31.73313	-28.47845	-75.67131	-48.00653	-106.59077	-64.27993	-45.56552	0
96	-44.75185	-50.44754	-6.50936	45.56552	-19.52808	-29.29212	-26.03744	-73.2303	-45.56552	-104.14976	-59.39791	-43.12451	0
97	-44.75185	-50.44754	-6.50936	45.56552	-19.52808	-29.29212	-23.59643	-73.2303	-45.56552	-104.14976	-59.39791	-40.6835	0
98	-44.75185	-50.44754	-6.50936	45.56552	-19.52808	-29.29212	-26.03744	-73.2303	-45.56552	-99.26774	-59.39791	-40.6835	0
99	-44.75185	-52.88855	-8.95037	48.00653	-19.52808	-31.73313	-28.47845	-75.67131	-45.56552	-96.82673	-59.39791	-43.12451	0
100	-49.63387	-55.32956	-6.50936	50.44754	-21.96909	-31.73313	-28.47845	-73.2303	-43.12451	-94.38572	-59.39791	-40.6835	1000	P+0
101	-49.63387	-55.32956	-6.50936	50.44754	-21.96909	-31.73313	-30.91946	-73.2303	-43.12451	-94.38572	-59.39791	-40.6835	0
102	-47.19286	-55.32956	-8.95037	50.44754	-19.52808	-31.73313	-30.91946	-73.2303	-43.12451	-94.38572	-59.39791	-40.6835	0
103	-49.63387	-55.32956	-6.50936	50.44754	-21.96909	-31.73313	-34.17414	-75.67131	-48.00653	-99.26774	-59.39791	-38.24249	0
104	-49.63387	-57.77057	-8.95037	52.88855	-21.96909	-34.17414	-34.17414	-80.55333	-50.44754	-104.14976	-61.83892	-43.12451	0
105	-61.83892	-62.65259	-1.62734	60.21158	-31.73313	-31.73313	-34.17414	-80.55333	-50.44754	-106.59077	-64.27993	-43.12451	0
106	-66.72094	-62.65259	3.25468	62.65259	-36.61515	-29.29212	-30.91946	-82.99434	-52.88855	-106.59077	-64.27993	-43.12451	0
107	-71.60296	-67.53461	3.25468	67.53461	-39.05616	-31.73313	-28.47845	-82.99434	-52.88855	-106.59077	-64.27993	-43.12451	0
108	-76.48498	-74.85764	0.81367	74.85764	-39.05616	-36.61515	-26.03744	-85.43535	-55.32956	-106.59077	-66.72094	-45.56552	0
109	-76.48498	-77.29865	-1.62734	74.85764	-39.05616	-39.05616	-26.03744	-85.43535	-52.88855	-104.14976	-69.16195	-45.56552	0
110	-76.48498	-77.29865	-1.62734	74.85764	-39.05616	-39.05616	-18.71441	-80.55333	-48.00653	-99.26774	-66.72094	-43.12451	0
111	-76.48498	-72.41663	3.25468	72.41663	-41.49717	-34.17414	-13.83239	-75.67131	-40.6835	-94.38572	-64.27993	-38.24249	0
112	-78.92599	-72.41663	5.69569	74.85764	-43.93818	-34.17414	-11.39138	-70.78929	-38.24249	-89.5037	-64.27993	-35.80148	0
113	-76.48498	-74.85764	0.81367	74.85764	-39.05616	-36.61515	-8.95037	-65.90727	-38.24249	-87.06269	-64.27993	-30.91946	0
114	-74.04397	-74.85764	-1.62734	72.41663	-36.61515	-39.05616	-8.95037	-65.90727	-35.80148	-87.06269	-61.83892	-30.91946	0
115	-76.48498	-74.85764	0.81367	74.85764	-39.05616	-36.61515	-13.83239	-65.90727	-33.36047	-84.62168	-61.83892	-33.36047	0
116	-69.16195	-65.0936	3.25468	65.0936	-36.61515	-31.73313	-16.2734	-65.90727	-33.36047	-82.18067	-59.39791	-33.36047	0
117	-61.83892	-52.88855	8.95037	55.32956	-36.61515	-21.96909	-18.71441	-65.90727	-30.91946	-79.73966	-56.9569	-28.47845	0
118	-61.83892	-48.00653	13.83239	52.88855	-39.05616	-17.08707	-21.15542	-68.34828	-30.91946	-77.29865	-56.9569	-28.47845	0
119	-59.39791	-48.00653	11.39138	52.88855	-36.61515	-19.52808	-23.59643	-70.78929	-30.91946	-77.29865	-56.9569	-30.91946	0
120	-47.19286	-45.56552	0.81367	45.56552	-24.4101	-21.96909	-28.47845	-73.2303	-33.36047	-79.73966	-59.39791	-33.36047	0
121	-39.86983	-45.56552	-6.50936	40.6835	-17.08707	-26.85111	-28.47845	-73.2303	-33.36047	-84.62168	-64.27993	-35.80148	0
122	-39.86983	-52.88855	-13.83239	45.56552	-14.64606	-34.17414	-39.05616	-73.2303	-38.24249	-91.94471	-71.60296	-43.12451	0
123	-30.10579	-57.77057	-28.47845	43.12451	-1.62734	-43.93818	-21.15542	-68.34828	-43.12451	-77.29865	-56.9569	-48.00653	0
124	-22.78276	-48.00653	-26.03744	33.36047	0.81367	-36.61515	-11.39138	-73.2303	-50.44754	-109.03178	-81.367	-38.24249	0
125	-25.22377	-101.70875	-77.29865	62.65259	25.22377	-90.31737	-21.15542	-68.34828	-60.21158	-135.88289	-108.21811	-65.0936	0
126	-44.75185	-133.44188	-89.5037	87.06269	22.78276	-112.28646	-16.2734	-53.70222	-74.85764	-140.76491	-122.86417	-84.62168	0
127	-15.45973	-133.44188	-118.79582	72.41663	52.07488	-126.93252	-11.39138	-78.11232	-87.06269	-152.96996	-113.10013	-99.26774	0
128	9.76404	-123.67784	-133.44188	55.32956	71.60296	-126.93252	-63.46626	-131.81454	-101.70875	-160.29299	-115.54114	-104.14976	0
129	21.96909	-116.35481	-138.3239	45.56552	78.92599	-126.93252	-124.49151	-173.31171	-111.47279	-116.35481	-74.04397	-55.32956	0
130	-2.44101	-138.3239	-135.88289	69.97562	66.72094	-136.69656	-192.83979	-234.33696	-121.23683	-74.85764	-32.5468	-33.36047	0
131	31.73313	-121.23683	-152.96996	43.12451	91.13104	-136.69656	-256.30605	-278.27514	-152.96996	-21.15542	39.05616	13.83239	0
132	136.69656	-60.21158	-196.90814	-38.24249	166.80235	-126.93252	-317.3313	-339.30039	-152.96996	67.53461	131.81454	72.41663	0
133	263.62908	45.56552	-218.87723	-155.41097	242.47366	-85.43535	-361.26948	-388.12059	-133.44188	204.23117	283.15716	187.1441	0
134	297.80322	82.18067	-216.43622	-189.58511	257.11972	-65.90727	-419.85372	-454.02786	-116.35481	348.25076	446.70483	309.1946	0
135	432.05877	104.14976	-328.72268	-267.69743	381.61123	-112.28646	-519.93513	-561.4323	-150.52895	455.6552	568.75533	387.30692	0
136	558.99129	162.734	-397.07096	-360.45581	479.25163	-117.16848	-610.2525	-646.86765	-187.1441	563.05964	690.80583	458.09621	0
137	568.75533	172.49804	-397.07096	-370.21985	484.13365	-112.28646	-681.04179	-751.83108	-228.64127	646.05398	825.06138	536.20853	0
138	632.22159	226.20026	-406.835	-428.80409	520.7488	-90.31737	-786.00522	-854.3535	-277.46147	687.55115	925.14279	621.64388	0
139	715.21593	311.63561	-404.39399	-514.23944	559.80496	-46.37919	-876.32259	-932.46582	-318.95864	777.86852	1071.60339	755.89943	0
140	761.59512	370.21985	-392.18894	-565.50065	576.89203	-9.76404	-905.61471	-1010.57814	-394.62995	807.16064	1176.56682	841.33478	0
141	768.91815	477.62429	-292.10753	-624.08489	530.51284	93.57205	-927.5838	-1071.60339	-445.89116	829.12973	1286.41227	946.29821	0
142	773.80017	582.58772	-192.02612	-677.78711	484.13365	196.09447	-932.46582	-1135.06965	-511.79843	812.04266	1364.52459	1048.82063	0
143	761.59512	592.35176	-170.05703	-677.78711	467.04658	213.18154	-912.93774	-1169.24379	-570.38267	731.48933	1340.11449	1051.26164	0
144	666.39573	619.20287	-48.00653	-643.61297	357.20113	286.41184	-861.67653	-1196.0949	-638.73095	611.87984	1291.29429	1063.46669	0
145	537.0222	599.67479	62.65259	-567.94166	237.59164	332.79103	-810.41532	-1191.21288	-689.99216	484.94732	1218.06399	1058.58467	0
146	461.35089	502.03439	40.6835	-482.50631	210.74053	271.76578	-746.94906	-1132.62864	-726.60731	318.95864	1061.83935	960.94427	0
147	380.79756	431.2451	50.44754	-406.835	166.80235	242.47366	-654.19068	-1071.60339	-738.81236	106.59077	851.91249	836.45276	0
148	297.80322	301.87157	3.25468	-299.43056	147.27427	154.5973	-556.55028	-927.5838	-677.78711	-55.32956	617.57553	646.05398	0
149	263.62908	211.5542	-52.88855	-238.40531	159.47932	81.367	-485.76099	-842.14845	-692.43317	-240.84632	395.44362	502.03439	0
150	144.01959	155.41097	11.39138	-150.52895	66.72094	83.80801	-375.91554	-751.83108	-724.1663	-438.56813	183.07575	370.21985	0
151	26.85111	99.26774	72.41663	-62.65259	-21.96909	86.24902	-278.27514	-639.54462	-680.22812	-531.32651	29.29212	250.61036	0
152	-32.5468	57.77057	89.5037	-13.83239	-61.02525	74.04397	-175.75272	-537.0222	-631.40792	-558.17762	-59.39791	172.49804	0
153	-152.15629	4.06835	155.41097	72.41663	-153.78363	78.92599	-82.99434	-436.94079	-577.7057	-585.02873	-164.36134	79.73966	0
154	-120.42316	35.80148	155.41097	40.6835	-136.69656	96.01306	32.5468	-339.30039	-519.12146	-609.43883	-240.03265	16.2734	0
155	-157.03831	-6.50936	150.52895	79.73966	-153.78363	71.60296	117.98215	-212.36787	-428.80409	-580.14671	-271.76578	-33.36047	0
156	-220.50457	-60.21158	160.29299	138.3239	-190.39878	49.63387	200.97649	-85.43535	-365.33783	-558.17762	-308.38093	-96.82673	0
157	-252.2377	-79.73966	172.49804	165.17501	-212.36787	47.19286	310.82194	42.31084	-275.02046	-524.00348	-308.38093	-133.44188	0
158	-200.97649	-55.32956	145.64693	126.11885	-173.31171	44.75185	357.20113	137.51023	-199.34915	-511.79843	-347.43709	-184.70309	0
159	-227.8276	-67.53461	160.29299	145.64693	-195.2808	47.19286	410.90335	242.47366	-111.47279	-460.53722	-349.8781	-189.58511	0
160	-262.00174	-94.38572	167.61602	177.38006	-214.80888	37.42882	464.60557	330.35002	-60.21158	-433.68611	-357.20113	-213.99521	0
161	-325.468	-128.55986	196.90814	226.20026	-261.18807	34.98781	537.83587	427.99042	13.83239	-404.39399	-352.31911	-228.64127	0
162	-332.79103	-128.55986	204.23117	228.64127	-268.5111	37.42882	606.18415	506.10274	65.0936	-379.98389	-347.43709	-235.9643	0
163	-330.35002	-138.3239	192.02612	233.52329	-261.18807	27.66478	676.97344	584.21506	116.35481	-360.45581	-347.43709	-248.16935	0
164	-344.99608	-148.08794	196.90814	245.72834	-270.95211	25.22377	777.05485	696.50152	192.02612	-328.72268	-347.43709	-245.72834	0
165	-362.08315	-150.52895	211.5542	255.49238	-288.03918	30.10579	835.63909	696.50152	192.02612	-336.04571	-344.99608	-253.05137	0
166	-369.40618	-152.96996	216.43622	260.3744	-292.9212	32.5468	889.34131	618.3892	128.55986	-326.28167	-340.11406	-257.93339	0
167	-376.72921	-152.96996	223.75925	262.81541	-300.24423	34.98781	921.07444	471.9286	23.59643	-316.51763	-337.67305	-257.93339	0
168	-386.49325	-152.96996	233.52329	267.69743	-310.00827	39.86983	906.42838	457.28254	50.44754	-306.75359	-330.35002	-260.3744	0
169	-388.93426	-150.52895	238.40531	267.69743	-314.89029	44.75185	923.51545	403.58032	26.03744	-299.43056	-325.468	-260.3744	0
170	-386.49325	-140.76491	245.72834	262.81541	-317.3313	52.07488	965.01262	349.8781	8.1367	-294.54854	-315.70396	-253.05137	0
171	-381.61123	-128.55986	253.05137	253.05137	-317.3313	61.83892	982.09969	310.82194	-1.62734	-284.7845	-308.38093	-248.16935	0
172	-384.05224	-118.79582	265.25642	250.61036	-324.65433	74.04397	967.45363	283.97083	-4.06835	-272.57945	-298.61689	-240.84632	0
173	-381.61123	-111.47279	270.13844	245.72834	-327.09534	78.92599	974.77666	240.03265	-1.62734	-257.93339	-286.41184	-231.08228	0
174	-374.2882	-101.70875	272.57945	235.9643	-324.65433	86.24902	979.65868	237.59164	0.81367	-245.72834	-276.6478	-226.20026	0
175	-374.2882	-96.82673	277.46147	233.52329	-327.09534	91.13104	977.21767	230.26861	3.25468	-235.9643	-269.32477	-221.31824	0
176	-374.2882	-96.82673	277.46147	233.52329	-327.09534	91.13104	974.77666	215.62255	3.25468	-226.20026	-262.00174	-218.87723	0
177	-376.72921	-91.94471	284.7845	233.52329	-331.97736	96.01306	977.21767	193.65346	10.57771	-211.5542	-249.79669	-209.11319	0
178	-379.17022	-89.5037	289.66652	233.52329	-334.41837	100.89508	977.21767	188.77144	18.71441	-199.34915	-240.03265	-204.23117	0
179	-379.17022	-89.5037	289.66652	233.52329	-334.41837	100.89508	960.1306	176.56639	23.59643	-187.1441	-232.70962	-201.79016	0
180	-379.17022	-91.94471	287.22551	233.52329	-334.41837	98.45407	967.45363	169.24336	28.47845	-177.38006	-227.8276	-196.90814	0
181	-381.61123	-91.94471	289.66652	235.9643	-336.85938	98.45407	972.33565	161.92033	35.80148	-167.61602	-220.50457	-192.02612	0
182	-384.05224	-96.82673	287.22551	238.40531	-336.85938	96.01306	947.92555	157.03831	43.12451	-157.85198	-215.62255	-187.1441	0
183	-381.61123	-99.26774	282.34349	238.40531	-331.97736	91.13104	921.07444	157.03831	52.88855	-145.64693	-203.4175	-177.38006	0
184	-371.84719	-89.5037	282.34349	228.64127	-327.09534	96.01306	947.92555	161.92033	69.97562	-128.55986	-188.77144	-165.17501	0
185	-352.31911	-74.85764	277.46147	211.5542	-314.89029	100.89508	889.34131	161.92033	84.62168	-109.03178	-174.12538	-152.96996	0
186	-332.79103	-67.53461	265.25642	199.34915	-300.24423	98.45407	823.43404	161.92033	99.26774	-123.67784	-161.92033	-143.20592	0
187	-320.58598	-62.65259	257.93339	189.58511	-290.48019	98.45407	784.37788	166.80235	116.35481	-69.97562	-147.27427	-133.44188	0
188	-301.0579	-52.88855	248.16935	174.93905	-275.83413	98.45407	716.0296	176.56639	140.76491	-45.56552	-127.74619	-116.35481	0
189	-276.6478	-45.56552	231.08228	160.29299	-253.86504	93.57205	635.47627	181.44841	162.734	-18.71441	-110.65912	-104.14976	0
190	-254.67871	-38.24249	216.43622	145.64693	-236.77797	88.69003	554.92294	193.65346	187.1441	6.50936	-91.13104	-87.06269	0
191	-237.59164	-28.47845	209.11319	131.00087	-224.57292	91.13104	481.69264	205.85851	213.99521	33.36047	-69.16195	-69.97562	0
192	-215.62255	-13.83239	201.79016	113.9138	-209.92686	93.57205	423.1084	220.50457	238.40531	60.21158	-52.07488	-52.88855	0
193	-196.09447	-1.62734	194.46713	96.82673	-195.2808	96.01306	352.31911	235.15063	260.3744	82.18067	-34.98781	-33.36047	0
194	-188.77144	4.06835	192.02612	91.94471	-190.39878	98.45407	330.35002	249.79669	287.22551	106.59077	-17.08707	-18.71441	0
195	-174.12538	11.39138	184.70309	79.73966	-178.19373	98.45407	303.49891	264.44275	309.1946	131.00087	0	-5.69569	0
196	-154.5973	16.2734	170.05703	67.53461	-161.10666	93.57205	286.41184	274.20679	326.28167	157.85198	12.20505	6.50936	0
197	-142.39225	21.15542	162.734	60.21158	-151.34262	91.13104	274.20679	286.41184	343.36874	167.61602	24.4101	16.2734	0
198	-137.51023	26.03744	162.734	55.32956	-148.90161	93.57205	257.11972	298.61689	362.89682	189.58511	39.05616	28.47845	0
199	-125.30518	28.47845	152.96996	48.00653	-139.13757	91.13104	191.21245	308.38093	377.54288	206.67218	48.8202	38.24249	0
200	-117.98215	26.03744	143.20592	45.56552	-129.37353	83.80801	176.56639	313.26295	389.74793	216.43622	53.70222	40.6835	0
201	-120.42316	16.2734	135.88289	50.44754	-126.93252	76.48498	166.80235	318.14497	399.51197	223.75925	58.58424	43.12451	0
202	-115.54114	11.39138	126.11885	50.44754	-119.60949	69.16195	157.03831	323.02699	404.39399	231.08228	58.58424	45.56552	0
203	-103.33609	13.83239	116.35481	43.12451	-109.84545	64.27993	142.39225	327.90901	409.27601	238.40531	65.90727	50.44754	0
204	-96.01306	21.15542	116.35481	35.80148	-104.96343	69.16195	135.06922	335.23204	419.04005	245.72834	70.78929	55.32956	0
205	-91.13104	26.03744	116.35481	30.91946	-102.52242	71.60296	125.30518	337.67305	428.80409	255.49238	75.67131	57.77057	0
206	-86.24902	30.91946	116.35481	26.03744	-100.08141	74.04397	115.54114	340.11406	436.12712	262.81541	80.55333	62.65259	0
207	-76.48498	33.36047	109.03178	21.15542	-92.75838	71.60296	108.21811	342.55507	438.56813	267.69743	82.99434	65.0936	0
208	-74.04397	33.36047	106.59077	18.71441	-90.31737	69.16195	98.45407	344.99608	443.45015	272.57945	87.87636	67.53461	0
209	-69.16195	38.24249	106.59077	13.83239	-87.87636	71.60296	91.13104	347.43709	450.77318	279.90248	92.75838	72.41663	0
210	-59.39791	43.12451	101.70875	6.50936	-80.55333	71.60296	86.24902	347.43709	455.6552	287.22551	97.6404	77.29865	0
211	-56.9569	43.12451	99.26774	6.50936	-78.11232	71.60296	78.92599	349.8781	458.09621	287.22551	97.6404	82.18067	0
212	-61.83892	38.24249	99.26774	11.39138	-80.55333	69.16195	71.60296	347.43709	458.09621	289.66652	97.6404	82.18067	0
213	-71.60296	26.03744	96.82673	21.15542	-82.99434	61.83892	66.72094	344.99608	455.6552	287.22551	97.6404	82.18067	0
214	-74.04397	18.71441	91.94471	26.03744	-82.99434	54.51589	61.83892	344.99608	453.21419	282.34349	97.6404	82.18067	0
215	-76.48498	18.71441	94.38572	28.47845	-85.43535	56.9569	61.83892	344.99608	455.6552	287.22551	100.08141	82.18067	0
216	-76.48498	18.71441	94.38572	28.47845	-85.43535	56.9569	59.39791	342.55507	455.6552	289.66652	102.52242	84.62168	0
217	-71.60296	21.15542	91.94471	23.59643	-80.55333	56.9569	56.9569	344.99608	458.09621	294.54854	104.96343	84.62168	0
218	-64.27993	26.03744	89.5037	18.71441	-75.67131	56.9569	54.51589	347.43709	460.53722	299.43056	109.84545	87.06269	0
219	-54.51589	30.91946	84.62168	11.39138	-68.34828	56.9569	49.63387	347.43709	462.97823	304.31258	112.28646	91.94471	0
220	-49.63387	33.36047	82.18067	6.50936	-65.90727	56.9569	49.63387	349.8781	465.41924	306.75359	117.16848	91.94471	0
221	-47.19286	35.80148	82.18067	3.25468	-63.46626	59.39791	47.19286	349.8781	470.30126	311.63561	119.60949	94.38572	0
222	-39.86983	40.6835	79.73966	-1.62734	-58.58424	59.39791	44.75185	357.20113	475.18328	316.51763	124.49151	99.26774	0
223	-32.5468	45.56552	77.29865	-6.50936	-53.70222	61.83892	44.75185	357.20113	475.18328	318.95864	131.81454	104.14976	0
224	-32.5468	48.00653	79.73966	-8.95037	-56.14323	64.27993	39.86983	357.20113	475.18328	318.95864	134.25555	104.14976	0
225	-25.22377	52.88855	77.29865	-13.83239	-51.26121	64.27993	37.42882	357.20113	480.0653	321.39965	139.13757	109.03178	0
226	-22.78276	55.32956	77.29865	-16.2734	-48.8202	66.72094	34.98781	357.20113	480.0653	326.28167	146.4606	113.9138	0
227	-22.78276	55.32956	77.29865	-16.2734	-48.8202	66.72094	32.5468	354.76012	482.50631	328.72268	151.34262	116.35481	0
228	-15.45973	62.65259	77.29865	-23.59643	-46.37919	69.16195	30.10579	354.76012	484.94732	333.6047	158.66565	121.23683	0
229	-8.1367	69.97562	77.29865	-30.91946	-41.49717	74.04397	25.22377	354.76012	487.38833	340.92773	165.98868	128.55986	0
230	0	74.85764	74.85764	-38.24249	-36.61515	76.48498	20.34175	354.76012	487.38833	343.36874	170.8707	131.00087	0
231	0	72.41663	72.41663	-35.80148	-36.61515	74.04397	13.01872	349.8781	487.38833	343.36874	170.8707	133.44188	0
232	-2.44101	69.97562	72.41663	-33.36047	-36.61515	71.60296	8.1367	349.8781	487.38833	343.36874	173.31171	135.88289	0
233	-8.1367	67.53461	74.85764	-30.91946	-41.49717	71.60296	5.69569	347.43709	484.94732	345.80975	178.19373	140.76491	0
234	-13.01872	62.65259	74.85764	-26.03744	-43.93818	69.16195	0.81367	342.55507	484.94732	343.36874	180.63474	143.20592	0
235	-13.01872	55.32956	67.53461	-21.15542	-39.05616	61.83892	-8.95037	337.67305	480.0653	343.36874	180.63474	140.76491	0
236	-17.90074	50.44754	67.53461	-16.2734	-41.49717	59.39791	-16.2734	330.35002	475.18328	343.36874	180.63474	140.76491	0
237	-20.34175	45.56552	65.0936	-13.83239	-41.49717	54.51589	-23.59643	325.468	475.18328	343.36874	185.51676	140.76491	0
238	-20.34175	48.00653	67.53461	-13.83239	-43.93818	56.9569	-28.47845	325.468	475.18328	350.69177	190.39878	148.08794	0
239	-13.01872	55.32956	67.53461	-21.15542	-39.05616	61.83892	-34.17414	325.468	475.18328	358.0148	197.72181	155.41097	0
240	0	62.65259	62.65259	-30.91946	-31.73313	64.27993	-34.17414	325.468	477.62429	362.89682	205.04484	160.29299	0
241	14.64606	74.85764	60.21158	-45.56552	-21.96909	69.16195	-36.61515	325.468	480.0653	367.77884	212.36787	167.61602	0
242	34.17414	87.06269	52.88855	-60.21158	-9.76404	71.60296	-43.93818	325.468	480.0653	372.66086	214.80888	172.49804	0
243	43.93818	96.82673	52.88855	-69.97562	-4.06835	76.48498	-46.37919	323.02699	477.62429	375.10187	222.13191	179.82107	0
244	46.37919	104.14976	57.77057	-74.85764	-4.06835	81.367	-46.37919	320.58598	477.62429	379.98389	229.45494	187.1441	0
245	48.8202	109.03178	60.21158	-79.73966	-4.06835	86.24902	-51.26121	318.14497	477.62429	382.4249	236.77797	192.02612	0
246	51.26121	106.59077	55.32956	-79.73966	-1.62734	81.367	-58.58424	308.38093	472.74227	384.86591	239.21898	196.90814	0
247	56.14323	104.14976	48.00653	-79.73966	5.69569	76.48498	-68.34828	298.61689	465.41924	384.86591	241.65999	199.34915	0
248	61.02525	106.59077	45.56552	-84.62168	8.1367	76.48498	-78.11232	293.73487	460.53722	384.86591	246.54201	204.23117	0
249	63.46626	106.59077	43.12451	-84.62168	10.57771	76.48498	-87.87636	286.41184	458.09621	387.30692	251.42403	211.5542	0
250	65.90727	111.47279	45.56552	-89.5037	10.57771	78.92599	-95.19939	279.08881	455.6552	389.74793	258.74706	221.31824	0
251	68.34828	111.47279	43.12451	-89.5037	13.01872	78.92599	-102.52242	271.76578	453.21419	389.74793	263.62908	226.20026	0
252	75.67131	111.47279	35.80148	-94.38572	20.34175	74.04397	-109.84545	264.44275	448.33217	389.74793	266.07009	233.52329	0
253	78.11232	116.35481	38.24249	-96.82673	20.34175	78.92599	-112.28646	259.56073	441.00914	389.74793	273.39312	240.84632	0
254	82.99434	121.23683	38.24249	-101.70875	22.78276	81.367	-117.16848	249.79669	433.68611	387.30692	278.27514	245.72834	0
255	92.75838	131.00087	38.24249	-111.47279	27.66478	86.24902	-122.0505	242.47366	428.80409	387.30692	283.15716	250.61036	0
256	95.19939	135.88289	40.6835	-116.35481	27.66478	88.69003	-129.37353	230.26861	419.04005	384.86591	288.03918	255.49238	0
257	95.19939	135.88289	40.6835	-116.35481	27.66478	88.69003	-134.25555	220.50457	411.71702	382.4249	292.9212	260.3744	0
258	97.6404	135.88289	38.24249	-116.35481	30.10579	88.69003	-141.57858	208.29952	399.51197	379.98389	295.36221	260.3744	0
259	97.6404	135.88289	38.24249	-116.35481	30.10579	88.69003	-148.90161	196.09447	387.30692	377.54288	297.80322	265.25642	0
260	97.6404	135.88289	38.24249	-116.35481	30.10579	88.69003	-156.22464	186.33043	377.54288	372.66086	300.24423	267.69743	0
261	97.6404	135.88289	38.24249	-116.35481	30.10579	88.69003	-163.54767	174.12538	365.33783	365.33783	300.24423	267.69743	0
262	104.96343	140.76491	35.80148	-123.67784	34.98781	88.69003	-173.31171	159.47932	350.69177	358.0148	297.80322	267.69743	0
263	107.40444	148.08794	40.6835	-128.55986	34.98781	96.01306	-178.19373	149.71528	338.48672	350.69177	300.24423	272.57945	0
264	104.96343	150.52895	45.56552	-128.55986	30.10579	98.45407	-185.51676	137.51023	326.28167	343.36874	300.24423	272.57945	0
265	107.40444	155.41097	48.00653	-131.00087	30.10579	103.33609	-192.83979	125.30518	314.07662	336.04571	300.24423	272.57945	0
266	112.28646	160.29299	48.00653	-135.88289	32.5468	105.7771	-200.16282	110.65912	299.43056	328.72268	297.80322	275.02046	0
267	114.72747	167.61602	52.88855	-140.76491	32.5468	110.65912	-209.92686	96.01306	284.7845	321.39965	297.80322	277.46147	0
268	119.60949	172.49804	52.88855	-145.64693	34.98781	113.10013	-219.6909	83.80801	270.13844	314.07662	295.36221	279.90248	0
269	122.0505	174.93905	52.88855	-148.08794	34.98781	115.54114	-231.89595	66.72094	255.49238	306.75359	292.9212	282.34349	0
270	122.0505	174.93905	52.88855	-148.08794	34.98781	115.54114	-241.65999	54.51589	240.84632	299.43056	292.9212	284.7845	0
271	119.60949	174.93905	55.32956	-148.08794	32.5468	115.54114	-248.98302	39.86983	228.64127	289.66652	290.48019	284.7845	0
272	117.16848	177.38006	60.21158	-148.08794	30.10579	120.42316	-253.86504	30.10579	211.5542	279.90248	285.59817	287.22551	0
273	117.16848	177.38006	60.21158	-148.08794	30.10579	120.42316	-256.30605	17.08707	194.46713	270.13844	285.59817	289.66652	0
274	112.28646	179.82107	67.53461	-145.64693	22.78276	125.30518	-258.74706	4.88202	177.38006	255.49238	280.71615	287.22551	0
275	102.52242	179.82107	77.29865	-140.76491	13.01872	130.1872	-261.18807	-7.32303	162.734	245.72834	278.27514	284.7845	0
276	92.75838	174.93905	82.18067	-133.44188	5.69569	130.1872	-263.62908	-21.96909	145.64693	231.08228	270.95211	282.34349	0
277	87.87636	172.49804	84.62168	-131.00087	3.25468	130.1872	-266.07009	-34.17414	128.55986	221.31824	266.07009	277.46147	0
278	85.43535	172.49804	87.06269	-128.55986	0.81367	130.1872	-266.07009	-43.93818	116.35481	211.5542	261.18807	275.02046	0
279	82.99434	172.49804	89.5037	-128.55986	-1.62734	132.62821	-266.07009	-51.26121	101.70875	199.34915	256.30605	272.57945	0
280	82.99434	170.05703	87.06269	-126.11885	-1.62734	130.1872	-268.5111	-63.46626	89.5037	187.1441	246.54201	265.25642	1500	QRS+0
281	75.67131	162.734	87.06269	-118.79582	-4.06835	125.30518	-268.5111	-73.2303	74.85764	172.49804	236.77797	260.3744	0
282	65.90727	155.41097	89.5037	-111.47279	-12.20505	122.86417	-268.5111	-78.11232	62.65259	160.29299	227.01393	253.05137	0
283	61.02525	148.08794	87.06269	-104.14976	-12.20505	117.98215	-266.07009	-87.87636	48.00653	145.64693	217.24989	248.16935	0
284	58.58424	143.20592	84.62168	-101.70875	-12.20505	115.54114	-261.18807	-95.19939	35.80148	131.00087	205.04484	238.40531	0
285	51.26121	140.76491	89.5037	-96.82673	-19.52808	115.54114	-256.30605	-100.08141	28.47845	123.67784	197.72181	233.52329	0
286	48.8202	140.76491	91.94471	-94.38572	-21.96909	117.98215	-251.42403	-104.96343	18.71441	113.9138	190.39878	228.64127	0
287	51.26121	138.3239	87.06269	-94.38572	-17.08707	113.10013	-244.101	-107.40444	13.83239	106.59077	180.63474	223.75925	0
288	43.93818	128.55986	84.62168	-87.06269	-19.52808	108.21811	-239.21898	-107.40444	8.1367	96.82673	170.8707	216.43622	0
289	31.73313	118.79582	87.06269	-74.85764	-26.85111	103.33609	-234.33696	-109.84545	0.81367	89.5037	161.10666	209.11319	0
290	24.4101	111.47279	87.06269	-67.53461	-31.73313	100.89508	-227.01393	-107.40444	-1.62734	82.18067	153.78363	204.23117	0
291	14.64606	101.70875	87.06269	-57.77057	-36.61515	96.01306	-219.6909	-104.96343	-1.62734	74.85764	146.4606	196.90814	0
292	12.20505	99.26774	87.06269	-55.32956	-36.61515	93.57205	-209.92686	-97.6404	-4.06835	67.53461	139.13757	189.58511	0
293	12.20505	99.26774	87.06269	-55.32956	-36.61515	93.57205	-195.2808	-90.31737	-4.06835	62.65259	134.25555	184.70309	0
294	2.44101	91.94471	89.5037	-48.00653	-43.93818	91.13104	-183.07575	-82.99434	-6.50936	52.88855	126.93252	174.93905	0
295	-8.1367	82.18067	89.5037	-38.24249	-48.8202	86.24902	-173.31171	-80.55333	-6.50936	45.56552	117.16848	165.17501	0
296	-10.57771	79.73966	89.5037	-35.80148	-48.8202	83.80801	-161.10666	-73.2303	-6.50936	40.6835	109.84545	157.85198	0
297	-8.1367	82.18067	89.5037	-38.24249	-48.8202	86.24902	-148.90161	-65.90727	-4.06835	38.24249	102.52242	150.52895	0
298	-8.1367	82.18067	89.5037	-38.24249	-48.8202	86.24902	-139.13757	-58.58424	-4.06835	33.36047	95.19939	140.76491	0
299	-8.1367	74.85764	82.18067	-33.36047	-43.93818	78.92599	-129.37353	-53.70222	-1.62734	30.91946	85.43535	133.44188	0
300	-13.01872	62.65259	74.85764	-26.03744	-43.93818	69.16195	-119.60949	-46.37919	-1.62734	23.59643	75.67131	123.67784	0
301	-20.34175	50.44754	69.97562	-16.2734	-43.93818	59.39791	-107.40444	-41.49717	0.81367	18.71441	65.90727	113.9138	0
302	-27.66478	40.6835	67.53461	-6.50936	-46.37919	54.51589	-97.6404	-31.73313	3.25468	16.2734	58.58424	106.59077	0
303	-34.98781	33.36047	67.53461	0.81367	-51.26121	49.63387	-85.43535	-24.4101	3.25468	13.83239	53.70222	101.70875	0
304	-37.42882	28.47845	65.0936	3.25468	-51.26121	47.19286	-73.2303	-17.08707	5.69569	8.95037	48.8202	94.38572	0
305	-47.19286	21.15542	67.53461	11.39138	-56.14323	44.75185	-65.90727	-12.20505	8.1367	4.06835	41.49717	87.06269	0
306	-52.07488	16.2734	67.53461	16.2734	-58.58424	42.31084	-58.58424	-7.32303	8.1367	4.06835	36.61515	84.62168	0
307	-56.9569	13.83239	69.97562	21.15542	-63.46626	42.31084	-48.8202	0	10.57771	4.06835	34.17414	82.18067	0
308	-61.83892	13.83239	74.85764	23.59643	-68.34828	44.75185	-39.05616	9.76404	16.2734	8.95037	34.17414	79.73966	0
309	-64.27993	13.83239	77.29865	23.59643	-70.78929	44.75185	-34.17414	17.08707	21.15542	8.95037	31.73313	79.73966	0
310	-64.27993	11.39138	74.85764	26.03744	-68.34828	42.31084	-26.03744	21.96909	23.59643	8.95037	31.73313	77.29865	0
311	-61.83892	11.39138	72.41663	23.59643	-65.90727	42.31084	-18.71441	26.85111	28.47845	8.95037	26.85111	74.85764	0
312	-59.39791	11.39138	69.97562	23.59643	-63.46626	39.86983	-13.83239	32.5468	28.47845	6.50936	21.96909	72.41663	0
313	-66.72094	4.06835	69.97562	30.91946	-68.34828	37.42882	-4.06835	32.5468	28.47845	4.06835	19.52808	72.41663	0
314	-76.48498	-1.62734	74.85764	38.24249	-75.67131	37.42882	3.25468	34.98781	28.47845	1.62734	17.08707	67.53461	0
315	-78.92599	-8.95037	69.97562	43.12451	-75.67131	30.10579	10.57771	37.42882	30.91946	1.62734	14.64606	65.0936	0
316	-78.92599	-11.39138	67.53461	43.12451	-73.2303	27.66478	13.01872	34.98781	26.03744	-3.25468	9.76404	60.21158	0
317	-81.367	-16.2734	65.0936	48.00653	-73.2303	25.22377	17.90074	32.5468	26.03744	-3.25468	7.32303	57.77057	0
318	-83.80801	-18.71441	65.0936	50.44754	-75.67131	22.78276	17.90074	32.5468	23.59643	-5.69569	4.88202	55.32956	0
319	-83.80801	-21.15542	62.65259	50.44754	-73.2303	20.34175	20.34175	32.5468	23.59643	-3.25468	2.44101	55.32956	0
320	-88.69003	-26.03744	62.65259	55.32956	-75.67131	17.90074	22.78276	32.5468	26.03744	-3.25468	2.44101	52.88855	0
321	-93.57205	-26.03744	67.53461	57.77057	-80.55333	20.34175	27.66478	34.98781	28.47845	-0.81367	2.44101	52.88855	0
322	-96.01306	-23.59643	72.41663	57.77057	-85.43535	25.22377	30.10579	39.86983	30.91946	-0.81367	2.44101	52.88855	0
323	-96.01306	-26.03744	69.97562	60.21158	-82.99434	22.78276	32.5468	39.86983	28.47845	-3.25468	0	52.88855	0
324	-96.01306	-26.03744	69.97562	60.21158	-82.99434	22.78276	37.42882	39.86983	28.47845	-5.69569	0	50.44754	0
325	-96.01306	-26.03744	69.97562	60.21158	-82.99434	22.78276	37.42882	42.31084	30.91946	-5.69569	0	50.44754	0
326	-93.57205	-23.59643	69.97562	57.77057	-82.99434	22.78276	39.86983	42.31084	30.91946	-5.69569	0	50.44754	0
327	-93.57205	-23.59643	69.97562	57.77057	-82.99434	22.78276	42.31084	39.86983	30.91946	-8.95037	-2.44101	48.00653	0
328	-100.89508	-26.03744	74.85764	62.65259	-87.87636	25.22377	44.75185	39.86983	30.91946	-5.69569	-2.44101	48.00653	0
329	-103.33609	-28.47845	74.85764	65.0936	-90.31737	22.78276	44.75185	42.31084	30.91946	-5.69569	-2.44101	48.00653	0
330	-98.45407	-30.91946	67.53461	62.65259	-82.99434	17.90074	42.31084	39.86983	30.91946	-5.69569	-2.44101	45.56552	0
331	-96.01306	-28.47845	67.53461	60.21158	-82.99434	20.34175	44.75185	42.31084	33.36047	-5.69569	-2.44101	45.56552	0
332	-96.01306	-26.03744	69.97562	60.21158	-82.99434	22.78276	44.75185	42.31084	35.80148	-3.25468	-2.44101	45.56552	0
333	-98.45407	-26.03744	72.41663	60.21158	-85.43535	22.78276	49.63387	44.75185	33.36047	-3.25468	-2.44101	45.56552	0
334	-100.89508	-26.03744	74.85764	62.65259	-87.87636	25.22377	49.63387	42.31084	30.91946	-5.69569	-2.44101	45.56552	0
335	-100.89508	-21.15542	79.73966	60.21158	-90.31737	30.10579	52.07488	44.75185	35.80148	-5.69569	-2.44101	45.56552	0
336	-98.45407	-16.2734	82.18067	55.32956	-90.31737	32.5468	54.51589	42.31084	35.80148	-3.25468	0	45.56552	0
337	-96.01306	-18.71441	77.29865	55.32956	-87.87636	30.10579	49.63387	39.86983	30.91946	-5.69569	-4.88202	40.6835	0
338	-103.33609	-21.15542	82.18067	60.21158	-92.75838	30.10579	49.63387	39.86983	30.91946	-5.69569	-7.32303	40.6835	0
339	-100.89508	-18.71441	82.18067	57.77057	-92.75838	32.5468	47.19286	37.42882	30.91946	-3.25468	-7.32303	40.6835	0
340	-105.7771	-23.59643	82.18067	62.65259	-95.19939	30.10579	47.19286	34.98781	28.47845	-5.69569	-7.32303	38.24249	0
341	-108.21811	-26.03744	82.18067	65.0936	-95.19939	27.66478	47.19286	34.98781	28.47845	-5.69569	-9.76404	35.80148	0
342	-113.10013	-28.47845	84.62168	69.97562	-100.08141	27.66478	49.63387	34.98781	26.03744	-8.95037	-14.64606	35.80148	0
343	-115.54114	-30.91946	84.62168	72.41663	-100.08141	27.66478	52.07488	34.98781	23.59643	-8.95037	-14.64606	35.80148	0
344	-122.86417	-35.80148	87.06269	77.29865	-104.96343	25.22377	52.07488	32.5468	21.15542	-13.83239	-17.08707	30.91946	0
345	-125.30518	-35.80148	89.5037	79.73966	-107.40444	27.66478	52.07488	30.10579	21.15542	-16.2734	-19.52808	30.91946	0
346	-125.30518	-30.91946	94.38572	77.29865	-109.84545	32.5468	54.51589	30.10579	18.71441	-16.2734	-19.52808	30.91946	0
347	-127.74619	-30.91946	96.82673	77.29865	-112.28646	32.5468	54.51589	30.10579	18.71441	-16.2734	-19.52808	30.91946	0
348	-135.06922	-35.80148	99.26774	84.62168	-117.16848	32.5468	52.07488	26.85111	18.71441	-16.2734	-21.96909	28.47845	0
349	-137.51023	-35.80148	101.70875	84.62168	-119.60949	32.5468	49.63387	26.85111	18.71441	-16.2734	-21.96909	28.47845	0
350	-137.51023	-38.24249	99.26774	87.06269	-119.60949	30.10579	49.63387	26.85111	18.71441	-16.2734	-21.96909	26.03744	0
351	-137.51023	-38.24249	99.26774	87.06269	-119.60949	30.10579	49.63387	30.10579	18.71441	-16.2734	-21.96909	26.03744	0
352	-137.51023	-40.6835	96.82673	87.06269	-117.16848	27.66478	49.63387	30.10579	18.71441	-21.15542	-27.66478	23.59643	0
353	-137.51023	-38.24249	99.26774	87.06269	-119.60949	30.10579	54.51589	32.5468	18.71441	-23.59643	-24.4101	28.47845	0
354	-137.51023	-35.80148	101.70875	84.62168	-119.60949	32.5468	61.83892	37.42882	21.15542	-23.59643	-24.4101	28.47845	0
355	-135.06922	-33.36047	101.70875	82.18067	-119.60949	34.98781	66.72094	39.86983	23.59643	-23.59643	-21.96909	28.47845	0
356	-130.1872	-28.47845	101.70875	77.29865	-117.16848	37.42882	71.60296	42.31084	23.59643	-23.59643	-21.96909	30.91946	0
357	-122.86417	-21.15542	101.70875	69.97562	-112.28646	39.86983	74.04397	42.31084	26.03744	-23.59643	-19.52808	33.36047	0
358	-117.98215	-21.15542	96.82673	67.53461	-107.40444	37.42882	74.04397	42.31084	26.03744	-23.59643	-19.52808	30.91946	0
359	-115.54114	-23.59643	91.94471	67.53461	-104.96343	34.98781	69.16195	37.42882	26.03744	-23.59643	-21.96909	26.03744	0
360	-122.86417	-28.47845	94.38572	74.85764	-109.84545	32.5468	66.72094	37.42882	26.03744	-26.03744	-24.4101	23.59643	0
361	-130.1872	-35.80148	94.38572	82.18067	-112.28646	30.10579	66.72094	34.98781	26.03744	-28.47845	-24.4101	21.15542	0
362	-139.95124	-43.12451	96.82673	89.5037	-119.60949	27.66478	64.27993	34.98781	26.03744	-28.47845	-27.66478	21.15542	0
363	-144.83326	-48.00653	96.82673	94.38572	-122.0505	25.22377	61.83892	32.5468	21.15542	-33.36047	-27.66478	21.15542	0
364	-149.71528	-55.32956	94.38572	101.70875	-122.0505	20.34175	61.83892	26.85111	18.71441	-40.6835	-32.5468	16.2734	0
365	-154.5973	-60.21158	94.38572	106.59077	-124.49151	17.90074	59.39791	26.85111	16.2734	-43.12451	-34.98781	11.39138	0
366	-159.47932	-62.65259	96.82673	109.03178	-129.37353	17.90074	59.39791	24.4101	13.83239	-45.56552	-39.86983	11.39138	0
367	-157.03831	-55.32956	101.70875	104.14976	-129.37353	22.78276	66.72094	26.85111	16.2734	-43.12451	-34.98781	13.83239	0
368	-152.15629	-48.00653	104.14976	99.26774	-129.37353	27.66478	69.16195	30.10579	21.15542	-40.6835	-32.5468	16.2734	0
369	-147.27427	-45.56552	101.70875	94.38572	-124.49151	27.66478	69.16195	30.10579	21.15542	-38.24249	-32.5468	16.2734	0
370	-144.83326	-45.56552	99.26774	94.38572	-122.0505	27.66478	69.16195	30.10579	23.59643	-38.24249	-32.5468	13.83239	0
371	-139.95124	-48.00653	91.94471	91.94471	-117.16848	22.78276	64.27993	26.85111	21.15542	-38.24249	-34.98781	8.95037	0
372	-144.83326	-52.88855	91.94471	96.82673	-119.60949	20.34175	61.83892	30.10579	23.59643	-35.80148	-37.42882	8.95037	0
373	-144.83326	-52.88855	91.94471	96.82673	-119.60949	20.34175	61.83892	30.10579	23.59643	-35.80148	-37.42882	11.39138	0
374	-144.83326	-52.88855	91.94471	96.82673	-119.60949	20.34175	64.27993	30.10579	23.59643	-35.80148	-37.42882	8.95037	0
375	-152.15629	-60.21158	91.94471	104.14976	-122.0505	15.45973	61.83892	30.10579	26.03744	-35.80148	-37.42882	8.95037	0
376	-157.03831	-65.0936	91.94471	109.03178	-124.49151	13.01872	61.83892	26.85111	21.15542	-38.24249	-39.86983	6.50936	0
377	-159.47932	-69.97562	89.5037	113.9138	-124.49151	10.57771	59.39791	24.4101	18.71441	-38.24249	-39.86983	6.50936	0
378	-157.03831	-67.53461	89.5037	111.47279	-124.49151	10.57771	59.39791	24.4101	18.71441	-35.80148	-39.86983	6.50936	0
379	-159.47932	-65.0936	94.38572	111.47279	-126.93252	15.45973	59.39791	19.52808	18.71441	-33.36047	-37.42882	4.06835	0
380	-159.47932	-65.0936	94.38572	111.47279	-126.93252	15.45973	56.9569	17.08707	18.71441	-28.47845	-32.5468	6.50936	0
381	-161.92033	-62.65259	99.26774	111.47279	-131.81454	17.90074	54.51589	17.08707	21.15542	-26.03744	-27.66478	11.39138	0
382	-157.03831	-57.77057	99.26774	106.59077	-129.37353	20.34175	52.07488	17.08707	23.59643	-18.71441	-27.66478	13.83239	0
383	-154.5973	-60.21158	94.38572	106.59077	-124.49151	17.90074	49.63387	12.20505	18.71441	-16.2734	-24.4101	18.71441	0
384	-154.5973	-65.0936	89.5037	109.03178	-122.0505	13.01872	47.19286	9.76404	16.2734	-16.2734	-24.4101	18.71441	0
385	-154.5973	-65.0936	89.5037	109.03178	-122.0505	13.01872	44.75185	7.32303	13.83239	-16.2734	-27.66478	16.2734	0
386	-157.03831	-65.0936	91.94471	109.03178	-124.49151	13.01872	44.75185	2.44101	10.57771	-16.2734	-27.66478	16.2734	0
387	-152.15629	-62.65259	89.5037	106.59077	-122.0505	13.01872	42.31084	2.44101	8.1367	-16.2734	-24.4101	18.71441	0
388	-147.27427	-62.65259	84.62168	104.14976	-117.16848	10.57771	42.31084	2.44101	8.1367	-16.2734	-24.4101	16.2734	0
389	-139.95124	-57.77057	82.18067	96.82673	-112.28646	13.01872	42.31084	-2.44101	5.69569	-16.2734	-27.66478	13.83239	0
390	-139.95124	-60.21158	79.73966	99.26774	-109.84545	10.57771	39.86983	-7.32303	0.81367	-16.2734	-27.66478	11.39138	0
391	-144.83326	-62.65259	82.18067	101.70875	-114.72747	10.57771	37.42882	-7.32303	-1.62734	-16.2734	-27.66478	8.95037	0
392	-142.39225	-55.32956	87.06269	96.82673	-114.72747	15.45973	37.42882	-7.32303	-1.62734	-11.39138	-27.66478	8.95037	0
393	-142.39225	-55.32956	87.06269	96.82673	-114.72747	15.45973	37.42882	-9.76404	0.81367	-11.39138	-24.4101	11.39138	0
394	-142.39225	-52.88855	89.5037	96.82673	-117.16848	17.90074	39.86983	-9.76404	3.25468	-8.95037	-21.96909	16.2734	0
395	-142.39225	-52.88855	89.5037	96.82673	-117.16848	17.90074	37.42882	-7.32303	3.25468	-8.95037	-21.96909	16.2734	0
396	-149.71528	-57.77057	91.94471	101.70875	-122.0505	17.90074	37.42882	-7.32303	3.25468	-8.95037	-21.96909	16.2734	0
397	-149.71528	-55.32956	94.38572	101.70875	-122.0505	20.34175	37.42882	-9.76404	0.81367	-8.95037	-19.52808	18.71441	0
398	-144.83326	-55.32956	89.5037	99.26774	-117.16848	17.90074	34.98781	-12.20505	-1.62734	-11.39138	-21.96909	16.2734	0
399	-135.06922	-48.00653	87.06269	89.5037	-112.28646	20.34175	32.5468	-17.08707	-1.62734	-13.83239	-24.4101	13.83239	0
400	-122.86417	-43.12451	79.73966	82.18067	-102.52242	17.90074	32.5468	-21.96909	-4.06835	-16.2734	-24.4101	11.39138	0
401	-115.54114	-43.12451	72.41663	77.29865	-95.19939	15.45973	30.10579	-26.85111	-11.39138	-21.15542	-27.66478	8.95037	0
402	-103.33609	-45.56552	57.77057	72.41663	-80.55333	5.69569	22.78276	-34.17414	-18.71441	-26.03744	-32.5468	1.62734	0
403	-86.24902	-40.6835	45.56552	62.65259	-65.90727	2.44101	20.34175	-39.05616	-21.15542	-26.03744	-34.98781	-0.81367	0
404	-64.27993	-35.80148	28.47845	48.00653	-46.37919	-4.88202	15.45973	-41.49717	-26.03744	-30.91946	-37.42882	-3.25468	0
405	-49.63387	-35.80148	13.83239	40.6835	-31.73313	-12.20505	10.57771	-43.93818	-30.91946	-38.24249	-44.75185	-10.57771	0
406	-37.42882	-35.80148	0.81367	35.80148	-19.52808	-17.08707	8.1367	-46.37919	-35.80148	-43.12451	-52.07488	-13.01872	0
407	-37.42882	-40.6835	-4.06835	38.24249	-17.08707	-21.96909	5.69569	-48.8202	-38.24249	-45.56552	-52.07488	-13.01872	0
408	-32.5468	-45.56552	-13.83239	38.24249	-9.76404	-29.29212	0.81367	-53.70222	-45.56552	-52.88855	-61.83892	-18.71441	0
409	-25.22377	-50.44754	-26.03744	35.80148	0.81367	-39.05616	-6.50936	-58.58424	-50.44754	-60.21158	-64.27993	-26.03744	0
410	-15.45973	-50.44754	-35.80148	30.91946	10.57771	-43.93818	-8.95037	-61.02525	-52.88855	-62.65259	-69.16195	-28.47845	0
411	-8.1367	-52.88855	-45.56552	28.47845	17.90074	-48.8202	-13.83239	-65.90727	-60.21158	-67.53461	-74.04397	-33.36047	0
412	-10.57771	-62.65259	-52.88855	35.80148	20.34175	-58.58424	-23.59643	-70.78929	-65.0936	-72.41663	-81.367	-38.24249	0
413	-10.57771	-69.97562	-60.21158	38.24249	25.22377	-65.90727	-30.91946	-78.11232	-69.97562	-77.29865	-86.24902	-45.56552	0
414	-8.1367	-74.85764	-67.53461	40.6835	30.10579	-70.78929	-36.61515	-85.43535	-74.85764	-82.18067	-91.13104	-50.44754	0
415	2.44101	-74.85764	-77.29865	35.80148	39.86983	-75.67131	-43.93818	-87.87636	-82.18067	-91.94471	-98.45407	-55.32956	0
416	12.20505	-77.29865	-89.5037	30.91946	49.63387	-82.99434	-48.8202	-90.31737	-87.06269	-96.82673	-103.33609	-57.77057	0
417	14.64606	-74.85764	-89.5037	28.47845	52.07488	-80.55333	-48.8202	-92.75838	-89.5037	-96.82673	-103.33609	-57.77057	0
418	19.52808	-74.85764	-94.38572	26.03744	56.9569	-82.99434	-48.8202	-95.19939	-91.94471	-101.70875	-108.21811	-60.21158	0
419	26.85111	-72.41663	-99.26774	21.15542	61.83892	-85.43535	-48.8202	-95.19939	-94.38572	-104.14976	-110.65912	-62.65259	0
420	34.17414	-65.0936	-99.26774	13.83239	66.72094	-80.55333	-48.8202	-100.08141	-94.38572	-104.14976	-110.65912	-62.65259	0
421	41.49717	-62.65259	-104.14976	8.95037	71.60296	-82.99434	-51.26121	-100.08141	-94.38572	-104.14976	-110.65912	-62.65259	0
422	53.70222	-57.77057	-111.47279	0.81367	81.367	-82.99434	-48.8202	-100.08141	-94.38572	-101.70875	-110.65912	-62.65259	0
423	63.46626	-52.88855	-116.35481	-6.50936	88.69003	-82.99434	-51.26121	-100.08141	-94.38572	-99.26774	-108.21811	-65.0936	0
424	70.78929	-52.88855	-123.67784	-8.95037	96.01306	-87.87636	-53.70222	-104.96343	-96.82673	-101.70875	-108.21811	-67.53461	0
425	73.2303	-55.32956	-128.55986	-8.95037	100.89508	-90.31737	-56.14323	-104.96343	-96.82673	-101.70875	-108.21811	-69.97562	0
426	75.67131	-55.32956	-131.00087	-11.39138	103.33609	-92.75838	-56.14323	-104.96343	-101.70875	-104.14976	-110.65912	-74.85764	0
427	75.67131	-55.32956	-131.00087	-11.39138	103.33609	-92.75838	-58.58424	-109.84545	-104.14976	-109.03178	-113.10013	-77.29865	0
428	78.11232	-55.32956	-133.44188	-11.39138	105.7771	-92.75838	-56.14323	-109.84545	-106.59077	-111.47279	-113.10013	-82.18067	0
429	82.99434	-55.32956	-138.3239	-13.83239	110.65912	-95.19939	-56.14323	-112.28646	-109.03178	-113.9138	-115.54114	-84.62168	0
430	85.43535	-57.77057	-143.20592	-13.83239	113.10013	-100.08141	-58.58424	-117.16848	-111.47279	-116.35481	-120.42316	-87.06269	0
431	82.99434	-60.21158	-143.20592	-11.39138	113.10013	-100.08141	-61.02525	-117.16848	-116.35481	-118.79582	-122.86417	-89.5037	0
432	87.87636	-57.77057	-145.64693	-16.2734	115.54114	-100.08141	-61.02525	-117.16848	-116.35481	-118.79582	-122.86417	-89.5037	0
433	90.31737	-55.32956	-145.64693	-18.71441	117.98215	-100.08141	-61.02525	-122.0505	-116.35481	-118.79582	-127.74619	-91.94471	0
434	95.19939	-55.32956	-150.52895	-21.15542	122.86417	-102.52242	-63.46626	-122.0505	-116.35481	-121.23683	-130.1872	-91.94471	0
435	95.19939	-55.32956	-150.52895	-21.15542	122.86417	-102.52242	-63.46626	-119.60949	-116.35481	-121.23683	-130.1872	-91.94471	0
436	90.31737	-55.32956	-145.64693	-18.71441	117.98215	-100.08141	-61.02525	-117.16848	-116.35481	-121.23683	-132.62821	-91.94471	0
437	85.43535	-55.32956	-140.76491	-16.2734	113.10013	-97.6404	-58.58424	-117.16848	-116.35481	-123.67784	-132.62821	-91.94471	0
438	87.87636	-52.88855	-140.76491	-18.71441	113.10013	-95.19939	-58.58424	-117.16848	-116.35481	-126.11885	-132.62821	-94.38572	0
439	95.19939	-48.00653	-143.20592	-23.59643	117.98215	-95.19939	-58.58424	-119.60949	-116.35481	-128.55986	-135.06922	-99.26774	0
440	92.75838	-50.44754	-143.20592	-21.15542	117.98215	-95.19939	-58.58424	-124.49151	-121.23683	-133.44188	-139.95124	-101.70875	0
441	92.75838	-50.44754	-143.20592	-21.15542	117.98215	-95.19939	-58.58424	-124.49151	-123.67784	-133.44188	-139.95124	-104.14976	0
442	97.6404	-48.00653	-145.64693	-26.03744	120.42316	-95.19939	-56.14323	-124.49151	-123.67784	-133.44188	-139.95124	-106.59077	0
443	102.52242	-48.00653	-150.52895	-28.47845	125.30518	-97.6404	-58.58424	-126.93252	-121.23683	-133.44188	-142.39225	-109.03178	0
444	112.28646	-48.00653	-160.29299	-33.36047	135.06922	-102.52242	-61.02525	-129.37353	-126.11885	-135.88289	-147.27427	-113.9138	0
445	112.28646	-55.32956	-167.61602	-28.47845	139.95124	-109.84545	-65.90727	-129.37353	-128.55986	-140.76491	-152.15629	-118.79582	0
446	102.52242	-60.21158	-162.734	-21.15542	132.62821	-109.84545	-65.90727	-129.37353	-131.00087	-143.20592	-152.15629	-118.79582	0
447	95.19939	-62.65259	-157.85198	-16.2734	125.30518	-109.84545	-65.90727	-129.37353	-131.00087	-143.20592	-152.15629	-116.35481	0
448	97.6404	-60.21158	-157.85198	-18.71441	127.74619	-107.40444	-65.90727	-126.93252	-128.55986	-143.20592	-149.71528	-116.35481	-1500	QRS-0
449	100.08141	-57.77057	-157.85198	-21.15542	127.74619	-107.40444	-65.90727	-124.49151	-128.55986	-143.20592	-149.71528	-116.35481	0
450	95.19939	-60.21158	-155.41097	-18.71441	125.30518	-107.40444	-65.90727	-126.93252	-128.55986	-143.20592	-149.71528	-116.35481	0
451	95.19939	-60.21158	-155.41097	-18.71441	125.30518	-107.40444	-65.90727	-126.93252	-131.00087	-143.20592	-147.27427	-116.35481	0
452	90.31737	-62.65259	-152.96996	-13.83239	120.42316	-107.40444	-65.90727	-126.93252	-131.00087	-140.76491	-147.27427	-113.9138	0
453	92.75838	-60.21158	-152.96996	-16.2734	122.86417	-104.96343	-65.90727	-126.93252	-126.11885	-138.3239	-142.39225	-111.47279	0
454	100.08141	-60.21158	-160.29299	-21.15542	130.1872	-109.84545	-68.34828	-126.93252	-126.11885	-138.3239	-142.39225	-111.47279	0
455	104.96343	-60.21158	-165.17501	-23.59643	135.06922	-112.28646	-68.34828	-126.93252	-128.55986	-140.76491	-142.39225	-111.47279	0
456	100.08141	-62.65259	-162.734	-18.71441	130.1872	-112.28646	-68.34828	-126.93252	-128.55986	-140.76491	-142.39225	-111.47279	0
457	92.75838	-69.97562	-162.734	-11.39138	127.74619	-114.72747	-68.34828	-129.37353	-131.00087	-143.20592	-142.39225	-111.47279	0
458	87.87636	-72.41663	-160.29299	-8.95037	122.86417	-114.72747	-65.90727	-129.37353	-131.00087	-145.64693	-142.39225	-111.47279	0
459	97.6404	-62.65259	-160.29299	-18.71441	127.74619	-109.84545	-63.46626	-129.37353	-128.55986	-145.64693	-139.95124	-111.47279	0
460	107.40444	-52.88855	-160.29299	-28.47845	132.62821	-104.96343	-58.58424	-124.49151	-123.67784	-140.76491	-137.51023	-106.59077	0
461	112.28646	-45.56552	-157.85198	-33.36047	135.06922	-100.08141	-56.14323	-122.0505	-123.67784	-140.76491	-135.06922	-104.14976	0
462	114.72747	-43.12451	-157.85198	-35.80148	135.06922	-100.08141	-56.14323	-119.60949	-121.23683	-135.88289	-132.62821	-101.70875	0
463	122.0505	-35.80148	-157.85198	-43.12451	139.95124	-95.19939	-56.14323	-119.60949	-118.79582	-133.44188	-130.1872	-101.70875	0
464	122.0505	-35.80148	-157.85198	-43.12451	139.95124	-95.19939	-56.14323	-117.16848	-116.35481	-131.00087	-130.1872	-99.26774	0
465	117.16848	-35.80148	-152.96996	-40.6835	135.06922	-92.75838	-56.14323	-112.28646	-116.35481	-128.55986	-130.1872	-99.26774	0
466	117.16848	-35.80148	-152.96996	-40.6835	135.06922	-92.75838	-56.14323	-112.28646	-118.79582	-131.00087	-132.62821	-99.26774	0
467	109.84545	-45.56552	-155.41097	-33.36047	132.62821	-100.08141	-58.58424	-114.72747	-121.23683	-133.44188	-135.06922	-104.14976	0
468	97.6404	-55.32956	-152.96996	-21.15542	125.30518	-102.52242	-63.46626	-119.60949	-126.11885	-138.3239	-142.39225	-109.03178	0
469	85.43535	-67.53461	-152.96996	-8.95037	117.98215	-109.84545	-68.34828	-126.93252	-131.00087	-143.20592	-147.27427	-116.35481	0
470	80.55333	-72.41663	-152.96996	-4.06835	115.54114	-112.28646	-73.2303	-131.81454	-135.88289	-145.64693	-152.15629	-121.23683	0
471	78.11232	-72.41663	-150.52895	-4.06835	113.10013	-109.84545	-73.2303	-131.81454	-138.3239	-148.08794	-154.5973	-126.11885	0
472	75.67131	-74.85764	-150.52895	-1.62734	113.10013	-112.28646	-75.67131	-134.25555	-138.3239	-145.64693	-154.5973	-126.11885	0
473	75.67131	-74.85764	-150.52895	-1.62734	113.10013	-112.28646	-78.11232	-136.69656	-138.3239	-145.64693	-157.03831	-126.11885	0
474	82.99434	-67.53461	-150.52895	-8.95037	115.54114	-107.40444	-78.11232	-136.69656	-135.88289	-145.64693	-157.03831	-126.11885	0
475	82.99434	-67.53461	-150.52895	-8.95037	115.54114	-107.40444	-78.11232	-131.81454	-135.88289	-145.64693	-157.03831	-126.11885	0
476	82.99434	-67.53461	-150.52895	-8.95037	115.54114	-107.40444	-75.67131	-129.37353	-135.88289	-145.64693	-157.03831	-123.67784	0
477	87.87636	-62.65259	-150.52895	-13.83239	117.98215	-104.96343	-70.78929	-124.49151	-133.44188	-145.64693	-154.5973	-121.23683	0
478	92.75838	-57.77057	-150.52895	-18.71441	120.42316	-102.52242	-63.46626	-119.60949	-131.00087	-143.20592	-152.15629	-118.79582	0
479	92.75838	-55.32956	-148.08794	-18.71441	120.42316	-100.08141	-58.58424	-117.16848	-126.11885	-143.20592	-149.71528	-118.79582	0
480	90.31737	-57.77057	-148.08794	-16.2734	117.98215	-102.52242	-56.14323	-117.16848	-126.11885	-143.20592	-149.71528	-118.79582	0
481	90.31737	-60.21158	-150.52895	-16.2734	120.42316	-104.96343	-56.14323	-117.16848	-128.55986	-145.64693	-154.5973	-121.23683	0
482	85.43535	-65.0936	-150.52895	-11.39138	117.98215	-107.40444	-56.14323	-119.60949	-128.55986	-145.64693	-154.5973	-126.11885	0
483	85.43535	-67.53461	-152.96996	-8.95037	117.98215	-109.84545	-56.14323	-119.60949	-128.55986	-145.64693	-157.03831	-126.11885	0
484	92.75838	-60.21158	-152.96996	-16.2734	122.86417	-104.96343	-56.14323	-119.60949	-126.11885	-145.64693	-152.15629	-126.11885	0
485	92.75838	-57.77057	-150.52895	-18.71441	120.42316	-102.52242	-53.70222	-114.72747	-123.67784	-143.20592	-152.15629	-126.11885	0
486	85.43535	-57.77057	-143.20592	-13.83239	113.10013	-100.08141	-53.70222	-114.72747	-123.67784	-145.64693	-154.5973	-128.55986	0
487	85.43535	-57.77057	-143.20592	-13.83239	113.10013	-100.08141	-56.14323	-119.60949	-126.11885	-148.08794	-154.5973	-128.55986	0
488	75.67131	-62.65259	-138.3239	-6.50936	105.7771	-100.08141	-56.14323	-119.60949	-128.55986	-150.52895	-154.5973	-133.44188	0
489	80.55333	-57.77057	-138.3239	-11.39138	108.21811	-97.6404	-56.14323	-119.60949	-128.55986	-152.96996	-154.5973	-135.88289	0
490	87.87636	-50.44754	-138.3239	-18.71441	113.10013	-92.75838	-58.58424	-122.0505	-126.11885	-152.96996	-152.15629	-135.88289	0
491	95.19939	-45.56552	-140.76491	-26.03744	117.98215	-92.75838	-58.58424	-122.0505	-126.11885	-150.52895	-149.71528	-133.44188	0
492	92.75838	-45.56552	-138.3239	-23.59643	115.54114	-90.31737	-61.02525	-119.60949	-123.67784	-148.08794	-147.27427	-133.44188	0
493	92.75838	-48.00653	-140.76491	-23.59643	115.54114	-92.75838	-63.46626	-122.0505	-123.67784	-145.64693	-147.27427	-131.00087	0
494	97.6404	-50.44754	-148.08794	-23.59643	122.86417	-97.6404	-65.90727	-122.0505	-121.23683	-145.64693	-147.27427	-128.55986	0
495	97.6404	-52.88855	-150.52895	-23.59643	122.86417	-100.08141	-65.90727	-117.16848	-121.23683	-143.20592	-147.27427	-126.11885	0
496	102.52242	-50.44754	-152.96996	-26.03744	127.74619	-100.08141	-63.46626	-114.72747	-121.23683	-143.20592	-147.27427	-126.11885	0
497	102.52242	-50.44754	-152.96996	-26.03744	127.74619	-100.08141	-61.02525	-114.72747	-118.79582	-143.20592	-144.83326	-123.67784	0
498	95.19939	-57.77057	-152.96996	-18.71441	122.86417	-104.96343	-58.58424	-112.28646	-118.79582	-145.64693	-147.27427	-126.11885	0
499	85.43535	-67.53461	-152.96996	-8.95037	117.98215	-109.84545	-56.14323	-112.28646	-118.79582	-150.52895	-149.71528	-128.55986	0
500	75.67131	-74.85764	-150.52895	-1.62734	113.10013	-112.28646	-53.70222	-114.72747	-118.79582	-152.96996	-152.15629	-133.44188	0
501	73.2303	-79.73966	-152.96996	3.25468	113.10013	-114.72747	-56.14323	-117.16848	-123.67784	-155.41097	-154.5973	-138.3239	0
502	70.78929	-82.18067	-152.96996	3.25468	110.65912	-117.16848	-56.14323	-117.16848	-123.67784	-155.41097	-157.03831	-138.3239	0
503	70.78929	-79.73966	-150.52895	3.25468	110.65912	-114.72747	-58.58424	-117.16848	-121.23683	-152.96996	-154.5973	-138.3239	0
504	70.78929	-77.29865	-148.08794	3.25468	108.21811	-112.28646	-58.58424	-114.72747	-118.79582	-150.52895	-154.5973	-138.3239	0
505	73.2303	-77.29865	-150.52895	0.81367	110.65912	-112.28646	-58.58424	-109.84545	-118.79582	-150.52895	-154.5973	-138.3239	0
506	75.67131	-77.29865	-152.96996	0.81367	113.10013	-114.72747	-61.02525	-107.40444	-118.79582	-150.52895	-157.03831	-135.88289	0
507	75.67131	-77.29865	-152.96996	0.81367	113.10013	-114.72747	-63.46626	-107.40444	-118.79582	-150.52895	-157.03831	-133.44188	0
508	85.43535	-69.97562	-155.41097	-8.95037	120.42316	-112.28646	-63.46626	-107.40444	-116.35481	-150.52895	-154.5973	-133.44188	0
509	100.08141	-60.21158	-160.29299	-21.15542	130.1872	-109.84545	-61.02525	-107.40444	-113.9138	-145.64693	-152.15629	-133.44188	0
510	107.40444	-48.00653	-155.41097	-30.91946	130.1872	-100.08141	-56.14323	-102.52242	-109.03178	-140.76491	-147.27427	-128.55986	0
511	102.52242	-45.56552	-148.08794	-28.47845	125.30518	-95.19939	-51.26121	-100.08141	-106.59077	-135.88289	-144.83326	-123.67784	0
512	104.96343	-43.12451	-148.08794	-30.91946	125.30518	-95.19939	-48.8202	-100.08141	-104.14976	-131.00087	-144.83326	-121.23683	0
513	109.84545	-33.36047	-143.20592	-38.24249	125.30518	-87.87636	-43.93818	-97.6404	-96.82673	-123.67784	-137.51023	-116.35481	0
514	117.16848	-18.71441	-135.88289	-50.44754	125.30518	-75.67131	-36.61515	-90.31737	-87.06269	-116.35481	-130.1872	-111.47279	0
515	124.49151	-4.06835	-128.55986	-60.21158	125.30518	-65.90727	-28.47845	-78.11232	-79.73966	-106.59077	-120.42316	-104.14976	0
516	131.81454	11.39138	-121.23683	-72.41663	127.74619	-53.70222	-18.71441	-70.78929	-69.97562	-99.26774	-113.10013	-94.38572	0
517	129.37353	18.71441	-111.47279	-74.85764	120.42316	-46.37919	-11.39138	-63.46626	-62.65259	-91.94471	-108.21811	-89.5037	0
518	129.37353	23.59643	-106.59077	-77.29865	117.98215	-41.49717	-4.06835	-58.58424	-57.77057	-89.5037	-103.33609	-87.06269	0
519	134.25555	30.91946	-104.14976	-82.18067	120.42316	-36.61515	-1.62734	-53.70222	-55.32956	-87.06269	-103.33609	-89.5037	0
520	141.57858	35.80148	-106.59077	-89.5037	125.30518	-34.17414	3.25468	-51.26121	-50.44754	-82.18067	-100.89508	-89.5037	0
521	141.57858	35.80148	-106.59077	-89.5037	125.30518	-34.17414	5.69569	-48.8202	-50.44754	-79.73966	-100.89508	-89.5037	0
522	136.69656	33.36047	-104.14976	-84.62168	120.42316	-34.17414	8.1367	-43.93818	-45.56552	-74.85764	-98.45407	-89.5037	0
523	129.37353	30.91946	-99.26774	-79.73966	115.54114	-34.17414	10.57771	-41.49717	-40.6835	-72.41663	-98.45407	-89.5037	0
524	134.25555	30.91946	-104.14976	-82.18067	120.42316	-36.61515	8.1367	-39.05616	-40.6835	-72.41663	-96.01306	-91.94471	0
525	136.69656	33.36047	-104.14976	-84.62168	120.42316	-34.17414	8.1367	-31.73313	-38.24249	-69.97562	-96.01306	-91.94471	0
526	139.13757	35.80148	-104.14976	-87.06269	122.86417	-34.17414	10.57771	-29.29212	-35.80148	-67.53461	-93.57205	-87.06269	0
527	139.13757	38.24249	-101.70875	-89.5037	120.42316	-31.73313	10.57771	-26.85111	-33.36047	-65.0936	-88.69003	-82.18067	0
528	141.57858	48.00653	-94.38572	-94.38572	117.98215	-21.96909	10.57771	-26.85111	-33.36047	-65.0936	-83.80801	-79.73966	0
529	146.4606	57.77057	-89.5037	-101.70875	117.98215	-14.64606	10.57771	-24.4101	-30.91946	-60.21158	-78.92599	-74.85764	0
530	153.78363	67.53461	-87.06269	-111.47279	120.42316	-9.76404	8.1367	-24.4101	-28.47845	-57.77057	-74.04397	-69.97562	0
531	168.42969	72.41663	-96.82673	-121.23683	132.62821	-12.20505	0.81367	-26.85111	-30.91946	-57.77057	-74.04397	-67.53461	0
532	178.19373	74.85764	-104.14976	-126.11885	142.39225	-14.64606	-6.50936	-31.73313	-33.36047	-57.77057	-69.16195	-62.65259	0
533	180.63474	72.41663	-109.03178	-126.11885	144.83326	-17.08707	-18.71441	-36.61515	-33.36047	-57.77057	-66.72094	-60.21158	0
534	178.19373	67.53461	-111.47279	-123.67784	144.83326	-21.96909	-28.47845	-41.49717	-35.80148	-57.77057	-64.27993	-57.77057	0
535	178.19373	60.21158	-118.79582	-118.79582	149.71528	-29.29212	-39.05616	-43.93818	-38.24249	-60.21158	-64.27993	-57.77057	0
536	183.07575	55.32956	-128.55986	-118.79582	157.03831	-36.61515	-48.8202	-48.8202	-40.6835	-62.65259	-64.27993	-57.77057	0
537	190.39878	52.88855	-138.3239	-121.23683	164.36134	-41.49717	-58.58424	-53.70222	-43.12451	-65.0936	-61.83892	-57.77057	0
538	192.83979	43.12451	-150.52895	-118.79582	171.68437	-53.70222	-70.78929	-58.58424	-48.00653	-69.97562	-64.27993	-62.65259	0
539	192.83979	30.91946	-162.734	-111.47279	179.0074	-65.90727	-80.55333	-65.90727	-50.44754	-72.41663	-66.72094	-67.53461	0
540	192.83979	21.15542	-172.49804	-106.59077	183.88942	-75.67131	-90.31737	-73.2303	-55.32956	-74.85764	-69.16195	-72.41663	0
541	183.07575	11.39138	-172.49804	-96.82673	179.0074	-80.55333	-95.19939	-75.67131	-60.21158	-77.29865	-71.60296	-77.29865	0
542	185.51676	4.06835	-182.26208	-94.38572	183.88942	-87.87636	-97.6404	-80.55333	-62.65259	-77.29865	-74.04397	-79.73966	0
543	187.95777	-1.62734	-189.58511	-94.38572	188.77144	-95.19939	-102.52242	-85.43535	-67.53461	-82.18067	-74.04397	-82.18067	0
544	187.95777	-6.50936	-194.46713	-91.94471	191.21245	-100.08141	-109.84545	-92.75838	-72.41663	-87.06269	-78.92599	-84.62168	0
545	183.07575	-16.2734	-199.34915	-84.62168	191.21245	-107.40444	-117.16848	-97.6404	-79.73966	-91.94471	-81.367	-87.06269	0
546	178.19373	-23.59643	-201.79016	-77.29865	188.77144	-112.28646	-122.0505	-102.52242	-87.06269	-94.38572	-83.80801	-87.06269	0
547	175.75272	-23.59643	-199.34915	-77.29865	186.33043	-109.84545	-122.0505	-104.96343	-89.5037	-96.82673	-83.80801	-84.62168	0
548	168.42969	-26.03744	-194.46713	-72.41663	181.44841	-109.84545	-122.0505	-104.96343	-91.94471	-99.26774	-83.80801	-84.62168	0
549	165.98868	-26.03744	-192.02612	-69.97562	179.0074	-107.40444	-122.0505	-109.84545	-94.38572	-101.70875	-83.80801	-84.62168	0
550	173.31171	-21.15542	-194.46713	-77.29865	183.88942	-107.40444	-122.0505	-109.84545	-94.38572	-99.26774	-83.80801	-84.62168	0
551	173.31171	-18.71441	-192.02612	-77.29865	181.44841	-104.96343	-117.16848	-109.84545	-94.38572	-99.26774	-83.80801	-84.62168	0
552	170.8707	-21.15542	-192.02612	-74.85764	181.44841	-104.96343	-114.72747	-107.40444	-91.94471	-94.38572	-83.80801	-84.62168	0
553	163.54767	-23.59643	-187.1441	-69.97562	174.12538	-104.96343	-109.84545	-107.40444	-89.5037	-94.38572	-83.80801	-84.62168	0
554	158.66565	-23.59643	-182.26208	-67.53461	169.24336	-102.52242	-104.96343	-104.96343	-89.5037	-94.38572	-83.80801	-84.62168	0
555	151.34262	-26.03744	-177.38006	-62.65259	164.36134	-100.08141	-100.08141	-100.08141	-87.06269	-96.82673	-86.24902	-87.06269	0
556	144.01959	-33.36047	-177.38006	-55.32956	159.47932	-104.96343	-95.19939	-100.08141	-91.94471	-101.70875	-93.57205	-91.94471	0
557	134.25555	-33.36047	-167.61602	-50.44754	149.71528	-100.08141	-90.31737	-100.08141	-91.94471	-101.70875	-93.57205	-91.94471	0
558	131.81454	-38.24249	-170.05703	-48.00653	149.71528	-102.52242	-85.43535	-97.6404	-91.94471	-109.03178	-98.45407	-99.26774	0
559	119.60949	-50.44754	-170.05703	-35.80148	144.83326	-109.84545	-85.43535	-100.08141	-96.82673	-116.35481	-105.7771	-109.03178	0
560	112.28646	-57.77057	-170.05703	-28.47845	139.95124	-112.28646	-85.43535	-104.96343	-101.70875	-121.23683	-110.65912	-116.35481	0
561	107.40444	-60.21158	-167.61602	-23.59643	137.51023	-112.28646	-82.99434	-104.96343	-104.14976	-123.67784	-113.10013	-121.23683	0
562	112.28646	-60.21158	-172.49804	-26.03744	142.39225	-114.72747	-80.55333	-102.52242	-104.14976	-123.67784	-115.54114	-126.11885	0
563	112.28646	-62.65259	-174.93905	-26.03744	142.39225	-117.16848	-80.55333	-102.52242	-104.14976	-123.67784	-117.98215	-131.00087	0
564	112.28646	-67.53461	-179.82107	-23.59643	144.83326	-122.0505	-82.99434	-104.96343	-106.59077	-126.11885	-117.98215	-133.44188	0
565	114.72747	-67.53461	-182.26208	-23.59643	147.27427	-124.49151	-80.55333	-100.08141	-106.59077	-126.11885	-117.98215	-133.44188	0
566	114.72747	-69.97562	-184.70309	-23.59643	149.71528	-126.93252	-82.99434	-102.52242	-111.47279	-128.55986	-120.42316	-135.88289	0
567	107.40444	-72.41663	-179.82107	-18.71441	142.39225	-124.49151	-82.99434	-104.96343	-113.9138	-133.44188	-120.42316	-135.88289	0
568	104.96343	-74.85764	-179.82107	-16.2734	142.39225	-126.93252	-82.99434	-104.96343	-116.35481	-135.88289	-122.86417	-138.3239	0
569	102.52242	-74.85764	-177.38006	-13.83239	139.95124	-124.49151	-80.55333	-104.96343	-116.35481	-135.88289	-122.86417	-140.76491	0
570	102.52242	-72.41663	-174.93905	-16.2734	137.51023	-122.0505	-82.99434	-107.40444	-116.35481	-138.3239	-122.86417	-140.76491	0
571	100.08141	-69.97562	-170.05703	-16.2734	135.06922	-119.60949	-82.99434	-107.40444	-118.79582	-138.3239	-122.86417	-140.76491	0
572	102.52242	-65.0936	-167.61602	-18.71441	135.06922	-114.72747	-82.99434	-107.40444	-116.35481	-135.88289	-122.86417	-140.76491	0
573	104.96343	-62.65259	-167.61602	-21.15542	135.06922	-114.72747	-85.43535	-107.40444	-116.35481	-135.88289	-125.30518	-140.76491	0
574	107.40444	-62.65259	-170.05703	-23.59643	137.51023	-114.72747	-85.43535	-107.40444	-116.35481	-135.88289	-125.30518	-143.20592	0
575	104.96343	-65.0936	-170.05703	-21.15542	137.51023	-117.16848	-85.43535	-102.52242	-116.35481	-135.88289	-127.74619	-145.64693	0
576	97.6404	-67.53461	-165.17501	-16.2734	130.1872	-114.72747	-82.99434	-102.52242	-116.35481	-135.88289	-130.1872	-145.64693	0
577	87.87636	-67.53461	-155.41097	-11.39138	120.42316	-109.84545	-80.55333	-100.08141	-113.9138	-135.88289	-127.74619	-143.20592	0
578	87.87636	-69.97562	-157.85198	-8.95037	122.86417	-112.28646	-80.55333	-100.08141	-113.9138	-140.76491	-130.1872	-145.64693	0
579	78.11232	-74.85764	-152.96996	-1.62734	115.54114	-112.28646	-78.11232	-100.08141	-113.9138	-140.76491	-130.1872	-148.08794	0
580	75.67131	-77.29865	-152.96996	0.81367	113.10013	-114.72747	-78.11232	-104.96343	-113.9138	-140.76491	-130.1872	-148.08794	0
581	75.67131	-77.29865	-152.96996	0.81367	113.10013	-114.72747	-78.11232	-104.96343	-116.35481	-140.76491	-130.1872	-150.52895	0
582	78.11232	-74.85764	-152.96996	-1.62734	115.54114	-112.28646	-78.11232	-104.96343	-113.9138	-135.88289	-130.1872	-150.52895	0
583	80.55333	-72.41663	-152.96996	-4.06835	115.54114	-112.28646	-78.11232	-107.40444	-111.47279	-135.88289	-130.1872	-150.52895	0
584	82.99434	-69.97562	-152.96996	-6.50936	117.98215	-109.84545	-80.55333	-107.40444	-109.03178	-131.00087	-125.30518	-148.08794	0
585	92.75838	-62.65259	-155.41097	-16.2734	122.86417	-107.40444	-80.55333	-102.52242	-106.59077	-128.55986	-122.86417	-148.08794	0
586	97.6404	-62.65259	-160.29299	-18.71441	127.74619	-109.84545	-80.55333	-100.08141	-106.59077	-128.55986	-122.86417	-148.08794	0
587	95.19939	-62.65259	-157.85198	-16.2734	125.30518	-109.84545	-80.55333	-100.08141	-106.59077	-126.11885	-117.98215	-145.64693	0
588	97.6404	-62.65259	-160.29299	-18.71441	127.74619	-109.84545	-80.55333	-100.08141	-106.59077	-126.11885	-117.98215	-145.64693	0
589	90.31737	-67.53461	-157.85198	-11.39138	122.86417	-112.28646	-80.55333	-100.08141	-106.59077	-126.11885	-115.54114	-148.08794	0
590	80.55333	-69.97562	-150.52895	-6.50936	115.54114	-109.84545	-80.55333	-102.52242	-106.59077	-126.11885	-113.10013	-148.08794	0
591	75.67131	-72.41663	-148.08794	-1.62734	110.65912	-109.84545	-80.55333	-102.52242	-106.59077	-123.67784	-110.65912	-145.64693	0
592	75.67131	-72.41663	-148.08794	-1.62734	110.65912	-109.84545	-80.55333	-102.52242	-106.59077	-118.79582	-108.21811	-143.20592	0
593	75.67131	-74.85764	-150.52895	-1.62734	113.10013	-112.28646	-82.99434	-104.96343	-106.59077	-118.79582	-108.21811	-143.20592	0
594	70.78929	-82.18067	-152.96996	3.25468	110.65912	-117.16848	-85.43535	-104.96343	-106.59077	-121.23683	-110.65912	-145.64693	0
595	70.78929	-87.06269	-157.85198	6.50936	113.10013	-122.0505	-82.99434	-100.08141	-109.03178	-126.11885	-115.54114	-148.08794	0
596	73.2303	-99.26774	-172.49804	11.39138	122.86417	-134.25555	-82.99434	-97.6404	-113.9138	-135.88289	-125.30518	-155.41097	0
597	51.26121	-116.35481	-167.61602	30.91946	108.21811	-141.57858	-90.31737	-107.40444	-121.23683	-145.64693	-125.30518	-165.17501	0
598	24.4101	-128.55986	-152.96996	50.44754	88.69003	-139.13757	-65.90727	-73.2303	-128.55986	-150.52895	-135.06922	-160.29299	0
599	95.19939	-135.88289	-231.08228	18.71441	161.92033	-183.07575	-80.55333	-82.99434	-138.3239	-182.26208	-169.24336	-182.26208	0
600	63.46626	-189.58511	-253.05137	62.65259	157.03831	-219.6909	-97.6404	-119.60949	-145.64693	-206.67218	-193.65346	-211.5542	0
601	114.72747	-182.26208	-296.98955	33.36047	205.85851	-239.21898	-119.60949	-131.81454	-152.96996	-216.43622	-186.33043	-221.31824	0
602	170.8707	-118.79582	-289.66652	-26.03744	230.26861	-202.60383	-134.25555	-158.66565	-162.734	-192.02612	-157.03831	-194.46713	0
603	234.33696	-77.29865	-311.63561	-79.73966	271.76578	-192.83979	-178.19373	-192.83979	-182.26208	-138.3239	-105.7771	-160.29299	0
604	297.80322	-6.50936	-304.31258	-145.64693	301.0579	-153.78363	-209.92686	-217.24989	-165.17501	-65.0936	-21.96909	-91.94471	0
605	349.06443	26.03744	-323.84066	-187.1441	337.67305	-148.90161	-273.39312	-270.95211	-184.70309	-3.25468	48.8202	-40.6835	0
606	353.94645	11.39138	-343.36874	-182.26208	349.8781	-165.98868	-346.62342	-346.62342	-189.58511	77.29865	139.13757	18.71441	0
607	400.32564	45.56552	-355.57379	-223.75925	379.17022	-153.78363	-432.05877	-439.3818	-223.75925	165.17501	258.74706	104.14976	0
608	473.55594	50.44754	-423.92207	-262.81541	449.95951	-185.51676	-507.73008	-527.25816	-243.28733	299.43056	405.20766	201.79016	0
609	532.14018	77.29865	-455.6552	-304.31258	493.89769	-187.95777	-590.72442	-627.33957	-275.02046	419.04005	551.66826	292.10753	0
610	600.48846	126.11885	-475.18328	-362.89682	537.83587	-173.31171	-654.19068	-739.62603	-299.43056	543.53156	693.24684	379.98389	0
611	690.80583	174.93905	-516.68045	-433.68611	603.74314	-170.8707	-766.47714	-851.91249	-360.45581	606.99782	817.73835	460.53722	0
612	783.56421	257.93339	-526.44449	-521.56247	655.00435	-134.25555	-864.11754	-959.31693	-433.68611	648.49499	922.70178	553.2956	0
613	829.9434	323.84066	-506.91641	-577.7057	669.65041	-90.31737	-942.22986	-1044.75228	-482.50631	726.60731	1056.95733	665.58206	0
614	854.3535	379.98389	-475.18328	-616.76186	664.76839	-46.37919	-981.28602	-1115.54157	-550.85459	748.5764	1164.36177	763.22246	0
615	856.79451	487.38833	-370.21985	-672.90509	613.50718	59.39791	-993.49107	-1171.6848	-606.99782	787.63256	1293.7353	892.59599	0
616	854.3535	589.91075	-265.25642	-721.72529	559.80496	164.36134	-995.93208	-1227.82803	-648.49499	772.9865	1379.17065	1017.0875	0
617	829.9434	602.1158	-228.64127	-716.84327	530.51284	188.77144	-964.19895	-1240.03308	-716.84327	675.3461	1352.31954	1014.64649	0
618	746.94906	638.73095	-109.03178	-692.43317	427.99042	266.88376	-898.29168	-1232.71005	-770.54549	575.26469	1310.82237	1031.73356	0
619	659.0727	638.73095	-21.15542	-648.49499	340.11406	310.82194	-854.3535	-1235.15106	-838.89377	426.36308	1215.62298	1007.32346	0
620	610.2525	567.94166	-43.12451	-589.91075	327.90901	264.44275	-800.65128	-1208.29995	-858.42185	243.28733	1042.31127	895.037	0
621	475.99695	475.18328	-1.62734	-475.18328	240.03265	237.59164	-734.74401	-1110.65955	-853.53983	40.6835	832.38441	760.78145	0
622	422.29473	314.07662	-109.03178	-367.77884	266.88376	103.33609	-641.98563	-978.84501	-807.16064	-135.88289	568.75533	548.41358	0
623	356.38746	257.93339	-99.26774	-306.75359	227.8276	81.367	-527.25816	-854.3535	-785.19155	-294.54854	356.38746	404.39399	0
624	209.92686	189.58511	-21.15542	-199.34915	115.54114	86.24902	-402.76665	-744.50805	-777.86852	-487.38833	141.57858	277.46147	0
625	200.16282	150.52895	-50.44754	-174.93905	125.30518	52.07488	-312.44928	-637.10361	-746.13539	-585.02873	-27.66478	152.96996	0
626	129.37353	123.67784	-6.50936	-126.11885	69.16195	59.39791	-205.04484	-529.69917	-672.90509	-604.55681	-117.98215	69.97562	0
627	26.85111	30.91946	3.25468	-28.47845	13.01872	17.90074	-119.60949	-424.73574	-626.5259	-653.37701	-227.8276	-45.56552	0
628	-15.45973	-4.06835	11.39138	8.95037	-14.64606	2.44101	-13.83239	-314.89029	-570.38267	-665.58206	-308.38093	-133.44188	0
629	-25.22377	-8.95037	16.2734	16.2734	-21.96909	2.44101	74.04397	-175.75272	-467.86025	-619.20287	-327.90901	-177.38006	0
630	-66.72094	-65.0936	0.81367	65.0936	-34.17414	-31.73313	166.80235	-75.67131	-382.4249	-602.1158	-366.96517	-231.08228	0
631	-108.21811	-131.00087	-23.59643	118.79582	-43.93818	-78.11232	215.62255	34.98781	-321.39965	-599.67479	-401.13931	-294.54854	0
632	-93.57205	-126.11885	-33.36047	109.03178	-31.73313	-80.55333	286.41184	130.1872	-257.93339	-585.02873	-442.63648	-350.69177	0
633	-147.27427	-121.23683	26.03744	133.44188	-87.87636	-48.8202	366.96517	259.56073	-152.96996	-509.35742	-430.43143	-358.0148	0
634	-115.54114	-99.26774	16.2734	106.59077	-65.90727	-41.49717	442.63648	364.52416	-62.65259	-480.0653	-410.90335	-336.04571	0
635	-147.27427	-126.11885	21.15542	135.88289	-85.43535	-53.70222	506.10274	462.16456	-8.95037	-448.33217	-415.78537	-360.45581	0
636	-149.71528	-133.44188	16.2734	140.76491	-82.99434	-58.58424	564.68698	532.95385	52.88855	-414.15803	-413.34436	-362.89682	0
637	-154.5973	-140.76491	13.83239	145.64693	-85.43535	-63.46626	640.35829	637.91728	113.9138	-372.66086	-408.46234	-365.33783	0
638	-161.92033	-143.20592	18.71441	150.52895	-90.31737	-63.46626	718.47061	750.20374	167.61602	-360.45581	-403.58032	-375.10187	0
639	-174.12538	-150.52895	23.59643	160.29299	-100.08141	-63.46626	791.70091	759.96778	182.26208	-326.28167	-398.6983	-377.54288	0
640	-181.44841	-150.52895	30.91946	165.17501	-107.40444	-61.02525	833.19808	647.68132	118.79582	-326.28167	-391.37527	-377.54288	0
641	-196.09447	-157.85198	38.24249	174.93905	-117.16848	-61.02525	845.40313	515.86678	10.57771	-331.16369	-386.49325	-377.54288	0
642	-215.62255	-162.734	52.88855	187.1441	-134.25555	-56.14323	882.01828	437.75446	38.24249	-323.84066	-379.17022	-375.10187	0
643	-222.94558	-162.734	60.21158	192.02612	-141.57858	-51.26121	903.98737	454.84153	13.83239	-316.51763	-371.84719	-370.21985	0
644	-220.50457	-157.85198	62.65259	187.1441	-141.57858	-48.8202	947.92555	401.13931	-8.95037	-311.63561	-364.52416	-367.77884	0
645	-225.38659	-155.41097	69.97562	189.58511	-148.90161	-43.93818	969.89464	362.08315	-21.15542	-301.87157	-354.76012	-360.45581	0
646	-237.59164	-152.96996	84.62168	194.46713	-161.10666	-34.17414	950.36656	337.67305	-23.59643	-289.66652	-342.55507	-350.69177	0
647	-237.59164	-150.52895	87.06269	192.02612	-163.54767	-31.73313	935.7205	281.52982	-23.59643	-277.46147	-332.79103	-343.36874	0
648	-240.03265	-150.52895	89.5037	194.46713	-165.98868	-31.73313	982.09969	296.17588	-23.59643	-267.69743	-323.02699	-338.48672	0
649	-240.03265	-145.64693	94.38572	192.02612	-168.42969	-26.85111	986.98171	291.29386	-23.59643	-260.3744	-315.70396	-336.04571	0
650	-232.70962	-140.76491	91.94471	184.70309	-163.54767	-24.4101	991.86373	252.2377	-23.59643	-250.61036	-308.38093	-331.16369	0
651	-225.38659	-133.44188	91.94471	177.38006	-158.66565	-21.96909	996.74575	244.91467	-21.15542	-238.40531	-301.0579	-323.84066	0
652	-232.70962	-138.3239	94.38572	184.70309	-163.54767	-21.96909	989.42272	230.26861	-16.2734	-228.64127	-293.73487	-318.95864	0
653	-244.91467	-148.08794	96.82673	194.46713	-170.8707	-26.85111	1008.9508	215.62255	-16.2734	-221.31824	-288.85285	-316.51763	0
654	-244.91467	-152.96996	91.94471	196.90814	-168.42969	-31.73313	1011.39181	203.4175	-11.39138	-213.99521	-283.97083	-311.63561	0
655	-242.47366	-145.64693	96.82673	192.02612	-170.8707	-24.4101	994.30474	198.53548	-4.06835	-201.79016	-274.20679	-304.31258	0
656	-227.8276	-131.00087	96.82673	177.38006	-163.54767	-17.08707	945.48454	193.65346	5.69569	-187.1441	-264.44275	-294.54854	0
657	-213.18154	-118.79582	94.38572	165.17501	-153.78363	-12.20505	935.7205	191.21245	16.2734	-170.05703	-252.2377	-282.34349	0
658	-200.97649	-111.47279	89.5037	155.41097	-146.4606	-12.20505	965.01262	186.33043	28.47845	-152.96996	-240.03265	-275.02046	0
659	-188.77144	-101.70875	87.06269	143.20592	-139.13757	-7.32303	952.80757	181.44841	43.12451	-135.88289	-225.38659	-262.81541	0
660	-169.24336	-87.06269	82.18067	126.11885	-126.93252	-2.44101	857.60818	179.0074	57.77057	-113.9138	-208.29952	-250.61036	0
661	-137.51023	-65.0936	72.41663	99.26774	-104.96343	2.44101	757.52677	181.44841	77.29865	-89.5037	-188.77144	-231.08228	0
662	-108.21811	-45.56552	62.65259	74.85764	-85.43535	8.1367	674.53243	186.33043	101.70875	-60.21158	-169.24336	-211.5542	0
663	-81.367	-33.36047	48.00653	55.32956	-65.90727	8.1367	608.62516	186.33043	123.67784	-35.80148	-149.71528	-196.90814	0
664	-66.72094	-33.36047	33.36047	48.00653	-51.26121	0	545.1589	186.33043	140.76491	-13.83239	-135.06922	-182.26208	0
665	-52.07488	-30.91946	21.15542	40.6835	-36.61515	-4.88202	464.60557	193.65346	157.85198	6.50936	-120.42316	-170.05703	0
666	-37.42882	-23.59643	13.83239	28.47845	-26.85111	-4.88202	393.81628	200.97649	179.82107	28.47845	-105.7771	-157.85198	0
667	-25.22377	-16.2734	8.95037	18.71441	-17.08707	-4.88202	347.43709	210.74053	201.79016	52.88855	-86.24902	-140.76491	0
668	-8.1367	-8.95037	-1.62734	6.50936	-4.06835	-4.88202	305.93992	220.50457	223.75925	74.85764	-71.60296	-131.00087	0
669	0	-8.95037	-8.95037	3.25468	3.25468	-7.32303	257.11972	230.26861	243.28733	91.94471	-59.39791	-123.67784	0
670	4.88202	-6.50936	-11.39138	0.81367	8.1367	-7.32303	222.94558	237.59164	260.3744	109.03178	-44.75185	-116.35481	0
671	14.64606	-6.50936	-21.15542	-4.06835	17.90074	-12.20505	200.97649	244.91467	272.57945	123.67784	-34.98781	-111.47279	0
672	24.4101	-6.50936	-30.91946	-8.95037	27.66478	-17.08707	166.80235	252.2377	287.22551	138.3239	-27.66478	-109.03178	0
673	31.73313	-4.06835	-35.80148	-13.83239	32.5468	-19.52808	144.83326	259.56073	301.87157	152.96996	-19.52808	-101.70875	0
674	41.49717	-1.62734	-43.12451	-21.15542	42.31084	-21.96909	132.62821	269.32477	316.51763	167.61602	-7.32303	-94.38572	0
675	51.26121	1.62734	-50.44754	-26.03744	52.07488	-24.4101	88.69003	279.08881	326.28167	179.82107	0	-87.06269	0
676	61.02525	4.06835	-57.77057	-33.36047	59.39791	-26.85111	66.72094	283.97083	333.6047	189.58511	4.88202	-82.18067	0
677	63.46626	6.50936	-57.77057	-35.80148	61.83892	-24.4101	66.72094	288.85285	340.92773	199.34915	12.20505	-77.29865	0
678	70.78929	8.95037	-62.65259	-40.6835	66.72094	-26.85111	59.39791	288.85285	348.25076	204.23117	17.08707	-74.85764	0
679	78.11232	8.95037	-69.97562	-43.12451	74.04397	-29.29212	42.31084	291.29386	350.69177	209.11319	19.52808	-74.85764	0
680	78.11232	11.39138	-67.53461	-45.56552	74.04397	-26.85111	32.5468	291.29386	358.0148	216.43622	24.4101	-72.41663	-1250	T-0
681	85.43535	16.2734	-69.97562	-50.44754	78.92599	-26.85111	25.22377	293.73487	360.45581	226.20026	29.29212	-69.97562	0
682	90.31737	21.15542	-69.97562	-55.32956	81.367	-24.4101	17.90074	293.73487	365.33783	231.08228	31.73313	-69.97562	0
683	95.19939	21.15542	-74.85764	-57.77057	86.24902	-26.85111	8.1367	291.29386	365.33783	233.52329	34.17414	-69.97562	0
684	100.08141	23.59643	-77.29865	-62.65259	88.69003	-26.85111	0.81367	291.29386	367.77884	235.9643	36.61515	-67.53461	0
685	100.08141	23.59643	-77.29865	-62.65259	88.69003	-26.85111	-4.06835	293.73487	367.77884	235.9643	36.61515	-67.53461	0
686	100.08141	23.59643	-77.29865	-62.65259	88.69003	-26.85111	-6.50936	293.73487	367.77884	235.9643	39.05616	-65.0936	0
687	97.6404	26.03744	-72.41663	-62.65259	86.24902	-21.96909	-6.50936	296.17588	370.21985	240.84632	43.93818	-62.65259	0
688	107.40444	33.36047	-74.85764	-69.97562	91.13104	-19.52808	-6.50936	298.61689	375.10187	243.28733	48.8202	-57.77057	0
689	117.16848	40.6835	-77.29865	-79.73966	98.45407	-17.08707	-11.39138	301.0579	377.54288	245.72834	53.70222	-52.88855	0
690	114.72747	38.24249	-77.29865	-77.29865	96.01306	-19.52808	-13.83239	298.61689	379.98389	248.16935	56.14323	-50.44754	0
691	112.28646	38.24249	-74.85764	-74.85764	93.57205	-17.08707	-16.2734	301.0579	379.98389	253.05137	58.58424	-48.00653	0
692	112.28646	35.80148	-77.29865	-74.85764	96.01306	-19.52808	-18.71441	301.0579	382.4249	257.93339	63.46626	-45.56552	0
693	114.72747	33.36047	-82.18067	-74.85764	98.45407	-24.4101	-26.03744	298.61689	384.86591	262.81541	65.90727	-43.12451	0
694	117.16848	33.36047	-84.62168	-74.85764	100.89508	-24.4101	-30.91946	298.61689	387.30692	262.81541	68.34828	-43.12451	0
695	119.60949	33.36047	-87.06269	-77.29865	103.33609	-26.85111	-34.17414	301.0579	387.30692	265.25642	68.34828	-40.6835	0
696	119.60949	35.80148	-84.62168	-77.29865	103.33609	-24.4101	-36.61515	303.49891	387.30692	267.69743	70.78929	-38.24249	0
697	109.84545	30.91946	-79.73966	-69.97562	96.01306	-24.4101	-39.05616	298.61689	387.30692	267.69743	73.2303	-35.80148	0
698	107.40444	30.91946	-77.29865	-69.97562	93.57205	-21.96909	-39.05616	298.61689	387.30692	267.69743	75.67131	-33.36047	0
699	107.40444	33.36047	-74.85764	-69.97562	91.13104	-19.52808	-43.93818	296.17588	387.30692	267.69743	75.67131	-33.36047	0
700	102.52242	30.91946	-72.41663	-67.53461	88.69003	-19.52808	-48.8202	293.73487	387.30692	270.13844	80.55333	-30.91946	0
701	97.6404	30.91946	-67.53461	-65.0936	83.80801	-17.08707	-51.26121	291.29386	384.86591	272.57945	82.99434	-28.47845	0
702	97.6404	35.80148	-62.65259	-67.53461	81.367	-12.20505	-53.70222	291.29386	387.30692	279.90248	87.87636	-23.59643	0
703	102.52242	40.6835	-62.65259	-72.41663	83.80801	-9.76404	-58.58424	291.29386	389.74793	284.7845	95.19939	-18.71441	0
704	109.84545	43.12451	-67.53461	-77.29865	88.69003	-12.20505	-63.46626	288.85285	389.74793	289.66652	102.52242	-13.01872	0
705	117.16848	48.00653	-69.97562	-82.18067	93.57205	-9.76404	-68.34828	291.29386	392.18894	292.10753	107.40444	-8.1367	0
706	119.60949	52.88855	-67.53461	-87.06269	93.57205	-7.32303	-70.78929	293.73487	394.62995	296.98955	114.72747	-0.81367	0
707	129.37353	57.77057	-72.41663	-94.38572	100.89508	-7.32303	-73.2303	291.29386	394.62995	296.98955	122.0505	6.50936	0
708	141.57858	69.97562	-72.41663	-106.59077	108.21811	0	-75.67131	291.29386	394.62995	301.87157	126.93252	11.39138	0
709	151.34262	74.85764	-77.29865	-113.9138	115.54114	0	-80.55333	286.41184	394.62995	301.87157	131.81454	13.83239	0
710	153.78363	82.18067	-72.41663	-118.79582	113.10013	5.69569	-85.43535	281.52982	394.62995	306.75359	136.69656	18.71441	0
711	156.22464	87.06269	-69.97562	-121.23683	113.10013	10.57771	-90.31737	279.08881	394.62995	309.1946	144.01959	23.59643	0
712	161.10666	89.5037	-72.41663	-126.11885	117.98215	10.57771	-95.19939	274.20679	394.62995	314.07662	148.90161	28.47845	0
713	165.98868	91.94471	-74.85764	-128.55986	120.42316	10.57771	-100.08141	269.32477	394.62995	318.95864	153.78363	33.36047	0
714	170.8707	96.82673	-74.85764	-133.44188	122.86417	13.01872	-107.40444	264.44275	394.62995	321.39965	158.66565	38.24249	0
715	175.75272	99.26774	-77.29865	-138.3239	127.74619	13.01872	-112.28646	262.00174	394.62995	326.28167	163.54767	40.6835	0
716	175.75272	101.70875	-74.85764	-138.3239	125.30518	15.45973	-117.16848	259.56073	392.18894	328.72268	168.42969	48.00653	0
717	175.75272	104.14976	-72.41663	-140.76491	125.30518	17.90074	-122.0505	254.67871	389.74793	331.16369	175.75272	55.32956	0
718	180.63474	111.47279	-69.97562	-145.64693	125.30518	22.78276	-124.49151	252.2377	389.74793	336.04571	183.07575	60.21158	0
719	185.51676	116.35481	-69.97562	-150.52895	127.74619	25.22377	-129.37353	244.91467	387.30692	338.48672	190.39878	65.0936	0
720	187.95777	118.79582	-69.97562	-152.96996	130.1872	25.22377	-134.25555	237.59164	382.4249	340.92773	197.72181	69.97562	0
721	192.83979	123.67784	-69.97562	-157.85198	132.62821	27.66478	-141.57858	230.26861	377.54288	343.36874	205.04484	77.29865	0
722	200.16282	131.00087	-69.97562	-165.17501	135.06922	32.5468	-148.90161	225.38659	375.10187	350.69177	214.80888	84.62168	0
723	205.04484	133.44188	-72.41663	-170.05703	139.95124	32.5468	-158.66565	215.62255	370.21985	353.13278	222.13191	91.94471	0
724	207.48585	133.44188	-74.85764	-170.05703	142.39225	30.10579	-165.98868	205.85851	365.33783	355.57379	229.45494	99.26774	0
725	207.48585	133.44188	-74.85764	-170.05703	142.39225	30.10579	-173.31171	200.97649	360.45581	355.57379	234.33696	106.59077	0
726	212.36787	138.3239	-74.85764	-174.93905	144.83326	32.5468	-178.19373	193.65346	353.13278	355.57379	239.21898	111.47279	0
727	214.80888	140.76491	-74.85764	-177.38006	144.83326	34.98781	-185.51676	183.88942	343.36874	353.13278	241.65999	116.35481	0
728	219.6909	143.20592	-77.29865	-182.26208	149.71528	34.98781	-192.83979	171.68437	333.6047	348.25076	241.65999	116.35481	0
729	224.57292	148.08794	-77.29865	-187.1441	152.15629	37.42882	-202.60383	159.47932	326.28167	345.80975	241.65999	121.23683	0
730	227.01393	150.52895	-77.29865	-189.58511	152.15629	37.42882	-212.36787	147.27427	314.07662	340.92773	241.65999	123.67784	0
731	227.01393	152.96996	-74.85764	-189.58511	152.15629	39.86983	-222.13191	132.62821	301.87157	333.6047	241.65999	123.67784	0
732	227.01393	157.85198	-69.97562	-192.02612	149.71528	44.75185	-234.33696	117.98215	289.66652	328.72268	239.21898	123.67784	0
733	227.01393	160.29299	-67.53461	-194.46713	147.27427	47.19286	-244.101	103.33609	277.46147	323.84066	239.21898	126.11885	0
734	229.45494	160.29299	-69.97562	-194.46713	149.71528	47.19286	-256.30605	91.13104	265.25642	318.95864	239.21898	128.55986	0
735	229.45494	162.734	-67.53461	-196.90814	149.71528	49.63387	-263.62908	81.367	255.49238	311.63561	239.21898	133.44188	0
736	229.45494	167.61602	-62.65259	-199.34915	147.27427	54.51589	-268.5111	71.60296	243.28733	306.75359	244.101	140.76491	0
737	227.01393	172.49804	-55.32956	-199.34915	142.39225	59.39791	-273.39312	59.39791	231.08228	301.87157	246.54201	148.08794	0
738	227.01393	177.38006	-50.44754	-201.79016	139.95124	64.27993	-278.27514	47.19286	218.87723	294.54854	251.42403	150.52895	0
739	222.13191	177.38006	-45.56552	-199.34915	135.06922	66.72094	-285.59817	34.98781	206.67218	287.22551	251.42403	152.96996	0
740	219.6909	182.26208	-38.24249	-201.79016	130.1872	74.04397	-290.48019	21.96909	192.02612	279.90248	253.86504	157.85198	0
741	224.57292	184.70309	-40.6835	-204.23117	132.62821	74.04397	-297.80322	9.76404	177.38006	272.57945	256.30605	160.29299	0
742	227.01393	189.58511	-38.24249	-209.11319	132.62821	76.48498	-302.68524	-4.88202	165.17501	265.25642	258.74706	162.734	0
743	224.57292	192.02612	-33.36047	-209.11319	130.1872	81.367	-310.00827	-19.52808	150.52895	257.93339	258.74706	165.17501	0
744	222.13191	199.34915	-23.59643	-211.5542	122.86417	88.69003	-314.89029	-29.29212	138.3239	253.05137	261.18807	170.05703	0
745	219.6909	201.79016	-18.71441	-211.5542	120.42316	93.57205	-317.3313	-39.05616	123.67784	243.28733	261.18807	172.49804	0
746	214.80888	201.79016	-13.83239	-209.11319	115.54114	96.01306	-322.21332	-53.70222	106.59077	231.08228	253.86504	174.93905	0
747	209.92686	199.34915	-11.39138	-204.23117	110.65912	96.01306	-324.65433	-65.90727	89.5037	216.43622	251.42403	174.93905	0
748	205.04484	199.34915	-6.50936	-201.79016	105.7771	98.45407	-327.09534	-80.55333	72.41663	201.79016	244.101	174.93905	0
749	197.72181	196.90814	-1.62734	-196.90814	100.89508	98.45407	-331.97736	-95.19939	55.32956	187.1441	236.77797	172.49804	0
750	190.39878	196.90814	5.69569	-194.46713	93.57205	103.33609	-334.41837	-107.40444	40.6835	174.93905	231.89595	172.49804	0
751	183.07575	194.46713	11.39138	-189.58511	86.24902	103.33609	-339.30039	-119.60949	23.59643	162.734	224.57292	170.05703	0
752	183.07575	194.46713	11.39138	-189.58511	86.24902	103.33609	-341.7414	-131.81454	10.57771	150.52895	214.80888	165.17501	0
753	183.07575	189.58511	5.69569	-187.1441	88.69003	98.45407	-349.06443	-144.01959	-4.06835	138.3239	205.04484	160.29299	0
754	178.19373	187.1441	8.95037	-182.26208	86.24902	98.45407	-351.50544	-153.78363	-16.2734	126.11885	197.72181	155.41097	0
755	173.31171	182.26208	8.95037	-177.38006	83.80801	96.01306	-351.50544	-158.66565	-28.47845	116.35481	190.39878	152.96996	0
756	165.98868	182.26208	16.2734	-174.93905	76.48498	100.89508	-346.62342	-158.66565	-35.80148	106.59077	183.07575	150.52895	0
757	163.54767	179.82107	16.2734	-172.49804	74.04397	98.45407	-339.30039	-161.10666	-45.56552	99.26774	178.19373	145.64693	0
758	161.10666	174.93905	13.83239	-167.61602	74.04397	96.01306	-331.97736	-163.54767	-52.88855	89.5037	170.8707	138.3239	0
759	148.90161	170.05703	21.15542	-160.29299	64.27993	96.01306	-322.21332	-163.54767	-57.77057	79.73966	163.54767	131.00087	0
760	141.57858	162.734	21.15542	-152.96996	61.83892	93.57205	-317.3313	-165.98868	-65.0936	69.97562	153.78363	121.23683	0
761	131.81454	152.96996	21.15542	-143.20592	56.9569	88.69003	-310.00827	-168.42969	-74.85764	57.77057	141.57858	111.47279	0
762	126.93252	148.08794	21.15542	-138.3239	54.51589	86.24902	-305.12625	-165.98868	-79.73966	48.00653	131.81454	101.70875	0
763	124.49151	148.08794	23.59643	-135.88289	52.07488	86.24902	-300.24423	-163.54767	-82.18067	40.6835	122.0505	91.94471	0
764	124.49151	143.20592	18.71441	-133.44188	54.51589	81.367	-292.9212	-161.10666	-87.06269	30.91946	112.28646	82.18067	0
765	112.28646	135.88289	23.59643	-123.67784	44.75185	81.367	-283.15716	-153.78363	-87.06269	23.59643	100.08141	72.41663	0
766	102.52242	131.00087	28.47845	-116.35481	37.42882	81.367	-270.95211	-146.4606	-87.06269	16.2734	90.31737	65.0936	0
767	95.19939	123.67784	28.47845	-109.03178	34.98781	76.48498	-258.74706	-141.57858	-89.5037	8.95037	80.55333	60.21158	0
768	90.31737	116.35481	26.03744	-104.14976	32.5468	71.60296	-248.98302	-136.69656	-89.5037	1.62734	70.78929	50.44754	0
769	85.43535	113.9138	28.47845	-99.26774	30.10579	71.60296	-234.33696	-129.37353	-87.06269	-3.25468	63.46626	43.12451	0
770	75.67131	104.14976	28.47845	-89.5037	25.22377	66.72094	-222.13191	-124.49151	-87.06269	-8.95037	56.14323	33.36047	0
771	65.90727	94.38572	28.47845	-79.73966	20.34175	61.83892	-207.48585	-114.72747	-87.06269	-8.95037	48.8202	23.59643	0
772	56.14323	84.62168	28.47845	-69.97562	15.45973	56.9569	-192.83979	-107.40444	-82.18067	-8.95037	43.93818	16.2734	0
773	53.70222	74.85764	21.15542	-65.0936	17.90074	49.63387	-183.07575	-100.08141	-77.29865	-13.83239	36.61515	6.50936	0
774	51.26121	69.97562	18.71441	-60.21158	17.90074	44.75185	-173.31171	-92.75838	-74.85764	-16.2734	31.73313	-0.81367	0
775	46.37919	62.65259	16.2734	-55.32956	15.45973	39.86983	-161.10666	-80.55333	-72.41663	-18.71441	24.4101	-10.57771	0
776	46.37919	60.21158	13.83239	-52.88855	17.90074	37.42882	-148.90161	-70.78929	-69.97562	-21.15542	17.08707	-16.2734	0
777	46.37919	57.77057	11.39138	-52.88855	17.90074	34.98781	-134.25555	-58.58424	-65.0936	-23.59643	14.64606	-16.2734	0
778	41.49717	55.32956	13.83239	-48.00653	15.45973	34.98781	-119.60949	-48.8202	-60.21158	-26.03744	7.32303	-23.59643	0
779	34.17414	48.00653	13.83239	-40.6835	10.57771	32.5468	-107.40444	-41.49717	-57.77057	-28.47845	0	-30.91946	0
780	26.85111	40.6835	13.83239	-33.36047	8.1367	27.66478	-97.6404	-36.61515	-55.32956	-33.36047	-7.32303	-38.24249	0
781	21.96909	33.36047	11.39138	-28.47845	5.69569	22.78276	-87.87636	-29.29212	-55.32956	-35.80148	-14.64606	-43.12451	0
782	14.64606	28.47845	13.83239	-21.15542	0.81367	22.78276	-78.11232	-21.96909	-52.88855	-35.80148	-19.52808	-45.56552	0
783	9.76404	26.03744	16.2734	-18.71441	-1.62734	22.78276	-68.34828	-14.64606	-48.00653	-35.80148	-19.52808	-45.56552	0
784	9.76404	26.03744	16.2734	-18.71441	-1.62734	22.78276	-58.58424	-4.88202	-43.12451	-35.80148	-24.4101	-45.56552	0
785	2.44101	18.71441	16.2734	-11.39138	-7.32303	17.90074	-51.26121	2.44101	-43.12451	-38.24249	-27.66478	-45.56552	0
786	-4.88202	11.39138	16.2734	-4.06835	-9.76404	15.45973	-43.93818	7.32303	-40.6835	-40.6835	-32.5468	-45.56552	0
787	-4.88202	13.83239	18.71441	-4.06835	-12.20505	17.90074	-34.17414	14.64606	-38.24249	-40.6835	-32.5468	-40.6835	0
788	-2.44101	18.71441	21.15542	-8.95037	-12.20505	20.34175	-23.59643	21.96909	-30.91946	-40.6835	-32.5468	-40.6835	0
789	-2.44101	18.71441	21.15542	-8.95037	-12.20505	20.34175	-16.2734	26.85111	-26.03744	-38.24249	-32.5468	-40.6835	0
790	-2.44101	18.71441	21.15542	-8.95037	-12.20505	20.34175	-8.95037	26.85111	-26.03744	-38.24249	-34.98781	-43.12451	0
791	-2.44101	16.2734	18.71441	-6.50936	-9.76404	17.90074	-4.06835	26.85111	-26.03744	-38.24249	-37.42882	-43.12451	0
792	-8.1367	8.95037	16.2734	-1.62734	-12.20505	13.01872	-1.62734	26.85111	-23.59643	-35.80148	-39.86983	-45.56552	0
793	-10.57771	1.62734	11.39138	3.25468	-9.76404	5.69569	-1.62734	26.85111	-21.15542	-35.80148	-39.86983	-50.44754	0
794	-8.1367	1.62734	8.95037	3.25468	-7.32303	5.69569	0.81367	26.85111	-21.15542	-35.80148	-42.31084	-55.32956	0
795	-8.1367	1.62734	8.95037	3.25468	-7.32303	5.69569	3.25468	34.98781	-21.15542	-35.80148	-42.31084	-55.32956	0
796	-10.57771	1.62734	11.39138	3.25468	-9.76404	5.69569	8.1367	37.42882	-21.15542	-35.80148	-42.31084	-55.32956	0
797	-13.01872	1.62734	13.83239	3.25468	-12.20505	8.1367	10.57771	37.42882	-18.71441	-35.80148	-42.31084	-55.32956	0
798	-13.01872	6.50936	18.71441	3.25468	-14.64606	13.01872	15.45973	42.31084	-16.2734	-35.80148	-39.86983	-55.32956	0
799	-8.1367	8.95037	16.2734	-1.62734	-12.20505	13.01872	17.90074	42.31084	-16.2734	-35.80148	-39.86983	-57.77057	0
800	-8.1367	11.39138	18.71441	-1.62734	-12.20505	15.45973	17.90074	39.86983	-16.2734	-38.24249	-42.31084	-57.77057	0
801	-10.57771	18.71441	28.47845	-4.06835	-19.52808	22.78276	22.78276	44.75185	-13.83239	-33.36047	-39.86983	-55.32956	0
802	-15.45973	23.59643	38.24249	-4.06835	-26.85111	30.10579	25.22377	47.19286	-8.95037	-28.47845	-37.42882	-52.88855	0
803	-15.45973	26.03744	40.6835	-6.50936	-26.85111	32.5468	25.22377	47.19286	-8.95037	-28.47845	-37.42882	-52.88855	0
804	-13.01872	23.59643	35.80148	-6.50936	-24.4101	30.10579	22.78276	44.75185	-11.39138	-30.91946	-39.86983	-57.77057	0
805	-15.45973	18.71441	33.36047	-1.62734	-24.4101	25.22377	22.78276	44.75185	-13.83239	-35.80148	-44.75185	-60.21158	0
806	-17.90074	13.83239	30.91946	0.81367	-24.4101	22.78276	17.90074	42.31084	-18.71441	-40.6835	-52.07488	-62.65259	0
807	-22.78276	8.95037	30.91946	6.50936	-26.85111	20.34175	17.90074	39.86983	-21.15542	-43.12451	-54.51589	-65.0936	0
808	-22.78276	8.95037	30.91946	6.50936	-26.85111	20.34175	22.78276	42.31084	-18.71441	-45.56552	-54.51589	-65.0936	0
809	-20.34175	8.95037	28.47845	3.25468	-24.4101	17.90074	25.22377	42.31084	-21.15542	-48.00653	-56.9569	-69.97562	0
810	-10.57771	6.50936	16.2734	0.81367	-12.20505	10.57771	20.34175	34.98781	-23.59643	-52.88855	-61.83892	-72.41663	0
811	-13.01872	1.62734	13.83239	3.25468	-12.20505	8.1367	20.34175	34.98781	-28.47845	-52.88855	-64.27993	-72.41663	0
812	-22.78276	-6.50936	16.2734	13.83239	-19.52808	5.69569	20.34175	34.98781	-28.47845	-52.88855	-64.27993	-72.41663	0
813	-25.22377	-8.95037	16.2734	16.2734	-21.96909	2.44101	20.34175	34.98781	-28.47845	-52.88855	-64.27993	-72.41663	0
814	-22.78276	-8.95037	13.83239	13.83239	-19.52808	2.44101	20.34175	34.98781	-26.03744	-50.44754	-64.27993	-67.53461	0
815	-22.78276	-8.95037	13.83239	13.83239	-19.52808	2.44101	20.34175	37.42882	-26.03744	-50.44754	-64.27993	-67.53461	0
816	-30.10579	-16.2734	13.83239	21.15542	-21.96909	-2.44101	17.90074	34.98781	-30.91946	-55.32956	-66.72094	-67.53461	0
817	-39.86983	-23.59643	16.2734	30.91946	-29.29212	-4.88202	17.90074	32.5468	-33.36047	-57.77057	-66.72094	-67.53461	0
818	-42.31084	-26.03744	16.2734	33.36047	-29.29212	-4.88202	17.90074	30.10579	-38.24249	-62.65259	-69.16195	-67.53461	0
819	-39.86983	-23.59643	16.2734	30.91946	-29.29212	-4.88202	17.90074	26.85111	-38.24249	-65.0936	-69.16195	-67.53461	0
820	-34.98781	-16.2734	18.71441	23.59643	-26.85111	0	17.90074	26.85111	-38.24249	-65.0936	-69.16195	-65.0936	0
821	-30.10579	-8.95037	21.15542	18.71441	-26.85111	5.69569	20.34175	26.85111	-38.24249	-65.0936	-66.72094	-62.65259	0
822	-27.66478	-6.50936	21.15542	16.2734	-24.4101	8.1367	22.78276	26.85111	-35.80148	-62.65259	-66.72094	-62.65259	0
823	-30.10579	-8.95037	21.15542	18.71441	-26.85111	5.69569	22.78276	26.85111	-35.80148	-62.65259	-69.16195	-67.53461	0
824	-25.22377	-6.50936	18.71441	13.83239	-21.96909	5.69569	22.78276	26.85111	-35.80148	-65.0936	-69.16195	-69.97562	0
825	-25.22377	-4.06835	21.15542	13.83239	-24.4101	8.1367	27.66478	32.5468	-35.80148	-65.0936	-71.60296	-69.97562	0
826	-25.22377	-4.06835	21.15542	13.83239	-24.4101	8.1367	32.5468	34.98781	-35.80148	-69.97562	-74.04397	-69.97562	0
827	-32.5468	-6.50936	26.03744	18.71441	-29.29212	10.57771	34.98781	37.42882	-35.80148	-72.41663	-76.48498	-72.41663	0
828	-39.86983	-13.83239	26.03744	26.03744	-34.17414	5.69569	34.98781	37.42882	-38.24249	-79.73966	-81.367	-77.29865	0
829	-47.19286	-18.71441	28.47845	30.91946	-39.05616	5.69569	32.5468	34.98781	-38.24249	-82.18067	-86.24902	-82.18067	0
830	-47.19286	-21.15542	26.03744	33.36047	-36.61515	2.44101	30.10579	32.5468	-38.24249	-84.62168	-88.69003	-84.62168	0
831	-52.07488	-21.15542	30.91946	35.80148	-41.49717	5.69569	27.66478	32.5468	-40.6835	-84.62168	-88.69003	-84.62168	0
832	-59.39791	-26.03744	33.36047	40.6835	-46.37919	2.44101	27.66478	32.5468	-35.80148	-82.18067	-88.69003	-82.18067	0
833	-54.51589	-26.03744	28.47845	38.24249	-41.49717	0	27.66478	32.5468	-33.36047	-77.29865	-86.24902	-79.73966	0
834	-44.75185	-23.59643	21.15542	33.36047	-34.17414	-2.44101	25.22377	32.5468	-28.47845	-77.29865	-86.24902	-77.29865	0
835	-44.75185	-23.59643	21.15542	33.36047	-34.17414	-2.44101	25.22377	37.42882	-28.47845	-77.29865	-86.24902	-74.85764	0
836	-42.31084	-23.59643	18.71441	30.91946	-31.73313	-2.44101	22.78276	37.42882	-28.47845	-77.29865	-86.24902	-72.41663	0
837	-37.42882	-21.15542	16.2734	28.47845	-26.85111	-2.44101	25.22377	37.42882	-28.47845	-77.29865	-86.24902	-67.53461	0
838	-34.98781	-16.2734	18.71441	23.59643	-26.85111	0	27.66478	39.86983	-26.03744	-79.73966	-86.24902	-67.53461	0
839	-37.42882	-13.83239	23.59643	23.59643	-31.73313	5.69569	27.66478	39.86983	-26.03744	-82.18067	-88.69003	-72.41663	0
840	-30.10579	-8.95037	21.15542	18.71441	-26.85111	5.69569	27.66478	37.42882	-26.03744	-82.18067	-88.69003	-74.85764	0
841	-30.10579	-11.39138	18.71441	18.71441	-24.4101	2.44101	22.78276	32.5468	-33.36047	-84.62168	-93.57205	-74.85764	0
842	-39.86983	-16.2734	23.59643	26.03744	-31.73313	2.44101	17.90074	32.5468	-33.36047	-84.62168	-96.01306	-74.85764	0
843	-42.31084	-18.71441	23.59643	28.47845	-34.17414	2.44101	13.01872	30.10579	-35.80148	-84.62168	-96.01306	-74.85764	0
844	-42.31084	-23.59643	18.71441	30.91946	-31.73313	-2.44101	10.57771	26.85111	-35.80148	-84.62168	-96.01306	-74.85764	0
845	-49.63387	-28.47845	21.15542	38.24249	-36.61515	-4.88202	10.57771	32.5468	-33.36047	-82.18067	-96.01306	-74.85764	0
846	-56.9569	-35.80148	21.15542	45.56552	-39.05616	-7.32303	8.1367	34.98781	-33.36047	-82.18067	-98.45407	-74.85764	0
847	-64.27993	-43.12451	21.15542	52.88855	-43.93818	-12.20505	8.1367	34.98781	-33.36047	-82.18067	-98.45407	-74.85764	0
848	-69.16195	-48.00653	21.15542	57.77057	-46.37919	-14.64606	5.69569	34.98781	-35.80148	-87.06269	-98.45407	-74.85764	0
849	-71.60296	-50.44754	21.15542	60.21158	-46.37919	-14.64606	0.81367	32.5468	-35.80148	-89.5037	-98.45407	-79.73966	0
850	-69.16195	-50.44754	18.71441	57.77057	-43.93818	-17.08707	0.81367	26.85111	-38.24249	-89.5037	-100.89508	-79.73966	0
851	-69.16195	-50.44754	18.71441	57.77057	-43.93818	-17.08707	-1.62734	26.85111	-40.6835	-87.06269	-100.89508	-79.73966	0
852	-71.60296	-52.88855	18.71441	60.21158	-46.37919	-17.08707	-4.06835	26.85111	-40.6835	-84.62168	-96.01306	-79.73966	0
853	-71.60296	-50.44754	21.15542	60.21158	-46.37919	-14.64606	-8.95037	21.96909	-40.6835	-82.18067	-96.01306	-77.29865	0
854	-64.27993	-48.00653	16.2734	55.32956	-41.49717	-17.08707	-13.83239	17.08707	-40.6835	-79.73966	-91.13104	-74.85764	0
855	-61.83892	-48.00653	13.83239	52.88855	-39.05616	-17.08707	-18.71441	17.08707	-43.12451	-79.73966	-91.13104	-74.85764	0
856	-56.9569	-48.00653	8.95037	50.44754	-34.17414	-19.52808	-18.71441	14.64606	-43.12451	-77.29865	-88.69003	-69.97562	0
857	-52.07488	-45.56552	5.69569	48.00653	-29.29212	-19.52808	-16.2734	14.64606	-43.12451	-74.85764	-86.24902	-60.21158	0
858	-49.63387	-43.12451	5.69569	45.56552	-29.29212	-19.52808	-13.83239	14.64606	-43.12451	-74.85764	-81.367	-55.32956	0
859	-49.63387	-40.6835	8.95037	43.12451	-29.29212	-17.08707	-8.95037	14.64606	-43.12451	-72.41663	-78.92599	-55.32956	0
860	-44.75185	-35.80148	8.95037	38.24249	-26.85111	-14.64606	-6.50936	12.20505	-43.12451	-69.97562	-78.92599	-52.88855	0
861	-39.86983	-35.80148	3.25468	35.80148	-21.96909	-17.08707	-6.50936	9.76404	-48.00653	-69.97562	-78.92599	-55.32956	0
862	-39.86983	-35.80148	3.25468	35.80148	-21.96909	-17.08707	-6.50936	9.76404	-48.00653	-67.53461	-78.92599	-55.32956	0
863	-34.98781	-35.80148	-1.62734	33.36047	-17.08707	-19.52808	-11.39138	7.32303	-50.44754	-65.0936	-78.92599	-55.32956	0
864	-32.5468	-35.80148	-4.06835	33.36047	-14.64606	-19.52808	-13.83239	7.32303	-48.00653	-62.65259	-78.92599	-55.32956	0
865	-30.10579	-35.80148	-6.50936	30.91946	-12.20505	-21.96909	-16.2734	7.32303	-48.00653	-60.21158	-78.92599	-52.88855	0
866	-34.98781	-40.6835	-6.50936	35.80148	-14.64606	-24.4101	-18.71441	7.32303	-48.00653	-60.21158	-78.92599	-55.32956	0
867	-39.86983	-43.12451	-4.06835	40.6835	-19.52808	-24.4101	-18.71441	7.32303	-50.44754	-60.21158	-78.92599	-55.32956	0
868	-44.75185	-43.12451	0.81367	43.12451	-24.4101	-21.96909	-21.15542	4.88202	-50.44754	-62.65259	-76.48498	-52.88855	0
869	-42.31084	-43.12451	-1.62734	40.6835	-21.96909	-21.96909	-21.15542	2.44101	-52.88855	-65.0936	-76.48498	-52.88855	0
870	-37.42882	-38.24249	-1.62734	35.80148	-19.52808	-19.52808	-21.15542	0	-50.44754	-65.0936	-74.04397	-52.88855	0
871	-30.10579	-38.24249	-8.95037	33.36047	-12.20505	-24.4101	-18.71441	-2.44101	-50.44754	-62.65259	-71.60296	-48.00653	0
872	-22.78276	-33.36047	-11.39138	26.03744	-7.32303	-21.96909	-16.2734	-2.44101	-50.44754	-60.21158	-69.16195	-43.12451	0
873	-22.78276	-30.91946	-8.95037	26.03744	-7.32303	-19.52808	-16.2734	-2.44101	-50.44754	-57.77057	-64.27993	-40.6835	0
874	-25.22377	-33.36047	-8.95037	28.47845	-9.76404	-21.96909	-16.2734	-2.44101	-48.00653	-55.32956	-64.27993	-40.6835	0
875	-27.66478	-38.24249	-11.39138	30.91946	-9.76404	-24.4101	-16.2734	-4.88202	-48.00653	-55.32956	-64.27993	-43.12451	0
876	-22.78276	-40.6835	-18.71441	30.91946	-1.62734	-29.29212	-16.2734	-7.32303	-50.44754	-57.77057	-66.72094	-45.56552	0
877	-25.22377	-48.00653	-23.59643	35.80148	-1.62734	-36.61515	-13.83239	-7.32303	-52.88855	-60.21158	-69.16195	-48.00653	0
878	-30.10579	-48.00653	-18.71441	38.24249	-7.32303	-34.17414	-11.39138	-7.32303	-55.32956	-62.65259	-69.16195	-48.00653	0
879	-32.5468	-48.00653	-16.2734	38.24249	-9.76404	-31.73313	-11.39138	-7.32303	-55.32956	-65.0936	-71.60296	-50.44754	0
880	-39.86983	-48.00653	-8.95037	43.12451	-17.08707	-29.29212	-11.39138	-7.32303	-55.32956	-67.53461	-74.04397	-52.88855	0
881	-42.31084	-50.44754	-8.95037	45.56552	-17.08707	-29.29212	-13.83239	-9.76404	-55.32956	-67.53461	-76.48498	-57.77057	0
882	-39.86983	-50.44754	-11.39138	43.12451	-14.64606	-31.73313	-13.83239	-9.76404	-57.77057	-67.53461	-78.92599	-57.77057	0
883	-34.98781	-45.56552	-11.39138	38.24249	-12.20505	-29.29212	-13.83239	-7.32303	-57.77057	-67.53461	-76.48498	-57.77057	0
884	-37.42882	-50.44754	-13.83239	43.12451	-12.20505	-31.73313	-21.15542	-7.32303	-57.77057	-67.53461	-76.48498	-57.77057	0
885	-37.42882	-50.44754	-13.83239	43.12451	-12.20505	-31.73313	-23.59643	-9.76404	-57.77057	-67.53461	-76.48498	-55.32956	0
886	-39.86983	-52.88855	-13.83239	45.56552	-14.64606	-34.17414	-28.47845	-9.76404	-57.77057	-69.97562	-78.92599	-55.32956	0
887	-49.63387	-60.21158	-11.39138	52.88855	-19.52808	-36.61515	-28.47845	-12.20505	-62.65259	-74.85764	-83.80801	-55.32956	0
888	-56.9569	-67.53461	-11.39138	60.21158	-24.4101	-39.05616	-28.47845	-12.20505	-65.0936	-77.29865	-83.80801	-55.32956	0
889	-59.39791	-72.41663	-13.83239	65.0936	-24.4101	-43.93818	-30.91946	-12.20505	-65.0936	-79.73966	-81.367	-57.77057	0
890	-59.39791	-72.41663	-13.83239	65.0936	-24.4101	-43.93818	-30.91946	-17.08707	-67.53461	-79.73966	-83.80801	-57.77057	0
891	-61.83892	-74.85764	-13.83239	67.53461	-24.4101	-43.93818	-30.91946	-19.52808	-69.97562	-82.18067	-83.80801	-57.77057	0
892	-61.83892	-74.85764	-13.83239	67.53461	-24.4101	-43.93818	-34.17414	-19.52808	-72.41663	-82.18067	-83.80801	-57.77057	0
893	-56.9569	-69.97562	-13.83239	62.65259	-21.96909	-41.49717	-34.17414	-17.08707	-72.41663	-82.18067	-83.80801	-57.77057	0
894	-54.51589	-67.53461	-13.83239	60.21158	-21.96909	-41.49717	-34.17414	-17.08707	-72.41663	-79.73966	-83.80801	-57.77057	0
895	-56.9569	-67.53461	-11.39138	60.21158	-24.4101	-39.05616	-34.17414	-17.08707	-72.41663	-79.73966	-83.80801	-57.77057	0
896	-56.9569	-62.65259	-6.50936	57.77057	-26.85111	-34.17414	-34.17414	-17.08707	-72.41663	-79.73966	-81.367	-57.77057	0
897	-52.07488	-60.21158	-8.95037	55.32956	-21.96909	-34.17414	-30.91946	-14.64606	-72.41663	-79.73966	-81.367	-57.77057	0
898	-49.63387	-55.32956	-6.50936	50.44754	-21.96909	-31.73313	-28.47845	-14.64606	-72.41663	-82.18067	-81.367	-55.32956	0
899	-54.51589	-55.32956	-1.62734	52.88855	-26.85111	-29.29212	-28.47845	-14.64606	-72.41663	-84.62168	-81.367	-55.32956	0
900	-61.83892	-57.77057	3.25468	57.77057	-34.17414	-26.85111	-28.47845	-14.64606	-72.41663	-84.62168	-81.367	-52.88855	0
901	-61.83892	-57.77057	3.25468	57.77057	-34.17414	-26.85111	-28.47845	-19.52808	-72.41663	-84.62168	-81.367	-52.88855	0
902	-59.39791	-55.32956	3.25468	55.32956	-31.73313	-26.85111	-26.03744	-19.52808	-72.41663	-82.18067	-81.367	-50.44754	0
903	-56.9569	-52.88855	3.25468	52.88855	-31.73313	-24.4101	-26.03744	-19.52808	-72.41663	-79.73966	-81.367	-50.44754	0
904	-54.51589	-52.88855	0.81367	52.88855	-29.29212	-26.85111	-26.03744	-19.52808	-72.41663	-79.73966	-81.367	-50.44754	0
905	-52.07488	-55.32956	-4.06835	52.88855	-24.4101	-29.29212	-28.47845	-21.96909	-74.85764	-79.73966	-86.24902	-55.32956	0
906	-64.27993	-65.0936	-1.62734	62.65259	-31.73313	-34.17414	-30.91946	-26.85111	-79.73966	-84.62168	-91.13104	-60.21158	0
907	-74.04397	-72.41663	0.81367	72.41663	-39.05616	-36.61515	-28.47845	-26.85111	-79.73966	-84.62168	-96.01306	-60.21158	0
908	-69.16195	-69.97562	-1.62734	67.53461	-34.17414	-36.61515	-26.03744	-26.85111	-82.18067	-89.5037	-96.01306	-60.21158	0
909	-56.9569	-62.65259	-6.50936	57.77057	-26.85111	-34.17414	-23.59643	-26.85111	-82.18067	-89.5037	-96.01306	-60.21158	0
910	-56.9569	-60.21158	-4.06835	57.77057	-26.85111	-31.73313	-18.71441	-24.4101	-77.29865	-87.06269	-93.57205	-60.21158	0
911	-59.39791	-60.21158	-1.62734	57.77057	-29.29212	-31.73313	-16.2734	-26.85111	-77.29865	-87.06269	-93.57205	-60.21158	0
912	-59.39791	-60.21158	-1.62734	57.77057	-29.29212	-31.73313	-16.2734	-26.85111	-77.29865	-89.5037	-93.57205	-60.21158	0
913	-59.39791	-60.21158	-1.62734	57.77057	-29.29212	-31.73313	-16.2734	-29.29212	-82.18067	-89.5037	-93.57205	-60.21158	0
914	-56.9569	-60.21158	-4.06835	57.77057	-26.85111	-31.73313	-16.2734	-29.29212	-79.73966	-87.06269	-91.13104	-57.77057	0
915	-52.07488	-55.32956	-4.06835	52.88855	-24.4101	-29.29212	-16.2734	-29.29212	-77.29865	-87.06269	-91.13104	-55.32956	0
916	-54.51589	-55.32956	-1.62734	52.88855	-26.85111	-29.29212	-18.71441	-29.29212	-79.73966	-87.06269	-88.69003	-57.77057	0
917	-64.27993	-62.65259	0.81367	62.65259	-34.17414	-31.73313	-18.71441	-29.29212	-82.18067	-89.5037	-91.13104	-60.21158	0
918	-74.04397	-69.97562	3.25468	69.97562	-39.05616	-34.17414	-21.15542	-31.73313	-84.62168	-94.38572	-91.13104	-65.0936	0
919	-74.04397	-69.97562	3.25468	69.97562	-39.05616	-34.17414	-26.03744	-34.17414	-89.5037	-99.26774	-93.57205	-69.97562	0
920	-74.04397	-69.97562	3.25468	69.97562	-39.05616	-34.17414	-26.03744	-36.61515	-89.5037	-101.70875	-93.57205	-69.97562	0
921	-71.60296	-67.53461	3.25468	67.53461	-39.05616	-31.73313	-26.03744	-39.05616	-89.5037	-101.70875	-96.01306	-72.41663	0
922	-64.27993	-60.21158	3.25468	60.21158	-34.17414	-29.29212	-23.59643	-36.61515	-89.5037	-99.26774	-93.57205	-69.97562	0
923	-61.83892	-60.21158	0.81367	60.21158	-31.73313	-29.29212	-23.59643	-36.61515	-91.94471	-99.26774	-93.57205	-69.97562	0
924	-56.9569	-60.21158	-4.06835	57.77057	-26.85111	-31.73313	-23.59643	-36.61515	-89.5037	-94.38572	-93.57205	-69.97562	0
925	-49.63387	-55.32956	-6.50936	50.44754	-21.96909	-31.73313	-21.15542	-34.17414	-87.06269	-91.94471	-91.13104	-69.97562	0
926	-44.75185	-52.88855	-8.95037	48.00653	-19.52808	-31.73313	-21.15542	-36.61515	-89.5037	-91.94471	-91.13104	-69.97562	0
927	-49.63387	-57.77057	-8.95037	52.88855	-21.96909	-34.17414	-21.15542	-36.61515	-91.94471	-94.38572	-93.57205	-69.97562	0
928	-54.51589	-60.21158	-6.50936	55.32956	-24.4101	-34.17414	-21.15542	-36.61515	-91.94471	-96.82673	-91.13104	-69.97562	0
929	-54.51589	-55.32956	-1.62734	52.88855	-26.85111	-29.29212	-18.71441	-34.17414	-89.5037	-96.82673	-86.24902	-65.0936	0
930	-61.83892	-60.21158	0.81367	60.21158	-31.73313	-29.29212	-18.71441	-34.17414	-89.5037	-96.82673	-86.24902	-65.0936	0
931	-74.04397	-67.53461	5.69569	69.97562	-41.49717	-31.73313	-18.71441	-34.17414	-89.5037	-96.82673	-86.24902	-67.53461	0
932	-74.04397	-67.53461	5.69569	69.97562	-41.49717	-31.73313	-18.71441	-34.17414	-91.94471	-96.82673	-86.24902	-67.53461	0
933	-76.48498	-69.97562	5.69569	72.41663	-41.49717	-31.73313	-21.15542	-36.61515	-94.38572	-99.26774	-86.24902	-69.97562	0
934	-81.367	-79.73966	0.81367	79.73966	-41.49717	-39.05616	-26.03744	-39.05616	-94.38572	-99.26774	-88.69003	-72.41663	0
935	-81.367	-79.73966	0.81367	79.73966	-41.49717	-39.05616	-26.03744	-39.05616	-94.38572	-99.26774	-88.69003	-72.41663	0
936	-78.92599	-79.73966	-1.62734	77.29865	-39.05616	-41.49717	-21.15542	-36.61515	-91.94471	-94.38572	-86.24902	-67.53461	0
937	-76.48498	-79.73966	-4.06835	77.29865	-36.61515	-41.49717	-21.15542	-34.17414	-91.94471	-94.38572	-86.24902	-65.0936	0
938	-81.367	-82.18067	-1.62734	79.73966	-41.49717	-41.49717	-21.15542	-34.17414	-94.38572	-99.26774	-86.24902	-65.0936	0
939	-74.04397	-79.73966	-6.50936	74.85764	-34.17414	-43.93818	-23.59643	-34.17414	-94.38572	-101.70875	-91.13104	-69.97562	0
940	-71.60296	-77.29865	-6.50936	72.41663	-34.17414	-41.49717	-23.59643	-36.61515	-94.38572	-101.70875	-93.57205	-72.41663	0
941	-78.92599	-82.18067	-4.06835	79.73966	-39.05616	-43.93818	-28.47845	-39.05616	-96.82673	-104.14976	-96.01306	-74.85764	0
942	-81.367	-82.18067	-1.62734	79.73966	-41.49717	-41.49717	-28.47845	-39.05616	-96.82673	-104.14976	-98.45407	-74.85764	0
943	-78.92599	-77.29865	0.81367	77.29865	-41.49717	-39.05616	-28.47845	-39.05616	-96.82673	-104.14976	-98.45407	-69.97562	0
944	-76.48498	-72.41663	3.25468	72.41663	-41.49717	-34.17414	-28.47845	-39.05616	-94.38572	-99.26774	-98.45407	-69.97562	0
945	-81.367	-74.85764	5.69569	77.29865	-43.93818	-34.17414	-28.47845	-39.05616	-94.38572	-99.26774	-98.45407	-72.41663	0
946	-83.80801	-77.29865	5.69569	79.73966	-46.37919	-36.61515	-28.47845	-39.05616	-94.38572	-101.70875	-100.89508	-72.41663	0
947	-83.80801	-77.29865	5.69569	79.73966	-46.37919	-36.61515	-28.47845	-36.61515	-94.38572	-101.70875	-100.89508	-72.41663	0
948	-83.80801	-77.29865	5.69569	79.73966	-46.37919	-36.61515	-23.59643	-34.17414	-94.38572	-104.14976	-98.45407	-69.97562	0
949	-93.57205	-69.97562	23.59643	79.73966	-58.58424	-24.4101	-16.2734	-26.85111	-89.5037	-96.82673	-91.13104	-65.0936	0
950	-91.13104	-65.0936	26.03744	77.29865	-58.58424	-19.52808	-11.39138	-26.85111	-84.62168	-96.82673	-88.69003	-65.0936	0
951	-88.69003	-62.65259	26.03744	74.85764	-58.58424	-19.52808	-11.39138	-26.85111	-84.62168	-94.38572	-88.69003	-62.65259	0
952	-91.13104	-65.0936	26.03744	77.29865	-58.58424	-19.52808	-11.39138	-26.85111	-87.06269	-94.38572	-88.69003	-65.0936	0
953	-88.69003	-67.53461	21.15542	77.29865	-56.14323	-24.4101	-11.39138	-26.85111	-89.5037	-96.82673	-88.69003	-67.53461	0
954	-81.367	-65.0936	16.2734	72.41663	-48.8202	-24.4101	-11.39138	-26.85111	-87.06269	-96.82673	-91.13104	-69.97562	0
955	-78.92599	-62.65259	16.2734	69.97562	-48.8202	-24.4101	-8.95037	-24.4101	-84.62168	-94.38572	-88.69003	-69.97562	0
956	-86.24902	-65.0936	21.15542	74.85764	-53.70222	-21.96909	-8.95037	-21.96909	-84.62168	-91.94471	-88.69003	-67.53461	0
957	-78.92599	-67.53461	11.39138	72.41663	-46.37919	-29.29212	-8.95037	-26.85111	-87.06269	-96.82673	-93.57205	-72.41663	0
958	-74.04397	-72.41663	0.81367	72.41663	-39.05616	-36.61515	-11.39138	-29.29212	-91.94471	-104.14976	-96.01306	-74.85764	0
959	-78.92599	-74.85764	3.25468	74.85764	-41.49717	-36.61515	-11.39138	-29.29212	-91.94471	-104.14976	-96.01306	-74.85764	0
960	-76.48498	-67.53461	8.95037	69.97562	-43.93818	-29.29212	-8.95037	-26.85111	-89.5037	-101.70875	-96.01306	-72.41663	0
961	-76.48498	-62.65259	13.83239	67.53461	-46.37919	-24.4101	-8.95037	-26.85111	-87.06269	-101.70875	-93.57205	-69.97562	0
962	-78.92599	-62.65259	16.2734	69.97562	-48.8202	-24.4101	-8.95037	-26.85111	-87.06269	-101.70875	-93.57205	-69.97562	0
963	-78.92599	-65.0936	13.83239	69.97562	-46.37919	-26.85111	-11.39138	-26.85111	-89.5037	-101.70875	-93.57205	-69.97562	0
964	-71.60296	-62.65259	8.95037	65.0936	-41.49717	-26.85111	-16.2734	-26.85111	-87.06269	-99.26774	-93.57205	-67.53461	0
965	-71.60296	-62.65259	8.95037	65.0936	-41.49717	-26.85111	-16.2734	-24.4101	-87.06269	-96.82673	-91.13104	-67.53461	0
966	-71.60296	-65.0936	5.69569	67.53461	-39.05616	-29.29212	-16.2734	-24.4101	-87.06269	-96.82673	-91.13104	-65.0936	0
967	-74.04397	-67.53461	5.69569	69.97562	-41.49717	-31.73313	-16.2734	-24.4101	-87.06269	-96.82673	-96.01306	-65.0936	0
968	-78.92599	-72.41663	5.69569	74.85764	-43.93818	-34.17414	-16.2734	-24.4101	-87.06269	-99.26774	-96.01306	-65.0936	0
969	-81.367	-77.29865	3.25468	77.29865	-43.93818	-36.61515	-16.2734	-26.85111	-89.5037	-101.70875	-96.01306	-65.0936	0
970	-86.24902	-82.18067	3.25468	82.18067	-46.37919	-39.05616	-16.2734	-26.85111	-89.5037	-101.70875	-96.01306	-65.0936	0
971	-88.69003	-82.18067	5.69569	84.62168	-48.8202	-39.05616	-16.2734	-26.85111	-89.5037	-99.26774	-96.01306	-62.65259	0
972	-88.69003	-79.73966	8.95037	82.18067	-48.8202	-36.61515	-13.83239	-26.85111	-87.06269	-99.26774	-93.57205	-62.65259	0
973	-83.80801	-77.29865	5.69569	79.73966	-46.37919	-36.61515	-13.83239	-26.85111	-89.5037	-99.26774	-93.57205	-62.65259	0
