samplenr	I	II	III	aVR	aVL	aVF	V1	V2	V3	V4	V5	V6	measurement
0	-61.83892	17.90074	78.92599	21.15542	-69.16195	47.19286	52.88855	16.2734	-33.36047	56.9569	59.39791	27.66478	0
1	-66.72094	17.90074	83.80801	23.59643	-74.04397	49.63387	48.00653	6.50936	-40.6835	49.63387	52.07488	20.34175	0
2	-78.92599	10.57771	88.69003	33.36047	-83.80801	49.63387	38.24249	-13.01872	-57.77057	42.31084	44.75185	10.57771	0
3	-86.24902	-4.06835	81.367	43.12451	-83.80801	37.42882	33.36047	-32.5468	-74.85764	37.42882	39.86983	5.69569	0
4	-96.01306	-14.64606	81.367	52.88855	-88.69003	32.5468	30.91946	-49.63387	-87.06269	30.10579	37.42882	3.25468	0
5	-100.89508	-21.96909	78.92599	60.21158	-91.13104	27.66478	28.47845	-64.27993	-96.82673	25.22377	37.42882	3.25468	0
6	-108.21811	-29.29212	78.92599	67.53461	-93.57205	25.22377	23.59643	-74.04397	-101.70875	27.66478	42.31084	13.01872	0
7	-113.10013	-39.05616	74.04397	74.85764	-93.57205	17.90074	21.15542	-78.92599	-106.59077	34.98781	52.07488	22.78276	0
8	-113.10013	-48.8202	64.27993	79.73966	-88.69003	8.1367	16.2734	-88.69003	-117.16848	37.42882	56.9569	30.10579	0
9	-115.54114	-48.8202	66.72094	79.73966	-91.13104	8.1367	11.39138	-98.45407	-129.37353	37.42882	56.9569	30.10579	0
10	-115.54114	-41.49717	74.04397	77.29865	-96.01306	15.45973	4.06835	-109.03178	-141.57858	37.42882	56.9569	27.66478	0
11	-115.54114	-43.93818	71.60296	77.29865	-93.57205	13.01872	-0.81367	-116.35481	-146.4606	34.98781	56.9569	25.22377	0
12	-117.98215	-46.37919	71.60296	79.73966	-96.01306	13.01872	-5.69569	-128.55986	-156.22464	30.10579	52.07488	17.90074	0
13	-120.42316	-53.70222	66.72094	84.62168	-93.57205	5.69569	-8.1367	-138.3239	-163.54767	22.78276	44.75185	10.57771	0
14	-127.74619	-58.58424	69.16195	91.94471	-98.45407	5.69569	-10.57771	-150.52895	-170.8707	13.01872	34.98781	0.81367	0
15	-130.1872	-61.02525	69.16195	94.38572	-100.89508	3.25468	-10.57771	-162.734	-170.8707	5.69569	25.22377	-9.76404	0
16	-135.06922	-65.90727	69.16195	99.26774	-103.33609	0.81367	-13.01872	-165.17501	-168.42969	3.25468	20.34175	-14.64606	0
17	-142.39225	-65.90727	76.48498	101.70875	-110.65912	5.69569	-13.01872	-165.17501	-165.98868	-1.62734	17.90074	-14.64606	0
18	-144.83326	-65.90727	78.92599	104.14976	-113.10013	5.69569	-15.45973	-167.61602	-170.8707	-1.62734	15.45973	-14.64606	0
19	-152.15629	-70.78929	81.367	109.03178	-117.98215	5.69569	-15.45973	-170.05703	-175.75272	-1.62734	15.45973	-9.76404	0
20	-166.80235	-75.67131	91.13104	118.79582	-130.1872	8.1367	-15.45973	-174.93905	-175.75272	0.81367	20.34175	-4.06835	0
21	-176.56639	-85.43535	91.13104	128.55986	-135.06922	3.25468	-13.01872	-172.49804	-173.31171	0.81367	25.22377	3.25468	0
22	-188.77144	-92.75838	96.01306	138.3239	-142.39225	0.81367	-13.01872	-172.49804	-175.75272	-1.62734	27.66478	3.25468	0
23	-196.09447	-97.6404	98.45407	145.64693	-147.27427	0.81367	-15.45973	-177.38006	-180.63474	-4.06835	25.22377	5.69569	0
24	-208.29952	-100.08141	108.21811	152.96996	-159.47932	3.25468	-13.01872	-179.82107	-178.19373	-6.50936	22.78276	5.69569	0
25	-215.62255	-100.08141	115.54114	155.41097	-166.80235	8.1367	-8.1367	-179.82107	-170.8707	-8.95037	22.78276	5.69569	0
26	-218.06356	-95.19939	122.86417	155.41097	-171.68437	13.01872	-8.1367	-177.38006	-168.42969	-11.39138	17.90074	3.25468	0
27	-218.06356	-87.87636	130.1872	150.52895	-174.12538	20.34175	-8.1367	-172.49804	-163.54767	-11.39138	15.45973	0.81367	0
28	-213.18154	-75.67131	137.51023	143.20592	-176.56639	30.10579	-8.1367	-172.49804	-163.54767	-8.95037	15.45973	5.69569	0
29	-213.18154	-63.46626	149.71528	135.88289	-181.44841	42.31084	-8.1367	-170.05703	-165.98868	-6.50936	15.45973	8.1367	0
30	-213.18154	-56.14323	157.03831	133.44188	-186.33043	49.63387	-8.1367	-172.49804	-170.8707	-4.06835	15.45973	8.1367	0
31	-210.74053	-48.8202	161.92033	128.55986	-186.33043	56.9569	-5.69569	-172.49804	-170.8707	-4.06835	17.90074	8.1367	0
32	-210.74053	-48.8202	161.92033	128.55986	-186.33043	56.9569	-8.1367	-174.93905	-178.19373	-6.50936	20.34175	8.1367	0
33	-208.29952	-48.8202	159.47932	126.11885	-183.88942	54.51589	-8.1367	-182.26208	-185.51676	-11.39138	15.45973	3.25468	0
34	-205.85851	-53.70222	152.15629	128.55986	-179.0074	49.63387	-8.1367	-192.02612	-192.83979	-19.52808	10.57771	-1.62734	0
35	-205.85851	-65.90727	139.95124	133.44188	-174.12538	37.42882	-8.1367	-196.90814	-190.39878	-21.96909	10.57771	-4.06835	0
36	-205.85851	-78.11232	127.74619	140.76491	-166.80235	25.22377	-5.69569	-196.90814	-187.95777	-21.96909	15.45973	-6.50936	0
37	-205.85851	-87.87636	117.98215	145.64693	-161.92033	15.45973	-10.57771	-196.90814	-185.51676	-21.96909	15.45973	-9.76404	0
38	-198.53548	-87.87636	110.65912	140.76491	-154.5973	10.57771	-13.01872	-199.34915	-187.95777	-21.96909	10.57771	-14.64606	0
39	-198.53548	-85.43535	113.10013	140.76491	-157.03831	13.01872	-13.01872	-199.34915	-187.95777	-19.52808	13.01872	-9.76404	0
40	-200.97649	-80.55333	120.42316	138.3239	-161.92033	20.34175	-10.57771	-196.90814	-187.95777	-8.95037	20.34175	-4.06835	0
41	-200.97649	-70.78929	130.1872	133.44188	-166.80235	30.10579	-8.1367	-192.02612	-185.51676	-6.50936	25.22377	-4.06835	0
42	-198.53548	-53.70222	144.83326	123.67784	-171.68437	44.75185	-8.1367	-196.90814	-190.39878	-4.06835	25.22377	-4.06835	0
43	-198.53548	-46.37919	152.15629	121.23683	-176.56639	52.07488	-8.1367	-201.79016	-192.83979	-4.06835	25.22377	-1.62734	0
44	-203.4175	-43.93818	159.47932	121.23683	-181.44841	56.9569	-3.25468	-204.23117	-195.2808	-1.62734	30.10579	8.1367	0
45	-205.85851	-41.49717	164.36134	121.23683	-186.33043	61.83892	-0.81367	-206.67218	-190.39878	-1.62734	34.98781	13.01872	0
46	-200.97649	-34.17414	166.80235	116.35481	-183.88942	66.72094	-5.69569	-209.11319	-187.95777	-1.62734	34.98781	13.01872	0
47	-198.53548	-31.73313	166.80235	113.9138	-183.88942	66.72094	-10.57771	-211.5542	-187.95777	-1.62734	37.42882	13.01872	0
48	-198.53548	-34.17414	164.36134	113.9138	-181.44841	64.27993	-13.01872	-213.99521	-190.39878	0.81367	39.86983	17.90074	0
49	-198.53548	-36.61515	161.92033	116.35481	-181.44841	61.83892	-15.45973	-211.5542	-190.39878	5.69569	44.75185	22.78276	0
50	-196.09447	-36.61515	159.47932	113.9138	-179.0074	61.83892	-13.01872	-209.11319	-192.83979	13.01872	49.63387	22.78276	0
51	-193.65346	-39.05616	154.5973	113.9138	-174.12538	56.9569	-13.01872	-206.67218	-192.83979	15.45973	54.51589	25.22377	0
52	-196.09447	-41.49717	154.5973	116.35481	-176.56639	56.9569	-13.01872	-206.67218	-195.2808	17.90074	54.51589	25.22377	0
53	-198.53548	-48.8202	149.71528	121.23683	-174.12538	49.63387	-13.01872	-211.5542	-197.72181	15.45973	52.07488	25.22377	0
54	-198.53548	-51.26121	147.27427	123.67784	-174.12538	47.19286	-8.1367	-213.99521	-200.16282	10.57771	49.63387	22.78276	0
55	-193.65346	-46.37919	147.27427	118.79582	-171.68437	49.63387	-5.69569	-216.43622	-197.72181	10.57771	49.63387	22.78276	0
56	-191.21245	-46.37919	144.83326	116.35481	-169.24336	49.63387	-5.69569	-216.43622	-192.83979	13.01872	49.63387	25.22377	0
57	-191.21245	-41.49717	149.71528	113.9138	-171.68437	54.51589	-8.1367	-213.99521	-187.95777	15.45973	49.63387	30.10579	0
58	-191.21245	-41.49717	149.71528	113.9138	-171.68437	54.51589	-8.1367	-213.99521	-187.95777	22.78276	52.07488	37.42882	0
59	-191.21245	-41.49717	149.71528	113.9138	-171.68437	54.51589	-5.69569	-209.11319	-187.95777	27.66478	54.51589	39.86983	0
60	-188.77144	-34.17414	154.5973	109.03178	-171.68437	59.39791	-5.69569	-209.11319	-187.95777	32.5468	61.83892	47.19286	0
61	-188.77144	-34.17414	154.5973	109.03178	-171.68437	59.39791	-5.69569	-204.23117	-185.51676	37.42882	69.16195	54.51589	0
62	-198.53548	-39.05616	159.47932	116.35481	-179.0074	59.39791	-8.1367	-206.67218	-190.39878	37.42882	71.60296	56.9569	0
63	-208.29952	-48.8202	159.47932	126.11885	-183.88942	54.51589	-13.01872	-213.99521	-197.72181	32.5468	66.72094	54.51589	0
64	-218.06356	-58.58424	159.47932	135.88289	-188.77144	49.63387	-15.45973	-221.31824	-205.04484	22.78276	61.83892	49.63387	0
65	-222.94558	-65.90727	157.03831	143.20592	-191.21245	44.75185	-17.90074	-226.20026	-207.48585	17.90074	59.39791	47.19286	0
66	-227.8276	-70.78929	157.03831	148.08794	-193.65346	42.31084	-17.90074	-226.20026	-205.04484	17.90074	59.39791	47.19286	0
67	-232.70962	-73.2303	159.47932	150.52895	-196.09447	42.31084	-20.34175	-226.20026	-205.04484	15.45973	59.39791	47.19286	0
68	-230.26861	-70.78929	159.47932	148.08794	-196.09447	44.75185	-22.78276	-223.75925	-205.04484	17.90074	56.9569	44.75185	0
69	-215.62255	-61.02525	154.5973	135.88289	-186.33043	47.19286	-17.90074	-218.87723	-202.60383	22.78276	56.9569	42.31084	0
70	-203.4175	-46.37919	157.03831	123.67784	-181.44841	54.51589	-10.57771	-213.99521	-200.16282	27.66478	61.83892	44.75185	0
71	-191.21245	-26.85111	164.36134	106.59077	-179.0074	69.16195	-5.69569	-204.23117	-190.39878	34.98781	66.72094	47.19286	0
72	-186.33043	-6.50936	179.0074	94.38572	-181.44841	86.24902	-5.69569	-201.79016	-190.39878	39.86983	66.72094	52.07488	0
73	-186.33043	0.81367	186.33043	91.94471	-186.33043	93.57205	-5.69569	-206.67218	-190.39878	37.42882	66.72094	54.51589	0
74	-186.33043	5.69569	191.21245	89.5037	-188.77144	98.45407	-5.69569	-211.5542	-192.83979	34.98781	61.83892	54.51589	0
75	-183.88942	5.69569	188.77144	87.06269	-186.33043	96.01306	-3.25468	-216.43622	-190.39878	32.5468	64.27993	59.39791	0
76	-186.33043	5.69569	191.21245	89.5037	-188.77144	98.45407	-8.1367	-216.43622	-185.51676	32.5468	64.27993	61.83892	0
77	-181.44841	3.25468	183.88942	87.06269	-181.44841	93.57205	-13.01872	-216.43622	-183.07575	32.5468	66.72094	61.83892	0
78	-181.44841	-4.06835	176.56639	91.94471	-179.0074	86.24902	-13.01872	-216.43622	-183.07575	34.98781	66.72094	61.83892	0
79	-186.33043	-12.20505	174.12538	96.82673	-181.44841	81.367	-10.57771	-213.99521	-183.07575	37.42882	66.72094	61.83892	0
80	-191.21245	-17.08707	174.12538	101.70875	-183.88942	78.92599	-8.1367	-216.43622	-185.51676	37.42882	66.72094	59.39791	0
81	-191.21245	-12.20505	179.0074	99.26774	-186.33043	83.80801	-8.1367	-211.5542	-185.51676	37.42882	66.72094	54.51589	0
82	-191.21245	-9.76404	181.44841	99.26774	-186.33043	86.24902	-8.1367	-213.99521	-187.95777	37.42882	66.72094	54.51589	0
83	-193.65346	-9.76404	183.88942	99.26774	-188.77144	86.24902	-10.57771	-216.43622	-187.95777	37.42882	64.27993	54.51589	0
84	-191.21245	-9.76404	181.44841	99.26774	-186.33043	86.24902	-10.57771	-221.31824	-185.51676	37.42882	64.27993	59.39791	0
85	-181.44841	-6.50936	174.12538	91.94471	-176.56639	83.80801	-10.57771	-221.31824	-178.19373	37.42882	61.83892	59.39791	0
86	-166.80235	8.1367	174.12538	77.29865	-169.24336	91.13104	-8.1367	-213.99521	-168.42969	42.31084	64.27993	61.83892	0
87	-154.5973	15.45973	169.24336	67.53461	-161.92033	91.13104	-3.25468	-206.67218	-158.66565	47.19286	69.16195	66.72094	0
88	-147.27427	22.78276	169.24336	60.21158	-157.03831	96.01306	-3.25468	-201.79016	-156.22464	49.63387	71.60296	69.16195	0
89	-139.95124	25.22377	164.36134	55.32956	-152.15629	93.57205	-3.25468	-196.90814	-153.78363	49.63387	71.60296	66.72094	0
90	-135.06922	25.22377	159.47932	52.88855	-147.27427	91.13104	1.62734	-194.46713	-151.34262	54.51589	76.48498	64.27993	0
91	-127.74619	27.66478	154.5973	48.00653	-139.95124	91.13104	1.62734	-189.58511	-148.90161	56.9569	81.367	64.27993	0
92	-122.86417	37.42882	159.47932	40.6835	-139.95124	98.45407	-5.69569	-194.46713	-151.34262	59.39791	83.80801	69.16195	0
93	-117.98215	42.31084	159.47932	35.80148	-137.51023	100.89508	-15.45973	-201.79016	-156.22464	59.39791	86.24902	71.60296	0
94	-115.54114	44.75185	159.47932	33.36047	-137.51023	100.89508	-22.78276	-211.5542	-156.22464	61.83892	88.69003	76.48498	0
95	-113.10013	49.63387	161.92033	30.91946	-137.51023	105.7771	-27.66478	-216.43622	-153.78363	66.72094	96.01306	83.80801	0
96	-108.21811	56.9569	164.36134	23.59643	-135.06922	110.65912	-32.5468	-216.43622	-148.90161	74.04397	103.33609	91.13104	0
97	-100.89508	69.16195	169.24336	13.83239	-135.06922	117.98215	-42.31084	-223.75925	-151.34262	74.04397	103.33609	96.01306	0
98	-100.89508	76.48498	176.56639	11.39138	-137.51023	125.30518	-52.07488	-231.08228	-158.66565	74.04397	100.89508	91.13104	0
99	-105.7771	78.92599	183.88942	11.39138	-144.83326	130.1872	-59.39791	-233.52329	-168.42969	74.04397	96.01306	81.367	0
100	-108.21811	83.80801	191.21245	11.39138	-149.71528	137.51023	-61.83892	-238.40531	-175.75272	69.16195	88.69003	74.04397	1000	P+0
101	-113.10013	96.01306	208.29952	5.69569	-159.47932	152.15629	-66.72094	-240.84632	-180.63474	64.27993	83.80801	66.72094	0
102	-120.42316	110.65912	230.26861	3.25468	-174.12538	169.24336	-76.48498	-250.61036	-195.2808	56.9569	71.60296	54.51589	0
103	-125.30518	113.10013	237.59164	5.69569	-181.44841	174.12538	-83.80801	-260.3744	-202.60383	47.19286	61.83892	47.19286	0
104	-130.1872	113.10013	242.47366	5.69569	-186.33043	176.56639	-83.80801	-267.69743	-209.92686	42.31084	54.51589	44.75185	0
105	-137.51023	113.10013	249.79669	11.39138	-193.65346	181.44841	-81.367	-275.02046	-209.92686	34.98781	49.63387	44.75185	0
106	-137.51023	110.65912	247.35568	11.39138	-191.21245	179.0074	-81.367	-275.02046	-209.92686	34.98781	49.63387	44.75185	0
107	-135.06922	103.33609	237.59164	13.83239	-186.33043	169.24336	-86.24902	-275.02046	-209.92686	34.98781	49.63387	44.75185	0
108	-132.62821	93.57205	225.38659	18.71441	-179.0074	159.47932	-86.24902	-277.46147	-212.36787	34.98781	47.19286	47.19286	0
109	-132.62821	91.13104	222.94558	18.71441	-176.56639	157.03831	-86.24902	-277.46147	-214.80888	34.98781	44.75185	47.19286	0
110	-139.95124	88.69003	227.8276	23.59643	-183.88942	157.03831	-86.24902	-277.46147	-217.24989	34.98781	44.75185	44.75185	0
111	-144.83326	86.24902	230.26861	28.47845	-186.33043	157.03831	-86.24902	-275.02046	-219.6909	32.5468	42.31084	42.31084	0
112	-147.27427	86.24902	232.70962	28.47845	-188.77144	159.47932	-91.13104	-279.90248	-224.57292	30.10579	39.86983	39.86983	0
113	-157.03831	83.80801	240.03265	35.80148	-198.53548	161.92033	-91.13104	-284.7845	-229.45494	22.78276	32.5468	34.98781	0
114	-166.80235	76.48498	242.47366	43.12451	-203.4175	159.47932	-91.13104	-292.10753	-234.33696	15.45973	27.66478	32.5468	0
115	-174.12538	69.16195	242.47366	50.44754	-208.29952	154.5973	-88.69003	-294.54854	-234.33696	8.1367	25.22377	27.66478	0
116	-179.0074	59.39791	237.59164	57.77057	-208.29952	147.27427	-91.13104	-296.98955	-234.33696	0.81367	20.34175	25.22377	0
117	-183.88942	42.31084	225.38659	69.97562	-203.4175	132.62821	-96.01306	-296.98955	-239.21898	-6.50936	15.45973	22.78276	0
118	-193.65346	20.34175	213.18154	84.62168	-203.4175	115.54114	-98.45407	-296.98955	-244.101	-8.95037	10.57771	20.34175	0
119	-198.53548	0.81367	198.53548	96.82673	-198.53548	98.45407	-103.33609	-296.98955	-248.98302	-13.83239	8.1367	17.90074	0
120	-200.97649	-6.50936	193.65346	101.70875	-196.09447	93.57205	-108.21811	-299.43056	-261.18807	-13.83239	5.69569	15.45973	0
121	-200.97649	-9.76404	191.21245	104.14976	-196.09447	91.13104	-110.65912	-296.98955	-263.62908	-13.83239	8.1367	17.90074	0
122	-198.53548	-12.20505	186.33043	104.14976	-193.65346	86.24902	-110.65912	-299.43056	-268.5111	-11.39138	10.57771	20.34175	0
123	-193.65346	-9.76404	183.88942	99.26774	-188.77144	86.24902	-110.65912	-301.87157	-268.5111	-8.95037	13.01872	25.22377	0
124	-183.88942	-1.62734	181.44841	91.94471	-181.44841	88.69003	-108.21811	-306.75359	-268.5111	-8.95037	13.01872	30.10579	0
125	-176.56639	8.1367	183.88942	82.18067	-179.0074	96.01306	-105.7771	-309.1946	-263.62908	-8.95037	15.45973	34.98781	0
126	-169.24336	15.45973	183.88942	74.85764	-176.56639	98.45407	-103.33609	-306.75359	-258.74706	-11.39138	15.45973	39.86983	0
127	-164.36134	8.1367	171.68437	77.29865	-166.80235	88.69003	-103.33609	-304.31258	-251.42403	-13.83239	10.57771	39.86983	0
128	-166.80235	0.81367	166.80235	82.18067	-166.80235	83.80801	-105.7771	-301.87157	-256.30605	-19.52808	3.25468	37.42882	0
129	-169.24336	-9.76404	159.47932	87.06269	-164.36134	74.04397	-108.21811	-301.87157	-261.18807	-24.4101	-4.06835	27.66478	0
130	-174.12538	-14.64606	159.47932	91.94471	-166.80235	71.60296	-110.65912	-304.31258	-268.5111	-31.73313	-9.76404	17.90074	0
131	-181.44841	-24.4101	157.03831	101.70875	-169.24336	66.72094	-113.10013	-306.75359	-270.95211	-34.17414	-14.64606	10.57771	0
132	-183.88942	-31.73313	152.15629	106.59077	-169.24336	59.39791	-110.65912	-306.75359	-273.39312	-34.17414	-14.64606	5.69569	0
133	-181.44841	-34.17414	147.27427	106.59077	-164.36134	56.9569	-105.7771	-306.75359	-275.83413	-34.17414	-19.52808	0.81367	0
134	-176.56639	-29.29212	147.27427	101.70875	-161.92033	59.39791	-100.89508	-311.63561	-275.83413	-36.61515	-19.52808	0.81367	0
135	-176.56639	-24.4101	152.15629	99.26774	-164.36134	64.27993	-100.89508	-311.63561	-275.83413	-41.49717	-21.96909	-1.62734	0
136	-179.0074	-26.85111	152.15629	101.70875	-166.80235	61.83892	-98.45407	-306.75359	-268.5111	-41.49717	-17.08707	5.69569	0
137	-174.12538	-34.17414	139.95124	101.70875	-157.03831	52.07488	-96.01306	-299.43056	-261.18807	-36.61515	-12.20505	15.45973	0
138	-174.12538	-39.05616	135.06922	104.14976	-154.5973	47.19286	-98.45407	-296.98955	-258.74706	-34.17414	-9.76404	20.34175	0
139	-181.44841	-46.37919	135.06922	111.47279	-159.47932	44.75185	-103.33609	-294.54854	-261.18807	-34.17414	-9.76404	20.34175	0
140	-186.33043	-51.26121	135.06922	116.35481	-161.92033	42.31084	-110.65912	-294.54854	-268.5111	-34.17414	-7.32303	25.22377	0
141	-188.77144	-53.70222	135.06922	118.79582	-161.92033	39.86983	-115.54114	-294.54854	-270.95211	-34.17414	-7.32303	27.66478	0
142	-191.21245	-51.26121	139.95124	118.79582	-166.80235	44.75185	-117.98215	-299.43056	-275.83413	-34.17414	-4.06835	27.66478	0
143	-191.21245	-41.49717	149.71528	113.9138	-171.68437	54.51589	-120.42316	-306.75359	-283.15716	-36.61515	-7.32303	27.66478	0
144	-193.65346	-34.17414	159.47932	111.47279	-176.56639	61.83892	-120.42316	-316.51763	-288.03918	-43.93818	-12.20505	22.78276	0
145	-196.09447	-34.17414	161.92033	113.9138	-179.0074	64.27993	-113.10013	-316.51763	-283.15716	-46.37919	-14.64606	20.34175	0
146	-198.53548	-36.61515	161.92033	116.35481	-181.44841	61.83892	-108.21811	-311.63561	-278.27514	-48.8202	-19.52808	17.90074	0
147	-203.4175	-41.49717	161.92033	121.23683	-183.88942	59.39791	-105.7771	-306.75359	-273.39312	-56.14323	-26.85111	10.57771	0
148	-205.85851	-46.37919	159.47932	123.67784	-183.88942	56.9569	-103.33609	-301.87157	-273.39312	-58.58424	-36.61515	5.69569	0
149	-208.29952	-53.70222	154.5973	128.55986	-181.44841	49.63387	-96.01306	-289.66652	-273.39312	-63.46626	-41.49717	-1.62734	0
150	-215.62255	-61.02525	154.5973	135.88289	-186.33043	47.19286	-86.24902	-277.46147	-273.39312	-65.90727	-46.37919	-9.76404	0
151	-210.74053	-65.90727	144.83326	135.88289	-179.0074	39.86983	-78.92599	-262.81541	-275.83413	-70.78929	-48.8202	-14.64606	0
152	-205.85851	-73.2303	132.62821	138.3239	-169.24336	30.10579	-71.60296	-255.49238	-278.27514	-75.67131	-53.70222	-19.52808	0
153	-205.85851	-80.55333	125.30518	140.76491	-166.80235	22.78276	-59.39791	-243.28733	-278.27514	-80.55333	-58.58424	-26.85111	0
154	-208.29952	-85.43535	122.86417	145.64693	-166.80235	17.90074	-44.75185	-231.08228	-275.83413	-87.87636	-63.46626	-34.17414	0
155	-208.29952	-85.43535	122.86417	145.64693	-166.80235	17.90074	-32.5468	-218.87723	-268.5111	-92.75838	-65.90727	-39.05616	0
156	-203.4175	-80.55333	122.86417	140.76491	-164.36134	20.34175	-22.78276	-204.23117	-261.18807	-100.08141	-70.78929	-46.37919	0
157	-203.4175	-85.43535	117.98215	143.20592	-161.92033	15.45973	-13.01872	-184.70309	-246.54201	-100.08141	-75.67131	-51.26121	0
158	-205.85851	-92.75838	113.10013	148.08794	-159.47932	10.57771	-3.25468	-160.29299	-231.89595	-95.19939	-75.67131	-53.70222	0
159	-196.09447	-102.52242	93.57205	148.08794	-144.83326	-4.06835	-0.81367	-135.88289	-214.80888	-82.99434	-73.2303	-48.8202	0
160	-169.24336	-112.28646	56.9569	138.3239	-113.10013	-29.29212	-5.69569	-106.59077	-190.39878	-65.90727	-63.46626	-41.49717	0
161	-132.62821	-122.0505	10.57771	126.11885	-71.60296	-56.14323	-10.57771	-66.72094	-151.34262	-39.05616	-46.37919	-26.85111	0
162	-83.80801	-131.81454	-48.8202	106.59077	-17.90074	-90.31737	-27.66478	-30.10579	-104.14976	-4.06835	-24.4101	-9.76404	0
163	-22.78276	-131.81454	-109.84545	74.85764	43.93818	-122.0505	-66.72094	-0.81367	-48.00653	39.86983	0.81367	13.01872	0
164	51.26121	-107.40444	-158.66565	26.03744	104.96343	-131.81454	-122.86417	11.39138	5.69569	91.13104	37.42882	42.31084	0
165	134.25555	-65.90727	-200.16282	-35.80148	165.98868	-131.81454	-198.53548	-0.81367	54.51589	154.5973	86.24902	81.367	0
166	219.6909	-6.50936	-227.01393	-106.59077	224.57292	-117.16848	-293.73487	-39.86983	100.89508	235.15063	144.83326	127.74619	0
167	302.68524	83.80801	-219.6909	-194.46713	261.18807	-68.34828	-418.22638	-111.47279	139.95124	327.90901	215.62255	183.88942	0
168	385.67958	191.21245	-195.2808	-289.66652	290.48019	-1.62734	-557.36395	-218.87723	161.92033	432.87244	296.17588	254.67871	0
169	461.35089	305.93992	-156.22464	-384.86591	310.00827	76.48498	-698.94253	-345.80975	176.56639	547.59991	388.93426	330.35002	0
170	517.49412	432.87244	-85.43535	-475.18328	302.68524	174.12538	-850.28515	-502.03439	169.24336	657.44536	481.69264	410.90335	0
171	551.66826	552.48193	0.81367	-553.2956	275.83413	276.6478	-1001.62777	-665.58206	149.71528	757.52677	567.12799	486.57466	0
172	561.4323	645.24031	83.80801	-604.55681	239.21898	364.52416	-1133.44231	-816.92468	117.98215	823.43404	625.71223	540.27688	0
173	541.90422	689.17849	147.27427	-616.76186	197.72181	418.22638	-1231.08271	-943.8572	71.60296	847.84414	655.00435	574.45102	0
174	490.64301	676.97344	186.33043	-585.02873	153.78363	432.87244	-1289.66695	-1053.70265	0.81367	823.43404	652.56334	581.77405	0
175	407.64867	620.83021	213.18154	-514.23944	97.6404	418.22638	-1323.84109	-1146.46103	-104.14976	750.20374	608.62516	557.36395	0
176	305.12625	515.86678	210.74053	-411.71702	48.8202	364.52416	-1331.16412	-1217.25032	-234.33696	633.03526	532.95385	508.54375	0
177	190.39878	386.49325	196.09447	-289.66652	-3.25468	291.29386	-1311.63604	-1261.1885	-375.91554	491.45668	435.31345	440.19547	0
178	78.11232	257.11972	179.0074	-167.61602	-49.63387	218.06356	-1270.13887	-1290.48062	-524.81715	342.55507	332.79103	366.96517	0
179	-25.22377	147.27427	171.68437	-62.65259	-98.45407	159.47932	-1221.31867	-1310.0087	-663.95472	205.85851	240.03265	298.61689	0
180	-113.10013	64.27993	176.56639	23.59643	-144.83326	120.42316	-1167.61645	-1314.89072	-781.1232	88.69003	157.03831	232.70962	0
181	-179.0074	0.81367	179.0074	87.06269	-179.0074	88.69003	-1109.03221	-1295.36264	-864.11754	-6.50936	91.13104	174.12538	0
182	-222.94558	-41.49717	181.44841	131.00087	-203.4175	69.16195	-1043.12494	-1256.30648	-905.61471	-70.78929	39.86983	130.1872	0
183	-249.79669	-73.2303	176.56639	160.29299	-213.18154	52.07488	-962.57161	-1190.39921	-910.49673	-122.0505	-4.06835	91.13104	0
184	-259.56073	-102.52242	157.03831	179.82107	-208.29952	27.66478	-869.81323	-1102.52285	-883.64562	-161.10666	-43.93818	52.07488	0
185	-262.00174	-131.81454	130.1872	194.46713	-196.09447	-1.62734	-767.29081	-995.11841	-829.9434	-195.2808	-82.99434	15.45973	0
186	-264.44275	-168.42969	96.01306	213.99521	-181.44841	-36.61515	-664.76839	-875.50892	-768.91815	-219.6909	-112.28646	-14.64606	0
187	-266.88376	-205.04484	61.83892	233.52329	-164.36134	-73.2303	-562.24597	-753.45842	-703.01088	-241.65999	-141.57858	-41.49717	0
188	-271.76578	-234.33696	37.42882	250.61036	-154.5973	-100.08141	-467.04658	-636.28994	-637.10361	-256.30605	-168.42969	-73.2303	0
189	-274.20679	-248.98302	25.22377	260.3744	-149.71528	-112.28646	-376.72921	-524.00348	-568.75533	-266.07009	-185.51676	-95.19939	0
190	-269.32477	-253.86504	15.45973	260.3744	-142.39225	-119.60949	-298.61689	-423.92207	-502.84806	-261.18807	-190.39878	-104.96343	0
191	-269.32477	-258.74706	10.57771	262.81541	-139.95124	-124.49151	-232.70962	-333.6047	-436.94079	-251.42403	-183.07575	-104.96343	0
192	-264.44275	-256.30605	8.1367	257.93339	-137.51023	-124.49151	-174.12538	-260.3744	-380.79756	-239.21898	-173.31171	-102.52242	0
193	-252.2377	-246.54201	5.69569	248.16935	-130.1872	-122.0505	-117.98215	-194.46713	-322.21332	-219.6909	-161.10666	-92.75838	0
194	-242.47366	-236.77797	5.69569	238.40531	-125.30518	-117.16848	-64.27993	-133.44188	-268.5111	-205.04484	-144.01959	-78.11232	0
195	-225.38659	-224.57292	0.81367	223.75925	-113.10013	-112.28646	-17.90074	-81.367	-219.6909	-192.83979	-131.81454	-63.46626	0
196	-213.18154	-222.13191	-9.76404	216.43622	-103.33609	-117.16848	21.15542	-30.10579	-175.75272	-183.07575	-122.0505	-56.14323	0
197	-205.85851	-222.13191	-17.08707	211.5542	-96.01306	-119.60949	52.88855	16.2734	-139.13757	-180.63474	-122.0505	-58.58424	0
198	-196.09447	-214.80888	-19.52808	204.23117	-88.69003	-117.16848	78.11232	57.77057	-112.28646	-178.19373	-124.49151	-61.02525	0
199	-188.77144	-212.36787	-24.4101	199.34915	-83.80801	-119.60949	102.52242	94.38572	-84.62168	-178.19373	-124.49151	-63.46626	0
200	-186.33043	-205.04484	-19.52808	194.46713	-83.80801	-112.28646	117.16848	123.67784	-62.65259	-173.31171	-124.49151	-68.34828	0
201	-183.88942	-192.83979	-9.76404	187.1441	-88.69003	-102.52242	131.81454	150.52895	-45.56552	-170.8707	-126.93252	-75.67131	0
202	-183.88942	-175.75272	8.1367	177.38006	-96.01306	-85.43535	141.57858	165.17501	-33.36047	-170.8707	-131.81454	-80.55333	0
203	-179.0074	-153.78363	25.22377	165.17501	-103.33609	-65.90727	153.78363	177.38006	-21.15542	-170.8707	-136.69656	-85.43535	0
204	-174.12538	-146.4606	27.66478	157.85198	-100.89508	-61.02525	170.8707	194.46713	-4.06835	-165.98868	-131.81454	-85.43535	0
205	-174.12538	-146.4606	27.66478	157.85198	-100.89508	-61.02525	185.51676	211.5542	15.45973	-165.98868	-131.81454	-85.43535	0
206	-174.12538	-141.57858	32.5468	155.41097	-103.33609	-56.14323	192.83979	228.64127	32.5468	-165.98868	-131.81454	-85.43535	0
207	-171.68437	-139.13757	32.5468	152.96996	-103.33609	-53.70222	202.60383	250.61036	52.07488	-168.42969	-131.81454	-82.99434	0
208	-166.80235	-146.4606	20.34175	155.41097	-93.57205	-63.46626	214.80888	275.02046	74.04397	-161.10666	-129.37353	-78.11232	0
209	-169.24336	-161.10666	8.1367	162.734	-88.69003	-78.11232	229.45494	301.87157	96.01306	-151.34262	-122.0505	-68.34828	0
210	-174.12538	-170.8707	3.25468	170.05703	-88.69003	-85.43535	241.65999	323.84066	115.54114	-144.01959	-114.72747	-61.02525	0
211	-174.12538	-165.98868	8.1367	167.61602	-91.13104	-80.55333	248.98302	343.36874	130.1872	-139.13757	-112.28646	-56.14323	0
212	-166.80235	-153.78363	13.01872	157.85198	-91.13104	-70.78929	256.30605	355.57379	142.39225	-134.25555	-109.84545	-53.70222	0
213	-154.5973	-141.57858	13.01872	145.64693	-83.80801	-65.90727	266.07009	370.21985	157.03831	-131.81454	-109.84545	-51.26121	0
214	-142.39225	-134.25555	8.1367	135.88289	-76.48498	-63.46626	275.83413	382.4249	171.68437	-129.37353	-109.84545	-53.70222	0
215	-130.1872	-122.0505	8.1367	123.67784	-69.16195	-58.58424	288.03918	399.51197	193.65346	-134.25555	-109.84545	-56.14323	0
216	-117.98215	-112.28646	5.69569	113.9138	-61.83892	-53.70222	300.24423	421.48106	215.62255	-136.69656	-112.28646	-61.02525	0
217	-108.21811	-109.84545	-1.62734	106.59077	-54.51589	-56.14323	312.44928	448.33217	240.03265	-139.13757	-114.72747	-63.46626	0
218	-98.45407	-112.28646	-14.64606	104.14976	-42.31084	-63.46626	324.65433	472.74227	259.56073	-139.13757	-119.60949	-65.90727	0
219	-88.69003	-114.72747	-26.85111	99.26774	-32.5468	-70.78929	334.41837	497.15237	279.08881	-139.13757	-122.0505	-73.2303	0
220	-91.13104	-114.72747	-24.4101	101.70875	-34.98781	-70.78929	344.18241	516.68045	296.17588	-129.37353	-117.16848	-73.2303	0
221	-91.13104	-117.16848	-26.85111	101.70875	-32.5468	-73.2303	351.50544	533.76752	310.82194	-124.49151	-112.28646	-73.2303	0
222	-88.69003	-114.72747	-26.85111	99.26774	-32.5468	-70.78929	356.38746	545.97257	323.02699	-117.16848	-109.84545	-73.2303	0
223	-83.80801	-114.72747	-31.73313	96.82673	-27.66478	-73.2303	361.26948	553.2956	332.79103	-112.28646	-109.84545	-73.2303	0
224	-81.367	-107.40444	-26.85111	91.94471	-27.66478	-68.34828	368.59251	563.05964	349.8781	-107.40444	-109.84545	-73.2303	0
225	-88.69003	-107.40444	-19.52808	96.82673	-34.98781	-63.46626	378.35655	577.7057	369.40618	-107.40444	-104.96343	-68.34828	0
226	-91.13104	-109.84545	-19.52808	99.26774	-37.42882	-65.90727	385.67958	599.67479	393.81628	-104.96343	-102.52242	-68.34828	0
227	-88.69003	-117.16848	-29.29212	101.70875	-30.10579	-73.2303	393.00261	621.64388	415.78537	-102.52242	-102.52242	-65.90727	0
228	-81.367	-119.60949	-39.05616	99.26774	-22.78276	-80.55333	397.88463	646.05398	437.75446	-97.6404	-102.52242	-61.02525	0
229	-66.72094	-114.72747	-48.8202	89.5037	-10.57771	-82.99434	402.76665	670.46408	462.16456	-92.75838	-100.08141	-58.58424	0
230	-56.9569	-109.84545	-53.70222	82.18067	-3.25468	-82.99434	405.20766	692.43317	481.69264	-82.99434	-95.19939	-58.58424	0
231	-47.19286	-102.52242	-56.14323	72.41663	4.88202	-80.55333	410.08968	714.40226	498.77971	-75.67131	-90.31737	-58.58424	0
232	-37.42882	-95.19939	-58.58424	65.0936	9.76404	-78.11232	414.9717	731.48933	513.42577	-65.90727	-87.87636	-58.58424	0
233	-30.10579	-87.87636	-58.58424	57.77057	14.64606	-73.2303	427.17675	748.5764	530.51284	-58.58424	-85.43535	-56.14323	0
234	-20.34175	-75.67131	-56.14323	45.56552	17.08707	-65.90727	444.26382	765.66347	552.48193	-53.70222	-80.55333	-56.14323	0
235	-20.34175	-75.67131	-56.14323	45.56552	17.08707	-65.90727	456.46887	785.19155	576.89203	-53.70222	-80.55333	-56.14323	0
236	-25.22377	-82.99434	-58.58424	52.88855	17.08707	-70.78929	468.67392	812.04266	601.30213	-53.70222	-78.11232	-56.14323	0
237	-25.22377	-87.87636	-63.46626	55.32956	19.52808	-75.67131	475.99695	838.89377	625.71223	-53.70222	-78.11232	-58.58424	0
238	-15.45973	-87.87636	-73.2303	50.44754	29.29212	-80.55333	478.43796	863.30387	647.68132	-53.70222	-85.43535	-65.90727	0
239	-5.69569	-78.11232	-73.2303	40.6835	34.17414	-75.67131	480.87897	885.27296	669.65041	-51.26121	-87.87636	-68.34828	0
240	-2.44101	-78.11232	-75.67131	38.24249	36.61515	-75.67131	483.31998	907.24205	686.73748	-43.93818	-85.43535	-70.78929	0
241	4.88202	-75.67131	-80.55333	33.36047	41.49717	-78.11232	483.31998	929.21114	703.82455	-34.17414	-80.55333	-73.2303	0
242	17.08707	-61.02525	-78.11232	21.15542	46.37919	-68.34828	483.31998	941.41619	716.0296	-24.4101	-78.11232	-73.2303	0
243	26.85111	-43.93818	-70.78929	5.69569	48.8202	-56.14323	488.202	951.18023	730.67566	-16.2734	-73.2303	-65.90727	0
244	34.17414	-39.05616	-73.2303	0.81367	53.70222	-56.14323	500.40705	963.38528	750.20374	-8.95037	-65.90727	-56.14323	0
245	43.93818	-39.05616	-82.99434	-4.06835	63.46626	-61.02525	512.6121	982.91336	777.05485	-4.06835	-56.14323	-46.37919	0
246	56.14323	-36.61515	-92.75838	-11.39138	73.2303	-63.46626	522.37614	1007.32346	803.90596	0.81367	-51.26121	-43.93818	0
247	68.34828	-29.29212	-97.6404	-21.15542	82.99434	-63.46626	527.25816	1029.29255	825.87505	0.81367	-51.26121	-41.49717	0
248	80.55333	-24.4101	-104.96343	-28.47845	92.75838	-63.46626	532.14018	1051.26164	850.28515	5.69569	-51.26121	-39.05616	0
249	97.6404	-17.08707	-114.72747	-40.6835	104.96343	-65.90727	537.0222	1075.67174	872.25424	13.01872	-43.93818	-36.61515	0
250	109.84545	-9.76404	-119.60949	-50.44754	114.72747	-63.46626	541.90422	1095.19982	894.22333	22.78276	-36.61515	-34.17414	0
251	122.0505	3.25468	-119.60949	-62.65259	122.0505	-58.58424	541.90422	1114.7279	908.86939	37.42882	-26.85111	-31.73313	0
252	134.25555	15.45973	-119.60949	-74.85764	126.93252	-51.26121	539.46321	1122.05093	918.63343	47.19286	-17.08707	-24.4101	0
253	141.57858	13.01872	-129.37353	-77.29865	136.69656	-58.58424	541.90422	1126.93295	930.83848	56.9569	-7.32303	-14.64606	0
254	141.57858	20.34175	-122.0505	-82.18067	131.81454	-51.26121	549.22725	1131.81497	943.04353	64.27993	-1.62734	-9.76404	0
255	146.4606	25.22377	-122.0505	-87.06269	134.25555	-48.8202	554.10927	1139.138	957.68959	66.72094	5.69569	-1.62734	0
256	151.34262	25.22377	-126.93252	-89.5037	139.13757	-51.26121	558.99129	1153.78406	974.77666	71.60296	13.01872	5.69569	0
257	158.66565	27.66478	-131.81454	-94.38572	146.4606	-51.26121	561.4323	1168.43012	989.42272	74.04397	15.45973	13.01872	0
258	168.42969	34.98781	-134.25555	-101.70875	151.34262	-48.8202	561.4323	1180.63517	1001.62777	76.48498	13.01872	17.90074	0
259	180.63474	39.86983	-141.57858	-111.47279	161.10666	-51.26121	561.4323	1192.84022	1013.83282	83.80801	17.90074	20.34175	0
260	197.72181	47.19286	-151.34262	-123.67784	175.75272	-51.26121	561.4323	1202.60426	1023.59686	96.01306	25.22377	22.78276	0
261	214.80888	56.9569	-158.66565	-135.88289	187.95777	-51.26121	554.10927	1207.48628	1028.47888	105.7771	30.10579	22.78276	0
262	229.45494	69.16195	-161.10666	-150.52895	195.2808	-46.37919	546.78624	1200.16325	1026.03787	113.10013	32.5468	22.78276	0
263	244.101	78.92599	-165.98868	-162.734	205.04484	-43.93818	544.34523	1190.39921	1021.15585	117.98215	32.5468	17.90074	0
264	246.54201	78.92599	-168.42969	-162.734	207.48585	-43.93818	544.34523	1175.75315	1018.71484	117.98215	30.10579	13.01872	0
265	246.54201	81.367	-165.98868	-165.17501	207.48585	-41.49717	546.78624	1165.98911	1018.71484	115.54114	27.66478	8.1367	0
266	241.65999	86.24902	-156.22464	-165.17501	200.16282	-34.17414	546.78624	1161.10709	1016.27383	110.65912	22.78276	3.25468	0
267	234.33696	91.13104	-144.01959	-162.734	190.39878	-26.85111	541.90422	1153.78406	1011.39181	105.7771	15.45973	-1.62734	0
268	227.01393	96.01306	-131.81454	-162.734	180.63474	-17.08707	541.90422	1146.46103	1006.50979	105.7771	13.01872	-4.06835	0
269	222.13191	103.33609	-119.60949	-162.734	170.8707	-7.32303	537.0222	1136.69699	996.74575	105.7771	15.45973	-4.06835	0
270	224.57292	113.10013	-112.28646	-170.05703	168.42969	0.81367	529.69917	1124.49194	984.5407	117.98215	27.66478	3.25468	0
271	229.45494	120.42316	-109.84545	-174.93905	170.8707	5.69569	517.49412	1112.28689	969.89464	127.74619	42.31084	10.57771	0
272	236.77797	127.74619	-109.84545	-182.26208	173.31171	10.57771	497.96604	1082.99477	940.60252	137.51023	52.07488	25.22377	0
273	244.101	132.62821	-112.28646	-189.58511	178.19373	10.57771	483.31998	1048.82063	913.75141	144.83326	61.83892	37.42882	0
274	248.98302	137.51023	-112.28646	-194.46713	180.63474	13.01872	468.67392	1012.20548	884.45929	144.83326	69.16195	47.19286	0
275	256.30605	137.51023	-119.60949	-196.90814	187.95777	10.57771	456.46887	978.03134	855.16717	142.39225	71.60296	54.51589	0
276	256.30605	137.51023	-119.60949	-196.90814	187.95777	10.57771	441.82281	948.73922	830.75707	135.06922	71.60296	59.39791	0
277	256.30605	139.95124	-117.16848	-199.34915	187.95777	13.01872	424.73574	921.88811	803.90596	130.1872	66.72094	59.39791	0
278	256.30605	139.95124	-117.16848	-199.34915	187.95777	13.01872	412.53069	895.037	774.61384	125.30518	59.39791	56.9569	0
279	256.30605	147.27427	-109.84545	-201.79016	183.07575	20.34175	397.88463	863.30387	745.32172	122.86417	54.51589	49.63387	0
280	251.42403	154.5973	-97.6404	-204.23117	175.75272	30.10579	380.79756	834.01175	713.58859	125.30518	54.51589	44.75185	0
281	241.65999	154.5973	-87.87636	-199.34915	165.98868	34.98781	358.82847	802.27862	676.97344	127.74619	59.39791	44.75185	0
282	231.89595	154.5973	-78.11232	-194.46713	156.22464	39.86983	334.41837	755.89943	633.03526	130.1872	59.39791	47.19286	1500	QRS+0
283	224.57292	149.71528	-75.67131	-187.1441	151.34262	37.42882	314.89029	704.63822	589.09708	130.1872	61.83892	47.19286	0
284	217.24989	149.71528	-68.34828	-184.70309	144.01959	42.31084	295.36221	653.37701	545.1589	122.86417	66.72094	54.51589	0
285	207.48585	152.15629	-56.14323	-179.82107	131.81454	49.63387	283.15716	604.55681	506.10274	115.54114	69.16195	61.83892	0
286	197.72181	149.71528	-48.8202	-174.93905	124.49151	52.07488	268.5111	565.50065	469.48759	105.7771	71.60296	66.72094	0
287	197.72181	149.71528	-48.8202	-174.93905	124.49151	52.07488	251.42403	528.8855	432.87244	93.57205	71.60296	71.60296	0
288	195.2808	147.27427	-48.8202	-172.49804	122.0505	49.63387	236.77797	492.27035	398.6983	88.69003	71.60296	74.04397	0
289	187.95777	147.27427	-41.49717	-167.61602	114.72747	54.51589	222.13191	455.6552	364.52416	83.80801	69.16195	74.04397	0
290	178.19373	147.27427	-31.73313	-162.734	104.96343	59.39791	205.04484	421.48106	327.90901	78.92599	66.72094	69.16195	0
291	168.42969	144.83326	-24.4101	-157.85198	97.6404	61.83892	183.07575	384.86591	291.29386	76.48498	64.27993	66.72094	0
292	156.22464	139.95124	-17.08707	-148.08794	87.87636	61.83892	158.66565	340.92773	249.79669	74.04397	61.83892	64.27993	0
293	136.69656	122.86417	-14.64606	-131.00087	75.67131	54.51589	139.13757	292.10753	205.85851	69.16195	56.9569	64.27993	0
294	114.72747	108.21811	-7.32303	-111.47279	61.02525	52.07488	124.49151	243.28733	166.80235	56.9569	52.07488	61.83892	0
295	97.6404	98.45407	0.81367	-99.26774	48.8202	49.63387	109.84545	199.34915	130.1872	44.75185	47.19286	59.39791	0
296	85.43535	93.57205	8.1367	-89.5037	39.05616	52.07488	95.19939	167.61602	98.45407	32.5468	42.31084	59.39791	0
297	78.11232	83.80801	5.69569	-82.18067	36.61515	44.75185	78.11232	140.76491	71.60296	22.78276	39.86983	64.27993	0
298	78.11232	81.367	3.25468	-79.73966	39.05616	42.31084	65.0936	116.35481	47.19286	17.90074	37.42882	69.16195	0
299	73.2303	81.367	8.1367	-77.29865	34.17414	44.75185	48.00653	94.38572	22.78276	15.45973	39.86983	69.16195	0
300	73.2303	86.24902	13.01872	-79.73966	31.73313	49.63387	38.24249	72.41663	0.81367	15.45973	42.31084	69.16195	0
301	75.67131	88.69003	13.01872	-82.18067	31.73313	52.07488	35.80148	55.32956	-18.71441	17.90074	47.19286	69.16195	0
302	78.11232	81.367	3.25468	-79.73966	39.05616	42.31084	38.24249	33.36047	-43.12451	20.34175	49.63387	74.04397	0
303	73.2303	71.60296	-1.62734	-72.41663	39.05616	34.98781	43.12451	4.06835	-69.97562	17.90074	49.63387	71.60296	0
304	53.70222	59.39791	5.69569	-57.77057	24.4101	32.5468	50.44754	-30.10579	-94.38572	5.69569	42.31084	64.27993	0
305	43.93818	47.19286	3.25468	-45.56552	21.96909	25.22377	60.21158	-54.51589	-112.28646	-8.95037	34.98781	59.39791	0
306	36.61515	37.42882	0.81367	-38.24249	19.52808	20.34175	67.53461	-69.16195	-124.49151	-19.52808	25.22377	52.07488	0
307	24.4101	22.78276	-1.62734	-23.59643	14.64606	10.57771	57.77057	-81.367	-136.69656	-31.73313	13.01872	44.75185	0
308	9.76404	8.1367	-1.62734	-8.95037	7.32303	3.25468	43.12451	-93.57205	-148.90161	-43.93818	0.81367	37.42882	0
309	0	-1.62734	-1.62734	0.81367	2.44101	-1.62734	28.47845	-104.14976	-161.10666	-53.70222	-9.76404	27.66478	0
310	-2.44101	-1.62734	0.81367	0.81367	-0.81367	0.81367	11.39138	-113.9138	-175.75272	-58.58424	-12.20505	20.34175	0
311	2.44101	0.81367	-1.62734	-1.62734	2.44101	0.81367	-5.69569	-121.23683	-185.51676	-58.58424	-14.64606	13.01872	0
312	-2.44101	-6.50936	-4.88202	3.25468	2.44101	-4.06835	-20.34175	-138.3239	-205.04484	-65.90727	-24.4101	3.25468	0
313	-5.69569	-12.20505	-7.32303	5.69569	-0.81367	-9.76404	-27.66478	-157.85198	-219.6909	-70.78929	-31.73313	-4.06835	0
314	-10.57771	-12.20505	-1.62734	8.95037	-5.69569	-7.32303	-27.66478	-174.93905	-231.89595	-75.67131	-36.61515	-9.76404	0
315	-13.01872	-4.06835	8.1367	5.69569	-10.57771	0.81367	-27.66478	-187.1441	-236.77797	-82.99434	-36.61515	-9.76404	0
316	-13.01872	0.81367	13.01872	5.69569	-13.01872	5.69569	-25.22377	-189.58511	-236.77797	-87.87636	-39.05616	-9.76404	0
317	-17.90074	-4.06835	13.01872	8.95037	-15.45973	3.25468	-25.22377	-184.70309	-234.33696	-90.31737	-39.05616	-6.50936	0
318	-20.34175	-4.06835	15.45973	11.39138	-17.90074	5.69569	-27.66478	-182.26208	-229.45494	-90.31737	-39.05616	-1.62734	0
319	-15.45973	3.25468	17.90074	5.69569	-15.45973	10.57771	-27.66478	-177.38006	-224.57292	-82.99434	-29.29212	8.1367	0
320	-8.1367	13.01872	20.34175	-4.06835	-13.01872	15.45973	-32.5468	-172.49804	-224.57292	-75.67131	-21.96909	13.01872	0
321	-5.69569	20.34175	25.22377	-8.95037	-15.45973	22.78276	-39.86983	-172.49804	-224.57292	-70.78929	-14.64606	13.01872	0
322	0	22.78276	22.78276	-11.39138	-10.57771	22.78276	-47.19286	-177.38006	-234.33696	-70.78929	-17.08707	10.57771	0
323	-2.44101	20.34175	22.78276	-8.95037	-13.01872	22.78276	-54.51589	-194.46713	-246.54201	-75.67131	-24.4101	0.81367	0
324	-5.69569	15.45973	20.34175	-6.50936	-13.01872	17.90074	-52.07488	-209.11319	-256.30605	-82.99434	-34.17414	-9.76404	0
325	-13.01872	8.1367	20.34175	0.81367	-15.45973	13.01872	-49.63387	-213.99521	-258.74706	-92.75838	-41.49717	-17.08707	0
326	-25.22377	0.81367	25.22377	11.39138	-25.22377	13.01872	-47.19286	-213.99521	-256.30605	-100.08141	-46.37919	-21.96909	0
327	-34.98781	-12.20505	22.78276	21.15542	-30.10579	5.69569	-49.63387	-209.11319	-251.42403	-109.84545	-56.14323	-24.4101	0
328	-44.75185	-26.85111	17.90074	33.36047	-32.5468	-4.06835	-49.63387	-206.67218	-248.98302	-112.28646	-63.46626	-26.85111	0
329	-47.19286	-41.49717	5.69569	43.12451	-27.66478	-19.52808	-44.75185	-196.90814	-241.65999	-109.84545	-61.02525	-24.4101	0
330	-44.75185	-41.49717	3.25468	40.6835	-25.22377	-19.52808	-44.75185	-192.02612	-239.21898	-100.08141	-51.26121	-19.52808	0
331	-42.31084	-24.4101	17.90074	30.91946	-30.10579	-4.06835	-54.51589	-189.58511	-241.65999	-92.75838	-41.49717	-9.76404	0
332	-34.98781	-14.64606	20.34175	23.59643	-27.66478	3.25468	-61.83892	-194.46713	-248.98302	-82.99434	-29.29212	-1.62734	0
333	-27.66478	-12.20505	15.45973	18.71441	-22.78276	0.81367	-61.83892	-204.23117	-256.30605	-75.67131	-24.4101	3.25468	0
334	-25.22377	-12.20505	13.01872	16.2734	-20.34175	0.81367	-54.51589	-213.99521	-261.18807	-70.78929	-14.64606	15.45973	0
335	-25.22377	-4.06835	20.34175	13.83239	-22.78276	8.1367	-49.63387	-218.87723	-261.18807	-70.78929	-7.32303	25.22377	0
336	-30.10579	0.81367	30.10579	13.83239	-30.10579	15.45973	-47.19286	-216.43622	-258.74706	-73.2303	-7.32303	32.5468	0
337	-32.5468	-4.06835	27.66478	16.2734	-30.10579	10.57771	-42.31084	-209.11319	-253.86504	-75.67131	-7.32303	34.98781	0
338	-30.10579	-9.76404	20.34175	18.71441	-25.22377	5.69569	-37.42882	-204.23117	-248.98302	-75.67131	-14.64606	32.5468	0
339	-30.10579	-6.50936	22.78276	16.2734	-25.22377	8.1367	-37.42882	-199.34915	-244.101	-78.11232	-19.52808	27.66478	0
340	-30.10579	0.81367	30.10579	13.83239	-30.10579	15.45973	-39.86983	-194.46713	-244.101	-75.67131	-19.52808	22.78276	0
341	-27.66478	3.25468	30.10579	11.39138	-27.66478	15.45973	-47.19286	-194.46713	-248.98302	-73.2303	-21.96909	15.45973	0
342	-25.22377	-1.62734	22.78276	11.39138	-22.78276	10.57771	-56.9569	-199.34915	-258.74706	-70.78929	-24.4101	5.69569	0
343	-27.66478	-9.76404	17.90074	16.2734	-22.78276	3.25468	-59.39791	-213.99521	-268.5111	-68.34828	-24.4101	3.25468	0
344	-34.98781	-9.76404	25.22377	21.15542	-30.10579	8.1367	-59.39791	-228.64127	-275.83413	-68.34828	-24.4101	3.25468	0
345	-39.86983	-12.20505	27.66478	23.59643	-34.98781	8.1367	-59.39791	-233.52329	-278.27514	-73.2303	-21.96909	3.25468	0
346	-37.42882	-14.64606	22.78276	23.59643	-30.10579	3.25468	-61.83892	-233.52329	-278.27514	-75.67131	-19.52808	3.25468	0
347	-27.66478	-9.76404	17.90074	16.2734	-22.78276	3.25468	-61.83892	-231.08228	-273.39312	-78.11232	-21.96909	8.1367	0
348	-22.78276	-4.06835	17.90074	11.39138	-20.34175	5.69569	-61.83892	-223.75925	-266.07009	-75.67131	-19.52808	15.45973	0
349	-17.90074	5.69569	22.78276	5.69569	-20.34175	13.01872	-61.83892	-216.43622	-258.74706	-70.78929	-12.20505	25.22377	0
350	-5.69569	17.90074	22.78276	-6.50936	-13.01872	20.34175	-61.83892	-211.5542	-253.86504	-65.90727	-7.32303	27.66478	0
351	-5.69569	25.22377	30.10579	-11.39138	-17.90074	27.66478	-66.72094	-206.67218	-256.30605	-61.02525	-7.32303	20.34175	0
352	-5.69569	27.66478	32.5468	-11.39138	-17.90074	30.10579	-69.16195	-213.99521	-263.62908	-58.58424	-7.32303	13.01872	0
353	-13.01872	27.66478	39.86983	-8.95037	-25.22377	32.5468	-66.72094	-223.75925	-270.95211	-56.14323	-9.76404	8.1367	0
354	-22.78276	22.78276	44.75185	-1.62734	-32.5468	32.5468	-59.39791	-235.9643	-278.27514	-61.02525	-14.64606	3.25468	0
355	-22.78276	20.34175	42.31084	0.81367	-32.5468	30.10579	-54.51589	-243.28733	-280.71615	-68.34828	-17.08707	-4.06835	0
356	-27.66478	15.45973	42.31084	5.69569	-34.98781	27.66478	-52.07488	-240.84632	-275.83413	-73.2303	-21.96909	-9.76404	0
357	-32.5468	5.69569	37.42882	11.39138	-34.98781	20.34175	-52.07488	-235.9643	-270.95211	-73.2303	-21.96909	-4.06835	0
358	-27.66478	0.81367	27.66478	11.39138	-27.66478	13.01872	-52.07488	-228.64127	-263.62908	-70.78929	-24.4101	0.81367	0
359	-22.78276	0.81367	22.78276	8.95037	-22.78276	10.57771	-54.51589	-223.75925	-258.74706	-65.90727	-21.96909	8.1367	0
360	-22.78276	-6.50936	15.45973	13.83239	-17.90074	3.25468	-59.39791	-218.87723	-256.30605	-58.58424	-14.64606	10.57771	0
361	-30.10579	-9.76404	20.34175	18.71441	-25.22377	5.69569	-69.16195	-218.87723	-261.18807	-51.26121	-9.76404	13.01872	0
362	-39.86983	-9.76404	30.10579	23.59643	-34.98781	10.57771	-81.367	-228.64127	-273.39312	-51.26121	-12.20505	10.57771	0
363	-54.51589	-14.64606	39.86983	33.36047	-47.19286	13.01872	-86.24902	-245.72834	-288.03918	-51.26121	-14.64606	3.25468	0
364	-59.39791	-12.20505	47.19286	33.36047	-54.51589	17.90074	-86.24902	-260.3744	-297.80322	-56.14323	-19.52808	-1.62734	0
365	-56.9569	-9.76404	47.19286	30.91946	-52.07488	17.90074	-76.48498	-262.81541	-295.36221	-61.02525	-17.08707	-1.62734	0
366	-52.07488	-1.62734	49.63387	26.03744	-49.63387	22.78276	-69.16195	-257.93339	-290.48019	-61.02525	-14.64606	-4.06835	0
367	-39.86983	5.69569	44.75185	16.2734	-42.31084	25.22377	-64.27993	-250.61036	-283.15716	-63.46626	-19.52808	-6.50936	0
368	-27.66478	13.01872	39.86983	5.69569	-32.5468	25.22377	-61.83892	-240.84632	-275.83413	-61.02525	-21.96909	-6.50936	-1500	QRS-0
369	-13.01872	20.34175	32.5468	-4.06835	-22.78276	25.22377	-59.39791	-231.08228	-266.07009	-56.14323	-17.08707	-1.62734	0
370	0	32.5468	32.5468	-16.2734	-15.45973	32.5468	-56.9569	-221.31824	-258.74706	-46.37919	-9.76404	0.81367	0
371	-2.44101	32.5468	34.98781	-16.2734	-17.90074	34.98781	-64.27993	-213.99521	-256.30605	-39.05616	-7.32303	0.81367	0
372	-8.1367	32.5468	39.86983	-13.83239	-22.78276	34.98781	-74.04397	-221.31824	-268.5111	-36.61515	-7.32303	-1.62734	0
373	-17.90074	25.22377	42.31084	-4.06835	-30.10579	32.5468	-76.48498	-235.9643	-275.83413	-31.73313	-7.32303	0.81367	0
374	-25.22377	25.22377	49.63387	-1.62734	-37.42882	37.42882	-69.16195	-245.72834	-278.27514	-26.85111	0.81367	5.69569	0
375	-22.78276	32.5468	54.51589	-6.50936	-37.42882	42.31084	-61.83892	-248.16935	-275.83413	-24.4101	8.1367	15.45973	0
376	-15.45973	37.42882	52.07488	-11.39138	-32.5468	44.75185	-54.51589	-240.84632	-268.5111	-21.96909	15.45973	22.78276	0
377	-5.69569	47.19286	52.07488	-21.15542	-27.66478	49.63387	-52.07488	-235.9643	-258.74706	-21.96909	20.34175	32.5468	0
378	0	49.63387	49.63387	-26.03744	-25.22377	49.63387	-49.63387	-228.64127	-251.42403	-19.52808	25.22377	42.31084	0
379	4.88202	44.75185	39.86983	-26.03744	-17.90074	42.31084	-44.75185	-221.31824	-244.101	-16.2734	25.22377	42.31084	0
380	14.64606	42.31084	27.66478	-28.47845	-5.69569	34.98781	-42.31084	-213.99521	-239.21898	-16.2734	25.22377	39.86983	0
381	17.08707	42.31084	25.22377	-30.91946	-3.25468	34.98781	-42.31084	-209.11319	-239.21898	-11.39138	25.22377	32.5468	0
382	17.08707	44.75185	27.66478	-30.91946	-5.69569	37.42882	-39.86983	-211.5542	-244.101	-11.39138	20.34175	22.78276	0
383	9.76404	37.42882	27.66478	-23.59643	-8.1367	32.5468	-30.10579	-218.87723	-248.98302	-8.95037	15.45973	15.45973	0
384	2.44101	34.98781	32.5468	-18.71441	-15.45973	34.98781	-15.45973	-223.75925	-248.98302	-8.95037	15.45973	10.57771	0
385	2.44101	47.19286	44.75185	-26.03744	-20.34175	47.19286	-5.69569	-223.75925	-241.65999	-11.39138	17.90074	13.01872	0
386	9.76404	64.27993	54.51589	-38.24249	-22.78276	59.39791	1.62734	-211.5542	-229.45494	-6.50936	25.22377	25.22377	0
387	14.64606	78.92599	64.27993	-48.00653	-25.22377	71.60296	4.06835	-201.79016	-217.24989	-4.06835	30.10579	32.5468	0
388	19.52808	91.13104	71.60296	-55.32956	-25.22377	81.367	1.62734	-196.90814	-212.36787	-1.62734	32.5468	39.86983	0
389	29.29212	98.45407	69.16195	-65.0936	-20.34175	83.80801	-5.69569	-192.02612	-207.48585	0.81367	34.98781	44.75185	0
390	34.17414	98.45407	64.27993	-67.53461	-15.45973	81.367	-15.45973	-189.58511	-207.48585	5.69569	39.86983	44.75185	0
391	39.05616	100.89508	61.83892	-69.97562	-10.57771	81.367	-25.22377	-187.1441	-207.48585	10.57771	44.75185	44.75185	0
392	43.93818	100.89508	56.9569	-72.41663	-5.69569	78.92599	-39.86983	-196.90814	-219.6909	13.01872	42.31084	39.86983	0
393	43.93818	100.89508	56.9569	-72.41663	-5.69569	78.92599	-52.07488	-213.99521	-231.89595	8.1367	32.5468	30.10579	0
394	43.93818	98.45407	54.51589	-72.41663	-5.69569	76.48498	-54.51589	-231.08228	-241.65999	3.25468	30.10579	25.22377	0
395	46.37919	96.01306	49.63387	-72.41663	-0.81367	74.04397	-54.51589	-235.9643	-241.65999	3.25468	32.5468	27.66478	0
396	46.37919	96.01306	49.63387	-72.41663	-0.81367	74.04397	-56.9569	-235.9643	-239.21898	0.81367	32.5468	25.22377	0
397	43.93818	98.45407	54.51589	-72.41663	-5.69569	76.48498	-64.27993	-233.52329	-239.21898	-4.06835	22.78276	17.90074	0
398	48.8202	103.33609	54.51589	-77.29865	-3.25468	78.92599	-66.72094	-228.64127	-234.33696	-4.06835	20.34175	17.90074	0
399	48.8202	105.7771	56.9569	-77.29865	-3.25468	81.367	-69.16195	-221.31824	-227.01393	3.25468	25.22377	20.34175	0
400	43.93818	103.33609	59.39791	-74.85764	-8.1367	81.367	-71.60296	-213.99521	-222.13191	13.01872	32.5468	25.22377	0
401	39.05616	103.33609	64.27993	-72.41663	-13.01872	83.80801	-81.367	-211.5542	-224.57292	17.90074	37.42882	25.22377	0
402	39.05616	108.21811	69.16195	-74.85764	-15.45973	88.69003	-88.69003	-218.87723	-234.33696	20.34175	39.86983	25.22377	0
403	41.49717	110.65912	69.16195	-77.29865	-13.01872	91.13104	-91.13104	-228.64127	-241.65999	25.22377	47.19286	37.42882	0
404	39.05616	108.21811	69.16195	-74.85764	-15.45973	88.69003	-88.69003	-238.40531	-246.54201	30.10579	56.9569	49.63387	0
405	31.73313	100.89508	69.16195	-67.53461	-17.90074	86.24902	-83.80801	-243.28733	-246.54201	27.66478	59.39791	54.51589	0
406	24.4101	93.57205	69.16195	-60.21158	-22.78276	81.367	-81.367	-240.84632	-244.101	22.78276	61.83892	54.51589	0
407	19.52808	81.367	61.83892	-50.44754	-20.34175	71.60296	-81.367	-233.52329	-239.21898	17.90074	56.9569	54.51589	0
408	12.20505	64.27993	52.07488	-38.24249	-20.34175	59.39791	-81.367	-228.64127	-234.33696	13.01872	47.19286	49.63387	0
409	12.20505	52.07488	39.86983	-33.36047	-13.01872	47.19286	-81.367	-221.31824	-229.45494	10.57771	42.31084	42.31084	0
410	4.88202	44.75185	39.86983	-26.03744	-17.90074	42.31084	-81.367	-216.43622	-229.45494	8.1367	37.42882	30.10579	0
411	0	39.86983	39.86983	-21.15542	-20.34175	39.86983	-88.69003	-213.99521	-234.33696	5.69569	30.10579	17.90074	0
412	-2.44101	37.42882	39.86983	-18.71441	-20.34175	39.86983	-96.01306	-218.87723	-246.54201	3.25468	25.22377	8.1367	0
413	-5.69569	30.10579	34.98781	-13.83239	-20.34175	32.5468	-98.45407	-228.64127	-253.86504	0.81367	15.45973	-1.62734	0
414	-8.1367	20.34175	27.66478	-6.50936	-17.90074	22.78276	-93.57205	-240.84632	-261.18807	-1.62734	15.45973	-6.50936	0
415	-15.45973	15.45973	30.10579	-1.62734	-22.78276	22.78276	-88.69003	-243.28733	-261.18807	-8.95037	10.57771	-9.76404	0
416	-20.34175	8.1367	27.66478	5.69569	-22.78276	17.90074	-88.69003	-243.28733	-258.74706	-13.83239	10.57771	-9.76404	0
417	-22.78276	5.69569	27.66478	5.69569	-25.22377	15.45973	-93.57205	-243.28733	-256.30605	-19.52808	8.1367	-9.76404	0
418	-20.34175	-4.06835	15.45973	11.39138	-17.90074	5.69569	-96.01306	-243.28733	-253.86504	-19.52808	8.1367	-6.50936	0
419	-13.01872	-9.76404	3.25468	8.95037	-8.1367	-4.06835	-103.33609	-240.84632	-253.86504	-19.52808	8.1367	-6.50936	0
420	-10.57771	-9.76404	0.81367	8.95037	-5.69569	-4.06835	-110.65912	-238.40531	-256.30605	-19.52808	8.1367	-4.06835	0
421	-5.69569	-6.50936	-1.62734	5.69569	-0.81367	-4.06835	-120.42316	-240.84632	-263.62908	-19.52808	8.1367	-4.06835	0
422	-2.44101	-1.62734	0.81367	0.81367	-0.81367	0.81367	-127.74619	-248.16935	-275.83413	-24.4101	5.69569	-4.06835	0
423	-2.44101	-9.76404	-7.32303	5.69569	2.44101	-7.32303	-130.1872	-260.3744	-288.03918	-29.29212	0.81367	-9.76404	0
424	-5.69569	-19.52808	-14.64606	11.39138	4.88202	-17.08707	-127.74619	-270.13844	-297.80322	-34.17414	-7.32303	-17.08707	0
425	-10.57771	-19.52808	-9.76404	13.83239	-0.81367	-14.64606	-122.86417	-277.46147	-305.12625	-46.37919	-14.64606	-24.4101	0
426	-13.01872	-19.52808	-7.32303	13.83239	-3.25468	-14.64606	-122.86417	-277.46147	-305.12625	-56.14323	-21.96909	-29.29212	0
427	-8.1367	-29.29212	-21.96909	16.2734	7.32303	-26.85111	-122.86417	-275.02046	-300.24423	-63.46626	-26.85111	-34.17414	0
428	-5.69569	-41.49717	-36.61515	21.15542	14.64606	-39.05616	-125.30518	-275.02046	-297.80322	-70.78929	-34.17414	-41.49717	0
429	-5.69569	-48.8202	-43.93818	26.03744	19.52808	-46.37919	-127.74619	-267.69743	-292.9212	-70.78929	-36.61515	-43.93818	0
430	-5.69569	-43.93818	-39.05616	23.59643	17.08707	-41.49717	-135.06922	-265.25642	-290.48019	-73.2303	-34.17414	-43.93818	0
431	-2.44101	-46.37919	-43.93818	23.59643	19.52808	-43.93818	-139.95124	-260.3744	-290.48019	-70.78929	-29.29212	-43.93818	0
432	-2.44101	-53.70222	-51.26121	26.03744	24.4101	-51.26121	-142.39225	-262.81541	-295.36221	-70.78929	-26.85111	-43.93818	0
433	-5.69569	-61.02525	-56.14323	30.91946	24.4101	-58.58424	-139.95124	-270.13844	-300.24423	-65.90727	-24.4101	-43.93818	0
434	-17.90074	-61.02525	-43.93818	38.24249	12.20505	-53.70222	-132.62821	-277.46147	-302.68524	-63.46626	-21.96909	-36.61515	0
435	-20.34175	-61.02525	-41.49717	38.24249	9.76404	-51.26121	-120.42316	-279.90248	-300.24423	-63.46626	-14.64606	-31.73313	0
436	-20.34175	-63.46626	-43.93818	40.6835	12.20505	-53.70222	-115.54114	-279.90248	-297.80322	-65.90727	-14.64606	-31.73313	0
437	-22.78276	-70.78929	-48.8202	45.56552	12.20505	-61.02525	-110.65912	-277.46147	-292.9212	-65.90727	-14.64606	-31.73313	0
438	-20.34175	-73.2303	-53.70222	45.56552	17.08707	-63.46626	-105.7771	-272.57945	-288.03918	-65.90727	-14.64606	-26.85111	0
439	-17.90074	-75.67131	-58.58424	45.56552	19.52808	-68.34828	-105.7771	-267.69743	-280.71615	-63.46626	-14.64606	-26.85111	0
440	-15.45973	-75.67131	-61.02525	43.12451	21.96909	-68.34828	-110.65912	-267.69743	-283.15716	-68.34828	-21.96909	-31.73313	0
441	-13.01872	-78.11232	-65.90727	43.12451	26.85111	-73.2303	-120.42316	-267.69743	-288.03918	-73.2303	-31.73313	-46.37919	0
442	-17.90074	-78.11232	-61.02525	45.56552	21.96909	-70.78929	-122.86417	-270.13844	-297.80322	-75.67131	-39.05616	-56.14323	0
443	-27.66478	-82.99434	-56.14323	52.88855	14.64606	-70.78929	-122.86417	-277.46147	-302.68524	-75.67131	-43.93818	-58.58424	0
444	-37.42882	-87.87636	-51.26121	60.21158	7.32303	-70.78929	-122.86417	-284.7845	-307.56726	-78.11232	-46.37919	-63.46626	0
445	-47.19286	-90.31737	-43.93818	67.53461	-3.25468	-68.34828	-122.86417	-292.10753	-314.89029	-85.43535	-51.26121	-68.34828	0
446	-59.39791	-87.87636	-29.29212	72.41663	-15.45973	-58.58424	-120.42316	-294.54854	-314.89029	-87.87636	-51.26121	-65.90727	0
447	-71.60296	-92.75838	-21.96909	79.73966	-25.22377	-58.58424	-117.98215	-289.66652	-307.56726	-87.87636	-46.37919	-56.14323	0
448	-78.92599	-102.52242	-24.4101	89.5037	-27.66478	-63.46626	-113.10013	-282.34349	-300.24423	-82.99434	-39.05616	-43.93818	0
449	-78.92599	-109.84545	-31.73313	91.94471	-25.22377	-70.78929	-108.21811	-272.57945	-295.36221	-80.55333	-36.61515	-39.05616	0
450	-78.92599	-109.84545	-31.73313	91.94471	-25.22377	-70.78929	-100.89508	-262.81541	-292.9212	-85.43535	-36.61515	-41.49717	0
451	-78.92599	-109.84545	-31.73313	91.94471	-25.22377	-70.78929	-93.57205	-248.16935	-290.48019	-85.43535	-36.61515	-41.49717	0
452	-74.04397	-119.60949	-46.37919	94.38572	-15.45973	-82.99434	-83.80801	-238.40531	-290.48019	-87.87636	-39.05616	-43.93818	0
453	-74.04397	-136.69656	-63.46626	104.14976	-5.69569	-100.08141	-69.16195	-233.52329	-288.03918	-87.87636	-46.37919	-48.8202	0
454	-78.92599	-141.57858	-63.46626	109.03178	-8.1367	-102.52242	-59.39791	-231.08228	-290.48019	-97.6404	-53.70222	-58.58424	0
455	-83.80801	-144.01959	-61.02525	111.47279	-13.01872	-102.52242	-47.19286	-226.20026	-290.48019	-104.96343	-58.58424	-65.90727	0
456	-83.80801	-139.13757	-56.14323	109.03178	-15.45973	-97.6404	-37.42882	-216.43622	-280.71615	-112.28646	-63.46626	-73.2303	0
457	-88.69003	-139.13757	-51.26121	111.47279	-20.34175	-95.19939	-27.66478	-201.79016	-268.5111	-117.16848	-68.34828	-78.11232	0
458	-88.69003	-141.57858	-53.70222	113.9138	-17.90074	-97.6404	-17.90074	-184.70309	-248.98302	-117.16848	-68.34828	-78.11232	0
459	-76.48498	-144.01959	-68.34828	109.03178	-5.69569	-107.40444	-17.90074	-167.61602	-229.45494	-109.84545	-65.90727	-78.11232	0
460	-52.07488	-151.34262	-100.08141	99.26774	24.4101	-126.93252	-20.34175	-140.76491	-202.60383	-97.6404	-58.58424	-75.67131	0
461	-15.45973	-158.66565	-144.01959	84.62168	63.46626	-151.34262	-27.66478	-104.14976	-168.42969	-78.11232	-46.37919	-70.78929	0
462	31.73313	-168.42969	-200.16282	67.53461	114.72747	-183.07575	-49.63387	-71.60296	-129.37353	-48.8202	-31.73313	-63.46626	0
463	92.75838	-170.8707	-263.62908	38.24249	178.19373	-217.24989	-88.69003	-49.63387	-84.62168	-8.95037	-9.76404	-46.37919	0
464	168.42969	-151.34262	-319.77231	-8.95037	244.101	-234.33696	-149.71528	-47.19286	-40.6835	39.86983	17.90074	-24.4101	0
465	248.98302	-114.72747	-363.71049	-67.53461	305.12625	-239.21898	-227.8276	-61.83892	5.69569	98.45407	59.39791	8.1367	0
466	334.41837	-56.14323	-390.5616	-140.76491	361.26948	-222.13191	-323.02699	-98.45407	52.07488	174.12538	117.98215	54.51589	0
467	427.17675	27.66478	-400.32564	-228.64127	414.9717	-185.51676	-447.5185	-165.17501	96.01306	264.44275	183.88942	110.65912	0
468	515.05311	127.74619	-388.12059	-321.39965	451.58685	-129.37353	-591.53809	-262.81541	130.1872	366.96517	259.56073	176.56639	0
469	593.16543	240.03265	-353.94645	-416.59904	473.55594	-56.14323	-747.76273	-382.4249	152.15629	471.9286	344.99608	247.35568	0
470	661.51371	362.08315	-300.24423	-511.79843	480.87897	32.5468	-911.3104	-524.00348	164.36134	584.21506	435.31345	327.90901	0
471	717.65694	484.13365	-234.33696	-602.1158	475.99695	125.30518	-1082.1811	-677.78711	161.92033	689.17849	525.63082	406.02133	0
472	751.83108	591.53809	-161.10666	-672.90509	456.46887	215.62255	-1243.28776	-826.68872	137.51023	769.73182	591.53809	464.60557	0
473	746.94906	645.24031	-102.52242	-697.31519	424.73574	271.76578	-1365.33826	-960.94427	98.45407	813.67	630.59425	501.22072	0
474	705.45189	647.68132	-58.58424	-677.78711	383.23857	296.17588	-1450.77361	-1075.67174	34.98781	811.22899	640.35829	515.86678	0
475	639.54462	611.06617	-29.29212	-626.5259	334.41837	291.29386	-1502.03482	-1175.75315	-60.21158	764.8498	618.3892	506.10274	0
476	549.22725	528.07183	-21.96909	-538.64954	285.59817	254.67871	-1521.5629	-1256.30648	-187.95777	669.65041	559.80496	464.60557	0
477	439.3818	410.90335	-29.29212	-426.36308	234.33696	191.21245	-1504.47583	-1310.0087	-331.97736	537.83587	469.48759	396.25729	0
478	314.89029	271.76578	-43.93818	-294.54854	180.63474	115.54114	-1460.53765	-1349.06486	-483.31998	393.81628	371.84719	325.468	0
479	195.2808	147.27427	-48.8202	-172.49804	122.0505	49.63387	-1401.95341	-1375.91597	-632.22159	254.67871	276.6478	254.67871	0
480	90.31737	54.51589	-36.61515	-72.41663	63.46626	10.57771	-1340.92816	-1393.00304	-764.03613	127.74619	188.77144	186.33043	0
481	7.32303	-17.08707	-24.4101	3.25468	14.64606	-19.52808	-1272.57988	-1383.239	-866.55855	22.78276	115.54114	127.74619	0
482	-59.39791	-73.2303	-14.64606	65.0936	-22.78276	-43.93818	-1192.02655	-1349.06486	-927.5838	-51.26121	61.83892	86.24902	0
483	-113.10013	-122.0505	-9.76404	116.35481	-52.07488	-65.90727	-1094.38615	-1288.03961	-942.22986	-104.96343	17.90074	54.51589	0
484	-152.15629	-163.54767	-12.20505	155.41097	-71.60296	-87.87636	-986.98171	-1200.16325	-925.14279	-146.4606	-19.52808	25.22377	0
485	-179.0074	-207.48585	-29.29212	192.02612	-76.48498	-119.60949	-867.37222	-1087.87679	-876.32259	-178.19373	-51.26121	-6.50936	0
486	-193.65346	-251.42403	-58.58424	221.31824	-69.16195	-156.22464	-745.32172	-958.50326	-810.41532	-202.60383	-78.11232	-31.73313	0
487	-205.85851	-290.48019	-85.43535	245.72834	-61.83892	-187.95777	-625.71223	-829.12973	-739.62603	-224.57292	-102.52242	-56.14323	0
488	-205.85851	-322.21332	-117.16848	262.81541	-44.75185	-219.6909	-513.42577	-702.19721	-661.51371	-241.65999	-126.93252	-82.99434	0
489	-200.97649	-339.30039	-139.13757	267.69743	-32.5468	-239.21898	-410.90335	-580.14671	-580.96038	-244.101	-141.57858	-102.52242	0
490	-193.65346	-344.18241	-151.34262	267.69743	-22.78276	-248.98302	-318.14497	-470.30126	-505.28907	-241.65999	-146.4606	-114.72747	0
491	-176.56639	-329.53635	-153.78363	250.61036	-13.01872	-241.65999	-244.91467	-375.10187	-436.94079	-234.33696	-146.4606	-119.60949	0
492	-159.47932	-307.56726	-148.90161	231.08228	-5.69569	-229.45494	-183.88942	-296.98955	-378.35655	-224.57292	-144.01959	-122.0505	0
493	-144.83326	-297.80322	-153.78363	218.87723	4.88202	-227.01393	-127.74619	-233.52329	-322.21332	-209.92686	-139.13757	-119.60949	0
494	-132.62821	-280.71615	-148.90161	204.23117	7.32303	-214.80888	-78.92599	-174.93905	-268.5111	-195.2808	-129.37353	-114.72747	0
495	-125.30518	-261.18807	-136.69656	192.02612	4.88202	-200.16282	-37.42882	-126.11885	-227.01393	-187.95777	-124.49151	-112.28646	0
496	-122.86417	-253.86504	-131.81454	187.1441	4.88202	-192.83979	-0.81367	-78.92599	-187.95777	-183.07575	-122.0505	-112.28646	0
497	-122.86417	-253.86504	-131.81454	187.1441	4.88202	-192.83979	30.91946	-34.98781	-151.34262	-178.19373	-124.49151	-112.28646	0
498	-122.86417	-253.86504	-131.81454	187.1441	4.88202	-192.83979	55.32956	1.62734	-119.60949	-175.75272	-126.93252	-114.72747	0
499	-122.86417	-246.54201	-124.49151	182.26208	-0.81367	-185.51676	74.85764	35.80148	-94.38572	-175.75272	-131.81454	-122.0505	0
500	-125.30518	-248.98302	-124.49151	184.70309	-0.81367	-187.95777	95.19939	67.53461	-72.41663	-170.8707	-131.81454	-124.49151	0
501	-125.30518	-246.54201	-122.0505	184.70309	-3.25468	-185.51676	102.52242	79.73966	-62.65259	-165.98868	-129.37353	-124.49151	0
502	-125.30518	-246.54201	-122.0505	184.70309	-3.25468	-185.51676	114.72747	104.14976	-48.00653	-163.54767	-126.93252	-126.93252	0
503	-120.42316	-239.21898	-119.60949	177.38006	-0.81367	-180.63474	124.49151	118.79582	-38.24249	-161.10666	-126.93252	-129.37353	0
504	-113.10013	-236.77797	-124.49151	172.49804	4.88202	-180.63474	136.69656	133.44188	-26.03744	-156.22464	-129.37353	-129.37353	0
505	-110.65912	-234.33696	-124.49151	170.05703	7.32303	-180.63474	148.90161	150.52895	-13.83239	-156.22464	-129.37353	-134.25555	0
506	-110.65912	-231.89595	-122.0505	170.05703	4.88202	-178.19373	163.54767	170.05703	5.69569	-158.66565	-131.81454	-134.25555	0
507	-103.33609	-222.13191	-119.60949	160.29299	7.32303	-170.8707	173.31171	194.46713	27.66478	-158.66565	-134.25555	-134.25555	0
508	-98.45407	-222.13191	-124.49151	157.85198	12.20505	-173.31171	185.51676	218.87723	49.63387	-161.10666	-139.13757	-134.25555	0
509	-100.89508	-222.13191	-122.0505	160.29299	9.76404	-173.31171	192.83979	240.84632	66.72094	-163.54767	-144.01959	-139.13757	0
510	-108.21811	-229.45494	-122.0505	167.61602	7.32303	-175.75272	200.16282	260.3744	83.80801	-168.42969	-148.90161	-144.01959	0
511	-115.54114	-239.21898	-124.49151	174.93905	4.88202	-183.07575	209.92686	279.90248	98.45407	-170.8707	-151.34262	-148.90161	0
512	-108.21811	-234.33696	-126.93252	170.05703	9.76404	-180.63474	219.6909	301.87157	113.10013	-163.54767	-144.01959	-146.4606	0
513	-96.01306	-224.57292	-129.37353	157.85198	17.08707	-178.19373	229.45494	316.51763	127.74619	-158.66565	-141.57858	-146.4606	0
514	-93.57205	-222.13191	-129.37353	155.41097	17.08707	-175.75272	241.65999	331.16369	142.39225	-156.22464	-141.57858	-146.4606	0
515	-91.13104	-214.80888	-124.49151	150.52895	17.08707	-170.8707	253.86504	345.80975	157.03831	-156.22464	-141.57858	-151.34262	0
516	-81.367	-207.48585	-126.93252	143.20592	21.96909	-168.42969	268.5111	365.33783	179.0074	-156.22464	-141.57858	-153.78363	0
517	-66.72094	-192.83979	-126.93252	128.55986	29.29212	-161.10666	278.27514	389.74793	205.85851	-153.78363	-141.57858	-156.22464	0
518	-54.51589	-187.95777	-134.25555	118.79582	39.05616	-161.10666	285.59817	411.71702	230.26861	-151.34262	-144.01959	-156.22464	0
519	-54.51589	-192.83979	-139.13757	121.23683	41.49717	-165.98868	292.9212	433.68611	252.2377	-148.90161	-146.4606	-156.22464	0
520	-56.9569	-192.83979	-136.69656	123.67784	39.05616	-165.98868	297.80322	453.21419	271.76578	-144.01959	-141.57858	-153.78363	0
521	-54.51589	-195.2808	-141.57858	123.67784	43.93818	-168.42969	302.68524	472.74227	288.85285	-134.25555	-136.69656	-148.90161	0
522	-49.63387	-195.2808	-146.4606	121.23683	48.8202	-170.8707	310.00827	492.27035	305.93992	-122.0505	-124.49151	-136.69656	0
523	-44.75185	-185.51676	-141.57858	113.9138	48.8202	-163.54767	314.89029	504.4754	320.58598	-114.72747	-114.72747	-126.93252	0
524	-39.86983	-175.75272	-136.69656	106.59077	48.8202	-156.22464	324.65433	519.12146	337.67305	-107.40444	-107.40444	-119.60949	0
525	-34.98781	-173.31171	-139.13757	101.70875	51.26121	-156.22464	334.41837	533.76752	352.31911	-104.96343	-104.96343	-117.16848	0
526	-25.22377	-170.8707	-146.4606	96.82673	61.02525	-158.66565	346.62342	553.2956	371.84719	-102.52242	-102.52242	-117.16848	0
527	-13.01872	-163.54767	-151.34262	87.06269	68.34828	-158.66565	356.38746	575.26469	393.81628	-102.52242	-104.96343	-122.0505	0
528	-2.44101	-156.22464	-153.78363	77.29865	75.67131	-153.78363	366.1515	599.67479	418.22638	-100.08141	-107.40444	-126.93252	0
529	12.20505	-153.78363	-165.98868	69.97562	87.87636	-158.66565	378.35655	624.08489	442.63648	-92.75838	-109.84545	-134.25555	0
530	21.96909	-156.22464	-178.19373	65.0936	100.08141	-165.98868	388.12059	650.936	469.48759	-85.43535	-107.40444	-139.13757	0
531	31.73313	-158.66565	-190.39878	62.65259	109.84545	-173.31171	395.44362	675.3461	489.01567	-78.11232	-107.40444	-141.57858	0
532	34.17414	-161.10666	-195.2808	62.65259	114.72747	-178.19373	402.76665	699.7562	508.54375	-70.78929	-102.52242	-141.57858	0
533	29.29212	-163.54767	-192.83979	65.0936	109.84545	-178.19373	412.53069	719.28428	525.63082	-65.90727	-102.52242	-141.57858	0
534	26.85111	-163.54767	-190.39878	67.53461	107.40444	-175.75272	419.85372	736.37135	545.1589	-63.46626	-100.08141	-139.13757	0
535	24.4101	-156.22464	-180.63474	65.0936	102.52242	-168.42969	424.73574	755.89943	562.24597	-65.90727	-100.08141	-136.69656	0
536	24.4101	-148.90161	-173.31171	60.21158	97.6404	-161.10666	429.61776	777.86852	579.33304	-68.34828	-95.19939	-129.37353	0
537	24.4101	-146.4606	-170.8707	60.21158	97.6404	-158.66565	434.49978	802.27862	598.86112	-68.34828	-92.75838	-124.49151	0
538	29.29212	-141.57858	-170.8707	55.32956	100.08141	-156.22464	439.3818	829.12973	623.27122	-65.90727	-90.31737	-122.0505	0
539	39.05616	-141.57858	-180.63474	50.44754	109.84545	-161.10666	444.26382	853.53983	647.68132	-58.58424	-87.87636	-122.0505	0
540	46.37919	-144.01959	-190.39878	48.00653	117.16848	-165.98868	446.70483	877.94993	667.2094	-51.26121	-82.99434	-122.0505	0
541	51.26121	-148.90161	-200.16282	48.00653	124.49151	-173.31171	451.58685	902.36003	689.17849	-39.05616	-78.11232	-122.0505	0
542	58.58424	-151.34262	-209.92686	45.56552	134.25555	-180.63474	461.35089	924.32912	708.70657	-29.29212	-73.2303	-122.0505	0
543	68.34828	-139.13757	-207.48585	33.36047	136.69656	-173.31171	471.11493	943.8572	730.67566	-21.96909	-73.2303	-119.60949	0
544	78.11232	-129.37353	-207.48585	23.59643	141.57858	-168.42969	478.43796	960.94427	752.64475	-19.52808	-70.78929	-117.16848	0
545	82.99434	-117.16848	-200.16282	16.2734	141.57858	-158.66565	488.202	982.91336	772.17283	-13.83239	-65.90727	-114.72747	0
546	92.75838	-102.52242	-195.2808	3.25468	144.01959	-148.90161	497.96604	1002.44144	794.14192	-11.39138	-65.90727	-112.28646	0
547	107.40444	-87.87636	-195.2808	-11.39138	151.34262	-141.57858	505.28907	1029.29255	818.55202	-4.06835	-63.46626	-107.40444	0
548	119.60949	-78.11232	-197.72181	-21.15542	158.66565	-136.69656	512.6121	1053.70265	845.40313	3.25468	-61.02525	-102.52242	0
549	129.37353	-65.90727	-195.2808	-33.36047	161.10666	-129.37353	517.49412	1078.11275	869.81323	13.01872	-58.58424	-100.08141	0
550	136.69656	-53.70222	-190.39878	-43.12451	163.54767	-122.0505	522.37614	1097.64083	889.34131	20.34175	-58.58424	-104.96343	0
551	151.34262	-43.93818	-195.2808	-55.32956	173.31171	-119.60949	529.69917	1122.05093	911.3104	32.5468	-56.14323	-104.96343	0
552	165.98868	-34.17414	-200.16282	-67.53461	183.07575	-117.16848	537.0222	1139.138	930.83848	42.31084	-51.26121	-102.52242	0
553	178.19373	-19.52808	-197.72181	-79.73966	187.95777	-107.40444	544.34523	1153.78406	945.48454	52.07488	-46.37919	-97.6404	0
554	190.39878	-4.06835	-195.2808	-94.38572	192.83979	-100.08141	549.22725	1165.98911	962.57161	56.9569	-41.49717	-95.19939	0
555	195.2808	0.81367	-195.2808	-99.26774	195.2808	-97.6404	558.99129	1180.63517	979.65868	61.83892	-36.61515	-87.87636	0
556	207.48585	0.81367	-207.48585	-104.14976	207.48585	-102.52242	566.31432	1195.28123	996.74575	69.16195	-29.29212	-78.11232	0
557	214.80888	0.81367	-214.80888	-109.03178	214.80888	-107.40444	568.75533	1212.3683	1013.83282	74.04397	-24.4101	-68.34828	0
558	224.57292	8.1367	-217.24989	-116.35481	222.13191	-104.96343	568.75533	1222.13234	1026.03787	76.48498	-21.96909	-68.34828	0
559	234.33696	15.45973	-219.6909	-126.11885	227.01393	-102.52242	566.31432	1229.45537	1038.24292	81.367	-19.52808	-68.34828	0
560	244.101	20.34175	-224.57292	-133.44188	234.33696	-102.52242	566.31432	1236.7784	1050.44797	91.13104	-14.64606	-68.34828	0
561	253.86504	30.10579	-224.57292	-143.20592	239.21898	-97.6404	566.31432	1239.21941	1057.771	103.33609	-7.32303	-63.46626	0
562	253.86504	34.98781	-219.6909	-145.64693	236.77797	-92.75838	566.31432	1239.21941	1057.771	110.65912	-4.06835	-58.58424	0
563	253.86504	42.31084	-212.36787	-148.08794	234.33696	-85.43535	563.87331	1231.89638	1057.771	117.98215	0.81367	-53.70222	0
564	253.86504	47.19286	-207.48585	-150.52895	231.89595	-80.55333	563.87331	1222.13234	1057.771	122.86417	8.1367	-46.37919	0
565	244.101	49.63387	-195.2808	-148.08794	219.6909	-73.2303	563.87331	1209.92729	1050.44797	125.30518	15.45973	-39.05616	0
566	241.65999	47.19286	-195.2808	-145.64693	219.6909	-73.2303	561.4323	1202.60426	1045.56595	125.30518	17.90074	-31.73313	0
567	241.65999	47.19286	-195.2808	-145.64693	219.6909	-73.2303	554.10927	1192.84022	1038.24292	125.30518	20.34175	-26.85111	0
568	246.54201	44.75185	-202.60383	-145.64693	224.57292	-78.11232	549.22725	1183.07618	1030.91989	125.30518	25.22377	-21.96909	0
569	258.74706	49.63387	-209.92686	-155.41097	234.33696	-80.55333	539.46321	1165.98911	1018.71484	132.62821	27.66478	-19.52808	0
570	268.5111	56.9569	-212.36787	-162.734	241.65999	-78.11232	527.25816	1151.34305	1006.50979	137.51023	34.98781	-19.52808	0
571	275.83413	61.83892	-214.80888	-170.05703	246.54201	-75.67131	515.05311	1131.81497	991.86373	147.27427	37.42882	-17.08707	0
572	285.59817	71.60296	-214.80888	-179.82107	251.42403	-70.78929	505.28907	1107.40487	972.33565	154.5973	42.31084	-14.64606	0
573	288.03918	78.92599	-209.92686	-184.70309	248.98302	-65.90727	495.52503	1080.55376	952.80757	159.47932	47.19286	-12.20505	0
574	285.59817	91.13104	-195.2808	-189.58511	241.65999	-51.26121	488.202	1051.26164	933.27949	161.92033	47.19286	-9.76404	0
575	283.15716	108.21811	-175.75272	-196.90814	229.45494	-34.17414	483.31998	1024.41053	913.75141	164.36134	52.07488	-9.76404	0
576	275.83413	120.42316	-156.22464	-199.34915	217.24989	-17.08707	473.55594	995.11841	891.78232	164.36134	52.07488	-4.06835	0
577	263.62908	125.30518	-139.13757	-194.46713	202.60383	-7.32303	461.35089	968.2673	867.37222	164.36134	54.51589	0.81367	0
578	258.74706	127.74619	-131.81454	-194.46713	195.2808	-1.62734	449.14584	941.41619	842.96212	166.80235	56.9569	5.69569	0
579	256.30605	135.06922	-122.0505	-196.90814	190.39878	8.1367	432.05877	907.24205	813.67	169.24336	59.39791	8.1367	0
580	258.74706	142.39225	-117.16848	-201.79016	187.95777	13.01872	414.9717	873.06791	781.93687	171.68437	64.27993	15.45973	0
581	251.42403	142.39225	-109.84545	-196.90814	180.63474	17.90074	393.00261	834.01175	742.88071	176.56639	69.16195	22.78276	0
582	236.77797	130.1872	-107.40444	-184.70309	173.31171	13.01872	371.03352	790.07357	703.82455	176.56639	69.16195	22.78276	0
583	224.57292	120.42316	-104.96343	-172.49804	165.98868	8.1367	349.06443	741.25337	659.88637	171.68437	69.16195	22.78276	0
584	214.80888	125.30518	-90.31737	-170.05703	153.78363	17.90074	329.53635	692.43317	620.83021	164.36134	66.72094	20.34175	-1250	T-0
585	207.48585	127.74619	-80.55333	-167.61602	144.01959	25.22377	312.44928	646.05398	584.21506	159.47932	69.16195	22.78276	0
586	192.83979	115.54114	-78.11232	-155.41097	136.69656	20.34175	290.48019	599.67479	547.59991	149.71528	66.72094	20.34175	0
587	180.63474	103.33609	-78.11232	-143.20592	129.37353	13.01872	268.5111	555.73661	508.54375	139.95124	59.39791	15.45973	0
588	170.8707	96.01306	-75.67131	-133.44188	124.49151	10.57771	244.101	514.23944	474.36961	132.62821	54.51589	13.01872	0
589	170.8707	98.45407	-73.2303	-135.88289	122.0505	13.01872	219.6909	472.74227	437.75446	130.1872	52.07488	17.90074	0
590	165.98868	100.89508	-65.90727	-133.44188	117.16848	17.90074	200.16282	433.68611	403.58032	130.1872	56.9569	22.78276	0
591	156.22464	93.57205	-63.46626	-126.11885	109.84545	15.45973	180.63474	394.62995	366.96517	132.62821	61.83892	27.66478	0
592	151.34262	91.13104	-61.02525	-121.23683	107.40444	15.45973	163.54767	353.13278	327.90901	132.62821	66.72094	32.5468	0
593	144.01959	96.01306	-48.8202	-121.23683	97.6404	25.22377	146.4606	309.1946	288.85285	130.1872	66.72094	37.42882	0
594	134.25555	98.45407	-36.61515	-116.35481	85.43535	32.5468	131.81454	262.81541	254.67871	122.86417	66.72094	39.86983	0
595	122.0505	96.01306	-26.85111	-109.03178	75.67131	34.98781	114.72747	221.31824	218.06356	110.65912	61.83892	34.98781	0
596	104.96343	86.24902	-19.52808	-96.82673	63.46626	34.98781	95.19939	177.38006	183.88942	93.57205	52.07488	30.10579	0
597	87.87636	71.60296	-17.08707	-79.73966	53.70222	27.66478	74.85764	138.3239	149.71528	74.04397	39.86983	20.34175	0
598	75.67131	59.39791	-17.08707	-67.53461	46.37919	22.78276	52.88855	104.14976	120.42316	56.9569	25.22377	10.57771	0
599	63.46626	49.63387	-14.64606	-57.77057	39.05616	17.90074	33.36047	72.41663	91.13104	47.19286	15.45973	0.81367	0
600	56.14323	39.86983	-17.08707	-48.00653	36.61515	13.01872	16.2734	48.00653	66.72094	42.31084	15.45973	0.81367	0
601	58.58424	37.42882	-21.96909	-48.00653	41.49717	8.1367	4.06835	23.59643	42.31084	44.75185	17.90074	3.25468	0
602	63.46626	42.31084	-21.96909	-52.88855	43.93818	10.57771	-5.69569	-0.81367	20.34175	44.75185	20.34175	8.1367	0
603	70.78929	44.75185	-26.85111	-57.77057	48.8202	10.57771	-10.57771	-25.22377	-4.06835	47.19286	22.78276	15.45973	0
604	70.78929	47.19286	-24.4101	-60.21158	48.8202	13.01872	-15.45973	-52.07488	-26.03744	42.31084	22.78276	15.45973	0
605	65.90727	42.31084	-24.4101	-55.32956	46.37919	10.57771	-20.34175	-78.92599	-48.00653	34.98781	20.34175	13.01872	0
606	53.70222	37.42882	-17.08707	-45.56552	36.61515	10.57771	-30.10579	-104.14976	-69.97562	20.34175	10.57771	8.1367	0
607	41.49717	27.66478	-14.64606	-35.80148	29.29212	8.1367	-37.42882	-123.67784	-89.5037	10.57771	3.25468	0.81367	0
608	24.4101	8.1367	-17.08707	-16.2734	21.96909	-4.06835	-42.31084	-138.3239	-101.70875	3.25468	-4.06835	-1.62734	0
609	12.20505	-4.06835	-17.08707	-4.06835	14.64606	-9.76404	-49.63387	-150.52895	-112.28646	0.81367	-7.32303	-4.06835	0
610	7.32303	-6.50936	-14.64606	-1.62734	12.20505	-9.76404	-56.9569	-160.29299	-122.0505	0.81367	-7.32303	-1.62734	0
611	2.44101	-4.06835	-7.32303	0.81367	4.88202	-4.06835	-61.83892	-167.61602	-131.81454	5.69569	-4.06835	0.81367	0
612	-2.44101	-9.76404	-7.32303	5.69569	2.44101	-7.32303	-66.72094	-177.38006	-141.57858	8.1367	0.81367	5.69569	0
613	-5.69569	-12.20505	-7.32303	5.69569	-0.81367	-9.76404	-66.72094	-189.58511	-153.78363	8.1367	0.81367	10.57771	0
614	-8.1367	-14.64606	-7.32303	8.95037	-0.81367	-12.20505	-69.16195	-204.23117	-163.54767	3.25468	-1.62734	10.57771	0
615	-10.57771	-14.64606	-4.88202	11.39138	-3.25468	-9.76404	-69.16195	-213.99521	-173.31171	-6.50936	-7.32303	8.1367	0
616	-22.78276	-26.85111	-4.88202	23.59643	-10.57771	-17.08707	-71.60296	-223.75925	-180.63474	-16.2734	-12.20505	3.25468	0
617	-34.98781	-46.37919	-12.20505	38.24249	-13.01872	-29.29212	-78.92599	-231.08228	-185.51676	-24.4101	-17.08707	0.81367	0
618	-39.86983	-63.46626	-24.4101	50.44754	-8.1367	-43.93818	-83.80801	-233.52329	-187.95777	-26.85111	-21.96909	0.81367	0
619	-34.98781	-70.78929	-36.61515	50.44754	-0.81367	-53.70222	-91.13104	-233.52329	-187.95777	-24.4101	-21.96909	0.81367	0
620	-34.98781	-75.67131	-41.49717	52.88855	2.44101	-58.58424	-98.45407	-235.9643	-187.95777	-21.96909	-17.08707	0.81367	0
621	-39.86983	-75.67131	-36.61515	55.32956	-3.25468	-56.14323	-108.21811	-240.84632	-192.83979	-16.2734	-14.64606	0.81367	0
622	-37.42882	-68.34828	-31.73313	50.44754	-3.25468	-51.26121	-115.54114	-248.16935	-197.72181	-13.83239	-12.20505	0.81367	0
623	-42.31084	-68.34828	-26.85111	52.88855	-8.1367	-48.8202	-117.98215	-255.49238	-205.04484	-13.83239	-12.20505	-1.62734	0
624	-47.19286	-65.90727	-19.52808	55.32956	-15.45973	-43.93818	-117.98215	-262.81541	-207.48585	-19.52808	-14.64606	-4.06835	0
625	-56.9569	-68.34828	-12.20505	60.21158	-22.78276	-41.49717	-113.10013	-265.25642	-209.92686	-24.4101	-17.08707	-6.50936	0
626	-64.27993	-70.78929	-7.32303	65.0936	-30.10579	-39.05616	-113.10013	-267.69743	-209.92686	-31.73313	-21.96909	-9.76404	0
627	-61.83892	-70.78929	-9.76404	65.0936	-27.66478	-41.49717	-113.10013	-265.25642	-207.48585	-41.49717	-29.29212	-14.64606	0
628	-59.39791	-70.78929	-12.20505	62.65259	-25.22377	-41.49717	-110.65912	-257.93339	-202.60383	-43.93818	-34.17414	-14.64606	0
629	-49.63387	-68.34828	-19.52808	57.77057	-15.45973	-43.93818	-110.65912	-253.05137	-200.16282	-41.49717	-36.61515	-17.08707	0
630	-37.42882	-58.58424	-21.96909	45.56552	-8.1367	-41.49717	-108.21811	-245.72834	-195.2808	-36.61515	-31.73313	-14.64606	0
631	-32.5468	-48.8202	-17.08707	38.24249	-8.1367	-34.17414	-108.21811	-243.28733	-192.83979	-29.29212	-29.29212	-12.20505	0
632	-27.66478	-36.61515	-9.76404	30.91946	-10.57771	-24.4101	-110.65912	-245.72834	-197.72181	-26.85111	-29.29212	-14.64606	0
633	-32.5468	-31.73313	0.81367	30.91946	-17.90074	-17.08707	-110.65912	-253.05137	-205.04484	-24.4101	-29.29212	-19.52808	0
634	-42.31084	-34.17414	8.1367	35.80148	-25.22377	-14.64606	-110.65912	-262.81541	-207.48585	-26.85111	-29.29212	-19.52808	0
635	-54.51589	-41.49717	13.01872	45.56552	-34.98781	-14.64606	-105.7771	-265.25642	-209.92686	-29.29212	-26.85111	-14.64606	0
636	-61.83892	-43.93818	17.90074	50.44754	-39.86983	-14.64606	-103.33609	-267.69743	-207.48585	-36.61515	-26.85111	-14.64606	0
637	-61.83892	-43.93818	17.90074	50.44754	-39.86983	-14.64606	-103.33609	-267.69743	-207.48585	-41.49717	-29.29212	-14.64606	0
638	-59.39791	-41.49717	17.90074	48.00653	-39.86983	-12.20505	-103.33609	-262.81541	-207.48585	-48.8202	-31.73313	-17.08707	0
639	-54.51589	-39.05616	15.45973	45.56552	-34.98781	-12.20505	-105.7771	-260.3744	-207.48585	-48.8202	-31.73313	-17.08707	0
640	-47.19286	-34.17414	13.01872	38.24249	-30.10579	-12.20505	-108.21811	-257.93339	-209.92686	-46.37919	-29.29212	-17.08707	0
641	-39.86983	-29.29212	10.57771	33.36047	-25.22377	-9.76404	-113.10013	-260.3744	-214.80888	-46.37919	-29.29212	-19.52808	0
642	-34.98781	-24.4101	10.57771	28.47845	-22.78276	-7.32303	-120.42316	-265.25642	-224.57292	-46.37919	-34.17414	-24.4101	0
643	-34.98781	-14.64606	20.34175	23.59643	-27.66478	3.25468	-125.30518	-275.02046	-236.77797	-48.8202	-34.17414	-24.4101	0
644	-39.86983	-12.20505	27.66478	23.59643	-34.98781	8.1367	-125.30518	-282.34349	-239.21898	-48.8202	-31.73313	-19.52808	0
645	-39.86983	-9.76404	30.10579	23.59643	-34.98781	10.57771	-125.30518	-284.7845	-239.21898	-48.8202	-26.85111	-12.20505	0
646	-37.42882	-1.62734	34.98781	18.71441	-34.98781	15.45973	-117.98215	-282.34349	-231.89595	-48.8202	-21.96909	-4.06835	0
647	-37.42882	0.81367	37.42882	16.2734	-37.42882	17.90074	-113.10013	-277.46147	-227.01393	-46.37919	-17.08707	3.25468	0
648	-37.42882	5.69569	42.31084	13.83239	-39.86983	22.78276	-108.21811	-270.13844	-224.57292	-43.93818	-14.64606	10.57771	0
649	-42.31084	10.57771	52.07488	13.83239	-47.19286	30.10579	-108.21811	-270.13844	-224.57292	-41.49717	-14.64606	10.57771	0
650	-42.31084	10.57771	52.07488	13.83239	-47.19286	30.10579	-108.21811	-267.69743	-227.01393	-41.49717	-14.64606	10.57771	0
651	-42.31084	15.45973	56.9569	11.39138	-49.63387	34.98781	-108.21811	-270.13844	-234.33696	-39.05616	-17.08707	0.81367	0
652	-42.31084	13.01872	54.51589	13.83239	-47.19286	32.5468	-110.65912	-275.02046	-241.65999	-39.05616	-19.52808	-6.50936	0
653	-49.63387	3.25468	52.07488	21.15542	-49.63387	27.66478	-113.10013	-282.34349	-251.42403	-39.05616	-21.96909	-9.76404	0
654	-52.07488	-4.06835	47.19286	26.03744	-49.63387	20.34175	-113.10013	-292.10753	-253.86504	-39.05616	-19.52808	-9.76404	0
655	-54.51589	-9.76404	44.75185	30.91946	-49.63387	17.90074	-113.10013	-294.54854	-253.86504	-39.05616	-19.52808	-9.76404	0
656	-52.07488	-6.50936	44.75185	28.47845	-47.19286	17.90074	-110.65912	-294.54854	-246.54201	-41.49717	-19.52808	-9.76404	0
657	-52.07488	-6.50936	44.75185	28.47845	-47.19286	17.90074	-110.65912	-289.66652	-241.65999	-39.05616	-17.08707	-4.06835	0
658	-49.63387	-12.20505	37.42882	28.47845	-44.75185	13.01872	-113.10013	-284.7845	-239.21898	-34.17414	-12.20505	5.69569	0
659	-44.75185	-9.76404	34.98781	26.03744	-39.86983	13.01872	-117.98215	-284.7845	-236.77797	-29.29212	-9.76404	10.57771	0
660	-37.42882	3.25468	39.86983	16.2734	-37.42882	20.34175	-122.86417	-284.7845	-236.77797	-26.85111	-9.76404	8.1367	0
661	-37.42882	13.01872	49.63387	11.39138	-42.31084	30.10579	-125.30518	-287.22551	-241.65999	-24.4101	-9.76404	5.69569	0
662	-39.86983	10.57771	49.63387	13.83239	-44.75185	30.10579	-122.86417	-289.66652	-246.54201	-19.52808	-9.76404	5.69569	0
663	-49.63387	3.25468	52.07488	21.15542	-49.63387	27.66478	-120.42316	-294.54854	-251.42403	-19.52808	-7.32303	5.69569	0
664	-56.9569	0.81367	56.9569	26.03744	-56.9569	27.66478	-113.10013	-301.87157	-253.86504	-21.96909	-9.76404	5.69569	0
665	-61.83892	5.69569	66.72094	26.03744	-64.27993	34.98781	-105.7771	-304.31258	-253.86504	-26.85111	-12.20505	3.25468	0
666	-66.72094	15.45973	81.367	23.59643	-74.04397	47.19286	-100.89508	-301.87157	-246.54201	-26.85111	-12.20505	5.69569	0
667	-66.72094	17.90074	83.80801	23.59643	-74.04397	49.63387	-98.45407	-296.98955	-241.65999	-29.29212	-12.20505	10.57771	0
668	-59.39791	20.34175	78.92599	18.71441	-69.16195	49.63387	-96.01306	-289.66652	-236.77797	-26.85111	-7.32303	17.90074	0
669	-49.63387	27.66478	76.48498	8.95037	-61.83892	52.07488	-98.45407	-287.22551	-231.89595	-21.96909	-7.32303	20.34175	0
670	-39.86983	42.31084	81.367	-1.62734	-59.39791	61.83892	-98.45407	-284.7845	-229.45494	-16.2734	-4.06835	20.34175	0
671	-32.5468	56.9569	88.69003	-13.83239	-59.39791	71.60296	-100.89508	-282.34349	-229.45494	-8.95037	0.81367	22.78276	0
672	-27.66478	69.16195	96.01306	-21.15542	-61.83892	81.367	-100.89508	-284.7845	-234.33696	-4.06835	3.25468	22.78276	0
673	-27.66478	71.60296	98.45407	-23.59643	-61.83892	83.80801	-98.45407	-289.66652	-239.21898	-1.62734	3.25468	20.34175	0
674	-30.10579	76.48498	105.7771	-23.59643	-66.72094	91.13104	-91.13104	-294.54854	-239.21898	-1.62734	0.81367	20.34175	0
675	-30.10579	81.367	110.65912	-26.03744	-69.16195	96.01306	-83.80801	-294.54854	-236.77797	-1.62734	0.81367	22.78276	0
676	-25.22377	88.69003	113.10013	-33.36047	-69.16195	100.89508	-74.04397	-289.66652	-229.45494	-4.06835	3.25468	27.66478	0
677	-17.90074	91.13104	108.21811	-38.24249	-61.83892	98.45407	-71.60296	-282.34349	-224.57292	-4.06835	3.25468	30.10579	0
678	-10.57771	86.24902	96.01306	-38.24249	-52.07488	91.13104	-64.27993	-270.13844	-217.24989	-4.06835	3.25468	30.10579	0
679	-5.69569	81.367	86.24902	-38.24249	-44.75185	83.80801	-59.39791	-260.3744	-209.92686	0.81367	5.69569	34.98781	0
680	4.88202	81.367	76.48498	-43.12451	-34.98781	78.92599	-59.39791	-250.61036	-205.04484	3.25468	8.1367	32.5468	0
681	12.20505	86.24902	74.04397	-50.44754	-30.10579	81.367	-59.39791	-248.16935	-205.04484	5.69569	5.69569	27.66478	0
682	12.20505	91.13104	78.92599	-52.88855	-32.5468	86.24902	-61.83892	-250.61036	-209.92686	5.69569	0.81367	17.90074	0
683	9.76404	96.01306	86.24902	-52.88855	-37.42882	91.13104	-56.9569	-250.61036	-214.80888	8.1367	-4.06835	13.01872	0
684	4.88202	108.21811	103.33609	-57.77057	-49.63387	105.7771	-52.07488	-255.49238	-214.80888	5.69569	-4.06835	10.57771	0
685	2.44101	120.42316	117.98215	-62.65259	-56.9569	120.42316	-49.63387	-257.93339	-209.92686	3.25468	-4.06835	10.57771	0
686	0	130.1872	130.1872	-65.0936	-64.27993	130.1872	-47.19286	-255.49238	-202.60383	0.81367	-7.32303	10.57771	0
687	7.32303	139.95124	132.62821	-74.85764	-61.83892	137.51023	-47.19286	-250.61036	-195.2808	5.69569	0.81367	17.90074	0
688	14.64606	147.27427	132.62821	-82.18067	-59.39791	139.95124	-49.63387	-243.28733	-187.95777	10.57771	5.69569	30.10579	0
689	26.85111	152.15629	125.30518	-89.5037	-49.63387	139.95124	-59.39791	-243.28733	-185.51676	17.90074	13.01872	39.86983	0
690	31.73313	149.71528	117.98215	-91.94471	-42.31084	135.06922	-69.16195	-245.72834	-187.95777	20.34175	17.90074	44.75185	0
691	34.17414	139.95124	105.7771	-87.06269	-34.98781	122.86417	-76.48498	-253.05137	-195.2808	25.22377	22.78276	49.63387	0
692	39.05616	130.1872	91.13104	-84.62168	-25.22377	110.65912	-83.80801	-262.81541	-207.48585	27.66478	22.78276	49.63387	0
693	26.85111	120.42316	93.57205	-74.85764	-32.5468	108.21811	-91.13104	-275.02046	-219.6909	22.78276	20.34175	44.75185	0
694	17.08707	113.10013	96.01306	-65.0936	-39.86983	105.7771	-93.57205	-289.66652	-229.45494	20.34175	20.34175	42.31084	0
695	12.20505	105.7771	93.57205	-60.21158	-39.86983	100.89508	-93.57205	-294.54854	-229.45494	17.90074	22.78276	42.31084	0
696	7.32303	100.89508	93.57205	-55.32956	-42.31084	98.45407	-86.24902	-294.54854	-224.57292	15.45973	22.78276	44.75185	0
697	14.64606	108.21811	93.57205	-62.65259	-39.86983	100.89508	-81.367	-289.66652	-217.24989	17.90074	25.22377	49.63387	0
698	21.96909	122.86417	100.89508	-72.41663	-39.86983	113.10013	-81.367	-284.7845	-214.80888	20.34175	25.22377	52.07488	0
699	24.4101	125.30518	100.89508	-74.85764	-37.42882	113.10013	-81.367	-284.7845	-209.92686	25.22377	32.5468	59.39791	0
700	34.17414	122.86417	88.69003	-79.73966	-27.66478	105.7771	-81.367	-279.90248	-207.48585	32.5468	37.42882	64.27993	0
701	36.61515	120.42316	83.80801	-79.73966	-22.78276	103.33609	-86.24902	-282.34349	-212.36787	37.42882	42.31084	66.72094	0
702	36.61515	120.42316	83.80801	-79.73966	-22.78276	103.33609	-88.69003	-289.66652	-222.13191	34.98781	39.86983	61.83892	0
703	34.17414	113.10013	78.92599	-74.85764	-22.78276	96.01306	-93.57205	-296.98955	-234.33696	34.98781	37.42882	56.9569	0
704	29.29212	100.89508	71.60296	-65.0936	-20.34175	86.24902	-96.01306	-306.75359	-239.21898	27.66478	32.5468	49.63387	0
705	24.4101	96.01306	71.60296	-60.21158	-22.78276	83.80801	-96.01306	-309.1946	-239.21898	17.90074	27.66478	42.31084	0
706	21.96909	103.33609	81.367	-62.65259	-30.10579	93.57205	-93.57205	-311.63561	-239.21898	5.69569	17.90074	34.98781	0
707	21.96909	105.7771	83.80801	-65.0936	-30.10579	96.01306	-93.57205	-306.75359	-236.77797	3.25468	10.57771	30.10579	0
708	17.08707	91.13104	74.04397	-55.32956	-27.66478	83.80801	-91.13104	-299.43056	-231.89595	-1.62734	5.69569	27.66478	0
709	7.32303	81.367	74.04397	-45.56552	-32.5468	78.92599	-91.13104	-296.98955	-231.89595	-4.06835	0.81367	25.22377	0
710	-2.44101	71.60296	74.04397	-35.80148	-37.42882	74.04397	-93.57205	-296.98955	-231.89595	-6.50936	-1.62734	22.78276	0
711	-10.57771	54.51589	64.27993	-23.59643	-37.42882	59.39791	-96.01306	-294.54854	-234.33696	-6.50936	-4.06835	20.34175	0
712	-10.57771	37.42882	47.19286	-13.83239	-27.66478	42.31084	-96.01306	-294.54854	-239.21898	-4.06835	0.81367	25.22377	0
713	-15.45973	20.34175	34.98781	-4.06835	-25.22377	27.66478	-93.57205	-301.87157	-246.54201	-6.50936	0.81367	27.66478	0
714	-25.22377	10.57771	34.98781	5.69569	-30.10579	22.78276	-91.13104	-311.63561	-251.42403	-16.2734	-4.06835	25.22377	0
715	-27.66478	8.1367	34.98781	8.95037	-30.10579	20.34175	-91.13104	-316.51763	-251.42403	-19.52808	-4.06835	25.22377	0
716	-25.22377	3.25468	27.66478	8.95037	-25.22377	15.45973	-91.13104	-316.51763	-248.98302	-26.85111	-7.32303	25.22377	0
717	-22.78276	-1.62734	20.34175	11.39138	-20.34175	8.1367	-91.13104	-316.51763	-246.54201	-26.85111	-7.32303	27.66478	0
718	-22.78276	-6.50936	15.45973	13.83239	-17.90074	3.25468	-91.13104	-314.07662	-244.101	-31.73313	-7.32303	25.22377	0
719	-25.22377	-9.76404	15.45973	16.2734	-20.34175	3.25468	-93.57205	-314.07662	-244.101	-31.73313	-9.76404	22.78276	0
720	-22.78276	-9.76404	13.01872	13.83239	-17.90074	0.81367	-98.45407	-314.07662	-246.54201	-31.73313	-9.76404	17.90074	0
721	-17.90074	-9.76404	8.1367	11.39138	-13.01872	-1.62734	-100.89508	-316.51763	-256.30605	-31.73313	-12.20505	13.01872	0
722	-17.90074	-9.76404	8.1367	11.39138	-13.01872	-1.62734	-100.89508	-321.39965	-266.07009	-34.17414	-17.08707	5.69569	0
723	-17.90074	-9.76404	8.1367	11.39138	-13.01872	-1.62734	-96.01306	-328.72268	-275.83413	-39.05616	-21.96909	0.81367	0
724	-25.22377	-9.76404	15.45973	16.2734	-20.34175	3.25468	-96.01306	-336.04571	-280.71615	-41.49717	-24.4101	-4.06835	0
725	-32.5468	-14.64606	17.90074	21.15542	-25.22377	0.81367	-93.57205	-336.04571	-283.15716	-41.49717	-24.4101	-4.06835	0
726	-42.31084	-21.96909	20.34175	30.91946	-32.5468	-1.62734	-98.45407	-340.92773	-285.59817	-48.8202	-29.29212	-4.06835	0
727	-44.75185	-26.85111	17.90074	33.36047	-32.5468	-4.06835	-100.89508	-338.48672	-280.71615	-46.37919	-24.4101	0.81367	0
728	-44.75185	-26.85111	17.90074	33.36047	-32.5468	-4.06835	-105.7771	-338.48672	-280.71615	-43.93818	-19.52808	10.57771	0
729	-44.75185	-29.29212	15.45973	35.80148	-30.10579	-7.32303	-115.54114	-338.48672	-278.27514	-41.49717	-17.08707	13.01872	0
730	-52.07488	-36.61515	15.45973	43.12451	-34.98781	-12.20505	-125.30518	-338.48672	-280.71615	-41.49717	-14.64606	13.01872	0
731	-59.39791	-53.70222	5.69569	55.32956	-32.5468	-24.4101	-130.1872	-338.48672	-285.59817	-41.49717	-14.64606	13.01872	0
732	-61.83892	-63.46626	-1.62734	60.21158	-30.10579	-34.17414	-132.62821	-340.92773	-292.9212	-46.37919	-19.52808	13.01872	0
733	-64.27993	-70.78929	-7.32303	65.0936	-30.10579	-39.05616	-130.1872	-345.80975	-297.80322	-51.26121	-21.96909	10.57771	0
734	-69.16195	-78.11232	-9.76404	72.41663	-30.10579	-43.93818	-125.30518	-350.69177	-302.68524	-56.14323	-26.85111	5.69569	0
735	-71.60296	-90.31737	-19.52808	79.73966	-27.66478	-56.14323	-122.86417	-350.69177	-300.24423	-58.58424	-26.85111	3.25468	0
736	-66.72094	-95.19939	-29.29212	79.73966	-20.34175	-63.46626	-117.98215	-350.69177	-295.36221	-58.58424	-26.85111	3.25468	0
737	-59.39791	-87.87636	-29.29212	72.41663	-15.45973	-58.58424	-117.98215	-350.69177	-292.9212	-61.02525	-31.73313	3.25468	0
738	-47.19286	-73.2303	-26.85111	57.77057	-10.57771	-51.26121	-120.42316	-350.69177	-290.48019	-63.46626	-36.61515	0.81367	0
739	-39.86983	-63.46626	-24.4101	50.44754	-8.1367	-43.93818	-125.30518	-350.69177	-285.59817	-61.02525	-36.61515	-1.62734	0
740	-44.75185	-61.02525	-17.08707	50.44754	-15.45973	-39.05616	-127.74619	-348.25076	-283.15716	-61.02525	-39.05616	-6.50936	0
741	-49.63387	-58.58424	-9.76404	52.88855	-20.34175	-34.17414	-132.62821	-350.69177	-285.59817	-63.46626	-43.93818	-6.50936	0
742	-56.9569	-58.58424	-1.62734	55.32956	-27.66478	-31.73313	-135.06922	-355.57379	-292.9212	-68.34828	-48.8202	-9.76404	0
743	-61.83892	-63.46626	-1.62734	60.21158	-30.10579	-34.17414	-135.06922	-360.45581	-297.80322	-70.78929	-51.26121	-9.76404	0
744	-66.72094	-65.90727	0.81367	65.0936	-34.98781	-34.17414	-130.1872	-360.45581	-295.36221	-68.34828	-46.37919	-6.50936	0
745	-74.04397	-70.78929	3.25468	69.97562	-39.86983	-34.17414	-130.1872	-362.89682	-295.36221	-68.34828	-41.49717	-1.62734	0
746	-76.48498	-75.67131	0.81367	74.85764	-39.86983	-39.05616	-130.1872	-362.89682	-295.36221	-70.78929	-41.49717	3.25468	0
747	-74.04397	-80.55333	-7.32303	74.85764	-34.98781	-43.93818	-127.74619	-362.89682	-292.9212	-73.2303	-48.8202	0.81367	0
748	-74.04397	-87.87636	-14.64606	79.73966	-30.10579	-51.26121	-120.42316	-355.57379	-288.03918	-75.67131	-51.26121	-1.62734	0
749	-71.60296	-80.55333	-9.76404	74.85764	-32.5468	-46.37919	-113.10013	-348.25076	-283.15716	-80.55333	-56.14323	-4.06835	0
750	-66.72094	-75.67131	-9.76404	69.97562	-30.10579	-43.93818	-105.7771	-338.48672	-280.71615	-82.99434	-58.58424	-9.76404	0
751	-61.83892	-75.67131	-14.64606	67.53461	-25.22377	-46.37919	-93.57205	-326.28167	-280.71615	-85.43535	-65.90727	-14.64606	0
752	-56.9569	-78.11232	-21.96909	65.0936	-17.90074	-51.26121	-78.92599	-311.63561	-275.83413	-90.31737	-70.78929	-21.96909	0
753	-54.51589	-78.11232	-24.4101	65.0936	-15.45973	-51.26121	-61.83892	-299.43056	-270.95211	-92.75838	-73.2303	-26.85111	0
754	-49.63387	-73.2303	-24.4101	60.21158	-13.01872	-48.8202	-44.75185	-287.22551	-261.18807	-95.19939	-73.2303	-26.85111	0
755	-49.63387	-68.34828	-19.52808	57.77057	-15.45973	-43.93818	-32.5468	-275.02046	-248.98302	-95.19939	-73.2303	-29.29212	0
756	-49.63387	-80.55333	-31.73313	62.65259	-10.57771	-56.14323	-17.90074	-260.3744	-234.33696	-90.31737	-73.2303	-29.29212	0
757	-47.19286	-90.31737	-43.93818	67.53461	-3.25468	-68.34828	-10.57771	-245.72834	-214.80888	-82.99434	-68.34828	-21.96909	0
758	-32.5468	-97.6404	-65.90727	62.65259	17.08707	-82.99434	-15.45973	-226.20026	-195.2808	-73.2303	-63.46626	-17.08707	0
759	-10.57771	-107.40444	-97.6404	57.77057	43.93818	-102.52242	-25.22377	-204.23117	-168.42969	-56.14323	-53.70222	-14.64606	0
760	24.4101	-114.72747	-139.13757	43.12451	80.55333	-126.93252	-39.86983	-170.05703	-131.81454	-29.29212	-36.61515	-4.06835	0
761	75.67131	-124.49151	-200.16282	23.59643	136.69656	-161.10666	-66.72094	-138.3239	-89.5037	5.69569	-14.64606	13.01872	0
762	139.13757	-126.93252	-266.07009	-6.50936	202.60383	-195.2808	-108.21811	-116.35481	-38.24249	54.51589	17.90074	39.86983	0
763	217.24989	-107.40444	-324.65433	-55.32956	270.95211	-214.80888	-171.68437	-116.35481	5.69569	108.21811	54.51589	66.72094	0
764	295.36221	-68.34828	-363.71049	-113.9138	329.53635	-214.80888	-249.79669	-143.20592	47.19286	171.68437	100.89508	103.33609	0
765	371.03352	-9.76404	-380.79756	-182.26208	375.91554	-195.2808	-352.31911	-199.34915	83.80801	249.79669	159.47932	149.71528	0
766	456.46887	78.92599	-378.35655	-267.69743	417.41271	-148.90161	-479.25163	-287.22551	115.54114	344.99608	230.26861	210.74053	0
767	537.0222	183.88942	-353.94645	-360.45581	446.70483	-85.43535	-618.3892	-404.39399	135.06922	445.07749	308.38093	274.20679	0
768	605.37048	303.49891	-302.68524	-455.6552	454.02786	0.81367	-767.29081	-541.09055	144.83326	550.04092	388.93426	342.55507	0
769	656.63169	432.87244	-224.57292	-545.97257	441.82281	105.7771	-928.39747	-702.19721	135.06922	655.00435	471.9286	410.90335	0
770	683.4828	540.27688	-144.01959	-611.87984	414.9717	198.53548	-1082.1811	-855.98084	120.42316	747.76273	547.59991	474.36961	0
771	683.4828	613.50718	-70.78929	-648.49499	378.35655	271.76578	-1206.67261	-987.79538	93.57205	808.78798	601.30213	523.18981	0
772	654.19068	642.7993	-12.20505	-648.49499	334.41837	315.70396	-1296.98998	-1104.96386	44.75185	828.31606	623.27122	547.59991	0
773	588.28341	620.83021	32.5468	-604.55681	278.27514	327.90901	-1358.01523	-1205.04527	-38.24249	796.58293	611.06617	542.71789	0
774	500.40705	557.36395	56.9569	-528.8855	222.13191	308.38093	-1387.30735	-1295.36264	-148.90161	718.47061	567.12799	515.86678	0
775	395.44362	459.72355	64.27993	-428.80409	165.98868	262.00174	-1384.86634	-1358.8289	-283.15716	601.30213	496.3387	471.9286	0
776	288.03918	342.55507	54.51589	-316.51763	117.16848	198.53548	-1353.13321	-1400.32607	-429.61776	459.72355	403.58032	410.90335	0
777	180.63474	225.38659	44.75185	-204.23117	68.34828	135.06922	-1304.31301	-1432.0592	-576.07836	315.70396	310.82194	342.55507	0
778	85.43535	122.86417	37.42882	-104.14976	24.4101	81.367	-1250.61079	-1451.58728	-712.77492	181.44841	220.50457	276.6478	0
779	-2.44101	34.98781	37.42882	-16.2734	-20.34175	37.42882	-1192.02655	-1451.58728	-820.17936	69.16195	142.39225	218.06356	0
780	-76.48498	-31.73313	44.75185	52.88855	-61.83892	5.69569	-1126.11928	-1427.17718	-893.40966	-21.96909	76.48498	161.92033	0
781	-132.62821	-85.43535	47.19286	106.59077	-91.13104	-19.52808	-1052.88898	-1380.79799	-927.5838	-90.31737	17.90074	110.65912	0
782	-174.12538	-126.93252	47.19286	148.08794	-110.65912	-41.49717	-965.01262	-1305.12668	-927.5838	-141.57858	-29.29212	66.72094	0
783	-198.53548	-163.54767	34.98781	179.82107	-117.98215	-65.90727	-864.93121	-1205.04527	-893.40966	-180.63474	-68.34828	30.10579	0
784	-215.62255	-202.60383	13.01872	206.67218	-115.54114	-95.19939	-757.52677	-1090.3178	-837.26643	-212.36787	-102.52242	-4.06835	0
785	-220.50457	-234.33696	-14.64606	226.20026	-103.33609	-124.49151	-647.68132	-968.2673	-773.80017	-234.33696	-126.93252	-31.73313	0
786	-222.94558	-266.07009	-43.93818	243.28733	-91.13104	-156.22464	-540.27688	-843.77579	-705.45189	-251.42403	-148.90161	-53.70222	0
787	-218.06356	-290.48019	-73.2303	253.05137	-74.04397	-183.07575	-437.75446	-721.72529	-629.78058	-253.86504	-158.66565	-65.90727	0
788	-210.74053	-310.00827	-100.08141	257.93339	-56.9569	-205.04484	-344.99608	-606.99782	-554.10927	-253.86504	-163.54767	-73.2303	0
789	-203.4175	-314.89029	-112.28646	257.93339	-47.19286	-214.80888	-269.32477	-509.35742	-483.31998	-246.54201	-165.98868	-80.55333	0
790	-193.65346	-307.56726	-114.72747	248.16935	-39.86983	-212.36787	-205.85851	-421.48106	-419.85372	-239.21898	-165.98868	-80.55333	0
791	-183.88942	-297.80322	-114.72747	238.40531	-34.98781	-207.48585	-149.71528	-348.25076	-363.71049	-227.01393	-161.10666	-78.11232	0
792	-174.12538	-285.59817	-112.28646	228.64127	-32.5468	-200.16282	-100.89508	-279.90248	-307.56726	-214.80888	-153.78363	-75.67131	0
793	-161.92033	-268.5111	-107.40444	213.99521	-27.66478	-187.95777	-56.9569	-223.75925	-261.18807	-207.48585	-151.34262	-75.67131	0
794	-149.71528	-246.54201	-97.6404	196.90814	-27.66478	-173.31171	-17.90074	-172.49804	-217.24989	-202.60383	-148.90161	-78.11232	0
795	-142.39225	-227.01393	-85.43535	182.26208	-30.10579	-156.22464	13.83239	-126.11885	-178.19373	-200.16282	-146.4606	-78.11232	0
796	-132.62821	-219.6909	-87.87636	174.93905	-22.78276	-153.78363	43.12451	-86.24902	-144.01959	-197.72181	-146.4606	-80.55333	0
797	-120.42316	-214.80888	-95.19939	165.17501	-13.01872	-156.22464	69.97562	-52.07488	-114.72747	-195.2808	-146.4606	-87.87636	0
798	-115.54114	-209.92686	-95.19939	160.29299	-10.57771	-153.78363	87.87636	-20.34175	-91.94471	-192.83979	-148.90161	-92.75838	0
799	-105.7771	-197.72181	-92.75838	150.52895	-8.1367	-146.4606	104.96343	6.50936	-69.97562	-187.95777	-144.01959	-92.75838	0
800	-98.45407	-187.95777	-90.31737	140.76491	-5.69569	-139.13757	122.0505	33.36047	-50.44754	-183.07575	-144.01959	-92.75838	0
801	-100.89508	-183.07575	-82.99434	140.76491	-10.57771	-134.25555	136.69656	55.32956	-35.80148	-180.63474	-144.01959	-97.6404	0
802	-100.89508	-175.75272	-75.67131	135.88289	-13.01872	-126.93252	151.34262	72.41663	-26.03744	-180.63474	-148.90161	-102.52242	0
803	-103.33609	-168.42969	-65.90727	133.44188	-20.34175	-117.16848	168.42969	89.5037	-13.83239	-180.63474	-148.90161	-102.52242	0
804	-103.33609	-161.10666	-58.58424	131.00087	-22.78276	-109.84545	185.51676	111.47279	8.1367	-175.75272	-141.57858	-92.75838	0
805	-98.45407	-156.22464	-58.58424	126.11885	-20.34175	-107.40444	200.16282	131.00087	27.66478	-170.8707	-134.25555	-87.87636	0
806	-96.01306	-153.78363	-58.58424	123.67784	-20.34175	-107.40444	212.36787	150.52895	44.75185	-170.8707	-134.25555	-85.43535	0
807	-91.13104	-156.22464	-65.90727	121.23683	-13.01872	-112.28646	222.13191	170.05703	61.83892	-165.98868	-129.37353	-80.55333	0
808	-83.80801	-161.10666	-78.11232	121.23683	-3.25468	-119.60949	234.33696	192.02612	83.80801	-158.66565	-124.49151	-73.2303	0
809	-83.80801	-168.42969	-85.43535	123.67784	-0.81367	-126.93252	241.65999	211.5542	100.89508	-153.78363	-119.60949	-70.78929	0
810	-88.69003	-173.31171	-85.43535	128.55986	-3.25468	-129.37353	241.65999	226.20026	110.65912	-158.66565	-124.49151	-82.99434	0
811	-93.57205	-173.31171	-80.55333	131.00087	-8.1367	-126.93252	244.101	238.40531	115.54114	-165.98868	-139.13757	-97.6404	0
812	-98.45407	-165.98868	-68.34828	131.00087	-15.45973	-117.16848	253.86504	253.05137	122.86417	-170.8707	-146.4606	-109.84545	0
813	-98.45407	-158.66565	-61.02525	126.11885	-20.34175	-109.84545	268.5111	272.57945	137.51023	-170.8707	-148.90161	-109.84545	0
814	-98.45407	-153.78363	-56.14323	123.67784	-22.78276	-104.96343	283.15716	292.10753	159.47932	-170.8707	-146.4606	-107.40444	0
815	-93.57205	-148.90161	-56.14323	118.79582	-20.34175	-102.52242	292.9212	314.07662	181.44841	-170.8707	-144.01959	-107.40444	0
816	-86.24902	-141.57858	-56.14323	111.47279	-15.45973	-100.08141	305.12625	338.48672	203.4175	-168.42969	-141.57858	-102.52242	0
817	-74.04397	-139.13757	-65.90727	104.14976	-5.69569	-102.52242	317.3313	360.45581	230.26861	-156.22464	-134.25555	-92.75838	0
818	-64.27993	-146.4606	-82.99434	104.14976	9.76404	-114.72747	329.53635	382.4249	254.67871	-144.01959	-124.49151	-82.99434	0
819	-59.39791	-153.78363	-95.19939	104.14976	17.08707	-124.49151	331.97736	399.51197	274.20679	-139.13757	-119.60949	-85.43535	0
820	-56.9569	-153.78363	-97.6404	104.14976	19.52808	-126.93252	331.97736	416.59904	291.29386	-134.25555	-119.60949	-92.75838	0
821	-59.39791	-158.66565	-100.08141	106.59077	19.52808	-129.37353	331.97736	428.80409	301.0579	-131.81454	-122.0505	-100.08141	0
822	-61.83892	-168.42969	-107.40444	113.9138	21.96909	-139.13757	339.30039	443.45015	315.70396	-131.81454	-124.49151	-107.40444	0
823	-66.72094	-170.8707	-104.96343	116.35481	19.52808	-139.13757	349.06443	455.6552	330.35002	-134.25555	-129.37353	-112.28646	0
824	-69.16195	-165.98868	-97.6404	116.35481	14.64606	-131.81454	358.82847	470.30126	347.43709	-139.13757	-134.25555	-122.0505	0
825	-69.16195	-163.54767	-95.19939	113.9138	12.20505	-129.37353	366.1515	492.27035	369.40618	-141.57858	-134.25555	-124.49151	0
826	-66.72094	-165.98868	-100.08141	113.9138	17.08707	-134.25555	378.35655	516.68045	393.81628	-139.13757	-131.81454	-122.0505	0
827	-54.51589	-158.66565	-104.96343	104.14976	24.4101	-131.81454	388.12059	536.20853	415.78537	-131.81454	-131.81454	-117.16848	0
828	-44.75185	-146.4606	-102.52242	94.38572	29.29212	-124.49151	395.44362	560.61863	437.75446	-124.49151	-124.49151	-112.28646	0
829	-30.10579	-134.25555	-104.96343	79.73966	36.61515	-119.60949	402.76665	587.46974	462.16456	-107.40444	-112.28646	-100.08141	0
830	-17.90074	-124.49151	-107.40444	69.97562	43.93818	-117.16848	405.20766	611.87984	484.13365	-92.75838	-100.08141	-87.87636	0
831	-13.01872	-119.60949	-107.40444	65.0936	46.37919	-114.72747	410.08968	631.40792	501.22072	-82.99434	-92.75838	-78.11232	0
832	-5.69569	-114.72747	-109.84545	57.77057	51.26121	-112.28646	419.85372	648.49499	518.30779	-78.11232	-92.75838	-75.67131	0
833	-2.44101	-114.72747	-112.28646	57.77057	53.70222	-112.28646	429.61776	668.02307	540.27688	-75.67131	-90.31737	-73.2303	0
834	7.32303	-102.52242	-109.84545	45.56552	58.58424	-104.96343	444.26382	689.99216	567.12799	-75.67131	-90.31737	-73.2303	0
835	12.20505	-90.31737	-102.52242	38.24249	56.14323	-95.19939	451.58685	714.40226	589.09708	-78.11232	-90.31737	-78.11232	0
836	17.08707	-82.99434	-100.08141	30.91946	58.58424	-90.31737	461.35089	738.81236	613.50718	-80.55333	-97.6404	-82.99434	0
837	29.29212	-78.11232	-107.40444	23.59643	68.34828	-92.75838	471.11493	763.22246	637.91728	-75.67131	-100.08141	-90.31737	0
838	46.37919	-68.34828	-114.72747	8.95037	80.55333	-90.31737	480.87897	787.63256	659.88637	-68.34828	-100.08141	-92.75838	0
839	61.02525	-61.02525	-122.0505	-1.62734	90.31737	-90.31737	483.31998	812.04266	679.41445	-56.14323	-95.19939	-92.75838	0
840	70.78929	-53.70222	-124.49151	-8.95037	97.6404	-87.87636	485.76099	834.01175	696.50152	-43.93818	-87.87636	-92.75838	0
841	73.2303	-56.14323	-129.37353	-8.95037	100.08141	-92.75838	488.202	853.53983	711.14758	-34.17414	-80.55333	-87.87636	0
842	80.55333	-56.14323	-136.69656	-13.83239	107.40444	-95.19939	497.96604	868.18589	728.23465	-24.4101	-73.2303	-80.55333	0
843	80.55333	-56.14323	-136.69656	-13.83239	107.40444	-95.19939	507.73008	887.71397	747.76273	-19.52808	-65.90727	-73.2303	0
844	78.11232	-53.70222	-131.81454	-13.83239	104.96343	-92.75838	522.37614	909.68306	774.61384	-13.83239	-56.14323	-65.90727	0
845	78.11232	-46.37919	-124.49151	-16.2734	100.08141	-85.43535	529.69917	938.97518	803.90596	-8.95037	-48.8202	-58.58424	0
846	82.99434	-43.93818	-126.93252	-21.15542	104.96343	-85.43535	537.0222	965.82629	828.31606	-4.06835	-46.37919	-53.70222	0
847	92.75838	-39.05616	-131.81454	-28.47845	112.28646	-85.43535	544.34523	987.79538	852.72616	3.25468	-43.93818	-51.26121	0
848	107.40444	-31.73313	-139.13757	-38.24249	122.0505	-85.43535	551.66826	1012.20548	874.69525	13.01872	-39.05616	-48.8202	0
849	122.0505	-24.4101	-146.4606	-50.44754	134.25555	-85.43535	554.10927	1034.17457	894.22333	25.22377	-34.17414	-48.8202	0
850	134.25555	-14.64606	-148.90161	-60.21158	141.57858	-80.55333	554.10927	1048.82063	908.86939	34.98781	-31.73313	-51.26121	0
851	144.01959	-9.76404	-153.78363	-67.53461	148.90161	-80.55333	551.66826	1058.58467	918.63343	44.75185	-29.29212	-53.70222	0
852	151.34262	-4.06835	-156.22464	-74.85764	153.78363	-80.55333	554.10927	1063.46669	928.39747	52.07488	-29.29212	-56.14323	0
853	153.78363	3.25468	-151.34262	-79.73966	153.78363	-73.2303	561.4323	1070.78972	940.60252	54.51589	-26.85111	-56.14323	0
854	163.54767	17.90074	-146.4606	-91.94471	156.22464	-63.46626	568.75533	1080.55376	957.68959	59.39791	-21.96909	-56.14323	0
855	168.42969	27.66478	-141.57858	-99.26774	156.22464	-56.14323	571.19634	1095.19982	974.77666	61.83892	-17.08707	-48.8202	0
856	173.31171	27.66478	-146.4606	-101.70875	161.10666	-58.58424	573.63735	1107.40487	991.86373	66.72094	-14.64606	-41.49717	0
857	185.51676	30.10579	-156.22464	-109.03178	170.8707	-63.46626	578.51937	1119.60992	1006.50979	76.48498	-9.76404	-34.17414	0
858	197.72181	34.98781	-163.54767	-116.35481	180.63474	-63.46626	578.51937	1131.81497	1018.71484	83.80801	-7.32303	-29.29212	0
859	207.48585	44.75185	-163.54767	-126.11885	185.51676	-58.58424	573.63735	1136.69699	1026.03787	96.01306	0.81367	-21.96909	0
860	212.36787	44.75185	-168.42969	-128.55986	190.39878	-61.02525	568.75533	1139.138	1030.91989	108.21811	13.01872	-17.08707	0
861	212.36787	37.42882	-175.75272	-126.11885	195.2808	-68.34828	561.4323	1134.25598	1026.03787	120.42316	17.90074	-12.20505	0
862	217.24989	42.31084	-175.75272	-131.00087	197.72181	-65.90727	554.10927	1122.05093	1021.15585	122.86417	20.34175	-14.64606	0
863	217.24989	54.51589	-163.54767	-135.88289	190.39878	-53.70222	549.22725	1107.40487	1011.39181	120.42316	17.90074	-17.08707	0
864	212.36787	59.39791	-153.78363	-135.88289	183.07575	-46.37919	544.34523	1092.75881	1006.50979	115.54114	17.90074	-19.52808	0
865	205.04484	56.9569	-148.90161	-131.00087	178.19373	-46.37919	537.0222	1085.43578	1001.62777	113.10013	20.34175	-17.08707	0
866	202.60383	54.51589	-148.90161	-128.55986	175.75272	-46.37919	527.25816	1075.67174	994.30474	110.65912	17.90074	-14.64606	0
867	207.48585	66.72094	-141.57858	-138.3239	175.75272	-36.61515	522.37614	1061.02568	986.98171	113.10013	17.90074	-12.20505	0
868	217.24989	81.367	-136.69656	-150.52895	178.19373	-26.85111	515.05311	1051.26164	977.21767	120.42316	22.78276	-9.76404	0
869	229.45494	93.57205	-136.69656	-162.734	183.07575	-21.96909	507.73008	1039.05659	969.89464	135.06922	34.98781	3.25468	0
870	231.89595	103.33609	-129.37353	-167.61602	180.63474	-12.20505	497.96604	1021.96952	955.24858	147.27427	49.63387	13.01872	0
871	239.21898	117.98215	-122.0505	-179.82107	180.63474	-1.62734	490.64301	1000.00043	935.7205	161.92033	59.39791	22.78276	0
872	246.54201	130.1872	-117.16848	-189.58511	183.07575	8.1367	483.31998	970.70831	913.75141	166.80235	64.27993	27.66478	0
873	246.54201	137.51023	-109.84545	-192.02612	178.19373	15.45973	478.43796	943.8572	889.34131	166.80235	66.72094	32.5468	0
874	241.65999	137.51023	-104.96343	-189.58511	173.31171	17.90074	466.23291	912.12407	867.37222	164.36134	69.16195	34.98781	0
875	231.89595	137.51023	-95.19939	-184.70309	163.54767	22.78276	451.58685	882.83195	842.96212	157.03831	71.60296	39.86983	0
876	229.45494	137.51023	-92.75838	-184.70309	161.10666	22.78276	436.94079	853.53983	816.11101	152.15629	69.16195	42.31084	0
877	236.77797	137.51023	-100.08141	-187.1441	168.42969	20.34175	419.85372	816.92468	784.37788	147.27427	61.83892	42.31084	0
878	244.101	144.83326	-100.08141	-194.46713	173.31171	22.78276	397.88463	780.30953	747.76273	139.95124	56.9569	37.42882	0
879	246.54201	159.47932	-87.87636	-204.23117	168.42969	37.42882	373.47453	738.81236	706.26556	135.06922	52.07488	32.5468	0
880	246.54201	171.68437	-75.67131	-209.11319	161.10666	49.63387	349.06443	697.31519	664.76839	130.1872	49.63387	25.22377	0
881	244.101	179.0074	-65.90727	-211.5542	156.22464	56.9569	327.09534	653.37701	618.3892	130.1872	49.63387	22.78276	0
882	234.33696	191.21245	-43.93818	-213.99521	139.13757	74.04397	310.00827	602.1158	574.45102	125.30518	44.75185	20.34175	0
883	219.6909	200.97649	-19.52808	-211.5542	119.60949	91.13104	297.80322	555.73661	530.51284	120.42316	47.19286	22.78276	0
884	200.16282	198.53548	-1.62734	-199.34915	102.52242	98.45407	285.59817	514.23944	498.77971	117.98215	54.51589	32.5468	0
885	183.07575	188.77144	5.69569	-187.1441	90.31737	98.45407	273.39312	477.62429	469.48759	115.54114	64.27993	44.75185	0
886	173.31171	176.56639	3.25468	-174.93905	85.43535	91.13104	258.74706	438.56813	437.75446	115.54114	74.04397	61.83892	0
887	165.98868	164.36134	-1.62734	-165.17501	85.43535	81.367	241.65999	397.07096	401.13931	115.54114	74.04397	71.60296	0
888	156.22464	147.27427	-9.76404	-152.96996	82.99434	69.16195	222.13191	358.0148	362.08315	110.65912	76.48498	74.04397	0
889	146.4606	135.06922	-12.20505	-140.76491	80.55333	61.83892	197.72181	316.51763	323.02699	108.21811	74.04397	74.04397	0
890	136.69656	127.74619	-9.76404	-133.44188	73.2303	59.39791	170.8707	272.57945	279.08881	100.89508	69.16195	69.16195	0
891	126.93252	120.42316	-7.32303	-123.67784	68.34828	56.9569	153.78363	231.08228	235.15063	93.57205	64.27993	64.27993	0
892	114.72747	113.10013	-1.62734	-113.9138	58.58424	56.9569	136.69656	184.70309	193.65346	86.24902	54.51589	56.9569	0
893	102.52242	110.65912	8.1367	-106.59077	48.8202	59.39791	126.93252	145.64693	154.5973	74.04397	49.63387	49.63387	0
894	92.75838	110.65912	17.90074	-101.70875	39.05616	64.27993	114.72747	109.03178	125.30518	59.39791	47.19286	47.19286	0
895	85.43535	103.33609	17.90074	-94.38572	34.17414	61.83892	97.6404	77.29865	98.45407	47.19286	44.75185	42.31084	0
896	75.67131	88.69003	13.01872	-82.18067	31.73313	52.07488	85.43535	48.00653	71.60296	34.98781	39.86983	42.31084	0
897	68.34828	74.04397	5.69569	-72.41663	31.73313	39.86983	69.97562	21.15542	47.19286	27.66478	30.10579	34.98781	0
898	63.46626	69.16195	5.69569	-67.53461	29.29212	37.42882	52.88855	-8.1367	17.90074	17.90074	20.34175	22.78276	0
899	48.8202	61.83892	13.01872	-55.32956	19.52808	37.42882	30.91946	-37.42882	-8.95037	8.1367	10.57771	10.57771	0
900	29.29212	52.07488	22.78276	-40.6835	4.88202	37.42882	11.39138	-64.27993	-40.6835	3.25468	5.69569	0.81367	0
901	17.08707	42.31084	25.22377	-30.91946	-3.25468	34.98781	-3.25468	-93.57205	-69.97562	-1.62734	-1.62734	-4.06835	0
902	7.32303	34.98781	27.66478	-21.15542	-10.57771	32.5468	-10.57771	-118.79582	-94.38572	-6.50936	-4.06835	-6.50936	0
903	-5.69569	34.98781	39.86983	-16.2734	-22.78276	37.42882	-15.45973	-143.20592	-117.16848	-13.83239	-7.32303	-6.50936	0
904	-17.90074	30.10579	47.19286	-6.50936	-32.5468	37.42882	-22.78276	-165.17501	-129.37353	-21.96909	-4.06835	3.25468	0
905	-27.66478	22.78276	49.63387	0.81367	-37.42882	34.98781	-32.5468	-179.82107	-139.13757	-29.29212	-4.06835	8.1367	0
906	-27.66478	15.45973	42.31084	5.69569	-34.98781	27.66478	-44.75185	-194.46713	-151.34262	-39.05616	-7.32303	8.1367	0
907	-22.78276	10.57771	32.5468	5.69569	-27.66478	20.34175	-54.51589	-204.23117	-158.66565	-43.93818	-9.76404	8.1367	0
908	-15.45973	10.57771	25.22377	0.81367	-20.34175	17.90074	-64.27993	-211.5542	-168.42969	-48.8202	-9.76404	8.1367	0
909	-5.69569	15.45973	20.34175	-6.50936	-13.01872	17.90074	-76.48498	-221.31824	-180.63474	-48.8202	-12.20505	3.25468	0
910	2.44101	25.22377	22.78276	-13.83239	-10.57771	25.22377	-86.24902	-228.64127	-190.39878	-46.37919	-12.20505	0.81367	0
911	7.32303	32.5468	25.22377	-21.15542	-8.1367	30.10579	-93.57205	-240.84632	-202.60383	-43.93818	-12.20505	0.81367	0
912	9.76404	32.5468	22.78276	-21.15542	-5.69569	27.66478	-91.13104	-250.61036	-212.36787	-43.93818	-12.20505	0.81367	0
913	7.32303	32.5468	25.22377	-21.15542	-8.1367	30.10579	-86.24902	-257.93339	-219.6909	-46.37919	-12.20505	3.25468	0
914	4.88202	42.31084	37.42882	-23.59643	-15.45973	39.86983	-83.80801	-265.25642	-222.13191	-53.70222	-17.08707	-1.62734	0
915	-5.69569	44.75185	49.63387	-21.15542	-27.66478	47.19286	-86.24902	-272.57945	-224.57292	-65.90727	-21.96909	-9.76404	0
916	-13.01872	37.42882	49.63387	-13.83239	-30.10579	42.31084	-91.13104	-277.46147	-229.45494	-78.11232	-34.17414	-14.64606	0
917	-20.34175	30.10579	49.63387	-6.50936	-34.98781	39.86983	-98.45407	-282.34349	-234.33696	-85.43535	-43.93818	-24.4101	0
918	-22.78276	17.90074	39.86983	0.81367	-30.10579	27.66478	-100.89508	-282.34349	-236.77797	-85.43535	-43.93818	-24.4101	0
919	-22.78276	10.57771	32.5468	5.69569	-27.66478	20.34175	-108.21811	-282.34349	-236.77797	-80.55333	-41.49717	-24.4101	0
920	-25.22377	5.69569	30.10579	8.95037	-27.66478	17.90074	-115.54114	-282.34349	-239.21898	-75.67131	-36.61515	-24.4101	0
921	-30.10579	-1.62734	27.66478	13.83239	-27.66478	13.01872	-117.98215	-284.7845	-246.54201	-68.34828	-36.61515	-24.4101	0
922	-30.10579	-6.50936	22.78276	16.2734	-25.22377	8.1367	-115.54114	-289.66652	-248.98302	-63.46626	-31.73313	-19.52808	0
923	-30.10579	-12.20505	17.90074	18.71441	-25.22377	3.25468	-105.7771	-289.66652	-248.98302	-63.46626	-26.85111	-14.64606	0
924	-34.98781	-12.20505	22.78276	21.15542	-30.10579	5.69569	-98.45407	-292.10753	-246.54201	-68.34828	-29.29212	-14.64606	0
925	-42.31084	-9.76404	32.5468	23.59643	-37.42882	10.57771	-103.33609	-292.10753	-246.54201	-80.55333	-34.17414	-21.96909	0
926	-47.19286	-14.64606	32.5468	28.47845	-39.86983	8.1367	-105.7771	-292.10753	-246.54201	-92.75838	-43.93818	-26.85111	0
927	-49.63387	-21.96909	27.66478	33.36047	-39.86983	3.25468	-110.65912	-294.54854	-246.54201	-95.19939	-48.8202	-29.29212	0
928	-47.19286	-24.4101	22.78276	33.36047	-34.98781	-1.62734	-110.65912	-289.66652	-248.98302	-97.6404	-48.8202	-31.73313	0
929	-42.31084	-14.64606	27.66478	26.03744	-34.98781	5.69569	-120.42316	-292.10753	-256.30605	-95.19939	-48.8202	-31.73313	0
930	-44.75185	-9.76404	34.98781	26.03744	-39.86983	13.01872	-125.30518	-294.54854	-263.62908	-90.31737	-41.49717	-31.73313	0
931	-44.75185	-6.50936	37.42882	23.59643	-39.86983	15.45973	-125.30518	-299.43056	-273.39312	-82.99434	-39.05616	-29.29212	0
932	-37.42882	0.81367	37.42882	16.2734	-37.42882	17.90074	-120.42316	-301.87157	-278.27514	-75.67131	-34.17414	-24.4101	0
933	-37.42882	13.01872	49.63387	11.39138	-42.31084	30.10579	-115.54114	-309.1946	-285.59817	-80.55333	-34.17414	-26.85111	0
934	-39.86983	22.78276	61.83892	5.69569	-49.63387	42.31084	-110.65912	-314.07662	-283.15716	-87.87636	-36.61515	-29.29212	0
935	-56.9569	15.45973	71.60296	18.71441	-64.27993	42.31084	-110.65912	-314.07662	-278.27514	-95.19939	-41.49717	-36.61515	0
936	-69.16195	-1.62734	66.72094	33.36047	-66.72094	32.5468	-113.10013	-311.63561	-275.83413	-104.96343	-51.26121	-43.93818	0
937	-69.16195	-9.76404	59.39791	38.24249	-64.27993	25.22377	-120.42316	-311.63561	-275.83413	-112.28646	-63.46626	-53.70222	0
938	-71.60296	-14.64606	56.9569	40.6835	-64.27993	20.34175	-125.30518	-311.63561	-278.27514	-117.16848	-68.34828	-61.02525	0
939	-69.16195	-14.64606	54.51589	40.6835	-61.83892	20.34175	-132.62821	-311.63561	-278.27514	-112.28646	-68.34828	-63.46626	0
940	-59.39791	-9.76404	49.63387	33.36047	-54.51589	20.34175	-135.06922	-306.75359	-280.71615	-102.52242	-58.58424	-58.58424	0
941	-47.19286	3.25468	49.63387	21.15542	-47.19286	25.22377	-135.06922	-309.1946	-285.59817	-90.31737	-48.8202	-48.8202	0
942	-37.42882	20.34175	56.9569	5.69569	-47.19286	37.42882	-130.1872	-314.07662	-288.03918	-78.11232	-39.05616	-39.05616	0
943	-30.10579	37.42882	66.72094	-4.06835	-47.19286	52.07488	-122.86417	-314.07662	-288.03918	-73.2303	-26.85111	-24.4101	0
944	-32.5468	44.75185	76.48498	-6.50936	-54.51589	59.39791	-115.54114	-316.51763	-283.15716	-73.2303	-19.52808	-14.64606	0
945	-34.98781	49.63387	83.80801	-8.95037	-59.39791	66.72094	-115.54114	-314.07662	-275.83413	-73.2303	-14.64606	-9.76404	0
946	-44.75185	44.75185	88.69003	-1.62734	-66.72094	66.72094	-120.42316	-314.07662	-270.95211	-80.55333	-19.52808	-9.76404	0
947	-54.51589	37.42882	91.13104	5.69569	-71.60296	64.27993	-122.86417	-314.07662	-270.95211	-87.87636	-29.29212	-14.64606	0
948	-56.9569	30.10579	86.24902	11.39138	-71.60296	56.9569	-125.30518	-311.63561	-270.95211	-87.87636	-34.17414	-14.64606	0
949	-52.07488	30.10579	81.367	8.95037	-66.72094	54.51589	-132.62821	-311.63561	-273.39312	-85.43535	-36.61515	-21.96909	0
950	-54.51589	30.10579	83.80801	11.39138	-69.16195	56.9569	-137.51023	-314.07662	-275.83413	-80.55333	-34.17414	-21.96909	0
951	-56.9569	30.10579	86.24902	11.39138	-71.60296	56.9569	-142.39225	-321.39965	-285.59817	-75.67131	-34.17414	-21.96909	0
952	-56.9569	30.10579	86.24902	11.39138	-71.60296	56.9569	-142.39225	-331.16369	-290.48019	-73.2303	-31.73313	-19.52808	0
953	-61.83892	25.22377	86.24902	16.2734	-74.04397	54.51589	-142.39225	-336.04571	-295.36221	-73.2303	-31.73313	-19.52808	0
954	-74.04397	17.90074	91.13104	26.03744	-81.367	54.51589	-139.95124	-343.36874	-292.9212	-80.55333	-31.73313	-19.52808	0
955	-81.367	10.57771	91.13104	33.36047	-86.24902	49.63387	-139.95124	-343.36874	-288.03918	-82.99434	-31.73313	-19.52808	0
956	-78.92599	15.45973	93.57205	30.91946	-86.24902	54.51589	-139.95124	-343.36874	-283.15716	-87.87636	-36.61515	-19.52808	0
957	-59.39791	25.22377	83.80801	16.2734	-71.60296	54.51589	-139.95124	-336.04571	-275.83413	-85.43535	-36.61515	-17.08707	0
958	-44.75185	39.86983	83.80801	0.81367	-64.27993	61.83892	-139.95124	-328.72268	-273.39312	-82.99434	-36.61515	-14.64606	0
959	-34.98781	42.31084	76.48498	-4.06835	-54.51589	59.39791	-142.39225	-326.28167	-270.95211	-70.78929	-31.73313	-9.76404	0
960	-20.34175	49.63387	69.16195	-16.2734	-44.75185	59.39791	-147.27427	-323.84066	-270.95211	-61.02525	-21.96909	-4.06835	0
961	-10.57771	61.83892	71.60296	-26.03744	-39.86983	66.72094	-149.71528	-331.16369	-280.71615	-51.26121	-14.64606	3.25468	0
962	-10.57771	59.39791	69.16195	-26.03744	-39.86983	64.27993	-147.27427	-338.48672	-288.03918	-46.37919	-12.20505	8.1367	0
963	-15.45973	52.07488	66.72094	-18.71441	-39.86983	59.39791	-142.39225	-343.36874	-292.9212	-46.37919	-7.32303	10.57771	0
964	-25.22377	49.63387	74.04397	-13.83239	-49.63387	61.83892	-137.51023	-348.25076	-290.48019	-48.8202	-7.32303	13.01872	0
965	-32.5468	52.07488	83.80801	-11.39138	-56.9569	66.72094	-135.06922	-348.25076	-285.59817	-53.70222	-7.32303	13.01872	0
966	-32.5468	61.83892	93.57205	-16.2734	-61.83892	76.48498	-132.62821	-348.25076	-283.15716	-61.02525	-12.20505	8.1367	0
967	-27.66478	61.83892	88.69003	-18.71441	-56.9569	74.04397	-125.30518	-343.36874	-275.83413	-63.46626	-17.08707	0.81367	0
968	-15.45973	59.39791	74.04397	-23.59643	-44.75185	66.72094	-120.42316	-336.04571	-273.39312	-63.46626	-21.96909	-9.76404	0
