samplenr	I	II	III	aVR	aVL	aVF	V1	V2	V3	V4	V5	V6	measurement
0	-30.91946	-145.64693	-114.72747	86.24902	42.31084	-131.81454	56.14323	135.06922	126.11885	-126.11885	-148.90161	-158.66565	0
1	-28.47845	-155.41097	-126.93252	91.13104	49.63387	-141.57858	58.58424	135.06922	126.11885	-126.11885	-148.90161	-158.66565	0
2	-30.91946	-167.61602	-136.69656	98.45407	52.07488	-153.78363	58.58424	132.62821	126.11885	-126.11885	-146.4606	-156.22464	0
3	-48.00653	-165.17501	-117.16848	105.7771	34.98781	-141.57858	63.46626	137.51023	128.55986	-121.23683	-141.57858	-153.78363	0
4	-60.21158	-170.05703	-109.84545	113.10013	25.22377	-141.57858	65.90727	147.27427	138.3239	-121.23683	-136.69656	-148.90161	0
5	-60.21158	-172.49804	-112.28646	115.54114	25.22377	-144.01959	68.34828	149.71528	143.20592	-126.11885	-136.69656	-148.90161	0
6	-57.77057	-179.82107	-122.0505	117.98215	32.5468	-151.34262	61.02525	147.27427	138.3239	-135.88289	-141.57858	-153.78363	0
7	-65.0936	-179.82107	-114.72747	120.42316	25.22377	-148.90161	61.02525	152.15629	140.76491	-133.44188	-141.57858	-151.34262	0
8	-67.53461	-165.17501	-97.6404	115.54114	15.45973	-131.81454	61.02525	152.15629	140.76491	-131.00087	-139.13757	-148.90161	0
9	-48.00653	-155.41097	-107.40444	100.89508	30.10579	-131.81454	58.58424	147.27427	138.3239	-131.00087	-141.57858	-151.34262	0
10	-30.91946	-145.64693	-114.72747	86.24902	42.31084	-131.81454	63.46626	139.95124	135.88289	-126.11885	-139.13757	-146.4606	0
11	-13.83239	-126.11885	-112.28646	69.16195	49.63387	-119.60949	63.46626	132.62821	128.55986	-126.11885	-139.13757	-146.4606	0
12	-6.50936	-106.59077	-100.08141	54.51589	47.19286	-104.96343	73.2303	135.06922	138.3239	-116.35481	-131.81454	-141.57858	0
13	0.81367	-87.06269	-87.87636	42.31084	44.75185	-87.87636	85.43535	147.27427	155.41097	-104.14976	-117.16848	-129.37353	0
14	28.47845	-67.53461	-95.19939	17.90074	61.83892	-80.55333	97.6404	161.92033	170.05703	-96.82673	-107.40444	-119.60949	0
15	43.12451	-50.44754	-92.75838	3.25468	66.72094	-70.78929	109.84545	181.44841	189.58511	-87.06269	-90.31737	-102.52242	0
16	45.56552	-40.6835	-85.43535	-2.44101	64.27993	-63.46626	117.16848	196.09447	201.79016	-82.18067	-82.99434	-95.19939	0
17	55.32956	-33.36047	-87.87636	-12.20505	71.60296	-61.02525	122.0505	205.85851	209.11319	-77.29865	-78.11232	-87.87636	0
18	57.77057	-18.71441	-75.67131	-19.52808	66.72094	-46.37919	124.49151	218.06356	216.43622	-72.41663	-75.67131	-80.55333	0
19	69.97562	-1.62734	-70.78929	-34.17414	69.16195	-36.61515	122.0505	218.06356	211.5542	-74.85764	-78.11232	-80.55333	0
20	65.0936	4.06835	-61.02525	-34.17414	64.27993	-29.29212	117.16848	210.74053	204.23117	-77.29865	-82.99434	-85.43535	0
21	52.88855	4.06835	-48.8202	-29.29212	52.07488	-21.96909	114.72747	203.4175	196.90814	-79.73966	-87.87636	-90.31737	0
22	57.77057	0.81367	-56.14323	-29.29212	56.9569	-26.85111	114.72747	200.97649	194.46713	-79.73966	-90.31737	-90.31737	0
23	52.88855	-8.95037	-61.02525	-21.96909	56.9569	-34.17414	114.72747	200.97649	192.02612	-79.73966	-87.87636	-90.31737	0
24	50.44754	-18.71441	-68.34828	-17.08707	59.39791	-43.93818	117.16848	205.85851	194.46713	-77.29865	-85.43535	-90.31737	0
25	57.77057	-21.15542	-78.11232	-19.52808	66.72094	-48.8202	122.0505	210.74053	199.34915	-72.41663	-78.11232	-82.99434	0
26	50.44754	-23.59643	-73.2303	-14.64606	61.83892	-48.8202	122.0505	218.06356	204.23117	-69.97562	-73.2303	-78.11232	0
27	52.88855	-21.15542	-73.2303	-17.08707	61.83892	-46.37919	122.0505	222.94558	206.67218	-62.65259	-70.78929	-78.11232	0
28	40.6835	-28.47845	-68.34828	-7.32303	54.51589	-48.8202	114.72747	222.94558	201.79016	-60.21158	-70.78929	-80.55333	0
29	21.15542	-26.03744	-46.37919	0.81367	32.5468	-36.61515	104.96343	215.62255	194.46713	-60.21158	-73.2303	-82.99434	0
30	16.2734	-13.83239	-29.29212	-2.44101	22.78276	-21.96909	95.19939	203.4175	184.70309	-62.65259	-78.11232	-85.43535	0
31	16.2734	-4.06835	-19.52808	-7.32303	17.90074	-12.20505	85.43535	193.65346	177.38006	-62.65259	-80.55333	-87.87636	0
32	28.47845	-4.06835	-31.73313	-12.20505	30.10579	-17.08707	78.11232	186.33043	172.49804	-60.21158	-80.55333	-85.43535	0
33	38.24249	-1.62734	-39.05616	-19.52808	37.42882	-19.52808	75.67131	181.44841	172.49804	-55.32956	-78.11232	-78.11232	0
34	50.44754	6.50936	-43.93818	-29.29212	47.19286	-19.52808	75.67131	183.88942	177.38006	-50.44754	-70.78929	-70.78929	0
35	69.97562	18.71441	-51.26121	-43.93818	61.83892	-17.08707	73.2303	181.44841	179.82107	-45.56552	-65.90727	-65.90727	0
36	87.06269	21.15542	-65.90727	-53.70222	76.48498	-21.96909	68.34828	181.44841	182.26208	-40.6835	-61.02525	-63.46626	0
37	87.06269	6.50936	-80.55333	-46.37919	83.80801	-36.61515	65.90727	181.44841	184.70309	-33.36047	-56.14323	-61.02525	0
38	72.41663	0.81367	-70.78929	-36.61515	71.60296	-34.17414	65.90727	181.44841	187.1441	-26.03744	-51.26121	-61.02525	0
39	62.65259	0.81367	-61.02525	-31.73313	61.83892	-29.29212	68.34828	183.88942	189.58511	-16.2734	-43.93818	-56.14323	0
40	50.44754	4.06835	-46.37919	-26.85111	49.63387	-21.96909	65.90727	181.44841	192.02612	-11.39138	-39.05616	-53.70222	0
41	60.21158	11.39138	-48.8202	-36.61515	54.51589	-19.52808	63.46626	174.12538	187.1441	-11.39138	-39.05616	-53.70222	0
42	62.65259	26.03744	-36.61515	-43.93818	49.63387	-4.88202	68.34828	179.0074	194.46713	-0.81367	-31.73313	-48.8202	0
43	57.77057	52.88855	-4.88202	-56.14323	32.5468	25.22377	75.67131	186.33043	201.79016	6.50936	-24.4101	-39.05616	0
44	57.77057	67.53461	10.57771	-63.46626	25.22377	39.86983	78.11232	193.65346	209.11319	8.95037	-21.96909	-36.61515	0
45	57.77057	65.0936	8.1367	-61.02525	25.22377	37.42882	75.67131	191.21245	204.23117	-0.81367	-24.4101	-41.49717	0
46	60.21158	57.77057	-2.44101	-58.58424	32.5468	27.66478	65.90727	183.88942	194.46713	-11.39138	-31.73313	-51.26121	0
47	43.12451	43.12451	0	-43.93818	22.78276	22.78276	65.90727	183.88942	189.58511	-11.39138	-34.17414	-53.70222	0
48	28.47845	23.59643	-4.88202	-26.85111	17.90074	10.57771	65.90727	179.0074	182.26208	-18.71441	-41.49717	-61.02525	0
49	23.59643	-1.62734	-24.4101	-12.20505	22.78276	-12.20505	58.58424	169.24336	170.05703	-28.47845	-51.26121	-68.34828	0
50	23.59643	-23.59643	-46.37919	-2.44101	34.98781	-34.17414	53.70222	154.5973	155.41097	-38.24249	-61.02525	-75.67131	0
51	21.15542	-38.24249	-58.58424	8.1367	39.86983	-48.8202	51.26121	139.95124	143.20592	-45.56552	-65.90727	-78.11232	0
52	6.50936	-57.77057	-63.46626	25.22377	34.98781	-61.02525	51.26121	130.1872	133.44188	-52.88855	-75.67131	-82.99434	0
53	4.06835	-74.85764	-78.11232	34.98781	39.86983	-75.67131	46.37919	117.98215	123.67784	-62.65259	-85.43535	-92.75838	0
54	-1.62734	-87.06269	-85.43535	42.31084	42.31084	-87.87636	41.49717	110.65912	116.35481	-69.97562	-92.75838	-100.08141	0
55	-6.50936	-94.38572	-87.87636	49.63387	39.86983	-92.75838	34.17414	103.33609	111.47279	-77.29865	-100.08141	-107.40444	0
56	-4.06835	-99.26774	-95.19939	49.63387	44.75185	-97.6404	31.73313	100.89508	106.59077	-84.62168	-102.52242	-114.72747	0
57	-11.39138	-118.79582	-107.40444	64.27993	47.19286	-114.72747	26.85111	100.89508	99.26774	-87.06269	-107.40444	-119.60949	0
58	-8.95037	-126.11885	-117.16848	66.72094	54.51589	-122.0505	26.85111	98.45407	94.38572	-91.94471	-114.72747	-126.93252	0
59	-6.50936	-128.55986	-122.0505	66.72094	56.9569	-126.93252	24.4101	98.45407	89.5037	-91.94471	-117.16848	-129.37353	0
60	-16.2734	-135.88289	-119.60949	74.04397	52.07488	-129.37353	24.4101	88.69003	79.73966	-96.82673	-124.49151	-134.25555	0
61	-21.15542	-143.20592	-122.0505	81.367	49.63387	-134.25555	24.4101	78.92599	69.97562	-101.70875	-126.93252	-136.69656	0
62	-23.59643	-138.3239	-114.72747	78.92599	44.75185	-126.93252	21.96909	69.16195	60.21158	-106.59077	-131.81454	-139.13757	0
63	-18.71441	-126.11885	-107.40444	71.60296	44.75185	-117.16848	21.96909	64.27993	57.77057	-109.03178	-131.81454	-141.57858	0
64	-4.06835	-106.59077	-102.52242	54.51589	49.63387	-104.96343	21.96909	61.83892	55.32956	-109.03178	-131.81454	-141.57858	0
65	0.81367	-94.38572	-95.19939	44.75185	47.19286	-95.19939	17.08707	59.39791	57.77057	-111.47279	-129.37353	-141.57858	0
66	-8.95037	-94.38572	-85.43535	49.63387	37.42882	-90.31737	17.08707	56.9569	55.32956	-111.47279	-126.93252	-144.01959	0
67	-16.2734	-91.94471	-75.67131	52.07488	30.10579	-85.43535	14.64606	56.9569	55.32956	-109.03178	-124.49151	-146.4606	0
68	-13.83239	-106.59077	-92.75838	59.39791	39.86983	-100.08141	14.64606	54.51589	52.88855	-106.59077	-124.49151	-148.90161	0
69	-28.47845	-126.11885	-97.6404	76.48498	34.98781	-112.28646	14.64606	54.51589	52.88855	-101.70875	-124.49151	-148.90161	0
70	-43.12451	-140.76491	-97.6404	91.13104	27.66478	-119.60949	17.08707	49.63387	50.44754	-96.82673	-124.49151	-148.90161	0
71	-60.21158	-155.41097	-95.19939	105.7771	17.90074	-126.93252	19.52808	44.75185	45.56552	-94.38572	-122.0505	-148.90161	0
72	-52.88855	-157.85198	-104.96343	103.33609	25.22377	-131.81454	19.52808	39.86983	43.12451	-91.94471	-122.0505	-148.90161	0
73	-35.80148	-165.17501	-129.37353	98.45407	47.19286	-148.90161	17.08707	39.86983	43.12451	-91.94471	-124.49151	-148.90161	0
74	-33.36047	-162.734	-129.37353	96.01306	47.19286	-146.4606	19.52808	47.19286	50.44754	-84.62168	-119.60949	-146.4606	0
75	-43.12451	-155.41097	-112.28646	98.45407	34.98781	-134.25555	19.52808	49.63387	52.88855	-84.62168	-117.16848	-141.57858	0
76	-40.6835	-150.52895	-109.84545	93.57205	34.98781	-131.81454	17.08707	49.63387	50.44754	-89.5037	-117.16848	-144.01959	0
77	-26.03744	-148.08794	-122.0505	86.24902	47.19286	-136.69656	12.20505	47.19286	45.56552	-91.94471	-122.0505	-151.34262	0
78	-21.15542	-148.08794	-126.93252	83.80801	52.07488	-139.13757	12.20505	47.19286	45.56552	-89.5037	-122.0505	-151.34262	0
79	-33.36047	-140.76491	-107.40444	86.24902	37.42882	-124.49151	17.08707	52.07488	48.00653	-84.62168	-122.0505	-146.4606	0
80	-38.24249	-126.11885	-87.87636	81.367	25.22377	-107.40444	17.08707	44.75185	38.24249	-89.5037	-126.93252	-151.34262	0
81	-23.59643	-118.79582	-95.19939	69.16195	34.98781	-107.40444	19.52808	39.86983	30.91946	-96.82673	-131.81454	-153.78363	0
82	-21.15542	-128.55986	-107.40444	74.04397	42.31084	-119.60949	26.85111	44.75185	30.91946	-101.70875	-136.69656	-156.22464	0
83	-35.80148	-140.76491	-104.96343	86.24902	34.98781	-124.49151	39.05616	59.39791	35.80148	-106.59077	-139.13757	-156.22464	0
84	-50.44754	-152.96996	-102.52242	100.89508	25.22377	-129.37353	48.8202	78.92599	45.56552	-116.35481	-144.01959	-158.66565	0
85	-60.21158	-170.05703	-109.84545	113.10013	25.22377	-141.57858	61.02525	105.7771	60.21158	-126.11885	-148.90161	-165.98868	0
86	-62.65259	-184.70309	-122.0505	122.86417	30.10579	-153.78363	80.55333	147.27427	87.06269	-128.55986	-151.34262	-170.8707	0
87	-84.62168	-196.90814	-112.28646	139.95124	13.01872	-156.22464	117.16848	200.97649	123.67784	-123.67784	-148.90161	-170.8707	0
88	-89.5037	-184.70309	-95.19939	135.06922	3.25468	-141.57858	153.78363	259.56073	170.05703	-113.9138	-146.4606	-170.8707	0
89	-87.06269	-172.49804	-85.43535	127.74619	-2.44101	-129.37353	192.83979	318.14497	213.99521	-104.14976	-144.01959	-170.8707	0
90	-82.18067	-165.17501	-82.99434	122.86417	0	-124.49151	231.89595	366.96517	257.93339	-94.38572	-144.01959	-173.31171	0
91	-67.53461	-140.76491	-73.2303	103.33609	3.25468	-107.40444	270.95211	415.78537	309.1946	-72.41663	-134.25555	-165.98868	0
92	-30.91946	-111.47279	-80.55333	69.16195	25.22377	-97.6404	297.80322	457.28254	372.66086	-43.12451	-119.60949	-153.78363	0
93	16.2734	-79.73966	-95.19939	30.10579	54.51589	-87.87636	310.00827	503.66173	458.09621	-0.81367	-97.6404	-139.13757	0
94	67.53461	-48.00653	-114.72747	-9.76404	91.13104	-80.55333	302.68524	550.04092	567.94166	57.77057	-63.46626	-119.60949	0
95	131.00087	-4.06835	-134.25555	-63.46626	132.62821	-68.34828	278.27514	596.42011	704.63822	138.3239	-17.08707	-85.43535	0
96	211.5542	74.85764	-136.69656	-144.01959	174.12538	-31.73313	251.42403	655.00435	873.06791	240.84632	47.19286	-36.61515	0
97	296.98955	170.05703	-126.93252	-234.33696	213.18154	22.78276	214.80888	708.70657	1053.70265	365.33783	125.30518	17.90074	0
98	365.33783	272.57945	-92.75838	-319.77231	230.26861	91.13104	175.75272	755.08576	1231.89638	492.27035	210.74053	83.80801	0
99	428.80409	370.21985	-58.58424	-400.32564	244.91467	157.03831	136.69656	779.49586	1368.59294	602.1158	286.41184	142.39225	0
100	482.50631	455.6552	-26.85111	-468.67392	254.67871	215.62255	107.40444	777.05485	1454.02829	672.90509	335.23204	183.88942	1000	P+0
101	489.82934	504.4754	15.45973	-497.96604	237.59164	259.56073	92.75838	742.88071	1473.55637	704.63822	359.64214	208.29952	0
102	450.77318	511.79843	61.83892	-480.87897	196.09447	286.41184	75.67131	652.56334	1410.09011	692.43317	359.64214	218.06356	0
103	375.10187	482.50631	108.21811	-429.61776	135.06922	296.17588	46.37919	491.45668	1239.21941	636.28994	335.23204	210.74053	0
104	257.93339	416.59904	159.47932	-336.85938	49.63387	288.85285	21.96909	276.6478	960.94427	536.20853	293.73487	193.65346	0
105	116.35481	331.16369	215.62255	-224.57292	-48.8202	274.20679	-15.45973	17.90074	611.87984	404.39399	232.70962	161.92033	0
106	-21.15542	243.28733	264.44275	-112.28646	-141.57858	252.2377	-66.72094	-251.42403	250.61036	275.02046	176.56639	135.06922	0
107	-128.55986	167.61602	296.17588	-19.52808	-212.36787	230.26861	-127.74619	-510.17109	-89.5037	162.734	132.62821	113.10013	0
108	-206.67218	104.14976	310.82194	49.63387	-258.74706	205.85851	-186.33043	-727.42098	-384.86591	69.97562	98.45407	96.01306	0
109	-270.13844	48.00653	318.14497	110.65912	-292.9212	181.44841	-230.26861	-883.64562	-616.76186	-8.1367	64.27993	78.92599	0
110	-304.31258	-1.62734	303.49891	152.15629	-305.12625	149.71528	-269.32477	-973.96299	-765.66347	-72.41663	30.10579	56.9569	0
111	-316.51763	-28.47845	288.85285	171.68437	-302.68524	130.1872	-296.17588	-1003.25511	-821.8067	-111.47279	2.44101	37.42882	0
112	-316.51763	-33.36047	283.97083	174.12538	-300.24423	125.30518	-296.17588	-976.404	-812.04266	-133.44188	-14.64606	25.22377	0
113	-318.95864	-28.47845	291.29386	171.68437	-305.12625	130.1872	-279.08881	-920.26077	-777.86852	-148.08794	-31.73313	13.01872	0
114	-316.51763	-26.03744	291.29386	169.24336	-305.12625	132.62821	-252.2377	-847.03047	-726.60731	-162.734	-46.37919	0	0
115	-311.63561	-28.47845	283.97083	169.24336	-297.80322	127.74619	-218.06356	-764.03613	-665.58206	-162.734	-51.26121	-4.88202	0
116	-292.10753	-16.2734	276.6478	152.15629	-285.59817	130.1872	-181.44841	-668.83674	-592.35176	-155.41097	-51.26121	-9.76404	0
117	-253.05137	0.81367	254.67871	125.30518	-253.86504	127.74619	-144.83326	-573.63735	-521.56247	-148.08794	-51.26121	-14.64606	0
118	-218.87723	0.81367	220.50457	108.21811	-219.6909	110.65912	-110.65912	-480.87897	-450.77318	-133.44188	-48.8202	-17.08707	0
119	-201.79016	-11.39138	191.21245	105.7771	-197.72181	88.69003	-86.24902	-402.76665	-392.18894	-118.79582	-43.93818	-19.52808	0
120	-184.70309	-23.59643	161.92033	103.33609	-173.31171	69.16195	-66.72094	-346.62342	-345.80975	-104.14976	-36.61515	-17.08707	0
121	-172.49804	-21.15542	152.15629	96.01306	-163.54767	64.27993	-56.9569	-310.00827	-318.95864	-91.94471	-31.73313	-14.64606	0
122	-170.05703	-18.71441	152.15629	93.57205	-161.10666	66.72094	-52.07488	-285.59817	-301.87157	-87.06269	-29.29212	-14.64606	0
123	-187.1441	-26.03744	161.92033	105.7771	-175.75272	66.72094	-44.75185	-263.62908	-284.7845	-79.73966	-26.85111	-9.76404	0
124	-196.90814	-38.24249	159.47932	115.54114	-178.19373	59.39791	-47.19286	-251.42403	-279.90248	-79.73966	-26.85111	-9.76404	0
125	-174.93905	-38.24249	137.51023	105.7771	-156.22464	49.63387	-49.63387	-246.54201	-279.90248	-82.18067	-29.29212	-9.76404	0
126	-167.61602	-40.6835	127.74619	103.33609	-148.90161	42.31084	-49.63387	-241.65999	-279.90248	-87.06269	-31.73313	-9.76404	0
127	-174.93905	-38.24249	137.51023	105.7771	-156.22464	49.63387	-52.07488	-234.33696	-279.90248	-84.62168	-29.29212	-4.88202	0
128	-157.85198	-33.36047	125.30518	93.57205	-141.57858	44.75185	-54.51589	-231.89595	-279.90248	-84.62168	-29.29212	-2.44101	0
129	-126.11885	-28.47845	98.45407	76.48498	-112.28646	34.98781	-56.9569	-229.45494	-282.34349	-89.5037	-29.29212	-2.44101	0
130	-104.14976	-21.15542	83.80801	61.83892	-95.19939	30.10579	-52.07488	-227.01393	-282.34349	-84.62168	-21.96909	4.88202	0
131	-106.59077	-16.2734	91.13104	59.39791	-100.08141	37.42882	-47.19286	-224.57292	-277.46147	-79.73966	-12.20505	15.45973	0
132	-113.9138	-8.95037	105.7771	59.39791	-109.84545	47.19286	-44.75185	-222.13191	-277.46147	-74.85764	-4.88202	25.22377	0
133	-96.82673	-4.06835	93.57205	49.63387	-95.19939	44.75185	-49.63387	-224.57292	-277.46147	-74.85764	-2.44101	30.10579	0
134	-91.94471	-4.06835	88.69003	47.19286	-90.31737	42.31084	-56.9569	-227.01393	-279.90248	-79.73966	-4.88202	27.66478	0
135	-118.79582	-16.2734	103.33609	66.72094	-112.28646	42.31084	-59.39791	-227.01393	-275.02046	-79.73966	-2.44101	34.98781	0
136	-143.20592	-30.91946	113.10013	86.24902	-129.37353	39.86983	-64.27993	-227.01393	-275.02046	-79.73966	0	37.42882	0
137	-148.08794	-38.24249	110.65912	91.13104	-129.37353	34.98781	-71.60296	-229.45494	-279.90248	-82.18067	-2.44101	34.98781	0
138	-145.64693	-43.12451	103.33609	93.57205	-124.49151	30.10579	-74.04397	-231.89595	-279.90248	-79.73966	-4.88202	32.5468	0
139	-145.64693	-45.56552	100.89508	93.57205	-124.49151	27.66478	-74.04397	-231.89595	-282.34349	-77.29865	-2.44101	32.5468	0
140	-152.96996	-55.32956	98.45407	103.33609	-126.93252	20.34175	-74.04397	-236.77797	-284.7845	-77.29865	0	34.98781	0
141	-157.85198	-55.32956	103.33609	105.7771	-131.81454	22.78276	-74.04397	-236.77797	-287.22551	-72.41663	5.69569	42.31084	0
142	-148.08794	-38.24249	110.65912	91.13104	-129.37353	34.98781	-74.04397	-236.77797	-287.22551	-69.97562	13.01872	49.63387	0
143	-133.44188	-21.15542	113.10013	76.48498	-124.49151	44.75185	-74.04397	-231.89595	-282.34349	-65.0936	22.78276	56.9569	0
144	-126.11885	-4.06835	122.86417	64.27993	-124.49151	59.39791	-74.04397	-227.01393	-277.46147	-62.65259	27.66478	66.72094	0
145	-126.11885	4.06835	130.1872	59.39791	-126.93252	66.72094	-69.16195	-222.13191	-275.02046	-60.21158	37.42882	76.48498	0
146	-118.79582	16.2734	135.06922	49.63387	-126.93252	74.04397	-71.60296	-222.13191	-277.46147	-62.65259	37.42882	81.367	0
147	-99.26774	33.36047	132.62821	32.5468	-114.72747	81.367	-71.60296	-222.13191	-279.90248	-60.21158	42.31084	86.24902	0
148	-89.5037	43.12451	132.62821	22.78276	-109.84545	86.24902	-69.16195	-222.13191	-282.34349	-57.77057	42.31084	88.69003	0
149	-82.18067	48.00653	130.1872	15.45973	-104.96343	88.69003	-69.16195	-222.13191	-284.7845	-50.44754	44.75185	93.57205	0
150	-74.85764	52.88855	127.74619	10.57771	-100.08141	88.69003	-74.04397	-229.45494	-292.10753	-50.44754	47.19286	96.01306	0
151	-72.41663	55.32956	127.74619	8.1367	-100.08141	91.13104	-81.367	-241.65999	-304.31258	-50.44754	47.19286	98.45407	0
152	-82.18067	60.21158	142.39225	10.57771	-112.28646	100.89508	-83.80801	-248.98302	-306.75359	-45.56552	52.07488	103.33609	0
153	-94.38572	65.0936	159.47932	13.01872	-126.93252	110.65912	-86.24902	-248.98302	-306.75359	-38.24249	59.39791	113.10013	0
154	-94.38572	72.41663	166.80235	10.57771	-129.37353	117.98215	-93.57205	-253.86504	-311.63561	-38.24249	61.83892	115.54114	0
155	-82.18067	77.29865	159.47932	0.81367	-119.60949	117.98215	-100.89508	-263.62908	-318.95864	-40.6835	56.9569	117.98215	0
156	-94.38572	77.29865	171.68437	8.1367	-131.81454	122.86417	-103.33609	-266.07009	-321.39965	-40.6835	56.9569	122.86417	0
157	-106.59077	69.97562	176.56639	17.90074	-141.57858	122.86417	-103.33609	-266.07009	-321.39965	-30.91946	61.83892	130.1872	0
158	-99.26774	62.65259	161.92033	17.90074	-129.37353	110.65912	-108.21811	-263.62908	-321.39965	-23.59643	66.72094	135.06922	0
159	-104.14976	48.00653	152.15629	27.66478	-126.93252	98.45407	-113.10013	-266.07009	-328.72268	-21.15542	66.72094	137.51023	0
160	-106.59077	38.24249	144.83326	32.5468	-124.49151	91.13104	-115.54114	-270.95211	-331.16369	-16.2734	71.60296	142.39225	0
161	-113.9138	35.80148	149.71528	37.42882	-131.81454	91.13104	-117.98215	-275.83413	-336.04571	-13.83239	78.92599	152.15629	0
162	-106.59077	38.24249	144.83326	32.5468	-124.49151	91.13104	-122.86417	-280.71615	-338.48672	-13.83239	86.24902	159.47932	0
163	-96.82673	43.12451	139.95124	25.22377	-117.16848	91.13104	-127.74619	-283.15716	-343.36874	-13.83239	91.13104	166.80235	0
164	-94.38572	60.21158	154.5973	15.45973	-124.49151	105.7771	-127.74619	-275.83413	-340.92773	-11.39138	100.89508	176.56639	0
165	-96.82673	79.73966	176.56639	8.1367	-136.69656	127.74619	-125.30518	-270.95211	-336.04571	-8.1367	110.65912	186.33043	0
166	-79.73966	106.59077	186.33043	-14.64606	-131.81454	144.83326	-120.42316	-263.62908	-331.16369	-0.81367	122.86417	196.09447	0
167	-74.85764	123.67784	198.53548	-24.4101	-136.69656	159.47932	-120.42316	-261.18807	-328.72268	6.50936	130.1872	200.97649	0
168	-99.26774	131.00087	230.26861	-17.08707	-163.54767	179.0074	-113.10013	-256.30605	-323.84066	21.15542	142.39225	210.74053	0
169	-106.59077	140.76491	247.35568	-17.08707	-175.75272	193.65346	-115.54114	-258.74706	-326.28167	28.47845	147.27427	213.18154	0
170	-91.94471	145.64693	237.59164	-26.85111	-163.54767	191.21245	-122.86417	-273.39312	-333.6047	35.80148	149.71528	215.62255	0
171	-77.29865	162.734	240.03265	-43.93818	-158.66565	200.97649	-130.1872	-288.03918	-343.36874	40.6835	154.5973	218.06356	0
172	-82.18067	170.05703	252.2377	-43.93818	-165.98868	210.74053	-139.95124	-300.24423	-350.69177	48.00653	161.92033	225.38659	0
173	-91.94471	167.61602	259.56073	-39.05616	-175.75272	213.18154	-144.83326	-307.56726	-350.69177	60.21158	174.12538	235.15063	0
174	-72.41663	174.93905	247.35568	-51.26121	-158.66565	210.74053	-152.15629	-312.44928	-355.57379	67.53461	183.88942	242.47366	0
175	-48.00653	192.02612	240.03265	-73.2303	-144.01959	215.62255	-161.92033	-317.3313	-358.0148	74.85764	196.09447	247.35568	0
176	-43.12451	213.99521	257.11972	-85.43535	-148.90161	235.15063	-161.92033	-319.77231	-358.0148	84.62168	205.85851	254.67871	0
177	-45.56552	223.75925	269.32477	-90.31737	-156.22464	244.91467	-161.92033	-317.3313	-353.13278	96.82673	215.62255	262.00174	0
178	-43.12451	226.20026	269.32477	-92.75838	-156.22464	247.35568	-161.92033	-314.89029	-353.13278	109.03178	222.94558	264.44275	0
179	-30.91946	235.9643	266.88376	-102.52242	-148.90161	249.79669	-159.47932	-314.89029	-350.69177	121.23683	232.70962	271.76578	0
180	-35.80148	245.72834	281.52982	-104.96343	-158.66565	262.00174	-161.92033	-319.77231	-353.13278	128.55986	235.15063	274.20679	0
181	-38.24249	260.3744	298.61689	-112.28646	-168.42969	279.08881	-166.80235	-331.97736	-360.45581	133.44188	235.15063	274.20679	0
182	-45.56552	260.3744	305.93992	-107.40444	-175.75272	281.52982	-171.68437	-336.85938	-360.45581	143.20592	240.03265	281.52982	0
183	-55.32956	253.05137	308.38093	-100.08141	-180.63474	279.08881	-176.56639	-339.30039	-362.89682	150.52895	244.91467	288.85285	0
184	-57.77057	253.05137	310.82194	-97.6404	-183.07575	281.52982	-181.44841	-339.30039	-362.89682	155.41097	249.79669	293.73487	0
185	-55.32956	260.3744	315.70396	-102.52242	-185.51676	286.41184	-188.77144	-341.7414	-362.89682	160.29299	252.2377	301.0579	0
186	-40.6835	279.90248	320.58598	-119.60949	-180.63474	298.61689	-200.97649	-349.06443	-367.77884	160.29299	249.79669	298.61689	0
187	-33.36047	284.7845	318.14497	-126.93252	-175.75272	301.0579	-203.4175	-344.18241	-362.89682	172.49804	257.11972	305.93992	0
188	-26.03744	284.7845	310.82194	-129.37353	-168.42969	296.17588	-200.97649	-336.85938	-355.57379	184.70309	264.44275	313.26295	0
189	-16.2734	296.98955	313.26295	-141.57858	-163.54767	303.49891	-203.4175	-336.85938	-355.57379	192.02612	266.88376	315.70396	0
190	-16.2734	301.87157	318.14497	-144.01959	-165.98868	308.38093	-208.29952	-344.18241	-358.0148	196.90814	269.32477	318.14497	0
191	-18.71441	299.43056	318.14497	-141.57858	-168.42969	308.38093	-215.62255	-353.94645	-365.33783	199.34915	269.32477	320.58598	0
192	-26.03744	284.7845	310.82194	-129.37353	-168.42969	296.17588	-220.50457	-356.38746	-367.77884	206.67218	276.6478	325.468	0
193	-35.80148	272.57945	308.38093	-119.60949	-170.8707	288.85285	-222.94558	-356.38746	-367.77884	211.5542	281.52982	330.35002	0
194	-38.24249	265.25642	303.49891	-114.72747	-170.8707	283.97083	-232.70962	-358.82847	-370.21985	211.5542	281.52982	330.35002	0
195	-30.91946	265.25642	296.17588	-117.16848	-163.54767	279.08881	-237.59164	-361.26948	-372.66086	213.99521	281.52982	332.79103	0
196	-21.15542	267.69743	288.85285	-124.49151	-153.78363	276.6478	-235.15063	-353.94645	-367.77884	221.31824	288.85285	335.23204	0
197	-18.71441	267.69743	286.41184	-124.49151	-151.34262	276.6478	-230.26861	-341.7414	-362.89682	231.08228	293.73487	337.67305	0
198	-8.95037	282.34349	291.29386	-136.69656	-148.90161	286.41184	-227.8276	-334.41837	-360.45581	238.40531	293.73487	340.11406	0
199	0.81367	294.54854	293.73487	-148.90161	-146.4606	293.73487	-227.8276	-327.09534	-360.45581	243.28733	293.73487	340.11406	0
200	13.83239	304.31258	291.29386	-158.66565	-139.13757	298.61689	-227.8276	-327.09534	-360.45581	245.72834	293.73487	337.67305	0
201	16.2734	311.63561	296.17588	-163.54767	-139.13757	303.49891	-222.94558	-322.21332	-355.57379	250.61036	296.17588	340.11406	0
202	4.06835	311.63561	308.38093	-158.66565	-151.34262	310.82194	-218.06356	-312.44928	-345.80975	257.93339	301.0579	344.99608	0
203	8.95037	311.63561	303.49891	-161.10666	-146.4606	308.38093	-220.50457	-310.00827	-343.36874	255.49238	298.61689	342.55507	0
204	13.83239	311.63561	298.61689	-163.54767	-141.57858	305.93992	-227.8276	-305.12625	-338.48672	253.05137	293.73487	337.67305	0
205	8.95037	309.1946	301.0579	-158.66565	-146.4606	305.93992	-225.38659	-297.80322	-328.72268	253.05137	291.29386	332.79103	0
206	0.81367	301.87157	301.0579	-151.34262	-148.90161	301.0579	-222.94558	-290.48019	-321.39965	253.05137	286.41184	327.90901	0
207	-1.62734	287.22551	288.85285	-144.01959	-144.01959	286.41184	-220.50457	-285.59817	-316.51763	257.93339	281.52982	323.02699	0
208	-1.62734	282.34349	283.97083	-141.57858	-141.57858	281.52982	-215.62255	-278.27514	-309.1946	260.3744	274.20679	315.70396	0
209	0.81367	282.34349	281.52982	-141.57858	-139.13757	281.52982	-213.18154	-273.39312	-309.1946	257.93339	264.44275	308.38093	0
210	4.06835	282.34349	279.08881	-144.01959	-136.69656	281.52982	-208.29952	-270.95211	-309.1946	253.05137	259.56073	303.49891	0
211	11.39138	282.34349	271.76578	-146.4606	-129.37353	276.6478	-198.53548	-261.18807	-301.87157	250.61036	257.11972	303.49891	0
212	26.03744	287.22551	262.00174	-156.22464	-117.16848	274.20679	-188.77144	-248.98302	-292.10753	245.72834	257.11972	301.0579	0
213	43.12451	301.87157	259.56073	-173.31171	-107.40444	281.52982	-176.56639	-234.33696	-275.02046	238.40531	257.11972	298.61689	0
214	62.65259	306.75359	244.91467	-185.51676	-90.31737	276.6478	-169.24336	-217.24989	-262.81541	231.08228	249.79669	291.29386	0
215	82.18067	304.31258	222.94558	-192.83979	-70.78929	264.44275	-161.92033	-205.04484	-253.05137	226.20026	244.91467	283.97083	0
216	87.06269	294.54854	208.29952	-190.39878	-61.02525	252.2377	-147.27427	-187.95777	-235.9643	226.20026	244.91467	279.08881	0
217	87.06269	282.34349	196.09447	-185.51676	-53.70222	240.03265	-139.95124	-178.19373	-226.20026	226.20026	235.15063	269.32477	0
218	82.18067	262.81541	181.44841	-173.31171	-48.8202	222.94558	-135.06922	-168.42969	-218.87723	221.31824	222.94558	254.67871	0
219	69.97562	231.08228	161.92033	-151.34262	-46.37919	196.09447	-130.1872	-158.66565	-211.5542	218.87723	210.74053	242.47366	0
220	62.65259	206.67218	144.83326	-134.25555	-41.49717	176.56639	-125.30518	-151.34262	-206.67218	211.5542	198.53548	227.8276	0
221	52.88855	189.58511	137.51023	-122.0505	-41.49717	164.36134	-117.98215	-139.13757	-194.46713	201.79016	188.77144	215.62255	0
222	48.00653	174.93905	127.74619	-112.28646	-39.05616	152.15629	-108.21811	-124.49151	-182.26208	189.58511	174.12538	200.97649	0
223	52.88855	165.17501	113.10013	-109.84545	-29.29212	139.95124	-105.7771	-112.28646	-172.49804	170.05703	157.03831	183.88942	0
224	57.77057	157.85198	100.89508	-107.40444	-21.96909	130.1872	-93.57205	-87.87636	-155.41097	155.41097	142.39225	171.68437	0
225	65.0936	152.96996	88.69003	-109.84545	-12.20505	120.42316	-81.367	-68.34828	-138.3239	143.20592	125.30518	157.03831	0
226	62.65259	140.76491	78.92599	-102.52242	-7.32303	110.65912	-69.16195	-48.8202	-123.67784	133.44188	108.21811	142.39225	0
227	50.44754	113.9138	64.27993	-82.99434	-7.32303	88.69003	-56.9569	-34.17414	-111.47279	123.67784	91.13104	122.86417	0
228	30.91946	84.62168	54.51589	-58.58424	-12.20505	69.16195	-49.63387	-21.96909	-106.59077	109.03178	66.72094	100.89508	0
229	13.83239	60.21158	47.19286	-36.61515	-17.08707	54.51589	-39.86983	-9.76404	-96.82673	96.82673	49.63387	83.80801	0
230	8.95037	45.56552	37.42882	-26.85111	-14.64606	42.31084	-27.66478	4.88202	-82.18067	89.5037	37.42882	71.60296	0
231	8.95037	38.24249	30.10579	-24.4101	-9.76404	34.98781	-15.45973	20.34175	-65.0936	79.73966	25.22377	59.39791	0
232	0.81367	33.36047	32.5468	-17.08707	-14.64606	32.5468	-3.25468	39.86983	-48.00653	67.53461	13.01872	49.63387	0
233	6.50936	28.47845	22.78276	-17.08707	-7.32303	25.22377	2.44101	56.9569	-30.91946	50.44754	0	34.98781	0
234	16.2734	23.59643	8.1367	-19.52808	5.69569	15.45973	9.76404	76.48498	-17.90074	35.80148	-14.64606	17.90074	0
235	23.59643	26.03744	3.25468	-24.4101	10.57771	15.45973	19.52808	100.89508	4.06835	30.91946	-24.4101	10.57771	0
236	26.03744	21.15542	-4.88202	-24.4101	15.45973	8.1367	31.73313	122.86417	26.03744	23.59643	-34.17414	2.44101	0
237	21.15542	0.81367	-19.52808	-12.20505	20.34175	-9.76404	36.61515	135.06922	35.80148	18.71441	-46.37919	-7.32303	0
238	11.39138	-13.83239	-24.4101	0.81367	17.90074	-19.52808	41.49717	144.83326	45.56552	11.39138	-61.02525	-19.52808	0
239	0.81367	-28.47845	-29.29212	13.01872	15.45973	-29.29212	48.8202	157.03831	55.32956	8.95037	-68.34828	-24.4101	0
240	-4.06835	-30.91946	-26.85111	15.45973	10.57771	-29.29212	56.14323	161.92033	65.0936	4.06835	-75.67131	-29.29212	0
241	-11.39138	-30.91946	-19.52808	20.34175	3.25468	-26.85111	63.46626	166.80235	74.85764	-3.25468	-82.99434	-34.17414	0
242	-16.2734	-43.12451	-26.85111	27.66478	5.69569	-36.61515	68.34828	169.24336	79.73966	-13.83239	-92.75838	-43.93818	0
243	-23.59643	-50.44754	-26.85111	34.98781	0	-39.05616	70.78929	174.12538	84.62168	-26.03744	-104.96343	-53.70222	0
244	-30.91946	-50.44754	-19.52808	39.86983	-7.32303	-36.61515	73.2303	181.44841	89.5037	-35.80148	-112.28646	-65.90727	0
245	-26.03744	-55.32956	-29.29212	39.86983	0	-43.93818	78.11232	186.33043	94.38572	-43.12451	-119.60949	-75.67131	0
246	-13.83239	-62.65259	-48.8202	37.42882	17.90074	-56.14323	85.43535	196.09447	101.70875	-48.00653	-122.0505	-80.55333	0
247	-8.95037	-62.65259	-53.70222	34.98781	22.78276	-58.58424	92.75838	200.97649	106.59077	-43.12451	-122.0505	-82.99434	0
248	-6.50936	-69.97562	-63.46626	37.42882	27.66478	-68.34828	95.19939	203.4175	106.59077	-43.12451	-126.93252	-85.43535	0
249	-8.95037	-79.73966	-70.78929	42.31084	30.10579	-75.67131	95.19939	200.97649	106.59077	-43.12451	-126.93252	-90.31737	0
250	-1.62734	-91.94471	-90.31737	44.75185	44.75185	-92.75838	95.19939	196.09447	104.14976	-45.56552	-129.37353	-90.31737	0
251	0.81367	-104.14976	-104.96343	49.63387	52.07488	-104.96343	92.75838	191.21245	106.59077	-45.56552	-129.37353	-87.87636	0
252	-6.50936	-109.03178	-102.52242	56.9569	47.19286	-107.40444	90.31737	186.33043	106.59077	-50.44754	-131.81454	-87.87636	0
253	-28.47845	-123.67784	-95.19939	74.04397	32.5468	-109.84545	85.43535	181.44841	104.14976	-57.77057	-139.13757	-95.19939	0
254	-35.80148	-133.44188	-97.6404	83.80801	30.10579	-117.16848	78.11232	179.0074	99.26774	-69.97562	-148.90161	-104.96343	0
255	-35.80148	-133.44188	-97.6404	83.80801	30.10579	-117.16848	75.67131	179.0074	96.82673	-72.41663	-153.78363	-112.28646	0
256	-33.36047	-133.44188	-100.08141	81.367	32.5468	-117.16848	75.67131	183.88942	99.26774	-74.85764	-158.66565	-117.16848	1500	QRS+0
257	-33.36047	-126.11885	-92.75838	78.92599	30.10579	-109.84545	75.67131	181.44841	96.82673	-74.85764	-163.54767	-124.49151	0
258	-35.80148	-116.35481	-80.55333	74.04397	22.78276	-100.08141	75.67131	179.0074	91.94471	-77.29865	-168.42969	-129.37353	0
259	-33.36047	-106.59077	-73.2303	69.16195	20.34175	-90.31737	78.11232	181.44841	91.94471	-74.85764	-168.42969	-129.37353	0
260	-28.47845	-99.26774	-70.78929	61.83892	20.34175	-85.43535	78.11232	176.56639	91.94471	-77.29865	-170.8707	-136.69656	0
261	-16.2734	-91.94471	-75.67131	52.07488	30.10579	-85.43535	78.11232	171.68437	91.94471	-82.18067	-173.31171	-139.13757	0
262	-26.03744	-91.94471	-65.90727	56.9569	20.34175	-80.55333	75.67131	171.68437	91.94471	-87.06269	-173.31171	-141.57858	0
263	-52.88855	-113.9138	-61.02525	81.367	3.25468	-87.87636	78.11232	176.56639	96.82673	-89.5037	-173.31171	-141.57858	0
264	-74.85764	-135.88289	-61.02525	103.33609	-7.32303	-100.08141	80.55333	186.33043	101.70875	-91.94471	-173.31171	-144.01959	0
265	-82.18067	-152.96996	-70.78929	115.54114	-7.32303	-112.28646	82.99434	191.21245	104.14976	-91.94471	-175.75272	-146.4606	0
266	-84.62168	-162.734	-78.11232	122.86417	-4.88202	-122.0505	80.55333	196.09447	106.59077	-96.82673	-178.19373	-153.78363	0
267	-99.26774	-172.49804	-73.2303	135.06922	-14.64606	-124.49151	87.87636	203.4175	116.35481	-87.06269	-173.31171	-151.34262	0
268	-99.26774	-179.82107	-80.55333	137.51023	-9.76404	-131.81454	92.75838	210.74053	121.23683	-77.29865	-170.8707	-148.90161	0
269	-74.85764	-160.29299	-85.43535	115.54114	5.69569	-124.49151	100.08141	215.62255	126.11885	-72.41663	-165.98868	-146.4606	0
270	-43.12451	-135.88289	-92.75838	88.69003	25.22377	-114.72747	109.84545	222.94558	135.88289	-62.65259	-156.22464	-139.13757	0
271	-28.47845	-118.79582	-90.31737	71.60296	30.10579	-104.96343	117.16848	227.8276	143.20592	-57.77057	-148.90161	-131.81454	0
272	-18.71441	-106.59077	-87.87636	61.83892	34.98781	-97.6404	117.16848	230.26861	143.20592	-62.65259	-146.4606	-131.81454	0
273	-1.62734	-99.26774	-97.6404	49.63387	47.19286	-100.08141	117.16848	232.70962	143.20592	-67.53461	-146.4606	-131.81454	0
274	0.81367	-96.82673	-97.6404	47.19286	49.63387	-97.6404	117.16848	240.03265	148.08794	-69.97562	-148.90161	-131.81454	0
275	-4.06835	-89.5037	-85.43535	44.75185	39.86983	-87.87636	114.72747	242.47366	148.08794	-74.85764	-156.22464	-139.13757	0
276	-11.39138	-94.38572	-82.99434	52.07488	34.98781	-90.31737	109.84545	240.03265	145.64693	-84.62168	-165.98868	-151.34262	0
277	-11.39138	-99.26774	-87.87636	54.51589	37.42882	-95.19939	104.96343	232.70962	138.3239	-89.5037	-178.19373	-163.54767	0
278	-11.39138	-106.59077	-95.19939	56.9569	42.31084	-102.52242	109.84545	232.70962	135.88289	-87.06269	-180.63474	-168.42969	0
279	-30.91946	-111.47279	-80.55333	69.16195	25.22377	-97.6404	117.16848	237.59164	140.76491	-79.73966	-178.19373	-168.42969	0
280	-35.80148	-106.59077	-70.78929	69.16195	17.90074	-90.31737	124.49151	242.47366	145.64693	-74.85764	-175.75272	-165.98868	0
281	-23.59643	-109.03178	-85.43535	64.27993	30.10579	-97.6404	124.49151	244.91467	145.64693	-77.29865	-173.31171	-163.54767	0
282	-21.15542	-123.67784	-102.52242	71.60296	39.86983	-114.72747	122.0505	244.91467	143.20592	-82.18067	-175.75272	-165.98868	0
283	-30.91946	-135.88289	-104.96343	81.367	37.42882	-122.0505	122.0505	254.67871	148.08794	-82.18067	-170.8707	-161.10666	0
284	-40.6835	-152.96996	-112.28646	96.01306	34.98781	-134.25555	122.0505	266.88376	152.96996	-82.18067	-168.42969	-158.66565	0
285	-40.6835	-160.29299	-119.60949	98.45407	39.86983	-141.57858	114.72747	269.32477	155.41097	-87.06269	-170.8707	-161.10666	0
286	-23.59643	-167.61602	-144.01959	93.57205	59.39791	-156.22464	109.84545	269.32477	152.96996	-91.94471	-175.75272	-165.98868	0
287	-26.03744	-167.61602	-141.57858	96.01306	56.9569	-156.22464	112.28646	269.32477	155.41097	-87.06269	-175.75272	-165.98868	0
288	-18.71441	-152.96996	-134.25555	83.80801	56.9569	-144.01959	119.60949	276.6478	160.29299	-74.85764	-165.98868	-158.66565	0
289	-1.62734	-138.3239	-136.69656	69.16195	66.72094	-139.13757	122.0505	274.20679	160.29299	-67.53461	-163.54767	-156.22464	0
290	8.95037	-121.23683	-129.37353	54.51589	69.16195	-124.49151	117.16848	264.44275	152.96996	-67.53461	-163.54767	-158.66565	0
291	11.39138	-104.14976	-114.72747	44.75185	61.83892	-109.84545	114.72747	254.67871	148.08794	-72.41663	-163.54767	-163.54767	0
292	8.95037	-96.82673	-104.96343	42.31084	56.9569	-100.08141	112.28646	252.2377	145.64693	-72.41663	-163.54767	-161.10666	0
293	23.59643	-89.5037	-112.28646	32.5468	66.72094	-100.08141	112.28646	252.2377	150.52895	-69.97562	-158.66565	-158.66565	0
294	30.91946	-87.06269	-117.16848	27.66478	74.04397	-102.52242	112.28646	254.67871	150.52895	-72.41663	-158.66565	-158.66565	0
295	28.47845	-89.5037	-117.16848	30.10579	71.60296	-102.52242	114.72747	259.56073	155.41097	-72.41663	-158.66565	-158.66565	0
296	21.15542	-87.06269	-107.40444	32.5468	64.27993	-97.6404	114.72747	259.56073	157.85198	-69.97562	-161.10666	-158.66565	0
297	23.59643	-87.06269	-109.84545	30.10579	66.72094	-97.6404	117.16848	259.56073	160.29299	-65.0936	-161.10666	-158.66565	0
298	35.80148	-79.73966	-114.72747	20.34175	74.04397	-97.6404	119.60949	262.00174	160.29299	-60.21158	-156.22464	-156.22464	0
299	23.59643	-79.73966	-102.52242	27.66478	61.83892	-90.31737	117.16848	257.11972	155.41097	-60.21158	-156.22464	-156.22464	0
300	16.2734	-89.5037	-104.96343	34.98781	59.39791	-97.6404	112.28646	244.91467	145.64693	-67.53461	-161.10666	-161.10666	0
301	4.06835	-106.59077	-109.84545	49.63387	56.9569	-107.40444	107.40444	237.59164	138.3239	-74.85764	-161.10666	-163.54767	0
302	6.50936	-116.35481	-122.0505	54.51589	64.27993	-119.60949	102.52242	232.70962	135.88289	-79.73966	-161.10666	-163.54767	0
303	16.2734	-121.23683	-136.69656	52.07488	76.48498	-129.37353	100.08141	230.26861	131.00087	-84.62168	-161.10666	-163.54767	0
304	16.2734	-126.11885	-141.57858	54.51589	78.92599	-134.25555	102.52242	232.70962	131.00087	-84.62168	-158.66565	-163.54767	0
305	18.71441	-131.00087	-148.90161	54.51589	83.80801	-139.13757	104.96343	232.70962	133.44188	-82.18067	-156.22464	-163.54767	0
306	16.2734	-133.44188	-148.90161	56.9569	81.367	-141.57858	107.40444	235.15063	133.44188	-82.18067	-156.22464	-165.98868	0
307	11.39138	-128.55986	-139.13757	56.9569	74.04397	-134.25555	109.84545	230.26861	131.00087	-74.85764	-156.22464	-168.42969	0
308	18.71441	-128.55986	-146.4606	54.51589	81.367	-136.69656	109.84545	222.94558	126.11885	-74.85764	-161.10666	-170.8707	0
309	16.2734	-123.67784	-139.13757	52.07488	76.48498	-131.81454	112.28646	220.50457	123.67784	-72.41663	-161.10666	-170.8707	0
310	11.39138	-113.9138	-124.49151	49.63387	66.72094	-119.60949	112.28646	210.74053	118.79582	-72.41663	-161.10666	-170.8707	0
311	13.83239	-99.26774	-112.28646	42.31084	61.83892	-104.96343	109.84545	200.97649	109.03178	-77.29865	-163.54767	-170.8707	0
312	18.71441	-87.06269	-104.96343	32.5468	61.83892	-95.19939	107.40444	196.09447	104.14976	-82.18067	-163.54767	-165.98868	0
313	30.91946	-89.5037	-119.60949	27.66478	74.04397	-104.96343	102.52242	191.21245	99.26774	-89.5037	-165.98868	-165.98868	0
314	28.47845	-82.18067	-109.84545	25.22377	69.16195	-95.19939	100.08141	193.65346	99.26774	-91.94471	-165.98868	-165.98868	0
315	21.15542	-89.5037	-109.84545	32.5468	64.27993	-100.08141	95.19939	196.09447	101.70875	-91.94471	-165.98868	-165.98868	0
316	21.15542	-106.59077	-126.93252	42.31084	74.04397	-117.16848	82.99434	193.65346	99.26774	-94.38572	-173.31171	-170.8707	0
317	30.91946	-123.67784	-153.78363	44.75185	91.13104	-139.13757	73.2303	186.33043	96.82673	-91.94471	-178.19373	-175.75272	0
318	35.80148	-135.88289	-170.8707	49.63387	103.33609	-153.78363	70.78929	183.88942	94.38572	-87.06269	-180.63474	-178.19373	0
319	33.36047	-143.20592	-175.75272	54.51589	103.33609	-158.66565	65.90727	176.56639	87.06269	-84.62168	-180.63474	-183.07575	0
320	30.91946	-150.52895	-180.63474	59.39791	105.7771	-165.98868	63.46626	166.80235	82.18067	-82.18067	-180.63474	-185.51676	0
321	30.91946	-160.29299	-190.39878	64.27993	110.65912	-175.75272	61.02525	159.47932	74.85764	-84.62168	-183.07575	-185.51676	0
322	23.59643	-152.96996	-175.75272	64.27993	98.45407	-163.54767	61.02525	154.5973	72.41663	-89.5037	-183.07575	-183.07575	0
323	26.03744	-140.76491	-165.98868	56.9569	96.01306	-153.78363	63.46626	154.5973	69.97562	-94.38572	-183.07575	-183.07575	0
324	23.59643	-138.3239	-161.10666	56.9569	91.13104	-148.90161	63.46626	159.47932	69.97562	-94.38572	-183.07575	-183.07575	0
325	26.03744	-148.08794	-173.31171	59.39791	98.45407	-161.10666	65.90727	161.92033	72.41663	-94.38572	-183.07575	-183.07575	0
326	30.91946	-155.41097	-185.51676	61.83892	108.21811	-170.8707	63.46626	161.92033	74.85764	-94.38572	-183.07575	-187.95777	0
327	26.03744	-155.41097	-180.63474	64.27993	103.33609	-168.42969	61.02525	157.03831	74.85764	-91.94471	-183.07575	-192.83979	0
328	30.91946	-148.08794	-178.19373	56.9569	103.33609	-163.54767	63.46626	157.03831	79.73966	-82.18067	-178.19373	-190.39878	0
329	28.47845	-135.88289	-163.54767	52.07488	96.01306	-148.90161	63.46626	152.15629	79.73966	-77.29865	-175.75272	-185.51676	0
330	11.39138	-133.44188	-144.01959	59.39791	76.48498	-139.13757	63.46626	147.27427	79.73966	-72.41663	-173.31171	-180.63474	0
331	0.81367	-143.20592	-144.01959	69.16195	71.60296	-144.01959	61.02525	139.95124	74.85764	-74.85764	-173.31171	-178.19373	0
332	11.39138	-135.88289	-146.4606	61.83892	78.92599	-141.57858	56.14323	135.06922	69.97562	-79.73966	-178.19373	-178.19373	0
333	8.95037	-131.00087	-139.13757	59.39791	74.04397	-134.25555	56.14323	132.62821	69.97562	-84.62168	-180.63474	-178.19373	0
334	0.81367	-126.11885	-126.93252	61.83892	64.27993	-126.93252	53.70222	135.06922	72.41663	-87.06269	-180.63474	-180.63474	0
335	-13.83239	-131.00087	-117.16848	71.60296	52.07488	-124.49151	58.58424	139.95124	77.29865	-84.62168	-178.19373	-180.63474	0
336	0.81367	-140.76491	-141.57858	69.16195	71.60296	-141.57858	61.02525	144.83326	82.18067	-84.62168	-175.75272	-183.07575	0
337	16.2734	-145.64693	-161.10666	64.27993	88.69003	-153.78363	61.02525	139.95124	82.18067	-84.62168	-178.19373	-190.39878	0
338	4.06835	-148.08794	-151.34262	71.60296	76.48498	-148.90161	70.78929	147.27427	87.06269	-79.73966	-173.31171	-185.51676	0
339	-13.83239	-155.41097	-141.57858	83.80801	64.27993	-148.90161	75.67131	147.27427	87.06269	-77.29865	-173.31171	-185.51676	0
340	-13.83239	-160.29299	-146.4606	86.24902	66.72094	-153.78363	75.67131	142.39225	82.18067	-82.18067	-175.75272	-190.39878	0
341	0.81367	-155.41097	-156.22464	76.48498	78.92599	-156.22464	68.34828	132.62821	74.85764	-91.94471	-183.07575	-192.83979	0
342	13.83239	-150.52895	-163.54767	66.72094	88.69003	-156.22464	68.34828	135.06922	74.85764	-94.38572	-180.63474	-190.39878	-1500	QRS-0
343	16.2734	-128.55986	-144.01959	54.51589	78.92599	-136.69656	70.78929	139.95124	77.29865	-94.38572	-175.75272	-187.95777	0
344	35.80148	-106.59077	-141.57858	34.98781	88.69003	-124.49151	70.78929	144.83326	77.29865	-94.38572	-173.31171	-187.95777	0
345	52.88855	-96.82673	-148.90161	20.34175	100.89508	-122.0505	75.67131	149.71528	84.62168	-84.62168	-163.54767	-180.63474	0
346	60.21158	-87.06269	-146.4606	13.01872	103.33609	-117.16848	82.99434	154.5973	94.38572	-72.41663	-153.78363	-173.31171	0
347	67.53461	-84.62168	-151.34262	8.1367	108.21811	-117.16848	82.99434	149.71528	94.38572	-62.65259	-148.90161	-175.75272	0
348	65.0936	-84.62168	-148.90161	8.1367	105.7771	-117.16848	80.55333	139.95124	87.06269	-60.21158	-148.90161	-180.63474	0
349	50.44754	-101.70875	-151.34262	25.22377	100.89508	-126.93252	75.67131	130.1872	79.73966	-60.21158	-151.34262	-185.51676	0
350	30.91946	-123.67784	-153.78363	44.75185	91.13104	-139.13757	75.67131	127.74619	79.73966	-57.77057	-151.34262	-185.51676	0
351	11.39138	-135.88289	-146.4606	61.83892	78.92599	-141.57858	75.67131	127.74619	79.73966	-57.77057	-151.34262	-183.07575	0
352	11.39138	-143.20592	-153.78363	64.27993	81.367	-148.90161	73.2303	127.74619	74.85764	-65.0936	-156.22464	-187.95777	0
353	13.83239	-152.96996	-165.98868	69.16195	88.69003	-158.66565	70.78929	130.1872	74.85764	-72.41663	-161.10666	-192.83979	0
354	13.83239	-160.29299	-173.31171	71.60296	93.57205	-165.98868	68.34828	137.51023	74.85764	-72.41663	-161.10666	-192.83979	0
355	21.15542	-162.734	-183.07575	69.16195	100.89508	-173.31171	68.34828	142.39225	74.85764	-74.85764	-161.10666	-195.2808	0
356	23.59643	-160.29299	-183.07575	66.72094	103.33609	-170.8707	63.46626	139.95124	74.85764	-79.73966	-165.98868	-200.16282	0
357	28.47845	-155.41097	-183.07575	61.83892	105.7771	-168.42969	56.14323	127.74619	69.97562	-82.18067	-168.42969	-207.48585	0
358	38.24249	-140.76491	-178.19373	49.63387	108.21811	-158.66565	48.8202	117.98215	60.21158	-87.06269	-173.31171	-212.36787	0
359	43.12451	-140.76491	-183.07575	47.19286	113.10013	-161.10666	43.93818	108.21811	52.88855	-87.06269	-173.31171	-212.36787	0
360	38.24249	-131.00087	-168.42969	44.75185	103.33609	-148.90161	41.49717	103.33609	48.00653	-89.5037	-175.75272	-214.80888	0
361	26.03744	-131.00087	-156.22464	52.07488	91.13104	-144.01959	41.49717	103.33609	50.44754	-89.5037	-173.31171	-209.92686	0
362	18.71441	-143.20592	-161.10666	61.83892	88.69003	-151.34262	41.49717	105.7771	52.88855	-89.5037	-170.8707	-205.04484	0
363	26.03744	-138.3239	-163.54767	54.51589	93.57205	-151.34262	46.37919	113.10013	55.32956	-89.5037	-170.8707	-197.72181	0
364	26.03744	-145.64693	-170.8707	59.39791	98.45407	-158.66565	46.37919	117.98215	55.32956	-89.5037	-170.8707	-195.2808	0
365	21.15542	-150.52895	-170.8707	64.27993	96.01306	-161.10666	51.26121	125.30518	62.65259	-84.62168	-168.42969	-190.39878	0
366	18.71441	-145.64693	-163.54767	61.83892	91.13104	-153.78363	56.14323	135.06922	69.97562	-77.29865	-163.54767	-185.51676	0
367	26.03744	-138.3239	-163.54767	54.51589	93.57205	-151.34262	56.14323	135.06922	72.41663	-69.97562	-161.10666	-183.07575	0
368	38.24249	-106.59077	-144.01959	32.5468	91.13104	-124.49151	53.70222	130.1872	69.97562	-67.53461	-161.10666	-185.51676	0
369	38.24249	-84.62168	-122.0505	22.78276	78.92599	-102.52242	56.14323	130.1872	72.41663	-62.65259	-158.66565	-183.07575	0
370	33.36047	-69.97562	-102.52242	17.90074	66.72094	-85.43535	58.58424	132.62821	74.85764	-57.77057	-153.78363	-180.63474	0
371	30.91946	-55.32956	-85.43535	10.57771	56.9569	-70.78929	63.46626	137.51023	79.73966	-55.32956	-148.90161	-175.75272	0
372	33.36047	-40.6835	-73.2303	3.25468	52.07488	-56.14323	73.2303	147.27427	89.5037	-50.44754	-141.57858	-168.42969	0
373	50.44754	-30.91946	-80.55333	-9.76404	64.27993	-56.14323	82.99434	157.03831	99.26774	-45.56552	-134.25555	-161.10666	0
374	57.77057	-28.47845	-85.43535	-14.64606	71.60296	-56.14323	97.6404	174.12538	113.9138	-35.80148	-124.49151	-148.90161	0
375	72.41663	-23.59643	-95.19939	-24.4101	83.80801	-58.58424	107.40444	183.88942	121.23683	-26.03744	-117.16848	-141.57858	0
376	79.73966	-26.03744	-104.96343	-26.85111	91.13104	-65.90727	109.84545	186.33043	126.11885	-23.59643	-117.16848	-141.57858	0
377	87.06269	-23.59643	-109.84545	-31.73313	98.45407	-65.90727	119.60949	186.33043	131.00087	-16.2734	-114.72747	-136.69656	0
378	101.70875	-26.03744	-126.93252	-39.05616	113.10013	-75.67131	126.93252	188.77144	135.88289	-11.39138	-112.28646	-134.25555	0
379	96.82673	-33.36047	-129.37353	-31.73313	113.10013	-80.55333	129.37353	186.33043	133.44188	-11.39138	-109.84545	-134.25555	0
380	82.18067	-33.36047	-114.72747	-24.4101	98.45407	-73.2303	126.93252	181.44841	126.11885	-11.39138	-114.72747	-139.13757	0
381	65.0936	-33.36047	-97.6404	-17.08707	81.367	-65.90727	124.49151	181.44841	126.11885	-16.2734	-117.16848	-139.13757	0
382	62.65259	-26.03744	-87.87636	-19.52808	74.04397	-56.14323	131.81454	191.21245	135.88289	-13.83239	-109.84545	-134.25555	0
383	69.97562	-18.71441	-87.87636	-26.85111	78.92599	-53.70222	131.81454	196.09447	138.3239	-11.39138	-104.96343	-131.81454	0
384	82.18067	0.81367	-80.55333	-41.49717	81.367	-39.05616	124.49151	198.53548	138.3239	-11.39138	-100.08141	-126.93252	0
385	91.94471	13.83239	-78.11232	-53.70222	86.24902	-31.73313	119.60949	198.53548	140.76491	-5.69569	-92.75838	-122.0505	0
386	96.82673	16.2734	-80.55333	-56.14323	88.69003	-31.73313	114.72747	198.53548	140.76491	1.62734	-90.31737	-117.16848	0
387	99.26774	16.2734	-82.99434	-58.58424	91.13104	-34.17414	109.84545	188.77144	138.3239	6.50936	-82.99434	-114.72747	0
388	89.5037	8.95037	-80.55333	-48.8202	86.24902	-36.61515	104.96343	183.88942	135.88289	13.83239	-78.11232	-112.28646	0
389	94.38572	8.95037	-85.43535	-51.26121	91.13104	-39.05616	95.19939	171.68437	131.00087	13.83239	-75.67131	-109.84545	0
390	101.70875	13.83239	-87.87636	-58.58424	96.01306	-36.61515	85.43535	164.36134	123.67784	11.39138	-75.67131	-109.84545	0
391	94.38572	8.95037	-85.43535	-51.26121	91.13104	-39.05616	80.55333	154.5973	121.23683	8.95037	-75.67131	-112.28646	0
392	96.82673	11.39138	-85.43535	-53.70222	91.13104	-36.61515	73.2303	147.27427	118.79582	6.50936	-73.2303	-112.28646	0
393	106.59077	11.39138	-95.19939	-58.58424	100.89508	-41.49717	63.46626	142.39225	113.9138	4.06835	-73.2303	-112.28646	0
394	126.11885	6.50936	-119.60949	-65.90727	122.86417	-56.14323	56.14323	137.51023	109.03178	-0.81367	-75.67131	-112.28646	0
395	135.88289	4.06835	-131.81454	-70.78929	135.06922	-63.46626	51.26121	137.51023	109.03178	1.62734	-75.67131	-112.28646	0
396	118.79582	-4.06835	-122.0505	-58.58424	120.42316	-63.46626	48.8202	135.06922	109.03178	4.06835	-73.2303	-112.28646	0
397	116.35481	-4.06835	-119.60949	-56.14323	117.98215	-61.02525	48.8202	130.1872	111.47279	8.95037	-70.78929	-109.84545	0
398	116.35481	4.06835	-112.28646	-61.02525	115.54114	-53.70222	46.37919	127.74619	109.03178	8.95037	-70.78929	-109.84545	0
399	116.35481	6.50936	-109.84545	-61.02525	113.10013	-51.26121	51.26121	130.1872	113.9138	13.83239	-63.46626	-104.96343	0
400	104.14976	0.81367	-102.52242	-53.70222	103.33609	-51.26121	53.70222	135.06922	116.35481	16.2734	-61.02525	-102.52242	0
401	94.38572	0.81367	-92.75838	-48.8202	93.57205	-46.37919	53.70222	135.06922	121.23683	18.71441	-56.14323	-102.52242	0
402	96.82673	11.39138	-85.43535	-53.70222	91.13104	-36.61515	51.26121	137.51023	123.67784	21.15542	-53.70222	-97.6404	0
403	99.26774	23.59643	-75.67131	-61.02525	88.69003	-26.85111	48.8202	137.51023	121.23683	18.71441	-53.70222	-95.19939	0
404	96.82673	21.15542	-75.67131	-58.58424	86.24902	-26.85111	53.70222	142.39225	123.67784	21.15542	-48.8202	-90.31737	0
405	94.38572	13.83239	-80.55333	-53.70222	88.69003	-34.17414	56.14323	137.51023	118.79582	23.59643	-48.8202	-90.31737	0
406	99.26774	18.71441	-80.55333	-58.58424	91.13104	-31.73313	58.58424	132.62821	113.9138	21.15542	-51.26121	-92.75838	0
407	109.03178	26.03744	-82.99434	-68.34828	96.01306	-29.29212	61.02525	122.86417	104.14976	18.71441	-53.70222	-97.6404	0
408	99.26774	18.71441	-80.55333	-58.58424	91.13104	-31.73313	61.02525	110.65912	91.94471	8.95037	-63.46626	-102.52242	0
409	89.5037	-6.50936	-95.19939	-41.49717	91.13104	-51.26121	61.02525	100.89508	82.18067	1.62734	-70.78929	-109.84545	0
410	87.06269	-30.91946	-117.16848	-29.29212	100.89508	-73.2303	61.02525	91.13104	69.97562	-8.1367	-78.11232	-117.16848	0
411	84.62168	-40.6835	-124.49151	-21.96909	103.33609	-82.99434	56.14323	86.24902	65.0936	-18.71441	-87.87636	-126.93252	0
412	84.62168	-48.00653	-131.81454	-19.52808	108.21811	-90.31737	53.70222	81.367	60.21158	-28.47845	-95.19939	-134.25555	0
413	69.97562	-60.21158	-129.37353	-4.88202	98.45407	-95.19939	48.8202	78.92599	57.77057	-38.24249	-102.52242	-141.57858	0
414	72.41663	-62.65259	-134.25555	-4.88202	103.33609	-97.6404	46.37919	76.48498	55.32956	-43.12451	-109.84545	-148.90161	0
415	77.29865	-57.77057	-134.25555	-9.76404	105.7771	-95.19939	43.93818	76.48498	52.88855	-43.12451	-112.28646	-151.34262	0
416	65.0936	-62.65259	-126.93252	-2.44101	96.01306	-95.19939	34.17414	71.60296	48.00653	-48.00653	-119.60949	-161.10666	0
417	52.88855	-67.53461	-119.60949	5.69569	86.24902	-92.75838	26.85111	59.39791	38.24249	-50.44754	-126.93252	-168.42969	0
418	45.56552	-74.85764	-119.60949	13.01872	81.367	-97.6404	21.96909	52.07488	28.47845	-52.88855	-126.93252	-173.31171	0
419	40.6835	-74.85764	-114.72747	15.45973	76.48498	-95.19939	17.08707	47.19286	21.15542	-55.32956	-129.37353	-175.75272	0
420	30.91946	-82.18067	-112.28646	25.22377	71.60296	-97.6404	12.20505	39.86983	13.83239	-57.77057	-129.37353	-175.75272	0
421	33.36047	-87.06269	-119.60949	25.22377	76.48498	-102.52242	4.88202	32.5468	4.06835	-65.0936	-131.81454	-180.63474	0
422	43.12451	-91.94471	-134.25555	22.78276	88.69003	-112.28646	2.44101	30.10579	1.62734	-69.97562	-134.25555	-180.63474	0
423	40.6835	-96.82673	-136.69656	27.66478	88.69003	-117.16848	4.88202	32.5468	1.62734	-67.53461	-129.37353	-178.19373	0
424	30.91946	-113.9138	-144.01959	39.86983	86.24902	-129.37353	7.32303	37.42882	1.62734	-65.0936	-126.93252	-175.75272	0
425	21.15542	-133.44188	-153.78363	54.51589	86.24902	-144.01959	9.76404	37.42882	1.62734	-62.65259	-129.37353	-178.19373	0
426	13.83239	-143.20592	-156.22464	64.27993	83.80801	-148.90161	7.32303	34.98781	1.62734	-65.0936	-134.25555	-185.51676	0
427	0.81367	-157.85198	-158.66565	76.48498	78.92599	-158.66565	7.32303	30.10579	-3.25468	-62.65259	-136.69656	-187.95777	0
428	-21.15542	-174.93905	-153.78363	96.01306	66.72094	-165.98868	4.88202	22.78276	-5.69569	-62.65259	-136.69656	-190.39878	0
429	-28.47845	-184.70309	-156.22464	105.7771	64.27993	-170.8707	2.44101	17.90074	-10.57771	-67.53461	-139.13757	-195.2808	0
430	-26.03744	-177.38006	-151.34262	100.89508	61.83892	-165.98868	-0.81367	17.90074	-10.57771	-69.97562	-139.13757	-195.2808	0
431	-8.95037	-152.96996	-144.01959	78.92599	66.72094	-148.90161	-0.81367	17.90074	-10.57771	-69.97562	-139.13757	-195.2808	0
432	4.06835	-131.00087	-134.25555	61.83892	69.16195	-131.81454	-0.81367	20.34175	-5.69569	-69.97562	-134.25555	-190.39878	0
433	16.2734	-116.35481	-131.81454	49.63387	74.04397	-124.49151	2.44101	25.22377	-0.81367	-69.97562	-129.37353	-187.95777	0
434	21.15542	-109.03178	-129.37353	42.31084	74.04397	-119.60949	12.20505	34.98781	4.06835	-65.0936	-122.0505	-183.07575	0
435	28.47845	-91.94471	-119.60949	30.10579	74.04397	-104.96343	19.52808	42.31084	8.95037	-60.21158	-117.16848	-178.19373	0
436	23.59643	-89.5037	-112.28646	32.5468	66.72094	-100.08141	24.4101	44.75185	8.95037	-57.77057	-114.72747	-175.75272	0
437	26.03744	-101.70875	-126.93252	37.42882	76.48498	-114.72747	19.52808	34.98781	-0.81367	-67.53461	-124.49151	-185.51676	0
438	8.95037	-121.23683	-129.37353	54.51589	69.16195	-124.49151	19.52808	32.5468	-8.1367	-72.41663	-129.37353	-192.83979	0
439	-4.06835	-135.88289	-131.81454	69.16195	64.27993	-134.25555	24.4101	37.42882	-8.1367	-77.29865	-131.81454	-195.2808	0
440	-16.2734	-150.52895	-134.25555	81.367	59.39791	-144.01959	34.17414	49.63387	-3.25468	-82.18067	-136.69656	-200.16282	0
441	-6.50936	-148.08794	-141.57858	76.48498	66.72094	-146.4606	41.49717	69.16195	6.50936	-87.06269	-141.57858	-205.04484	0
442	0.81367	-135.88289	-136.69656	66.72094	69.16195	-136.69656	53.70222	98.45407	23.59643	-91.94471	-146.4606	-209.92686	0
443	4.06835	-118.79582	-122.0505	56.9569	61.83892	-119.60949	80.55333	144.83326	55.32956	-89.5037	-144.01959	-209.92686	0
444	0.81367	-109.03178	-109.84545	52.07488	54.51589	-109.84545	112.28646	196.09447	87.06269	-84.62168	-141.57858	-207.48585	0
445	6.50936	-106.59077	-112.28646	49.63387	59.39791	-109.84545	148.90161	254.67871	128.55986	-77.29865	-141.57858	-207.48585	0
446	8.95037	-104.14976	-112.28646	47.19286	59.39791	-107.40444	185.51676	308.38093	170.05703	-69.97562	-144.01959	-209.92686	0
447	16.2734	-99.26774	-114.72747	39.86983	64.27993	-107.40444	219.6909	352.31911	206.67218	-60.21158	-144.01959	-214.80888	0
448	16.2734	-104.14976	-119.60949	42.31084	66.72094	-112.28646	248.98302	391.37527	248.16935	-48.00653	-144.01959	-219.6909	0
449	26.03744	-106.59077	-131.81454	39.86983	78.92599	-119.60949	268.5111	423.1084	301.87157	-28.47845	-136.69656	-222.13191	0
450	60.21158	-89.5037	-148.90161	13.01872	103.33609	-119.60949	278.27514	464.60557	387.30692	11.39138	-117.16848	-209.92686	0
451	109.03178	-52.88855	-161.10666	-29.29212	135.06922	-107.40444	273.39312	513.42577	504.4754	72.41663	-78.11232	-187.95777	0
452	179.82107	6.50936	-173.31171	-92.75838	176.56639	-82.99434	253.86504	562.24597	648.49499	150.52895	-29.29212	-156.22464	0
453	248.16935	87.06269	-161.10666	-168.42969	205.85851	-36.61515	229.45494	618.3892	819.36569	253.05137	39.86983	-107.40444	0
454	321.39965	179.82107	-141.57858	-251.42403	232.70962	20.34175	195.2808	676.97344	1009.76447	375.10187	122.86417	-46.37919	0
455	389.74793	279.90248	-109.84545	-334.41837	249.79669	86.24902	151.34262	728.23465	1197.72224	504.4754	210.74053	20.34175	0
456	445.89116	372.66086	-73.2303	-410.08968	259.56073	149.71528	109.84545	757.52677	1351.50587	619.20287	293.73487	83.80801	0
457	480.0653	448.33217	-31.73313	-463.7919	257.11972	208.29952	75.67131	759.96778	1449.14627	702.19721	357.20113	132.62821	0
458	497.15237	502.03439	5.69569	-500.40705	247.35568	254.67871	53.70222	733.11667	1488.20243	746.13539	391.37527	161.92033	0
459	487.38833	528.8855	42.31084	-507.73008	222.94558	286.41184	26.85111	652.56334	1441.82324	746.13539	401.13931	176.56639	0
460	433.68611	506.91641	74.04397	-471.11493	181.44841	291.29386	-10.57771	498.77971	1288.03961	697.31519	381.61123	166.80235	0
461	343.36874	450.77318	108.21811	-397.88463	117.98215	279.08881	-47.19286	276.6478	1017.0875	606.99782	342.55507	147.27427	0
462	221.31824	379.98389	159.47932	-300.24423	32.5468	269.32477	-91.13104	9.76404	660.70004	482.50631	286.41184	115.54114	0
463	84.62168	296.98955	213.18154	-190.39878	-63.46626	254.67871	-142.39225	-273.39312	282.34349	350.69177	225.38659	81.367	0
464	-33.36047	211.5542	244.91467	-90.31737	-139.13757	227.8276	-205.85851	-549.22725	-82.18067	231.08228	171.68437	54.51589	0
465	-148.08794	135.88289	283.97083	5.69569	-214.80888	208.29952	-264.44275	-786.00522	-406.835	123.67784	122.86417	27.66478	0
466	-233.52329	72.41663	305.93992	78.92599	-268.5111	188.77144	-310.82194	-956.87592	-663.14105	35.80148	81.367	4.88202	0
467	-284.7845	26.03744	310.82194	127.74619	-297.80322	166.80235	-337.67305	-1047.19329	-821.8067	-30.91946	47.19286	-17.08707	0
468	-294.54854	6.50936	301.0579	142.39225	-297.80322	152.15629	-354.76012	-1069.16238	-890.15498	-79.73966	15.45973	-39.05616	0
469	-267.69743	0.81367	269.32477	132.62821	-268.5111	135.06922	-354.76012	-1034.98824	-887.71397	-113.9138	-9.76404	-63.46626	0
470	-262.81541	6.50936	269.32477	127.74619	-266.07009	137.51023	-332.79103	-964.19895	-846.2168	-138.3239	-29.29212	-82.99434	0
471	-262.81541	8.95037	271.76578	125.30518	-266.07009	139.95124	-296.17588	-876.32259	-785.19155	-152.96996	-41.49717	-97.6404	0
472	-238.40531	8.95037	247.35568	113.10013	-241.65999	127.74619	-257.11972	-781.1232	-716.84327	-155.41097	-46.37919	-104.96343	0
473	-216.43622	13.83239	230.26861	100.89508	-222.13191	120.42316	-215.62255	-681.04179	-641.17196	-155.41097	-48.8202	-112.28646	0
474	-204.23117	8.95037	213.18154	96.01306	-207.48585	110.65912	-174.12538	-578.51937	-563.05964	-143.20592	-48.8202	-117.16848	0
475	-201.79016	-11.39138	191.21245	105.7771	-197.72181	88.69003	-130.1872	-475.99695	-480.0653	-121.23683	-39.05616	-114.72747	0
476	-184.70309	-35.80148	149.71528	108.21811	-168.42969	56.9569	-98.45407	-395.44362	-414.15803	-101.70875	-31.73313	-114.72747	0
477	-165.17501	-55.32956	110.65912	108.21811	-139.13757	27.66478	-83.80801	-339.30039	-372.66086	-84.62168	-26.85111	-114.72747	0
478	-160.29299	-69.97562	91.13104	113.10013	-126.93252	10.57771	-71.60296	-302.68524	-345.80975	-74.85764	-21.96909	-114.72747	0
479	-157.85198	-79.73966	78.92599	117.98215	-119.60949	-2.44101	-64.27993	-278.27514	-326.28167	-65.0936	-14.64606	-114.72747	0
480	-138.3239	-72.41663	66.72094	103.33609	-102.52242	-4.88202	-64.27993	-263.62908	-318.95864	-62.65259	-14.64606	-114.72747	0
481	-113.9138	-55.32956	59.39791	83.80801	-87.87636	0	-66.72094	-258.74706	-316.51763	-67.53461	-14.64606	-119.60949	0
482	-111.47279	-50.44754	61.83892	78.92599	-87.87636	5.69569	-69.16195	-258.74706	-316.51763	-69.97562	-17.08707	-122.0505	0
483	-109.03178	-40.6835	69.16195	74.04397	-90.31737	13.01872	-69.16195	-258.74706	-316.51763	-72.41663	-19.52808	-126.93252	0
484	-99.26774	-35.80148	64.27993	66.72094	-82.99434	13.01872	-71.60296	-256.30605	-316.51763	-72.41663	-19.52808	-129.37353	0
485	-91.94471	-30.91946	61.83892	59.39791	-78.11232	15.45973	-71.60296	-251.42403	-316.51763	-69.97562	-21.96909	-131.81454	0
486	-94.38572	-38.24249	56.9569	64.27993	-75.67131	8.1367	-71.60296	-244.101	-314.07662	-65.0936	-21.96909	-134.25555	0
487	-111.47279	-48.00653	64.27993	78.92599	-87.87636	8.1367	-71.60296	-241.65999	-314.07662	-60.21158	-21.96909	-131.81454	0
488	-126.11885	-57.77057	69.16195	91.13104	-97.6404	5.69569	-71.60296	-239.21898	-316.51763	-55.32956	-19.52808	-129.37353	0
489	-118.79582	-50.44754	69.16195	83.80801	-95.19939	8.1367	-71.60296	-239.21898	-316.51763	-55.32956	-17.08707	-126.93252	0
490	-109.03178	-40.6835	69.16195	74.04397	-90.31737	13.01872	-66.72094	-231.89595	-311.63561	-45.56552	-4.88202	-117.16848	0
491	-101.70875	-35.80148	66.72094	66.72094	-85.43535	15.45973	-64.27993	-224.57292	-301.87157	-40.6835	2.44101	-107.40444	0
492	-101.70875	-33.36047	69.16195	66.72094	-85.43535	17.90074	-66.72094	-227.01393	-296.98955	-38.24249	8.1367	-102.52242	0
493	-104.14976	-28.47845	76.48498	64.27993	-90.31737	22.78276	-69.16195	-227.01393	-294.54854	-35.80148	10.57771	-102.52242	0
494	-94.38572	-16.2734	78.92599	54.51589	-87.87636	30.10579	-74.04397	-231.89595	-294.54854	-35.80148	13.01872	-102.52242	0
495	-89.5037	-13.83239	76.48498	49.63387	-82.99434	30.10579	-76.48498	-231.89595	-294.54854	-30.91946	15.45973	-102.52242	0
496	-101.70875	-21.15542	81.367	59.39791	-92.75838	30.10579	-83.80801	-236.77797	-301.87157	-30.91946	13.01872	-104.96343	0
497	-116.35481	-28.47845	88.69003	71.60296	-102.52242	30.10579	-88.69003	-246.54201	-311.63561	-33.36047	10.57771	-109.84545	0
498	-118.79582	-21.15542	98.45407	69.16195	-109.84545	37.42882	-96.01306	-253.86504	-323.84066	-35.80148	10.57771	-114.72747	0
499	-111.47279	-11.39138	100.89508	59.39791	-107.40444	44.75185	-98.45407	-256.30605	-328.72268	-35.80148	10.57771	-114.72747	0
500	-116.35481	-6.50936	110.65912	59.39791	-114.72747	52.07488	-93.57205	-253.86504	-328.72268	-33.36047	15.45973	-112.28646	0
501	-121.23683	-1.62734	120.42316	59.39791	-122.0505	59.39791	-88.69003	-248.98302	-323.84066	-28.47845	20.34175	-107.40444	0
502	-128.55986	13.83239	142.39225	56.9569	-134.25555	76.48498	-78.92599	-239.21898	-311.63561	-21.15542	34.98781	-100.08141	0
503	-123.67784	21.15542	144.83326	49.63387	-134.25555	81.367	-74.04397	-234.33696	-304.31258	-16.2734	42.31084	-95.19939	0
504	-116.35481	18.71441	135.06922	47.19286	-124.49151	76.48498	-78.92599	-234.33696	-306.75359	-16.2734	44.75185	-95.19939	0
505	-123.67784	18.71441	142.39225	52.07488	-131.81454	78.92599	-81.367	-234.33696	-306.75359	-11.39138	49.63387	-95.19939	0
506	-126.11885	18.71441	144.83326	52.07488	-134.25555	81.367	-78.92599	-234.33696	-304.31258	-0.81367	56.9569	-90.31737	0
507	-116.35481	21.15542	137.51023	47.19286	-126.93252	78.92599	-76.48498	-234.33696	-301.87157	8.95037	66.72094	-82.99434	0
508	-91.94471	33.36047	125.30518	27.66478	-107.40444	78.92599	-81.367	-244.101	-306.75359	13.83239	69.16195	-82.99434	0
509	-84.62168	45.56552	130.1872	17.90074	-107.40444	86.24902	-83.80801	-251.42403	-311.63561	18.71441	74.04397	-80.55333	0
510	-87.06269	62.65259	149.71528	10.57771	-117.16848	105.7771	-78.92599	-251.42403	-309.1946	26.03744	86.24902	-73.2303	0
511	-82.18067	74.85764	157.03831	3.25468	-119.60949	115.54114	-76.48498	-251.42403	-306.75359	28.47845	93.57205	-65.90727	0
512	-77.29865	79.73966	157.03831	-2.44101	-117.16848	117.98215	-81.367	-256.30605	-306.75359	26.03744	96.01306	-65.90727	0
513	-82.18067	74.85764	157.03831	3.25468	-119.60949	115.54114	-86.24902	-263.62908	-309.1946	26.03744	100.89508	-63.46626	0
514	-87.06269	69.97562	157.03831	8.1367	-122.0505	113.10013	-91.13104	-266.07009	-311.63561	26.03744	100.89508	-61.02525	0
515	-96.82673	57.77057	154.5973	17.90074	-124.49151	105.7771	-96.01306	-270.95211	-316.51763	26.03744	103.33609	-58.58424	0
516	-91.94471	65.0936	157.03831	13.01872	-124.49151	110.65912	-100.89508	-278.27514	-321.39965	28.47845	103.33609	-58.58424	0
517	-87.06269	77.29865	164.36134	3.25468	-124.49151	120.42316	-103.33609	-283.15716	-323.84066	35.80148	105.7771	-51.26121	0
518	-84.62168	82.18067	166.80235	0.81367	-124.49151	122.86417	-100.89508	-285.59817	-323.84066	48.00653	113.10013	-41.49717	0
519	-74.85764	91.94471	166.80235	-9.76404	-119.60949	127.74619	-98.45407	-290.48019	-326.28167	55.32956	120.42316	-34.17414	0
520	-79.73966	99.26774	179.0074	-9.76404	-129.37353	137.51023	-100.89508	-297.80322	-331.16369	60.21158	125.30518	-29.29212	0
521	-84.62168	106.59077	191.21245	-12.20505	-136.69656	147.27427	-103.33609	-300.24423	-331.16369	65.0936	135.06922	-21.96909	0
522	-89.5037	109.03178	198.53548	-9.76404	-144.01959	152.15629	-103.33609	-300.24423	-323.84066	72.41663	144.83326	-12.20505	0
523	-99.26774	101.70875	200.97649	-2.44101	-148.90161	149.71528	-103.33609	-300.24423	-323.84066	77.29865	152.15629	-4.88202	0
524	-104.14976	99.26774	203.4175	0.81367	-153.78363	149.71528	-110.65912	-300.24423	-326.28167	82.18067	154.5973	0	0
525	-101.70875	99.26774	200.97649	0.81367	-151.34262	149.71528	-117.98215	-305.12625	-331.16369	84.62168	154.5973	0	0
526	-111.47279	101.70875	213.18154	3.25468	-161.10666	157.03831	-125.30518	-307.56726	-333.6047	91.94471	154.5973	2.44101	0
527	-106.59077	111.47279	218.06356	-2.44101	-161.10666	164.36134	-127.74619	-310.00827	-333.6047	101.70875	161.92033	7.32303	0
528	-96.82673	126.11885	222.94558	-14.64606	-158.66565	174.12538	-130.1872	-314.89029	-340.92773	109.03178	164.36134	13.01872	0
529	-82.18067	145.64693	227.8276	-31.73313	-153.78363	186.33043	-139.95124	-327.09534	-350.69177	109.03178	164.36134	13.01872	0
530	-67.53461	157.85198	225.38659	-46.37919	-146.4606	191.21245	-142.39225	-331.97736	-353.13278	118.79582	171.68437	20.34175	0
531	-62.65259	167.61602	230.26861	-53.70222	-146.4606	198.53548	-137.51023	-327.09534	-348.25076	131.00087	183.88942	32.5468	0
532	-52.88855	177.38006	230.26861	-63.46626	-141.57858	203.4175	-135.06922	-324.65433	-336.04571	143.20592	198.53548	44.75185	0
533	-38.24249	189.58511	227.8276	-75.67131	-131.81454	208.29952	-137.51023	-327.09534	-333.6047	145.64693	205.85851	49.63387	0
534	-35.80148	204.23117	240.03265	-85.43535	-136.69656	220.50457	-144.83326	-329.53635	-333.6047	145.64693	210.74053	49.63387	0
535	-35.80148	211.5542	247.35568	-87.87636	-141.57858	227.8276	-147.27427	-329.53635	-333.6047	152.96996	215.62255	56.9569	0
536	-38.24249	213.99521	252.2377	-87.87636	-144.01959	232.70962	-147.27427	-327.09534	-331.16369	160.29299	222.94558	61.83892	0
537	-35.80148	223.75925	259.56073	-95.19939	-146.4606	240.03265	-157.03831	-331.97736	-333.6047	165.17501	225.38659	64.27993	0
538	-45.56552	228.64127	274.20679	-92.75838	-158.66565	249.79669	-164.36134	-341.7414	-340.92773	167.61602	225.38659	64.27993	0
539	-55.32956	231.08228	286.41184	-87.87636	-170.8707	257.11972	-174.12538	-351.50544	-350.69177	167.61602	227.8276	64.27993	0
540	-62.65259	226.20026	288.85285	-82.99434	-175.75272	257.11972	-181.44841	-356.38746	-355.57379	174.93905	232.70962	71.60296	0
541	-67.53461	211.5542	279.08881	-73.2303	-173.31171	244.91467	-186.33043	-358.82847	-355.57379	179.82107	237.59164	76.48498	0
542	-65.0936	209.11319	274.20679	-73.2303	-168.42969	240.03265	-188.77144	-358.82847	-350.69177	184.70309	244.91467	78.92599	0
543	-57.77057	223.75925	281.52982	-82.99434	-168.42969	252.2377	-186.33043	-353.94645	-343.36874	196.90814	257.11972	91.13104	0
544	-40.6835	248.16935	288.85285	-104.96343	-163.54767	266.88376	-179.0074	-346.62342	-336.04571	209.11319	269.32477	103.33609	0
545	-13.83239	277.46147	291.29386	-131.81454	-151.34262	283.97083	-171.68437	-341.7414	-328.72268	221.31824	281.52982	113.10013	0
546	-4.06835	299.43056	303.49891	-148.90161	-153.78363	301.0579	-169.24336	-339.30039	-326.28167	235.9643	288.85285	117.98215	0
547	6.50936	328.72268	323.02699	-168.42969	-158.66565	325.468	-169.24336	-336.85938	-321.39965	248.16935	298.61689	127.74619	0
548	8.95037	358.0148	349.8781	-183.07575	-170.8707	354.76012	-169.24336	-339.30039	-323.84066	257.93339	305.93992	132.62821	0
549	6.50936	367.77884	362.08315	-187.95777	-178.19373	364.52416	-174.12538	-346.62342	-326.28167	260.3744	310.82194	137.51023	0
550	8.95037	367.77884	359.64214	-187.95777	-175.75272	364.52416	-179.0074	-351.50544	-328.72268	267.69743	315.70396	139.95124	0
551	4.06835	365.33783	362.08315	-185.51676	-178.19373	364.52416	-183.88942	-351.50544	-323.84066	272.57945	320.58598	144.83326	0
552	0.81367	372.66086	371.84719	-187.95777	-185.51676	371.84719	-174.12538	-341.7414	-309.1946	287.22551	335.23204	157.03831	0
553	13.83239	370.21985	357.20113	-192.83979	-170.8707	364.52416	-174.12538	-334.41837	-299.43056	294.54854	344.99608	164.36134	0
554	18.71441	355.57379	337.67305	-187.95777	-158.66565	347.43709	-169.24336	-329.53635	-292.10753	301.87157	349.8781	171.68437	0
555	13.83239	348.25076	335.23204	-180.63474	-161.10666	342.55507	-169.24336	-324.65433	-287.22551	304.31258	352.31911	171.68437	0
556	6.50936	343.36874	337.67305	-175.75272	-165.98868	340.11406	-169.24336	-322.21332	-282.34349	311.63561	354.76012	174.12538	0
557	4.06835	343.36874	340.11406	-173.31171	-168.42969	342.55507	-171.68437	-322.21332	-279.90248	314.07662	352.31911	174.12538	0
558	16.2734	343.36874	327.90901	-180.63474	-156.22464	335.23204	-174.12538	-322.21332	-284.7845	316.51763	347.43709	171.68437	0
559	33.36047	350.69177	318.14497	-192.83979	-141.57858	335.23204	-176.56639	-324.65433	-289.66652	314.07662	347.43709	169.24336	0
560	33.36047	355.57379	323.02699	-195.2808	-144.01959	340.11406	-176.56639	-317.3313	-289.66652	314.07662	347.43709	169.24336	0
561	48.00653	362.89682	315.70396	-205.04484	-134.25555	340.11406	-174.12538	-310.00827	-282.34349	316.51763	349.8781	171.68437	0
562	72.41663	377.54288	305.93992	-224.57292	-117.16848	342.55507	-169.24336	-297.80322	-272.57945	318.95864	354.76012	174.12538	0
563	79.73966	377.54288	298.61689	-229.45494	-109.84545	337.67305	-169.24336	-290.48019	-265.25642	318.95864	354.76012	174.12538	0
564	67.53461	367.77884	301.0579	-217.24989	-117.16848	335.23204	-166.80235	-283.15716	-260.3744	316.51763	354.76012	174.12538	0
565	43.12451	350.69177	308.38093	-197.72181	-131.81454	330.35002	-166.80235	-278.27514	-257.93339	314.07662	347.43709	169.24336	0
566	30.91946	340.92773	310.82194	-185.51676	-139.13757	325.468	-169.24336	-278.27514	-257.93339	304.31258	337.67305	159.47932	0
567	30.91946	343.36874	313.26295	-187.95777	-141.57858	327.90901	-169.24336	-275.83413	-257.93339	296.98955	327.90901	152.15629	0
568	26.03744	336.04571	310.82194	-180.63474	-141.57858	323.02699	-166.80235	-273.39312	-257.93339	292.10753	320.58598	147.27427	0
569	26.03744	333.6047	308.38093	-180.63474	-141.57858	320.58598	-164.36134	-268.5111	-255.49238	287.22551	315.70396	139.95124	0
570	60.21158	355.57379	296.17588	-207.48585	-117.16848	325.468	-161.92033	-261.18807	-250.61036	279.90248	310.82194	137.51023	0
571	89.5037	362.89682	274.20679	-227.01393	-92.75838	318.14497	-164.36134	-253.86504	-243.28733	270.13844	301.0579	127.74619	0
572	101.70875	348.25076	247.35568	-224.57292	-73.2303	298.61689	-157.03831	-241.65999	-231.08228	262.81541	293.73487	122.86417	0
573	96.82673	323.84066	227.8276	-209.92686	-65.90727	276.6478	-147.27427	-227.01393	-216.43622	255.49238	288.85285	122.86417	0
574	91.94471	309.1946	218.06356	-200.16282	-63.46626	264.44275	-135.06922	-202.60383	-201.79016	250.61036	286.41184	122.86417	0
575	91.94471	289.66652	198.53548	-190.39878	-53.70222	244.91467	-122.86417	-183.07575	-187.1441	245.72834	279.08881	122.86417	0
576	77.29865	262.81541	186.33043	-170.8707	-53.70222	225.38659	-110.65912	-165.98868	-174.93905	240.84632	266.88376	120.42316	0
577	62.65259	240.84632	179.0074	-151.34262	-58.58424	210.74053	-91.13104	-146.4606	-160.29299	238.40531	259.56073	122.86417	0
578	55.32956	233.52329	179.0074	-144.01959	-61.02525	205.85851	-78.92599	-136.69656	-150.52895	231.08228	247.35568	120.42316	0
579	57.77057	243.28733	186.33043	-151.34262	-63.46626	215.62255	-69.16195	-124.49151	-143.20592	221.31824	237.59164	117.98215	0
580	60.21158	233.52329	174.12538	-146.4606	-56.14323	203.4175	-61.83892	-112.28646	-135.88289	213.99521	227.8276	115.54114	0
581	52.88855	221.31824	169.24336	-136.69656	-58.58424	196.09447	-56.9569	-100.08141	-128.55986	199.34915	213.18154	105.7771	0
582	60.21158	206.67218	147.27427	-134.25555	-43.93818	176.56639	-56.9569	-90.31737	-121.23683	177.38006	193.65346	88.69003	0
583	67.53461	189.58511	122.86417	-129.37353	-26.85111	157.03831	-56.9569	-85.43535	-113.9138	152.96996	169.24336	69.16195	0
584	62.65259	174.93905	113.10013	-119.60949	-24.4101	144.83326	-47.19286	-68.34828	-104.14976	135.88289	149.71528	52.07488	0
585	74.85764	167.61602	93.57205	-122.0505	-9.76404	130.1872	-30.10579	-39.05616	-82.18067	128.55986	139.95124	39.86983	0
586	89.5037	170.05703	81.367	-129.37353	5.69569	125.30518	-10.57771	-12.20505	-62.65259	123.67784	125.30518	27.66478	0
587	106.59077	177.38006	71.60296	-141.57858	17.90074	125.30518	-0.81367	4.88202	-50.44754	113.9138	105.7771	10.57771	0
588	99.26774	162.734	64.27993	-131.81454	17.90074	113.10013	17.08707	22.78276	-33.36047	106.59077	93.57205	0	0
589	74.85764	145.64693	71.60296	-109.84545	3.25468	108.21811	39.05616	47.19286	-15.45973	106.59077	93.57205	-4.88202	0
590	77.29865	126.11885	49.63387	-102.52242	15.45973	88.69003	53.70222	64.27993	-0.81367	99.26774	86.24902	-12.20505	-1250	T-0
591	69.97562	99.26774	30.10579	-85.43535	20.34175	64.27993	56.14323	76.48498	11.39138	84.62168	74.04397	-26.85111	0
592	55.32956	72.41663	17.90074	-63.46626	20.34175	44.75185	56.14323	83.80801	21.15542	62.65259	56.9569	-46.37919	0
593	45.56552	48.00653	3.25468	-46.37919	22.78276	25.22377	56.14323	91.13104	33.36047	43.12451	39.86983	-63.46626	0
594	48.00653	35.80148	-12.20505	-41.49717	30.10579	13.01872	53.70222	100.89508	40.6835	23.59643	22.78276	-80.55333	0
595	60.21158	40.6835	-19.52808	-51.26121	39.86983	10.57771	56.14323	113.10013	48.00653	8.95037	5.69569	-100.08141	0
596	55.32956	28.47845	-26.85111	-41.49717	42.31084	0	58.58424	122.86417	57.77057	-3.25468	-12.20505	-117.16848	0
597	48.00653	16.2734	-31.73313	-31.73313	39.86983	-7.32303	61.02525	130.1872	62.65259	-11.39138	-29.29212	-131.81454	0
598	50.44754	6.50936	-43.93818	-29.29212	47.19286	-19.52808	63.46626	132.62821	65.0936	-18.71441	-43.93818	-144.01959	0
599	48.00653	-13.83239	-61.02525	-17.08707	54.51589	-36.61515	70.78929	137.51023	69.97562	-23.59643	-48.8202	-151.34262	0
600	33.36047	-26.03744	-58.58424	-4.88202	44.75185	-41.49717	85.43535	152.15629	79.73966	-23.59643	-48.8202	-151.34262	0
601	33.36047	-38.24249	-70.78929	0.81367	52.07488	-53.70222	90.31737	157.03831	87.06269	-33.36047	-53.70222	-158.66565	0
602	35.80148	-38.24249	-73.2303	0.81367	54.51589	-56.14323	92.75838	161.92033	94.38572	-45.56552	-63.46626	-165.98868	0
603	38.24249	-35.80148	-73.2303	-2.44101	54.51589	-53.70222	95.19939	166.80235	101.70875	-55.32956	-68.34828	-170.8707	0
604	33.36047	-35.80148	-68.34828	0.81367	49.63387	-51.26121	100.08141	176.56639	111.47279	-62.65259	-73.2303	-175.75272	0
605	23.59643	-33.36047	-56.14323	3.25468	39.86983	-43.93818	102.52242	183.88942	118.79582	-65.0936	-78.11232	-180.63474	0
606	26.03744	-38.24249	-63.46626	5.69569	44.75185	-51.26121	95.19939	186.33043	121.23683	-69.97562	-90.31737	-190.39878	0
607	28.47845	-48.00653	-75.67131	8.1367	52.07488	-61.02525	87.87636	181.44841	118.79582	-74.85764	-102.52242	-200.16282	0
608	21.15542	-62.65259	-82.99434	20.34175	52.07488	-73.2303	87.87636	181.44841	118.79582	-72.41663	-102.52242	-200.16282	0
609	16.2734	-77.29865	-92.75838	30.10579	54.51589	-85.43535	87.87636	179.0074	116.35481	-72.41663	-102.52242	-200.16282	0
610	13.83239	-82.18067	-95.19939	32.5468	54.51589	-87.87636	90.31737	176.56639	111.47279	-74.85764	-104.96343	-202.60383	0
611	18.71441	-89.5037	-107.40444	34.98781	61.83892	-97.6404	90.31737	176.56639	109.03178	-82.18067	-104.96343	-205.04484	0
612	16.2734	-99.26774	-114.72747	39.86983	64.27993	-107.40444	92.75838	183.88942	113.9138	-87.06269	-104.96343	-205.04484	0
613	-1.62734	-111.47279	-109.84545	54.51589	54.51589	-112.28646	100.08141	191.21245	123.67784	-89.5037	-102.52242	-202.60383	0
614	-6.50936	-113.9138	-107.40444	59.39791	49.63387	-112.28646	102.52242	196.09447	126.11885	-96.82673	-104.96343	-202.60383	0
615	0.81367	-106.59077	-107.40444	52.07488	54.51589	-107.40444	100.08141	198.53548	126.11885	-104.14976	-109.84545	-205.04484	0
616	0.81367	-101.70875	-102.52242	49.63387	52.07488	-102.52242	100.08141	200.97649	123.67784	-104.14976	-117.16848	-205.04484	0
617	-4.06835	-109.03178	-104.96343	54.51589	49.63387	-107.40444	97.6404	203.4175	126.11885	-101.70875	-119.60949	-200.16282	0
618	-13.83239	-109.03178	-95.19939	59.39791	39.86983	-102.52242	90.31737	193.65346	118.79582	-104.14976	-126.93252	-200.16282	0
619	-23.59643	-121.23683	-97.6404	71.60296	37.42882	-109.84545	82.99434	181.44841	106.59077	-111.47279	-134.25555	-200.16282	0
620	-21.15542	-123.67784	-102.52242	71.60296	39.86983	-114.72747	73.2303	171.68437	94.38572	-121.23683	-141.57858	-202.60383	0
621	-30.91946	-128.55986	-97.6404	78.92599	32.5468	-114.72747	73.2303	174.12538	96.82673	-123.67784	-139.13757	-200.16282	0
622	-35.80148	-135.88289	-100.08141	83.80801	32.5468	-119.60949	73.2303	179.0074	104.14976	-128.55986	-139.13757	-195.2808	0
623	-21.15542	-131.00087	-109.84545	74.04397	44.75185	-122.0505	73.2303	181.44841	109.03178	-135.88289	-141.57858	-197.72181	0
624	-16.2734	-126.11885	-109.84545	69.16195	47.19286	-119.60949	78.11232	188.77144	113.9138	-140.76491	-141.57858	-200.16282	0
625	0.81367	-113.9138	-114.72747	54.51589	56.9569	-114.72747	82.99434	200.97649	121.23683	-138.3239	-139.13757	-195.2808	0
626	13.83239	-96.82673	-109.84545	39.86983	61.83892	-102.52242	85.43535	210.74053	126.11885	-135.88289	-139.13757	-192.83979	0
627	4.06835	-101.70875	-104.96343	47.19286	54.51589	-102.52242	87.87636	213.18154	128.55986	-131.00087	-141.57858	-190.39878	0
628	-4.06835	-116.35481	-112.28646	59.39791	54.51589	-114.72747	87.87636	210.74053	123.67784	-128.55986	-144.01959	-185.51676	0
629	-18.71441	-128.55986	-109.84545	71.60296	44.75185	-119.60949	90.31737	208.29952	123.67784	-121.23683	-139.13757	-175.75272	0
630	-28.47845	-133.44188	-104.96343	78.92599	37.42882	-119.60949	97.6404	208.29952	123.67784	-116.35481	-134.25555	-163.54767	0
631	-11.39138	-118.79582	-107.40444	64.27993	47.19286	-114.72747	104.96343	213.18154	131.00087	-113.9138	-126.93252	-151.34262	0
632	-4.06835	-111.47279	-107.40444	56.9569	52.07488	-109.84545	109.84545	220.50457	140.76491	-111.47279	-122.0505	-141.57858	0
633	6.50936	-109.03178	-114.72747	49.63387	59.39791	-112.28646	119.60949	230.26861	152.96996	-109.03178	-112.28646	-129.37353	0
634	18.71441	-96.82673	-114.72747	37.42882	66.72094	-104.96343	126.93252	240.03265	162.734	-106.59077	-107.40444	-117.16848	0
635	23.59643	-94.38572	-117.16848	34.98781	69.16195	-104.96343	124.49151	244.91467	165.17501	-111.47279	-112.28646	-114.72747	0
636	35.80148	-91.94471	-126.93252	27.66478	81.367	-109.84545	124.49151	249.79669	165.17501	-113.9138	-117.16848	-114.72747	0
637	21.15542	-101.70875	-122.0505	39.86983	71.60296	-112.28646	122.0505	249.79669	165.17501	-113.9138	-124.49151	-114.72747	0
638	0.81367	-123.67784	-124.49151	59.39791	61.83892	-124.49151	119.60949	244.91467	157.85198	-116.35481	-129.37353	-112.28646	0
639	0.81367	-123.67784	-124.49151	59.39791	61.83892	-124.49151	117.16848	237.59164	152.96996	-121.23683	-129.37353	-109.84545	0
640	-4.06835	-118.79582	-114.72747	59.39791	54.51589	-117.16848	114.72747	230.26861	140.76491	-126.11885	-134.25555	-109.84545	0
641	-6.50936	-111.47279	-104.96343	56.9569	49.63387	-109.84545	114.72747	227.8276	140.76491	-128.55986	-134.25555	-104.96343	0
642	-6.50936	-104.14976	-97.6404	54.51589	44.75185	-102.52242	117.16848	227.8276	143.20592	-131.00087	-134.25555	-102.52242	0
643	-8.95037	-101.70875	-92.75838	54.51589	42.31084	-97.6404	114.72747	225.38659	143.20592	-138.3239	-136.69656	-100.08141	0
644	-1.62734	-101.70875	-100.08141	49.63387	49.63387	-102.52242	114.72747	227.8276	148.08794	-138.3239	-136.69656	-95.19939	0
645	-11.39138	-109.03178	-97.6404	59.39791	42.31084	-104.96343	117.16848	232.70962	152.96996	-135.88289	-134.25555	-87.87636	0
646	-11.39138	-121.23683	-109.84545	64.27993	49.63387	-117.16848	112.28646	230.26861	152.96996	-135.88289	-144.01959	-82.99434	0
647	-18.71441	-131.00087	-112.28646	74.04397	47.19286	-122.0505	109.84545	230.26861	152.96996	-133.44188	-146.4606	-78.11232	0
648	-28.47845	-138.3239	-109.84545	81.367	39.86983	-124.49151	104.96343	225.38659	152.96996	-128.55986	-146.4606	-68.34828	0
649	-26.03744	-143.20592	-117.16848	83.80801	44.75185	-131.81454	102.52242	220.50457	148.08794	-126.11885	-144.01959	-58.58424	0
650	-21.15542	-145.64693	-124.49151	81.367	52.07488	-136.69656	97.6404	215.62255	143.20592	-126.11885	-144.01959	-53.70222	0
651	-11.39138	-135.88289	-124.49151	71.60296	56.9569	-131.81454	90.31737	210.74053	135.88289	-133.44188	-146.4606	-51.26121	0
652	-4.06835	-131.00087	-126.93252	66.72094	61.83892	-129.37353	92.75838	215.62255	143.20592	-133.44188	-141.57858	-41.49717	0
653	0.81367	-118.79582	-119.60949	56.9569	59.39791	-119.60949	95.19939	220.50457	150.52895	-133.44188	-136.69656	-31.73313	0
654	11.39138	-113.9138	-124.49151	49.63387	66.72094	-119.60949	92.75838	220.50457	148.08794	-140.76491	-139.13757	-31.73313	0
655	6.50936	-113.9138	-119.60949	52.07488	61.83892	-117.16848	92.75838	220.50457	145.64693	-143.20592	-144.01959	-29.29212	0
656	4.06835	-111.47279	-114.72747	52.07488	59.39791	-112.28646	97.6404	222.94558	148.08794	-138.3239	-144.01959	-19.52808	0
657	-1.62734	-113.9138	-112.28646	56.9569	54.51589	-114.72747	107.40444	227.8276	152.96996	-128.55986	-139.13757	-4.88202	0
658	-8.95037	-113.9138	-104.96343	59.39791	47.19286	-109.84545	114.72747	227.8276	155.41097	-118.79582	-131.81454	7.32303	0
659	-6.50936	-121.23683	-114.72747	61.83892	54.51589	-119.60949	117.16848	220.50457	145.64693	-116.35481	-129.37353	15.45973	0
660	-11.39138	-133.44188	-122.0505	71.60296	54.51589	-129.37353	114.72747	213.18154	138.3239	-113.9138	-129.37353	25.22377	0
661	-8.95037	-135.88289	-126.93252	71.60296	59.39791	-131.81454	112.28646	208.29952	138.3239	-113.9138	-126.93252	32.5468	0
662	-6.50936	-140.76491	-134.25555	71.60296	64.27993	-139.13757	112.28646	208.29952	143.20592	-111.47279	-119.60949	39.86983	0
663	-6.50936	-148.08794	-141.57858	76.48498	66.72094	-146.4606	104.96343	200.97649	143.20592	-118.79582	-119.60949	39.86983	0
664	-8.95037	-148.08794	-139.13757	76.48498	64.27993	-144.01959	92.75838	191.21245	135.88289	-133.44188	-126.93252	34.98781	0
665	-16.2734	-140.76491	-124.49151	76.48498	54.51589	-134.25555	85.43535	186.33043	128.55986	-140.76491	-134.25555	32.5468	0
666	-26.03744	-143.20592	-117.16848	83.80801	44.75185	-131.81454	87.87636	191.21245	133.44188	-133.44188	-129.37353	42.31084	0
667	-21.15542	-140.76491	-119.60949	78.92599	49.63387	-131.81454	90.31737	188.77144	133.44188	-128.55986	-129.37353	49.63387	0
668	-8.95037	-135.88289	-126.93252	71.60296	59.39791	-131.81454	90.31737	181.44841	126.11885	-126.11885	-129.37353	59.39791	0
669	-4.06835	-131.00087	-126.93252	66.72094	61.83892	-129.37353	90.31737	171.68437	113.9138	-126.11885	-134.25555	66.72094	0
670	-4.06835	-135.88289	-131.81454	69.16195	64.27993	-134.25555	90.31737	164.36134	106.59077	-126.11885	-134.25555	76.48498	0
671	-1.62734	-150.52895	-148.90161	74.04397	74.04397	-151.34262	87.87636	159.47932	101.70875	-126.11885	-131.81454	86.24902	0
672	-1.62734	-165.17501	-163.54767	81.367	81.367	-165.98868	78.11232	149.71528	99.26774	-131.00087	-136.69656	88.69003	0
673	0.81367	-162.734	-163.54767	78.92599	81.367	-163.54767	65.90727	135.06922	89.5037	-143.20592	-146.4606	88.69003	0
674	-4.06835	-157.85198	-153.78363	78.92599	74.04397	-156.22464	63.46626	130.1872	89.5037	-148.08794	-148.90161	93.57205	0
675	-13.83239	-160.29299	-146.4606	86.24902	66.72094	-153.78363	61.02525	130.1872	89.5037	-150.52895	-153.78363	98.45407	0
676	-8.95037	-152.96996	-144.01959	78.92599	66.72094	-148.90161	58.58424	132.62821	91.94471	-145.64693	-153.78363	110.65912	0
677	8.95037	-143.20592	-151.34262	66.72094	78.92599	-146.4606	56.14323	132.62821	91.94471	-140.76491	-156.22464	122.86417	0
678	28.47845	-123.67784	-151.34262	47.19286	88.69003	-136.69656	56.14323	130.1872	89.5037	-133.44188	-156.22464	139.95124	0
679	40.6835	-104.14976	-144.01959	30.10579	91.13104	-124.49151	61.02525	127.74619	89.5037	-128.55986	-151.34262	159.47932	0
680	45.56552	-96.82673	-141.57858	25.22377	93.57205	-119.60949	63.46626	130.1872	87.06269	-123.67784	-148.90161	176.56639	0
681	43.12451	-104.14976	-146.4606	30.10579	93.57205	-124.49151	63.46626	130.1872	87.06269	-123.67784	-144.01959	188.77144	0
682	33.36047	-121.23683	-153.78363	42.31084	93.57205	-136.69656	61.02525	130.1872	87.06269	-131.00087	-146.4606	196.09447	0
683	21.15542	-138.3239	-158.66565	56.9569	88.69003	-148.90161	61.02525	127.74619	91.94471	-135.88289	-146.4606	198.53548	0
684	13.83239	-145.64693	-158.66565	64.27993	86.24902	-151.34262	63.46626	132.62821	91.94471	-138.3239	-146.4606	203.4175	0
685	0.81367	-145.64693	-146.4606	71.60296	74.04397	-146.4606	65.90727	137.51023	94.38572	-140.76491	-146.4606	208.29952	0
686	0.81367	-152.96996	-153.78363	74.04397	76.48498	-153.78363	68.34828	142.39225	94.38572	-135.88289	-148.90161	213.18154	0
687	-1.62734	-160.29299	-158.66565	78.92599	78.92599	-161.10666	70.78929	144.83326	96.82673	-131.00087	-148.90161	222.94558	0
688	6.50936	-160.29299	-165.98868	76.48498	86.24902	-163.54767	73.2303	144.83326	96.82673	-123.67784	-148.90161	232.70962	0
689	21.15542	-148.08794	-168.42969	61.83892	93.57205	-158.66565	73.2303	137.51023	89.5037	-121.23683	-146.4606	240.03265	0
690	21.15542	-140.76491	-161.10666	59.39791	91.13104	-151.34262	70.78929	130.1872	82.18067	-123.67784	-148.90161	240.03265	0
691	18.71441	-150.52895	-168.42969	64.27993	93.57205	-158.66565	65.90727	127.74619	79.73966	-126.11885	-148.90161	237.59164	0
692	6.50936	-170.05703	-175.75272	81.367	91.13104	-173.31171	63.46626	127.74619	82.18067	-131.00087	-148.90161	235.15063	0
693	-8.95037	-184.70309	-175.75272	96.01306	83.80801	-180.63474	63.46626	127.74619	87.06269	-133.44188	-146.4606	230.26861	0
694	-16.2734	-192.02612	-175.75272	103.33609	78.92599	-185.51676	56.14323	122.86417	82.18067	-145.64693	-156.22464	218.06356	0
695	-23.59643	-194.46713	-170.8707	108.21811	74.04397	-183.07575	53.70222	125.30518	79.73966	-150.52895	-161.10666	213.18154	0
696	-35.80148	-192.02612	-156.22464	113.10013	59.39791	-175.75272	53.70222	132.62821	84.62168	-150.52895	-161.10666	210.74053	0
697	-35.80148	-187.1441	-151.34262	110.65912	56.9569	-170.8707	56.14323	135.06922	84.62168	-148.08794	-163.54767	215.62255	0
698	-28.47845	-182.26208	-153.78363	103.33609	61.83892	-168.42969	63.46626	137.51023	87.06269	-140.76491	-161.10666	225.38659	0
699	-16.2734	-174.93905	-158.66565	93.57205	71.60296	-168.42969	65.90727	137.51023	84.62168	-140.76491	-158.66565	232.70962	0
700	4.06835	-162.734	-165.98868	78.92599	83.80801	-163.54767	65.90727	135.06922	79.73966	-140.76491	-156.22464	240.03265	0
701	21.15542	-145.64693	-165.98868	61.83892	93.57205	-156.22464	73.2303	139.95124	84.62168	-135.88289	-151.34262	244.91467	0
702	45.56552	-131.00087	-175.75272	42.31084	110.65912	-153.78363	73.2303	142.39225	89.5037	-135.88289	-146.4606	247.35568	0
703	48.00653	-128.55986	-175.75272	39.86983	110.65912	-151.34262	70.78929	139.95124	89.5037	-138.3239	-146.4606	244.91467	0
704	38.24249	-128.55986	-165.98868	44.75185	100.89508	-146.4606	68.34828	139.95124	87.06269	-140.76491	-146.4606	240.03265	0
705	38.24249	-126.11885	-163.54767	42.31084	100.89508	-144.01959	58.58424	132.62821	79.73966	-148.08794	-153.78363	230.26861	0
706	33.36047	-126.11885	-158.66565	44.75185	96.01306	-141.57858	51.26121	127.74619	74.85764	-150.52895	-158.66565	225.38659	0
707	23.59643	-138.3239	-161.10666	56.9569	91.13104	-148.90161	48.8202	122.86417	72.41663	-148.08794	-158.66565	222.94558	0
708	4.06835	-150.52895	-153.78363	71.60296	78.92599	-151.34262	43.93818	110.65912	65.0936	-148.08794	-163.54767	218.06356	0
709	-13.83239	-172.49804	-158.66565	91.13104	71.60296	-165.98868	41.49717	103.33609	60.21158	-148.08794	-165.98868	220.50457	0
710	-13.83239	-187.1441	-173.31171	98.45407	78.92599	-180.63474	41.49717	100.89508	60.21158	-143.20592	-161.10666	222.94558	0
711	-13.83239	-196.90814	-183.07575	103.33609	83.80801	-190.39878	46.37919	105.7771	67.53461	-138.3239	-156.22464	222.94558	0
712	-4.06835	-194.46713	-190.39878	98.45407	93.57205	-192.83979	51.26121	115.54114	79.73966	-131.00087	-146.4606	225.38659	0
713	6.50936	-179.82107	-185.51676	86.24902	96.01306	-183.07575	58.58424	125.30518	91.94471	-123.67784	-139.13757	227.8276	0
714	11.39138	-177.38006	-187.95777	81.367	98.45407	-183.07575	61.02525	130.1872	96.82673	-121.23683	-139.13757	225.38659	0
715	21.15542	-170.05703	-190.39878	74.04397	105.7771	-180.63474	61.02525	135.06922	99.26774	-121.23683	-139.13757	222.94558	0
716	30.91946	-152.96996	-183.07575	59.39791	105.7771	-168.42969	61.02525	137.51023	99.26774	-118.79582	-139.13757	220.50457	0
717	18.71441	-138.3239	-156.22464	59.39791	86.24902	-146.4606	58.58424	137.51023	94.38572	-116.35481	-139.13757	218.06356	0
718	4.06835	-138.3239	-141.57858	66.72094	71.60296	-139.13757	53.70222	130.1872	89.5037	-116.35481	-141.57858	218.06356	0
719	-13.83239	-157.85198	-144.01959	83.80801	64.27993	-151.34262	48.8202	120.42316	82.18067	-118.79582	-146.4606	215.62255	0
720	-23.59643	-179.82107	-156.22464	100.89508	66.72094	-168.42969	41.49717	110.65912	69.97562	-126.11885	-151.34262	213.18154	0
721	-23.59643	-184.70309	-161.10666	103.33609	69.16195	-173.31171	39.05616	103.33609	67.53461	-128.55986	-151.34262	213.18154	0
722	-21.15542	-184.70309	-163.54767	100.89508	71.60296	-175.75272	36.61515	103.33609	67.53461	-131.00087	-151.34262	210.74053	0
723	-21.15542	-192.02612	-170.8707	105.7771	74.04397	-183.07575	41.49717	103.33609	72.41663	-131.00087	-146.4606	210.74053	0
724	0.81367	-189.58511	-190.39878	93.57205	96.01306	-190.39878	41.49717	103.33609	72.41663	-131.00087	-144.01959	208.29952	0
725	21.15542	-177.38006	-197.72181	76.48498	108.21811	-187.95777	43.93818	105.7771	74.85764	-131.00087	-144.01959	205.85851	0
726	23.59643	-152.96996	-175.75272	64.27993	98.45407	-163.54767	46.37919	110.65912	77.29865	-126.11885	-141.57858	208.29952	0
727	21.15542	-143.20592	-163.54767	59.39791	91.13104	-153.78363	48.8202	113.10013	79.73966	-116.35481	-136.69656	210.74053	0
728	8.95037	-145.64693	-153.78363	66.72094	81.367	-148.90161	51.26121	113.10013	79.73966	-109.03178	-131.81454	215.62255	0
729	0.81367	-150.52895	-151.34262	74.04397	76.48498	-151.34262	51.26121	108.21811	77.29865	-106.59077	-131.81454	215.62255	0
730	4.06835	-152.96996	-156.22464	74.04397	78.92599	-153.78363	46.37919	103.33609	69.97562	-106.59077	-131.81454	213.18154	0
731	-6.50936	-155.41097	-148.90161	78.92599	71.60296	-153.78363	39.05616	93.57205	62.65259	-109.03178	-134.25555	205.85851	0
732	-16.2734	-162.734	-146.4606	88.69003	64.27993	-156.22464	36.61515	91.13104	62.65259	-111.47279	-134.25555	200.97649	0
733	-23.59643	-172.49804	-148.90161	96.01306	61.83892	-161.10666	36.61515	88.69003	65.0936	-113.9138	-131.81454	198.53548	0
734	-28.47845	-162.734	-134.25555	93.57205	52.07488	-148.90161	43.93818	93.57205	72.41663	-109.03178	-126.93252	196.09447	0
735	-11.39138	-150.52895	-139.13757	78.92599	64.27993	-146.4606	48.8202	96.01306	74.85764	-109.03178	-124.49151	191.21245	0
736	0.81367	-138.3239	-139.13757	66.72094	69.16195	-139.13757	51.26121	100.89508	74.85764	-109.03178	-124.49151	186.33043	0
737	6.50936	-126.11885	-131.81454	59.39791	69.16195	-129.37353	58.58424	108.21811	79.73966	-104.14976	-124.49151	186.33043	0
738	11.39138	-113.9138	-124.49151	49.63387	66.72094	-119.60949	61.02525	108.21811	79.73966	-99.26774	-124.49151	186.33043	0
739	26.03744	-99.26774	-124.49151	34.98781	74.04397	-112.28646	68.34828	110.65912	82.18067	-96.82673	-122.0505	186.33043	0
740	45.56552	-91.94471	-136.69656	22.78276	91.13104	-114.72747	70.78929	113.10013	82.18067	-91.94471	-119.60949	188.77144	0
741	57.77057	-99.26774	-156.22464	20.34175	105.7771	-126.93252	65.90727	113.10013	79.73966	-91.94471	-119.60949	183.88942	0
742	45.56552	-104.14976	-148.90161	27.66478	96.01306	-126.93252	70.78929	120.42316	87.06269	-87.06269	-112.28646	183.88942	0
743	40.6835	-94.38572	-134.25555	25.22377	86.24902	-114.72747	73.2303	122.86417	94.38572	-82.18067	-107.40444	179.0074	0
744	48.00653	-89.5037	-136.69656	20.34175	91.13104	-112.28646	78.11232	127.74619	101.70875	-74.85764	-102.52242	179.0074	0
745	50.44754	-87.06269	-136.69656	17.90074	93.57205	-112.28646	78.11232	137.51023	106.59077	-69.97562	-95.19939	176.56639	0
746	50.44754	-77.29865	-126.93252	13.01872	88.69003	-102.52242	73.2303	137.51023	106.59077	-67.53461	-97.6404	169.24336	0
747	50.44754	-65.0936	-114.72747	5.69569	81.367	-90.31737	75.67131	144.83326	111.47279	-60.21158	-92.75838	169.24336	0
748	52.88855	-50.44754	-102.52242	-2.44101	76.48498	-75.67131	80.55333	147.27427	113.9138	-52.88855	-90.31737	169.24336	0
749	62.65259	-48.00653	-109.84545	-7.32303	86.24902	-78.11232	80.55333	147.27427	111.47279	-50.44754	-90.31737	164.36134	0
750	57.77057	-55.32956	-112.28646	-2.44101	83.80801	-82.99434	80.55333	149.71528	109.03178	-50.44754	-90.31737	161.92033	0
751	55.32956	-55.32956	-109.84545	-2.44101	81.367	-82.99434	80.55333	149.71528	109.03178	-50.44754	-90.31737	152.15629	0
752	52.88855	-57.77057	-109.84545	0.81367	81.367	-82.99434	78.11232	149.71528	109.03178	-55.32956	-95.19939	142.39225	0
753	50.44754	-65.0936	-114.72747	5.69569	81.367	-90.31737	73.2303	144.83326	109.03178	-60.21158	-97.6404	132.62821	0
754	33.36047	-74.85764	-107.40444	20.34175	69.16195	-90.31737	68.34828	142.39225	111.47279	-60.21158	-97.6404	122.86417	0
755	21.15542	-65.0936	-85.43535	20.34175	52.07488	-75.67131	61.02525	142.39225	111.47279	-60.21158	-97.6404	115.54114	0
756	28.47845	-62.65259	-90.31737	15.45973	59.39791	-75.67131	56.14323	144.83326	116.35481	-52.88855	-92.75838	115.54114	0
757	43.12451	-50.44754	-92.75838	3.25468	66.72094	-70.78929	53.70222	147.27427	116.35481	-40.6835	-85.43535	117.98215	0
758	62.65259	-33.36047	-95.19939	-14.64606	78.92599	-63.46626	53.70222	149.71528	121.23683	-30.91946	-75.67131	122.86417	0
759	84.62168	-26.03744	-109.84545	-29.29212	96.01306	-68.34828	53.70222	149.71528	123.67784	-16.2734	-65.90727	130.1872	0
760	96.82673	-16.2734	-112.28646	-41.49717	103.33609	-63.46626	53.70222	152.15629	123.67784	-8.1367	-56.14323	135.06922	0
761	113.9138	-11.39138	-124.49151	-51.26121	117.98215	-68.34828	53.70222	147.27427	121.23683	-3.25468	-51.26121	135.06922	0
762	123.67784	-13.83239	-136.69656	-56.14323	130.1872	-75.67131	48.8202	139.95124	118.79582	-3.25468	-48.8202	130.1872	0
763	121.23683	-21.15542	-141.57858	-51.26121	130.1872	-80.55333	39.05616	127.74619	111.47279	-8.1367	-51.26121	120.42316	0
764	106.59077	-38.24249	-144.01959	-34.17414	125.30518	-90.31737	29.29212	115.54114	104.14976	-13.83239	-56.14323	110.65912	0
765	99.26774	-38.24249	-136.69656	-31.73313	117.98215	-87.87636	19.52808	105.7771	94.38572	-21.15542	-56.14323	100.89508	0
766	104.14976	-38.24249	-141.57858	-34.17414	122.86417	-90.31737	12.20505	96.01306	87.06269	-23.59643	-58.58424	93.57205	0
767	116.35481	-28.47845	-144.01959	-43.93818	130.1872	-85.43535	4.88202	86.24902	77.29865	-28.47845	-63.46626	86.24902	0
768	121.23683	-23.59643	-144.01959	-48.8202	132.62821	-82.99434	4.88202	78.92599	72.41663	-28.47845	-63.46626	83.80801	0
769	116.35481	-28.47845	-144.01959	-43.93818	130.1872	-85.43535	4.88202	76.48498	69.97562	-21.15542	-58.58424	86.24902	0
770	118.79582	-35.80148	-153.78363	-41.49717	135.06922	-95.19939	7.32303	76.48498	67.53461	-13.83239	-53.70222	88.69003	0
771	104.14976	-55.32956	-158.66565	-24.4101	130.1872	-107.40444	9.76404	76.48498	69.97562	-8.1367	-48.8202	88.69003	0
772	77.29865	-72.41663	-148.90161	-2.44101	113.10013	-109.84545	9.76404	76.48498	72.41663	-3.25468	-48.8202	86.24902	0
773	67.53461	-74.85764	-141.57858	3.25468	103.33609	-107.40444	12.20505	76.48498	77.29865	1.62734	-43.93818	83.80801	0
774	77.29865	-69.97562	-146.4606	-4.88202	110.65912	-107.40444	17.08707	81.367	82.18067	6.50936	-36.61515	83.80801	0
775	74.85764	-69.97562	-144.01959	-2.44101	108.21811	-107.40444	17.08707	81.367	82.18067	6.50936	-34.17414	78.92599	0
776	62.65259	-62.65259	-124.49151	-2.44101	93.57205	-92.75838	14.64606	76.48498	74.85764	1.62734	-39.05616	69.16195	0
777	60.21158	-50.44754	-109.84545	-4.88202	83.80801	-80.55333	14.64606	69.16195	65.0936	-3.25468	-41.49717	59.39791	0
778	69.97562	-40.6835	-109.84545	-14.64606	88.69003	-75.67131	12.20505	61.83892	57.77057	-5.69569	-46.37919	54.51589	0
779	65.0936	-40.6835	-104.96343	-12.20505	83.80801	-73.2303	12.20505	54.51589	48.00653	-11.39138	-48.8202	47.19286	0
780	48.00653	-57.77057	-104.96343	3.25468	76.48498	-80.55333	4.88202	42.31084	30.91946	-21.15542	-58.58424	34.98781	0
781	35.80148	-84.62168	-119.60949	22.78276	76.48498	-102.52242	-0.81367	30.10579	21.15542	-30.91946	-68.34828	20.34175	0
782	33.36047	-101.70875	-134.25555	32.5468	83.80801	-117.16848	2.44101	32.5468	21.15542	-35.80148	-68.34828	13.01872	0
783	33.36047	-109.03178	-141.57858	37.42882	86.24902	-124.49151	4.88202	32.5468	21.15542	-40.6835	-70.78929	7.32303	0
784	28.47845	-111.47279	-139.13757	39.86983	83.80801	-124.49151	7.32303	32.5468	21.15542	-45.56552	-73.2303	0	0
785	30.91946	-126.11885	-156.22464	47.19286	93.57205	-141.57858	7.32303	32.5468	18.71441	-52.88855	-78.11232	-9.76404	0
786	21.15542	-145.64693	-165.98868	61.83892	93.57205	-156.22464	7.32303	32.5468	16.2734	-55.32956	-82.99434	-17.08707	0
787	13.83239	-148.08794	-161.10666	66.72094	86.24902	-153.78363	7.32303	32.5468	13.83239	-55.32956	-87.87636	-21.96909	0
788	11.39138	-145.64693	-156.22464	66.72094	83.80801	-151.34262	7.32303	27.66478	8.95037	-57.77057	-92.75838	-29.29212	0
789	11.39138	-150.52895	-161.10666	69.16195	86.24902	-156.22464	2.44101	17.90074	-0.81367	-60.21158	-95.19939	-34.17414	0
790	6.50936	-155.41097	-161.10666	74.04397	83.80801	-158.66565	-3.25468	7.32303	-15.45973	-67.53461	-100.08141	-43.93818	0
791	0.81367	-162.734	-163.54767	78.92599	81.367	-163.54767	-5.69569	0	-20.34175	-67.53461	-97.6404	-46.37919	0
792	6.50936	-157.85198	-163.54767	74.04397	83.80801	-161.10666	-5.69569	-2.44101	-23.59643	-69.97562	-95.19939	-51.26121	0
793	11.39138	-155.41097	-165.98868	71.60296	88.69003	-161.10666	-10.57771	-9.76404	-23.59643	-69.97562	-90.31737	-53.70222	0
794	0.81367	-165.17501	-165.98868	81.367	83.80801	-165.98868	-20.34175	-17.08707	-28.47845	-72.41663	-90.31737	-61.02525	0
795	-8.95037	-182.26208	-173.31171	93.57205	81.367	-178.19373	-30.10579	-26.85111	-35.80148	-79.73966	-95.19939	-70.78929	0
796	-21.15542	-199.34915	-178.19373	108.21811	78.92599	-190.39878	-39.86983	-31.73313	-43.12451	-82.18067	-102.52242	-80.55333	0
797	-30.91946	-211.5542	-180.63474	120.42316	74.04397	-197.72181	-42.31084	-31.73313	-43.12451	-79.73966	-104.96343	-85.43535	0
798	-33.36047	-211.5542	-178.19373	120.42316	71.60296	-195.2808	-42.31084	-34.17414	-43.12451	-77.29865	-104.96343	-87.87636	0
799	-33.36047	-201.79016	-168.42969	115.54114	66.72094	-185.51676	-39.86983	-31.73313	-43.12451	-74.85764	-104.96343	-90.31737	0
800	-16.2734	-177.38006	-161.10666	96.01306	71.60296	-170.8707	-32.5468	-26.85111	-40.6835	-69.97562	-100.08141	-87.87636	0
801	-4.06835	-145.64693	-141.57858	74.04397	69.16195	-144.01959	-22.78276	-21.96909	-33.36047	-65.0936	-97.6404	-87.87636	0
802	8.95037	-118.79582	-126.93252	54.51589	66.72094	-122.0505	-13.01872	-17.08707	-28.47845	-60.21158	-92.75838	-87.87636	0
803	28.47845	-94.38572	-122.0505	32.5468	74.04397	-107.40444	-5.69569	-12.20505	-20.34175	-52.88855	-85.43535	-87.87636	0
804	40.6835	-87.06269	-126.93252	22.78276	83.80801	-107.40444	-5.69569	-17.08707	-23.59643	-55.32956	-85.43535	-92.75838	0
805	30.91946	-94.38572	-124.49151	30.10579	76.48498	-109.84545	-10.57771	-19.52808	-28.47845	-57.77057	-90.31737	-97.6404	0
806	4.06835	-118.79582	-122.0505	56.9569	61.83892	-119.60949	-13.01872	-19.52808	-30.91946	-55.32956	-90.31737	-100.08141	0
807	-11.39138	-148.08794	-136.69656	78.92599	61.83892	-144.01959	-17.90074	-24.4101	-38.24249	-55.32956	-92.75838	-104.96343	0
808	-28.47845	-167.61602	-139.13757	96.01306	54.51589	-153.78363	-17.90074	-26.85111	-40.6835	-50.44754	-90.31737	-104.96343	0
809	-35.80148	-177.38006	-141.57858	105.7771	52.07488	-161.10666	-10.57771	-24.4101	-40.6835	-48.00653	-87.87636	-100.08141	0
810	-28.47845	-177.38006	-148.90161	100.89508	59.39791	-163.54767	-8.1367	-17.08707	-43.12451	-52.88855	-87.87636	-102.52242	0
811	-21.15542	-177.38006	-156.22464	98.45407	66.72094	-168.42969	2.44101	-7.32303	-38.24249	-52.88855	-90.31737	-104.96343	0
812	-8.95037	-172.49804	-163.54767	88.69003	76.48498	-168.42969	14.64606	9.76404	-28.47845	-60.21158	-90.31737	-112.28646	0
813	0.81367	-165.17501	-165.98868	81.367	83.80801	-165.98868	34.17414	34.98781	-10.57771	-62.65259	-90.31737	-114.72747	0
814	4.06835	-160.29299	-163.54767	76.48498	83.80801	-161.10666	58.58424	71.60296	13.83239	-65.0936	-92.75838	-117.16848	0
815	6.50936	-152.96996	-158.66565	71.60296	81.367	-156.22464	87.87636	110.65912	38.24249	-67.53461	-97.6404	-126.93252	0
816	-1.62734	-148.08794	-146.4606	74.04397	71.60296	-148.90161	126.93252	164.36134	77.29865	-57.77057	-97.6404	-124.49151	0
817	-13.83239	-143.20592	-129.37353	76.48498	56.9569	-136.69656	163.54767	218.06356	116.35481	-48.00653	-97.6404	-124.49151	0
818	-8.95037	-133.44188	-124.49151	69.16195	56.9569	-129.37353	195.2808	262.00174	155.41097	-38.24249	-100.08141	-126.93252	0
819	-6.50936	-118.79582	-112.28646	61.83892	52.07488	-117.16848	222.13191	296.17588	192.02612	-28.47845	-102.52242	-131.81454	0
820	4.06835	-104.14976	-107.40444	49.63387	54.51589	-104.96343	234.33696	325.468	233.52329	-13.83239	-97.6404	-131.81454	0
821	38.24249	-79.73966	-117.16848	20.34175	76.48498	-97.6404	241.65999	362.08315	304.31258	18.71441	-82.99434	-124.49151	0
822	82.18067	-52.88855	-134.25555	-14.64606	108.21811	-92.75838	229.45494	406.02133	401.95298	65.0936	-56.14323	-109.84545	0
823	135.88289	-13.83239	-148.90161	-61.02525	142.39225	-80.55333	207.48585	449.95951	526.44449	131.00087	-14.64606	-85.43535	0
824	192.02612	50.44754	-141.57858	-122.0505	166.80235	-46.37919	183.07575	508.54375	685.11014	221.31824	47.19286	-41.49717	0
825	275.02046	143.20592	-131.81454	-209.92686	203.4175	5.69569	153.78363	579.33304	868.18589	333.6047	122.86417	13.01872	0
826	375.10187	250.61036	-124.49151	-312.44928	249.79669	64.27993	129.37353	655.00435	1070.78972	470.30126	218.06356	91.13104	0
827	462.97823	360.45581	-102.52242	-412.53069	283.97083	130.1872	102.52242	713.58859	1244.10143	599.67479	313.26295	166.80235	0
828	526.44449	445.89116	-80.55333	-485.76099	303.49891	183.88942	73.2303	740.4397	1366.15193	702.19721	388.93426	225.38659	0
829	567.94166	499.59338	-68.34828	-534.58119	318.14497	215.62255	51.26121	737.99869	1427.17718	760.78145	435.31345	264.44275	0
830	567.94166	516.68045	-51.26121	-541.90422	310.82194	232.70962	26.85111	686.73748	1410.09011	777.86852	454.84153	286.41184	0
831	509.35742	492.27035	-17.08707	-500.40705	264.44275	237.59164	-5.69569	559.80496	1292.92163	748.5764	445.07749	288.85285	0
832	399.51197	423.92207	25.22377	-412.53069	188.77144	225.38659	-52.07488	352.31911	1053.70265	665.58206	408.46234	266.88376	0
833	265.25642	340.92773	76.48498	-302.68524	96.01306	208.29952	-113.10013	78.92599	716.84327	538.64954	344.99608	227.8276	0
834	116.35481	255.49238	139.95124	-185.51676	-12.20505	198.53548	-174.12538	-209.92686	345.80975	404.39399	279.08881	188.77144	0
835	-13.83239	177.38006	191.21245	-82.99434	-102.52242	183.88942	-235.15063	-488.202	-10.57771	282.34349	222.94558	159.47932	0
836	-111.47279	138.3239	249.79669	-14.64606	-180.63474	193.65346	-288.85285	-734.74401	-331.16369	182.26208	181.44841	139.95124	0
837	-179.82107	99.26774	279.08881	39.86983	-229.45494	188.77144	-332.79103	-925.14279	-597.23378	96.82673	142.39225	117.98215	0
838	-223.75925	57.77057	281.52982	81.367	-251.42403	169.24336	-364.52416	-1039.87026	-780.30953	28.47845	108.21811	98.45407	0
839	-250.61036	30.91946	281.52982	108.21811	-266.07009	154.5973	-369.40618	-1074.0444	-865.74488	-13.83239	86.24902	88.69003	0
840	-255.49238	4.06835	259.56073	125.30518	-256.30605	130.1872	-359.64214	-1047.19329	-870.6269	-40.6835	66.72094	76.48498	0
841	-240.84632	0.81367	242.47366	117.98215	-241.65999	120.42316	-332.79103	-986.16804	-838.89377	-62.65259	47.19286	59.39791	0
842	-240.84632	-6.50936	235.15063	122.86417	-239.21898	113.10013	-296.17588	-903.1737	-782.75054	-77.29865	32.5468	44.75185	0
843	-245.72834	-16.2734	230.26861	130.1872	-239.21898	105.7771	-257.11972	-817.73835	-716.84327	-87.06269	20.34175	32.5468	0
844	-226.20026	-13.83239	213.18154	117.98215	-219.6909	98.45407	-210.74053	-720.09795	-646.05398	-89.5037	15.45973	22.78276	0
845	-201.79016	-18.71441	183.88942	108.21811	-192.83979	81.367	-166.80235	-615.13452	-565.50065	-82.18067	15.45973	17.90074	0
846	-177.38006	-28.47845	149.71528	100.89508	-163.54767	59.39791	-127.74619	-517.49412	-487.38833	-65.0936	17.90074	13.01872	0
847	-152.96996	-28.47845	125.30518	88.69003	-139.13757	47.19286	-103.33609	-439.3818	-426.36308	-52.88855	17.90074	7.32303	0
848	-145.64693	-40.6835	105.7771	91.13104	-126.93252	32.5468	-88.69003	-383.23857	-382.4249	-40.6835	17.90074	4.88202	0
849	-138.3239	-50.44754	88.69003	93.57205	-114.72747	17.90074	-83.80801	-349.06443	-355.57379	-30.91946	20.34175	0	0
850	-148.08794	-72.41663	76.48498	108.21811	-112.28646	0	-78.92599	-319.77231	-336.04571	-23.59643	27.66478	0	0
851	-145.64693	-65.0936	81.367	103.33609	-114.72747	8.1367	-81.367	-305.12625	-326.28167	-18.71441	27.66478	-2.44101	0
852	-138.3239	-57.77057	81.367	96.01306	-109.84545	10.57771	-81.367	-290.48019	-316.51763	-13.83239	32.5468	-2.44101	0
853	-143.20592	-55.32956	88.69003	98.45407	-117.16848	15.45973	-76.48498	-278.27514	-309.1946	-11.39138	37.42882	0	0
854	-143.20592	-57.77057	86.24902	98.45407	-114.72747	13.01872	-76.48498	-273.39312	-306.75359	-11.39138	37.42882	-2.44101	0
855	-133.44188	-69.97562	64.27993	100.89508	-100.08141	-4.88202	-74.04397	-263.62908	-304.31258	-11.39138	39.86983	-2.44101	0
856	-116.35481	-67.53461	49.63387	91.13104	-82.99434	-9.76404	-71.60296	-258.74706	-304.31258	-8.1367	39.86983	-4.88202	0
857	-101.70875	-65.0936	37.42882	81.367	-70.78929	-14.64606	-71.60296	-256.30605	-304.31258	-5.69569	39.86983	-7.32303	0
858	-99.26774	-62.65259	37.42882	78.92599	-68.34828	-14.64606	-71.60296	-258.74706	-306.75359	-5.69569	37.42882	-12.20505	0
859	-94.38572	-57.77057	37.42882	74.04397	-65.90727	-12.20505	-78.92599	-268.5111	-316.51763	-11.39138	32.5468	-17.08707	0
860	-84.62168	-55.32956	30.10579	69.16195	-58.58424	-14.64606	-78.92599	-268.5111	-318.95864	-11.39138	37.42882	-14.64606	0
861	-84.62168	-50.44754	34.98781	66.72094	-61.02525	-9.76404	-78.92599	-268.5111	-316.51763	-5.69569	42.31084	-12.20505	0
862	-87.06269	-45.56552	42.31084	64.27993	-65.90727	-2.44101	-83.80801	-266.07009	-316.51763	-8.1367	44.75185	-4.88202	0
863	-101.70875	-55.32956	47.19286	76.48498	-75.67131	-4.88202	-86.24902	-266.07009	-314.07662	-8.1367	49.63387	0	0
864	-116.35481	-60.21158	56.9569	86.24902	-87.87636	-2.44101	-91.13104	-266.07009	-316.51763	-11.39138	49.63387	0	0
865	-131.00087	-69.97562	61.83892	98.45407	-97.6404	-4.88202	-93.57205	-266.07009	-316.51763	-13.83239	52.07488	2.44101	0
866	-135.88289	-69.97562	66.72094	100.89508	-102.52242	-2.44101	-88.69003	-258.74706	-309.1946	-5.69569	56.9569	7.32303	0
867	-133.44188	-55.32956	78.92599	93.57205	-107.40444	10.57771	-83.80801	-251.42403	-301.87157	4.06835	64.27993	13.01872	0
868	-135.88289	-48.00653	88.69003	91.13104	-112.28646	20.34175	-76.48498	-248.98302	-296.98955	11.39138	71.60296	15.45973	0
869	-121.23683	-26.03744	96.01306	71.60296	-109.84545	34.98781	-76.48498	-248.98302	-296.98955	16.2734	76.48498	15.45973	0
870	-113.9138	-16.2734	98.45407	64.27993	-107.40444	39.86983	-71.60296	-248.98302	-296.98955	21.15542	83.80801	22.78276	0
871	-111.47279	-6.50936	105.7771	56.9569	-109.84545	49.63387	-71.60296	-248.98302	-294.54854	28.47845	91.13104	27.66478	0
872	-109.03178	8.95037	117.98215	49.63387	-112.28646	61.83892	-71.60296	-246.54201	-289.66652	30.91946	100.89508	37.42882	0
873	-104.14976	11.39138	115.54114	44.75185	-109.84545	61.83892	-78.92599	-253.86504	-294.54854	30.91946	103.33609	39.86983	0
874	-94.38572	16.2734	110.65912	37.42882	-102.52242	61.83892	-86.24902	-261.18807	-296.98955	33.36047	108.21811	42.31084	0
875	-89.5037	18.71441	108.21811	34.98781	-97.6404	61.83892	-88.69003	-263.62908	-299.43056	35.80148	113.10013	42.31084	0
876	-87.06269	18.71441	105.7771	32.5468	-95.19939	61.83892	-91.13104	-263.62908	-299.43056	45.56552	120.42316	47.19286	0
877	-79.73966	28.47845	108.21811	25.22377	-92.75838	66.72094	-91.13104	-268.5111	-299.43056	52.88855	125.30518	47.19286	0
878	-77.29865	33.36047	110.65912	20.34175	-92.75838	71.60296	-96.01306	-275.83413	-304.31258	57.77057	125.30518	47.19286	0
879	-87.06269	28.47845	115.54114	27.66478	-100.08141	71.60296	-100.89508	-285.59817	-311.63561	57.77057	127.74619	44.75185	0
880	-104.14976	28.47845	132.62821	37.42882	-117.16848	78.92599	-105.7771	-292.9212	-316.51763	57.77057	130.1872	44.75185	0
881	-116.35481	33.36047	149.71528	39.86983	-131.81454	91.13104	-105.7771	-295.36221	-316.51763	62.65259	135.06922	49.63387	0
882	-109.03178	48.00653	157.03831	30.10579	-131.81454	100.89508	-105.7771	-295.36221	-316.51763	62.65259	142.39225	56.9569	0
883	-101.70875	52.88855	154.5973	22.78276	-126.93252	103.33609	-105.7771	-295.36221	-316.51763	65.0936	144.83326	61.83892	0
884	-96.82673	57.77057	154.5973	17.90074	-124.49151	105.7771	-105.7771	-292.9212	-316.51763	67.53461	149.71528	64.27993	0
885	-77.29865	69.97562	147.27427	3.25468	-112.28646	108.21811	-98.45407	-288.03918	-311.63561	77.29865	157.03831	74.04397	0
886	-60.21158	74.85764	135.06922	-7.32303	-97.6404	103.33609	-93.57205	-280.71615	-306.75359	91.94471	166.80235	83.80801	0
887	-60.21158	72.41663	132.62821	-7.32303	-95.19939	100.89508	-93.57205	-280.71615	-306.75359	101.70875	171.68437	86.24902	0
888	-72.41663	69.97562	142.39225	0.81367	-107.40444	105.7771	-96.01306	-285.59817	-309.1946	111.47279	179.0074	91.13104	0
889	-87.06269	69.97562	157.03831	8.1367	-122.0505	113.10013	-100.89508	-292.9212	-314.07662	116.35481	181.44841	96.01306	0
890	-89.5037	77.29865	166.80235	5.69569	-126.93252	120.42316	-108.21811	-300.24423	-316.51763	121.23683	186.33043	103.33609	0
891	-99.26774	79.73966	179.0074	8.1367	-139.13757	127.74619	-108.21811	-300.24423	-316.51763	131.00087	196.09447	113.10013	0
892	-113.9138	96.82673	210.74053	8.1367	-161.10666	152.15629	-113.10013	-302.68524	-314.07662	135.88289	200.97649	122.86417	0
893	-104.14976	113.9138	218.06356	-4.88202	-161.10666	164.36134	-120.42316	-310.00827	-314.07662	135.88289	203.4175	127.74619	0
894	-94.38572	123.67784	218.06356	-14.64606	-156.22464	169.24336	-122.86417	-310.00827	-311.63561	138.3239	208.29952	135.06922	0
895	-91.94471	128.55986	220.50457	-19.52808	-156.22464	174.12538	-122.86417	-307.56726	-311.63561	143.20592	213.18154	142.39225	0
896	-96.82673	126.11885	222.94558	-14.64606	-158.66565	174.12538	-122.86417	-302.68524	-306.75359	152.96996	220.50457	149.71528	0
897	-101.70875	133.44188	235.15063	-17.08707	-168.42969	183.88942	-125.30518	-305.12625	-309.1946	157.85198	222.94558	152.15629	0
898	-82.18067	135.88289	218.06356	-26.85111	-148.90161	176.56639	-132.62821	-317.3313	-318.95864	157.85198	220.50457	149.71528	0
899	-82.18067	128.55986	210.74053	-24.4101	-146.4606	169.24336	-135.06922	-319.77231	-318.95864	165.17501	227.8276	157.03831	0
900	-87.06269	135.88289	222.94558	-24.4101	-153.78363	179.0074	-139.95124	-324.65433	-326.28167	170.05703	232.70962	164.36134	0
901	-82.18067	138.3239	220.50457	-29.29212	-151.34262	179.0074	-152.15629	-334.41837	-333.6047	170.05703	235.15063	166.80235	0
902	-96.82673	138.3239	235.15063	-21.96909	-165.98868	186.33043	-161.92033	-341.7414	-336.04571	170.05703	240.03265	169.24336	0
903	-96.82673	145.64693	242.47366	-24.4101	-168.42969	193.65346	-169.24336	-344.18241	-336.04571	172.49804	247.35568	176.56639	0
904	-84.62168	155.41097	240.03265	-36.61515	-161.10666	196.09447	-169.24336	-339.30039	-326.28167	182.26208	259.56073	191.21245	0
905	-72.41663	182.26208	254.67871	-56.14323	-163.54767	218.06356	-161.92033	-327.09534	-314.07662	201.79016	276.6478	205.85851	0
906	-52.88855	209.11319	262.00174	-78.11232	-156.22464	235.15063	-157.03831	-317.3313	-304.31258	218.87723	291.29386	218.06356	0
907	-57.77057	216.43622	274.20679	-80.55333	-165.98868	244.91467	-152.15629	-312.44928	-296.98955	233.52329	301.0579	227.8276	0
908	-48.00653	223.75925	271.76578	-87.87636	-158.66565	247.35568	-152.15629	-317.3313	-294.54854	245.72834	308.38093	237.59164	0
909	-33.36047	238.40531	271.76578	-102.52242	-151.34262	254.67871	-159.47932	-327.09534	-304.31258	248.16935	308.38093	237.59164	0
910	-45.56552	245.72834	291.29386	-100.08141	-168.42969	266.88376	-161.92033	-334.41837	-311.63561	253.05137	313.26295	244.91467	0
911	-50.44754	255.49238	305.93992	-102.52242	-178.19373	279.08881	-166.80235	-341.7414	-316.51763	257.93339	318.14497	252.2377	0
912	-57.77057	257.93339	315.70396	-100.08141	-185.51676	286.41184	-166.80235	-341.7414	-316.51763	262.81541	325.468	259.56073	0
913	-52.88855	267.69743	320.58598	-107.40444	-185.51676	293.73487	-169.24336	-346.62342	-318.95864	267.69743	332.79103	266.88376	0
914	-21.15542	289.66652	310.82194	-134.25555	-165.98868	298.61689	-166.80235	-344.18241	-311.63561	279.90248	342.55507	276.6478	0
915	-8.95037	306.75359	315.70396	-148.90161	-161.10666	310.82194	-159.47932	-334.41837	-301.87157	294.54854	357.20113	288.85285	0
916	0.81367	318.95864	318.14497	-161.10666	-158.66565	318.14497	-157.03831	-327.09534	-294.54854	309.1946	366.96517	298.61689	0
917	-4.06835	321.39965	325.468	-158.66565	-163.54767	323.02699	-159.47932	-324.65433	-289.66652	321.39965	371.84719	303.49891	0
918	-11.39138	316.51763	327.90901	-153.78363	-168.42969	320.58598	-171.68437	-339.30039	-294.54854	323.84066	366.96517	298.61689	0
919	-11.39138	316.51763	327.90901	-153.78363	-168.42969	320.58598	-179.0074	-349.06443	-299.43056	328.72268	364.52416	298.61689	0
920	-23.59643	316.51763	340.11406	-146.4606	-180.63474	327.90901	-183.88942	-353.94645	-301.87157	333.6047	369.40618	301.0579	0
921	-38.24249	316.51763	354.76012	-139.13757	-195.2808	335.23204	-193.65346	-363.71049	-306.75359	333.6047	369.40618	303.49891	0
922	-33.36047	318.95864	352.31911	-144.01959	-192.83979	335.23204	-198.53548	-366.1515	-306.75359	333.6047	369.40618	305.93992	0
923	-21.15542	316.51763	337.67305	-148.90161	-178.19373	325.468	-203.4175	-366.1515	-309.1946	331.16369	369.40618	308.38093	0
924	-13.83239	314.07662	327.90901	-151.34262	-170.8707	320.58598	-200.97649	-358.82847	-304.31258	328.72268	376.72921	315.70396	0
925	-18.71441	311.63561	330.35002	-146.4606	-173.31171	320.58598	-198.53548	-346.62342	-296.98955	333.6047	381.61123	320.58598	0
926	-16.2734	309.1946	325.468	-146.4606	-170.8707	315.70396	-191.21245	-331.97736	-289.66652	340.92773	386.49325	327.90901	0
927	-8.95037	309.1946	318.14497	-151.34262	-163.54767	313.26295	-188.77144	-319.77231	-284.7845	348.25076	388.93426	330.35002	0
928	6.50936	314.07662	308.38093	-161.10666	-151.34262	310.82194	-181.44841	-310.00827	-277.46147	358.0148	391.37527	335.23204	0
929	8.95037	328.72268	320.58598	-168.42969	-156.22464	325.468	-179.0074	-305.12625	-272.57945	370.21985	396.25729	335.23204	0
930	8.95037	343.36874	335.23204	-175.75272	-163.54767	340.11406	-179.0074	-302.68524	-267.69743	379.98389	398.6983	340.11406	0
931	21.15542	353.13278	332.79103	-187.95777	-156.22464	342.55507	-176.56639	-302.68524	-265.25642	387.30692	401.13931	342.55507	0
932	30.91946	365.33783	335.23204	-197.72181	-151.34262	349.8781	-179.0074	-302.68524	-265.25642	384.86591	398.6983	342.55507	0
933	45.56552	382.4249	337.67305	-214.80888	-146.4606	359.64214	-179.0074	-302.68524	-255.49238	382.4249	398.6983	342.55507	0
934	45.56552	392.18894	347.43709	-219.6909	-151.34262	369.40618	-171.68437	-290.48019	-243.28733	377.54288	403.58032	347.43709	0
935	38.24249	392.18894	354.76012	-214.80888	-158.66565	374.2882	-164.36134	-278.27514	-231.08228	372.66086	403.58032	347.43709	0
936	48.00653	382.4249	335.23204	-214.80888	-144.01959	359.64214	-159.47932	-268.5111	-226.20026	365.33783	398.6983	342.55507	0
937	65.0936	384.86591	320.58598	-224.57292	-126.93252	352.31911	-154.5973	-256.30605	-218.87723	362.89682	391.37527	335.23204	0
938	72.41663	382.4249	310.82194	-227.01393	-119.60949	347.43709	-149.71528	-244.101	-211.5542	362.89682	386.49325	325.468	0
939	65.0936	358.0148	293.73487	-212.36787	-114.72747	325.468	-144.83326	-236.77797	-209.11319	360.45581	379.17022	315.70396	0
940	55.32956	345.80975	291.29386	-200.16282	-117.16848	318.14497	-144.83326	-234.33696	-209.11319	355.57379	371.84719	305.93992	0
941	57.77057	331.16369	274.20679	-195.2808	-107.40444	303.49891	-147.27427	-234.33696	-211.5542	348.25076	364.52416	296.17588	0
942	69.97562	318.95864	249.79669	-195.2808	-90.31737	283.97083	-147.27427	-224.57292	-209.11319	345.80975	359.64214	291.29386	0
943	57.77057	301.87157	244.91467	-180.63474	-92.75838	274.20679	-137.51023	-209.92686	-194.46713	345.80975	359.64214	291.29386	0
944	50.44754	277.46147	227.8276	-163.54767	-87.87636	252.2377	-137.51023	-192.83979	-187.1441	333.6047	352.31911	286.41184	0
945	50.44754	272.57945	222.94558	-161.10666	-85.43535	247.35568	-132.62821	-178.19373	-177.38006	321.39965	344.99608	279.08881	0
946	57.77057	270.13844	213.18154	-163.54767	-78.11232	242.47366	-120.42316	-156.22464	-162.734	321.39965	340.11406	276.6478	0
947	72.41663	262.81541	191.21245	-168.42969	-58.58424	227.8276	-108.21811	-134.25555	-145.64693	321.39965	335.23204	271.76578	0
948	72.41663	260.3744	188.77144	-165.98868	-58.58424	225.38659	-93.57205	-117.16848	-131.00087	321.39965	330.35002	264.44275	0
949	74.85764	257.93339	183.88942	-165.98868	-53.70222	220.50457	-86.24902	-104.96343	-123.67784	311.63561	315.70396	249.79669	0
950	84.62168	255.49238	171.68437	-170.8707	-43.93818	213.18154	-78.92599	-97.6404	-121.23683	299.43056	301.0579	232.70962	0
951	79.73966	255.49238	176.56639	-168.42969	-48.8202	215.62255	-64.27993	-85.43535	-109.03178	289.66652	288.85285	222.94558	0
952	74.85764	245.72834	171.68437	-161.10666	-48.8202	208.29952	-52.07488	-68.34828	-99.26774	277.46147	274.20679	210.74053	0
953	74.85764	235.9643	161.92033	-156.22464	-43.93818	198.53548	-44.75185	-56.14323	-87.06269	260.3744	257.11972	193.65346	0
954	72.41663	221.31824	149.71528	-146.4606	-39.05616	186.33043	-32.5468	-34.17414	-74.85764	240.84632	242.47366	179.0074	0
955	77.29865	209.11319	132.62821	-144.01959	-26.85111	171.68437	-20.34175	-9.76404	-55.32956	228.64127	230.26861	166.80235	0
956	69.97562	192.02612	122.86417	-131.81454	-26.85111	157.03831	-8.1367	12.20505	-40.6835	218.87723	220.50457	154.5973	0
957	74.85764	174.93905	100.89508	-124.49151	-12.20505	137.51023	-3.25468	27.66478	-30.91946	206.67218	205.85851	137.51023	0
958	91.94471	160.29299	69.16195	-126.93252	13.01872	115.54114	-0.81367	37.42882	-23.59643	196.90814	191.21245	120.42316	0
959	91.94471	140.76491	49.63387	-117.16848	22.78276	96.01306	9.76404	47.19286	-15.45973	189.58511	179.0074	105.7771	0
960	82.18067	121.23683	39.86983	-102.52242	22.78276	81.367	17.08707	54.51589	-5.69569	179.82107	164.36134	91.13104	0
961	69.97562	106.59077	37.42882	-87.87636	17.90074	71.60296	19.52808	54.51589	-3.25468	165.17501	147.27427	74.04397	0
