samplenr	I	II	III	aVR	aVL	aVF	V1	V2	V3	V4	V5	V6	measurement
0	-78.11232	12.20505	89.5037	31.73313	-84.62168	49.63387	8.1367	-80.55333	-67.53461	-106.59077	-102.52242	-74.04397	0
1	-73.2303	9.76404	82.18067	31.73313	-77.29865	44.75185	5.69569	-85.43535	-74.85764	-106.59077	-102.52242	-74.04397	0
2	-68.34828	7.32303	74.85764	29.29212	-72.41663	39.86983	8.1367	-92.75838	-82.18067	-109.03178	-100.08141	-74.04397	0
3	-75.67131	4.88202	79.73966	34.17414	-77.29865	42.31084	13.01872	-102.52242	-84.62168	-106.59077	-95.19939	-71.60296	0
4	-82.99434	2.44101	84.62168	39.05616	-84.62168	42.31084	22.78276	-107.40444	-84.62168	-109.03178	-92.75838	-66.72094	0
5	-82.99434	4.88202	87.06269	39.05616	-84.62168	44.75185	30.10579	-107.40444	-84.62168	-109.03178	-92.75838	-66.72094	0
6	-82.99434	7.32303	89.5037	36.61515	-87.06269	47.19286	34.98781	-104.96343	-79.73966	-106.59077	-92.75838	-66.72094	0
7	-85.43535	9.76404	94.38572	36.61515	-89.5037	52.07488	42.31084	-104.96343	-74.85764	-106.59077	-92.75838	-66.72094	0
8	-85.43535	9.76404	94.38572	36.61515	-89.5037	52.07488	42.31084	-104.96343	-74.85764	-106.59077	-92.75838	-66.72094	0
9	-82.99434	7.32303	89.5037	36.61515	-87.06269	47.19286	42.31084	-107.40444	-74.85764	-109.03178	-95.19939	-69.16195	0
10	-87.87636	4.88202	91.94471	41.49717	-89.5037	47.19286	42.31084	-104.96343	-74.85764	-106.59077	-95.19939	-69.16195	0
11	-87.87636	4.88202	91.94471	41.49717	-89.5037	47.19286	39.86983	-102.52242	-74.85764	-104.14976	-92.75838	-71.60296	0
12	-90.31737	2.44101	91.94471	43.93818	-91.94471	47.19286	37.42882	-102.52242	-77.29865	-109.03178	-95.19939	-76.48498	0
13	-90.31737	2.44101	91.94471	43.93818	-91.94471	47.19286	37.42882	-107.40444	-79.73966	-113.9138	-100.08141	-81.367	0
14	-92.75838	2.44101	94.38572	43.93818	-94.38572	47.19286	39.86983	-109.84545	-79.73966	-118.79582	-104.96343	-83.80801	0
15	-95.19939	4.88202	99.26774	43.93818	-96.82673	52.07488	44.75185	-107.40444	-74.85764	-118.79582	-107.40444	-83.80801	0
16	-95.19939	9.76404	104.14976	41.49717	-99.26774	56.9569	44.75185	-104.96343	-72.41663	-118.79582	-109.84545	-83.80801	0
17	-92.75838	9.76404	101.70875	41.49717	-96.82673	54.51589	44.75185	-112.28646	-74.85764	-123.67784	-117.16848	-88.69003	0
18	-92.75838	4.88202	96.82673	43.93818	-94.38572	49.63387	44.75185	-117.16848	-77.29865	-126.11885	-122.0505	-88.69003	0
19	-90.31737	4.88202	94.38572	41.49717	-91.94471	49.63387	42.31084	-122.0505	-82.18067	-126.11885	-122.0505	-88.69003	0
20	-80.55333	4.88202	84.62168	36.61515	-82.18067	44.75185	37.42882	-122.0505	-87.06269	-123.67784	-117.16848	-86.24902	0
21	-75.67131	4.88202	79.73966	34.17414	-77.29865	42.31084	34.98781	-122.0505	-89.5037	-121.23683	-112.28646	-81.367	0
22	-73.2303	2.44101	74.85764	34.17414	-74.85764	37.42882	34.98781	-126.93252	-96.82673	-118.79582	-109.84545	-81.367	0
23	-73.2303	2.44101	74.85764	34.17414	-74.85764	37.42882	34.98781	-129.37353	-96.82673	-118.79582	-107.40444	-78.92599	0
24	-73.2303	7.32303	79.73966	31.73313	-77.29865	42.31084	39.86983	-126.93252	-94.38572	-118.79582	-104.96343	-74.04397	0
25	-73.2303	14.64606	87.06269	29.29212	-79.73966	49.63387	42.31084	-122.0505	-89.5037	-113.9138	-104.96343	-71.60296	0
26	-73.2303	21.96909	94.38572	24.4101	-84.62168	56.9569	47.19286	-117.16848	-82.18067	-111.47279	-102.52242	-71.60296	0
27	-73.2303	26.85111	99.26774	21.96909	-87.06269	61.83892	47.19286	-114.72747	-79.73966	-111.47279	-104.96343	-74.04397	0
28	-70.78929	29.29212	99.26774	19.52808	-84.62168	64.27993	44.75185	-112.28646	-77.29865	-111.47279	-104.96343	-74.04397	0
29	-70.78929	29.29212	99.26774	19.52808	-84.62168	64.27993	39.86983	-109.84545	-77.29865	-109.03178	-107.40444	-74.04397	0
30	-70.78929	29.29212	99.26774	19.52808	-84.62168	64.27993	32.5468	-107.40444	-79.73966	-106.59077	-104.96343	-74.04397	0
31	-68.34828	29.29212	96.82673	19.52808	-82.18067	61.83892	27.66478	-112.28646	-84.62168	-109.03178	-104.96343	-76.48498	0
32	-65.90727	29.29212	94.38572	17.08707	-79.73966	61.83892	22.78276	-114.72747	-87.06269	-109.03178	-100.08141	-74.04397	0
33	-63.46626	29.29212	91.94471	17.08707	-77.29865	59.39791	22.78276	-114.72747	-87.06269	-109.03178	-97.6404	-74.04397	0
34	-61.02525	34.17414	94.38572	12.20505	-77.29865	64.27993	22.78276	-117.16848	-87.06269	-109.03178	-97.6404	-71.60296	0
35	-61.02525	41.49717	101.70875	9.76404	-82.18067	71.60296	20.34175	-119.60949	-82.18067	-106.59077	-97.6404	-71.60296	0
36	-56.14323	46.37919	101.70875	4.06835	-79.73966	74.04397	20.34175	-117.16848	-79.73966	-106.59077	-100.08141	-74.04397	0
37	-51.26121	46.37919	96.82673	1.62734	-74.85764	71.60296	25.22377	-109.84545	-69.97562	-101.70875	-100.08141	-76.48498	0
38	-46.37919	41.49717	87.06269	1.62734	-67.53461	64.27993	27.66478	-104.96343	-67.53461	-101.70875	-100.08141	-76.48498	0
39	-41.49717	39.05616	79.73966	1.62734	-60.21158	59.39791	27.66478	-104.96343	-69.97562	-104.14976	-102.52242	-78.92599	0
40	-43.93818	34.17414	77.29865	4.06835	-60.21158	54.51589	32.5468	-97.6404	-67.53461	-96.82673	-97.6404	-76.48498	0
41	-48.8202	29.29212	77.29865	9.76404	-62.65259	52.07488	37.42882	-92.75838	-67.53461	-94.38572	-95.19939	-74.04397	0
42	-48.8202	24.4101	72.41663	12.20505	-60.21158	47.19286	37.42882	-92.75838	-69.97562	-91.94471	-95.19939	-74.04397	0
43	-53.70222	24.4101	77.29865	14.64606	-65.0936	49.63387	39.86983	-92.75838	-67.53461	-91.94471	-90.31737	-71.60296	0
44	-63.46626	29.29212	91.94471	17.08707	-77.29865	59.39791	39.86983	-92.75838	-62.65259	-89.5037	-87.87636	-66.72094	0
45	-70.78929	34.17414	104.14976	17.08707	-87.06269	69.16195	37.42882	-87.87636	-55.32956	-84.62168	-85.43535	-64.27993	0
46	-73.2303	43.93818	116.35481	14.64606	-94.38572	78.92599	32.5468	-80.55333	-48.00653	-79.73966	-82.99434	-61.83892	0
47	-63.46626	53.70222	116.35481	4.06835	-89.5037	83.80801	30.10579	-78.11232	-48.00653	-79.73966	-82.99434	-59.39791	0
48	-56.14323	63.46626	118.79582	-3.25468	-87.06269	91.13104	32.5468	-70.78929	-43.12451	-72.41663	-75.67131	-54.51589	0
49	-48.8202	65.90727	113.9138	-8.1367	-82.18067	88.69003	34.98781	-58.58424	-40.6835	-62.65259	-65.90727	-44.75185	0
50	-29.29212	65.90727	94.38572	-17.90074	-62.65259	78.92599	37.42882	-48.8202	-40.6835	-55.32956	-61.02525	-39.86983	0
51	-19.52808	68.34828	87.06269	-25.22377	-52.88855	76.48498	47.19286	-41.49717	-43.12451	-50.44754	-56.14323	-34.98781	0
52	-14.64606	70.78929	84.62168	-27.66478	-50.44754	76.48498	59.39791	-31.73313	-40.6835	-43.12451	-51.26121	-30.10579	0
53	-14.64606	68.34828	82.18067	-27.66478	-48.00653	74.04397	71.60296	-29.29212	-35.80148	-40.6835	-48.8202	-24.4101	0
54	-12.20505	68.34828	79.73966	-27.66478	-45.56552	74.04397	78.92599	-34.17414	-35.80148	-45.56552	-48.8202	-21.96909	0
55	-12.20505	68.34828	79.73966	-27.66478	-45.56552	74.04397	83.80801	-36.61515	-30.91946	-45.56552	-51.26121	-21.96909	0
56	-19.52808	75.67131	94.38572	-27.66478	-57.77057	83.80801	86.24902	-41.49717	-28.47845	-50.44754	-56.14323	-26.85111	0
57	-26.85111	82.99434	109.03178	-27.66478	-67.53461	96.01306	83.80801	-43.93818	-26.03744	-55.32956	-58.58424	-30.10579	0
58	-29.29212	85.43535	113.9138	-27.66478	-72.41663	98.45407	74.04397	-51.26121	-28.47845	-60.21158	-63.46626	-32.5468	0
59	-19.52808	85.43535	104.14976	-32.5468	-62.65259	93.57205	59.39791	-56.14323	-35.80148	-65.0936	-68.34828	-37.42882	0
60	-12.20505	85.43535	96.82673	-37.42882	-55.32956	91.13104	44.75185	-61.02525	-43.12451	-65.0936	-73.2303	-42.31084	0
61	-12.20505	82.99434	94.38572	-34.98781	-52.88855	88.69003	30.10579	-61.02525	-45.56552	-62.65259	-73.2303	-42.31084	0
62	-1.62734	78.11232	79.73966	-37.42882	-40.6835	78.92599	13.01872	-63.46626	-55.32956	-67.53461	-78.11232	-44.75185	0
63	0.81367	73.2303	72.41663	-37.42882	-35.80148	74.04397	2.44101	-68.34828	-57.77057	-69.97562	-78.11232	-44.75185	0
64	-4.06835	70.78929	74.85764	-32.5468	-40.6835	74.04397	-4.88202	-73.2303	-60.21158	-69.97562	-78.11232	-39.86983	0
65	-6.50936	65.90727	72.41663	-30.10579	-40.6835	69.16195	-9.76404	-78.11232	-57.77057	-69.97562	-78.11232	-39.86983	0
66	-12.20505	56.14323	67.53461	-22.78276	-40.6835	61.83892	-12.20505	-82.99434	-60.21158	-69.97562	-78.11232	-39.86983	0
67	-17.08707	46.37919	62.65259	-15.45973	-40.6835	54.51589	-14.64606	-85.43535	-60.21158	-72.41663	-80.55333	-42.31084	0
68	-17.08707	34.17414	50.44754	-8.1367	-33.36047	42.31084	-12.20505	-92.75838	-62.65259	-77.29865	-82.99434	-44.75185	0
69	-21.96909	21.96909	43.12451	-0.81367	-33.36047	32.5468	-7.32303	-100.08141	-72.41663	-79.73966	-85.43535	-47.19286	0
70	-19.52808	17.08707	35.80148	1.62734	-28.47845	25.22377	-2.44101	-100.08141	-79.73966	-79.73966	-85.43535	-49.63387	0
71	-12.20505	14.64606	26.03744	-0.81367	-18.71441	20.34175	-2.44101	-102.52242	-87.06269	-84.62168	-87.87636	-54.51589	0
72	-17.08707	12.20505	28.47845	1.62734	-23.59643	20.34175	5.69569	-95.19939	-84.62168	-84.62168	-85.43535	-54.51589	0
73	-21.96909	12.20505	33.36047	4.06835	-28.47845	22.78276	10.57771	-90.31737	-82.18067	-84.62168	-85.43535	-56.9569	0
74	-31.73313	17.08707	48.00653	6.50936	-40.6835	32.5468	20.34175	-87.87636	-79.73966	-87.06269	-85.43535	-59.39791	0
75	-26.85111	24.4101	50.44754	1.62734	-38.24249	37.42882	30.10579	-85.43535	-77.29865	-87.06269	-87.87636	-59.39791	0
76	-36.61515	26.85111	62.65259	4.06835	-50.44754	44.75185	34.98781	-80.55333	-72.41663	-84.62168	-87.87636	-59.39791	0
77	-46.37919	21.96909	67.53461	12.20505	-57.77057	44.75185	37.42882	-78.11232	-69.97562	-84.62168	-90.31737	-64.27993	0
78	-48.8202	14.64606	62.65259	17.08707	-55.32956	37.42882	37.42882	-82.99434	-72.41663	-89.5037	-95.19939	-69.16195	0
79	-51.26121	9.76404	60.21158	19.52808	-55.32956	34.98781	39.86983	-87.87636	-77.29865	-91.94471	-97.6404	-74.04397	0
80	-48.8202	7.32303	55.32956	19.52808	-52.88855	30.10579	34.98781	-95.19939	-84.62168	-94.38572	-100.08141	-78.92599	0
81	-53.70222	0	52.88855	26.85111	-52.88855	25.22377	32.5468	-95.19939	-87.06269	-96.82673	-100.08141	-78.92599	0
82	-56.14323	-8.1367	48.00653	31.73313	-52.88855	20.34175	30.10579	-95.19939	-91.94471	-99.26774	-102.52242	-83.80801	0
83	-56.14323	-13.01872	43.12451	34.17414	-50.44754	15.45973	27.66478	-97.6404	-94.38572	-104.14976	-104.96343	-86.24902	0
84	-56.14323	-15.45973	40.6835	34.17414	-50.44754	13.01872	27.66478	-100.08141	-94.38572	-109.03178	-107.40444	-88.69003	0
85	-63.46626	-15.45973	48.00653	39.05616	-57.77057	15.45973	27.66478	-97.6404	-94.38572	-109.03178	-109.84545	-88.69003	0
86	-61.02525	-17.90074	43.12451	39.05616	-52.88855	13.01872	30.10579	-95.19939	-94.38572	-109.03178	-109.84545	-91.13104	0
87	-61.02525	-22.78276	38.24249	41.49717	-50.44754	8.1367	34.98781	-92.75838	-91.94471	-109.03178	-112.28646	-91.13104	0
88	-65.90727	-20.34175	45.56552	41.49717	-57.77057	13.01872	39.86983	-92.75838	-89.5037	-106.59077	-112.28646	-91.13104	0
89	-68.34828	-15.45973	52.88855	41.49717	-62.65259	17.90074	42.31084	-92.75838	-87.06269	-106.59077	-112.28646	-91.13104	0
90	-63.46626	-10.57771	52.88855	36.61515	-60.21158	20.34175	44.75185	-87.87636	-84.62168	-101.70875	-112.28646	-88.69003	0
91	-58.58424	-8.1367	50.44754	31.73313	-55.32956	20.34175	47.19286	-85.43535	-84.62168	-99.26774	-109.84545	-86.24902	0
92	-53.70222	-5.69569	48.00653	29.29212	-52.88855	20.34175	42.31084	-87.87636	-84.62168	-99.26774	-109.84545	-83.80801	0
93	-56.14323	-3.25468	52.88855	29.29212	-55.32956	25.22377	37.42882	-90.31737	-82.18067	-96.82673	-104.96343	-78.92599	0
94	-51.26121	0	50.44754	24.4101	-50.44754	25.22377	30.10579	-92.75838	-82.18067	-96.82673	-102.52242	-76.48498	0
95	-43.93818	0	43.12451	21.96909	-43.12451	20.34175	17.90074	-92.75838	-82.18067	-96.82673	-100.08141	-76.48498	0
96	-43.93818	0	43.12451	21.96909	-43.12451	20.34175	8.1367	-95.19939	-82.18067	-94.38572	-97.6404	-76.48498	0
97	-51.26121	0	50.44754	24.4101	-50.44754	25.22377	2.44101	-95.19939	-82.18067	-91.94471	-92.75838	-74.04397	0
98	-56.14323	0	55.32956	26.85111	-55.32956	27.66478	2.44101	-92.75838	-77.29865	-84.62168	-87.87636	-71.60296	0
99	-65.90727	-3.25468	62.65259	34.17414	-65.0936	30.10579	8.1367	-82.99434	-72.41663	-79.73966	-82.99434	-66.72094	0
100	-61.02525	-3.25468	57.77057	31.73313	-60.21158	27.66478	13.01872	-75.67131	-69.97562	-77.29865	-85.43535	-66.72094	1000	P+0
101	-56.14323	-5.69569	50.44754	29.29212	-55.32956	22.78276	20.34175	-73.2303	-72.41663	-77.29865	-85.43535	-66.72094	0
102	-53.70222	-5.69569	48.00653	29.29212	-52.88855	20.34175	30.10579	-65.90727	-69.97562	-77.29865	-87.87636	-66.72094	0
103	-53.70222	-5.69569	48.00653	29.29212	-52.88855	20.34175	42.31084	-56.14323	-65.0936	-77.29865	-90.31737	-64.27993	0
104	-48.8202	-8.1367	40.6835	26.85111	-45.56552	15.45973	47.19286	-51.26121	-65.0936	-84.62168	-97.6404	-71.60296	0
105	-43.93818	-10.57771	33.36047	26.85111	-40.6835	10.57771	54.51589	-43.93818	-60.21158	-87.06269	-107.40444	-78.92599	0
106	-46.37919	-17.90074	28.47845	31.73313	-38.24249	5.69569	66.72094	-21.96909	-43.12451	-79.73966	-107.40444	-86.24902	0
107	-53.70222	-25.22377	28.47845	39.05616	-43.12451	0	81.367	12.20505	-16.2734	-65.0936	-107.40444	-88.69003	0
108	-51.26121	-37.42882	13.83239	43.93818	-33.36047	-12.20505	93.57205	49.63387	13.83239	-48.00653	-102.52242	-91.13104	0
109	-41.49717	-54.51589	-13.83239	46.37919	-16.2734	-34.17414	103.33609	91.13104	45.56552	-26.03744	-95.19939	-91.13104	0
110	-24.4101	-69.16195	-45.56552	46.37919	8.95037	-58.58424	105.7771	135.06922	82.18067	4.06835	-73.2303	-78.92599	0
111	-8.95037	-81.367	-72.41663	43.93818	30.91946	-75.67131	108.21811	183.88942	133.44188	55.32956	-29.29212	-44.75185	0
112	27.66478	-91.13104	-118.79582	31.73313	72.41663	-104.96343	100.89508	227.8276	184.70309	113.9138	25.22377	-2.44101	0
113	71.60296	-93.57205	-165.17501	9.76404	116.35481	-129.37353	78.92599	269.32477	248.16935	189.58511	100.89508	61.02525	0
114	132.62821	-93.57205	-226.20026	-20.34175	177.38006	-158.66565	49.63387	301.0579	316.51763	282.34349	198.53548	146.4606	0
115	205.85851	-78.92599	-284.7845	-64.27993	243.28733	-180.63474	2.44101	310.82194	382.4249	394.62995	323.02699	263.62908	0
116	288.85285	-52.07488	-340.92773	-117.98215	314.07662	-195.2808	-53.70222	293.73487	445.89116	521.56247	469.48759	400.32564	0
117	379.17022	-22.78276	-401.95298	-179.0074	389.74793	-212.36787	-119.60949	247.35568	494.71136	653.37701	628.15324	551.66826	0
118	476.81062	19.52808	-458.09621	-247.35568	467.86025	-219.6909	-192.83979	171.68437	526.44449	780.30953	791.70091	707.8929	0
119	562.24597	73.2303	-489.82934	-318.14497	526.44449	-207.48585	-263.62908	74.04397	545.97257	907.24205	965.01262	878.7636	0
120	635.47627	134.25555	-502.03439	-384.05224	567.94166	-183.07575	-329.53635	-46.37919	536.20853	1009.76447	1118.79625	1034.98824	0
121	684.29647	190.39878	-494.71136	-437.75446	589.91075	-151.34262	-388.12059	-175.75272	504.4754	1073.23073	1233.52372	1159.47975	0
122	716.0296	239.21898	-477.62429	-476.81062	597.23378	-119.60949	-439.3818	-297.80322	453.21419	1085.43578	1292.10796	1235.15106	0
123	723.35263	273.39312	-450.77318	-498.77971	587.46974	-87.87636	-483.31998	-414.9717	377.54288	1043.93861	1287.22594	1257.12015	0
124	708.70657	290.48019	-419.04005	-498.77971	563.05964	-63.46626	-517.49412	-522.37614	279.90248	951.18023	1228.6417	1227.82803	0
125	667.2094	290.48019	-377.54288	-479.25163	521.56247	-43.93818	-539.46321	-615.13452	170.05703	824.24771	1116.35524	1154.59773	0
126	623.27122	275.83413	-348.25076	-449.95951	484.94732	-36.61515	-561.4323	-703.01088	38.24249	655.81802	957.68959	1034.98824	0
127	567.12799	258.74706	-309.1946	-413.34436	438.56813	-24.4101	-576.07836	-795.76926	-106.59077	465.41924	774.61384	890.96865	0
128	498.77971	239.21898	-260.3744	-369.40618	379.98389	-9.76404	-580.96038	-881.20461	-257.93339	267.69743	586.65607	737.18502	0
129	430.43143	217.24989	-213.99521	-323.02699	321.39965	2.44101	-571.19634	-959.31693	-404.39399	77.29865	401.13931	580.96038	0
130	366.96517	192.83979	-174.93905	-279.08881	270.13844	10.57771	-549.22725	-1003.25511	-526.44449	-82.18067	242.47366	441.82281	0
131	313.26295	161.10666	-152.96996	-237.59164	233.52329	5.69569	-529.69917	-1032.54723	-626.5259	-218.87723	98.45407	314.89029	0
132	257.11972	131.81454	-126.11885	-193.65346	192.02612	2.44101	-507.73008	-1039.87026	-697.31519	-326.28167	-16.2734	209.92686	0
133	208.29952	97.6404	-111.47279	-152.15629	160.29299	-7.32303	-488.202	-1027.66521	-736.37135	-404.39399	-104.96343	122.0505	0
134	176.56639	63.46626	-113.9138	-120.42316	145.64693	-24.4101	-468.67392	-981.28602	-736.37135	-445.89116	-165.98868	53.70222	0
135	154.5973	34.17414	-121.23683	-93.57205	138.3239	-43.93818	-441.82281	-903.1737	-694.87418	-445.89116	-192.83979	12.20505	0
136	132.62821	12.20505	-121.23683	-71.60296	126.11885	-53.70222	-417.41271	-812.85633	-636.28994	-423.92207	-200.16282	-12.20505	0
137	115.54114	4.88202	-111.47279	-59.39791	113.9138	-53.70222	-388.12059	-722.53896	-570.38267	-392.18894	-192.83979	-24.4101	0
138	113.10013	9.76404	-104.14976	-61.83892	109.03178	-46.37919	-356.38746	-634.6626	-502.03439	-353.13278	-178.19373	-30.10579	0
139	105.7771	21.96909	-84.62168	-64.27993	94.38572	-31.73313	-314.89029	-539.46321	-431.2451	-304.31258	-156.22464	-26.85111	0
140	83.80801	34.17414	-50.44754	-59.39791	67.53461	-7.32303	-266.07009	-449.14584	-362.89682	-253.05137	-131.81454	-19.52808	0
141	76.48498	43.93818	-33.36047	-59.39791	55.32956	5.69569	-222.13191	-378.35655	-311.63561	-216.43622	-117.16848	-19.52808	0
142	64.27993	48.8202	-16.2734	-56.9569	40.6835	17.90074	-183.07575	-319.77231	-267.69743	-189.58511	-109.84545	-26.85111	0
143	44.75185	51.26121	5.69569	-47.19286	18.71441	30.10579	-146.4606	-266.07009	-226.20026	-165.17501	-104.96343	-30.10579	0
144	25.22377	53.70222	28.47845	-39.86983	-0.81367	42.31084	-109.84545	-227.01393	-192.02612	-148.08794	-102.52242	-34.98781	0
145	10.57771	51.26121	40.6835	-30.10579	-16.2734	47.19286	-75.67131	-195.2808	-165.17501	-135.88289	-102.52242	-47.19286	0
146	13.01872	46.37919	33.36047	-30.10579	-11.39138	39.86983	-51.26121	-170.8707	-140.76491	-126.11885	-104.96343	-59.39791	0
147	-4.06835	36.61515	40.6835	-15.45973	-23.59643	39.86983	-21.96909	-139.13757	-111.47279	-106.59077	-100.08141	-61.83892	0
148	-12.20505	31.73313	43.12451	-10.57771	-28.47845	37.42882	0	-107.40444	-82.18067	-87.06269	-90.31737	-59.39791	0
149	-14.64606	26.85111	40.6835	-5.69569	-28.47845	32.5468	17.90074	-75.67131	-57.77057	-69.97562	-82.99434	-56.9569	0
150	-14.64606	19.52808	33.36047	-3.25468	-23.59643	25.22377	32.5468	-46.37919	-38.24249	-52.88855	-78.11232	-56.9569	0
151	-14.64606	19.52808	33.36047	-3.25468	-23.59643	25.22377	42.31084	-21.96909	-23.59643	-38.24249	-73.2303	-54.51589	0
152	-17.08707	17.08707	33.36047	-0.81367	-26.03744	25.22377	54.51589	-4.88202	-8.95037	-26.03744	-65.90727	-49.63387	0
153	-19.52808	17.08707	35.80148	1.62734	-28.47845	25.22377	61.83892	0	0.81367	-21.15542	-58.58424	-44.75185	0
154	-17.08707	17.08707	33.36047	-0.81367	-26.03744	25.22377	61.83892	2.44101	8.1367	-18.71441	-53.70222	-42.31084	0
155	-26.85111	14.64606	40.6835	6.50936	-33.36047	27.66478	59.39791	4.88202	13.83239	-15.45973	-46.37919	-42.31084	0
156	-26.85111	12.20505	38.24249	6.50936	-33.36047	25.22377	59.39791	2.44101	18.71441	-10.57771	-39.05616	-42.31084	0
157	-34.17414	9.76404	43.12451	12.20505	-38.24249	25.22377	61.83892	4.88202	26.03744	-3.25468	-31.73313	-39.86983	0
158	-41.49717	7.32303	48.00653	17.08707	-45.56552	27.66478	61.83892	14.64606	35.80148	6.50936	-29.29212	-37.42882	0
159	-41.49717	4.88202	45.56552	17.08707	-43.12451	25.22377	64.27993	26.85111	43.12451	16.2734	-23.59643	-37.42882	0
160	-41.49717	4.88202	45.56552	17.08707	-43.12451	25.22377	71.60296	42.31084	48.00653	23.59643	-23.59643	-34.98781	0
161	-36.61515	7.32303	43.12451	14.64606	-40.6835	25.22377	78.92599	54.51589	48.00653	28.47845	-21.15542	-32.5468	0
162	-36.61515	9.76404	45.56552	12.20505	-40.6835	27.66478	86.24902	61.83892	50.44754	33.36047	-21.15542	-30.10579	0
163	-39.05616	9.76404	48.00653	14.64606	-43.12451	27.66478	88.69003	64.27993	50.44754	33.36047	-21.15542	-24.4101	0
164	-34.17414	12.20505	45.56552	9.76404	-40.6835	27.66478	88.69003	59.39791	50.44754	28.47845	-21.15542	-24.4101	0
165	-39.05616	12.20505	50.44754	12.20505	-45.56552	30.10579	91.13104	56.9569	50.44754	26.03744	-18.71441	-21.96909	0
166	-39.05616	12.20505	50.44754	12.20505	-45.56552	30.10579	91.13104	52.07488	52.88855	28.47845	-16.2734	-21.96909	0
167	-39.05616	7.32303	45.56552	14.64606	-43.12451	25.22377	91.13104	47.19286	52.88855	28.47845	-16.2734	-26.85111	0
168	-41.49717	7.32303	48.00653	17.08707	-45.56552	27.66478	96.01306	49.63387	57.77057	33.36047	-13.83239	-26.85111	0
169	-36.61515	4.88202	40.6835	14.64606	-38.24249	22.78276	98.45407	54.51589	62.65259	38.24249	-13.83239	-30.10579	0
170	-29.29212	4.88202	33.36047	12.20505	-30.91946	17.90074	100.89508	64.27993	67.53461	48.00653	-13.83239	-30.10579	0
171	-26.85111	4.88202	30.91946	9.76404	-28.47845	17.90074	105.7771	76.48498	72.41663	55.32956	-13.83239	-26.85111	0
172	-19.52808	0	18.71441	9.76404	-18.71441	8.1367	105.7771	83.80801	74.85764	57.77057	-13.83239	-26.85111	0
173	-21.96909	-5.69569	16.2734	12.20505	-21.15542	5.69569	108.21811	93.57205	82.18067	62.65259	-8.95037	-21.96909	0
174	-19.52808	-8.1367	11.39138	12.20505	-16.2734	0	108.21811	98.45407	87.06269	62.65259	-4.06835	-19.52808	0
175	-14.64606	-8.1367	5.69569	9.76404	-11.39138	-2.44101	108.21811	103.33609	91.94471	62.65259	0.81367	-17.08707	0
176	-21.96909	-13.01872	8.1367	17.08707	-16.2734	-2.44101	105.7771	110.65912	94.38572	65.0936	5.69569	-14.64606	0
177	-24.4101	-17.90074	5.69569	19.52808	-16.2734	-7.32303	100.89508	115.54114	99.26774	65.0936	13.01872	-12.20505	0
178	-29.29212	-22.78276	5.69569	24.4101	-18.71441	-9.76404	96.01306	120.42316	101.70875	69.97562	17.90074	-9.76404	0
179	-31.73313	-22.78276	8.1367	26.85111	-21.15542	-7.32303	88.69003	122.86417	104.14976	74.85764	20.34175	-7.32303	0
180	-26.85111	-22.78276	3.25468	24.4101	-16.2734	-9.76404	81.367	127.74619	104.14976	79.73966	20.34175	-7.32303	0
181	-26.85111	-25.22377	0.81367	24.4101	-16.2734	-12.20505	76.48498	132.62821	109.03178	89.5037	25.22377	-2.44101	0
182	-24.4101	-27.66478	-4.06835	24.4101	-11.39138	-17.08707	74.04397	135.06922	111.47279	99.26774	30.10579	2.44101	0
183	-19.52808	-25.22377	-6.50936	21.96909	-8.1367	-17.08707	74.04397	135.06922	116.35481	101.70875	30.10579	2.44101	0
184	-17.08707	-17.90074	-1.62734	17.08707	-8.1367	-9.76404	78.92599	135.06922	121.23683	106.59077	32.5468	2.44101	0
185	-14.64606	-10.57771	3.25468	12.20505	-11.39138	-4.88202	81.367	137.51023	128.55986	106.59077	34.98781	2.44101	0
186	-12.20505	-13.01872	-1.62734	12.20505	-5.69569	-7.32303	86.24902	142.39225	133.44188	109.03178	34.98781	0	0
187	-12.20505	-13.01872	-1.62734	12.20505	-5.69569	-7.32303	88.69003	147.27427	140.76491	111.47279	34.98781	-2.44101	0
188	-6.50936	-15.45973	-8.95037	9.76404	-0.81367	-12.20505	86.24902	152.15629	143.20592	109.03178	34.98781	-4.88202	0
189	-4.06835	-15.45973	-11.39138	9.76404	1.62734	-12.20505	86.24902	154.5973	145.64693	111.47279	34.98781	-4.88202	0
190	-6.50936	-20.34175	-13.83239	12.20505	1.62734	-17.08707	81.367	161.92033	148.08794	118.79582	34.98781	0	0
191	-6.50936	-27.66478	-21.15542	17.08707	6.50936	-24.4101	78.92599	166.80235	150.52895	126.11885	37.42882	2.44101	0
192	0.81367	-32.5468	-33.36047	14.64606	16.2734	-31.73313	78.92599	171.68437	152.96996	135.88289	42.31084	9.76404	0
193	-1.62734	-32.5468	-30.91946	17.08707	13.83239	-31.73313	78.92599	176.56639	162.734	145.64693	52.07488	19.52808	0
194	-1.62734	-34.98781	-33.36047	17.08707	13.83239	-34.17414	81.367	179.0074	165.17501	148.08794	59.39791	21.96909	0
195	3.25468	-34.98781	-38.24249	14.64606	18.71441	-36.61515	83.80801	183.88942	172.49804	155.41097	61.83892	26.85111	0
196	3.25468	-32.5468	-35.80148	14.64606	18.71441	-34.17414	88.69003	193.65346	182.26208	160.29299	69.16195	29.29212	0
197	8.1367	-27.66478	-35.80148	9.76404	21.15542	-31.73313	88.69003	203.4175	192.02612	165.17501	74.04397	29.29212	0
198	13.01872	-20.34175	-33.36047	4.06835	21.15542	-26.85111	88.69003	210.74053	196.90814	167.61602	78.92599	31.73313	0
199	22.78276	-17.90074	-40.6835	-3.25468	30.91946	-29.29212	86.24902	210.74053	194.46713	170.05703	78.92599	34.17414	0
200	25.22377	-15.45973	-40.6835	-5.69569	30.91946	-26.85111	86.24902	215.62255	194.46713	182.26208	83.80801	39.05616	0
201	25.22377	-17.90074	-43.12451	-3.25468	33.36047	-29.29212	81.367	220.50457	199.34915	192.02612	88.69003	46.37919	0
202	25.22377	-20.34175	-45.56552	-3.25468	33.36047	-31.73313	76.48498	222.94558	201.79016	201.79016	96.01306	51.26121	0
203	37.42882	-22.78276	-60.21158	-8.1367	48.00653	-41.49717	71.60296	222.94558	206.67218	209.11319	103.33609	53.70222	0
204	39.86983	-25.22377	-65.0936	-8.1367	50.44754	-43.93818	71.60296	222.94558	211.5542	213.99521	108.21811	56.14323	0
205	42.31084	-32.5468	-74.85764	-5.69569	57.77057	-53.70222	76.48498	227.8276	221.31824	221.31824	110.65912	61.02525	0
206	47.19286	-39.86983	-87.06269	-3.25468	65.0936	-63.46626	76.48498	237.59164	235.9643	228.64127	115.54114	63.46626	0
207	52.07488	-39.86983	-91.94471	-5.69569	69.97562	-65.90727	76.48498	247.35568	245.72834	231.08228	117.98215	63.46626	0
208	59.39791	-39.86983	-99.26774	-10.57771	77.29865	-68.34828	78.92599	257.11972	255.49238	235.9643	125.30518	65.90727	0
209	64.27993	-39.86983	-104.14976	-13.01872	82.18067	-70.78929	78.92599	269.32477	262.81541	245.72834	132.62821	73.2303	0
210	76.48498	-39.86983	-116.35481	-17.90074	94.38572	-78.11232	78.92599	283.97083	270.13844	255.49238	142.39225	80.55333	0
211	88.69003	-34.98781	-123.67784	-27.66478	104.14976	-78.11232	76.48498	298.61689	279.90248	267.69743	152.15629	87.87636	0
212	98.45407	-34.98781	-133.44188	-32.5468	113.9138	-82.99434	71.60296	308.38093	284.7845	275.02046	161.92033	92.75838	0
213	100.89508	-39.86983	-140.76491	-30.10579	118.79582	-90.31737	66.72094	310.82194	287.22551	277.46147	166.80235	97.6404	0
214	110.65912	-44.75185	-155.41097	-32.5468	131.00087	-100.08141	61.83892	310.82194	287.22551	275.02046	166.80235	100.08141	0
215	108.21811	-49.63387	-157.85198	-30.10579	131.00087	-102.52242	61.83892	315.70396	292.10753	279.90248	169.24336	104.96343	0
216	103.33609	-56.9569	-160.29299	-22.78276	131.00087	-107.40444	61.83892	318.14497	296.98955	279.90248	169.24336	104.96343	0
217	93.57205	-66.72094	-160.29299	-13.01872	126.11885	-112.28646	59.39791	320.58598	301.87157	279.90248	169.24336	107.40444	0
218	91.13104	-74.04397	-165.17501	-8.1367	126.11885	-119.60949	52.07488	327.90901	306.75359	282.34349	169.24336	109.84545	0
219	98.45407	-78.92599	-177.38006	-10.57771	135.88289	-126.93252	44.75185	335.23204	309.1946	284.7845	174.12538	112.28646	0
220	103.33609	-83.80801	-187.1441	-10.57771	143.20592	-134.25555	37.42882	349.8781	314.07662	292.10753	183.88942	117.16848	0
221	105.7771	-83.80801	-189.58511	-10.57771	145.64693	-136.69656	30.10579	359.64214	316.51763	296.98955	191.21245	122.0505	0
222	115.54114	-86.24902	-201.79016	-15.45973	157.85198	-144.01959	20.34175	364.52416	314.07662	296.98955	198.53548	124.49151	0
223	125.30518	-88.69003	-213.99521	-17.90074	167.61602	-151.34262	13.01872	364.52416	314.07662	296.98955	203.4175	126.93252	0
224	127.74619	-91.13104	-218.87723	-17.90074	172.49804	-153.78363	5.69569	359.64214	311.63561	292.10753	205.85851	131.81454	0
225	122.86417	-96.01306	-218.87723	-13.01872	170.05703	-156.22464	5.69569	354.76012	311.63561	289.66652	205.85851	134.25555	0
226	115.54114	-96.01306	-211.5542	-10.57771	162.734	-153.78363	10.57771	349.8781	311.63561	289.66652	208.29952	139.13757	0
227	117.98215	-96.01306	-213.99521	-10.57771	165.17501	-153.78363	10.57771	342.55507	309.1946	287.22551	210.74053	141.57858	0
228	127.74619	-93.57205	-221.31824	-17.90074	172.49804	-156.22464	8.1367	330.35002	306.75359	287.22551	210.74053	144.01959	0
229	132.62821	-98.45407	-231.08228	-17.90074	179.82107	-163.54767	5.69569	323.02699	301.87157	287.22551	218.06356	148.90161	0
230	137.51023	-105.7771	-243.28733	-15.45973	189.58511	-173.31171	5.69569	318.14497	299.43056	294.54854	225.38659	151.34262	0
231	147.27427	-105.7771	-253.05137	-20.34175	199.34915	-178.19373	2.44101	318.14497	296.98955	296.98955	232.70962	156.22464	0
232	157.03831	-105.7771	-262.81541	-25.22377	209.11319	-183.07575	-2.44101	313.26295	292.10753	296.98955	235.15063	156.22464	0
233	176.56639	-108.21811	-284.7845	-34.98781	228.64127	-195.2808	-12.20505	305.93992	284.7845	294.54854	232.70962	153.78363	0
234	179.0074	-113.10013	-292.10753	-32.5468	233.52329	-202.60383	-14.64606	303.49891	284.7845	289.66652	230.26861	153.78363	0
235	179.0074	-117.98215	-296.98955	-30.10579	235.9643	-207.48585	-14.64606	305.93992	284.7845	282.34349	222.94558	153.78363	0
236	176.56639	-115.54114	-292.10753	-30.10579	233.52329	-202.60383	-17.08707	305.93992	279.90248	272.57945	213.18154	148.90161	0
237	183.88942	-110.65912	-294.54854	-37.42882	238.40531	-202.60383	-19.52808	298.61689	275.02046	262.81541	203.4175	144.01959	0
238	183.88942	-113.10013	-296.98955	-34.98781	238.40531	-205.04484	-14.64606	288.85285	270.13844	257.93339	198.53548	144.01959	0
239	181.44841	-115.54114	-296.98955	-32.5468	238.40531	-205.04484	-14.64606	279.08881	262.81541	255.49238	200.97649	146.4606	0
240	176.56639	-120.42316	-296.98955	-27.66478	235.9643	-207.48585	-9.76404	274.20679	257.93339	260.3744	205.85851	151.34262	0
241	181.44841	-125.30518	-306.75359	-27.66478	243.28733	-214.80888	-12.20505	262.00174	245.72834	257.93339	208.29952	151.34262	0
242	183.88942	-130.1872	-314.07662	-27.66478	248.16935	-222.13191	-17.08707	247.35568	233.52329	253.05137	208.29952	151.34262	1500	QRS+0
243	181.44841	-130.1872	-311.63561	-25.22377	245.72834	-219.6909	-21.96909	235.15063	221.31824	245.72834	208.29952	151.34262	0
244	181.44841	-125.30518	-306.75359	-27.66478	243.28733	-214.80888	-24.4101	225.38659	211.5542	235.9643	205.85851	148.90161	0
245	181.44841	-120.42316	-301.87157	-30.10579	240.84632	-209.92686	-29.29212	215.62255	201.79016	226.20026	196.09447	144.01959	0
246	179.0074	-115.54114	-294.54854	-32.5468	235.9643	-205.04484	-34.17414	198.53548	187.1441	211.5542	183.88942	134.25555	0
247	174.12538	-110.65912	-284.7845	-32.5468	228.64127	-197.72181	-41.49717	179.0074	172.49804	196.90814	174.12538	124.49151	0
248	164.36134	-105.7771	-270.13844	-30.10579	216.43622	-187.95777	-46.37919	164.36134	165.17501	189.58511	166.80235	122.0505	0
249	159.47932	-100.89508	-260.3744	-30.10579	209.11319	-180.63474	-51.26121	152.15629	157.85198	182.26208	161.92033	117.16848	0
250	154.5973	-100.89508	-255.49238	-27.66478	204.23117	-178.19373	-56.14323	139.95124	148.08794	174.93905	154.5973	112.28646	0
251	147.27427	-98.45407	-245.72834	-25.22377	194.46713	-170.8707	-65.90727	127.74619	135.88289	165.17501	144.83326	102.52242	0
252	139.95124	-93.57205	-233.52329	-22.78276	184.70309	-163.54767	-68.34828	117.98215	128.55986	155.41097	135.06922	97.6404	0
253	130.1872	-88.69003	-218.87723	-20.34175	172.49804	-153.78363	-68.34828	110.65912	123.67784	140.76491	125.30518	90.31737	0
254	120.42316	-83.80801	-204.23117	-17.90074	160.29299	-144.01959	-68.34828	103.33609	116.35481	126.11885	115.54114	80.55333	0
255	113.10013	-76.48498	-189.58511	-17.90074	150.52895	-131.81454	-63.46626	91.13104	106.59077	109.03178	100.89508	70.78929	0
256	98.45407	-71.60296	-170.05703	-13.01872	133.44188	-119.60949	-58.58424	81.367	96.82673	96.82673	93.57205	65.90727	0
257	93.57205	-66.72094	-160.29299	-13.01872	126.11885	-112.28646	-56.14323	69.16195	87.06269	82.18067	83.80801	56.14323	0
258	91.13104	-59.39791	-150.52895	-15.45973	118.79582	-104.96343	-51.26121	54.51589	74.85764	69.97562	76.48498	48.8202	0
259	78.92599	-52.07488	-131.00087	-13.01872	104.14976	-90.31737	-48.8202	42.31084	60.21158	60.21158	66.72094	41.49717	0
260	71.60296	-39.86983	-111.47279	-15.45973	89.5037	-75.67131	-43.93818	30.10579	43.12451	52.88855	59.39791	36.61515	0
261	69.16195	-34.98781	-104.14976	-17.90074	84.62168	-68.34828	-43.93818	19.52808	28.47845	45.56552	49.63387	29.29212	0
262	59.39791	-34.98781	-94.38572	-13.01872	74.85764	-63.46626	-39.05616	9.76404	18.71441	38.24249	39.86983	21.96909	0
263	52.07488	-30.10579	-82.18067	-10.57771	65.0936	-56.14323	-34.17414	0	10.57771	28.47845	30.10579	14.64606	0
264	42.31084	-25.22377	-67.53461	-8.1367	52.88855	-46.37919	-31.73313	-9.76404	5.69569	16.2734	22.78276	4.88202	0
265	30.10579	-30.10579	-60.21158	-0.81367	43.12451	-43.93818	-26.85111	-12.20505	3.25468	8.95037	15.45973	-2.44101	0
266	17.90074	-32.5468	-50.44754	6.50936	33.36047	-41.49717	-21.96909	-17.08707	3.25468	4.06835	10.57771	-7.32303	0
267	0.81367	-32.5468	-33.36047	14.64606	16.2734	-31.73313	-17.08707	-19.52808	0.81367	-0.81367	8.1367	-9.76404	0
268	-4.06835	-25.22377	-21.15542	14.64606	6.50936	-21.96909	-14.64606	-24.4101	-4.06835	-8.1367	3.25468	-12.20505	0
269	-4.06835	-15.45973	-11.39138	9.76404	1.62734	-12.20505	-14.64606	-29.29212	-8.95037	-13.01872	0.81367	-12.20505	0
270	-12.20505	-10.57771	0.81367	9.76404	-8.1367	-4.88202	-9.76404	-29.29212	-16.2734	-10.57771	0.81367	-9.76404	0
271	-17.08707	-8.1367	8.1367	12.20505	-13.83239	0	-7.32303	-31.73313	-21.15542	-13.01872	-1.62734	-9.76404	0
272	-14.64606	-3.25468	11.39138	6.50936	-13.83239	2.44101	-4.88202	-31.73313	-26.03744	-15.45973	-4.06835	-7.32303	0
273	-14.64606	0	13.83239	6.50936	-13.83239	5.69569	-9.76404	-31.73313	-28.47845	-18.71441	-6.50936	-7.32303	0
274	-26.85111	0	26.03744	12.20505	-26.03744	13.01872	-9.76404	-31.73313	-28.47845	-26.03744	-8.95037	-9.76404	0
275	-36.61515	-8.1367	28.47845	21.96909	-33.36047	10.57771	-12.20505	-34.17414	-30.91946	-35.80148	-16.2734	-17.08707	0
276	-39.05616	-13.01872	26.03744	24.4101	-33.36047	5.69569	-14.64606	-39.05616	-35.80148	-45.56552	-23.59643	-26.85111	0
277	-46.37919	-15.45973	30.91946	29.29212	-40.6835	8.1367	-17.08707	-46.37919	-38.24249	-52.88855	-29.29212	-32.5468	0
278	-61.02525	-15.45973	45.56552	36.61515	-55.32956	15.45973	-12.20505	-48.8202	-33.36047	-52.88855	-29.29212	-34.98781	0
279	-63.46626	-10.57771	52.88855	36.61515	-60.21158	20.34175	-9.76404	-53.70222	-38.24249	-55.32956	-31.73313	-39.86983	0
280	-56.14323	-10.57771	45.56552	31.73313	-52.88855	17.90074	-7.32303	-56.14323	-45.56552	-57.77057	-36.61515	-44.75185	0
281	-43.93818	-5.69569	38.24249	24.4101	-43.12451	15.45973	-2.44101	-56.14323	-50.44754	-57.77057	-39.05616	-44.75185	0
282	-41.49717	0	40.6835	19.52808	-40.6835	20.34175	2.44101	-53.70222	-50.44754	-55.32956	-34.17414	-42.31084	0
283	-41.49717	4.88202	45.56552	17.08707	-43.12451	25.22377	10.57771	-46.37919	-45.56552	-55.32956	-31.73313	-37.42882	0
284	-29.29212	9.76404	38.24249	9.76404	-33.36047	22.78276	8.1367	-43.93818	-48.00653	-65.0936	-36.61515	-42.31084	0
285	-19.52808	12.20505	30.91946	4.06835	-26.03744	20.34175	10.57771	-39.05616	-48.00653	-72.41663	-43.93818	-44.75185	0
286	-19.52808	9.76404	28.47845	4.06835	-23.59643	17.90074	15.45973	-36.61515	-48.00653	-77.29865	-46.37919	-47.19286	0
287	-26.85111	9.76404	35.80148	6.50936	-30.91946	22.78276	20.34175	-39.05616	-45.56552	-79.73966	-51.26121	-49.63387	0
288	-34.17414	9.76404	43.12451	12.20505	-38.24249	25.22377	25.22377	-43.93818	-43.12451	-82.18067	-56.14323	-54.51589	0
289	-34.17414	9.76404	43.12451	12.20505	-38.24249	25.22377	27.66478	-48.8202	-45.56552	-87.06269	-63.46626	-59.39791	0
290	-29.29212	9.76404	38.24249	9.76404	-33.36047	22.78276	30.10579	-53.70222	-48.00653	-89.5037	-70.78929	-64.27993	0
291	-34.17414	9.76404	43.12451	12.20505	-38.24249	25.22377	32.5468	-58.58424	-50.44754	-87.06269	-70.78929	-66.72094	0
292	-36.61515	4.88202	40.6835	14.64606	-38.24249	22.78276	32.5468	-63.46626	-55.32956	-84.62168	-73.2303	-66.72094	0
293	-43.93818	4.88202	48.00653	19.52808	-45.56552	25.22377	30.10579	-65.90727	-55.32956	-84.62168	-73.2303	-69.16195	0
294	-51.26121	2.44101	52.88855	24.4101	-52.88855	27.66478	25.22377	-63.46626	-55.32956	-84.62168	-70.78929	-66.72094	0
295	-61.02525	2.44101	62.65259	29.29212	-62.65259	32.5468	20.34175	-61.02525	-57.77057	-84.62168	-70.78929	-66.72094	0
296	-70.78929	-3.25468	67.53461	36.61515	-69.97562	32.5468	17.90074	-58.58424	-57.77057	-82.18067	-68.34828	-66.72094	0
297	-75.67131	-8.1367	67.53461	41.49717	-72.41663	30.10579	13.01872	-56.14323	-57.77057	-82.18067	-68.34828	-66.72094	0
298	-75.67131	-13.01872	62.65259	43.93818	-69.97562	25.22377	13.01872	-56.14323	-57.77057	-82.18067	-65.90727	-69.16195	0
299	-78.11232	-13.01872	65.0936	43.93818	-72.41663	25.22377	15.45973	-56.14323	-57.77057	-82.18067	-63.46626	-69.16195	0
300	-73.2303	-10.57771	62.65259	41.49717	-69.97562	25.22377	15.45973	-53.70222	-57.77057	-82.18067	-63.46626	-69.16195	0
301	-63.46626	-8.1367	55.32956	34.17414	-60.21158	22.78276	20.34175	-53.70222	-62.65259	-82.18067	-63.46626	-69.16195	0
302	-58.58424	-3.25468	55.32956	29.29212	-57.77057	25.22377	27.66478	-53.70222	-62.65259	-82.18067	-63.46626	-69.16195	0
303	-61.02525	2.44101	62.65259	29.29212	-62.65259	32.5468	34.98781	-53.70222	-57.77057	-84.62168	-63.46626	-69.16195	0
304	-65.90727	7.32303	72.41663	29.29212	-69.97562	39.86983	42.31084	-53.70222	-55.32956	-84.62168	-61.02525	-66.72094	0
305	-73.2303	9.76404	82.18067	31.73313	-77.29865	44.75185	47.19286	-48.8202	-55.32956	-84.62168	-58.58424	-64.27993	0
306	-68.34828	17.08707	84.62168	24.4101	-77.29865	49.63387	47.19286	-46.37919	-52.88855	-82.18067	-56.14323	-61.83892	0
307	-68.34828	19.52808	87.06269	24.4101	-77.29865	52.07488	52.07488	-43.93818	-50.44754	-77.29865	-56.14323	-61.83892	0
308	-68.34828	21.96909	89.5037	21.96909	-79.73966	54.51589	52.07488	-39.05616	-45.56552	-74.85764	-51.26121	-59.39791	0
309	-58.58424	19.52808	77.29865	19.52808	-67.53461	47.19286	54.51589	-36.61515	-45.56552	-74.85764	-51.26121	-59.39791	0
310	-56.14323	17.08707	72.41663	19.52808	-65.0936	44.75185	54.51589	-31.73313	-48.00653	-74.85764	-51.26121	-59.39791	0
311	-51.26121	19.52808	69.97562	14.64606	-60.21158	44.75185	56.9569	-24.4101	-43.12451	-72.41663	-53.70222	-59.39791	0
312	-51.26121	21.96909	72.41663	14.64606	-62.65259	47.19286	56.9569	-21.96909	-38.24249	-72.41663	-56.14323	-61.83892	0
313	-63.46626	21.96909	84.62168	19.52808	-74.85764	52.07488	61.83892	-14.64606	-28.47845	-72.41663	-56.14323	-59.39791	0
314	-63.46626	14.64606	77.29865	24.4101	-69.97562	44.75185	59.39791	-14.64606	-26.03744	-72.41663	-56.14323	-59.39791	0
315	-65.90727	12.20505	77.29865	26.85111	-72.41663	44.75185	56.9569	-7.32303	-21.15542	-69.97562	-53.70222	-54.51589	0
316	-70.78929	17.08707	87.06269	26.85111	-79.73966	52.07488	56.9569	-2.44101	-13.83239	-65.0936	-48.8202	-52.07488	0
317	-68.34828	21.96909	89.5037	21.96909	-79.73966	54.51589	56.9569	-4.88202	-16.2734	-65.0936	-48.8202	-52.07488	0
318	-68.34828	17.08707	84.62168	24.4101	-77.29865	49.63387	59.39791	-12.20505	-21.15542	-69.97562	-48.8202	-52.07488	0
319	-58.58424	9.76404	67.53461	24.4101	-62.65259	37.42882	59.39791	-19.52808	-30.91946	-74.85764	-48.8202	-52.07488	0
320	-53.70222	9.76404	62.65259	21.96909	-57.77057	34.98781	59.39791	-17.08707	-38.24249	-79.73966	-51.26121	-52.07488	0
321	-61.02525	7.32303	67.53461	26.85111	-65.0936	37.42882	59.39791	-17.08707	-43.12451	-82.18067	-51.26121	-49.63387	0
322	-68.34828	2.44101	69.97562	31.73313	-69.97562	34.98781	61.83892	-17.08707	-45.56552	-84.62168	-53.70222	-52.07488	0
323	-70.78929	-3.25468	67.53461	36.61515	-69.97562	32.5468	61.83892	-17.08707	-43.12451	-87.06269	-56.14323	-52.07488	0
324	-68.34828	-3.25468	65.0936	34.17414	-67.53461	30.10579	64.27993	-14.64606	-38.24249	-87.06269	-53.70222	-52.07488	0
325	-73.2303	2.44101	74.85764	34.17414	-74.85764	37.42882	66.72094	-7.32303	-30.91946	-82.18067	-51.26121	-47.19286	0
326	-70.78929	9.76404	79.73966	29.29212	-74.85764	44.75185	66.72094	-4.88202	-28.47845	-77.29865	-48.8202	-47.19286	0
327	-65.90727	9.76404	74.85764	26.85111	-69.97562	42.31084	66.72094	-2.44101	-26.03744	-77.29865	-48.8202	-47.19286	0
328	-61.02525	9.76404	69.97562	24.4101	-65.0936	39.86983	64.27993	0	-26.03744	-74.85764	-48.8202	-49.63387	0
329	-56.14323	9.76404	65.0936	21.96909	-60.21158	37.42882	61.83892	2.44101	-26.03744	-74.85764	-48.8202	-47.19286	0
330	-56.14323	9.76404	65.0936	21.96909	-60.21158	37.42882	59.39791	7.32303	-30.91946	-77.29865	-48.8202	-47.19286	0
331	-58.58424	4.88202	62.65259	26.85111	-60.21158	32.5468	56.9569	12.20505	-30.91946	-77.29865	-48.8202	-47.19286	0
332	-58.58424	0	57.77057	29.29212	-57.77057	27.66478	54.51589	19.52808	-28.47845	-77.29865	-51.26121	-47.19286	0
333	-61.02525	0	60.21158	29.29212	-60.21158	30.10579	56.9569	24.4101	-23.59643	-79.73966	-53.70222	-47.19286	0
334	-61.02525	7.32303	67.53461	26.85111	-65.0936	37.42882	56.9569	24.4101	-23.59643	-84.62168	-58.58424	-49.63387	0
335	-58.58424	12.20505	69.97562	21.96909	-65.0936	39.86983	56.9569	24.4101	-26.03744	-87.06269	-63.46626	-49.63387	0
336	-61.02525	12.20505	72.41663	24.4101	-67.53461	42.31084	59.39791	21.96909	-26.03744	-87.06269	-65.90727	-49.63387	0
337	-61.02525	17.08707	77.29865	21.96909	-69.97562	47.19286	61.83892	19.52808	-26.03744	-84.62168	-65.90727	-49.63387	0
338	-58.58424	19.52808	77.29865	19.52808	-67.53461	47.19286	61.83892	19.52808	-26.03744	-84.62168	-63.46626	-47.19286	0
339	-56.14323	24.4101	79.73966	14.64606	-67.53461	52.07488	56.9569	17.08707	-28.47845	-82.18067	-63.46626	-47.19286	0
340	-53.70222	26.85111	79.73966	12.20505	-67.53461	52.07488	54.51589	21.96909	-33.36047	-82.18067	-63.46626	-47.19286	0
341	-58.58424	24.4101	82.18067	17.08707	-69.97562	52.07488	54.51589	26.85111	-33.36047	-79.73966	-58.58424	-44.75185	0
342	-51.26121	26.85111	77.29865	12.20505	-65.0936	52.07488	54.51589	30.10579	-30.91946	-77.29865	-53.70222	-44.75185	0
343	-43.93818	26.85111	69.97562	6.50936	-57.77057	47.19286	52.07488	30.10579	-28.47845	-77.29865	-53.70222	-39.86983	0
344	-48.8202	29.29212	77.29865	9.76404	-62.65259	52.07488	52.07488	32.5468	-23.59643	-77.29865	-51.26121	-37.42882	-1500	QRS-0
345	-48.8202	26.85111	74.85764	9.76404	-62.65259	49.63387	52.07488	37.42882	-23.59643	-77.29865	-51.26121	-32.5468	0
346	-48.8202	21.96909	69.97562	12.20505	-60.21158	44.75185	49.63387	39.86983	-21.15542	-69.97562	-51.26121	-30.10579	0
347	-48.8202	19.52808	67.53461	14.64606	-57.77057	42.31084	49.63387	42.31084	-16.2734	-65.0936	-46.37919	-26.85111	0
348	-51.26121	9.76404	60.21158	19.52808	-55.32956	34.98781	44.75185	42.31084	-16.2734	-62.65259	-46.37919	-26.85111	0
349	-63.46626	7.32303	69.97562	26.85111	-67.53461	37.42882	44.75185	44.75185	-16.2734	-60.21158	-43.93818	-24.4101	0
350	-61.02525	7.32303	67.53461	26.85111	-65.0936	37.42882	39.86983	47.19286	-21.15542	-60.21158	-43.93818	-26.85111	0
351	-56.14323	9.76404	65.0936	21.96909	-60.21158	37.42882	37.42882	44.75185	-26.03744	-62.65259	-46.37919	-30.10579	0
352	-61.02525	9.76404	69.97562	24.4101	-65.0936	39.86983	42.31084	42.31084	-28.47845	-65.0936	-46.37919	-30.10579	0
353	-61.02525	12.20505	72.41663	24.4101	-67.53461	42.31084	42.31084	34.98781	-28.47845	-69.97562	-51.26121	-34.98781	0
354	-58.58424	14.64606	72.41663	21.96909	-65.0936	42.31084	42.31084	30.10579	-28.47845	-74.85764	-53.70222	-37.42882	0
355	-65.90727	24.4101	89.5037	19.52808	-77.29865	56.9569	47.19286	37.42882	-23.59643	-67.53461	-51.26121	-30.10579	0
356	-58.58424	24.4101	82.18067	17.08707	-69.97562	52.07488	47.19286	37.42882	-26.03744	-67.53461	-53.70222	-32.5468	0
357	-61.02525	24.4101	84.62168	17.08707	-72.41663	54.51589	54.51589	34.98781	-28.47845	-65.0936	-53.70222	-30.10579	0
358	-58.58424	21.96909	79.73966	17.08707	-69.97562	49.63387	56.9569	34.98781	-28.47845	-62.65259	-51.26121	-30.10579	0
359	-56.14323	19.52808	74.85764	17.08707	-65.0936	47.19286	61.83892	37.42882	-28.47845	-62.65259	-51.26121	-30.10579	0
360	-56.14323	17.08707	72.41663	19.52808	-65.0936	44.75185	61.83892	39.86983	-38.24249	-67.53461	-51.26121	-32.5468	0
361	-48.8202	14.64606	62.65259	17.08707	-55.32956	37.42882	56.9569	34.98781	-45.56552	-77.29865	-56.14323	-39.86983	0
362	-48.8202	9.76404	57.77057	19.52808	-52.88855	32.5468	52.07488	34.98781	-50.44754	-84.62168	-58.58424	-47.19286	0
363	-63.46626	2.44101	65.0936	29.29212	-65.0936	32.5468	49.63387	39.86983	-45.56552	-89.5037	-58.58424	-47.19286	0
364	-73.2303	0	72.41663	36.61515	-72.41663	34.98781	47.19286	39.86983	-43.12451	-91.94471	-58.58424	-47.19286	0
365	-73.2303	0	72.41663	36.61515	-72.41663	34.98781	39.86983	42.31084	-43.12451	-96.82673	-65.90727	-52.07488	0
366	-73.2303	0	72.41663	36.61515	-72.41663	34.98781	37.42882	37.42882	-40.6835	-99.26774	-68.34828	-54.51589	0
367	-70.78929	4.88202	74.85764	31.73313	-72.41663	39.86983	32.5468	30.10579	-40.6835	-99.26774	-70.78929	-54.51589	0
368	-70.78929	7.32303	77.29865	31.73313	-74.85764	42.31084	32.5468	21.96909	-40.6835	-104.14976	-73.2303	-56.9569	0
369	-63.46626	14.64606	77.29865	24.4101	-69.97562	44.75185	32.5468	14.64606	-48.00653	-109.03178	-75.67131	-56.9569	0
370	-56.14323	24.4101	79.73966	14.64606	-67.53461	52.07488	32.5468	7.32303	-57.77057	-116.35481	-78.11232	-56.9569	0
371	-51.26121	31.73313	82.18067	9.76404	-67.53461	56.9569	32.5468	0	-65.0936	-118.79582	-78.11232	-59.39791	0
372	-53.70222	39.05616	91.94471	6.50936	-72.41663	64.27993	37.42882	-2.44101	-67.53461	-116.35481	-70.78929	-52.07488	0
373	-53.70222	41.49717	94.38572	6.50936	-74.85764	66.72094	42.31084	0	-62.65259	-109.03178	-61.02525	-44.75185	0
374	-53.70222	41.49717	94.38572	6.50936	-74.85764	66.72094	44.75185	2.44101	-60.21158	-99.26774	-56.14323	-37.42882	0
375	-43.93818	41.49717	84.62168	1.62734	-65.0936	61.83892	39.86983	4.88202	-57.77057	-96.82673	-53.70222	-37.42882	0
376	-34.17414	43.93818	77.29865	-5.69569	-55.32956	59.39791	34.98781	4.88202	-57.77057	-91.94471	-53.70222	-37.42882	0
377	-31.73313	41.49717	72.41663	-5.69569	-52.88855	56.9569	32.5468	7.32303	-57.77057	-91.94471	-58.58424	-37.42882	0
378	-39.05616	26.85111	65.0936	6.50936	-52.88855	44.75185	27.66478	12.20505	-55.32956	-91.94471	-61.02525	-37.42882	0
379	-46.37919	17.08707	62.65259	14.64606	-55.32956	39.86983	20.34175	14.64606	-57.77057	-101.70875	-65.90727	-39.86983	0
380	-58.58424	9.76404	67.53461	24.4101	-62.65259	37.42882	10.57771	9.76404	-69.97562	-118.79582	-75.67131	-49.63387	0
381	-70.78929	2.44101	72.41663	34.17414	-72.41663	37.42882	5.69569	2.44101	-74.85764	-128.55986	-80.55333	-52.07488	0
382	-85.43535	-5.69569	79.73966	43.93818	-84.62168	37.42882	8.1367	-2.44101	-77.29865	-133.44188	-82.99434	-54.51589	0
383	-87.87636	-10.57771	77.29865	48.8202	-84.62168	32.5468	10.57771	-9.76404	-77.29865	-135.88289	-82.99434	-54.51589	0
384	-85.43535	-13.01872	72.41663	48.8202	-79.73966	30.10579	10.57771	-19.52808	-82.18067	-138.3239	-85.43535	-56.9569	0
385	-75.67131	-8.1367	67.53461	41.49717	-72.41663	30.10579	10.57771	-24.4101	-82.18067	-138.3239	-87.87636	-56.9569	0
386	-68.34828	-3.25468	65.0936	34.17414	-67.53461	30.10579	13.01872	-26.85111	-82.18067	-131.00087	-87.87636	-54.51589	0
387	-56.14323	-3.25468	52.88855	29.29212	-55.32956	25.22377	15.45973	-26.85111	-79.73966	-128.55986	-87.87636	-52.07488	0
388	-53.70222	2.44101	55.32956	24.4101	-55.32956	27.66478	17.90074	-26.85111	-74.85764	-128.55986	-87.87636	-54.51589	0
389	-63.46626	2.44101	65.0936	29.29212	-65.0936	32.5468	22.78276	-24.4101	-72.41663	-126.11885	-85.43535	-52.07488	0
390	-68.34828	2.44101	69.97562	31.73313	-69.97562	34.98781	27.66478	-19.52808	-69.97562	-128.55986	-85.43535	-52.07488	0
391	-70.78929	4.88202	74.85764	31.73313	-72.41663	39.86983	30.10579	-17.08707	-65.0936	-128.55986	-82.99434	-52.07488	0
392	-78.11232	7.32303	84.62168	34.17414	-82.18067	44.75185	34.98781	-17.08707	-65.0936	-128.55986	-80.55333	-54.51589	0
393	-82.99434	14.64606	96.82673	34.17414	-89.5037	54.51589	34.98781	-21.96909	-69.97562	-133.44188	-82.99434	-56.9569	0
394	-85.43535	19.52808	104.14976	31.73313	-94.38572	61.83892	32.5468	-29.29212	-74.85764	-135.88289	-82.99434	-59.39791	0
395	-70.78929	21.96909	91.94471	24.4101	-82.18067	56.9569	30.10579	-36.61515	-84.62168	-140.76491	-90.31737	-64.27993	0
396	-63.46626	17.08707	79.73966	21.96909	-72.41663	47.19286	25.22377	-43.93818	-91.94471	-143.20592	-92.75838	-66.72094	0
397	-63.46626	14.64606	77.29865	24.4101	-69.97562	44.75185	25.22377	-46.37919	-96.82673	-143.20592	-95.19939	-66.72094	0
398	-68.34828	17.08707	84.62168	24.4101	-77.29865	49.63387	25.22377	-51.26121	-104.14976	-143.20592	-97.6404	-69.16195	0
399	-70.78929	12.20505	82.18067	29.29212	-77.29865	47.19286	25.22377	-51.26121	-104.14976	-145.64693	-97.6404	-66.72094	0
400	-75.67131	4.88202	79.73966	34.17414	-77.29865	42.31084	30.10579	-48.8202	-101.70875	-143.20592	-92.75838	-61.83892	0
401	-75.67131	-3.25468	72.41663	39.05616	-74.85764	34.98781	30.10579	-48.8202	-99.26774	-140.76491	-90.31737	-61.83892	0
402	-80.55333	2.44101	82.18067	39.05616	-82.18067	42.31084	32.5468	-46.37919	-94.38572	-135.88289	-85.43535	-59.39791	0
403	-78.11232	9.76404	87.06269	34.17414	-82.18067	47.19286	32.5468	-48.8202	-94.38572	-135.88289	-87.87636	-61.83892	0
404	-73.2303	12.20505	84.62168	29.29212	-79.73966	47.19286	32.5468	-51.26121	-94.38572	-135.88289	-90.31737	-64.27993	0
405	-63.46626	14.64606	77.29865	24.4101	-69.97562	44.75185	30.10579	-53.70222	-94.38572	-135.88289	-90.31737	-66.72094	0
406	-58.58424	19.52808	77.29865	19.52808	-67.53461	47.19286	32.5468	-56.14323	-94.38572	-133.44188	-92.75838	-66.72094	0
407	-61.02525	21.96909	82.18067	19.52808	-72.41663	52.07488	37.42882	-61.02525	-96.82673	-133.44188	-90.31737	-66.72094	0
408	-58.58424	21.96909	79.73966	17.08707	-69.97562	49.63387	39.86983	-68.34828	-101.70875	-133.44188	-90.31737	-66.72094	0
409	-61.02525	21.96909	82.18067	19.52808	-72.41663	52.07488	42.31084	-73.2303	-106.59077	-135.88289	-90.31737	-66.72094	0
410	-68.34828	12.20505	79.73966	26.85111	-74.85764	44.75185	47.19286	-78.11232	-109.03178	-140.76491	-90.31737	-66.72094	0
411	-78.11232	2.44101	79.73966	36.61515	-79.73966	39.86983	52.07488	-78.11232	-106.59077	-140.76491	-90.31737	-66.72094	0
412	-85.43535	-3.25468	82.18067	43.93818	-84.62168	39.86983	56.9569	-82.99434	-106.59077	-143.20592	-95.19939	-69.16195	0
413	-85.43535	-8.1367	77.29865	46.37919	-82.18067	34.98781	61.83892	-90.31737	-106.59077	-143.20592	-97.6404	-74.04397	0
414	-85.43535	-10.57771	74.85764	46.37919	-82.18067	32.5468	61.83892	-92.75838	-104.14976	-145.64693	-100.08141	-74.04397	0
415	-87.87636	-8.1367	79.73966	46.37919	-84.62168	34.98781	64.27993	-90.31737	-101.70875	-143.20592	-100.08141	-74.04397	0
416	-87.87636	-8.1367	79.73966	46.37919	-84.62168	34.98781	64.27993	-92.75838	-101.70875	-138.3239	-97.6404	-74.04397	0
417	-78.11232	-3.25468	74.85764	39.05616	-77.29865	34.98781	59.39791	-97.6404	-106.59077	-135.88289	-97.6404	-74.04397	0
418	-73.2303	7.32303	79.73966	31.73313	-77.29865	42.31084	59.39791	-95.19939	-104.14976	-133.44188	-92.75838	-71.60296	0
419	-73.2303	14.64606	87.06269	29.29212	-79.73966	49.63387	56.9569	-90.31737	-104.14976	-131.00087	-90.31737	-66.72094	0
420	-70.78929	19.52808	89.5037	24.4101	-79.73966	54.51589	49.63387	-90.31737	-104.14976	-133.44188	-90.31737	-66.72094	0
421	-73.2303	19.52808	91.94471	26.85111	-82.18067	54.51589	47.19286	-92.75838	-104.14976	-135.88289	-90.31737	-66.72094	0
422	-70.78929	14.64606	84.62168	26.85111	-77.29865	49.63387	47.19286	-97.6404	-104.14976	-140.76491	-95.19939	-69.16195	0
423	-75.67131	17.08707	91.94471	29.29212	-84.62168	54.51589	49.63387	-100.08141	-101.70875	-140.76491	-95.19939	-69.16195	0
424	-82.99434	14.64606	96.82673	34.17414	-89.5037	54.51589	49.63387	-102.52242	-99.26774	-140.76491	-95.19939	-69.16195	0
425	-82.99434	7.32303	89.5037	36.61515	-87.06269	47.19286	47.19286	-109.84545	-106.59077	-143.20592	-95.19939	-71.60296	0
426	-85.43535	4.88202	89.5037	39.05616	-87.06269	47.19286	47.19286	-117.16848	-109.03178	-143.20592	-97.6404	-74.04397	0
427	-85.43535	2.44101	87.06269	41.49717	-87.06269	44.75185	47.19286	-117.16848	-109.03178	-143.20592	-97.6404	-78.92599	0
428	-85.43535	0	84.62168	41.49717	-84.62168	42.31084	47.19286	-114.72747	-109.03178	-143.20592	-97.6404	-81.367	0
429	-82.99434	0	82.18067	41.49717	-82.18067	39.86983	44.75185	-109.84545	-109.03178	-143.20592	-97.6404	-83.80801	0
430	-87.87636	-3.25468	84.62168	43.93818	-87.06269	39.86983	42.31084	-107.40444	-106.59077	-143.20592	-97.6404	-86.24902	0
431	-90.31737	-3.25468	87.06269	46.37919	-89.5037	42.31084	39.86983	-107.40444	-106.59077	-145.64693	-97.6404	-86.24902	0
432	-95.19939	0	94.38572	46.37919	-94.38572	47.19286	37.42882	-107.40444	-106.59077	-145.64693	-97.6404	-88.69003	0
433	-97.6404	4.88202	101.70875	46.37919	-99.26774	52.07488	37.42882	-107.40444	-104.14976	-145.64693	-97.6404	-88.69003	0
434	-92.75838	12.20505	104.14976	39.05616	-99.26774	56.9569	34.98781	-107.40444	-104.14976	-148.08794	-97.6404	-91.13104	0
435	-95.19939	14.64606	109.03178	39.05616	-101.70875	61.83892	42.31084	-107.40444	-109.03178	-148.08794	-95.19939	-88.69003	0
436	-100.08141	21.96909	121.23683	39.05616	-111.47279	71.60296	49.63387	-112.28646	-111.47279	-143.20592	-92.75838	-86.24902	0
437	-92.75838	24.4101	116.35481	34.17414	-104.14976	69.16195	54.51589	-114.72747	-116.35481	-143.20592	-92.75838	-86.24902	0
438	-85.43535	24.4101	109.03178	29.29212	-96.82673	66.72094	61.83892	-112.28646	-116.35481	-138.3239	-90.31737	-83.80801	0
439	-78.11232	24.4101	101.70875	26.85111	-89.5037	61.83892	66.72094	-107.40444	-113.9138	-138.3239	-90.31737	-83.80801	0
440	-80.55333	17.08707	96.82673	31.73313	-89.5037	56.9569	74.04397	-102.52242	-113.9138	-138.3239	-87.87636	-78.92599	0
441	-92.75838	12.20505	104.14976	39.05616	-99.26774	56.9569	78.92599	-95.19939	-104.14976	-133.44188	-82.99434	-74.04397	0
442	-80.55333	7.32303	87.06269	36.61515	-84.62168	47.19286	78.92599	-95.19939	-104.14976	-133.44188	-85.43535	-76.48498	0
443	-80.55333	7.32303	87.06269	36.61515	-84.62168	47.19286	76.48498	-95.19939	-101.70875	-133.44188	-85.43535	-76.48498	0
444	-80.55333	7.32303	87.06269	36.61515	-84.62168	47.19286	74.04397	-92.75838	-99.26774	-133.44188	-90.31737	-81.367	0
445	-75.67131	2.44101	77.29865	36.61515	-77.29865	39.86983	69.16195	-92.75838	-99.26774	-135.88289	-95.19939	-86.24902	0
446	-75.67131	-3.25468	72.41663	39.05616	-74.85764	34.98781	64.27993	-92.75838	-96.82673	-133.44188	-97.6404	-91.13104	0
447	-65.90727	-3.25468	62.65259	34.17414	-65.0936	30.10579	59.39791	-92.75838	-96.82673	-135.88289	-102.52242	-96.01306	0
448	-65.90727	-3.25468	62.65259	34.17414	-65.0936	30.10579	56.9569	-90.31737	-96.82673	-135.88289	-107.40444	-100.89508	0
449	-68.34828	-3.25468	65.0936	34.17414	-67.53461	30.10579	56.9569	-85.43535	-96.82673	-138.3239	-109.84545	-100.89508	0
450	-78.11232	-5.69569	72.41663	41.49717	-77.29865	32.5468	56.9569	-85.43535	-96.82673	-140.76491	-109.84545	-100.89508	0
451	-85.43535	-3.25468	82.18067	43.93818	-84.62168	39.86983	54.51589	-85.43535	-94.38572	-140.76491	-107.40444	-96.01306	0
452	-97.6404	0	96.82673	48.8202	-96.82673	47.19286	56.9569	-87.87636	-91.94471	-135.88289	-102.52242	-91.13104	0
453	-102.52242	2.44101	104.14976	48.8202	-104.14976	52.07488	56.9569	-92.75838	-91.94471	-135.88289	-97.6404	-88.69003	0
454	-109.84545	0	109.03178	53.70222	-109.03178	54.51589	59.39791	-100.08141	-96.82673	-133.44188	-92.75838	-83.80801	0
455	-107.40444	-5.69569	101.70875	56.14323	-106.59077	47.19286	54.51589	-107.40444	-106.59077	-135.88289	-90.31737	-86.24902	0
456	-100.08141	-10.57771	89.5037	53.70222	-96.82673	39.86983	49.63387	-114.72747	-116.35481	-135.88289	-90.31737	-88.69003	0
457	-97.6404	-13.01872	84.62168	53.70222	-91.94471	34.98781	49.63387	-112.28646	-116.35481	-131.00087	-85.43535	-83.80801	0
458	-92.75838	-15.45973	77.29865	53.70222	-87.06269	30.10579	47.19286	-109.84545	-121.23683	-131.00087	-82.99434	-83.80801	0
459	-87.87636	-10.57771	77.29865	48.8202	-84.62168	32.5468	44.75185	-104.96343	-118.79582	-131.00087	-85.43535	-83.80801	0
460	-80.55333	-3.25468	77.29865	41.49717	-79.73966	37.42882	39.86983	-102.52242	-118.79582	-135.88289	-92.75838	-86.24902	0
461	-78.11232	0	77.29865	39.05616	-77.29865	37.42882	37.42882	-100.08141	-113.9138	-133.44188	-95.19939	-86.24902	0
462	-85.43535	4.88202	89.5037	39.05616	-87.06269	47.19286	42.31084	-87.87636	-99.26774	-126.11885	-92.75838	-83.80801	0
463	-87.87636	7.32303	94.38572	39.05616	-91.94471	49.63387	42.31084	-80.55333	-89.5037	-121.23683	-92.75838	-81.367	0
464	-75.67131	9.76404	84.62168	31.73313	-79.73966	47.19286	37.42882	-80.55333	-84.62168	-118.79582	-92.75838	-83.80801	0
465	-63.46626	9.76404	72.41663	26.85111	-67.53461	39.86983	30.10579	-78.11232	-84.62168	-116.35481	-92.75838	-81.367	0
466	-61.02525	9.76404	69.97562	24.4101	-65.0936	39.86983	27.66478	-75.67131	-82.18067	-106.59077	-85.43535	-76.48498	0
467	-63.46626	9.76404	72.41663	26.85111	-67.53461	39.86983	27.66478	-65.90727	-77.29865	-99.26774	-80.55333	-69.16195	0
468	-58.58424	9.76404	67.53461	24.4101	-62.65259	37.42882	27.66478	-61.02525	-77.29865	-96.82673	-78.11232	-66.72094	0
469	-56.14323	14.64606	69.97562	19.52808	-62.65259	42.31084	32.5468	-56.14323	-77.29865	-99.26774	-75.67131	-64.27993	0
470	-53.70222	26.85111	79.73966	12.20505	-67.53461	52.07488	37.42882	-53.70222	-77.29865	-99.26774	-73.2303	-64.27993	0
471	-56.14323	36.61515	91.94471	9.76404	-74.85764	64.27993	47.19286	-51.26121	-72.41663	-96.82673	-68.34828	-59.39791	0
472	-56.14323	43.93818	99.26774	6.50936	-77.29865	71.60296	56.9569	-51.26121	-67.53461	-94.38572	-65.90727	-59.39791	0
473	-51.26121	46.37919	96.82673	1.62734	-74.85764	71.60296	69.16195	-46.37919	-62.65259	-91.94471	-63.46626	-56.9569	0
474	-46.37919	48.8202	94.38572	-0.81367	-69.97562	71.60296	76.48498	-43.93818	-55.32956	-84.62168	-58.58424	-52.07488	0
475	-39.05616	53.70222	91.94471	-8.1367	-65.0936	71.60296	81.367	-36.61515	-50.44754	-77.29865	-56.14323	-47.19286	0
476	-39.05616	53.70222	91.94471	-8.1367	-65.0936	71.60296	86.24902	-26.85111	-43.12451	-65.0936	-51.26121	-42.31084	0
477	-39.05616	48.8202	87.06269	-5.69569	-62.65259	66.72094	88.69003	-19.52808	-40.6835	-60.21158	-48.8202	-34.98781	0
478	-39.05616	46.37919	84.62168	-3.25468	-62.65259	64.27993	93.57205	-12.20505	-35.80148	-52.88855	-43.93818	-30.10579	0
479	-36.61515	46.37919	82.18067	-5.69569	-60.21158	64.27993	93.57205	-12.20505	-35.80148	-52.88855	-41.49717	-30.10579	0
480	-34.17414	53.70222	87.06269	-10.57771	-60.21158	69.16195	91.13104	-17.08707	-43.12451	-60.21158	-41.49717	-30.10579	0
481	-36.61515	56.14323	91.94471	-10.57771	-65.0936	74.04397	86.24902	-24.4101	-45.56552	-60.21158	-41.49717	-32.5468	0
482	-43.93818	56.14323	99.26774	-5.69569	-72.41663	76.48498	81.367	-31.73313	-48.00653	-62.65259	-36.61515	-30.10579	0
483	-41.49717	56.14323	96.82673	-8.1367	-69.97562	76.48498	74.04397	-39.05616	-50.44754	-62.65259	-36.61515	-30.10579	0
484	-41.49717	56.14323	96.82673	-8.1367	-69.97562	76.48498	66.72094	-48.8202	-52.88855	-65.0936	-36.61515	-32.5468	0
485	-31.73313	58.58424	89.5037	-13.01872	-60.21158	74.04397	56.9569	-53.70222	-57.77057	-65.0936	-39.05616	-32.5468	0
486	-29.29212	63.46626	91.94471	-17.90074	-60.21158	76.48498	47.19286	-56.14323	-60.21158	-57.77057	-39.05616	-30.10579	0
487	-26.85111	63.46626	89.5037	-17.90074	-57.77057	76.48498	37.42882	-58.58424	-62.65259	-57.77057	-39.05616	-26.85111	0
488	-21.96909	63.46626	84.62168	-20.34175	-52.88855	74.04397	22.78276	-65.90727	-67.53461	-60.21158	-43.93818	-26.85111	0
489	-17.08707	58.58424	74.85764	-20.34175	-45.56552	66.72094	10.57771	-73.2303	-72.41663	-67.53461	-46.37919	-26.85111	0
490	-26.85111	51.26121	77.29865	-13.01872	-52.88855	64.27993	2.44101	-75.67131	-77.29865	-74.85764	-46.37919	-26.85111	0
491	-29.29212	39.05616	67.53461	-5.69569	-48.00653	52.07488	-12.20505	-82.99434	-82.18067	-82.18067	-48.8202	-30.10579	0
492	-34.17414	26.85111	60.21158	4.06835	-48.00653	42.31084	-19.52808	-87.87636	-87.06269	-87.06269	-51.26121	-32.5468	0
493	-39.05616	12.20505	50.44754	12.20505	-45.56552	30.10579	-24.4101	-97.6404	-91.94471	-96.82673	-58.58424	-37.42882	0
494	-34.17414	2.44101	35.80148	14.64606	-35.80148	17.90074	-26.85111	-102.52242	-99.26774	-101.70875	-63.46626	-42.31084	0
495	-36.61515	-3.25468	33.36047	19.52808	-35.80148	15.45973	-21.96909	-100.08141	-101.70875	-104.14976	-65.90727	-47.19286	0
496	-36.61515	0	35.80148	17.08707	-35.80148	17.90074	-19.52808	-97.6404	-104.14976	-104.14976	-68.34828	-49.63387	0
497	-36.61515	4.88202	40.6835	14.64606	-38.24249	22.78276	-24.4101	-97.6404	-106.59077	-106.59077	-73.2303	-54.51589	0
498	-34.17414	7.32303	40.6835	12.20505	-38.24249	22.78276	-36.61515	-97.6404	-111.47279	-111.47279	-78.11232	-59.39791	0
499	-41.49717	2.44101	43.12451	19.52808	-43.12451	22.78276	-41.49717	-90.31737	-106.59077	-113.9138	-80.55333	-61.83892	0
500	-53.70222	2.44101	55.32956	24.4101	-55.32956	27.66478	-43.93818	-82.99434	-99.26774	-116.35481	-80.55333	-61.83892	0
501	-61.02525	0	60.21158	29.29212	-60.21158	30.10579	-46.37919	-80.55333	-96.82673	-116.35481	-80.55333	-61.83892	0
502	-68.34828	-3.25468	65.0936	34.17414	-67.53461	30.10579	-53.70222	-78.11232	-89.5037	-116.35481	-82.99434	-64.27993	0
503	-68.34828	-10.57771	57.77057	39.05616	-65.0936	22.78276	-58.58424	-78.11232	-84.62168	-116.35481	-85.43535	-66.72094	0
504	-75.67131	-20.34175	55.32956	46.37919	-67.53461	17.90074	-53.70222	-75.67131	-79.73966	-113.9138	-85.43535	-66.72094	0
505	-80.55333	-27.66478	52.88855	53.70222	-67.53461	13.01872	-41.49717	-73.2303	-79.73966	-111.47279	-85.43535	-64.27993	0
506	-80.55333	-30.10579	50.44754	53.70222	-67.53461	10.57771	-34.17414	-75.67131	-87.06269	-106.59077	-85.43535	-64.27993	0
507	-73.2303	-32.5468	40.6835	51.26121	-57.77057	2.44101	-31.73313	-82.99434	-91.94471	-104.14976	-85.43535	-64.27993	0
508	-65.90727	-34.98781	30.91946	48.8202	-50.44754	-2.44101	-26.85111	-82.99434	-94.38572	-104.14976	-85.43535	-64.27993	0
509	-61.02525	-34.98781	26.03744	46.37919	-45.56552	-4.88202	-19.52808	-85.43535	-99.26774	-106.59077	-87.87636	-66.72094	0
510	-61.02525	-42.31084	18.71441	51.26121	-40.6835	-12.20505	-14.64606	-87.87636	-104.14976	-113.9138	-92.75838	-74.04397	0
511	-61.02525	-44.75185	16.2734	51.26121	-40.6835	-14.64606	-14.64606	-92.75838	-106.59077	-123.67784	-97.6404	-81.367	0
512	-58.58424	-47.19286	11.39138	51.26121	-35.80148	-19.52808	-14.64606	-95.19939	-106.59077	-128.55986	-104.96343	-88.69003	0
513	-68.34828	-47.19286	21.15542	56.14323	-45.56552	-14.64606	-14.64606	-87.87636	-101.70875	-128.55986	-104.96343	-88.69003	0
514	-75.67131	-44.75185	30.91946	58.58424	-55.32956	-7.32303	-17.08707	-85.43535	-99.26774	-128.55986	-104.96343	-88.69003	0
515	-90.31737	-44.75185	45.56552	65.90727	-69.97562	0	-21.96909	-82.99434	-99.26774	-126.11885	-102.52242	-86.24902	0
516	-95.19939	-44.75185	50.44754	68.34828	-74.85764	2.44101	-24.4101	-87.87636	-101.70875	-121.23683	-97.6404	-81.367	0
517	-100.08141	-39.86983	60.21158	68.34828	-82.18067	10.57771	-24.4101	-92.75838	-101.70875	-113.9138	-90.31737	-74.04397	0
518	-102.52242	-37.42882	65.0936	68.34828	-84.62168	13.01872	-21.96909	-95.19939	-101.70875	-109.03178	-82.99434	-66.72094	0
519	-102.52242	-34.98781	67.53461	68.34828	-87.06269	15.45973	-21.96909	-97.6404	-104.14976	-109.03178	-78.11232	-59.39791	0
520	-95.19939	-37.42882	57.77057	65.90727	-77.29865	10.57771	-21.96909	-102.52242	-106.59077	-111.47279	-78.11232	-59.39791	0
521	-87.87636	-37.42882	50.44754	61.02525	-69.97562	5.69569	-17.08707	-102.52242	-104.14976	-111.47279	-75.67131	-56.9569	0
522	-85.43535	-39.86983	45.56552	61.02525	-67.53461	2.44101	-14.64606	-100.08141	-99.26774	-113.9138	-75.67131	-56.9569	0
523	-78.11232	-34.98781	43.12451	56.14323	-62.65259	2.44101	-14.64606	-95.19939	-99.26774	-116.35481	-80.55333	-64.27993	0
524	-75.67131	-34.98781	40.6835	53.70222	-60.21158	2.44101	-9.76404	-85.43535	-94.38572	-116.35481	-82.99434	-66.72094	0
525	-70.78929	-34.98781	35.80148	51.26121	-55.32956	0	-4.88202	-75.67131	-89.5037	-116.35481	-82.99434	-66.72094	0
526	-75.67131	-39.86983	35.80148	56.14323	-57.77057	-2.44101	2.44101	-65.90727	-87.06269	-111.47279	-78.11232	-64.27993	0
527	-75.67131	-44.75185	30.91946	58.58424	-55.32956	-7.32303	2.44101	-58.58424	-89.5037	-109.03178	-78.11232	-64.27993	0
528	-75.67131	-47.19286	28.47845	61.02525	-52.88855	-9.76404	8.1367	-48.8202	-91.94471	-109.03178	-75.67131	-64.27993	0
529	-73.2303	-52.07488	21.15542	61.02525	-48.00653	-17.08707	8.1367	-36.61515	-91.94471	-109.03178	-75.67131	-66.72094	0
530	-82.99434	-54.51589	28.47845	68.34828	-57.77057	-14.64606	15.45973	-19.52808	-84.62168	-106.59077	-75.67131	-64.27993	0
531	-90.31737	-56.9569	33.36047	73.2303	-62.65259	-12.20505	20.34175	-2.44101	-77.29865	-106.59077	-80.55333	-71.60296	0
532	-90.31737	-61.83892	28.47845	75.67131	-60.21158	-17.08707	22.78276	19.52808	-67.53461	-106.59077	-87.87636	-81.367	0
533	-90.31737	-64.27993	26.03744	75.67131	-60.21158	-19.52808	34.98781	49.63387	-48.00653	-101.70875	-95.19939	-91.13104	0
534	-85.43535	-71.60296	13.83239	78.11232	-50.44754	-29.29212	49.63387	88.69003	-23.59643	-89.5037	-95.19939	-98.45407	0
535	-80.55333	-81.367	-1.62734	80.55333	-40.6835	-41.49717	66.72094	130.1872	5.69569	-69.97562	-87.87636	-100.89508	0
536	-63.46626	-91.13104	-28.47845	75.67131	-18.71441	-61.02525	76.48498	171.68437	35.80148	-38.24249	-68.34828	-91.13104	0
537	-39.05616	-98.45407	-60.21158	68.34828	8.95037	-80.55333	78.92599	215.62255	79.73966	6.50936	-31.73313	-66.72094	0
538	-6.50936	-103.33609	-96.82673	53.70222	43.12451	-100.08141	74.04397	266.88376	133.44188	67.53461	17.90074	-30.10579	0
539	37.42882	-108.21811	-145.64693	34.17414	89.5037	-126.93252	59.39791	323.02699	199.34915	143.20592	86.24902	26.85111	0
540	98.45407	-113.10013	-211.5542	6.50936	152.96996	-161.10666	34.98781	374.2882	270.13844	231.08228	171.68437	102.52242	0
541	166.80235	-105.7771	-272.57945	-30.10579	218.87723	-187.95777	-4.88202	401.13931	343.36874	338.48672	283.97083	205.04484	0
542	249.79669	-81.367	-331.16369	-83.80801	289.66652	-205.04484	-65.90727	391.37527	406.835	455.6552	415.78537	327.09534	0
543	340.11406	-49.63387	-389.74793	-144.83326	362.89682	-219.6909	-134.25555	354.76012	462.97823	580.14671	564.68698	463.7919	0
544	442.63648	-10.57771	-453.21419	-215.62255	445.89116	-231.89595	-209.92686	286.41184	504.4754	707.07923	720.91162	612.69351	0
545	537.83587	41.49717	-497.15237	-288.85285	516.68045	-227.01393	-288.03918	196.09447	528.8855	836.45276	891.78232	776.24118	0
546	618.3892	102.52242	-516.68045	-359.64214	567.94166	-207.48585	-363.71049	78.92599	536.20853	953.62124	1055.32999	939.78885	0
547	686.73748	163.54767	-524.00348	-425.54941	604.55681	-180.63474	-439.3818	-46.37919	519.12146	1039.05659	1192.02655	1078.92642	0
548	737.99869	217.24989	-521.56247	-476.81062	628.96691	-151.34262	-500.40705	-156.22464	487.38833	1082.99477	1279.90291	1176.56682	0
549	755.08576	256.30605	-499.59338	-506.10274	626.5259	-122.0505	-546.78624	-248.98302	441.00914	1082.99477	1314.07705	1232.71005	0
550	747.76273	278.27514	-470.30126	-513.42577	609.43883	-95.19939	-585.8424	-336.85938	365.33783	1024.41053	1287.22594	1235.15106	0
551	720.91162	280.71615	-441.00914	-501.22072	580.14671	-80.55333	-612.69351	-422.29473	267.69743	924.32912	1211.55463	1188.77187	0
552	672.09142	268.5111	-404.39399	-469.48759	538.64954	-68.34828	-632.22159	-510.17109	148.08794	777.86852	1079.74009	1096.01349	0
553	608.62516	251.42403	-358.0148	-430.43143	482.50631	-53.70222	-649.30866	-600.48846	5.69569	597.23378	916.19242	969.08097	0
554	532.95385	224.57292	-309.1946	-379.17022	421.48106	-41.49717	-661.51371	-695.68785	-150.52895	399.51197	733.11667	822.62037	0
555	464.60557	190.39878	-275.02046	-327.90901	370.21985	-41.49717	-656.63169	-783.56421	-311.63561	196.90814	545.1589	666.39573	0
556	398.6983	156.22464	-243.28733	-276.6478	321.39965	-43.93818	-639.54462	-849.47148	-450.77318	18.71441	374.2882	522.37614	0
557	323.02699	124.49151	-199.34915	-222.94558	260.3744	-36.61515	-615.13452	-886.08663	-558.17762	-123.67784	232.70962	395.44362	0
558	271.76578	97.6404	-174.93905	-183.88942	223.75925	-39.05616	-595.60644	-903.1737	-646.05398	-248.16935	105.7771	280.71615	0
559	230.26861	70.78929	-160.29299	-149.71528	194.46713	-43.93818	-573.63735	-888.52764	-692.43317	-336.04571	5.69569	187.95777	0
560	198.53548	43.93818	-155.41097	-120.42316	177.38006	-56.14323	-541.90422	-839.70744	-702.19721	-392.18894	-65.90727	112.28646	0
561	169.24336	31.73313	-138.3239	-100.89508	152.96996	-53.70222	-505.28907	-759.15411	-665.58206	-399.51197	-104.96343	65.90727	0
562	144.83326	24.4101	-121.23683	-83.80801	133.44188	-48.8202	-471.11493	-668.83674	-606.99782	-382.4249	-122.0505	34.17414	0
563	142.39225	24.4101	-118.79582	-83.80801	131.00087	-46.37919	-441.82281	-578.51937	-543.53156	-358.0148	-129.37353	9.76404	0
564	137.51023	29.29212	-109.03178	-83.80801	123.67784	-39.05616	-405.20766	-488.202	-475.18328	-323.84066	-126.93252	-4.88202	0
565	120.42316	36.61515	-84.62168	-78.92599	101.70875	-24.4101	-361.26948	-397.88463	-406.835	-284.7845	-117.16848	-14.64606	0
566	108.21811	43.93818	-65.0936	-76.48498	87.06269	-9.76404	-314.89029	-319.77231	-350.69177	-248.16935	-107.40444	-21.96909	0
567	86.24902	48.8202	-38.24249	-66.72094	62.65259	5.69569	-273.39312	-251.42403	-299.43056	-216.43622	-95.19939	-26.85111	0
568	71.60296	46.37919	-26.03744	-59.39791	48.00653	10.57771	-239.21898	-195.2808	-265.25642	-196.90814	-92.75838	-37.42882	0
569	54.51589	41.49717	-13.83239	-47.19286	33.36047	15.45973	-205.04484	-144.01959	-231.08228	-177.38006	-87.87636	-44.75185	0
570	27.66478	36.61515	8.1367	-32.5468	8.95037	22.78276	-170.8707	-97.6404	-201.79016	-165.17501	-85.43535	-54.51589	0
571	5.69569	31.73313	26.03744	-17.90074	-11.39138	30.10579	-144.01959	-61.02525	-174.93905	-152.96996	-82.99434	-64.27993	0
572	-14.64606	21.96909	35.80148	-3.25468	-26.03744	27.66478	-117.16848	-26.85111	-148.08794	-138.3239	-82.99434	-69.16195	0
573	-31.73313	7.32303	38.24249	12.20505	-35.80148	22.78276	-90.31737	0	-121.23683	-123.67784	-80.55333	-76.48498	0
574	-41.49717	-3.25468	38.24249	21.96909	-40.6835	17.90074	-65.90727	24.4101	-94.38572	-106.59077	-73.2303	-76.48498	0
575	-46.37919	-3.25468	43.12451	24.4101	-45.56552	20.34175	-48.8202	44.75185	-74.85764	-91.94471	-68.34828	-76.48498	0
576	-51.26121	-8.1367	43.12451	29.29212	-48.00653	17.90074	-31.73313	64.27993	-57.77057	-77.29865	-61.02525	-76.48498	0
577	-56.14323	-17.90074	38.24249	36.61515	-48.00653	10.57771	-14.64606	81.367	-43.12451	-60.21158	-53.70222	-74.04397	0
578	-53.70222	-20.34175	33.36047	36.61515	-45.56552	5.69569	-2.44101	98.45407	-30.91946	-48.00653	-46.37919	-69.16195	0
579	-53.70222	-20.34175	33.36047	36.61515	-45.56552	5.69569	5.69569	113.10013	-18.71441	-38.24249	-39.05616	-64.27993	0
580	-51.26121	-17.90074	33.36047	34.17414	-43.12451	8.1367	10.57771	127.74619	-8.95037	-33.36047	-34.17414	-61.83892	0
581	-48.8202	-15.45973	33.36047	31.73313	-43.12451	8.1367	17.90074	142.39225	0.81367	-30.91946	-29.29212	-59.39791	0
582	-48.8202	-15.45973	33.36047	31.73313	-43.12451	8.1367	25.22377	152.15629	10.57771	-28.47845	-29.29212	-56.9569	0
583	-58.58424	-17.90074	40.6835	36.61515	-50.44754	10.57771	27.66478	157.03831	16.2734	-26.03744	-29.29212	-56.9569	0
584	-61.02525	-20.34175	40.6835	39.05616	-52.88855	10.57771	30.10579	161.92033	21.15542	-28.47845	-29.29212	-61.83892	0
585	-63.46626	-20.34175	43.12451	41.49717	-55.32956	10.57771	32.5468	166.80235	23.59643	-28.47845	-29.29212	-61.83892	0
586	-65.90727	-20.34175	45.56552	41.49717	-57.77057	13.01872	39.86983	171.68437	26.03744	-23.59643	-26.03744	-61.83892	-1250	T-0
587	-70.78929	-20.34175	50.44754	43.93818	-62.65259	15.45973	47.19286	174.12538	28.47845	-18.71441	-21.15542	-56.9569	0
588	-70.78929	-22.78276	48.00653	46.37919	-60.21158	13.01872	49.63387	169.24336	28.47845	-15.45973	-18.71441	-56.9569	0
589	-68.34828	-17.90074	50.44754	41.49717	-60.21158	15.45973	49.63387	166.80235	30.91946	-10.57771	-13.83239	-54.51589	0
590	-58.58424	-13.01872	45.56552	34.17414	-52.88855	15.45973	44.75185	166.80235	35.80148	-10.57771	-13.83239	-54.51589	0
591	-58.58424	-8.1367	50.44754	31.73313	-55.32956	20.34175	44.75185	169.24336	43.12451	-5.69569	-11.39138	-54.51589	0
592	-58.58424	-5.69569	52.88855	31.73313	-57.77057	22.78276	42.31084	169.24336	52.88855	-3.25468	-11.39138	-52.07488	0
593	-51.26121	-5.69569	45.56552	26.85111	-50.44754	20.34175	39.86983	169.24336	57.77057	-5.69569	-16.2734	-54.51589	0
594	-48.8202	-5.69569	43.12451	26.85111	-48.00653	17.90074	37.42882	171.68437	65.0936	-5.69569	-18.71441	-54.51589	0
595	-56.14323	-3.25468	52.88855	29.29212	-55.32956	25.22377	42.31084	181.44841	74.85764	1.62734	-11.39138	-52.07488	0
596	-51.26121	-3.25468	48.00653	26.85111	-50.44754	22.78276	47.19286	186.33043	79.73966	8.95037	-4.06835	-47.19286	0
597	-51.26121	-3.25468	48.00653	26.85111	-50.44754	22.78276	52.07488	188.77144	84.62168	16.2734	5.69569	-42.31084	0
598	-48.8202	2.44101	50.44754	21.96909	-50.44754	25.22377	59.39791	191.21245	84.62168	18.71441	10.57771	-39.86983	0
599	-48.8202	4.88202	52.88855	21.96909	-50.44754	27.66478	64.27993	196.09447	87.06269	21.15542	13.01872	-37.42882	0
600	-58.58424	2.44101	60.21158	26.85111	-60.21158	30.10579	69.16195	205.85851	89.5037	21.15542	15.45973	-32.5468	0
601	-61.02525	0	60.21158	29.29212	-60.21158	30.10579	66.72094	210.74053	89.5037	18.71441	13.01872	-34.98781	0
602	-51.26121	-3.25468	48.00653	26.85111	-50.44754	22.78276	61.83892	213.18154	89.5037	11.39138	3.25468	-42.31084	0
603	-58.58424	-10.57771	48.00653	34.17414	-55.32956	17.90074	64.27993	218.06356	89.5037	11.39138	-1.62734	-44.75185	0
604	-53.70222	-17.90074	35.80148	34.17414	-45.56552	8.1367	64.27993	220.50457	96.82673	13.83239	-4.06835	-47.19286	0
605	-51.26121	-22.78276	28.47845	36.61515	-40.6835	2.44101	61.83892	222.94558	96.82673	18.71441	-1.62734	-47.19286	0
606	-39.05616	-22.78276	16.2734	29.29212	-28.47845	-4.88202	59.39791	222.94558	96.82673	23.59643	-1.62734	-47.19286	0
607	-34.17414	-22.78276	11.39138	26.85111	-23.59643	-7.32303	59.39791	225.38659	101.70875	30.91946	3.25468	-47.19286	0
608	-36.61515	-22.78276	13.83239	29.29212	-26.03744	-4.88202	61.83892	232.70962	106.59077	38.24249	8.1367	-42.31084	0
609	-41.49717	-17.90074	23.59643	29.29212	-33.36047	2.44101	66.72094	244.91467	118.79582	45.56552	15.45973	-37.42882	0
610	-41.49717	-17.90074	23.59643	29.29212	-33.36047	2.44101	69.16195	254.67871	126.11885	48.00653	17.90074	-32.5468	0
611	-43.93818	-17.90074	26.03744	29.29212	-35.80148	2.44101	69.16195	266.88376	131.00087	50.44754	20.34175	-30.10579	0
612	-48.8202	-17.90074	30.91946	31.73313	-40.6835	5.69569	69.16195	274.20679	138.3239	55.32956	22.78276	-30.10579	0
613	-51.26121	-22.78276	28.47845	36.61515	-40.6835	2.44101	71.60296	281.52982	143.20592	57.77057	25.22377	-24.4101	0
614	-43.93818	-22.78276	21.15542	31.73313	-33.36047	-2.44101	71.60296	281.52982	145.64693	60.21158	27.66478	-21.96909	0
615	-36.61515	-22.78276	13.83239	29.29212	-26.03744	-4.88202	64.27993	281.52982	140.76491	60.21158	30.10579	-21.96909	0
616	-24.4101	-25.22377	-1.62734	24.4101	-13.83239	-14.64606	59.39791	281.52982	138.3239	62.65259	34.98781	-21.96909	0
617	-19.52808	-25.22377	-6.50936	21.96909	-8.1367	-17.08707	61.83892	281.52982	138.3239	69.97562	42.31084	-17.08707	0
618	-12.20505	-25.22377	-13.83239	17.08707	-0.81367	-19.52808	64.27993	286.41184	138.3239	77.29865	47.19286	-14.64606	0
619	-6.50936	-20.34175	-13.83239	12.20505	1.62734	-17.08707	66.72094	291.29386	145.64693	82.18067	49.63387	-14.64606	0
620	-6.50936	-17.90074	-11.39138	12.20505	1.62734	-14.64606	71.60296	301.0579	152.96996	87.06269	52.07488	-12.20505	0
621	-6.50936	-15.45973	-8.95037	9.76404	-0.81367	-12.20505	76.48498	313.26295	167.61602	91.94471	54.51589	-9.76404	0
622	-6.50936	-15.45973	-8.95037	9.76404	-0.81367	-12.20505	83.80801	325.468	182.26208	99.26774	56.9569	-7.32303	0
623	-6.50936	-13.01872	-6.50936	9.76404	-0.81367	-9.76404	83.80801	332.79103	194.46713	106.59077	56.9569	-7.32303	0
624	-6.50936	-10.57771	-4.06835	6.50936	-3.25468	-7.32303	83.80801	340.11406	204.23117	109.03178	59.39791	-7.32303	0
625	-8.95037	-8.1367	0.81367	6.50936	-5.69569	-2.44101	81.367	349.8781	211.5542	116.35481	64.27993	-2.44101	0
626	-1.62734	-8.1367	-6.50936	4.06835	1.62734	-7.32303	76.48498	352.31911	213.99521	121.23683	71.60296	0	0
627	5.69569	-10.57771	-16.2734	1.62734	8.95037	-12.20505	74.04397	352.31911	216.43622	128.55986	76.48498	4.88202	0
628	10.57771	-10.57771	-21.15542	-0.81367	13.83239	-14.64606	69.16195	357.20113	221.31824	135.88289	83.80801	9.76404	0
629	13.01872	-10.57771	-23.59643	-0.81367	16.2734	-17.08707	66.72094	359.64214	223.75925	143.20592	88.69003	17.08707	0
630	20.34175	-10.57771	-30.91946	-5.69569	23.59643	-19.52808	66.72094	364.52416	228.64127	148.08794	93.57205	24.4101	0
631	25.22377	-10.57771	-35.80148	-8.1367	28.47845	-21.96909	69.16195	371.84719	238.40531	155.41097	100.89508	29.29212	0
632	34.98781	-10.57771	-45.56552	-13.01872	38.24249	-26.85111	66.72094	376.72921	245.72834	165.17501	100.89508	31.73313	0
633	37.42882	-10.57771	-48.00653	-13.01872	40.6835	-29.29212	64.27993	384.05224	255.49238	172.49804	105.7771	36.61515	0
634	37.42882	-13.01872	-50.44754	-13.01872	43.12451	-31.73313	64.27993	388.93426	265.25642	182.26208	110.65912	39.05616	0
635	44.75185	-15.45973	-60.21158	-15.45973	50.44754	-36.61515	64.27993	393.81628	270.13844	189.58511	117.98215	41.49717	0
636	44.75185	-22.78276	-67.53461	-10.57771	55.32956	-43.93818	61.83892	398.6983	277.46147	196.90814	125.30518	43.93818	0
637	52.07488	-30.10579	-82.18067	-10.57771	65.0936	-56.14323	59.39791	401.13931	277.46147	204.23117	125.30518	43.93818	0
638	59.39791	-32.5468	-91.94471	-13.01872	74.85764	-61.02525	54.51589	403.58032	282.34349	206.67218	127.74619	43.93818	0
639	54.51589	-34.98781	-89.5037	-10.57771	69.97562	-61.02525	52.07488	408.46234	287.22551	211.5542	132.62821	48.8202	0
640	49.63387	-34.98781	-84.62168	-8.1367	65.0936	-58.58424	49.63387	415.78537	292.10753	211.5542	132.62821	51.26121	0
641	52.07488	-30.10579	-82.18067	-10.57771	65.0936	-56.14323	44.75185	420.66739	289.66652	206.67218	132.62821	51.26121	0
642	59.39791	-22.78276	-82.18067	-17.90074	69.97562	-51.26121	39.86983	420.66739	292.10753	206.67218	130.1872	53.70222	0
643	71.60296	-22.78276	-94.38572	-25.22377	82.18067	-58.58424	37.42882	425.54941	296.98955	211.5542	132.62821	61.02525	0
644	74.04397	-27.66478	-101.70875	-22.78276	87.06269	-63.46626	37.42882	435.31345	309.1946	221.31824	142.39225	73.2303	0
645	83.80801	-34.98781	-118.79582	-25.22377	99.26774	-75.67131	34.98781	445.07749	316.51763	231.08228	149.71528	82.99434	0
646	103.33609	-44.75185	-148.08794	-30.10579	123.67784	-95.19939	30.10579	445.07749	316.51763	240.84632	157.03831	90.31737	0
647	115.54114	-59.39791	-174.93905	-27.66478	143.20592	-117.16848	25.22377	445.07749	318.95864	248.16935	164.36134	97.6404	0
648	120.42316	-71.60296	-192.02612	-25.22377	155.41097	-131.81454	17.90074	445.07749	318.95864	253.05137	166.80235	100.08141	0
649	117.98215	-81.367	-199.34915	-17.90074	157.85198	-139.13757	10.57771	445.07749	321.39965	257.93339	174.12538	107.40444	0
650	120.42316	-86.24902	-206.67218	-17.90074	162.734	-146.4606	2.44101	442.63648	316.51763	253.05137	176.56639	107.40444	0
651	122.86417	-91.13104	-213.99521	-15.45973	167.61602	-151.34262	-7.32303	435.31345	309.1946	248.16935	179.0074	107.40444	0
652	122.86417	-93.57205	-216.43622	-15.45973	167.61602	-153.78363	-12.20505	430.43143	309.1946	248.16935	181.44841	112.28646	0
653	122.86417	-93.57205	-216.43622	-15.45973	167.61602	-153.78363	-17.08707	430.43143	309.1946	250.61036	186.33043	114.72747	0
654	127.74619	-91.13104	-218.87723	-17.90074	172.49804	-153.78363	-24.4101	427.99042	311.63561	253.05137	191.21245	117.16848	0
655	137.51023	-83.80801	-221.31824	-27.66478	177.38006	-151.34262	-24.4101	423.1084	306.75359	255.49238	191.21245	122.0505	0
656	144.83326	-83.80801	-228.64127	-30.10579	184.70309	-156.22464	-24.4101	415.78537	301.87157	255.49238	188.77144	122.0505	0
657	152.15629	-83.80801	-235.9643	-34.98781	192.02612	-158.66565	-24.4101	410.90335	296.98955	257.93339	186.33043	122.0505	0
658	164.36134	-78.92599	-243.28733	-42.31084	201.79016	-161.10666	-24.4101	403.58032	292.10753	257.93339	183.88942	122.0505	0
659	164.36134	-78.92599	-243.28733	-42.31084	201.79016	-161.10666	-21.96909	398.6983	287.22551	257.93339	183.88942	124.49151	0
660	171.68437	-78.92599	-250.61036	-47.19286	209.11319	-163.54767	-19.52808	396.25729	284.7845	250.61036	181.44841	124.49151	0
661	179.0074	-86.24902	-265.25642	-47.19286	221.31824	-175.75272	-17.08707	391.37527	282.34349	245.72834	179.0074	124.49151	0
662	183.88942	-93.57205	-277.46147	-44.75185	228.64127	-185.51676	-19.52808	386.49325	282.34349	243.28733	179.0074	122.0505	0
663	188.77144	-93.57205	-282.34349	-47.19286	233.52329	-187.95777	-26.85111	379.17022	282.34349	240.84632	179.0074	122.0505	0
664	188.77144	-88.69003	-277.46147	-49.63387	231.08228	-183.07575	-29.29212	371.84719	284.7845	245.72834	183.88942	126.93252	0
665	193.65346	-88.69003	-282.34349	-52.07488	235.9643	-185.51676	-36.61515	364.52416	279.90248	248.16935	183.88942	129.37353	0
666	196.09447	-91.13104	-287.22551	-52.07488	240.84632	-187.95777	-41.49717	354.76012	277.46147	253.05137	186.33043	131.81454	0
667	193.65346	-91.13104	-284.7845	-52.07488	238.40531	-187.95777	-46.37919	344.99608	272.57945	260.3744	191.21245	139.13757	0
668	193.65346	-88.69003	-282.34349	-52.07488	235.9643	-185.51676	-53.70222	335.23204	265.25642	260.3744	191.21245	141.57858	0
669	181.44841	-91.13104	-272.57945	-44.75185	226.20026	-180.63474	-58.58424	323.02699	255.49238	257.93339	188.77144	144.01959	0
670	169.24336	-98.45407	-267.69743	-34.98781	216.43622	-183.07575	-65.90727	310.82194	240.84632	240.84632	181.44841	139.13757	0
671	166.80235	-103.33609	-270.13844	-32.5468	216.43622	-185.51676	-75.67131	293.73487	218.87723	221.31824	169.24336	126.93252	0
672	164.36134	-98.45407	-262.81541	-32.5468	211.5542	-180.63474	-80.55333	271.76578	199.34915	199.34915	154.5973	117.16848	0
673	157.03831	-96.01306	-253.05137	-30.10579	204.23117	-173.31171	-87.87636	252.2377	184.70309	184.70309	144.83326	107.40444	0
674	149.71528	-98.45407	-248.16935	-25.22377	196.90814	-173.31171	-92.75838	237.59164	174.93905	172.49804	135.06922	102.52242	0
675	149.71528	-96.01306	-245.72834	-27.66478	196.90814	-170.8707	-95.19939	220.50457	165.17501	165.17501	130.1872	97.6404	0
676	149.71528	-88.69003	-238.40531	-30.10579	192.02612	-163.54767	-95.19939	208.29952	152.96996	162.734	125.30518	92.75838	0
677	142.39225	-81.367	-223.75925	-30.10579	182.26208	-151.34262	-95.19939	200.97649	148.08794	162.734	122.86417	92.75838	0
678	139.95124	-81.367	-221.31824	-30.10579	179.82107	-151.34262	-95.19939	193.65346	143.20592	155.41097	115.54114	87.87636	0
679	139.95124	-81.367	-221.31824	-30.10579	179.82107	-151.34262	-97.6404	186.33043	138.3239	148.08794	108.21811	80.55333	0
680	137.51023	-71.60296	-209.11319	-32.5468	172.49804	-139.13757	-97.6404	179.0074	131.00087	133.44188	98.45407	73.2303	0
681	127.74619	-56.9569	-184.70309	-34.98781	155.41097	-119.60949	-95.19939	171.68437	118.79582	118.79582	88.69003	65.90727	0
682	113.10013	-49.63387	-162.734	-32.5468	135.88289	-104.96343	-90.31737	159.47932	109.03178	101.70875	74.04397	56.14323	0
683	108.21811	-47.19286	-155.41097	-30.10579	131.00087	-100.08141	-90.31737	142.39225	96.82673	87.06269	61.83892	46.37919	0
684	100.89508	-44.75185	-145.64693	-27.66478	121.23683	-95.19939	-87.87636	122.86417	82.18067	69.97562	49.63387	36.61515	0
685	86.24902	-42.31084	-128.55986	-22.78276	106.59077	-85.43535	-85.43535	108.21811	69.97562	60.21158	42.31084	31.73313	0
686	66.72094	-42.31084	-109.03178	-13.01872	87.06269	-75.67131	-80.55333	96.01306	55.32956	52.88855	39.86983	29.29212	0
687	59.39791	-44.75185	-104.14976	-8.1367	79.73966	-73.2303	-80.55333	78.92599	40.6835	45.56552	34.98781	24.4101	0
688	52.07488	-39.86983	-91.94471	-5.69569	69.97562	-65.90727	-80.55333	69.16195	28.47845	40.6835	34.98781	21.96909	0
689	42.31084	-34.98781	-77.29865	-3.25468	57.77057	-56.14323	-80.55333	59.39791	21.15542	33.36047	34.98781	21.96909	0
690	32.5468	-25.22377	-57.77057	-3.25468	43.12451	-41.49717	-80.55333	56.9569	16.2734	26.03744	34.98781	21.96909	0
691	17.90074	-17.90074	-35.80148	-0.81367	26.03744	-26.85111	-73.2303	59.39791	16.2734	26.03744	39.86983	26.85111	0
692	22.78276	-8.1367	-30.91946	-8.1367	26.03744	-19.52808	-70.78929	54.51589	10.57771	16.2734	34.98781	21.96909	0
693	13.01872	-3.25468	-16.2734	-5.69569	13.83239	-9.76404	-63.46626	54.51589	10.57771	8.95037	32.5468	17.08707	0
694	8.1367	0	-8.95037	-3.25468	8.95037	-4.88202	-61.02525	54.51589	5.69569	1.62734	25.22377	9.76404	0
695	-1.62734	-5.69569	-4.06835	4.06835	-0.81367	-4.88202	-58.58424	52.07488	0.81367	-3.25468	17.90074	2.44101	0
696	-8.95037	-13.01872	-4.06835	9.76404	-3.25468	-7.32303	-53.70222	44.75185	-8.95037	-5.69569	8.1367	-4.88202	0
697	-12.20505	-15.45973	-4.06835	12.20505	-5.69569	-9.76404	-51.26121	30.10579	-21.15542	-13.01872	-4.06835	-17.08707	0
698	-17.08707	-17.90074	-1.62734	17.08707	-8.1367	-9.76404	-46.37919	17.08707	-30.91946	-18.71441	-13.83239	-26.85111	0
699	-34.17414	-20.34175	13.83239	26.85111	-26.03744	-4.88202	-41.49717	2.44101	-35.80148	-23.59643	-21.15542	-32.5468	0
700	-36.61515	-20.34175	16.2734	26.85111	-28.47845	-2.44101	-36.61515	-9.76404	-40.6835	-33.36047	-29.29212	-39.86983	0
701	-41.49717	-10.57771	30.91946	24.4101	-38.24249	10.57771	-26.85111	-14.64606	-38.24249	-35.80148	-29.29212	-42.31084	0
702	-41.49717	-3.25468	38.24249	21.96909	-40.6835	17.90074	-17.08707	-14.64606	-33.36047	-40.6835	-31.73313	-42.31084	0
703	-43.93818	4.88202	48.00653	19.52808	-45.56552	25.22377	-7.32303	-12.20505	-28.47845	-40.6835	-31.73313	-42.31084	0
704	-46.37919	12.20505	57.77057	17.08707	-52.88855	34.98781	2.44101	-9.76404	-23.59643	-40.6835	-31.73313	-39.86983	0
705	-43.93818	19.52808	62.65259	12.20505	-52.88855	39.86983	2.44101	-7.32303	-28.47845	-43.12451	-34.17414	-39.86983	0
706	-36.61515	26.85111	62.65259	4.06835	-50.44754	44.75185	5.69569	-12.20505	-35.80148	-45.56552	-36.61515	-37.42882	0
707	-31.73313	29.29212	60.21158	1.62734	-45.56552	44.75185	2.44101	-17.08707	-43.12451	-48.00653	-41.49717	-37.42882	0
708	-31.73313	29.29212	60.21158	1.62734	-45.56552	44.75185	2.44101	-24.4101	-52.88855	-52.88855	-43.93818	-37.42882	0
709	-36.61515	34.17414	69.97562	1.62734	-52.88855	52.07488	2.44101	-26.85111	-57.77057	-57.77057	-46.37919	-37.42882	0
710	-41.49717	36.61515	77.29865	1.62734	-60.21158	56.9569	2.44101	-26.85111	-60.21158	-65.0936	-48.8202	-37.42882	0
711	-46.37919	36.61515	82.18067	4.06835	-65.0936	59.39791	2.44101	-24.4101	-62.65259	-69.97562	-51.26121	-42.31084	0
712	-51.26121	34.17414	84.62168	6.50936	-67.53461	59.39791	2.44101	-24.4101	-60.21158	-74.85764	-56.14323	-44.75185	0
713	-61.02525	31.73313	91.94471	14.64606	-77.29865	61.83892	10.57771	-21.96909	-57.77057	-77.29865	-58.58424	-49.63387	0
714	-65.90727	29.29212	94.38572	17.08707	-79.73966	61.83892	13.01872	-21.96909	-52.88855	-77.29865	-63.46626	-54.51589	0
715	-63.46626	21.96909	84.62168	19.52808	-74.85764	52.07488	13.01872	-21.96909	-52.88855	-79.73966	-65.90727	-56.9569	0
716	-63.46626	14.64606	77.29865	24.4101	-69.97562	44.75185	10.57771	-26.85111	-57.77057	-74.85764	-65.90727	-59.39791	0
717	-61.02525	9.76404	69.97562	24.4101	-65.0936	39.86983	8.1367	-29.29212	-60.21158	-69.97562	-61.02525	-59.39791	0
718	-58.58424	4.88202	62.65259	26.85111	-60.21158	32.5468	10.57771	-29.29212	-60.21158	-65.0936	-56.14323	-54.51589	0
719	-63.46626	-3.25468	60.21158	31.73313	-62.65259	27.66478	13.01872	-24.4101	-57.77057	-62.65259	-51.26121	-52.07488	0
720	-63.46626	-3.25468	60.21158	31.73313	-62.65259	27.66478	13.01872	-14.64606	-57.77057	-62.65259	-48.8202	-49.63387	0
721	-70.78929	-3.25468	67.53461	36.61515	-69.97562	32.5468	17.90074	-7.32303	-52.88855	-60.21158	-46.37919	-44.75185	0
722	-75.67131	0	74.85764	36.61515	-74.85764	37.42882	20.34175	-7.32303	-52.88855	-67.53461	-51.26121	-47.19286	0
723	-80.55333	2.44101	82.18067	39.05616	-82.18067	42.31084	25.22377	-12.20505	-50.44754	-74.85764	-61.02525	-52.07488	0
724	-87.87636	7.32303	94.38572	39.05616	-91.94471	49.63387	30.10579	-12.20505	-45.56552	-77.29865	-65.90727	-56.9569	0
725	-90.31737	12.20505	101.70875	39.05616	-96.82673	56.9569	30.10579	-14.64606	-45.56552	-79.73966	-70.78929	-59.39791	0
726	-90.31737	12.20505	101.70875	39.05616	-96.82673	56.9569	30.10579	-19.52808	-45.56552	-79.73966	-70.78929	-61.83892	0
727	-85.43535	12.20505	96.82673	36.61515	-91.94471	54.51589	30.10579	-31.73313	-50.44754	-77.29865	-70.78929	-64.27993	0
728	-80.55333	12.20505	91.94471	34.17414	-87.06269	52.07488	32.5468	-36.61515	-55.32956	-74.85764	-70.78929	-66.72094	0
729	-80.55333	7.32303	87.06269	36.61515	-84.62168	47.19286	37.42882	-34.17414	-55.32956	-69.97562	-65.90727	-66.72094	0
730	-78.11232	2.44101	79.73966	36.61515	-79.73966	39.86983	37.42882	-26.85111	-57.77057	-69.97562	-65.90727	-66.72094	0
731	-70.78929	0	69.97562	34.17414	-69.97562	34.98781	30.10579	-26.85111	-62.65259	-74.85764	-68.34828	-69.16195	0
732	-70.78929	4.88202	74.85764	31.73313	-72.41663	39.86983	30.10579	-24.4101	-62.65259	-77.29865	-73.2303	-71.60296	0
733	-78.11232	9.76404	87.06269	34.17414	-82.18067	47.19286	30.10579	-21.96909	-57.77057	-79.73966	-75.67131	-74.04397	0
734	-85.43535	9.76404	94.38572	36.61515	-89.5037	52.07488	30.10579	-19.52808	-48.00653	-77.29865	-75.67131	-74.04397	0
735	-87.87636	7.32303	94.38572	39.05616	-91.94471	49.63387	32.5468	-17.08707	-43.12451	-72.41663	-70.78929	-74.04397	0
736	-80.55333	4.88202	84.62168	36.61515	-82.18067	44.75185	34.98781	-19.52808	-43.12451	-67.53461	-68.34828	-71.60296	0
737	-73.2303	7.32303	79.73966	31.73313	-77.29865	42.31084	42.31084	-19.52808	-35.80148	-60.21158	-58.58424	-66.72094	0
738	-78.11232	4.88202	82.18067	36.61515	-79.73966	42.31084	54.51589	-17.08707	-33.36047	-50.44754	-48.8202	-56.9569	0
739	-73.2303	0	72.41663	36.61515	-72.41663	34.98781	64.27993	-19.52808	-33.36047	-48.00653	-46.37919	-52.07488	0
740	-68.34828	-3.25468	65.0936	34.17414	-67.53461	30.10579	71.60296	-12.20505	-33.36047	-45.56552	-41.49717	-47.19286	0
741	-65.90727	-3.25468	62.65259	34.17414	-65.0936	30.10579	76.48498	-7.32303	-33.36047	-45.56552	-43.93818	-44.75185	0
742	-65.90727	0	65.0936	31.73313	-65.0936	32.5468	78.92599	0	-33.36047	-50.44754	-48.8202	-44.75185	0
743	-70.78929	2.44101	72.41663	34.17414	-72.41663	37.42882	78.92599	2.44101	-28.47845	-55.32956	-53.70222	-47.19286	0
744	-70.78929	4.88202	74.85764	31.73313	-72.41663	39.86983	78.92599	2.44101	-21.15542	-60.21158	-58.58424	-49.63387	0
745	-63.46626	9.76404	72.41663	26.85111	-67.53461	39.86983	74.04397	4.88202	-18.71441	-62.65259	-61.02525	-54.51589	0
746	-63.46626	14.64606	77.29865	24.4101	-69.97562	44.75185	66.72094	7.32303	-11.39138	-62.65259	-58.58424	-54.51589	0
747	-56.14323	19.52808	74.85764	17.08707	-65.0936	47.19286	59.39791	4.88202	-11.39138	-62.65259	-58.58424	-56.9569	0
748	-48.8202	24.4101	72.41663	12.20505	-60.21158	47.19286	56.9569	2.44101	-11.39138	-60.21158	-58.58424	-59.39791	0
749	-46.37919	29.29212	74.85764	6.50936	-60.21158	52.07488	59.39791	-2.44101	-11.39138	-55.32956	-56.14323	-56.9569	0
750	-41.49717	31.73313	72.41663	4.06835	-57.77057	52.07488	64.27993	-4.88202	-13.83239	-52.88855	-48.8202	-52.07488	0
751	-41.49717	31.73313	72.41663	4.06835	-57.77057	52.07488	66.72094	-9.76404	-21.15542	-48.00653	-46.37919	-47.19286	0
752	-46.37919	26.85111	72.41663	9.76404	-60.21158	49.63387	71.60296	-12.20505	-23.59643	-48.00653	-46.37919	-42.31084	0
753	-56.14323	24.4101	79.73966	14.64606	-67.53461	52.07488	76.48498	-17.08707	-23.59643	-45.56552	-46.37919	-39.86983	0
754	-65.90727	19.52808	84.62168	21.96909	-74.85764	52.07488	78.92599	-21.96909	-23.59643	-43.12451	-46.37919	-39.86983	0
755	-68.34828	14.64606	82.18067	26.85111	-74.85764	47.19286	74.04397	-24.4101	-26.03744	-45.56552	-46.37919	-44.75185	0
756	-73.2303	12.20505	84.62168	29.29212	-79.73966	47.19286	66.72094	-19.52808	-26.03744	-43.12451	-43.93818	-47.19286	0
757	-82.99434	9.76404	91.94471	36.61515	-87.06269	49.63387	64.27993	-14.64606	-23.59643	-40.6835	-41.49717	-47.19286	0
758	-80.55333	7.32303	87.06269	36.61515	-84.62168	47.19286	66.72094	-9.76404	-23.59643	-40.6835	-41.49717	-47.19286	0
759	-73.2303	9.76404	82.18067	31.73313	-77.29865	44.75185	69.16195	-9.76404	-26.03744	-40.6835	-43.93818	-47.19286	0
760	-70.78929	9.76404	79.73966	29.29212	-74.85764	44.75185	74.04397	-4.88202	-26.03744	-40.6835	-43.93818	-47.19286	0
761	-68.34828	12.20505	79.73966	26.85111	-74.85764	44.75185	78.92599	-2.44101	-26.03744	-43.12451	-43.93818	-44.75185	0
762	-75.67131	12.20505	87.06269	31.73313	-82.18067	49.63387	86.24902	0	-23.59643	-43.12451	-43.93818	-42.31084	0
763	-70.78929	12.20505	82.18067	29.29212	-77.29865	47.19286	88.69003	-2.44101	-21.15542	-48.00653	-48.8202	-44.75185	0
764	-70.78929	17.08707	87.06269	26.85111	-79.73966	52.07488	86.24902	-4.88202	-18.71441	-50.44754	-51.26121	-47.19286	0
765	-68.34828	17.08707	84.62168	24.4101	-77.29865	49.63387	81.367	-4.88202	-21.15542	-55.32956	-53.70222	-54.51589	0
766	-65.90727	19.52808	84.62168	21.96909	-74.85764	52.07488	74.04397	-2.44101	-21.15542	-57.77057	-56.14323	-59.39791	0
767	-65.90727	21.96909	87.06269	21.96909	-77.29865	54.51589	64.27993	0	-21.15542	-55.32956	-53.70222	-59.39791	0
768	-58.58424	26.85111	84.62168	14.64606	-72.41663	54.51589	56.9569	2.44101	-23.59643	-52.88855	-53.70222	-59.39791	0
769	-53.70222	31.73313	84.62168	9.76404	-69.97562	56.9569	47.19286	2.44101	-26.03744	-52.88855	-58.58424	-64.27993	0
770	-48.8202	34.17414	82.18067	6.50936	-65.0936	56.9569	42.31084	7.32303	-28.47845	-55.32956	-61.02525	-66.72094	0
771	-48.8202	34.17414	82.18067	6.50936	-65.0936	56.9569	39.86983	4.88202	-30.91946	-57.77057	-63.46626	-66.72094	0
772	-56.14323	34.17414	89.5037	9.76404	-72.41663	61.83892	42.31084	2.44101	-30.91946	-57.77057	-65.90727	-64.27993	0
773	-63.46626	34.17414	96.82673	14.64606	-79.73966	64.27993	49.63387	-4.88202	-30.91946	-57.77057	-68.34828	-64.27993	0
774	-61.02525	34.17414	94.38572	12.20505	-77.29865	64.27993	54.51589	-12.20505	-30.91946	-60.21158	-70.78929	-69.16195	0
775	-68.34828	31.73313	99.26774	17.08707	-84.62168	64.27993	64.27993	-14.64606	-26.03744	-55.32956	-63.46626	-66.72094	0
776	-70.78929	29.29212	99.26774	19.52808	-84.62168	64.27993	71.60296	-17.08707	-23.59643	-50.44754	-56.14323	-64.27993	0
777	-61.02525	26.85111	87.06269	17.08707	-74.85764	56.9569	74.04397	-21.96909	-28.47845	-52.88855	-56.14323	-66.72094	0
778	-53.70222	34.17414	87.06269	9.76404	-69.97562	59.39791	74.04397	-24.4101	-33.36047	-52.88855	-56.14323	-66.72094	0
779	-43.93818	39.05616	82.18067	1.62734	-62.65259	59.39791	66.72094	-24.4101	-38.24249	-57.77057	-58.58424	-71.60296	0
780	-39.05616	36.61515	74.85764	1.62734	-57.77057	54.51589	61.83892	-17.08707	-43.12451	-62.65259	-63.46626	-71.60296	0
781	-36.61515	36.61515	72.41663	-0.81367	-55.32956	54.51589	59.39791	-14.64606	-45.56552	-69.97562	-70.78929	-71.60296	0
782	-41.49717	34.17414	74.85764	4.06835	-57.77057	54.51589	56.9569	-14.64606	-50.44754	-79.73966	-82.99434	-76.48498	0
783	-56.14323	34.17414	89.5037	9.76404	-72.41663	61.83892	54.51589	-12.20505	-45.56552	-84.62168	-90.31737	-78.92599	0
784	-68.34828	29.29212	96.82673	19.52808	-82.18067	61.83892	52.07488	-12.20505	-43.12451	-89.5037	-97.6404	-83.80801	0
785	-78.11232	21.96909	99.26774	26.85111	-89.5037	59.39791	52.07488	-14.64606	-45.56552	-94.38572	-102.52242	-88.69003	0
786	-80.55333	17.08707	96.82673	31.73313	-89.5037	56.9569	52.07488	-21.96909	-48.00653	-91.94471	-100.08141	-88.69003	0
787	-82.99434	17.08707	99.26774	31.73313	-91.94471	56.9569	52.07488	-26.85111	-48.00653	-89.5037	-95.19939	-88.69003	0
788	-85.43535	17.08707	101.70875	34.17414	-94.38572	59.39791	52.07488	-29.29212	-52.88855	-87.06269	-95.19939	-88.69003	0
789	-78.11232	17.08707	94.38572	29.29212	-87.06269	54.51589	52.07488	-34.17414	-57.77057	-84.62168	-92.75838	-83.80801	0
790	-75.67131	17.08707	91.94471	29.29212	-84.62168	54.51589	54.51589	-31.73313	-57.77057	-79.73966	-82.99434	-78.92599	0
791	-65.90727	17.08707	82.18067	24.4101	-74.85764	49.63387	52.07488	-31.73313	-52.88855	-77.29865	-78.11232	-71.60296	0
792	-65.90727	19.52808	84.62168	21.96909	-74.85764	52.07488	49.63387	-26.85111	-50.44754	-77.29865	-78.11232	-69.16195	0
793	-68.34828	21.96909	89.5037	21.96909	-79.73966	54.51589	47.19286	-29.29212	-45.56552	-77.29865	-82.99434	-69.16195	0
794	-65.90727	21.96909	87.06269	21.96909	-77.29865	54.51589	47.19286	-34.17414	-40.6835	-79.73966	-82.99434	-69.16195	0
795	-63.46626	24.4101	87.06269	19.52808	-74.85764	54.51589	49.63387	-36.61515	-40.6835	-82.18067	-85.43535	-69.16195	0
796	-70.78929	29.29212	99.26774	19.52808	-84.62168	64.27993	56.9569	-39.05616	-45.56552	-82.18067	-87.87636	-69.16195	0
797	-73.2303	31.73313	104.14976	19.52808	-89.5037	66.72094	61.83892	-46.37919	-48.00653	-79.73966	-90.31737	-69.16195	0
798	-65.90727	36.61515	101.70875	14.64606	-84.62168	69.16195	66.72094	-51.26121	-52.88855	-72.41663	-85.43535	-66.72094	0
799	-61.02525	34.17414	94.38572	12.20505	-77.29865	64.27993	74.04397	-51.26121	-55.32956	-67.53461	-85.43535	-61.83892	0
800	-56.14323	34.17414	89.5037	9.76404	-72.41663	61.83892	74.04397	-53.70222	-62.65259	-67.53461	-82.99434	-64.27993	0
801	-56.14323	31.73313	87.06269	12.20505	-72.41663	59.39791	69.16195	-58.58424	-69.97562	-69.97562	-85.43535	-64.27993	0
802	-56.14323	31.73313	87.06269	12.20505	-72.41663	59.39791	59.39791	-61.02525	-72.41663	-77.29865	-87.87636	-66.72094	0
803	-46.37919	31.73313	77.29865	6.50936	-62.65259	54.51589	47.19286	-65.90727	-72.41663	-82.18067	-95.19939	-71.60296	0
804	-51.26121	29.29212	79.73966	9.76404	-65.0936	54.51589	32.5468	-65.90727	-72.41663	-89.5037	-104.96343	-78.92599	0
805	-61.02525	29.29212	89.5037	14.64606	-74.85764	59.39791	25.22377	-58.58424	-65.0936	-96.82673	-109.84545	-83.80801	0
806	-61.02525	29.29212	89.5037	14.64606	-74.85764	59.39791	17.90074	-53.70222	-65.0936	-104.14976	-117.16848	-88.69003	0
807	-63.46626	31.73313	94.38572	14.64606	-79.73966	61.83892	10.57771	-51.26121	-62.65259	-109.03178	-119.60949	-88.69003	0
808	-65.90727	34.17414	99.26774	14.64606	-82.18067	66.72094	8.1367	-46.37919	-62.65259	-109.03178	-119.60949	-88.69003	0
809	-58.58424	34.17414	91.94471	12.20505	-74.85764	61.83892	8.1367	-43.93818	-65.0936	-109.03178	-119.60949	-88.69003	0
810	-53.70222	31.73313	84.62168	9.76404	-69.97562	56.9569	13.01872	-39.05616	-67.53461	-104.14976	-114.72747	-81.367	0
811	-46.37919	31.73313	77.29865	6.50936	-62.65259	54.51589	20.34175	-43.93818	-72.41663	-104.14976	-109.84545	-76.48498	0
812	-46.37919	31.73313	77.29865	6.50936	-62.65259	54.51589	22.78276	-46.37919	-79.73966	-106.59077	-107.40444	-71.60296	0
813	-46.37919	34.17414	79.73966	6.50936	-62.65259	56.9569	27.66478	-51.26121	-79.73966	-106.59077	-107.40444	-69.16195	0
814	-41.49717	34.17414	74.85764	4.06835	-57.77057	54.51589	32.5468	-58.58424	-82.18067	-109.03178	-109.84545	-71.60296	0
815	-39.05616	29.29212	67.53461	4.06835	-52.88855	47.19286	34.98781	-65.90727	-84.62168	-113.9138	-114.72747	-76.48498	0
816	-48.8202	24.4101	72.41663	12.20505	-60.21158	47.19286	37.42882	-75.67131	-89.5037	-118.79582	-122.0505	-81.367	0
817	-56.14323	21.96909	77.29865	17.08707	-67.53461	49.63387	37.42882	-85.43535	-91.94471	-123.67784	-126.93252	-83.80801	0
818	-58.58424	21.96909	79.73966	17.08707	-69.97562	49.63387	34.98781	-92.75838	-94.38572	-123.67784	-129.37353	-86.24902	0
819	-58.58424	24.4101	82.18067	17.08707	-69.97562	52.07488	30.10579	-92.75838	-99.26774	-123.67784	-131.81454	-88.69003	0
820	-53.70222	24.4101	77.29865	14.64606	-65.0936	49.63387	22.78276	-95.19939	-104.14976	-126.11885	-134.25555	-93.57205	0
821	-61.02525	24.4101	84.62168	17.08707	-72.41663	54.51589	20.34175	-95.19939	-109.03178	-123.67784	-129.37353	-91.13104	0
822	-70.78929	26.85111	96.82673	21.96909	-84.62168	61.83892	22.78276	-90.31737	-109.03178	-123.67784	-124.49151	-86.24902	0
823	-63.46626	29.29212	91.94471	17.08707	-77.29865	59.39791	20.34175	-85.43535	-109.03178	-123.67784	-122.0505	-86.24902	0
824	-65.90727	29.29212	94.38572	17.08707	-79.73966	61.83892	17.90074	-80.55333	-104.14976	-123.67784	-122.0505	-83.80801	0
825	-73.2303	29.29212	101.70875	21.96909	-87.06269	64.27993	17.90074	-75.67131	-101.70875	-123.67784	-119.60949	-83.80801	0
826	-70.78929	29.29212	99.26774	19.52808	-84.62168	64.27993	15.45973	-73.2303	-99.26774	-121.23683	-117.16848	-78.92599	0
827	-73.2303	26.85111	99.26774	21.96909	-87.06269	61.83892	10.57771	-68.34828	-94.38572	-113.9138	-112.28646	-74.04397	0
828	-63.46626	24.4101	87.06269	19.52808	-74.85764	54.51589	5.69569	-70.78929	-94.38572	-113.9138	-112.28646	-74.04397	0
829	-63.46626	21.96909	84.62168	19.52808	-74.85764	52.07488	8.1367	-73.2303	-99.26774	-109.03178	-112.28646	-74.04397	0
830	-68.34828	21.96909	89.5037	21.96909	-79.73966	54.51589	8.1367	-75.67131	-104.14976	-109.03178	-112.28646	-78.92599	0
831	-61.02525	19.52808	79.73966	19.52808	-69.97562	49.63387	8.1367	-85.43535	-113.9138	-113.9138	-114.72747	-81.367	0
832	-61.02525	19.52808	79.73966	19.52808	-69.97562	49.63387	13.01872	-90.31737	-116.35481	-118.79582	-117.16848	-86.24902	0
833	-68.34828	19.52808	87.06269	24.4101	-77.29865	52.07488	22.78276	-92.75838	-118.79582	-128.55986	-122.0505	-88.69003	0
834	-68.34828	24.4101	91.94471	21.96909	-79.73966	56.9569	32.5468	-95.19939	-121.23683	-138.3239	-131.81454	-93.57205	0
835	-75.67131	29.29212	104.14976	21.96909	-89.5037	66.72094	37.42882	-92.75838	-118.79582	-143.20592	-136.69656	-98.45407	0
836	-73.2303	29.29212	101.70875	21.96909	-87.06269	64.27993	37.42882	-90.31737	-118.79582	-148.08794	-141.57858	-103.33609	0
837	-75.67131	26.85111	101.70875	24.4101	-89.5037	64.27993	42.31084	-82.99434	-113.9138	-148.08794	-144.01959	-103.33609	0
838	-70.78929	26.85111	96.82673	21.96909	-84.62168	61.83892	42.31084	-82.99434	-116.35481	-150.52895	-146.4606	-108.21811	0
839	-68.34828	26.85111	94.38572	19.52808	-82.18067	59.39791	39.86983	-78.11232	-118.79582	-145.64693	-146.4606	-108.21811	0
840	-68.34828	26.85111	94.38572	19.52808	-82.18067	59.39791	39.86983	-68.34828	-113.9138	-135.88289	-134.25555	-103.33609	0
841	-68.34828	26.85111	94.38572	19.52808	-82.18067	59.39791	34.98781	-63.46626	-111.47279	-126.11885	-126.93252	-98.45407	0
842	-68.34828	29.29212	96.82673	19.52808	-82.18067	61.83892	30.10579	-56.14323	-109.03178	-123.67784	-122.0505	-96.01306	0
843	-70.78929	34.17414	104.14976	17.08707	-87.06269	69.16195	27.66478	-56.14323	-106.59077	-123.67784	-122.0505	-93.57205	0
844	-78.11232	36.61515	113.9138	19.52808	-96.82673	74.04397	27.66478	-58.58424	-109.03178	-128.55986	-126.93252	-98.45407	0
845	-92.75838	36.61515	128.55986	26.85111	-111.47279	81.367	32.5468	-61.02525	-109.03178	-131.00087	-126.93252	-98.45407	0
846	-92.75838	36.61515	128.55986	26.85111	-111.47279	81.367	34.98781	-70.78929	-111.47279	-138.3239	-134.25555	-103.33609	0
847	-92.75838	36.61515	128.55986	26.85111	-111.47279	81.367	39.86983	-80.55333	-116.35481	-145.64693	-136.69656	-103.33609	0
848	-87.87636	36.61515	123.67784	24.4101	-106.59077	78.92599	42.31084	-90.31737	-123.67784	-148.08794	-139.13757	-103.33609	0
849	-78.11232	36.61515	113.9138	19.52808	-96.82673	74.04397	42.31084	-100.08141	-131.00087	-150.52895	-139.13757	-105.7771	0
850	-70.78929	39.05616	109.03178	14.64606	-89.5037	74.04397	42.31084	-95.19939	-131.00087	-143.20592	-129.37353	-100.89508	0
851	-61.02525	39.05616	99.26774	9.76404	-79.73966	69.16195	42.31084	-92.75838	-128.55986	-135.88289	-119.60949	-93.57205	0
852	-63.46626	36.61515	99.26774	12.20505	-82.18067	66.72094	44.75185	-82.99434	-121.23683	-128.55986	-109.84545	-86.24902	0
853	-73.2303	31.73313	104.14976	19.52808	-89.5037	66.72094	47.19286	-75.67131	-113.9138	-121.23683	-100.08141	-76.48498	0
854	-75.67131	31.73313	106.59077	21.96909	-91.94471	69.16195	47.19286	-68.34828	-106.59077	-116.35481	-97.6404	-76.48498	0
855	-78.11232	34.17414	111.47279	21.96909	-94.38572	71.60296	49.63387	-61.02525	-99.26774	-116.35481	-95.19939	-74.04397	0
856	-80.55333	31.73313	111.47279	24.4101	-96.82673	71.60296	54.51589	-58.58424	-99.26774	-116.35481	-95.19939	-74.04397	0
857	-82.99434	31.73313	113.9138	24.4101	-99.26774	71.60296	56.9569	-58.58424	-101.70875	-123.67784	-102.52242	-78.92599	0
858	-85.43535	31.73313	116.35481	26.85111	-101.70875	74.04397	54.51589	-63.46626	-106.59077	-128.55986	-109.84545	-83.80801	0
859	-78.11232	26.85111	104.14976	24.4101	-91.94471	64.27993	52.07488	-70.78929	-116.35481	-133.44188	-119.60949	-93.57205	0
860	-75.67131	21.96909	96.82673	26.85111	-87.06269	59.39791	52.07488	-73.2303	-121.23683	-135.88289	-122.0505	-96.01306	0
861	-87.87636	19.52808	106.59077	34.17414	-96.82673	61.83892	54.51589	-75.67131	-121.23683	-133.44188	-122.0505	-93.57205	0
862	-97.6404	14.64606	111.47279	41.49717	-104.14976	61.83892	54.51589	-80.55333	-123.67784	-135.88289	-122.0505	-93.57205	0
863	-92.75838	12.20505	104.14976	39.05616	-99.26774	56.9569	54.51589	-85.43535	-121.23683	-135.88289	-122.0505	-91.13104	0
864	-92.75838	12.20505	104.14976	39.05616	-99.26774	56.9569	54.51589	-87.87636	-118.79582	-133.44188	-122.0505	-88.69003	0
865	-92.75838	17.08707	109.03178	36.61515	-101.70875	61.83892	52.07488	-87.87636	-113.9138	-133.44188	-119.60949	-88.69003	0
866	-95.19939	24.4101	118.79582	34.17414	-106.59077	71.60296	47.19286	-85.43535	-109.03178	-133.44188	-119.60949	-88.69003	0
867	-92.75838	26.85111	118.79582	31.73313	-106.59077	71.60296	39.86983	-87.87636	-111.47279	-138.3239	-122.0505	-96.01306	0
868	-85.43535	26.85111	111.47279	29.29212	-99.26774	69.16195	37.42882	-90.31737	-116.35481	-143.20592	-122.0505	-98.45407	0
869	-82.99434	26.85111	109.03178	26.85111	-96.82673	66.72094	37.42882	-90.31737	-118.79582	-140.76491	-119.60949	-98.45407	0
870	-87.87636	26.85111	113.9138	29.29212	-101.70875	69.16195	39.86983	-82.99434	-118.79582	-135.88289	-114.72747	-96.01306	0
871	-87.87636	21.96909	109.03178	31.73313	-99.26774	64.27993	47.19286	-80.55333	-118.79582	-131.00087	-109.84545	-91.13104	0
872	-85.43535	14.64606	99.26774	34.17414	-91.94471	56.9569	52.07488	-87.87636	-121.23683	-133.44188	-107.40444	-91.13104	0
873	-78.11232	9.76404	87.06269	34.17414	-82.18067	47.19286	61.83892	-95.19939	-121.23683	-135.88289	-109.84545	-91.13104	0
874	-82.99434	7.32303	89.5037	36.61515	-87.06269	47.19286	66.72094	-95.19939	-116.35481	-135.88289	-109.84545	-91.13104	0
875	-85.43535	9.76404	94.38572	36.61515	-89.5037	52.07488	64.27993	-95.19939	-111.47279	-140.76491	-117.16848	-98.45407	0
876	-87.87636	14.64606	101.70875	36.61515	-94.38572	56.9569	64.27993	-95.19939	-106.59077	-143.20592	-124.49151	-105.7771	0
877	-90.31737	19.52808	109.03178	34.17414	-99.26774	64.27993	61.83892	-92.75838	-101.70875	-145.64693	-129.37353	-110.65912	0
878	-87.87636	19.52808	106.59077	34.17414	-96.82673	61.83892	54.51589	-85.43535	-96.82673	-148.08794	-134.25555	-110.65912	0
879	-85.43535	19.52808	104.14976	31.73313	-94.38572	61.83892	52.07488	-78.11232	-91.94471	-145.64693	-136.69656	-110.65912	0
880	-82.99434	24.4101	106.59077	29.29212	-94.38572	64.27993	49.63387	-68.34828	-91.94471	-143.20592	-129.37353	-108.21811	0
881	-78.11232	26.85111	104.14976	24.4101	-91.94471	64.27993	49.63387	-65.90727	-89.5037	-138.3239	-119.60949	-96.01306	0
882	-75.67131	29.29212	104.14976	21.96909	-89.5037	66.72094	52.07488	-65.90727	-87.06269	-133.44188	-107.40444	-83.80801	0
883	-70.78929	31.73313	101.70875	19.52808	-87.06269	66.72094	52.07488	-70.78929	-87.06269	-133.44188	-100.08141	-76.48498	0
884	-70.78929	31.73313	101.70875	19.52808	-87.06269	66.72094	54.51589	-73.2303	-87.06269	-131.00087	-95.19939	-69.16195	0
885	-73.2303	39.05616	111.47279	17.08707	-91.94471	74.04397	54.51589	-70.78929	-79.73966	-126.11885	-85.43535	-61.83892	0
886	-78.11232	43.93818	121.23683	17.08707	-99.26774	81.367	56.9569	-63.46626	-72.41663	-121.23683	-78.11232	-54.51589	0
887	-75.67131	43.93818	118.79582	14.64606	-96.82673	81.367	54.51589	-61.02525	-69.97562	-121.23683	-80.55333	-54.51589	0
888	-73.2303	41.49717	113.9138	14.64606	-94.38572	76.48498	56.9569	-51.26121	-69.97562	-121.23683	-82.99434	-56.9569	0
889	-68.34828	36.61515	104.14976	14.64606	-87.06269	69.16195	64.27993	-43.93818	-69.97562	-121.23683	-85.43535	-59.39791	0
890	-65.90727	36.61515	101.70875	14.64606	-84.62168	69.16195	69.16195	-36.61515	-72.41663	-121.23683	-82.99434	-59.39791	0
891	-61.02525	36.61515	96.82673	12.20505	-79.73966	66.72094	74.04397	-36.61515	-77.29865	-121.23683	-82.99434	-59.39791	0
892	-58.58424	41.49717	99.26774	6.50936	-79.73966	69.16195	76.48498	-39.05616	-82.18067	-128.55986	-87.87636	-66.72094	0
893	-61.02525	46.37919	106.59077	6.50936	-84.62168	76.48498	76.48498	-43.93818	-84.62168	-133.44188	-92.75838	-71.60296	0
894	-58.58424	53.70222	111.47279	1.62734	-84.62168	81.367	76.48498	-46.37919	-82.18067	-135.88289	-97.6404	-74.04397	0
895	-63.46626	61.02525	123.67784	1.62734	-94.38572	91.13104	76.48498	-46.37919	-72.41663	-135.88289	-95.19939	-74.04397	0
896	-70.78929	61.02525	131.00087	4.06835	-101.70875	96.01306	76.48498	-41.49717	-60.21158	-126.11885	-87.87636	-66.72094	0
897	-70.78929	58.58424	128.55986	6.50936	-99.26774	93.57205	76.48498	-36.61515	-50.44754	-116.35481	-80.55333	-59.39791	0
898	-78.11232	53.70222	131.00087	12.20505	-104.14976	91.13104	76.48498	-21.96909	-35.80148	-101.70875	-68.34828	-47.19286	0
899	-73.2303	46.37919	118.79582	12.20505	-96.82673	81.367	76.48498	-7.32303	-26.03744	-84.62168	-56.14323	-34.98781	0
900	-63.46626	43.93818	106.59077	9.76404	-84.62168	74.04397	78.92599	7.32303	-18.71441	-69.97562	-39.05616	-24.4101	0
901	-61.02525	39.05616	99.26774	9.76404	-79.73966	69.16195	78.92599	17.08707	-16.2734	-60.21158	-29.29212	-12.20505	0
902	-53.70222	41.49717	94.38572	6.50936	-74.85764	66.72094	76.48498	19.52808	-16.2734	-57.77057	-23.59643	-12.20505	0
903	-58.58424	48.8202	106.59077	4.06835	-82.18067	76.48498	78.92599	19.52808	-13.83239	-57.77057	-23.59643	-9.76404	0
904	-48.8202	61.02525	109.03178	-5.69569	-79.73966	83.80801	81.367	19.52808	-16.2734	-62.65259	-29.29212	-14.64606	0
905	-43.93818	70.78929	113.9138	-13.01872	-79.73966	91.13104	86.24902	14.64606	-16.2734	-69.97562	-31.73313	-19.52808	0
906	-36.61515	82.99434	118.79582	-22.78276	-77.29865	100.89508	88.69003	9.76404	-16.2734	-74.85764	-39.05616	-24.4101	0
907	-31.73313	92.75838	123.67784	-30.10579	-77.29865	108.21811	93.57205	4.88202	-16.2734	-77.29865	-41.49717	-24.4101	0
908	-26.85111	102.52242	128.55986	-37.42882	-77.29865	115.54114	96.01306	2.44101	-16.2734	-77.29865	-43.93818	-24.4101	0
909	-12.20505	109.84545	121.23683	-49.63387	-67.53461	115.54114	91.13104	2.44101	-18.71441	-74.85764	-46.37919	-24.4101	0
910	3.25468	117.16848	113.9138	-59.39791	-55.32956	115.54114	81.367	2.44101	-23.59643	-74.85764	-43.93818	-24.4101	0
911	3.25468	114.72747	111.47279	-59.39791	-55.32956	113.10013	71.60296	0	-26.03744	-74.85764	-41.49717	-19.52808	0
912	3.25468	104.96343	101.70875	-54.51589	-50.44754	103.33609	56.9569	-7.32303	-33.36047	-79.73966	-41.49717	-19.52808	0
913	-1.62734	90.31737	91.94471	-44.75185	-48.00653	91.13104	42.31084	-19.52808	-43.12451	-87.06269	-48.8202	-24.4101	0
914	-6.50936	75.67131	82.18067	-34.98781	-45.56552	78.92599	27.66478	-31.73313	-48.00653	-96.82673	-56.14323	-30.10579	0
915	-12.20505	68.34828	79.73966	-27.66478	-45.56552	74.04397	17.90074	-39.05616	-50.44754	-104.14976	-61.02525	-34.98781	0
916	-21.96909	56.14323	77.29865	-17.90074	-50.44754	66.72094	8.1367	-46.37919	-55.32956	-113.9138	-68.34828	-42.31084	0
917	-34.17414	36.61515	69.97562	-0.81367	-52.88855	52.07488	0	-51.26121	-57.77057	-121.23683	-78.11232	-49.63387	0
918	-34.17414	21.96909	55.32956	6.50936	-45.56552	37.42882	-7.32303	-53.70222	-62.65259	-128.55986	-85.43535	-56.9569	0
919	-36.61515	14.64606	50.44754	9.76404	-43.12451	32.5468	-7.32303	-53.70222	-67.53461	-128.55986	-87.87636	-61.83892	0
920	-41.49717	4.88202	45.56552	17.08707	-43.12451	25.22377	-2.44101	-48.8202	-69.97562	-128.55986	-85.43535	-61.83892	0
921	-48.8202	-3.25468	45.56552	24.4101	-48.00653	20.34175	2.44101	-46.37919	-72.41663	-126.11885	-85.43535	-61.83892	0
922	-61.02525	-20.34175	40.6835	39.05616	-52.88855	10.57771	13.01872	-43.93818	-72.41663	-128.55986	-87.87636	-64.27993	0
923	-65.90727	-30.10579	35.80148	46.37919	-52.88855	2.44101	22.78276	-46.37919	-72.41663	-131.00087	-92.75838	-66.72094	0
924	-70.78929	-30.10579	40.6835	48.8202	-57.77057	5.69569	32.5468	-48.8202	-72.41663	-135.88289	-100.08141	-71.60296	0
925	-80.55333	-30.10579	50.44754	53.70222	-67.53461	10.57771	47.19286	-48.8202	-65.0936	-135.88289	-100.08141	-74.04397	0
926	-92.75838	-27.66478	65.0936	58.58424	-79.73966	17.90074	59.39791	-46.37919	-57.77057	-133.44188	-100.08141	-74.04397	0
927	-95.19939	-25.22377	69.97562	58.58424	-84.62168	22.78276	61.83892	-46.37919	-57.77057	-135.88289	-100.08141	-76.48498	0
928	-95.19939	-22.78276	72.41663	58.58424	-84.62168	25.22377	64.27993	-43.93818	-57.77057	-133.44188	-100.08141	-76.48498	0
929	-90.31737	-20.34175	69.97562	53.70222	-82.18067	25.22377	61.83892	-39.05616	-57.77057	-131.00087	-97.6404	-74.04397	0
930	-90.31737	-17.90074	72.41663	53.70222	-82.18067	27.66478	59.39791	-34.17414	-57.77057	-123.67784	-90.31737	-71.60296	0
931	-92.75838	-20.34175	72.41663	56.14323	-84.62168	25.22377	52.07488	-36.61515	-62.65259	-121.23683	-87.87636	-66.72094	0
932	-90.31737	-25.22377	65.0936	56.14323	-79.73966	20.34175	42.31084	-43.93818	-67.53461	-123.67784	-92.75838	-66.72094	0
933	-85.43535	-25.22377	60.21158	53.70222	-74.85764	17.90074	34.98781	-51.26121	-67.53461	-128.55986	-97.6404	-69.16195	0
934	-87.87636	-25.22377	62.65259	56.14323	-77.29865	17.90074	30.10579	-56.14323	-69.97562	-133.44188	-100.08141	-71.60296	0
935	-90.31737	-25.22377	65.0936	56.14323	-79.73966	20.34175	30.10579	-63.46626	-72.41663	-135.88289	-102.52242	-76.48498	0
936	-92.75838	-25.22377	67.53461	58.58424	-82.18067	20.34175	30.10579	-70.78929	-72.41663	-138.3239	-104.96343	-76.48498	0
937	-92.75838	-25.22377	67.53461	58.58424	-82.18067	20.34175	32.5468	-73.2303	-74.85764	-138.3239	-100.08141	-78.92599	0
938	-92.75838	-20.34175	72.41663	56.14323	-84.62168	25.22377	37.42882	-70.78929	-77.29865	-135.88289	-95.19939	-76.48498	0
939	-92.75838	-22.78276	69.97562	56.14323	-82.18067	22.78276	39.86983	-65.90727	-77.29865	-131.00087	-90.31737	-76.48498	0
940	-95.19939	-22.78276	72.41663	58.58424	-84.62168	25.22377	44.75185	-63.46626	-79.73966	-123.67784	-82.99434	-71.60296	0
941	-85.43535	-20.34175	65.0936	51.26121	-77.29865	22.78276	44.75185	-63.46626	-79.73966	-118.79582	-78.11232	-69.16195	0
942	-82.99434	-20.34175	62.65259	51.26121	-74.85764	20.34175	47.19286	-61.02525	-79.73966	-116.35481	-73.2303	-66.72094	0
943	-80.55333	-17.90074	62.65259	48.8202	-72.41663	22.78276	47.19286	-58.58424	-74.85764	-113.9138	-68.34828	-61.83892	0
944	-85.43535	-17.90074	67.53461	51.26121	-77.29865	25.22377	49.63387	-56.14323	-67.53461	-111.47279	-68.34828	-61.83892	0
945	-82.99434	-15.45973	67.53461	48.8202	-77.29865	25.22377	49.63387	-56.14323	-65.0936	-116.35481	-70.78929	-66.72094	0
946	-80.55333	-15.45973	65.0936	46.37919	-74.85764	25.22377	49.63387	-56.14323	-62.65259	-116.35481	-70.78929	-66.72094	0
947	-75.67131	-10.57771	65.0936	41.49717	-72.41663	27.66478	52.07488	-51.26121	-55.32956	-111.47279	-65.90727	-64.27993	0
948	-75.67131	-8.1367	67.53461	41.49717	-72.41663	30.10579	56.9569	-46.37919	-48.00653	-104.14976	-58.58424	-59.39791	0
949	-75.67131	-10.57771	65.0936	41.49717	-72.41663	27.66478	56.9569	-43.93818	-45.56552	-99.26774	-56.14323	-59.39791	0
950	-73.2303	-17.90074	55.32956	43.93818	-65.0936	17.90074	54.51589	-43.93818	-50.44754	-101.70875	-61.02525	-64.27993	0
951	-70.78929	-22.78276	48.00653	46.37919	-60.21158	13.01872	52.07488	-39.05616	-50.44754	-99.26774	-61.02525	-59.39791	0
952	-75.67131	-25.22377	50.44754	48.8202	-65.0936	13.01872	56.9569	-26.85111	-43.12451	-101.70875	-63.46626	-59.39791	0
953	-75.67131	-30.10579	45.56552	51.26121	-62.65259	8.1367	61.83892	-17.08707	-43.12451	-109.03178	-70.78929	-64.27993	0
954	-82.99434	-32.5468	50.44754	56.14323	-67.53461	8.1367	69.16195	-7.32303	-38.24249	-116.35481	-80.55333	-74.04397	0
955	-87.87636	-34.98781	52.88855	61.02525	-72.41663	8.1367	81.367	9.76404	-28.47845	-118.79582	-90.31737	-83.80801	0
956	-90.31737	-44.75185	45.56552	65.90727	-69.97562	0	98.45407	39.86983	-6.50936	-111.47279	-87.87636	-91.13104	0
957	-90.31737	-59.39791	30.91946	73.2303	-62.65259	-14.64606	120.42316	81.367	26.03744	-94.38572	-78.11232	-91.13104	0
958	-85.43535	-78.92599	5.69569	80.55333	-48.00653	-36.61515	139.95124	125.30518	57.77057	-69.97562	-63.46626	-88.69003	0
959	-70.78929	-98.45407	-28.47845	82.99434	-23.59643	-63.46626	149.71528	166.80235	94.38572	-35.80148	-39.05616	-76.48498	0
960	-46.37919	-113.10013	-67.53461	78.11232	8.95037	-90.31737	152.15629	208.29952	138.3239	8.95037	-1.62734	-52.07488	0
961	-12.20505	-127.74619	-116.35481	68.34828	50.44754	-122.0505	142.39225	247.35568	184.70309	65.0936	44.75185	-14.64606	0
962	39.86983	-132.62821	-172.49804	46.37919	104.14976	-151.34262	120.42316	288.85285	238.40531	126.11885	105.7771	36.61515	0
963	108.21811	-127.74619	-235.9643	9.76404	170.05703	-180.63474	91.13104	327.90901	299.43056	204.23117	183.88942	107.40444	0
964	196.09447	-108.21811	-304.31258	-44.75185	248.16935	-205.04484	49.63387	349.8781	360.45581	292.10753	281.52982	200.16282	0
965	286.41184	-81.367	-367.77884	-103.33609	326.28167	-224.57292	-2.44101	352.31911	414.15803	389.74793	401.13931	312.44928	0
966	376.72921	-49.63387	-426.36308	-164.36134	399.51197	-236.77797	-58.58424	332.79103	460.53722	497.15237	535.39486	444.26382	0
967	471.9286	-13.01872	-484.94732	-230.26861	477.62429	-248.98302	-124.49151	286.41184	494.71136	604.55681	681.85546	588.28341	0
968	572.01001	34.17414	-538.64954	-303.49891	555.73661	-251.42403	-190.39878	215.62255	516.68045	716.84327	838.0801	746.94906	0
969	647.68132	90.31737	-558.17762	-369.40618	602.1158	-234.33696	-258.74706	115.54114	514.23944	812.04266	984.5407	898.29168	0
970	708.70657	144.01959	-565.50065	-425.54941	636.28994	-209.92686	-319.77231	-2.44101	484.94732	870.6269	1094.38615	1022.78319	0
971	740.4397	190.39878	-550.85459	-464.60557	646.05398	-180.63474	-373.47453	-129.37353	433.68611	892.59599	1157.85241	1108.21854	0
972	752.64475	224.57292	-528.8855	-489.01567	641.17196	-151.34262	-419.85372	-258.74706	358.0148	858.42185	1162.73443	1137.51066	0
973	747.76273	241.65999	-506.91641	-493.89769	626.5259	-131.81454	-456.46887	-388.12059	260.3744	780.30953	1109.03221	1115.54157	0
974	703.82455	244.101	-460.53722	-474.36961	582.58772	-107.40444	-480.87897	-502.84806	152.96996	668.02307	1013.83282	1047.19329	0
975	645.24031	234.33696	-411.71702	-440.19547	528.8855	-87.87636	-493.08402	-607.81149	33.36047	524.00348	879.57727	937.34784	0
976	576.89203	222.13191	-355.57379	-398.6983	465.41924	-65.90727	-502.84806	-710.33391	-99.26774	358.0148	718.47061	803.09229	0
977	498.77971	207.48585	-292.10753	-352.31911	394.62995	-41.49717	-505.28907	-807.97431	-238.40531	182.26208	545.1589	656.63169	0
978	425.54941	187.95777	-238.40531	-305.93992	331.16369	-24.4101	-500.40705	-893.40966	-377.54288	8.95037	376.72921	507.73008	0
979	349.8781	168.42969	-182.26208	-259.56073	265.25642	-7.32303	-485.76099	-956.87592	-497.15237	-140.76491	225.38659	373.47453	0
980	274.20679	153.78363	-121.23683	-213.18154	196.90814	17.90074	-463.7919	-993.49107	-594.79277	-270.13844	93.57205	253.86504	0
981	213.18154	131.81454	-82.18067	-171.68437	148.08794	25.22377	-449.14584	-1013.01915	-677.78711	-379.98389	-23.59643	151.34262	0
982	164.36134	97.6404	-67.53461	-130.1872	116.35481	15.45973	-432.05877	-1008.13713	-731.48933	-467.86025	-117.16848	61.02525	0
983	122.86417	56.14323	-67.53461	-88.69003	94.38572	-4.88202	-412.53069	-976.404	-748.5764	-521.56247	-187.95777	-7.32303	0
984	93.57205	19.52808	-74.85764	-56.9569	84.62168	-26.85111	-393.00261	-920.26077	-733.93034	-543.53156	-231.89595	-56.9569	0
985	71.60296	-8.1367	-79.73966	-32.5468	74.85764	-43.93818	-373.47453	-844.58946	-692.43317	-536.20853	-251.42403	-88.69003	0
986	54.51589	-30.10579	-84.62168	-13.01872	67.53461	-56.14323	-358.82847	-759.15411	-636.28994	-511.79843	-253.86504	-105.7771	0
987	49.63387	-37.42882	-87.06269	-5.69569	67.53461	-61.02525	-344.18241	-676.15977	-572.82368	-477.62429	-248.98302	-115.54114	0
988	39.86983	-39.86983	-79.73966	-0.81367	57.77057	-58.58424	-314.89029	-590.72442	-504.4754	-436.12712	-234.33696	-117.98215	0
989	32.5468	-34.98781	-67.53461	1.62734	48.00653	-51.26121	-283.15716	-507.73008	-438.56813	-387.30692	-217.24989	-117.98215	0
990	27.66478	-20.34175	-48.00653	-3.25468	35.80148	-34.17414	-246.54201	-429.61776	-375.10187	-338.48672	-192.83979	-110.65912	0
