samplenr	I	II	III	aVR	aVL	aVF	V1	V2	V3	V4	V5	V6	measurement
0	7.32303	-163.54767	-170.8707	76.48498	88.69003	-165.98868	2.44101	-0.81367	-100.89508	-168.42969	-152.96996	-131.81454	0
1	7.32303	-163.54767	-170.8707	76.48498	88.69003	-165.98868	2.44101	-0.81367	-100.89508	-168.42969	-152.96996	-131.81454	0
2	7.32303	-163.54767	-170.8707	76.48498	88.69003	-165.98868	2.44101	-0.81367	-100.89508	-168.42969	-152.96996	-131.81454	0
3	4.88202	-163.54767	-168.42969	78.92599	86.24902	-165.98868	2.44101	-0.81367	-98.45407	-165.98868	-152.96996	-131.81454	0
4	4.88202	-161.10666	-165.98868	76.48498	83.80801	-163.54767	2.44101	1.62734	-91.13104	-158.66565	-148.08794	-131.81454	0
5	7.32303	-158.66565	-165.98868	74.04397	86.24902	-161.10666	2.44101	8.95037	-83.80801	-151.34262	-145.64693	-126.93252	0
6	7.32303	-158.66565	-165.98868	74.04397	86.24902	-161.10666	7.32303	12.20505	-83.80801	-148.90161	-145.64693	-126.93252	0
7	9.76404	-156.22464	-165.98868	71.60296	86.24902	-161.10666	12.20505	12.20505	-83.80801	-148.90161	-145.64693	-126.93252	0
8	9.76404	-156.22464	-165.98868	71.60296	86.24902	-161.10666	19.52808	12.20505	-83.80801	-151.34262	-145.64693	-126.93252	0
9	12.20505	-151.34262	-163.54767	69.16195	86.24902	-156.22464	26.85111	12.20505	-83.80801	-153.78363	-143.20592	-126.93252	0
10	12.20505	-151.34262	-163.54767	69.16195	86.24902	-156.22464	34.17414	8.95037	-88.69003	-161.10666	-145.64693	-129.37353	0
11	9.76404	-153.78363	-163.54767	71.60296	86.24902	-158.66565	36.61515	8.95037	-96.01306	-168.42969	-150.52895	-131.81454	0
12	9.76404	-153.78363	-163.54767	71.60296	86.24902	-158.66565	39.05616	8.95037	-96.01306	-170.8707	-150.52895	-134.25555	0
13	7.32303	-153.78363	-161.10666	71.60296	83.80801	-156.22464	36.61515	8.95037	-96.01306	-170.8707	-152.96996	-136.69656	0
14	4.88202	-153.78363	-158.66565	74.04397	81.367	-156.22464	36.61515	8.95037	-98.45407	-173.31171	-152.96996	-139.13757	0
15	4.88202	-153.78363	-158.66565	74.04397	81.367	-156.22464	36.61515	8.95037	-100.89508	-175.75272	-155.41097	-139.13757	0
16	4.88202	-151.34262	-156.22464	71.60296	78.92599	-153.78363	36.61515	12.20505	-100.89508	-170.8707	-155.41097	-136.69656	0
17	4.88202	-148.90161	-153.78363	71.60296	78.92599	-151.34262	36.61515	14.64606	-96.01306	-163.54767	-150.52895	-131.81454	0
18	7.32303	-144.01959	-151.34262	66.72094	78.92599	-146.4606	41.49717	14.64606	-91.13104	-161.10666	-145.64693	-129.37353	0
19	9.76404	-141.57858	-151.34262	64.27993	78.92599	-146.4606	41.49717	14.64606	-88.69003	-156.22464	-140.76491	-124.49151	0
20	9.76404	-136.69656	-146.4606	61.83892	76.48498	-141.57858	43.93818	14.64606	-83.80801	-153.78363	-135.88289	-119.60949	0
21	12.20505	-129.37353	-141.57858	56.9569	76.48498	-134.25555	43.93818	19.52808	-78.92599	-144.01959	-131.00087	-114.72747	0
22	14.64606	-122.0505	-136.69656	52.07488	74.04397	-129.37353	43.93818	24.4101	-74.04397	-141.57858	-128.55986	-112.28646	0
23	17.08707	-117.16848	-134.25555	49.63387	74.04397	-124.49151	46.37919	29.29212	-71.60296	-139.13757	-128.55986	-109.84545	0
24	21.96909	-109.84545	-131.81454	42.31084	76.48498	-119.60949	46.37919	31.73313	-69.16195	-136.69656	-128.55986	-107.40444	0
25	26.85111	-104.96343	-131.81454	37.42882	78.92599	-117.16848	43.93818	36.61515	-66.72094	-134.25555	-126.11885	-104.96343	0
26	31.73313	-97.6404	-129.37353	32.5468	78.92599	-112.28646	41.49717	41.49717	-64.27993	-131.81454	-126.11885	-100.08141	0
27	36.61515	-92.75838	-129.37353	27.66478	81.367	-109.84545	41.49717	43.93818	-61.83892	-129.37353	-121.23683	-97.6404	0
28	41.49717	-90.31737	-131.81454	22.78276	86.24902	-109.84545	41.49717	41.49717	-59.39791	-129.37353	-118.79582	-95.19939	0
29	43.93818	-87.87636	-131.81454	20.34175	86.24902	-109.84545	41.49717	41.49717	-52.07488	-122.0505	-113.9138	-92.75838	0
30	43.93818	-82.99434	-126.93252	17.90074	83.80801	-104.96343	41.49717	41.49717	-47.19286	-119.60949	-106.59077	-90.31737	0
31	43.93818	-82.99434	-126.93252	17.90074	83.80801	-104.96343	39.05616	43.93818	-47.19286	-119.60949	-104.14976	-90.31737	0
32	43.93818	-80.55333	-124.49151	17.90074	83.80801	-102.52242	39.05616	46.37919	-44.75185	-117.16848	-104.14976	-90.31737	0
33	41.49717	-80.55333	-122.0505	17.90074	81.367	-100.08141	39.05616	48.8202	-44.75185	-117.16848	-101.70875	-92.75838	0
34	41.49717	-78.11232	-119.60949	17.90074	78.92599	-97.6404	39.05616	51.26121	-37.42882	-112.28646	-101.70875	-92.75838	0
35	41.49717	-75.67131	-117.16848	15.45973	78.92599	-95.19939	39.05616	58.58424	-37.42882	-112.28646	-99.26774	-90.31737	0
36	43.93818	-70.78929	-114.72747	13.01872	78.92599	-92.75838	39.05616	63.46626	-34.98781	-109.84545	-96.82673	-87.87636	0
37	46.37919	-68.34828	-114.72747	10.57771	78.92599	-90.31737	39.05616	65.90727	-30.10579	-104.96343	-91.94471	-82.99434	0
38	48.8202	-61.02525	-109.84545	5.69569	78.92599	-85.43535	36.61515	65.90727	-22.78276	-100.08141	-87.06269	-78.11232	0
39	48.8202	-56.14323	-104.96343	3.25468	76.48498	-80.55333	31.73313	61.02525	-22.78276	-102.52242	-82.18067	-78.11232	0
40	51.26121	-53.70222	-104.96343	0	76.48498	-78.11232	26.85111	56.14323	-25.22377	-104.96343	-82.18067	-73.2303	0
41	51.26121	-51.26121	-102.52242	0	76.48498	-75.67131	19.52808	51.26121	-30.10579	-107.40444	-82.18067	-70.78929	0
42	53.70222	-51.26121	-104.96343	-2.44101	78.92599	-78.11232	12.20505	43.93818	-32.5468	-112.28646	-84.62168	-73.2303	0
43	53.70222	-53.70222	-107.40444	0	78.92599	-80.55333	7.32303	39.05616	-37.42882	-117.16848	-87.06269	-75.67131	0
44	53.70222	-58.58424	-112.28646	0	81.367	-85.43535	-0.81367	34.17414	-39.86983	-119.60949	-91.94471	-80.55333	0
45	53.70222	-65.90727	-119.60949	5.69569	86.24902	-92.75838	-3.25468	31.73313	-39.86983	-119.60949	-94.38572	-80.55333	0
46	53.70222	-70.78929	-124.49151	8.1367	88.69003	-97.6404	-10.57771	29.29212	-39.86983	-119.60949	-96.82673	-80.55333	0
47	51.26121	-73.2303	-124.49151	10.57771	86.24902	-97.6404	-15.45973	26.85111	-42.31084	-117.16848	-96.82673	-80.55333	0
48	51.26121	-75.67131	-126.93252	10.57771	88.69003	-100.08141	-20.34175	19.52808	-47.19286	-122.0505	-96.82673	-82.99434	0
49	48.8202	-82.99434	-131.81454	15.45973	88.69003	-107.40444	-27.66478	8.95037	-54.51589	-129.37353	-101.70875	-85.43535	0
50	46.37919	-87.87636	-134.25555	20.34175	88.69003	-109.84545	-34.98781	-0.81367	-64.27993	-139.13757	-106.59077	-87.87636	0
51	43.93818	-92.75838	-136.69656	22.78276	88.69003	-114.72747	-39.86983	-5.69569	-71.60296	-146.4606	-111.47279	-92.75838	0
52	46.37919	-95.19939	-141.57858	22.78276	93.57205	-117.16848	-44.75185	-13.01872	-78.92599	-153.78363	-116.35481	-97.6404	0
53	51.26121	-100.08141	-151.34262	22.78276	100.89508	-124.49151	-49.63387	-13.01872	-81.367	-153.78363	-118.79582	-100.08141	0
54	53.70222	-102.52242	-156.22464	22.78276	103.33609	-129.37353	-49.63387	-13.01872	-76.48498	-153.78363	-118.79582	-100.08141	0
55	56.14323	-102.52242	-158.66565	22.78276	105.7771	-129.37353	-49.63387	-8.1367	-74.04397	-146.4606	-113.9138	-95.19939	0
56	58.58424	-102.52242	-161.10666	20.34175	108.21811	-131.81454	-49.63387	-0.81367	-66.72094	-136.69656	-109.03178	-90.31737	0
57	61.02525	-100.08141	-161.10666	17.90074	110.65912	-129.37353	-47.19286	6.50936	-59.39791	-126.93252	-99.26774	-85.43535	0
58	63.46626	-95.19939	-158.66565	15.45973	110.65912	-126.93252	-42.31084	8.95037	-52.07488	-117.16848	-89.5037	-80.55333	0
59	63.46626	-90.31737	-153.78363	13.01872	108.21811	-122.0505	-37.42882	8.95037	-47.19286	-114.72747	-82.18067	-78.11232	0
60	61.02525	-87.87636	-148.90161	13.01872	103.33609	-117.16848	-30.10579	14.64606	-47.19286	-109.84545	-79.73966	-73.2303	0
61	58.58424	-85.43535	-144.01959	13.01872	100.89508	-114.72747	-20.34175	19.52808	-44.75185	-107.40444	-77.29865	-73.2303	0
62	56.14323	-85.43535	-141.57858	13.01872	98.45407	-112.28646	-13.01872	21.96909	-42.31084	-104.96343	-77.29865	-73.2303	0
63	53.70222	-85.43535	-139.13757	15.45973	96.01306	-112.28646	-3.25468	24.4101	-42.31084	-104.96343	-79.73966	-75.67131	0
64	48.8202	-87.87636	-136.69656	17.90074	91.13104	-112.28646	2.44101	29.29212	-34.98781	-100.08141	-79.73966	-75.67131	0
65	41.49717	-92.75838	-134.25555	25.22377	86.24902	-112.28646	9.76404	31.73313	-32.5468	-97.6404	-82.18067	-75.67131	0
66	34.17414	-100.08141	-134.25555	32.5468	83.80801	-117.16848	7.32303	31.73313	-34.98781	-97.6404	-87.06269	-80.55333	0
67	29.29212	-107.40444	-136.69656	37.42882	81.367	-122.0505	4.88202	31.73313	-39.86983	-102.52242	-94.38572	-85.43535	0
68	21.96909	-114.72747	-136.69656	44.75185	78.92599	-124.49151	-0.81367	24.4101	-44.75185	-112.28646	-99.26774	-92.75838	0
69	17.08707	-124.49151	-141.57858	52.07488	78.92599	-131.81454	-3.25468	17.08707	-52.07488	-122.0505	-106.59077	-97.6404	0
70	14.64606	-131.81454	-146.4606	56.9569	78.92599	-139.13757	-8.1367	8.95037	-59.39791	-131.81454	-113.9138	-102.52242	0
71	9.76404	-136.69656	-146.4606	61.83892	76.48498	-141.57858	-13.01872	4.06835	-71.60296	-141.57858	-121.23683	-109.84545	0
72	7.32303	-141.57858	-148.90161	66.72094	76.48498	-144.01959	-17.90074	1.62734	-78.92599	-151.34262	-126.11885	-117.16848	0
73	4.88202	-146.4606	-151.34262	69.16195	76.48498	-148.90161	-20.34175	1.62734	-81.367	-151.34262	-128.55986	-122.0505	0
74	4.88202	-148.90161	-153.78363	71.60296	78.92599	-151.34262	-20.34175	-0.81367	-78.92599	-151.34262	-128.55986	-124.49151	0
75	4.88202	-148.90161	-153.78363	71.60296	78.92599	-151.34262	-20.34175	1.62734	-78.92599	-151.34262	-128.55986	-124.49151	0
76	4.88202	-151.34262	-156.22464	71.60296	78.92599	-153.78363	-20.34175	4.06835	-81.367	-148.90161	-128.55986	-122.0505	0
77	4.88202	-151.34262	-156.22464	71.60296	78.92599	-153.78363	-20.34175	4.06835	-81.367	-146.4606	-126.11885	-122.0505	0
78	9.76404	-151.34262	-161.10666	69.16195	83.80801	-156.22464	-20.34175	4.06835	-78.92599	-144.01959	-121.23683	-119.60949	0
79	12.20505	-151.34262	-163.54767	69.16195	86.24902	-156.22464	-20.34175	4.06835	-76.48498	-144.01959	-118.79582	-117.16848	0
80	12.20505	-151.34262	-163.54767	69.16195	86.24902	-156.22464	-17.90074	-0.81367	-81.367	-148.90161	-118.79582	-117.16848	0
81	9.76404	-151.34262	-161.10666	69.16195	83.80801	-156.22464	-13.01872	-0.81367	-86.24902	-148.90161	-118.79582	-114.72747	0
82	9.76404	-148.90161	-158.66565	69.16195	83.80801	-153.78363	-10.57771	-0.81367	-86.24902	-148.90161	-118.79582	-114.72747	0
83	9.76404	-148.90161	-158.66565	69.16195	83.80801	-153.78363	-3.25468	1.62734	-81.367	-144.01959	-118.79582	-112.28646	0
84	7.32303	-148.90161	-156.22464	69.16195	81.367	-151.34262	-0.81367	-0.81367	-78.92599	-141.57858	-118.79582	-112.28646	0
85	2.44101	-148.90161	-151.34262	71.60296	76.48498	-148.90161	4.88202	-0.81367	-78.92599	-136.69656	-118.79582	-112.28646	0
86	2.44101	-148.90161	-151.34262	71.60296	76.48498	-148.90161	9.76404	1.62734	-76.48498	-131.81454	-116.35481	-109.84545	0
87	2.44101	-148.90161	-151.34262	71.60296	76.48498	-148.90161	12.20505	6.50936	-71.60296	-126.93252	-111.47279	-109.84545	0
88	2.44101	-148.90161	-151.34262	71.60296	76.48498	-148.90161	14.64606	4.06835	-71.60296	-126.93252	-111.47279	-107.40444	0
89	-0.81367	-151.34262	-151.34262	74.04397	74.04397	-151.34262	14.64606	-0.81367	-76.48498	-134.25555	-109.03178	-107.40444	0
90	-0.81367	-153.78363	-153.78363	76.48498	76.48498	-153.78363	14.64606	-3.25468	-81.367	-141.57858	-111.47279	-109.84545	0
91	-0.81367	-153.78363	-153.78363	76.48498	76.48498	-153.78363	17.08707	-0.81367	-83.80801	-141.57858	-111.47279	-109.84545	0
92	-0.81367	-153.78363	-153.78363	76.48498	76.48498	-153.78363	17.08707	-0.81367	-83.80801	-144.01959	-113.9138	-112.28646	0
93	-0.81367	-158.66565	-158.66565	78.92599	78.92599	-158.66565	19.52808	1.62734	-86.24902	-146.4606	-113.9138	-114.72747	0
94	-3.25468	-158.66565	-156.22464	78.92599	76.48498	-158.66565	21.96909	1.62734	-83.80801	-144.01959	-116.35481	-117.16848	0
95	-5.69569	-161.10666	-156.22464	81.367	74.04397	-158.66565	24.4101	4.06835	-81.367	-139.13757	-113.9138	-114.72747	0
96	-5.69569	-163.54767	-158.66565	83.80801	76.48498	-161.10666	29.29212	6.50936	-76.48498	-131.81454	-111.47279	-112.28646	0
97	-5.69569	-163.54767	-158.66565	83.80801	76.48498	-161.10666	34.17414	8.95037	-71.60296	-126.93252	-106.59077	-112.28646	0
98	-8.1367	-163.54767	-156.22464	83.80801	74.04397	-161.10666	39.05616	6.50936	-71.60296	-126.93252	-104.14976	-109.84545	0
99	-8.1367	-163.54767	-156.22464	83.80801	74.04397	-161.10666	46.37919	1.62734	-69.16195	-126.93252	-101.70875	-109.84545	0
100	-8.1367	-161.10666	-153.78363	83.80801	71.60296	-158.66565	51.26121	-0.81367	-69.16195	-126.93252	-101.70875	-107.40444	1000	P+0
101	-5.69569	-156.22464	-151.34262	78.92599	71.60296	-153.78363	56.14323	-0.81367	-69.16195	-126.93252	-101.70875	-107.40444	0
102	-3.25468	-156.22464	-153.78363	78.92599	74.04397	-156.22464	58.58424	-5.69569	-74.04397	-131.81454	-106.59077	-109.84545	0
103	-3.25468	-156.22464	-153.78363	78.92599	74.04397	-156.22464	56.14323	-5.69569	-76.48498	-134.25555	-109.03178	-112.28646	0
104	-0.81367	-156.22464	-156.22464	76.48498	76.48498	-156.22464	53.70222	-5.69569	-74.04397	-134.25555	-111.47279	-112.28646	0
105	-0.81367	-153.78363	-153.78363	76.48498	76.48498	-153.78363	48.8202	-0.81367	-71.60296	-129.37353	-113.9138	-112.28646	0
106	2.44101	-153.78363	-156.22464	74.04397	78.92599	-153.78363	43.93818	1.62734	-69.16195	-124.49151	-113.9138	-109.84545	0
107	2.44101	-156.22464	-158.66565	76.48498	78.92599	-156.22464	39.05616	1.62734	-71.60296	-126.93252	-111.47279	-109.84545	0
108	-0.81367	-161.10666	-161.10666	78.92599	78.92599	-161.10666	36.61515	-0.81367	-71.60296	-126.93252	-109.03178	-109.84545	0
109	-0.81367	-161.10666	-161.10666	78.92599	78.92599	-161.10666	34.17414	-3.25468	-71.60296	-126.93252	-109.03178	-109.84545	0
110	-3.25468	-158.66565	-156.22464	78.92599	76.48498	-158.66565	34.17414	-5.69569	-74.04397	-129.37353	-106.59077	-109.84545	0
111	-5.69569	-158.66565	-153.78363	81.367	74.04397	-156.22464	34.17414	-5.69569	-74.04397	-129.37353	-106.59077	-109.84545	0
112	-8.1367	-158.66565	-151.34262	81.367	71.60296	-156.22464	34.17414	-5.69569	-78.92599	-131.81454	-109.03178	-112.28646	0
113	-13.01872	-158.66565	-146.4606	83.80801	66.72094	-153.78363	29.29212	-5.69569	-78.92599	-131.81454	-109.03178	-114.72747	0
114	-13.01872	-158.66565	-146.4606	83.80801	66.72094	-153.78363	29.29212	-5.69569	-71.60296	-129.37353	-109.03178	-114.72747	0
115	-13.01872	-158.66565	-146.4606	83.80801	66.72094	-153.78363	26.85111	-0.81367	-66.72094	-124.49151	-109.03178	-112.28646	0
116	-13.01872	-158.66565	-146.4606	83.80801	66.72094	-153.78363	24.4101	1.62734	-61.83892	-119.60949	-106.59077	-109.84545	0
117	-13.01872	-156.22464	-144.01959	83.80801	64.27993	-151.34262	24.4101	4.06835	-59.39791	-117.16848	-101.70875	-109.84545	0
118	-13.01872	-156.22464	-144.01959	83.80801	64.27993	-151.34262	26.85111	1.62734	-56.9569	-117.16848	-99.26774	-109.84545	0
119	-10.57771	-153.78363	-144.01959	81.367	66.72094	-148.90161	29.29212	-0.81367	-56.9569	-119.60949	-99.26774	-109.84545	0
120	-13.01872	-148.90161	-136.69656	78.92599	61.83892	-144.01959	34.17414	-0.81367	-54.51589	-119.60949	-99.26774	-109.84545	0
121	-15.45973	-141.57858	-126.93252	76.48498	54.51589	-134.25555	43.93818	6.50936	-52.07488	-117.16848	-99.26774	-109.84545	0
122	-20.34175	-136.69656	-117.16848	76.48498	47.19286	-126.93252	51.26121	12.20505	-44.75185	-112.28646	-96.82673	-109.84545	0
123	-27.66478	-131.81454	-104.96343	78.92599	37.42882	-119.60949	61.02525	24.4101	-34.98781	-102.52242	-94.38572	-107.40444	0
124	-32.5468	-131.81454	-100.08141	81.367	32.5468	-117.16848	68.34828	41.49717	-13.01872	-87.87636	-89.5037	-104.96343	0
125	-34.98781	-126.93252	-92.75838	78.92599	27.66478	-109.84545	75.67131	70.78929	12.20505	-61.02525	-74.85764	-95.19939	0
126	-30.10579	-122.0505	-92.75838	74.04397	30.10579	-107.40444	80.55333	104.96343	53.70222	-24.4101	-50.44754	-80.55333	0
127	-20.34175	-119.60949	-100.08141	69.16195	39.86983	-109.84545	82.99434	148.90161	104.96343	20.34175	-18.71441	-63.46626	0
128	-5.69569	-112.28646	-107.40444	56.9569	49.63387	-109.84545	82.99434	200.16282	173.31171	78.92599	26.03744	-39.05616	0
129	14.64606	-104.96343	-119.60949	44.75185	66.72094	-112.28646	80.55333	261.18807	253.86504	154.5973	82.18067	-9.76404	0
130	43.93818	-87.87636	-131.81454	20.34175	86.24902	-109.84545	82.99434	336.85938	356.38746	249.79669	155.41097	30.10579	0
131	78.11232	-68.34828	-146.4606	-4.88202	110.65912	-107.40444	87.87636	434.49978	485.76099	374.2882	248.16935	81.367	0
132	124.49151	-39.05616	-163.54767	-43.93818	142.39225	-100.08141	92.75838	549.22725	649.30866	535.39486	367.77884	149.71528	0
133	183.07575	-2.44101	-185.51676	-90.31737	183.88942	-92.75838	95.19939	681.04179	847.03047	733.11667	514.23944	235.15063	0
134	248.98302	42.31084	-207.48585	-146.4606	227.8276	-82.99434	90.31737	817.73835	1069.16238	952.80757	682.66913	332.79103	0
135	324.65433	88.69003	-236.77797	-207.48585	281.52982	-73.2303	80.55333	939.78885	1279.08924	1167.61645	851.09882	435.31345	0
136	400.32564	132.62821	-268.5111	-266.07009	335.23204	-68.34828	56.14323	1017.90117	1437.75489	1343.36917	992.6774	523.18981	0
137	473.55594	174.12538	-300.24423	-324.65433	386.49325	-63.46626	19.52808	1044.75228	1530.51327	1455.65563	1100.08184	593.9791	0
138	539.46321	210.74053	-329.53635	-375.91554	435.31345	-58.58424	-25.22377	1008.13713	1547.60034	1494.71179	1161.10709	640.35829	0
139	590.72442	242.47366	-349.06443	-417.41271	469.48759	-53.70222	-76.48498	912.93774	1481.69307	1458.09664	1168.43012	662.32738	0
140	629.78058	269.32477	-361.26948	-449.14584	496.3387	-46.37919	-139.95124	764.03613	1340.11449	1350.6922	1129.37396	662.32738	0
141	651.74967	291.29386	-361.26948	-471.11493	506.10274	-34.17414	-210.74053	573.63735	1137.51066	1189.58554	1048.82063	640.35829	0
142	649.30866	315.70396	-334.41837	-483.31998	491.45668	-9.76404	-276.6478	361.26948	900.73269	991.86373	936.53417	606.18415	0
143	624.89856	342.55507	-283.15716	-483.31998	454.84153	30.10579	-340.11406	134.25555	641.98563	777.05485	812.04266	567.12799	0
144	580.96038	366.96517	-214.80888	-473.55594	398.6983	76.48498	-401.13931	-108.21811	371.03352	552.48193	672.90509	523.18981	0
145	515.05311	381.61123	-134.25555	-449.14584	325.468	125.30518	-457.28254	-357.20113	87.87636	318.14497	521.56247	469.48759	0
146	432.05877	384.05224	-48.8202	-407.64867	240.03265	169.24336	-501.22072	-598.86112	-193.65346	74.04397	353.13278	403.58032	0
147	336.85938	384.05224	47.19286	-361.26948	144.83326	215.62255	-528.07183	-820.99303	-462.16456	-158.66565	187.1441	327.90901	0
148	244.101	381.61123	137.51023	-312.44928	54.51589	259.56073	-547.59991	-1011.39181	-691.6195	-363.71049	38.24249	262.00174	0
149	161.10666	374.2882	213.18154	-268.5111	-26.85111	293.73487	-562.24597	-1157.85241	-869.81323	-527.25816	-79.73966	203.4175	0
150	90.31737	364.52416	274.20679	-227.01393	-92.75838	320.58598	-559.80496	-1238.40574	-984.5407	-641.98563	-174.93905	152.15629	0
151	26.85111	354.76012	327.90901	-190.39878	-151.34262	342.55507	-542.71789	-1255.49281	-1038.24292	-707.8929	-243.28733	108.21811	0
152	-22.78276	352.31911	374.2882	-165.98868	-197.72181	362.08315	-515.86678	-1228.6417	-1035.80191	-724.97997	-279.90248	76.48498	0
153	-64.27993	352.31911	415.78537	-144.01959	-239.21898	384.05224	-479.25163	-1160.29342	-991.86373	-703.01088	-287.22551	64.27993	0
154	-93.57205	349.8781	442.63648	-129.37353	-268.5111	396.25729	-432.87244	-1067.53504	-916.19242	-656.63169	-282.34349	52.07488	0
155	-120.42316	342.55507	462.16456	-112.28646	-290.48019	401.13931	-384.05224	-957.68959	-828.31606	-598.04745	-265.25642	47.19286	0
156	-139.95124	335.23204	474.36961	-97.6404	-307.56726	403.58032	-327.90901	-842.96212	-730.67566	-532.14018	-245.72834	44.75185	0
157	-152.15629	330.35002	481.69264	-90.31737	-317.3313	406.02133	-276.6478	-733.11667	-637.91728	-463.7919	-213.99521	47.19286	0
158	-152.15629	320.58598	471.9286	-85.43535	-312.44928	396.25729	-232.70962	-637.91728	-550.04092	-400.32564	-179.82107	54.51589	0
159	-152.15629	308.38093	459.72355	-78.11232	-305.12625	384.05224	-198.53548	-552.48193	-469.48759	-341.7414	-148.08794	61.83892	0
160	-152.15629	296.17588	447.5185	-73.2303	-300.24423	371.84719	-164.36134	-481.69264	-403.58032	-292.9212	-118.79582	69.16195	0
161	-152.15629	283.97083	435.31345	-65.90727	-292.9212	359.64214	-137.51023	-418.22638	-349.8781	-248.98302	-96.82673	71.60296	0
162	-149.71528	269.32477	418.22638	-61.02525	-283.15716	342.55507	-110.65912	-362.08315	-298.61689	-212.36787	-77.29865	74.04397	0
163	-147.27427	252.2377	398.6983	-53.70222	-273.39312	325.468	-88.69003	-313.26295	-254.67871	-178.19373	-62.65259	71.60296	0
164	-142.39225	230.26861	371.84719	-43.93818	-256.30605	301.0579	-69.16195	-269.32477	-213.18154	-151.34262	-52.88855	64.27993	0
165	-139.95124	205.85851	344.99608	-34.17414	-241.65999	274.20679	-54.51589	-232.70962	-181.44841	-131.81454	-48.00653	56.9569	0
166	-130.1872	183.88942	313.26295	-26.85111	-222.13191	247.35568	-42.31084	-198.53548	-154.5973	-112.28646	-43.12451	47.19286	0
167	-125.30518	159.47932	283.97083	-17.08707	-205.04484	220.50457	-32.5468	-169.24336	-132.62821	-97.6404	-38.24249	37.42882	0
168	-117.98215	139.95124	257.11972	-12.20505	-187.95777	198.53548	-25.22377	-149.71528	-110.65912	-85.43535	-33.36047	32.5468	0
169	-110.65912	127.74619	237.59164	-9.76404	-173.31171	181.44841	-17.90074	-135.06922	-96.01306	-75.67131	-28.47845	30.10579	0
170	-110.65912	117.98215	227.8276	-4.88202	-168.42969	171.68437	-10.57771	-122.86417	-83.80801	-65.90727	-21.15542	30.10579	0
171	-105.7771	117.98215	222.94558	-7.32303	-163.54767	169.24336	-0.81367	-105.7771	-69.16195	-51.26121	-10.57771	32.5468	0
172	-103.33609	120.42316	222.94558	-9.76404	-163.54767	171.68437	4.88202	-91.13104	-49.63387	-34.17414	1.62734	37.42882	0
173	-103.33609	125.30518	227.8276	-12.20505	-165.98868	176.56639	12.20505	-74.04397	-34.98781	-21.96909	11.39138	44.75185	0
174	-105.7771	132.62821	237.59164	-14.64606	-170.8707	183.88942	19.52808	-64.27993	-17.90074	-6.50936	21.15542	52.07488	0
175	-105.7771	139.95124	244.91467	-17.08707	-175.75272	191.21245	24.4101	-49.63387	-7.32303	5.69569	30.91946	59.39791	0
176	-105.7771	144.83326	249.79669	-19.52808	-178.19373	196.09447	34.17414	-39.86983	2.44101	17.90074	38.24249	66.72094	0
177	-108.21811	149.71528	257.11972	-21.96909	-183.07575	203.4175	41.49717	-30.10579	7.32303	22.78276	45.56552	69.16195	0
178	-110.65912	152.15629	262.00174	-21.96909	-185.51676	205.85851	48.8202	-30.10579	7.32303	22.78276	45.56552	71.60296	0
179	-113.10013	154.5973	266.88376	-21.96909	-190.39878	210.74053	53.70222	-30.10579	7.32303	22.78276	50.44754	71.60296	0
180	-113.10013	157.03831	269.32477	-21.96909	-190.39878	213.18154	58.58424	-30.10579	4.88202	22.78276	52.88855	74.04397	0
181	-113.10013	159.47932	271.76578	-24.4101	-192.83979	215.62255	63.46626	-30.10579	4.88202	22.78276	55.32956	74.04397	0
182	-115.54114	159.47932	274.20679	-21.96909	-195.2808	215.62255	63.46626	-30.10579	4.88202	22.78276	57.77057	71.60296	0
183	-115.54114	159.47932	274.20679	-21.96909	-195.2808	215.62255	63.46626	-25.22377	9.76404	27.66478	62.65259	74.04397	0
184	-115.54114	161.92033	276.6478	-24.4101	-195.2808	218.06356	61.02525	-22.78276	17.08707	34.98781	65.0936	76.48498	0
185	-117.98215	161.92033	279.08881	-21.96909	-197.72181	220.50457	61.02525	-17.90074	24.4101	42.31084	69.97562	81.367	0
186	-117.98215	161.92033	279.08881	-21.96909	-197.72181	220.50457	58.58424	-15.45973	29.29212	47.19286	72.41663	81.367	0
187	-120.42316	164.36134	283.97083	-21.96909	-202.60383	222.94558	58.58424	-13.01872	31.73313	52.07488	74.85764	83.80801	0
188	-117.98215	164.36134	281.52982	-24.4101	-200.16282	222.94558	56.14323	-13.01872	34.17414	52.07488	79.73966	86.24902	0
189	-117.98215	164.36134	281.52982	-24.4101	-200.16282	222.94558	53.70222	-17.90074	34.17414	52.07488	82.18067	88.69003	0
190	-117.98215	166.80235	283.97083	-24.4101	-200.16282	225.38659	51.26121	-20.34175	31.73313	49.63387	84.62168	91.13104	0
191	-117.98215	169.24336	286.41184	-26.85111	-202.60383	227.8276	48.8202	-20.34175	26.85111	49.63387	87.06269	91.13104	0
192	-115.54114	174.12538	288.85285	-29.29212	-202.60383	230.26861	48.8202	-20.34175	26.85111	54.51589	89.5037	93.57205	0
193	-117.98215	174.12538	291.29386	-29.29212	-205.04484	232.70962	46.37919	-20.34175	29.29212	59.39791	91.94471	96.01306	0
194	-117.98215	179.0074	296.17588	-31.73313	-207.48585	237.59164	43.93818	-20.34175	34.17414	66.72094	96.82673	100.89508	0
195	-120.42316	181.44841	301.0579	-31.73313	-209.92686	240.03265	43.93818	-15.45973	39.05616	74.04397	101.70875	105.7771	0
196	-120.42316	186.33043	305.93992	-34.17414	-212.36787	244.91467	43.93818	-13.01872	43.93818	83.80801	106.59077	110.65912	0
197	-120.42316	191.21245	310.82194	-36.61515	-214.80888	249.79669	43.93818	-10.57771	48.8202	91.13104	111.47279	115.54114	0
198	-122.86417	191.21245	313.26295	-34.17414	-217.24989	252.2377	43.93818	-13.01872	48.8202	93.57205	116.35481	117.98215	0
199	-125.30518	193.65346	318.14497	-34.17414	-222.13191	254.67871	41.49717	-15.45973	53.70222	96.01306	121.23683	122.86417	0
200	-125.30518	198.53548	323.02699	-36.61515	-224.57292	259.56073	41.49717	-15.45973	53.70222	98.45407	126.11885	125.30518	0
201	-127.74619	203.4175	330.35002	-39.05616	-229.45494	266.88376	39.05616	-13.01872	53.70222	98.45407	128.55986	127.74619	0
202	-130.1872	203.4175	332.79103	-36.61515	-231.89595	266.88376	39.05616	-13.01872	53.70222	100.89508	131.00087	127.74619	0
203	-132.62821	205.85851	337.67305	-36.61515	-234.33696	271.76578	36.61515	-8.1367	53.70222	103.33609	131.00087	130.1872	0
204	-132.62821	208.29952	340.11406	-39.05616	-236.77797	274.20679	36.61515	-5.69569	58.58424	108.21811	133.44188	132.62821	0
205	-132.62821	215.62255	347.43709	-41.49717	-239.21898	281.52982	36.61515	-0.81367	63.46626	110.65912	138.3239	137.51023	0
206	-132.62821	218.06356	349.8781	-43.93818	-241.65999	283.97083	36.61515	1.62734	65.90727	117.98215	140.76491	139.95124	0
207	-130.1872	220.50457	349.8781	-46.37919	-239.21898	283.97083	36.61515	4.06835	68.34828	120.42316	143.20592	142.39225	0
208	-127.74619	225.38659	352.31911	-48.8202	-239.21898	288.85285	36.61515	4.06835	70.78929	122.86417	148.08794	147.27427	0
209	-125.30518	230.26861	354.76012	-53.70222	-239.21898	291.29386	39.05616	-0.81367	73.2303	127.74619	152.96996	152.15629	0
210	-125.30518	232.70962	357.20113	-53.70222	-241.65999	293.73487	39.05616	-0.81367	75.67131	127.74619	155.41097	157.03831	0
211	-127.74619	235.15063	362.08315	-53.70222	-244.101	298.61689	39.05616	1.62734	75.67131	132.62821	157.85198	157.03831	0
212	-130.1872	237.59164	366.96517	-53.70222	-248.98302	301.0579	39.05616	1.62734	78.11232	137.51023	160.29299	161.92033	0
213	-130.1872	242.47366	371.84719	-56.14323	-251.42403	305.93992	39.05616	6.50936	82.99434	144.83326	162.734	164.36134	0
214	-132.62821	247.35568	379.17022	-58.58424	-256.30605	313.26295	39.05616	8.95037	90.31737	149.71528	165.17501	166.80235	0
215	-135.06922	249.79669	384.05224	-58.58424	-258.74706	315.70396	39.05616	12.20505	97.6404	159.47932	170.05703	174.12538	0
216	-137.51023	252.2377	388.93426	-58.58424	-263.62908	320.58598	39.05616	17.08707	102.52242	166.80235	174.93905	176.56639	0
217	-137.51023	257.11972	393.81628	-61.02525	-266.07009	325.468	39.05616	21.96909	107.40444	174.12538	182.26208	181.44841	0
218	-135.06922	259.56073	393.81628	-63.46626	-263.62908	325.468	39.05616	21.96909	114.72747	179.0074	187.1441	186.33043	0
219	-135.06922	262.00174	396.25729	-63.46626	-266.07009	327.90901	39.05616	19.52808	117.16848	181.44841	194.46713	188.77144	0
220	-139.95124	266.88376	406.02133	-63.46626	-273.39312	335.23204	39.05616	19.52808	119.60949	183.88942	196.90814	193.65346	0
221	-142.39225	271.76578	413.34436	-65.90727	-278.27514	342.55507	41.49717	19.52808	119.60949	186.33043	199.34915	196.09447	0
222	-142.39225	274.20679	415.78537	-65.90727	-278.27514	344.99608	41.49717	21.96909	122.0505	191.21245	204.23117	198.53548	0
223	-144.83326	279.08881	423.1084	-68.34828	-283.15716	349.8781	39.05616	26.85111	126.93252	198.53548	206.67218	203.4175	0
224	-147.27427	281.52982	427.99042	-68.34828	-288.03918	354.76012	39.05616	31.73313	134.25555	205.85851	211.5542	205.85851	0
225	-147.27427	286.41184	432.87244	-70.78929	-290.48019	359.64214	36.61515	39.05616	141.57858	218.06356	216.43622	215.62255	0
226	-144.83326	288.85285	432.87244	-73.2303	-288.03918	359.64214	36.61515	46.37919	151.34262	230.26861	223.75925	222.94558	0
227	-144.83326	293.73487	437.75446	-75.67131	-290.48019	364.52416	34.17414	48.8202	161.10666	237.59164	231.08228	227.8276	0
228	-142.39225	298.61689	440.19547	-78.11232	-290.48019	369.40618	31.73313	48.8202	168.42969	244.91467	240.84632	232.70962	0
229	-139.95124	303.49891	442.63648	-82.99434	-290.48019	371.84719	31.73313	48.8202	173.31171	252.2377	248.16935	240.03265	0
230	-139.95124	308.38093	447.5185	-85.43535	-292.9212	376.72921	36.61515	48.8202	175.75272	257.11972	255.49238	244.91467	0
231	-139.95124	315.70396	454.84153	-87.87636	-297.80322	384.05224	36.61515	51.26121	178.19373	262.00174	260.3744	247.35568	0
232	-139.95124	320.58598	459.72355	-90.31737	-300.24423	388.93426	39.05616	53.70222	180.63474	262.00174	262.81541	249.79669	0
233	-139.95124	325.468	464.60557	-92.75838	-302.68524	393.81628	41.49717	56.14323	183.07575	266.88376	267.69743	252.2377	0
234	-142.39225	330.35002	471.9286	-95.19939	-307.56726	401.13931	43.93818	61.02525	190.39878	274.20679	272.57945	254.67871	0
235	-142.39225	335.23204	476.81062	-97.6404	-310.00827	406.02133	43.93818	68.34828	195.2808	281.52982	277.46147	262.00174	0
236	-144.83326	337.67305	481.69264	-97.6404	-312.44928	408.46234	43.93818	73.2303	205.04484	291.29386	284.7845	266.88376	0
237	-144.83326	342.55507	486.57466	-100.08141	-314.89029	413.34436	43.93818	78.11232	212.36787	298.61689	292.10753	269.32477	0
238	-147.27427	344.99608	491.45668	-100.08141	-319.77231	418.22638	43.93818	78.11232	217.24989	305.93992	299.43056	276.6478	0
239	-147.27427	344.99608	491.45668	-100.08141	-319.77231	418.22638	41.49717	78.11232	227.01393	313.26295	306.75359	281.52982	0
240	-149.71528	349.8781	498.77971	-100.08141	-324.65433	423.1084	41.49717	78.11232	234.33696	323.02699	316.51763	288.85285	0
241	-149.71528	354.76012	503.66173	-102.52242	-327.09534	427.99042	41.49717	82.99434	239.21898	330.35002	323.84066	293.73487	0
242	-152.15629	357.20113	508.54375	-102.52242	-329.53635	432.87244	41.49717	85.43535	244.101	337.67305	328.72268	298.61689	0
243	-154.5973	359.64214	513.42577	-102.52242	-334.41837	435.31345	39.05616	90.31737	248.98302	344.99608	336.04571	303.49891	0
244	-154.5973	366.96517	520.7488	-107.40444	-336.85938	442.63648	39.05616	95.19939	261.18807	357.20113	340.92773	308.38093	0
245	-154.5973	371.84719	525.63082	-109.84545	-339.30039	447.5185	39.05616	104.96343	270.95211	369.40618	350.69177	318.14497	0
246	-154.5973	376.72921	530.51284	-112.28646	-341.7414	452.40052	39.05616	112.28646	280.71615	381.61123	360.45581	325.468	0
247	-152.15629	379.17022	530.51284	-114.72747	-341.7414	454.84153	39.05616	117.16848	288.03918	391.37527	367.77884	330.35002	0
248	-149.71528	384.05224	532.95385	-117.16848	-341.7414	457.28254	39.05616	117.16848	295.36221	401.13931	379.98389	335.23204	0
249	-144.83326	391.37527	535.39486	-124.49151	-339.30039	462.16456	43.93818	117.16848	305.12625	408.46234	389.74793	342.55507	0
250	-142.39225	396.25729	537.83587	-126.93252	-339.30039	467.04658	46.37919	119.60949	310.00827	418.22638	399.51197	349.8781	0
251	-142.39225	398.6983	540.27688	-129.37353	-341.7414	469.48759	46.37919	124.49151	312.44928	425.54941	404.39399	354.76012	0
252	-139.95124	401.13931	540.27688	-131.81454	-339.30039	469.48759	46.37919	129.37353	317.3313	430.43143	409.27601	357.20113	0
253	-137.51023	403.58032	540.27688	-134.25555	-339.30039	471.9286	46.37919	134.25555	322.21332	437.75446	416.59904	359.64214	0
254	-137.51023	406.02133	542.71789	-134.25555	-339.30039	474.36961	46.37919	141.57858	331.97736	445.07749	421.48106	364.52416	0
255	-135.06922	408.46234	542.71789	-136.69656	-339.30039	474.36961	43.93818	148.90161	339.30039	454.84153	426.36308	369.40618	0
256	-130.1872	410.90335	540.27688	-141.57858	-334.41837	474.36961	43.93818	156.22464	346.62342	462.16456	431.2451	374.2882	0
257	-127.74619	410.90335	537.83587	-141.57858	-331.97736	474.36961	43.93818	161.10666	351.50544	467.04658	438.56813	376.72921	0
258	-125.30518	413.34436	537.83587	-144.01959	-331.97736	474.36961	46.37919	161.10666	356.38746	471.9286	443.45015	379.17022	0
259	-122.86417	415.78537	537.83587	-146.4606	-329.53635	476.81062	46.37919	163.54767	361.26948	474.36961	448.33217	384.05224	0
260	-120.42316	415.78537	535.39486	-148.90161	-327.09534	474.36961	46.37919	163.54767	363.71049	476.81062	455.6552	386.49325	0
261	-117.98215	420.66739	537.83587	-151.34262	-327.09534	479.25163	48.8202	165.98868	363.71049	481.69264	458.09621	386.49325	0
262	-115.54114	423.1084	537.83587	-153.78363	-327.09534	479.25163	48.8202	170.8707	368.59251	484.13365	460.53722	388.93426	0
263	-115.54114	423.1084	537.83587	-153.78363	-327.09534	479.25163	46.37919	175.75272	373.47453	489.01567	462.97823	388.93426	0
264	-113.10013	423.1084	535.39486	-156.22464	-324.65433	479.25163	46.37919	180.63474	378.35655	493.89769	462.97823	388.93426	0
265	-113.10013	423.1084	535.39486	-156.22464	-324.65433	479.25163	43.93818	185.51676	380.79756	498.77971	462.97823	388.93426	0
266	-108.21811	420.66739	528.07183	-156.22464	-317.3313	474.36961	43.93818	190.39878	385.67958	503.66173	462.97823	388.93426	0
267	-100.89508	418.22638	518.30779	-158.66565	-310.00827	467.04658	43.93818	195.2808	385.67958	503.66173	462.97823	386.49325	0
268	-96.01306	418.22638	513.42577	-161.10666	-305.12625	464.60557	46.37919	192.83979	385.67958	501.22072	462.97823	384.05224	0
269	-88.69003	413.34436	501.22072	-163.54767	-295.36221	457.28254	48.8202	190.39878	385.67958	496.3387	460.53722	384.05224	0
270	-86.24902	413.34436	498.77971	-163.54767	-292.9212	454.84153	51.26121	187.95777	383.23857	491.45668	455.6552	381.61123	0
271	-76.48498	410.90335	486.57466	-168.42969	-280.71615	447.5185	53.70222	185.51676	380.79756	489.01567	453.21419	376.72921	0
272	-71.60296	410.90335	481.69264	-170.8707	-275.83413	445.07749	56.14323	185.51676	378.35655	484.13365	448.33217	374.2882	0
273	-66.72094	406.02133	471.9286	-170.8707	-268.5111	437.75446	56.14323	185.51676	373.47453	479.25163	443.45015	369.40618	0
274	-61.83892	401.13931	462.16456	-170.8707	-261.18807	430.43143	61.02525	183.07575	371.03352	471.9286	436.12712	362.08315	0
275	-56.9569	393.81628	449.95951	-168.42969	-253.86504	420.66739	65.90727	183.07575	363.71049	464.60557	428.80409	354.76012	0
276	-52.07488	386.49325	437.75446	-168.42969	-244.101	410.90335	68.34828	183.07575	358.82847	459.72355	421.48106	349.8781	0
277	-47.19286	379.17022	425.54941	-165.98868	-236.77797	401.13931	70.78929	180.63474	351.50544	447.5185	414.15803	340.11406	0
278	-42.31084	369.40618	410.90335	-163.54767	-227.01393	388.93426	73.2303	173.31171	339.30039	432.87244	406.835	330.35002	0
279	-39.86983	359.64214	398.6983	-161.10666	-219.6909	379.17022	78.11232	165.98868	329.53635	418.22638	397.07096	320.58598	0
280	-34.98781	349.8781	384.05224	-158.66565	-209.92686	366.96517	75.67131	158.66565	319.77231	403.58032	387.30692	313.26295	0
281	-30.10579	342.55507	371.84719	-156.22464	-200.16282	357.20113	70.78929	153.78363	307.56726	391.37527	377.54288	301.0579	0
282	-27.66478	332.79103	359.64214	-153.78363	-192.83979	344.99608	65.90727	148.90161	297.80322	379.17022	365.33783	288.85285	0
283	-22.78276	323.02699	344.99608	-151.34262	-183.07575	332.79103	63.46626	146.4606	288.03918	364.52416	353.13278	279.08881	0
284	-22.78276	310.82194	332.79103	-144.01959	-178.19373	320.58598	61.02525	141.57858	278.27514	349.8781	338.48672	266.88376	0
285	-17.90074	298.61689	315.70396	-141.57858	-165.98868	305.93992	56.14323	139.13757	268.5111	337.67305	323.84066	257.11972	0
286	-10.57771	288.85285	298.61689	-139.13757	-153.78363	293.73487	53.70222	136.69656	258.74706	323.02699	309.1946	247.35568	0
287	-5.69569	276.6478	281.52982	-136.69656	-144.01959	279.08881	53.70222	134.25555	244.101	305.93992	294.54854	235.15063	0
288	-0.81367	264.44275	264.44275	-131.81454	-131.81454	264.44275	51.26121	124.49151	229.45494	283.97083	279.90248	220.50457	0
289	4.88202	254.67871	249.79669	-129.37353	-122.0505	252.2377	48.8202	117.16848	214.80888	264.44275	267.69743	208.29952	0
290	12.20505	242.47366	230.26861	-126.93252	-109.84545	237.59164	48.8202	109.84545	200.16282	242.47366	250.61036	196.09447	0
291	19.52808	232.70962	213.18154	-126.93252	-97.6404	222.94558	43.93818	104.96343	183.07575	222.94558	235.9643	181.44841	0
292	19.52808	218.06356	198.53548	-119.60949	-90.31737	208.29952	39.05616	100.08141	165.98868	203.4175	216.43622	161.92033	0
293	19.52808	200.97649	181.44841	-109.84545	-80.55333	191.21245	36.61515	95.19939	151.34262	186.33043	199.34915	147.27427	0
294	21.96909	183.88942	161.92033	-102.52242	-70.78929	174.12538	31.73313	87.87636	139.13757	169.24336	182.26208	130.1872	0
295	24.4101	166.80235	142.39225	-95.19939	-58.58424	154.5973	26.85111	85.43535	126.93252	152.15629	162.734	117.98215	0
296	26.85111	147.27427	120.42316	-87.87636	-46.37919	135.06922	21.96909	80.55333	112.28646	137.51023	145.64693	103.33609	0
297	29.29212	130.1872	100.89508	-80.55333	-36.61515	115.54114	17.08707	75.67131	97.6404	117.98215	128.55986	88.69003	0
298	34.17414	115.54114	81.367	-75.67131	-24.4101	98.45407	17.08707	63.46626	82.99434	96.01306	111.47279	76.48498	0
299	36.61515	98.45407	61.83892	-68.34828	-12.20505	81.367	12.20505	53.70222	65.90727	76.48498	94.38572	64.27993	0
300	41.49717	86.24902	44.75185	-63.46626	-2.44101	66.72094	12.20505	46.37919	51.26121	54.51589	77.29865	52.07488	0
301	43.93818	74.04397	30.10579	-58.58424	8.1367	52.07488	9.76404	39.05616	34.17414	34.98781	60.21158	39.86983	0
302	46.37919	59.39791	13.01872	-53.70222	17.90074	37.42882	7.32303	34.17414	19.52808	15.45973	43.12451	27.66478	0
303	51.26121	47.19286	-4.88202	-48.8202	27.66478	22.78276	4.88202	31.73313	7.32303	0.81367	26.03744	15.45973	0
304	51.26121	32.5468	-19.52808	-41.49717	34.98781	8.1367	-0.81367	26.85111	2.44101	-13.83239	11.39138	2.44101	0
305	51.26121	20.34175	-31.73313	-36.61515	42.31084	-4.88202	-0.81367	26.85111	-7.32303	-24.4101	-0.81367	-7.32303	0
306	53.70222	8.1367	-46.37919	-31.73313	49.63387	-19.52808	-3.25468	24.4101	-13.01872	-34.17414	-13.01872	-19.52808	0
307	53.70222	-2.44101	-56.14323	-26.85111	54.51589	-29.29212	-5.69569	19.52808	-22.78276	-48.8202	-23.59643	-31.73313	0
308	53.70222	-14.64606	-68.34828	-19.52808	59.39791	-41.49717	-8.1367	12.20505	-30.10579	-63.46626	-35.80148	-43.93818	1500	QRS+0
309	53.70222	-21.96909	-75.67131	-17.08707	64.27993	-48.8202	-8.1367	4.06835	-39.86983	-78.11232	-45.56552	-53.70222	0
310	53.70222	-31.73313	-85.43535	-12.20505	69.16195	-58.58424	-8.1367	-3.25468	-52.07488	-90.31737	-55.32956	-65.90727	0
311	53.70222	-39.05616	-92.75838	-7.32303	71.60296	-65.90727	-8.1367	-8.1367	-61.83892	-102.52242	-67.53461	-75.67131	0
312	51.26121	-46.37919	-97.6404	-2.44101	74.04397	-70.78929	-8.1367	-10.57771	-69.16195	-112.28646	-79.73966	-85.43535	0
313	48.8202	-53.70222	-102.52242	0	74.04397	-78.11232	-8.1367	-13.01872	-76.48498	-119.60949	-89.5037	-95.19939	0
314	46.37919	-58.58424	-104.96343	5.69569	74.04397	-80.55333	-8.1367	-15.45973	-76.48498	-122.0505	-96.82673	-102.52242	0
315	46.37919	-68.34828	-114.72747	10.57771	78.92599	-90.31737	-8.1367	-13.01872	-81.367	-126.93252	-106.59077	-107.40444	0
316	43.93818	-75.67131	-119.60949	15.45973	81.367	-97.6404	-8.1367	-10.57771	-83.80801	-129.37353	-113.9138	-112.28646	0
317	43.93818	-80.55333	-124.49151	17.90074	83.80801	-102.52242	-8.1367	-10.57771	-88.69003	-134.25555	-118.79582	-117.16848	0
318	43.93818	-82.99434	-126.93252	17.90074	83.80801	-104.96343	-5.69569	-17.90074	-96.01306	-141.57858	-126.11885	-122.0505	0
319	43.93818	-87.87636	-131.81454	20.34175	86.24902	-109.84545	-3.25468	-22.78276	-100.89508	-146.4606	-131.00087	-126.93252	0
320	41.49717	-92.75838	-134.25555	25.22377	86.24902	-112.28646	-3.25468	-30.10579	-108.21811	-153.78363	-135.88289	-131.81454	0
321	41.49717	-95.19939	-136.69656	25.22377	88.69003	-114.72747	-0.81367	-32.5468	-117.98215	-161.10666	-140.76491	-136.69656	0
322	39.05616	-97.6404	-136.69656	27.66478	86.24902	-117.16848	2.44101	-37.42882	-125.30518	-168.42969	-148.08794	-141.57858	0
323	36.61515	-100.08141	-136.69656	30.10579	86.24902	-117.16848	7.32303	-39.86983	-130.1872	-173.31171	-152.96996	-146.4606	0
324	31.73313	-102.52242	-134.25555	34.98781	81.367	-117.16848	7.32303	-42.31084	-130.1872	-178.19373	-157.85198	-151.34262	0
325	31.73313	-102.52242	-134.25555	34.98781	81.367	-117.16848	9.76404	-42.31084	-132.62821	-178.19373	-160.29299	-151.34262	0
326	31.73313	-102.52242	-134.25555	34.98781	81.367	-117.16848	14.64606	-39.86983	-132.62821	-178.19373	-162.734	-151.34262	0
327	34.17414	-100.08141	-134.25555	32.5468	83.80801	-117.16848	14.64606	-39.86983	-132.62821	-178.19373	-162.734	-151.34262	0
328	34.17414	-100.08141	-134.25555	32.5468	83.80801	-117.16848	14.64606	-44.75185	-132.62821	-183.07575	-162.734	-151.34262	0
329	31.73313	-100.08141	-131.81454	32.5468	81.367	-114.72747	12.20505	-47.19286	-135.06922	-185.51676	-165.17501	-151.34262	0
330	31.73313	-100.08141	-131.81454	32.5468	81.367	-114.72747	12.20505	-52.07488	-139.95124	-190.39878	-165.17501	-148.90161	0
331	31.73313	-102.52242	-134.25555	34.98781	81.367	-117.16848	9.76404	-54.51589	-144.83326	-192.83979	-167.61602	-151.34262	0
332	26.85111	-107.40444	-134.25555	39.86983	78.92599	-119.60949	7.32303	-54.51589	-147.27427	-197.72181	-170.05703	-153.78363	0
333	24.4101	-112.28646	-136.69656	42.31084	78.92599	-124.49151	4.88202	-54.51589	-149.71528	-197.72181	-174.93905	-156.22464	0
334	21.96909	-112.28646	-134.25555	44.75185	76.48498	-122.0505	4.88202	-56.9569	-149.71528	-197.72181	-174.93905	-156.22464	0
335	21.96909	-112.28646	-134.25555	44.75185	76.48498	-122.0505	4.88202	-56.9569	-149.71528	-197.72181	-177.38006	-156.22464	0
336	19.52808	-114.72747	-134.25555	47.19286	76.48498	-124.49151	4.88202	-52.07488	-149.71528	-192.83979	-177.38006	-153.78363	0
337	19.52808	-114.72747	-134.25555	47.19286	76.48498	-124.49151	4.88202	-52.07488	-149.71528	-190.39878	-174.93905	-153.78363	0
338	19.52808	-114.72747	-134.25555	47.19286	76.48498	-124.49151	7.32303	-54.51589	-149.71528	-190.39878	-174.93905	-153.78363	0
339	21.96909	-114.72747	-136.69656	44.75185	78.92599	-124.49151	9.76404	-59.39791	-152.15629	-195.2808	-174.93905	-153.78363	0
340	21.96909	-117.16848	-139.13757	47.19286	78.92599	-126.93252	9.76404	-64.27993	-157.03831	-200.16282	-174.93905	-153.78363	0
341	19.52808	-117.16848	-136.69656	47.19286	76.48498	-126.93252	9.76404	-66.72094	-164.36134	-202.60383	-179.82107	-153.78363	0
342	19.52808	-119.60949	-139.13757	49.63387	78.92599	-129.37353	7.32303	-69.16195	-166.80235	-207.48585	-182.26208	-158.66565	0
343	17.08707	-122.0505	-139.13757	52.07488	76.48498	-129.37353	7.32303	-69.16195	-166.80235	-209.92686	-182.26208	-158.66565	0
344	14.64606	-122.0505	-136.69656	52.07488	74.04397	-129.37353	4.88202	-71.60296	-164.36134	-207.48585	-184.70309	-161.10666	0
345	12.20505	-122.0505	-134.25555	54.51589	71.60296	-126.93252	4.88202	-69.16195	-161.92033	-205.04484	-184.70309	-161.10666	0
346	12.20505	-122.0505	-134.25555	54.51589	71.60296	-126.93252	4.88202	-66.72094	-159.47932	-200.16282	-184.70309	-158.66565	0
347	12.20505	-119.60949	-131.81454	52.07488	71.60296	-124.49151	4.88202	-66.72094	-159.47932	-200.16282	-184.70309	-158.66565	0
348	9.76404	-119.60949	-129.37353	54.51589	69.16195	-124.49151	2.44101	-69.16195	-161.92033	-205.04484	-184.70309	-161.10666	0
349	7.32303	-119.60949	-126.93252	54.51589	66.72094	-122.0505	4.88202	-71.60296	-164.36134	-209.92686	-187.1441	-161.10666	0
350	4.88202	-119.60949	-124.49151	56.9569	64.27993	-122.0505	4.88202	-76.48498	-169.24336	-214.80888	-189.58511	-163.54767	0
351	-0.81367	-124.49151	-124.49151	61.83892	61.83892	-124.49151	4.88202	-76.48498	-174.12538	-217.24989	-192.02612	-165.98868	0
352	-0.81367	-126.93252	-126.93252	61.83892	61.83892	-126.93252	4.88202	-76.48498	-176.56639	-217.24989	-192.02612	-170.8707	0
353	-3.25468	-129.37353	-126.93252	64.27993	61.83892	-129.37353	4.88202	-76.48498	-174.12538	-217.24989	-194.46713	-173.31171	0
354	-3.25468	-131.81454	-129.37353	66.72094	61.83892	-131.81454	7.32303	-74.04397	-169.24336	-212.36787	-194.46713	-173.31171	0
355	-3.25468	-131.81454	-129.37353	66.72094	61.83892	-131.81454	9.76404	-69.16195	-164.36134	-207.48585	-192.02612	-173.31171	0
356	-0.81367	-131.81454	-131.81454	64.27993	64.27993	-131.81454	9.76404	-64.27993	-161.92033	-200.16282	-189.58511	-173.31171	0
357	-0.81367	-131.81454	-131.81454	64.27993	64.27993	-131.81454	12.20505	-66.72094	-161.92033	-200.16282	-189.58511	-175.75272	0
358	4.88202	-131.81454	-136.69656	61.83892	69.16195	-134.25555	14.64606	-71.60296	-159.47932	-200.16282	-189.58511	-175.75272	0
359	7.32303	-131.81454	-139.13757	61.83892	71.60296	-134.25555	17.08707	-76.48498	-161.92033	-205.04484	-189.58511	-175.75272	0
360	9.76404	-131.81454	-141.57858	59.39791	74.04397	-136.69656	17.08707	-78.92599	-164.36134	-209.92686	-192.02612	-175.75272	0
361	9.76404	-129.37353	-139.13757	59.39791	74.04397	-134.25555	17.08707	-78.92599	-166.80235	-212.36787	-194.46713	-178.19373	0
362	9.76404	-131.81454	-141.57858	59.39791	74.04397	-136.69656	19.52808	-76.48498	-166.80235	-212.36787	-196.90814	-180.63474	0
363	7.32303	-134.25555	-141.57858	61.83892	74.04397	-136.69656	21.96909	-74.04397	-164.36134	-212.36787	-199.34915	-180.63474	0
364	4.88202	-134.25555	-139.13757	64.27993	71.60296	-136.69656	21.96909	-71.60296	-159.47932	-207.48585	-199.34915	-183.07575	0
365	4.88202	-134.25555	-139.13757	64.27993	71.60296	-136.69656	24.4101	-64.27993	-154.5973	-202.60383	-196.90814	-180.63474	0
366	4.88202	-136.69656	-141.57858	64.27993	71.60296	-139.13757	24.4101	-59.39791	-149.71528	-195.2808	-192.02612	-178.19373	0
367	2.44101	-141.57858	-144.01959	69.16195	71.60296	-141.57858	24.4101	-61.83892	-149.71528	-195.2808	-192.02612	-180.63474	0
368	2.44101	-146.4606	-148.90161	71.60296	74.04397	-146.4606	26.85111	-66.72094	-154.5973	-197.72181	-189.58511	-180.63474	0
369	4.88202	-146.4606	-151.34262	69.16195	76.48498	-148.90161	29.29212	-74.04397	-159.47932	-202.60383	-189.58511	-180.63474	0
370	7.32303	-146.4606	-153.78363	69.16195	78.92599	-148.90161	31.73313	-76.48498	-164.36134	-207.48585	-194.46713	-178.19373	0
371	7.32303	-151.34262	-158.66565	71.60296	81.367	-153.78363	31.73313	-76.48498	-169.24336	-212.36787	-199.34915	-180.63474	0
372	4.88202	-153.78363	-158.66565	74.04397	81.367	-156.22464	34.17414	-74.04397	-171.68437	-214.80888	-201.79016	-183.07575	0
373	2.44101	-153.78363	-156.22464	74.04397	78.92599	-153.78363	34.17414	-71.60296	-169.24336	-212.36787	-204.23117	-183.07575	0
374	2.44101	-153.78363	-156.22464	74.04397	78.92599	-153.78363	34.17414	-64.27993	-161.92033	-205.04484	-204.23117	-183.07575	0
375	2.44101	-153.78363	-156.22464	74.04397	78.92599	-153.78363	31.73313	-54.51589	-152.15629	-192.83979	-201.79016	-183.07575	0
376	2.44101	-156.22464	-158.66565	76.48498	78.92599	-156.22464	29.29212	-47.19286	-144.83326	-183.07575	-199.34915	-180.63474	0
377	4.88202	-156.22464	-161.10666	74.04397	81.367	-158.66565	29.29212	-44.75185	-137.51023	-178.19373	-192.02612	-180.63474	0
378	9.76404	-156.22464	-165.98868	71.60296	86.24902	-161.10666	24.4101	-44.75185	-135.06922	-175.75272	-189.58511	-178.19373	0
379	12.20505	-156.22464	-168.42969	71.60296	88.69003	-161.10666	24.4101	-47.19286	-135.06922	-175.75272	-187.1441	-178.19373	0
380	17.08707	-156.22464	-173.31171	69.16195	93.57205	-163.54767	24.4101	-47.19286	-137.51023	-175.75272	-187.1441	-178.19373	0
381	19.52808	-156.22464	-175.75272	66.72094	96.01306	-165.98868	21.96909	-44.75185	-144.83326	-180.63474	-187.1441	-175.75272	0
382	19.52808	-158.66565	-178.19373	69.16195	98.45407	-168.42969	19.52808	-42.31084	-147.27427	-183.07575	-189.58511	-178.19373	0
383	17.08707	-158.66565	-175.75272	69.16195	96.01306	-165.98868	19.52808	-39.86983	-144.83326	-185.51676	-189.58511	-178.19373	0
384	14.64606	-158.66565	-173.31171	71.60296	93.57205	-165.98868	17.08707	-34.98781	-139.95124	-180.63474	-192.02612	-178.19373	0
385	14.64606	-161.10666	-175.75272	71.60296	93.57205	-168.42969	17.08707	-27.66478	-137.51023	-175.75272	-192.02612	-175.75272	0
386	14.64606	-161.10666	-175.75272	71.60296	93.57205	-168.42969	17.08707	-22.78276	-135.06922	-173.31171	-189.58511	-173.31171	0
387	17.08707	-161.10666	-178.19373	71.60296	96.01306	-168.42969	17.08707	-25.22377	-130.1872	-173.31171	-184.70309	-170.8707	0
388	21.96909	-163.54767	-185.51676	69.16195	103.33609	-173.31171	17.08707	-27.66478	-127.74619	-173.31171	-182.26208	-170.8707	0
389	24.4101	-163.54767	-187.95777	69.16195	105.7771	-175.75272	17.08707	-27.66478	-130.1872	-175.75272	-179.82107	-170.8707	0
390	26.85111	-163.54767	-190.39878	66.72094	108.21811	-175.75272	14.64606	-30.10579	-132.62821	-175.75272	-179.82107	-170.8707	0
391	26.85111	-163.54767	-190.39878	66.72094	108.21811	-175.75272	14.64606	-30.10579	-135.06922	-178.19373	-182.26208	-168.42969	0
392	26.85111	-163.54767	-190.39878	66.72094	108.21811	-175.75272	12.20505	-30.10579	-135.06922	-178.19373	-182.26208	-168.42969	0
393	24.4101	-163.54767	-187.95777	69.16195	105.7771	-175.75272	9.76404	-30.10579	-130.1872	-175.75272	-182.26208	-168.42969	0
394	21.96909	-161.10666	-183.07575	69.16195	100.89508	-170.8707	7.32303	-27.66478	-127.74619	-170.8707	-182.26208	-168.42969	0
395	19.52808	-161.10666	-180.63474	69.16195	98.45407	-170.8707	7.32303	-22.78276	-122.86417	-165.98868	-182.26208	-168.42969	0
396	19.52808	-158.66565	-178.19373	69.16195	98.45407	-168.42969	7.32303	-17.90074	-120.42316	-163.54767	-179.82107	-165.98868	0
397	24.4101	-156.22464	-180.63474	64.27993	100.89508	-168.42969	4.88202	-17.90074	-117.98215	-161.10666	-179.82107	-165.98868	0
398	26.85111	-153.78363	-180.63474	61.83892	103.33609	-165.98868	7.32303	-20.34175	-117.98215	-161.10666	-177.38006	-163.54767	0
399	31.73313	-153.78363	-185.51676	59.39791	108.21811	-168.42969	7.32303	-20.34175	-120.42316	-161.10666	-174.93905	-161.10666	0
400	34.17414	-153.78363	-187.95777	59.39791	110.65912	-170.8707	7.32303	-20.34175	-125.30518	-163.54767	-177.38006	-158.66565	0
401	34.17414	-151.34262	-185.51676	56.9569	108.21811	-168.42969	7.32303	-22.78276	-127.74619	-165.98868	-179.82107	-158.66565	0
402	34.17414	-148.90161	-183.07575	56.9569	108.21811	-165.98868	4.88202	-22.78276	-132.62821	-168.42969	-182.26208	-158.66565	0
403	31.73313	-148.90161	-180.63474	56.9569	105.7771	-163.54767	4.88202	-25.22377	-132.62821	-168.42969	-184.70309	-161.10666	0
404	29.29212	-148.90161	-178.19373	59.39791	103.33609	-163.54767	2.44101	-22.78276	-132.62821	-168.42969	-184.70309	-161.10666	0
405	26.85111	-148.90161	-175.75272	59.39791	100.89508	-161.10666	-0.81367	-22.78276	-132.62821	-165.98868	-184.70309	-163.54767	0
406	26.85111	-148.90161	-175.75272	59.39791	100.89508	-161.10666	-0.81367	-22.78276	-132.62821	-165.98868	-184.70309	-163.54767	0
407	29.29212	-148.90161	-178.19373	59.39791	103.33609	-163.54767	4.88202	-25.22377	-132.62821	-165.98868	-179.82107	-161.10666	0
408	31.73313	-148.90161	-180.63474	56.9569	105.7771	-163.54767	7.32303	-30.10579	-132.62821	-168.42969	-179.82107	-158.66565	-1500	QRS-0
409	34.17414	-146.4606	-180.63474	54.51589	105.7771	-163.54767	12.20505	-32.5468	-135.06922	-168.42969	-177.38006	-158.66565	0
410	34.17414	-148.90161	-183.07575	56.9569	108.21811	-165.98868	17.08707	-32.5468	-137.51023	-168.42969	-177.38006	-158.66565	0
411	34.17414	-148.90161	-183.07575	56.9569	108.21811	-165.98868	19.52808	-32.5468	-137.51023	-168.42969	-177.38006	-156.22464	0
412	31.73313	-148.90161	-180.63474	56.9569	105.7771	-163.54767	21.96909	-32.5468	-137.51023	-168.42969	-177.38006	-156.22464	0
413	26.85111	-151.34262	-178.19373	61.83892	100.89508	-163.54767	21.96909	-32.5468	-132.62821	-165.98868	-179.82107	-156.22464	0
414	24.4101	-151.34262	-175.75272	61.83892	98.45407	-163.54767	19.52808	-30.10579	-127.74619	-161.10666	-179.82107	-156.22464	0
415	24.4101	-151.34262	-175.75272	61.83892	98.45407	-163.54767	17.08707	-27.66478	-125.30518	-156.22464	-177.38006	-156.22464	0
416	24.4101	-148.90161	-173.31171	61.83892	98.45407	-161.10666	12.20505	-27.66478	-122.86417	-151.34262	-174.93905	-156.22464	0
417	26.85111	-148.90161	-175.75272	59.39791	100.89508	-161.10666	9.76404	-30.10579	-122.86417	-151.34262	-174.93905	-156.22464	0
418	26.85111	-146.4606	-173.31171	59.39791	98.45407	-158.66565	4.88202	-32.5468	-122.86417	-151.34262	-172.49804	-156.22464	0
419	29.29212	-146.4606	-175.75272	56.9569	100.89508	-161.10666	2.44101	-34.98781	-125.30518	-153.78363	-172.49804	-156.22464	0
420	31.73313	-151.34262	-183.07575	59.39791	105.7771	-165.98868	-0.81367	-37.42882	-130.1872	-156.22464	-174.93905	-156.22464	0
421	31.73313	-151.34262	-183.07575	59.39791	105.7771	-165.98868	-0.81367	-37.42882	-132.62821	-161.10666	-177.38006	-153.78363	0
422	29.29212	-153.78363	-183.07575	61.83892	105.7771	-168.42969	-0.81367	-37.42882	-132.62821	-161.10666	-177.38006	-153.78363	0
423	24.4101	-156.22464	-180.63474	64.27993	100.89508	-168.42969	-0.81367	-34.98781	-127.74619	-161.10666	-177.38006	-156.22464	0
424	19.52808	-158.66565	-178.19373	69.16195	98.45407	-168.42969	-0.81367	-32.5468	-125.30518	-156.22464	-177.38006	-156.22464	0
425	17.08707	-161.10666	-178.19373	71.60296	96.01306	-168.42969	-0.81367	-30.10579	-120.42316	-151.34262	-177.38006	-156.22464	0
426	17.08707	-161.10666	-178.19373	71.60296	96.01306	-168.42969	2.44101	-27.66478	-117.98215	-148.90161	-174.93905	-156.22464	0
427	21.96909	-158.66565	-180.63474	66.72094	100.89508	-168.42969	4.88202	-27.66478	-115.54114	-146.4606	-170.05703	-156.22464	0
428	24.4101	-158.66565	-183.07575	66.72094	103.33609	-170.8707	4.88202	-32.5468	-115.54114	-146.4606	-167.61602	-156.22464	0
429	29.29212	-158.66565	-187.95777	64.27993	108.21811	-173.31171	7.32303	-32.5468	-117.98215	-146.4606	-167.61602	-153.78363	0
430	34.17414	-158.66565	-192.83979	61.83892	113.10013	-175.75272	4.88202	-34.98781	-122.86417	-146.4606	-170.05703	-153.78363	0
431	34.17414	-161.10666	-195.2808	61.83892	113.10013	-178.19373	2.44101	-34.98781	-125.30518	-151.34262	-172.49804	-156.22464	0
432	34.17414	-161.10666	-195.2808	61.83892	113.10013	-178.19373	-0.81367	-34.98781	-127.74619	-153.78363	-174.93905	-158.66565	0
433	34.17414	-161.10666	-195.2808	61.83892	113.10013	-178.19373	-0.81367	-37.42882	-127.74619	-153.78363	-177.38006	-163.54767	0
434	34.17414	-161.10666	-195.2808	61.83892	113.10013	-178.19373	-3.25468	-34.98781	-125.30518	-151.34262	-177.38006	-163.54767	0
435	34.17414	-161.10666	-195.2808	61.83892	113.10013	-178.19373	-5.69569	-32.5468	-125.30518	-146.4606	-177.38006	-165.98868	0
436	31.73313	-158.66565	-190.39878	61.83892	110.65912	-173.31171	-5.69569	-30.10579	-120.42316	-144.01959	-174.93905	-165.98868	0
437	36.61515	-156.22464	-192.83979	59.39791	113.10013	-173.31171	-5.69569	-32.5468	-120.42316	-141.57858	-170.05703	-163.54767	0
438	39.05616	-153.78363	-192.83979	56.9569	115.54114	-173.31171	-5.69569	-32.5468	-120.42316	-141.57858	-167.61602	-163.54767	0
439	41.49717	-153.78363	-195.2808	54.51589	117.98215	-173.31171	-3.25468	-34.98781	-120.42316	-141.57858	-167.61602	-163.54767	0
440	41.49717	-153.78363	-195.2808	54.51589	117.98215	-173.31171	-3.25468	-37.42882	-125.30518	-144.01959	-167.61602	-163.54767	0
441	41.49717	-153.78363	-195.2808	54.51589	117.98215	-173.31171	-3.25468	-37.42882	-130.1872	-148.90161	-170.05703	-163.54767	0
442	41.49717	-153.78363	-195.2808	54.51589	117.98215	-173.31171	-0.81367	-37.42882	-130.1872	-151.34262	-172.49804	-163.54767	0
443	36.61515	-156.22464	-192.83979	59.39791	113.10013	-173.31171	-0.81367	-37.42882	-130.1872	-151.34262	-172.49804	-163.54767	0
444	34.17414	-158.66565	-192.83979	61.83892	113.10013	-175.75272	-0.81367	-32.5468	-130.1872	-151.34262	-174.93905	-165.98868	0
445	31.73313	-161.10666	-192.83979	64.27993	110.65912	-175.75272	-0.81367	-30.10579	-130.1872	-151.34262	-174.93905	-165.98868	0
446	29.29212	-165.98868	-195.2808	66.72094	110.65912	-180.63474	-0.81367	-27.66478	-127.74619	-151.34262	-174.93905	-165.98868	0
447	26.85111	-168.42969	-195.2808	69.16195	110.65912	-180.63474	-0.81367	-30.10579	-127.74619	-153.78363	-172.49804	-165.98868	0
448	31.73313	-168.42969	-200.16282	66.72094	115.54114	-183.07575	-0.81367	-32.5468	-127.74619	-153.78363	-170.05703	-165.98868	0
449	34.17414	-168.42969	-202.60383	66.72094	117.98215	-185.51676	-0.81367	-34.98781	-130.1872	-156.22464	-170.05703	-163.54767	0
450	39.05616	-168.42969	-207.48585	64.27993	122.86417	-187.95777	-0.81367	-37.42882	-132.62821	-156.22464	-170.05703	-161.10666	0
451	39.05616	-168.42969	-207.48585	64.27993	122.86417	-187.95777	2.44101	-37.42882	-132.62821	-158.66565	-170.05703	-161.10666	0
452	39.05616	-165.98868	-205.04484	61.83892	120.42316	-185.51676	7.32303	-37.42882	-132.62821	-158.66565	-172.49804	-161.10666	0
453	36.61515	-165.98868	-202.60383	64.27993	117.98215	-183.07575	12.20505	-34.98781	-127.74619	-158.66565	-172.49804	-161.10666	0
454	34.17414	-165.98868	-200.16282	64.27993	115.54114	-183.07575	17.08707	-34.98781	-127.74619	-156.22464	-172.49804	-161.10666	0
455	29.29212	-168.42969	-197.72181	69.16195	113.10013	-183.07575	19.52808	-32.5468	-127.74619	-153.78363	-174.93905	-163.54767	0
456	26.85111	-170.8707	-197.72181	71.60296	110.65912	-183.07575	24.4101	-32.5468	-125.30518	-153.78363	-174.93905	-163.54767	0
457	26.85111	-173.31171	-200.16282	71.60296	113.10013	-185.51676	24.4101	-34.98781	-125.30518	-156.22464	-172.49804	-163.54767	0
458	26.85111	-173.31171	-200.16282	71.60296	113.10013	-185.51676	19.52808	-39.86983	-125.30518	-158.66565	-172.49804	-163.54767	0
459	31.73313	-175.75272	-207.48585	71.60296	117.98215	-190.39878	14.64606	-42.31084	-130.1872	-161.10666	-170.05703	-163.54767	0
460	31.73313	-178.19373	-209.92686	71.60296	120.42316	-192.83979	9.76404	-44.75185	-130.1872	-161.10666	-172.49804	-163.54767	0
461	31.73313	-178.19373	-209.92686	71.60296	120.42316	-192.83979	4.88202	-44.75185	-135.06922	-165.98868	-172.49804	-165.98868	0
462	29.29212	-178.19373	-207.48585	74.04397	117.98215	-192.83979	-0.81367	-47.19286	-135.06922	-165.98868	-174.93905	-165.98868	0
463	26.85111	-180.63474	-207.48585	76.48498	115.54114	-192.83979	-3.25468	-47.19286	-132.62821	-163.54767	-174.93905	-168.42969	0
464	26.85111	-178.19373	-205.04484	74.04397	115.54114	-190.39878	-3.25468	-44.75185	-130.1872	-161.10666	-174.93905	-168.42969	0
465	24.4101	-178.19373	-202.60383	76.48498	113.10013	-190.39878	-3.25468	-42.31084	-130.1872	-161.10666	-177.38006	-170.8707	0
466	24.4101	-178.19373	-202.60383	76.48498	113.10013	-190.39878	-3.25468	-42.31084	-130.1872	-161.10666	-177.38006	-173.31171	0
467	26.85111	-178.19373	-205.04484	74.04397	115.54114	-190.39878	-3.25468	-44.75185	-130.1872	-163.54767	-177.38006	-173.31171	0
468	26.85111	-178.19373	-205.04484	74.04397	115.54114	-190.39878	-0.81367	-49.63387	-130.1872	-165.98868	-177.38006	-173.31171	0
469	29.29212	-178.19373	-207.48585	74.04397	117.98215	-192.83979	-0.81367	-52.07488	-132.62821	-165.98868	-177.38006	-173.31171	0
470	29.29212	-178.19373	-207.48585	74.04397	117.98215	-192.83979	-0.81367	-54.51589	-137.51023	-168.42969	-179.82107	-173.31171	0
471	29.29212	-180.63474	-209.92686	74.04397	117.98215	-195.2808	-0.81367	-56.9569	-137.51023	-170.8707	-182.26208	-173.31171	0
472	29.29212	-180.63474	-209.92686	74.04397	117.98215	-195.2808	-3.25468	-56.9569	-137.51023	-170.8707	-184.70309	-173.31171	0
473	24.4101	-180.63474	-205.04484	76.48498	113.10013	-192.83979	-3.25468	-56.9569	-137.51023	-168.42969	-187.1441	-173.31171	0
474	24.4101	-178.19373	-202.60383	76.48498	113.10013	-190.39878	-5.69569	-54.51589	-137.51023	-168.42969	-187.1441	-173.31171	0
475	24.4101	-175.75272	-200.16282	74.04397	110.65912	-187.95777	-5.69569	-52.07488	-137.51023	-163.54767	-187.1441	-173.31171	0
476	24.4101	-175.75272	-200.16282	74.04397	110.65912	-187.95777	-5.69569	-52.07488	-137.51023	-165.98868	-187.1441	-173.31171	0
477	26.85111	-173.31171	-200.16282	71.60296	113.10013	-185.51676	-8.1367	-54.51589	-137.51023	-168.42969	-184.70309	-173.31171	0
478	31.73313	-173.31171	-205.04484	69.16195	117.98215	-187.95777	-8.1367	-59.39791	-137.51023	-170.8707	-184.70309	-173.31171	0
479	36.61515	-170.8707	-207.48585	66.72094	120.42316	-187.95777	-8.1367	-61.83892	-142.39225	-170.8707	-184.70309	-170.8707	0
480	36.61515	-170.8707	-207.48585	66.72094	120.42316	-187.95777	-8.1367	-61.83892	-144.83326	-173.31171	-184.70309	-170.8707	0
481	36.61515	-173.31171	-209.92686	66.72094	122.86417	-190.39878	-10.57771	-61.83892	-144.83326	-175.75272	-187.1441	-170.8707	0
482	34.17414	-175.75272	-209.92686	69.16195	120.42316	-192.83979	-10.57771	-61.83892	-144.83326	-178.19373	-189.58511	-170.8707	0
483	34.17414	-173.31171	-207.48585	69.16195	120.42316	-190.39878	-8.1367	-59.39791	-139.95124	-173.31171	-187.1441	-170.8707	0
484	31.73313	-173.31171	-205.04484	69.16195	117.98215	-187.95777	-8.1367	-52.07488	-135.06922	-170.8707	-187.1441	-170.8707	0
485	31.73313	-173.31171	-205.04484	69.16195	117.98215	-187.95777	-8.1367	-49.63387	-132.62821	-168.42969	-187.1441	-170.8707	0
486	31.73313	-168.42969	-200.16282	66.72094	115.54114	-183.07575	-5.69569	-44.75185	-130.1872	-168.42969	-182.26208	-170.8707	0
487	34.17414	-163.54767	-197.72181	64.27993	115.54114	-180.63474	-0.81367	-42.31084	-127.74619	-165.98868	-177.38006	-168.42969	0
488	39.05616	-156.22464	-195.2808	56.9569	115.54114	-175.75272	2.44101	-42.31084	-125.30518	-163.54767	-172.49804	-163.54767	0
489	41.49717	-151.34262	-192.83979	54.51589	115.54114	-170.8707	4.88202	-39.86983	-125.30518	-161.10666	-167.61602	-161.10666	0
490	41.49717	-144.01959	-185.51676	49.63387	113.10013	-163.54767	7.32303	-34.98781	-127.74619	-158.66565	-167.61602	-156.22464	0
491	43.93818	-136.69656	-180.63474	44.75185	110.65912	-158.66565	12.20505	-32.5468	-122.86417	-156.22464	-162.734	-151.34262	0
492	43.93818	-129.37353	-173.31171	42.31084	108.21811	-151.34262	14.64606	-25.22377	-117.98215	-148.90161	-157.85198	-146.4606	0
493	43.93818	-122.0505	-165.98868	37.42882	103.33609	-144.01959	14.64606	-20.34175	-110.65912	-144.01959	-155.41097	-144.01959	0
494	43.93818	-117.16848	-161.10666	34.98781	100.89508	-139.13757	14.64606	-13.01872	-105.7771	-139.13757	-152.96996	-141.57858	0
495	43.93818	-109.84545	-153.78363	32.5468	98.45407	-131.81454	14.64606	-8.1367	-103.33609	-134.25555	-150.52895	-139.13757	0
496	48.8202	-104.96343	-153.78363	27.66478	100.89508	-129.37353	14.64606	-5.69569	-100.89508	-131.81454	-145.64693	-136.69656	0
497	48.8202	-100.08141	-148.90161	25.22377	98.45407	-124.49151	14.64606	-5.69569	-98.45407	-129.37353	-143.20592	-134.25555	0
498	51.26121	-97.6404	-148.90161	22.78276	98.45407	-122.0505	14.64606	-8.1367	-98.45407	-129.37353	-140.76491	-131.81454	0
499	53.70222	-95.19939	-148.90161	20.34175	100.89508	-122.0505	21.96909	-10.57771	-98.45407	-126.93252	-138.3239	-126.93252	0
500	56.14323	-90.31737	-146.4606	15.45973	100.89508	-117.16848	29.29212	-10.57771	-100.89508	-124.49151	-138.3239	-124.49151	0
501	56.14323	-90.31737	-146.4606	15.45973	100.89508	-117.16848	31.73313	-8.1367	-98.45407	-124.49151	-138.3239	-122.0505	0
502	53.70222	-87.87636	-141.57858	15.45973	96.01306	-114.72747	39.05616	-5.69569	-96.01306	-122.0505	-133.44188	-122.0505	0
503	53.70222	-85.43535	-139.13757	15.45973	96.01306	-112.28646	43.93818	-3.25468	-93.57205	-117.16848	-133.44188	-119.60949	0
504	53.70222	-82.99434	-136.69656	13.01872	93.57205	-109.84545	51.26121	1.62734	-88.69003	-112.28646	-128.55986	-117.16848	0
505	53.70222	-75.67131	-129.37353	10.57771	91.13104	-102.52242	56.14323	8.95037	-83.80801	-107.40444	-123.67784	-114.72747	0
506	53.70222	-70.78929	-124.49151	8.1367	88.69003	-97.6404	56.14323	8.95037	-78.92599	-102.52242	-118.79582	-112.28646	0
507	58.58424	-65.90727	-124.49151	3.25468	91.13104	-95.19939	51.26121	12.20505	-78.92599	-100.08141	-111.47279	-107.40444	0
508	63.46626	-58.58424	-122.0505	-2.44101	91.13104	-90.31737	43.93818	8.95037	-76.48498	-100.08141	-106.59077	-102.52242	0
509	68.34828	-56.14323	-124.49151	-7.32303	96.01306	-90.31737	36.61515	4.06835	-76.48498	-102.52242	-104.14976	-100.08141	0
510	73.2303	-53.70222	-126.93252	-9.76404	98.45407	-90.31737	26.85111	-3.25468	-81.367	-102.52242	-104.14976	-95.19939	0
511	73.2303	-51.26121	-124.49151	-12.20505	98.45407	-87.87636	17.08707	-8.1367	-81.367	-102.52242	-104.14976	-95.19939	0
512	73.2303	-56.14323	-129.37353	-9.76404	100.89508	-92.75838	7.32303	-13.01872	-83.80801	-104.96343	-104.14976	-97.6404	0
513	68.34828	-61.02525	-129.37353	-4.88202	98.45407	-95.19939	-0.81367	-17.90074	-83.80801	-107.40444	-109.03178	-102.52242	0
514	65.90727	-65.90727	-131.81454	0	98.45407	-97.6404	-8.1367	-22.78276	-83.80801	-107.40444	-113.9138	-104.96343	0
515	61.02525	-70.78929	-131.81454	3.25468	96.01306	-100.08141	-15.45973	-22.78276	-88.69003	-107.40444	-116.35481	-109.84545	0
516	56.14323	-75.67131	-131.81454	8.1367	93.57205	-102.52242	-20.34175	-27.66478	-91.13104	-107.40444	-118.79582	-114.72747	0
517	56.14323	-82.99434	-139.13757	13.01872	96.01306	-109.84545	-22.78276	-32.5468	-96.01306	-112.28646	-121.23683	-117.16848	0
518	56.14323	-87.87636	-144.01959	15.45973	98.45407	-114.72747	-27.66478	-39.86983	-100.89508	-117.16848	-123.67784	-119.60949	0
519	58.58424	-92.75838	-151.34262	15.45973	103.33609	-122.0505	-30.10579	-49.63387	-108.21811	-124.49151	-128.55986	-122.0505	0
520	61.02525	-95.19939	-156.22464	15.45973	108.21811	-124.49151	-34.98781	-56.9569	-117.98215	-129.37353	-131.00087	-126.93252	0
521	61.02525	-100.08141	-161.10666	17.90074	110.65912	-129.37353	-37.42882	-59.39791	-122.86417	-134.25555	-133.44188	-126.93252	0
522	63.46626	-102.52242	-165.98868	17.90074	113.10013	-134.25555	-42.31084	-61.83892	-122.86417	-136.69656	-133.44188	-129.37353	0
523	65.90727	-104.96343	-170.8707	17.90074	117.98215	-136.69656	-44.75185	-61.83892	-120.42316	-134.25555	-135.88289	-129.37353	0
524	65.90727	-107.40444	-173.31171	20.34175	117.98215	-139.13757	-44.75185	-56.9569	-117.98215	-131.81454	-133.44188	-129.37353	0
525	65.90727	-104.96343	-170.8707	17.90074	117.98215	-136.69656	-44.75185	-52.07488	-113.10013	-124.49151	-128.55986	-126.93252	0
526	68.34828	-100.08141	-168.42969	15.45973	117.98215	-134.25555	-39.86983	-44.75185	-103.33609	-114.72747	-121.23683	-122.0505	0
527	70.78929	-95.19939	-165.98868	10.57771	117.98215	-129.37353	-37.42882	-42.31084	-96.01306	-109.84545	-113.9138	-117.16848	0
528	73.2303	-95.19939	-168.42969	10.57771	120.42316	-131.81454	-34.98781	-39.86983	-91.13104	-107.40444	-109.03178	-112.28646	0
529	73.2303	-92.75838	-165.98868	8.1367	117.98215	-129.37353	-32.5468	-37.42882	-86.24902	-107.40444	-106.59077	-109.84545	0
530	73.2303	-92.75838	-165.98868	8.1367	117.98215	-129.37353	-27.66478	-32.5468	-86.24902	-102.52242	-101.70875	-107.40444	0
531	68.34828	-90.31737	-158.66565	10.57771	113.10013	-124.49151	-20.34175	-30.10579	-83.80801	-102.52242	-99.26774	-104.96343	0
532	65.90727	-95.19939	-161.10666	13.01872	113.10013	-126.93252	-15.45973	-25.22377	-81.367	-100.08141	-99.26774	-104.96343	0
533	56.14323	-97.6404	-153.78363	20.34175	103.33609	-124.49151	-13.01872	-22.78276	-78.92599	-97.6404	-99.26774	-104.96343	0
534	48.8202	-100.08141	-148.90161	25.22377	98.45407	-124.49151	-8.1367	-17.90074	-74.04397	-92.75838	-96.82673	-107.40444	0
535	41.49717	-104.96343	-146.4606	30.10579	93.57205	-124.49151	-3.25468	-15.45973	-71.60296	-92.75838	-96.82673	-109.84545	0
536	36.61515	-109.84545	-146.4606	34.98781	91.13104	-126.93252	-0.81367	-13.01872	-71.60296	-90.31737	-96.82673	-112.28646	0
537	29.29212	-117.16848	-146.4606	42.31084	86.24902	-131.81454	-0.81367	-17.90074	-76.48498	-97.6404	-101.70875	-119.60949	0
538	21.96909	-129.37353	-151.34262	52.07488	86.24902	-139.13757	-0.81367	-22.78276	-83.80801	-104.96343	-106.59077	-126.93252	0
539	19.52808	-136.69656	-156.22464	56.9569	86.24902	-146.4606	-3.25468	-30.10579	-91.13104	-114.72747	-113.9138	-134.25555	0
540	19.52808	-144.01959	-163.54767	61.83892	91.13104	-153.78363	-3.25468	-34.98781	-100.89508	-122.0505	-121.23683	-139.13757	0
541	19.52808	-148.90161	-168.42969	64.27993	93.57205	-158.66565	-3.25468	-39.86983	-110.65912	-129.37353	-131.00087	-141.57858	0
542	17.08707	-153.78363	-170.8707	66.72094	93.57205	-161.10666	-5.69569	-39.86983	-115.54114	-134.25555	-135.88289	-146.4606	0
543	12.20505	-153.78363	-165.98868	69.16195	88.69003	-158.66565	-5.69569	-42.31084	-117.98215	-136.69656	-140.76491	-146.4606	0
544	12.20505	-153.78363	-165.98868	69.16195	88.69003	-158.66565	-8.1367	-42.31084	-117.98215	-136.69656	-140.76491	-146.4606	0
545	9.76404	-153.78363	-163.54767	71.60296	86.24902	-158.66565	-8.1367	-42.31084	-115.54114	-131.81454	-140.76491	-146.4606	0
546	7.32303	-151.34262	-158.66565	71.60296	81.367	-153.78363	-8.1367	-37.42882	-113.10013	-129.37353	-138.3239	-144.01959	0
547	7.32303	-151.34262	-158.66565	71.60296	81.367	-153.78363	-8.1367	-37.42882	-110.65912	-129.37353	-133.44188	-144.01959	0
548	7.32303	-151.34262	-158.66565	71.60296	81.367	-153.78363	-8.1367	-42.31084	-110.65912	-129.37353	-131.00087	-144.01959	0
549	9.76404	-153.78363	-163.54767	71.60296	86.24902	-158.66565	-8.1367	-47.19286	-110.65912	-131.81454	-131.00087	-141.57858	0
550	12.20505	-153.78363	-165.98868	69.16195	88.69003	-158.66565	-5.69569	-47.19286	-115.54114	-134.25555	-131.00087	-141.57858	0
551	14.64606	-153.78363	-168.42969	69.16195	91.13104	-161.10666	-5.69569	-47.19286	-115.54114	-136.69656	-133.44188	-141.57858	0
552	14.64606	-156.22464	-170.8707	69.16195	91.13104	-163.54767	-5.69569	-47.19286	-115.54114	-136.69656	-133.44188	-141.57858	0
553	12.20505	-158.66565	-170.8707	71.60296	91.13104	-163.54767	-5.69569	-47.19286	-110.65912	-134.25555	-133.44188	-141.57858	0
554	9.76404	-158.66565	-168.42969	74.04397	88.69003	-163.54767	-3.25468	-42.31084	-105.7771	-129.37353	-131.00087	-141.57858	0
555	7.32303	-156.22464	-163.54767	74.04397	83.80801	-158.66565	-0.81367	-37.42882	-100.89508	-122.0505	-128.55986	-141.57858	0
556	7.32303	-153.78363	-161.10666	71.60296	83.80801	-156.22464	-0.81367	-32.5468	-98.45407	-114.72747	-123.67784	-139.13757	0
557	4.88202	-153.78363	-158.66565	74.04397	81.367	-156.22464	2.44101	-32.5468	-93.57205	-112.28646	-118.79582	-136.69656	0
558	7.32303	-153.78363	-161.10666	71.60296	83.80801	-156.22464	4.88202	-32.5468	-93.57205	-109.84545	-113.9138	-136.69656	0
559	7.32303	-153.78363	-161.10666	71.60296	83.80801	-156.22464	7.32303	-34.98781	-93.57205	-112.28646	-113.9138	-136.69656	0
560	7.32303	-153.78363	-161.10666	71.60296	83.80801	-156.22464	7.32303	-34.98781	-98.45407	-112.28646	-111.47279	-136.69656	0
561	7.32303	-153.78363	-161.10666	71.60296	83.80801	-156.22464	7.32303	-37.42882	-100.89508	-114.72747	-113.9138	-136.69656	0
562	4.88202	-153.78363	-158.66565	74.04397	81.367	-156.22464	4.88202	-37.42882	-100.89508	-114.72747	-116.35481	-136.69656	0
563	-0.81367	-153.78363	-153.78363	76.48498	76.48498	-153.78363	2.44101	-37.42882	-98.45407	-114.72747	-118.79582	-136.69656	0
564	-5.69569	-156.22464	-151.34262	78.92599	71.60296	-153.78363	2.44101	-37.42882	-98.45407	-114.72747	-121.23683	-139.13757	0
565	-10.57771	-156.22464	-146.4606	81.367	66.72094	-151.34262	-0.81367	-34.98781	-96.01306	-112.28646	-121.23683	-139.13757	0
566	-10.57771	-156.22464	-146.4606	81.367	66.72094	-151.34262	-0.81367	-32.5468	-93.57205	-107.40444	-121.23683	-141.57858	0
567	-10.57771	-158.66565	-148.90161	83.80801	69.16195	-153.78363	-0.81367	-32.5468	-93.57205	-107.40444	-121.23683	-141.57858	0
568	-10.57771	-161.10666	-151.34262	83.80801	69.16195	-156.22464	-0.81367	-34.98781	-93.57205	-104.96343	-118.79582	-144.01959	0
569	-5.69569	-161.10666	-156.22464	81.367	74.04397	-158.66565	2.44101	-34.98781	-91.13104	-104.96343	-116.35481	-144.01959	0
570	-3.25468	-161.10666	-158.66565	81.367	76.48498	-161.10666	2.44101	-34.98781	-93.57205	-100.08141	-116.35481	-141.57858	0
571	-0.81367	-158.66565	-158.66565	78.92599	78.92599	-158.66565	4.88202	-34.98781	-93.57205	-100.08141	-116.35481	-141.57858	0
572	-0.81367	-158.66565	-158.66565	78.92599	78.92599	-158.66565	7.32303	-34.98781	-93.57205	-100.08141	-116.35481	-139.13757	0
573	-3.25468	-158.66565	-156.22464	78.92599	76.48498	-158.66565	7.32303	-34.98781	-91.13104	-100.08141	-116.35481	-139.13757	0
574	-5.69569	-161.10666	-156.22464	81.367	74.04397	-158.66565	7.32303	-32.5468	-86.24902	-97.6404	-116.35481	-139.13757	0
575	-8.1367	-161.10666	-153.78363	83.80801	71.60296	-158.66565	9.76404	-30.10579	-86.24902	-95.19939	-116.35481	-139.13757	0
576	-10.57771	-161.10666	-151.34262	83.80801	69.16195	-156.22464	9.76404	-27.66478	-83.80801	-95.19939	-116.35481	-136.69656	0
577	-10.57771	-158.66565	-148.90161	83.80801	69.16195	-153.78363	9.76404	-27.66478	-83.80801	-97.6404	-111.47279	-136.69656	0
578	-8.1367	-158.66565	-151.34262	81.367	71.60296	-156.22464	12.20505	-32.5468	-83.80801	-100.08141	-111.47279	-136.69656	0
579	-8.1367	-158.66565	-151.34262	81.367	71.60296	-156.22464	12.20505	-37.42882	-86.24902	-102.52242	-111.47279	-136.69656	0
580	-5.69569	-156.22464	-151.34262	78.92599	71.60296	-153.78363	12.20505	-39.86983	-91.13104	-104.96343	-111.47279	-136.69656	0
581	-3.25468	-151.34262	-148.90161	76.48498	71.60296	-151.34262	9.76404	-39.86983	-93.57205	-107.40444	-113.9138	-136.69656	0
582	-5.69569	-151.34262	-146.4606	76.48498	69.16195	-148.90161	9.76404	-39.86983	-93.57205	-107.40444	-116.35481	-136.69656	0
583	-8.1367	-151.34262	-144.01959	78.92599	66.72094	-148.90161	9.76404	-37.42882	-93.57205	-104.96343	-116.35481	-139.13757	0
584	-8.1367	-151.34262	-144.01959	78.92599	66.72094	-148.90161	7.32303	-32.5468	-88.69003	-100.08141	-116.35481	-139.13757	0
585	-10.57771	-151.34262	-141.57858	78.92599	64.27993	-146.4606	7.32303	-27.66478	-86.24902	-95.19939	-113.9138	-139.13757	0
586	-10.57771	-151.34262	-141.57858	78.92599	64.27993	-146.4606	7.32303	-22.78276	-83.80801	-90.31737	-111.47279	-139.13757	0
587	-10.57771	-151.34262	-141.57858	78.92599	64.27993	-146.4606	9.76404	-20.34175	-81.367	-90.31737	-109.03178	-139.13757	0
588	-8.1367	-148.90161	-141.57858	76.48498	66.72094	-146.4606	14.64606	-20.34175	-78.92599	-87.87636	-106.59077	-139.13757	0
589	-5.69569	-146.4606	-141.57858	74.04397	66.72094	-144.01959	17.08707	-20.34175	-76.48498	-87.87636	-104.14976	-134.25555	0
590	-5.69569	-144.01959	-139.13757	74.04397	66.72094	-141.57858	21.96909	-17.90074	-76.48498	-85.43535	-101.70875	-134.25555	0
591	-8.1367	-139.13757	-131.81454	71.60296	61.83892	-136.69656	26.85111	-10.57771	-71.60296	-80.55333	-101.70875	-131.81454	0
592	-13.01872	-134.25555	-122.0505	71.60296	54.51589	-129.37353	34.17414	1.62734	-61.83892	-75.67131	-99.26774	-126.93252	0
593	-17.90074	-131.81454	-114.72747	74.04397	47.19286	-124.49151	41.49717	17.08707	-44.75185	-61.02525	-94.38572	-124.49151	0
594	-22.78276	-131.81454	-109.84545	76.48498	42.31084	-122.0505	48.8202	39.05616	-20.34175	-41.49717	-84.62168	-119.60949	0
595	-22.78276	-129.37353	-107.40444	74.04397	42.31084	-119.60949	53.70222	70.78929	12.20505	-11.39138	-65.0936	-112.28646	0
596	-15.45973	-126.93252	-112.28646	69.16195	47.19286	-119.60949	58.58424	109.84545	56.14323	30.10579	-38.24249	-97.6404	0
597	-0.81367	-122.0505	-122.0505	59.39791	59.39791	-122.0505	61.02525	158.66565	114.72747	78.92599	-0.81367	-78.11232	0
598	19.52808	-114.72747	-134.25555	47.19286	76.48498	-124.49151	63.46626	212.36787	187.95777	144.83326	50.44754	-51.26121	0
599	48.8202	-102.52242	-151.34262	25.22377	98.45407	-126.93252	68.34828	278.27514	278.27514	222.94558	111.47279	-14.64606	0
600	85.43535	-82.99434	-168.42969	-2.44101	125.30518	-124.49151	73.2303	361.26948	388.12059	327.90901	192.02612	30.10579	0
601	131.81454	-56.14323	-187.95777	-39.05616	159.47932	-122.0505	80.55333	463.7919	532.14018	464.60557	294.54854	93.57205	0
602	190.39878	-19.52808	-209.92686	-85.43535	198.53548	-114.72747	85.43535	585.8424	710.33391	633.03526	423.92207	169.24336	0
603	258.74706	22.78276	-236.77797	-141.57858	247.35568	-107.40444	80.55333	720.09795	917.81976	838.0801	580.14671	262.00174	0
604	334.41837	71.60296	-263.62908	-202.60383	298.61689	-95.19939	70.78929	854.3535	1135.06965	1050.44797	748.5764	359.64214	0
605	412.53069	115.54114	-297.80322	-263.62908	354.76012	-90.31737	43.93818	954.43491	1318.1454	1240.84675	899.91902	449.95951	0
606	493.08402	157.03831	-336.85938	-324.65433	415.78537	-90.31737	7.32303	1008.13713	1440.1959	1379.98432	1019.52851	523.18981	0
607	568.75533	196.09447	-373.47453	-383.23857	471.9286	-87.87636	-34.98781	1003.25511	1491.45711	1445.89159	1100.08184	579.33304	0
608	634.6626	230.26861	-405.20766	-432.05877	520.7488	-87.87636	-86.24902	937.34784	1459.72398	1441.00957	1129.37396	608.62516	0
609	685.92381	257.11972	-429.61776	-471.11493	557.36395	-85.43535	-142.39225	812.85633	1347.43752	1360.45624	1104.96386	613.50718	0
610	724.97997	279.08881	-446.70483	-502.84806	586.65607	-82.99434	-205.85851	639.54462	1166.80278	1221.31867	1039.05659	598.86112	0
611	739.62603	303.49891	-436.94079	-522.37614	589.09708	-65.90727	-266.88376	434.49978	942.22986	1035.80191	936.53417	567.12799	0
612	727.42098	327.90901	-400.32564	-527.25816	564.68698	-36.61515	-320.58598	219.6909	698.12886	835.63909	819.36569	530.51284	0
613	688.36482	347.43709	-341.7414	-517.49412	515.86678	3.25468	-374.2882	-10.57771	441.82281	623.27122	689.99216	489.01567	0
614	627.33957	362.08315	-266.07009	-495.52503	447.5185	49.63387	-427.99042	-252.2377	175.75272	406.02133	548.41358	440.19547	0
615	541.90422	369.40618	-173.31171	-456.46887	357.20113	98.45407	-476.81062	-493.89769	-93.57205	181.44841	397.07096	379.17022	0
616	441.82281	366.96517	-75.67131	-405.20766	259.56073	147.27427	-510.98476	-723.35263	-357.20113	-43.93818	233.52329	310.82194	0
617	334.41837	362.08315	27.66478	-349.06443	154.5973	196.09447	-530.51284	-925.95646	-596.42011	-253.86504	82.18067	242.47366	0
618	239.21898	357.20113	117.98215	-297.80322	61.83892	237.59164	-545.1589	-1094.38615	-794.14192	-429.61776	-43.12451	183.88942	0
619	161.10666	349.8781	188.77144	-256.30605	-14.64606	269.32477	-552.48193	-1211.55463	-938.16151	-563.87331	-148.08794	132.62821	0
620	87.87636	337.67305	249.79669	-212.36787	-80.55333	293.73487	-542.71789	-1262.81584	-1021.15585	-649.30866	-226.20026	88.69003	0
621	24.4101	330.35002	305.93992	-178.19373	-141.57858	318.14497	-520.7488	-1255.49281	-1045.56595	-690.80583	-275.02046	54.51589	0
622	-20.34175	332.79103	352.31911	-156.22464	-185.51676	342.55507	-486.57466	-1204.2316	-1018.71484	-683.4828	-289.66652	39.86983	0
623	-59.39791	332.79103	391.37527	-136.69656	-224.57292	362.08315	-445.07749	-1121.23726	-955.24858	-649.30866	-287.22551	32.5468	0
624	-93.57205	327.90901	420.66739	-117.16848	-256.30605	374.2882	-396.25729	-1016.27383	-869.81323	-595.60644	-272.57945	27.66478	0
625	-120.42316	320.58598	440.19547	-100.08141	-280.71615	379.17022	-344.99608	-899.10535	-774.61384	-529.69917	-253.05137	27.66478	0
626	-142.39225	315.70396	457.28254	-87.87636	-300.24423	386.49325	-293.73487	-784.37788	-679.41445	-463.7919	-226.20026	27.66478	0
627	-149.71528	310.82194	459.72355	-80.55333	-305.12625	384.05224	-247.35568	-681.85546	-586.65607	-395.44362	-192.02612	34.98781	0
628	-147.27427	301.0579	447.5185	-78.11232	-297.80322	374.2882	-208.29952	-591.53809	-501.22072	-334.41837	-157.85198	44.75185	0
629	-147.27427	291.29386	437.75446	-73.2303	-292.9212	364.52416	-176.56639	-513.42577	-430.43143	-280.71615	-128.55986	52.07488	0
630	-142.39225	279.08881	420.66739	-68.34828	-280.71615	349.8781	-147.27427	-447.5185	-371.84719	-234.33696	-101.70875	59.39791	0
631	-139.95124	266.88376	406.02133	-63.46626	-273.39312	335.23204	-122.86417	-388.93426	-318.14497	-192.83979	-82.18067	61.83892	0
632	-135.06922	247.35568	381.61123	-56.14323	-258.74706	313.26295	-98.45407	-335.23204	-271.76578	-158.66565	-65.0936	61.83892	0
633	-132.62821	225.38659	357.20113	-46.37919	-244.101	291.29386	-76.48498	-288.85285	-227.8276	-126.93252	-52.88855	56.9569	0
634	-130.1872	200.97649	330.35002	-36.61515	-229.45494	264.44275	-59.39791	-247.35568	-191.21245	-102.52242	-43.12451	49.63387	0
635	-125.30518	176.56639	301.0579	-26.85111	-212.36787	237.59164	-44.75185	-210.74053	-161.92033	-78.11232	-35.80148	37.42882	0
636	-120.42316	152.15629	271.76578	-17.08707	-195.2808	210.74053	-32.5468	-179.0074	-135.06922	-58.58424	-30.91946	27.66478	0
637	-115.54114	127.74619	242.47366	-7.32303	-178.19373	183.88942	-22.78276	-152.15629	-110.65912	-43.93818	-23.59643	20.34175	0
638	-108.21811	105.7771	213.18154	0	-161.10666	159.47932	-15.45973	-135.06922	-93.57205	-34.17414	-18.71441	15.45973	0
639	-103.33609	96.01306	198.53548	3.25468	-151.34262	147.27427	-8.1367	-120.42316	-78.92599	-24.4101	-15.45973	15.45973	0
640	-98.45407	93.57205	191.21245	0	-144.01959	142.39225	-3.25468	-103.33609	-66.72094	-13.83239	-8.1367	15.45973	0
641	-96.01306	91.13104	186.33043	0	-141.57858	137.51023	-0.81367	-88.69003	-52.07488	-1.62734	-0.81367	22.78276	0
642	-96.01306	93.57205	188.77144	0	-141.57858	139.95124	4.88202	-74.04397	-34.98781	13.01872	8.95037	30.10579	0
643	-98.45407	100.89508	198.53548	-2.44101	-148.90161	149.71528	9.76404	-59.39791	-20.34175	25.22377	16.2734	34.98781	0
644	-98.45407	108.21811	205.85851	-4.88202	-151.34262	157.03831	14.64606	-47.19286	-4.88202	39.86983	26.03744	42.31084	0
645	-103.33609	113.10013	215.62255	-4.88202	-158.66565	164.36134	19.52808	-34.98781	7.32303	52.07488	33.36047	47.19286	0
646	-105.7771	115.54114	220.50457	-4.88202	-163.54767	166.80235	24.4101	-25.22377	19.52808	64.27993	40.6835	54.51589	0
647	-108.21811	120.42316	227.8276	-7.32303	-168.42969	174.12538	31.73313	-17.90074	26.85111	71.60296	50.44754	59.39791	0
648	-108.21811	122.86417	230.26861	-7.32303	-168.42969	176.56639	36.61515	-15.45973	31.73313	78.92599	57.77057	61.83892	0
649	-108.21811	125.30518	232.70962	-9.76404	-170.8707	179.0074	41.49717	-13.01872	34.17414	81.367	60.21158	64.27993	0
650	-105.7771	125.30518	230.26861	-9.76404	-168.42969	176.56639	43.93818	-10.57771	34.17414	83.80801	62.65259	64.27993	0
651	-103.33609	125.30518	227.8276	-12.20505	-165.98868	176.56639	46.37919	-8.1367	34.17414	88.69003	62.65259	66.72094	0
652	-103.33609	127.74619	230.26861	-12.20505	-165.98868	179.0074	46.37919	-5.69569	34.17414	91.13104	65.0936	69.16195	0
653	-105.7771	130.1872	235.15063	-12.20505	-170.8707	181.44841	46.37919	-3.25468	41.49717	93.57205	67.53461	69.16195	0
654	-110.65912	132.62821	242.47366	-12.20505	-175.75272	186.33043	46.37919	1.62734	46.37919	100.89508	69.97562	71.60296	0
655	-110.65912	137.51023	247.35568	-14.64606	-178.19373	191.21245	46.37919	4.06835	53.70222	105.7771	72.41663	74.04397	0
656	-113.10013	139.95124	252.2377	-14.64606	-183.07575	196.09447	46.37919	8.95037	58.58424	113.10013	77.29865	76.48498	0
657	-113.10013	142.39225	254.67871	-14.64606	-183.07575	198.53548	48.8202	8.95037	61.02525	117.98215	82.18067	78.92599	0
658	-113.10013	147.27427	259.56073	-17.08707	-185.51676	203.4175	48.8202	8.95037	65.90727	120.42316	87.06269	81.367	0
659	-113.10013	149.71528	262.00174	-19.52808	-187.95777	205.85851	51.26121	8.95037	65.90727	120.42316	91.94471	83.80801	0
660	-113.10013	152.15629	264.44275	-19.52808	-187.95777	208.29952	58.58424	8.95037	65.90727	122.86417	94.38572	88.69003	0
661	-113.10013	152.15629	264.44275	-19.52808	-187.95777	208.29952	63.46626	8.95037	65.90727	122.86417	94.38572	91.13104	0
662	-117.98215	154.5973	271.76578	-19.52808	-195.2808	213.18154	68.34828	8.95037	65.90727	125.30518	96.82673	93.57205	0
663	-122.86417	154.5973	276.6478	-17.08707	-200.16282	215.62255	70.78929	12.20505	68.34828	125.30518	96.82673	96.01306	0
664	-127.74619	157.03831	283.97083	-14.64606	-205.04484	220.50457	73.2303	17.08707	73.2303	130.1872	99.26774	98.45407	0
665	-130.1872	161.92033	291.29386	-17.08707	-209.92686	225.38659	78.11232	21.96909	75.67131	135.06922	101.70875	103.33609	0
666	-132.62821	161.92033	293.73487	-14.64606	-212.36787	227.8276	75.67131	24.4101	80.55333	139.95124	104.14976	105.7771	0
667	-135.06922	164.36134	298.61689	-14.64606	-217.24989	230.26861	70.78929	24.4101	85.43535	142.39225	111.47279	108.21811	0
668	-130.1872	171.68437	301.0579	-21.96909	-214.80888	235.15063	65.90727	24.4101	87.87636	144.83326	116.35481	113.10013	0
669	-127.74619	174.12538	301.0579	-24.4101	-214.80888	237.59164	63.46626	24.4101	92.75838	147.27427	121.23683	117.98215	0
670	-125.30518	179.0074	303.49891	-26.85111	-214.80888	240.03265	58.58424	24.4101	92.75838	152.15629	126.11885	122.86417	0
671	-125.30518	179.0074	303.49891	-26.85111	-214.80888	240.03265	53.70222	24.4101	95.19939	154.5973	126.11885	125.30518	0
672	-125.30518	183.88942	308.38093	-29.29212	-217.24989	244.91467	51.26121	26.85111	100.08141	159.47932	131.00087	130.1872	0
673	-127.74619	186.33043	313.26295	-29.29212	-219.6909	249.79669	51.26121	29.29212	104.96343	164.36134	135.88289	132.62821	0
674	-132.62821	188.77144	320.58598	-29.29212	-227.01393	254.67871	51.26121	31.73313	112.28646	171.68437	138.3239	135.06922	0
675	-137.51023	188.77144	325.468	-26.85111	-231.89595	257.11972	48.8202	36.61515	117.16848	179.0074	143.20592	137.51023	0
676	-139.95124	191.21245	330.35002	-26.85111	-234.33696	259.56073	48.8202	39.05616	122.0505	188.77144	145.64693	142.39225	0
677	-139.95124	193.65346	332.79103	-26.85111	-236.77797	262.00174	48.8202	41.49717	126.93252	193.65346	152.96996	144.83326	0
678	-139.95124	196.09447	335.23204	-29.29212	-236.77797	264.44275	48.8202	39.05616	129.37353	196.09447	155.41097	149.71528	0
679	-137.51023	198.53548	335.23204	-31.73313	-236.77797	266.88376	48.8202	36.61515	129.37353	198.53548	157.85198	152.15629	0
680	-137.51023	200.97649	337.67305	-31.73313	-236.77797	269.32477	51.26121	36.61515	129.37353	203.4175	160.29299	157.03831	0
681	-137.51023	205.85851	342.55507	-34.17414	-239.21898	274.20679	51.26121	39.05616	131.81454	205.85851	162.734	159.47932	0
682	-137.51023	205.85851	342.55507	-34.17414	-239.21898	274.20679	51.26121	39.05616	134.25555	210.74053	162.734	161.92033	0
683	-142.39225	213.18154	354.76012	-36.61515	-248.98302	283.97083	51.26121	41.49717	139.13757	215.62255	167.61602	166.80235	0
684	-144.83326	218.06356	362.08315	-36.61515	-253.86504	288.85285	51.26121	48.8202	146.4606	222.94558	174.93905	169.24336	0
685	-147.27427	222.94558	369.40618	-39.05616	-258.74706	296.17588	51.26121	53.70222	151.34262	232.70962	179.82107	171.68437	0
686	-149.71528	227.8276	376.72921	-39.05616	-263.62908	301.0579	53.70222	58.58424	158.66565	240.03265	184.70309	176.56639	0
687	-152.15629	232.70962	384.05224	-41.49717	-268.5111	308.38093	53.70222	61.02525	163.54767	247.35568	192.02612	181.44841	0
688	-152.15629	237.59164	388.93426	-43.93818	-270.95211	313.26295	53.70222	61.02525	168.42969	249.79669	199.34915	186.33043	0
689	-149.71528	242.47366	391.37527	-46.37919	-270.95211	315.70396	56.14323	58.58424	170.8707	252.2377	201.79016	191.21245	0
690	-147.27427	244.91467	391.37527	-48.8202	-268.5111	318.14497	56.14323	61.02525	170.8707	257.11972	206.67218	196.09447	0
691	-147.27427	247.35568	393.81628	-51.26121	-270.95211	320.58598	56.14323	63.46626	175.75272	259.56073	209.11319	203.4175	0
692	-149.71528	252.2377	401.13931	-51.26121	-275.83413	325.468	56.14323	68.34828	180.63474	264.44275	211.5542	208.29952	0
693	-154.5973	254.67871	408.46234	-51.26121	-280.71615	330.35002	56.14323	73.2303	187.95777	271.76578	216.43622	210.74053	0
694	-157.03831	257.11972	413.34436	-51.26121	-285.59817	335.23204	56.14323	80.55333	197.72181	279.08881	221.31824	215.62255	0
695	-159.47932	262.00174	420.66739	-51.26121	-290.48019	340.11406	56.14323	87.87636	205.04484	291.29386	228.64127	220.50457	0
696	-161.92033	264.44275	425.54941	-51.26121	-292.9212	344.99608	56.14323	95.19939	212.36787	301.0579	235.9643	225.38659	0
697	-161.92033	266.88376	427.99042	-53.70222	-295.36221	347.43709	56.14323	97.6404	219.6909	308.38093	243.28733	230.26861	0
698	-161.92033	269.32477	430.43143	-53.70222	-295.36221	349.8781	56.14323	100.08141	224.57292	315.70396	250.61036	232.70962	0
699	-157.03831	274.20679	430.43143	-58.58424	-292.9212	352.31911	56.14323	102.52242	227.01393	320.58598	257.93339	240.03265	0
700	-154.5973	276.6478	430.43143	-61.02525	-292.9212	352.31911	58.58424	104.96343	229.45494	325.468	265.25642	244.91467	0
701	-154.5973	279.08881	432.87244	-63.46626	-292.9212	354.76012	58.58424	107.40444	231.89595	332.79103	270.13844	247.35568	0
702	-154.5973	283.97083	437.75446	-65.90727	-295.36221	359.64214	58.58424	112.28646	236.77797	337.67305	275.02046	252.2377	0
703	-154.5973	288.85285	442.63648	-68.34828	-297.80322	364.52416	58.58424	117.16848	244.101	342.55507	279.90248	257.11972	0
704	-157.03831	296.17588	452.40052	-70.78929	-305.12625	374.2882	61.02525	124.49151	251.42403	352.31911	287.22551	259.56073	0
705	-159.47932	301.0579	459.72355	-70.78929	-310.00827	379.17022	61.02525	131.81454	258.74706	362.08315	292.10753	264.44275	0
706	-159.47932	305.93992	464.60557	-73.2303	-312.44928	384.05224	61.02525	139.13757	266.07009	369.40618	299.43056	271.76578	0
707	-157.03831	313.26295	469.48759	-78.11232	-312.44928	391.37527	63.46626	144.01959	273.39312	376.72921	306.75359	276.6478	0
708	-154.5973	320.58598	474.36961	-82.99434	-314.89029	396.25729	65.90727	144.01959	280.71615	381.61123	314.07662	283.97083	-1250	T-0
709	-154.5973	325.468	479.25163	-85.43535	-317.3313	401.13931	65.90727	146.4606	285.59817	386.49325	321.39965	288.85285	0
710	-152.15629	327.90901	479.25163	-87.87636	-314.89029	403.58032	65.90727	146.4606	285.59817	393.81628	328.72268	296.17588	0
711	-152.15629	330.35002	481.69264	-90.31737	-317.3313	406.02133	65.90727	151.34262	292.9212	401.13931	333.6047	303.49891	0
712	-152.15629	332.79103	484.13365	-90.31737	-317.3313	408.46234	65.90727	156.22464	300.24423	410.90335	338.48672	308.38093	0
713	-154.5973	335.23204	489.01567	-90.31737	-322.21332	410.90335	68.34828	158.66565	312.44928	423.1084	348.25076	315.70396	0
714	-157.03831	340.11406	496.3387	-92.75838	-327.09534	418.22638	68.34828	165.98868	322.21332	435.31345	355.57379	320.58598	0
715	-157.03831	347.43709	503.66173	-95.19939	-329.53635	425.54941	68.34828	170.8707	331.97736	447.5185	362.89682	327.90901	0
716	-157.03831	349.8781	506.10274	-97.6404	-331.97736	427.99042	70.78929	175.75272	344.18241	459.72355	372.66086	332.79103	0
717	-154.5973	357.20113	510.98476	-102.52242	-331.97736	432.87244	73.2303	178.19373	353.94645	469.48759	382.4249	340.11406	0
718	-147.27427	364.52416	510.98476	-109.84545	-329.53635	437.75446	75.67131	178.19373	363.71049	476.81062	392.18894	344.99608	0
719	-139.95124	369.40618	508.54375	-114.72747	-324.65433	437.75446	78.11232	178.19373	371.03352	481.69264	397.07096	349.8781	0
720	-132.62821	371.84719	503.66173	-119.60949	-317.3313	437.75446	78.11232	180.63474	373.47453	486.57466	404.39399	352.31911	0
721	-132.62821	369.40618	501.22072	-119.60949	-317.3313	435.31345	78.11232	185.51676	378.35655	493.89769	406.835	357.20113	0
722	-125.30518	371.84719	496.3387	-124.49151	-310.00827	432.87244	78.11232	190.39878	383.23857	501.22072	411.71702	359.64214	0
723	-120.42316	376.72921	496.3387	-129.37353	-307.56726	435.31345	78.11232	195.2808	393.00261	508.54375	416.59904	359.64214	0
724	-120.42316	379.17022	498.77971	-129.37353	-310.00827	437.75446	78.11232	202.60383	400.32564	518.30779	421.48106	364.52416	0
725	-117.98215	384.05224	501.22072	-134.25555	-310.00827	442.63648	80.55333	209.92686	407.64867	528.07183	426.36308	366.96517	0
726	-115.54114	386.49325	501.22072	-136.69656	-307.56726	442.63648	80.55333	217.24989	412.53069	537.83587	433.68611	369.40618	0
727	-110.65912	393.81628	503.66173	-141.57858	-307.56726	447.5185	80.55333	219.6909	422.29473	545.1589	441.00914	374.2882	0
728	-103.33609	401.13931	503.66173	-148.90161	-302.68524	452.40052	80.55333	222.13191	427.17675	550.04092	445.89116	379.17022	0
729	-98.45407	401.13931	498.77971	-151.34262	-297.80322	449.95951	82.99434	222.13191	429.61776	550.04092	450.77318	379.17022	0
730	-96.01306	401.13931	496.3387	-153.78363	-295.36221	447.5185	82.99434	222.13191	429.61776	552.48193	450.77318	381.61123	0
731	-93.57205	401.13931	493.89769	-153.78363	-292.9212	447.5185	80.55333	224.57292	429.61776	554.92294	450.77318	384.05224	0
732	-93.57205	401.13931	493.89769	-153.78363	-292.9212	447.5185	80.55333	229.45494	429.61776	554.92294	450.77318	384.05224	0
733	-93.57205	398.6983	491.45668	-153.78363	-292.9212	445.07749	78.11232	229.45494	434.49978	557.36395	448.33217	381.61123	0
734	-93.57205	396.25729	489.01567	-151.34262	-290.48019	442.63648	78.11232	236.77797	436.94079	559.80496	448.33217	381.61123	0
735	-93.57205	393.81628	486.57466	-151.34262	-290.48019	440.19547	75.67131	241.65999	439.3818	562.24597	448.33217	381.61123	0
736	-93.57205	391.37527	484.13365	-148.90161	-288.03918	437.75446	75.67131	246.54201	441.82281	564.68698	448.33217	379.17022	0
737	-91.13104	388.93426	479.25163	-148.90161	-285.59817	432.87244	75.67131	246.54201	441.82281	562.24597	448.33217	379.17022	0
738	-83.80801	384.05224	467.04658	-151.34262	-275.83413	425.54941	75.67131	244.101	441.82281	557.36395	448.33217	376.72921	0
739	-78.92599	381.61123	459.72355	-151.34262	-268.5111	420.66739	75.67131	241.65999	436.94079	550.04092	445.89116	376.72921	0
740	-74.04397	376.72921	449.95951	-151.34262	-261.18807	413.34436	75.67131	239.21898	429.61776	545.1589	443.45015	371.84719	0
741	-71.60296	369.40618	440.19547	-148.90161	-256.30605	403.58032	73.2303	239.21898	424.73574	537.83587	436.12712	369.40618	0
742	-66.72094	362.08315	427.99042	-148.90161	-246.54201	393.81628	70.78929	236.77797	419.85372	528.07183	431.2451	364.52416	0
743	-66.72094	354.76012	420.66739	-144.01959	-244.101	386.49325	68.34828	234.33696	417.41271	520.7488	423.92207	357.20113	0
744	-66.72094	347.43709	413.34436	-141.57858	-239.21898	379.17022	68.34828	234.33696	414.9717	513.42577	416.59904	352.31911	0
745	-66.72094	337.67305	403.58032	-136.69656	-234.33696	369.40618	65.90727	234.33696	410.08968	506.10274	409.27601	344.99608	0
746	-64.27993	327.90901	391.37527	-131.81454	-227.01393	359.64214	63.46626	231.89595	405.20766	498.77971	401.95298	335.23204	0
747	-59.39791	320.58598	379.17022	-131.81454	-219.6909	349.8781	61.02525	227.01393	397.88463	484.13365	392.18894	327.90901	0
748	-52.07488	310.82194	362.08315	-129.37353	-207.48585	335.23204	61.02525	219.6909	385.67958	469.48759	382.4249	315.70396	0
749	-44.75185	303.49891	347.43709	-129.37353	-195.2808	325.468	58.58424	209.92686	375.91554	452.40052	370.21985	305.93992	0
750	-37.42882	296.17588	332.79103	-129.37353	-185.51676	313.26295	58.58424	205.04484	358.82847	437.75446	358.0148	296.17588	0
751	-32.5468	286.41184	318.14497	-126.93252	-175.75272	301.0579	58.58424	197.72181	346.62342	420.66739	343.36874	286.41184	0
752	-27.66478	276.6478	303.49891	-124.49151	-165.98868	288.85285	56.14323	192.83979	331.97736	403.58032	328.72268	274.20679	0
753	-25.22377	264.44275	288.85285	-119.60949	-156.22464	276.6478	56.14323	187.95777	319.77231	388.93426	311.63561	262.00174	0
754	-25.22377	254.67871	279.08881	-114.72747	-151.34262	266.88376	53.70222	185.51676	310.00827	376.72921	299.43056	249.79669	0
755	-25.22377	242.47366	266.88376	-109.84545	-146.4606	254.67871	48.8202	180.63474	300.24423	364.52416	284.7845	235.15063	0
756	-25.22377	227.8276	252.2377	-102.52242	-139.13757	240.03265	46.37919	178.19373	288.03918	347.43709	270.13844	222.94558	0
757	-22.78276	215.62255	237.59164	-97.6404	-129.37353	225.38659	41.49717	170.8707	275.83413	330.35002	257.93339	208.29952	0
758	-15.45973	198.53548	213.18154	-92.75838	-114.72747	205.85851	39.05616	161.10666	261.18807	310.82194	243.28733	196.09447	0
759	-10.57771	186.33043	196.09447	-87.87636	-102.52242	191.21245	36.61515	148.90161	241.65999	288.85285	226.20026	181.44841	0
760	-3.25468	171.68437	174.12538	-85.43535	-87.87636	171.68437	34.17414	141.57858	219.6909	266.88376	209.11319	166.80235	0
761	2.44101	159.47932	157.03831	-80.55333	-78.11232	159.47932	31.73313	134.25555	200.16282	244.91467	189.58511	152.15629	0
762	9.76404	147.27427	137.51023	-78.11232	-63.46626	142.39225	29.29212	126.93252	180.63474	222.94558	170.05703	137.51023	0
763	9.76404	135.06922	125.30518	-73.2303	-58.58424	130.1872	26.85111	117.16848	163.54767	198.53548	150.52895	120.42316	0
764	12.20505	120.42316	108.21811	-65.90727	-48.8202	115.54114	21.96909	112.28646	148.90161	179.0074	131.00087	105.7771	0
765	14.64606	105.7771	91.13104	-61.02525	-39.05616	98.45407	19.52808	107.40444	134.25555	161.92033	113.9138	91.13104	0
766	17.08707	91.13104	74.04397	-53.70222	-29.29212	83.80801	14.64606	104.96343	124.49151	144.83326	99.26774	76.48498	0
767	19.52808	74.04397	54.51589	-46.37919	-17.08707	64.27993	12.20505	97.6404	112.28646	127.74619	87.06269	61.83892	0
768	24.4101	56.9569	32.5468	-41.49717	-4.88202	44.75185	9.76404	87.87636	100.08141	108.21811	72.41663	47.19286	0
769	29.29212	39.86983	10.57771	-34.17414	10.57771	25.22377	4.88202	78.11232	82.99434	88.69003	55.32956	34.98781	0
770	34.17414	25.22377	-9.76404	-29.29212	22.78276	8.1367	2.44101	68.34828	65.90727	71.60296	40.6835	20.34175	0
771	39.05616	13.01872	-26.85111	-26.85111	32.5468	-7.32303	2.44101	63.46626	51.26121	54.51589	23.59643	8.1367	0
772	41.49717	0.81367	-41.49717	-21.96909	42.31084	-19.52808	-0.81367	56.14323	36.61515	34.98781	6.50936	-4.88202	0
773	41.49717	-9.76404	-51.26121	-17.08707	44.75185	-29.29212	-0.81367	48.8202	24.4101	17.90074	-8.1367	-19.52808	0
774	39.05616	-21.96909	-61.02525	-9.76404	49.63387	-41.49717	-3.25468	46.37919	12.20505	3.25468	-23.59643	-34.17414	0
775	36.61515	-34.17414	-70.78929	-2.44101	52.07488	-51.26121	-3.25468	43.93818	2.44101	-8.95037	-35.80148	-46.37919	0
776	36.61515	-43.93818	-80.55333	3.25468	56.9569	-61.02525	-5.69569	41.49717	-7.32303	-21.96909	-48.00653	-58.58424	0
777	34.17414	-56.14323	-90.31737	10.57771	61.83892	-73.2303	-8.1367	34.17414	-15.45973	-31.73313	-57.77057	-68.34828	0
778	34.17414	-68.34828	-102.52242	15.45973	66.72094	-85.43535	-8.1367	26.85111	-22.78276	-46.37919	-67.53461	-78.11232	0
779	34.17414	-78.11232	-112.28646	20.34175	71.60296	-95.19939	-8.1367	19.52808	-32.5468	-58.58424	-79.73966	-85.43535	0
780	39.05616	-85.43535	-124.49151	22.78276	81.367	-104.96343	-8.1367	14.64606	-47.19286	-68.34828	-89.5037	-92.75838	0
781	39.05616	-92.75838	-131.81454	25.22377	83.80801	-112.28646	-8.1367	8.95037	-56.9569	-80.55333	-101.70875	-100.08141	0
782	36.61515	-100.08141	-136.69656	30.10579	86.24902	-117.16848	-8.1367	6.50936	-64.27993	-90.31737	-113.9138	-107.40444	0
783	31.73313	-104.96343	-136.69656	34.98781	83.80801	-119.60949	-8.1367	4.06835	-66.72094	-97.6404	-121.23683	-112.28646	0
784	26.85111	-107.40444	-134.25555	39.86983	78.92599	-119.60949	-5.69569	4.06835	-71.60296	-102.52242	-128.55986	-119.60949	0
785	21.96909	-112.28646	-134.25555	44.75185	76.48498	-122.0505	-5.69569	4.06835	-74.04397	-107.40444	-135.88289	-124.49151	0
786	17.08707	-119.60949	-136.69656	49.63387	76.48498	-126.93252	-3.25468	4.06835	-76.48498	-112.28646	-140.76491	-129.37353	0
787	14.64606	-124.49151	-139.13757	54.51589	76.48498	-131.81454	-0.81367	1.62734	-78.92599	-119.60949	-143.20592	-134.25555	0
788	17.08707	-129.37353	-146.4606	54.51589	81.367	-136.69656	4.88202	-3.25468	-81.367	-124.49151	-145.64693	-136.69656	0
789	17.08707	-129.37353	-146.4606	54.51589	81.367	-136.69656	9.76404	-10.57771	-88.69003	-134.25555	-150.52895	-139.13757	0
790	17.08707	-131.81454	-148.90161	56.9569	81.367	-139.13757	12.20505	-15.45973	-96.01306	-141.57858	-155.41097	-141.57858	0
791	19.52808	-134.25555	-153.78363	56.9569	86.24902	-144.01959	14.64606	-15.45973	-98.45407	-146.4606	-160.29299	-144.01959	0
792	17.08707	-134.25555	-151.34262	56.9569	83.80801	-141.57858	17.08707	-20.34175	-103.33609	-151.34262	-162.734	-146.4606	0
793	14.64606	-134.25555	-148.90161	59.39791	81.367	-141.57858	17.08707	-22.78276	-103.33609	-153.78363	-165.17501	-148.90161	0
794	9.76404	-134.25555	-144.01959	61.83892	76.48498	-139.13757	14.64606	-22.78276	-105.7771	-156.22464	-167.61602	-151.34262	0
795	4.88202	-134.25555	-139.13757	64.27993	71.60296	-136.69656	12.20505	-22.78276	-108.21811	-158.66565	-170.05703	-151.34262	0
796	2.44101	-136.69656	-139.13757	66.72094	69.16195	-136.69656	12.20505	-22.78276	-110.65912	-158.66565	-170.05703	-153.78363	0
797	2.44101	-139.13757	-141.57858	66.72094	71.60296	-139.13757	12.20505	-25.22377	-115.54114	-161.10666	-170.05703	-153.78363	0
798	4.88202	-139.13757	-144.01959	66.72094	74.04397	-141.57858	9.76404	-32.5468	-117.98215	-163.54767	-170.05703	-156.22464	0
799	4.88202	-139.13757	-144.01959	66.72094	74.04397	-141.57858	12.20505	-37.42882	-122.86417	-163.54767	-170.05703	-156.22464	0
800	7.32303	-141.57858	-148.90161	66.72094	76.48498	-144.01959	12.20505	-42.31084	-127.74619	-165.98868	-170.05703	-156.22464	0
801	7.32303	-144.01959	-151.34262	66.72094	78.92599	-146.4606	14.64606	-44.75185	-132.62821	-168.42969	-174.93905	-156.22464	0
802	4.88202	-144.01959	-148.90161	69.16195	76.48498	-146.4606	14.64606	-49.63387	-132.62821	-170.8707	-177.38006	-158.66565	0
803	2.44101	-144.01959	-146.4606	69.16195	74.04397	-144.01959	12.20505	-49.63387	-132.62821	-170.8707	-182.26208	-161.10666	0
804	-0.81367	-144.01959	-144.01959	71.60296	71.60296	-144.01959	12.20505	-47.19286	-132.62821	-168.42969	-182.26208	-161.10666	0
805	-5.69569	-144.01959	-139.13757	74.04397	66.72094	-141.57858	9.76404	-44.75185	-132.62821	-168.42969	-184.70309	-165.98868	0
806	-5.69569	-144.01959	-139.13757	74.04397	66.72094	-141.57858	7.32303	-44.75185	-132.62821	-170.8707	-187.1441	-168.42969	0
807	-5.69569	-144.01959	-139.13757	74.04397	66.72094	-141.57858	7.32303	-42.31084	-132.62821	-173.31171	-187.1441	-170.8707	0
808	-0.81367	-144.01959	-144.01959	71.60296	71.60296	-144.01959	7.32303	-44.75185	-135.06922	-175.75272	-187.1441	-170.8707	0
809	-0.81367	-144.01959	-144.01959	71.60296	71.60296	-144.01959	7.32303	-49.63387	-137.51023	-180.63474	-187.1441	-170.8707	0
810	2.44101	-146.4606	-148.90161	71.60296	74.04397	-146.4606	9.76404	-54.51589	-144.83326	-185.51676	-187.1441	-173.31171	0
811	4.88202	-146.4606	-151.34262	69.16195	76.48498	-148.90161	12.20505	-56.9569	-147.27427	-187.95777	-189.58511	-173.31171	0
812	7.32303	-146.4606	-153.78363	69.16195	78.92599	-148.90161	12.20505	-59.39791	-147.27427	-192.83979	-192.02612	-173.31171	0
813	2.44101	-151.34262	-153.78363	74.04397	76.48498	-151.34262	12.20505	-59.39791	-147.27427	-195.2808	-199.34915	-175.75272	0
814	-0.81367	-151.34262	-151.34262	74.04397	74.04397	-151.34262	12.20505	-56.9569	-147.27427	-195.2808	-201.79016	-178.19373	0
815	-8.1367	-151.34262	-144.01959	78.92599	66.72094	-148.90161	14.64606	-52.07488	-144.83326	-195.2808	-201.79016	-180.63474	0
816	-13.01872	-153.78363	-141.57858	81.367	64.27993	-148.90161	14.64606	-49.63387	-139.95124	-192.83979	-201.79016	-185.51676	0
817	-17.90074	-156.22464	-139.13757	86.24902	59.39791	-148.90161	14.64606	-47.19286	-139.95124	-192.83979	-201.79016	-185.51676	0
818	-17.90074	-156.22464	-139.13757	86.24902	59.39791	-148.90161	17.08707	-47.19286	-139.95124	-192.83979	-201.79016	-185.51676	0
819	-17.90074	-156.22464	-139.13757	86.24902	59.39791	-148.90161	17.08707	-54.51589	-142.39225	-192.83979	-199.34915	-185.51676	0
820	-10.57771	-158.66565	-148.90161	83.80801	69.16195	-153.78363	17.08707	-59.39791	-149.71528	-195.2808	-196.90814	-185.51676	0
821	-8.1367	-158.66565	-151.34262	81.367	71.60296	-156.22464	17.08707	-64.27993	-152.15629	-200.16282	-199.34915	-185.51676	0
822	-5.69569	-158.66565	-153.78363	81.367	74.04397	-156.22464	14.64606	-64.27993	-157.03831	-202.60383	-199.34915	-185.51676	0
823	-5.69569	-161.10666	-156.22464	81.367	74.04397	-158.66565	12.20505	-64.27993	-157.03831	-205.04484	-204.23117	-183.07575	0
824	-5.69569	-161.10666	-156.22464	81.367	74.04397	-158.66565	12.20505	-56.9569	-152.15629	-205.04484	-204.23117	-183.07575	0
825	-8.1367	-161.10666	-153.78363	83.80801	71.60296	-158.66565	12.20505	-52.07488	-147.27427	-202.60383	-204.23117	-183.07575	0
826	-10.57771	-161.10666	-151.34262	83.80801	69.16195	-156.22464	12.20505	-44.75185	-139.95124	-197.72181	-199.34915	-183.07575	0
827	-13.01872	-163.54767	-151.34262	86.24902	69.16195	-158.66565	12.20505	-39.86983	-135.06922	-192.83979	-194.46713	-183.07575	0
828	-13.01872	-163.54767	-151.34262	86.24902	69.16195	-158.66565	12.20505	-37.42882	-135.06922	-192.83979	-192.02612	-180.63474	0
829	-10.57771	-165.98868	-156.22464	86.24902	71.60296	-161.10666	14.64606	-39.86983	-132.62821	-195.2808	-189.58511	-180.63474	0
830	-5.69569	-165.98868	-161.10666	83.80801	76.48498	-163.54767	14.64606	-44.75185	-137.51023	-197.72181	-187.1441	-180.63474	0
831	-3.25468	-168.42969	-165.98868	83.80801	81.367	-168.42969	17.08707	-47.19286	-142.39225	-200.16282	-189.58511	-180.63474	0
832	-3.25468	-168.42969	-165.98868	83.80801	81.367	-168.42969	17.08707	-47.19286	-147.27427	-202.60383	-192.02612	-180.63474	0
833	-5.69569	-170.8707	-165.98868	86.24902	78.92599	-168.42969	17.08707	-47.19286	-149.71528	-202.60383	-196.90814	-180.63474	0
834	-8.1367	-173.31171	-165.98868	88.69003	78.92599	-170.8707	17.08707	-44.75185	-144.83326	-200.16282	-196.90814	-180.63474	0
835	-13.01872	-173.31171	-161.10666	91.13104	74.04397	-168.42969	14.64606	-39.86983	-139.95124	-195.2808	-196.90814	-180.63474	0
836	-15.45973	-175.75272	-161.10666	93.57205	71.60296	-168.42969	14.64606	-32.5468	-135.06922	-187.95777	-196.90814	-178.19373	0
837	-20.34175	-178.19373	-158.66565	98.45407	69.16195	-168.42969	14.64606	-30.10579	-130.1872	-183.07575	-194.46713	-178.19373	0
838	-20.34175	-178.19373	-158.66565	98.45407	69.16195	-168.42969	14.64606	-27.66478	-130.1872	-180.63474	-189.58511	-178.19373	0
839	-15.45973	-178.19373	-163.54767	96.01306	74.04397	-170.8707	17.08707	-27.66478	-130.1872	-180.63474	-187.1441	-178.19373	0
840	-10.57771	-178.19373	-168.42969	93.57205	78.92599	-173.31171	19.52808	-32.5468	-135.06922	-183.07575	-184.70309	-178.19373	0
841	-8.1367	-180.63474	-173.31171	93.57205	81.367	-178.19373	21.96909	-34.98781	-137.51023	-185.51676	-187.1441	-178.19373	0
842	-5.69569	-180.63474	-175.75272	91.13104	83.80801	-178.19373	21.96909	-34.98781	-142.39225	-190.39878	-192.02612	-178.19373	0
843	-5.69569	-180.63474	-175.75272	91.13104	83.80801	-178.19373	21.96909	-34.98781	-142.39225	-190.39878	-194.46713	-178.19373	0
844	-5.69569	-183.07575	-178.19373	93.57205	86.24902	-180.63474	24.4101	-32.5468	-139.95124	-190.39878	-196.90814	-178.19373	0
845	-10.57771	-185.51676	-175.75272	96.01306	81.367	-180.63474	24.4101	-30.10579	-137.51023	-190.39878	-196.90814	-178.19373	0
846	-15.45973	-190.39878	-175.75272	100.89508	78.92599	-183.07575	24.4101	-25.22377	-132.62821	-190.39878	-196.90814	-180.63474	0
847	-17.90074	-195.2808	-178.19373	105.7771	78.92599	-187.95777	24.4101	-20.34175	-132.62821	-190.39878	-196.90814	-183.07575	0
848	-15.45973	-195.2808	-180.63474	103.33609	81.367	-187.95777	24.4101	-20.34175	-132.62821	-190.39878	-194.46713	-183.07575	0
849	-13.01872	-197.72181	-185.51676	103.33609	86.24902	-192.83979	26.85111	-22.78276	-132.62821	-192.83979	-189.58511	-183.07575	0
850	-5.69569	-197.72181	-192.83979	100.89508	93.57205	-195.2808	26.85111	-25.22377	-135.06922	-192.83979	-187.1441	-180.63474	0
851	-5.69569	-197.72181	-192.83979	100.89508	93.57205	-195.2808	29.29212	-30.10579	-137.51023	-195.2808	-187.1441	-178.19373	0
852	-0.81367	-197.72181	-197.72181	98.45407	98.45407	-197.72181	29.29212	-30.10579	-142.39225	-197.72181	-187.1441	-175.75272	0
853	2.44101	-192.83979	-195.2808	93.57205	98.45407	-192.83979	29.29212	-30.10579	-142.39225	-197.72181	-192.02612	-173.31171	0
854	2.44101	-192.83979	-195.2808	93.57205	98.45407	-192.83979	29.29212	-27.66478	-142.39225	-195.2808	-192.02612	-173.31171	0
855	-0.81367	-192.83979	-192.83979	96.01306	96.01306	-192.83979	29.29212	-25.22377	-137.51023	-195.2808	-192.02612	-173.31171	0
856	-0.81367	-192.83979	-192.83979	96.01306	96.01306	-192.83979	29.29212	-20.34175	-135.06922	-192.83979	-192.02612	-173.31171	0
857	-3.25468	-192.83979	-190.39878	96.01306	93.57205	-192.83979	26.85111	-17.90074	-130.1872	-187.95777	-189.58511	-170.8707	0
858	-0.81367	-190.39878	-190.39878	93.57205	93.57205	-190.39878	24.4101	-13.01872	-127.74619	-185.51676	-187.1441	-168.42969	0
859	-0.81367	-190.39878	-190.39878	93.57205	93.57205	-190.39878	24.4101	-13.01872	-122.86417	-183.07575	-182.26208	-165.98868	0
860	4.88202	-187.95777	-192.83979	91.13104	98.45407	-190.39878	24.4101	-15.45973	-125.30518	-183.07575	-174.93905	-165.98868	0
861	9.76404	-183.07575	-192.83979	86.24902	100.89508	-187.95777	24.4101	-20.34175	-127.74619	-183.07575	-174.93905	-163.54767	0
862	12.20505	-183.07575	-195.2808	83.80801	103.33609	-187.95777	24.4101	-22.78276	-132.62821	-185.51676	-172.49804	-161.10666	0
863	17.08707	-180.63474	-197.72181	81.367	105.7771	-187.95777	24.4101	-22.78276	-135.06922	-185.51676	-174.93905	-161.10666	0
864	17.08707	-180.63474	-197.72181	81.367	105.7771	-187.95777	24.4101	-20.34175	-135.06922	-185.51676	-174.93905	-158.66565	0
865	17.08707	-178.19373	-195.2808	78.92599	105.7771	-185.51676	21.96909	-17.90074	-130.1872	-185.51676	-174.93905	-158.66565	0
866	17.08707	-178.19373	-195.2808	78.92599	105.7771	-185.51676	19.52808	-13.01872	-125.30518	-183.07575	-174.93905	-158.66565	0
867	14.64606	-175.75272	-190.39878	78.92599	100.89508	-183.07575	19.52808	-8.1367	-120.42316	-180.63474	-174.93905	-156.22464	0
868	14.64606	-175.75272	-190.39878	78.92599	100.89508	-183.07575	17.08707	-3.25468	-115.54114	-178.19373	-172.49804	-156.22464	0
869	14.64606	-175.75272	-190.39878	78.92599	100.89508	-183.07575	14.64606	-0.81367	-115.54114	-178.19373	-170.05703	-156.22464	0
870	17.08707	-175.75272	-192.83979	78.92599	103.33609	-183.07575	14.64606	-0.81367	-117.98215	-183.07575	-170.05703	-156.22464	0
871	19.52808	-175.75272	-195.2808	76.48498	105.7771	-185.51676	14.64606	-5.69569	-120.42316	-187.95777	-170.05703	-156.22464	0
872	19.52808	-178.19373	-197.72181	78.92599	108.21811	-187.95777	12.20505	-5.69569	-127.74619	-192.83979	-170.05703	-158.66565	0
873	19.52808	-180.63474	-200.16282	78.92599	108.21811	-190.39878	9.76404	-8.1367	-132.62821	-197.72181	-174.93905	-158.66565	0
874	17.08707	-185.51676	-202.60383	83.80801	108.21811	-192.83979	9.76404	-10.57771	-135.06922	-200.16282	-174.93905	-158.66565	0
875	12.20505	-187.95777	-200.16282	86.24902	105.7771	-192.83979	7.32303	-10.57771	-132.62821	-202.60383	-177.38006	-158.66565	0
876	9.76404	-187.95777	-197.72181	88.69003	103.33609	-192.83979	7.32303	-5.69569	-125.30518	-200.16282	-177.38006	-158.66565	0
877	7.32303	-190.39878	-197.72181	91.13104	100.89508	-192.83979	7.32303	-3.25468	-122.86417	-195.2808	-174.93905	-158.66565	0
878	7.32303	-190.39878	-197.72181	91.13104	100.89508	-192.83979	7.32303	-0.81367	-120.42316	-192.83979	-174.93905	-158.66565	0
879	7.32303	-187.95777	-195.2808	88.69003	100.89508	-190.39878	7.32303	-0.81367	-117.98215	-190.39878	-170.05703	-158.66565	0
880	9.76404	-185.51676	-195.2808	86.24902	100.89508	-190.39878	4.88202	-0.81367	-117.98215	-192.83979	-167.61602	-156.22464	0
881	14.64606	-180.63474	-195.2808	81.367	103.33609	-187.95777	4.88202	-3.25468	-117.98215	-192.83979	-162.734	-153.78363	0
882	14.64606	-180.63474	-195.2808	81.367	103.33609	-187.95777	2.44101	-5.69569	-122.86417	-195.2808	-162.734	-151.34262	0
883	14.64606	-180.63474	-195.2808	81.367	103.33609	-187.95777	-0.81367	-5.69569	-127.74619	-197.72181	-167.61602	-151.34262	0
884	14.64606	-183.07575	-197.72181	83.80801	105.7771	-190.39878	-0.81367	-5.69569	-127.74619	-197.72181	-167.61602	-151.34262	0
885	14.64606	-183.07575	-197.72181	83.80801	105.7771	-190.39878	-0.81367	-5.69569	-127.74619	-200.16282	-167.61602	-151.34262	0
886	14.64606	-183.07575	-197.72181	83.80801	105.7771	-190.39878	-0.81367	-5.69569	-125.30518	-197.72181	-167.61602	-151.34262	0
887	14.64606	-183.07575	-197.72181	83.80801	105.7771	-190.39878	-0.81367	-3.25468	-122.86417	-192.83979	-167.61602	-151.34262	0
888	14.64606	-183.07575	-197.72181	83.80801	105.7771	-190.39878	-0.81367	-0.81367	-120.42316	-190.39878	-167.61602	-151.34262	0
889	19.52808	-180.63474	-200.16282	78.92599	108.21811	-190.39878	2.44101	-0.81367	-117.98215	-190.39878	-167.61602	-151.34262	0
890	21.96909	-180.63474	-202.60383	78.92599	110.65912	-190.39878	2.44101	-5.69569	-117.98215	-192.83979	-165.17501	-151.34262	0
891	24.4101	-183.07575	-207.48585	78.92599	115.54114	-195.2808	2.44101	-8.1367	-120.42316	-197.72181	-165.17501	-151.34262	0
892	26.85111	-183.07575	-209.92686	76.48498	117.98215	-195.2808	2.44101	-10.57771	-127.74619	-200.16282	-165.17501	-151.34262	0
893	26.85111	-185.51676	-212.36787	78.92599	117.98215	-197.72181	2.44101	-13.01872	-130.1872	-202.60383	-170.05703	-151.34262	0
894	24.4101	-187.95777	-212.36787	81.367	117.98215	-200.16282	2.44101	-13.01872	-130.1872	-205.04484	-170.05703	-151.34262	0
895	21.96909	-190.39878	-212.36787	83.80801	115.54114	-200.16282	2.44101	-10.57771	-127.74619	-205.04484	-170.05703	-151.34262	0
896	19.52808	-192.83979	-212.36787	86.24902	115.54114	-202.60383	-0.81367	-8.1367	-122.86417	-200.16282	-170.05703	-151.34262	0
897	17.08707	-192.83979	-209.92686	86.24902	113.10013	-200.16282	-0.81367	-3.25468	-120.42316	-195.2808	-167.61602	-151.34262	0
898	14.64606	-195.2808	-209.92686	88.69003	110.65912	-202.60383	2.44101	-3.25468	-117.98215	-192.83979	-167.61602	-151.34262	0
899	14.64606	-195.2808	-209.92686	88.69003	110.65912	-202.60383	2.44101	-0.81367	-117.98215	-192.83979	-165.17501	-151.34262	0
900	17.08707	-195.2808	-212.36787	88.69003	113.10013	-202.60383	2.44101	-5.69569	-120.42316	-197.72181	-165.17501	-151.34262	0
901	19.52808	-197.72181	-217.24989	88.69003	117.98215	-207.48585	4.88202	-8.1367	-125.30518	-202.60383	-165.17501	-151.34262	0
902	21.96909	-197.72181	-219.6909	86.24902	120.42316	-207.48585	4.88202	-10.57771	-132.62821	-207.48585	-167.61602	-151.34262	0
903	21.96909	-197.72181	-219.6909	86.24902	120.42316	-207.48585	4.88202	-13.01872	-137.51023	-209.92686	-172.49804	-153.78363	0
904	24.4101	-197.72181	-222.13191	86.24902	122.86417	-209.92686	4.88202	-13.01872	-139.95124	-212.36787	-174.93905	-153.78363	0
905	21.96909	-197.72181	-219.6909	86.24902	120.42316	-207.48585	2.44101	-13.01872	-137.51023	-212.36787	-174.93905	-153.78363	0
906	19.52808	-197.72181	-217.24989	88.69003	117.98215	-207.48585	-0.81367	-10.57771	-132.62821	-207.48585	-174.93905	-153.78363	0
907	19.52808	-197.72181	-217.24989	88.69003	117.98215	-207.48585	-0.81367	-5.69569	-127.74619	-202.60383	-174.93905	-153.78363	0
908	19.52808	-197.72181	-217.24989	88.69003	117.98215	-207.48585	-0.81367	-3.25468	-125.30518	-197.72181	-172.49804	-151.34262	0
909	19.52808	-197.72181	-217.24989	88.69003	117.98215	-207.48585	-3.25468	-3.25468	-125.30518	-197.72181	-172.49804	-151.34262	0
910	24.4101	-197.72181	-222.13191	86.24902	122.86417	-209.92686	-3.25468	-5.69569	-125.30518	-197.72181	-170.05703	-151.34262	0
911	26.85111	-197.72181	-224.57292	83.80801	125.30518	-209.92686	-3.25468	-8.1367	-125.30518	-200.16282	-167.61602	-151.34262	0
912	29.29212	-195.2808	-224.57292	81.367	125.30518	-209.92686	-3.25468	-10.57771	-132.62821	-202.60383	-167.61602	-151.34262	0
913	26.85111	-195.2808	-222.13191	83.80801	122.86417	-207.48585	-3.25468	-13.01872	-137.51023	-205.04484	-172.49804	-151.34262	0
914	24.4101	-197.72181	-222.13191	86.24902	122.86417	-209.92686	-3.25468	-13.01872	-142.39225	-209.92686	-174.93905	-151.34262	0
915	21.96909	-197.72181	-219.6909	86.24902	120.42316	-207.48585	-5.69569	-13.01872	-142.39225	-209.92686	-174.93905	-153.78363	0
916	21.96909	-197.72181	-219.6909	86.24902	120.42316	-207.48585	-5.69569	-10.57771	-137.51023	-207.48585	-174.93905	-153.78363	0
917	19.52808	-195.2808	-214.80888	86.24902	115.54114	-205.04484	-3.25468	-8.1367	-135.06922	-205.04484	-174.93905	-153.78363	0
918	19.52808	-195.2808	-214.80888	86.24902	115.54114	-205.04484	-3.25468	-5.69569	-132.62821	-202.60383	-174.93905	-153.78363	0
919	19.52808	-192.83979	-212.36787	86.24902	115.54114	-202.60383	-3.25468	-5.69569	-132.62821	-202.60383	-172.49804	-153.78363	0
920	24.4101	-192.83979	-217.24989	83.80801	120.42316	-205.04484	-0.81367	-8.1367	-130.1872	-202.60383	-170.05703	-151.34262	0
921	26.85111	-190.39878	-217.24989	81.367	120.42316	-202.60383	2.44101	-10.57771	-132.62821	-202.60383	-167.61602	-151.34262	0
922	26.85111	-187.95777	-214.80888	78.92599	120.42316	-200.16282	2.44101	-10.57771	-137.51023	-205.04484	-170.05703	-151.34262	0
923	29.29212	-187.95777	-217.24989	78.92599	122.86417	-202.60383	-0.81367	-13.01872	-142.39225	-207.48585	-174.93905	-151.34262	0
924	29.29212	-190.39878	-219.6909	78.92599	122.86417	-205.04484	-0.81367	-13.01872	-144.83326	-212.36787	-177.38006	-151.34262	0
925	24.4101	-192.83979	-217.24989	83.80801	120.42316	-205.04484	-0.81367	-13.01872	-147.27427	-214.80888	-179.82107	-151.34262	0
926	21.96909	-192.83979	-214.80888	83.80801	117.98215	-202.60383	-0.81367	-13.01872	-147.27427	-217.24989	-182.26208	-156.22464	0
927	19.52808	-192.83979	-212.36787	86.24902	115.54114	-202.60383	-0.81367	-10.57771	-147.27427	-214.80888	-184.70309	-156.22464	0
928	19.52808	-192.83979	-212.36787	86.24902	115.54114	-202.60383	-3.25468	-8.1367	-147.27427	-212.36787	-184.70309	-156.22464	0
929	19.52808	-192.83979	-212.36787	86.24902	115.54114	-202.60383	-3.25468	-8.1367	-147.27427	-212.36787	-184.70309	-156.22464	0
930	21.96909	-192.83979	-214.80888	83.80801	117.98215	-202.60383	-3.25468	-10.57771	-147.27427	-214.80888	-182.26208	-156.22464	0
931	24.4101	-190.39878	-214.80888	81.367	117.98215	-202.60383	-3.25468	-13.01872	-147.27427	-217.24989	-182.26208	-156.22464	0
932	24.4101	-190.39878	-214.80888	81.367	117.98215	-202.60383	-3.25468	-15.45973	-152.15629	-217.24989	-182.26208	-156.22464	0
933	26.85111	-190.39878	-217.24989	81.367	120.42316	-202.60383	-0.81367	-15.45973	-154.5973	-219.6909	-184.70309	-156.22464	0
934	26.85111	-190.39878	-217.24989	81.367	120.42316	-202.60383	-0.81367	-17.90074	-157.03831	-219.6909	-184.70309	-156.22464	0
935	21.96909	-192.83979	-214.80888	83.80801	117.98215	-202.60383	2.44101	-17.90074	-154.5973	-219.6909	-184.70309	-158.66565	0
936	19.52808	-195.2808	-214.80888	86.24902	115.54114	-205.04484	2.44101	-15.45973	-149.71528	-217.24989	-184.70309	-158.66565	0
937	14.64606	-195.2808	-209.92686	88.69003	110.65912	-202.60383	2.44101	-13.01872	-149.71528	-214.80888	-184.70309	-158.66565	0
938	14.64606	-192.83979	-207.48585	88.69003	110.65912	-200.16282	2.44101	-8.1367	-144.83326	-212.36787	-182.26208	-158.66565	0
939	12.20505	-192.83979	-205.04484	88.69003	108.21811	-197.72181	4.88202	-5.69569	-142.39225	-209.92686	-177.38006	-158.66565	0
940	14.64606	-187.95777	-202.60383	86.24902	108.21811	-195.2808	7.32303	-5.69569	-139.95124	-209.92686	-172.49804	-153.78363	0
941	14.64606	-183.07575	-197.72181	83.80801	105.7771	-190.39878	9.76404	-5.69569	-139.95124	-209.92686	-170.05703	-151.34262	0
942	17.08707	-178.19373	-195.2808	78.92599	105.7771	-185.51676	14.64606	-5.69569	-142.39225	-212.36787	-165.17501	-146.4606	0
943	19.52808	-173.31171	-192.83979	76.48498	105.7771	-183.07575	19.52808	-3.25468	-139.95124	-207.48585	-165.17501	-141.57858	0
944	21.96909	-165.98868	-187.95777	71.60296	103.33609	-175.75272	21.96909	1.62734	-132.62821	-200.16282	-160.29299	-136.69656	0
945	21.96909	-158.66565	-180.63474	66.72094	100.89508	-168.42969	21.96909	4.06835	-125.30518	-195.2808	-157.85198	-131.81454	0
946	24.4101	-153.78363	-178.19373	64.27993	100.89508	-165.98868	21.96909	6.50936	-120.42316	-190.39878	-155.41097	-131.81454	0
947	24.4101	-148.90161	-173.31171	61.83892	98.45407	-161.10666	21.96909	8.95037	-115.54114	-183.07575	-152.96996	-126.93252	0
948	24.4101	-144.01959	-168.42969	59.39791	96.01306	-156.22464	19.52808	12.20505	-108.21811	-173.31171	-145.64693	-124.49151	0
949	26.85111	-136.69656	-163.54767	54.51589	93.57205	-148.90161	19.52808	14.64606	-103.33609	-168.42969	-140.76491	-122.0505	0
950	29.29212	-136.69656	-165.98868	52.07488	96.01306	-151.34262	21.96909	8.95037	-103.33609	-170.8707	-138.3239	-122.0505	0
951	31.73313	-131.81454	-163.54767	49.63387	96.01306	-146.4606	26.85111	8.95037	-105.7771	-173.31171	-138.3239	-122.0505	0
952	31.73313	-129.37353	-161.10666	47.19286	96.01306	-144.01959	29.29212	12.20505	-108.21811	-173.31171	-138.3239	-119.60949	0
953	34.17414	-129.37353	-163.54767	47.19286	98.45407	-146.4606	31.73313	17.08707	-108.21811	-170.8707	-138.3239	-117.16848	0
