samplenr	I	II	III	aVR	aVL	aVF	V1	V2	V3	V4	V5	V6	measurement
0	-6.50936	-21.15542	-15.45973	13.01872	3.25468	-19.52808	-33.36047	-83.80801	-4.88202	7.32303	45.56552	-11.39138	0
1	-6.50936	-21.15542	-15.45973	13.01872	3.25468	-19.52808	-35.80148	-83.80801	-7.32303	4.88202	45.56552	-13.83239	0
2	-6.50936	-21.15542	-15.45973	13.01872	3.25468	-19.52808	-38.24249	-78.92599	-7.32303	4.88202	43.12451	-13.83239	0
3	-6.50936	-21.15542	-15.45973	13.01872	3.25468	-19.52808	-43.12451	-78.92599	-9.76404	2.44101	43.12451	-13.83239	0
4	-6.50936	-23.59643	-17.90074	13.01872	5.69569	-21.96909	-43.12451	-78.92599	-12.20505	2.44101	40.6835	-13.83239	0
5	-8.95037	-26.03744	-17.90074	15.45973	3.25468	-21.96909	-43.12451	-78.92599	-12.20505	2.44101	40.6835	-16.2734	0
6	-8.95037	-26.03744	-17.90074	15.45973	3.25468	-21.96909	-43.12451	-81.367	-12.20505	4.88202	40.6835	-16.2734	0
7	-11.39138	-28.47845	-17.90074	17.90074	3.25468	-24.4101	-43.12451	-83.80801	-12.20505	4.88202	40.6835	-13.83239	0
8	-11.39138	-28.47845	-17.90074	17.90074	3.25468	-24.4101	-43.12451	-91.13104	-12.20505	4.88202	40.6835	-13.83239	0
9	-11.39138	-28.47845	-17.90074	17.90074	3.25468	-24.4101	-45.56552	-96.01306	-12.20505	4.88202	40.6835	-13.83239	0
10	-11.39138	-26.03744	-15.45973	17.90074	0	-21.96909	-45.56552	-98.45407	-12.20505	4.88202	40.6835	-11.39138	0
11	-11.39138	-23.59643	-13.01872	15.45973	0	-19.52808	-50.44754	-98.45407	-12.20505	2.44101	40.6835	-11.39138	0
12	-11.39138	-23.59643	-13.01872	15.45973	0	-19.52808	-52.88855	-93.57205	-14.64606	0	38.24249	-13.83239	0
13	-11.39138	-23.59643	-13.01872	15.45973	0	-19.52808	-52.88855	-91.13104	-17.08707	0	35.80148	-13.83239	0
14	-11.39138	-26.03744	-15.45973	17.90074	0	-21.96909	-52.88855	-91.13104	-17.08707	-2.44101	35.80148	-13.83239	0
15	-11.39138	-30.91946	-20.34175	20.34175	3.25468	-26.85111	-52.88855	-91.13104	-17.08707	-4.88202	33.36047	-13.83239	0
16	-13.83239	-33.36047	-20.34175	22.78276	3.25468	-26.85111	-52.88855	-93.57205	-17.08707	-4.88202	33.36047	-13.83239	0
17	-13.83239	-35.80148	-22.78276	22.78276	3.25468	-29.29212	-52.88855	-96.01306	-17.08707	-4.88202	33.36047	-16.2734	0
18	-11.39138	-35.80148	-25.22377	22.78276	5.69569	-31.73313	-52.88855	-103.33609	-17.08707	-4.88202	33.36047	-16.2734	0
19	-11.39138	-35.80148	-25.22377	22.78276	5.69569	-31.73313	-52.88855	-108.21811	-17.08707	-4.88202	33.36047	-16.2734	0
20	-11.39138	-38.24249	-27.66478	22.78276	8.1367	-34.17414	-55.32956	-108.21811	-14.64606	-4.88202	33.36047	-16.2734	0
21	-11.39138	-38.24249	-27.66478	22.78276	8.1367	-34.17414	-57.77057	-108.21811	-14.64606	-7.32303	33.36047	-16.2734	0
22	-11.39138	-38.24249	-27.66478	22.78276	8.1367	-34.17414	-60.21158	-103.33609	-14.64606	-7.32303	33.36047	-16.2734	0
23	-13.83239	-38.24249	-25.22377	25.22377	5.69569	-31.73313	-62.65259	-98.45407	-17.08707	-7.32303	33.36047	-16.2734	0
24	-16.2734	-40.6835	-25.22377	27.66478	3.25468	-34.17414	-62.65259	-98.45407	-19.52808	-7.32303	33.36047	-16.2734	0
25	-18.71441	-43.12451	-25.22377	30.10579	3.25468	-34.17414	-65.0936	-98.45407	-21.96909	-7.32303	33.36047	-16.2734	0
26	-18.71441	-43.12451	-25.22377	30.10579	3.25468	-34.17414	-65.0936	-100.89508	-21.96909	-7.32303	33.36047	-16.2734	0
27	-18.71441	-43.12451	-25.22377	30.10579	3.25468	-34.17414	-65.0936	-103.33609	-21.96909	-7.32303	33.36047	-16.2734	0
28	-18.71441	-43.12451	-25.22377	30.10579	3.25468	-34.17414	-65.0936	-110.65912	-21.96909	-7.32303	33.36047	-13.83239	0
29	-18.71441	-40.6835	-22.78276	27.66478	0	-31.73313	-67.53461	-115.54114	-21.96909	-7.32303	33.36047	-11.39138	0
30	-18.71441	-38.24249	-20.34175	27.66478	0	-29.29212	-69.97562	-117.98215	-19.52808	-4.88202	33.36047	-8.95037	0
31	-18.71441	-38.24249	-20.34175	27.66478	0	-29.29212	-72.41663	-115.54114	-19.52808	-4.88202	35.80148	-8.95037	0
32	-21.15542	-38.24249	-17.90074	27.66478	-2.44101	-29.29212	-72.41663	-110.65912	-19.52808	-2.44101	35.80148	-6.50936	0
33	-23.59643	-40.6835	-17.90074	30.10579	-4.88202	-29.29212	-74.85764	-108.21811	-19.52808	-2.44101	35.80148	-6.50936	0
34	-23.59643	-43.12451	-20.34175	32.5468	-2.44101	-31.73313	-74.85764	-105.7771	-19.52808	-2.44101	35.80148	-6.50936	0
35	-26.03744	-45.56552	-20.34175	34.98781	-4.88202	-34.17414	-72.41663	-105.7771	-19.52808	0	38.24249	-6.50936	0
36	-28.47845	-48.00653	-20.34175	37.42882	-4.88202	-34.17414	-72.41663	-108.21811	-19.52808	0	38.24249	-6.50936	0
37	-30.91946	-48.00653	-17.90074	37.42882	-7.32303	-34.17414	-69.97562	-110.65912	-19.52808	0	38.24249	-4.06835	0
38	-30.91946	-50.44754	-20.34175	39.86983	-7.32303	-36.61515	-69.97562	-115.54114	-19.52808	2.44101	38.24249	-1.62734	0
39	-33.36047	-50.44754	-17.90074	39.86983	-9.76404	-34.17414	-72.41663	-120.42316	-19.52808	2.44101	38.24249	-1.62734	0
40	-33.36047	-45.56552	-13.01872	37.42882	-12.20505	-29.29212	-74.85764	-122.86417	-19.52808	0	38.24249	-1.62734	0
41	-30.91946	-45.56552	-15.45973	37.42882	-9.76404	-31.73313	-79.73966	-122.86417	-21.96909	0	35.80148	-1.62734	0
42	-30.91946	-45.56552	-15.45973	37.42882	-9.76404	-31.73313	-84.62168	-120.42316	-24.4101	-4.88202	35.80148	-1.62734	0
43	-28.47845	-43.12451	-15.45973	34.98781	-7.32303	-29.29212	-84.62168	-117.98215	-26.85111	-4.88202	33.36047	-4.06835	0
44	-28.47845	-43.12451	-15.45973	34.98781	-7.32303	-29.29212	-84.62168	-113.10013	-26.85111	-7.32303	33.36047	-4.06835	0
45	-28.47845	-43.12451	-15.45973	34.98781	-7.32303	-29.29212	-82.18067	-113.10013	-26.85111	-4.88202	33.36047	-4.06835	0
46	-26.03744	-45.56552	-20.34175	34.98781	-4.88202	-34.17414	-79.73966	-113.10013	-26.85111	-4.88202	33.36047	-4.06835	0
47	-26.03744	-48.00653	-22.78276	34.98781	-2.44101	-36.61515	-77.29865	-115.54114	-26.85111	-4.88202	33.36047	-4.06835	0
48	-26.03744	-50.44754	-25.22377	37.42882	-2.44101	-39.05616	-72.41663	-122.86417	-24.4101	-2.44101	33.36047	-4.06835	0
49	-28.47845	-52.88855	-25.22377	39.86983	-2.44101	-39.05616	-72.41663	-130.1872	-19.52808	-2.44101	35.80148	-4.06835	0
50	-28.47845	-55.32956	-27.66478	39.86983	-2.44101	-41.49717	-72.41663	-130.1872	-19.52808	-2.44101	35.80148	-4.06835	0
51	-28.47845	-57.77057	-30.10579	42.31084	0	-43.93818	-74.85764	-130.1872	-17.08707	-2.44101	35.80148	-6.50936	0
52	-30.91946	-60.21158	-30.10579	44.75185	-2.44101	-46.37919	-74.85764	-125.30518	-19.52808	-2.44101	33.36047	-6.50936	0
53	-33.36047	-60.21158	-27.66478	44.75185	-4.88202	-43.93818	-74.85764	-122.86417	-19.52808	-2.44101	33.36047	-6.50936	0
54	-33.36047	-62.65259	-30.10579	47.19286	-2.44101	-46.37919	-74.85764	-120.42316	-19.52808	-4.88202	33.36047	-6.50936	0
55	-33.36047	-65.0936	-32.5468	47.19286	-2.44101	-48.8202	-74.85764	-117.98215	-21.96909	-4.88202	30.91946	-6.50936	0
56	-33.36047	-65.0936	-32.5468	47.19286	-2.44101	-48.8202	-74.85764	-117.98215	-21.96909	-7.32303	27.66478	-8.95037	0
57	-33.36047	-65.0936	-32.5468	47.19286	-2.44101	-48.8202	-74.85764	-122.86417	-24.4101	-10.57771	27.66478	-11.39138	0
58	-33.36047	-62.65259	-30.10579	47.19286	-2.44101	-46.37919	-74.85764	-132.62821	-26.85111	-13.01872	25.22377	-13.83239	0
59	-33.36047	-60.21158	-27.66478	44.75185	-4.88202	-43.93818	-77.29865	-137.51023	-26.85111	-15.45973	22.78276	-16.2734	0
60	-33.36047	-57.77057	-25.22377	44.75185	-4.88202	-41.49717	-79.73966	-139.95124	-26.85111	-15.45973	20.34175	-16.2734	0
61	-33.36047	-55.32956	-22.78276	42.31084	-7.32303	-39.05616	-82.18067	-137.51023	-26.85111	-15.45973	17.90074	-16.2734	0
62	-33.36047	-52.88855	-20.34175	42.31084	-7.32303	-36.61515	-82.18067	-132.62821	-29.29212	-15.45973	17.90074	-16.2734	0
63	-30.91946	-52.88855	-22.78276	39.86983	-4.88202	-39.05616	-82.18067	-127.74619	-29.29212	-13.01872	22.78276	-11.39138	0
64	-28.47845	-50.44754	-22.78276	37.42882	-4.88202	-36.61515	-79.73966	-122.86417	-26.85111	-10.57771	25.22377	-8.95037	0
65	-28.47845	-48.00653	-20.34175	37.42882	-4.88202	-34.17414	-74.85764	-117.98215	-21.96909	-7.32303	27.66478	-4.06835	0
66	-26.03744	-45.56552	-20.34175	34.98781	-4.88202	-34.17414	-69.97562	-113.10013	-17.08707	-4.88202	30.91946	-1.62734	0
67	-23.59643	-40.6835	-17.90074	30.10579	-4.88202	-29.29212	-67.53461	-108.21811	-12.20505	0	35.80148	1.62734	0
68	-21.15542	-35.80148	-15.45973	27.66478	-4.88202	-26.85111	-62.65259	-110.65912	-4.88202	4.88202	40.6835	6.50936	0
69	-21.15542	-28.47845	-8.1367	22.78276	-7.32303	-19.52808	-60.21158	-110.65912	0	9.76404	45.56552	11.39138	0
70	-18.71441	-21.15542	-3.25468	17.90074	-9.76404	-12.20505	-57.77057	-105.7771	8.1367	17.08707	52.88855	18.71441	0
71	-18.71441	-16.2734	2.44101	15.45973	-12.20505	-7.32303	-52.88855	-100.89508	13.01872	24.4101	57.77057	23.59643	0
72	-21.15542	-13.83239	7.32303	15.45973	-14.64606	-4.88202	-50.44754	-93.57205	17.90074	26.85111	62.65259	26.03744	0
73	-21.15542	-11.39138	9.76404	15.45973	-17.08707	-2.44101	-45.56552	-86.24902	17.90074	29.29212	67.53461	28.47845	0
74	-21.15542	-11.39138	9.76404	15.45973	-17.08707	-2.44101	-40.6835	-78.92599	20.34175	29.29212	67.53461	28.47845	0
75	-21.15542	-8.95037	12.20505	13.01872	-17.08707	0	-35.80148	-74.04397	22.78276	29.29212	67.53461	28.47845	0
76	-21.15542	-11.39138	9.76404	15.45973	-17.08707	-2.44101	-33.36047	-74.04397	20.34175	26.85111	65.0936	26.03744	0
77	-21.15542	-11.39138	9.76404	15.45973	-17.08707	-2.44101	-35.80148	-74.04397	15.45973	19.52808	60.21158	21.15542	0
78	-18.71441	-11.39138	7.32303	13.01872	-14.64606	-2.44101	-40.6835	-76.48498	13.01872	14.64606	52.88855	16.2734	0
79	-13.83239	-11.39138	2.44101	10.57771	-9.76404	-4.88202	-48.00653	-81.367	10.57771	7.32303	48.00653	11.39138	0
80	-13.83239	-11.39138	2.44101	10.57771	-9.76404	-4.88202	-55.32956	-86.24902	5.69569	4.88202	43.12451	8.95037	0
81	-13.83239	-11.39138	2.44101	10.57771	-9.76404	-4.88202	-62.65259	-88.69003	0	0	38.24249	4.06835	0
82	-11.39138	-11.39138	-0.81367	10.57771	-7.32303	-7.32303	-67.53461	-88.69003	-2.44101	-4.88202	33.36047	-1.62734	0
83	-8.95037	-13.83239	-5.69569	10.57771	-2.44101	-9.76404	-69.97562	-86.24902	-7.32303	-10.57771	27.66478	-1.62734	0
84	-8.95037	-16.2734	-8.1367	10.57771	-2.44101	-12.20505	-69.97562	-86.24902	-9.76404	-13.01872	27.66478	-4.06835	0
85	-8.95037	-16.2734	-8.1367	10.57771	-2.44101	-12.20505	-69.97562	-88.69003	-14.64606	-15.45973	22.78276	-6.50936	0
86	-11.39138	-18.71441	-8.1367	13.01872	-2.44101	-14.64606	-69.97562	-91.13104	-19.52808	-20.34175	20.34175	-8.95037	0
87	-8.95037	-18.71441	-10.57771	13.01872	0	-14.64606	-74.85764	-96.01306	-21.96909	-22.78276	15.45973	-11.39138	0
88	-8.95037	-18.71441	-10.57771	13.01872	0	-14.64606	-77.29865	-105.7771	-26.85111	-27.66478	13.01872	-16.2734	0
89	-4.06835	-16.2734	-13.01872	8.1367	3.25468	-14.64606	-79.73966	-110.65912	-29.29212	-30.10579	8.1367	-21.15542	0
90	-1.62734	-13.83239	-13.01872	5.69569	5.69569	-14.64606	-84.62168	-117.98215	-31.73313	-32.5468	5.69569	-26.03744	0
91	0.81367	-11.39138	-13.01872	3.25468	5.69569	-12.20505	-91.94471	-120.42316	-34.17414	-34.98781	3.25468	-30.91946	0
92	6.50936	-11.39138	-17.90074	0.81367	10.57771	-14.64606	-94.38572	-120.42316	-36.61515	-34.98781	0.81367	-33.36047	0
93	8.95037	-8.95037	-17.90074	-2.44101	13.01872	-12.20505	-96.82673	-117.98215	-36.61515	-34.98781	0.81367	-33.36047	0
94	11.39138	-6.50936	-17.90074	-2.44101	13.01872	-12.20505	-94.38572	-115.54114	-36.61515	-34.98781	3.25468	-33.36047	0
95	8.95037	-8.95037	-17.90074	-2.44101	13.01872	-12.20505	-91.94471	-117.98215	-36.61515	-32.5468	5.69569	-26.03744	0
96	6.50936	-13.83239	-20.34175	3.25468	13.01872	-17.08707	-89.5037	-120.42316	-36.61515	-30.10579	8.1367	-21.15542	0
97	6.50936	-18.71441	-25.22377	5.69569	15.45973	-21.96909	-87.06269	-122.86417	-36.61515	-25.22377	13.01872	-16.2734	0
98	4.06835	-21.15542	-25.22377	8.1367	13.01872	-21.96909	-87.06269	-127.74619	-36.61515	-22.78276	15.45973	-13.83239	0
99	4.06835	-23.59643	-27.66478	8.1367	15.45973	-24.4101	-84.62168	-132.62821	-34.17414	-20.34175	17.90074	-8.95037	0
100	0.81367	-23.59643	-25.22377	10.57771	13.01872	-24.4101	-82.18067	-130.1872	-29.29212	-17.90074	20.34175	-4.06835	1000	P+0
101	0.81367	-26.03744	-27.66478	10.57771	13.01872	-26.85111	-77.29865	-125.30518	-26.85111	-13.01872	25.22377	-1.62734	0
102	0.81367	-26.03744	-27.66478	10.57771	13.01872	-26.85111	-72.41663	-117.98215	-21.96909	-10.57771	27.66478	1.62734	0
103	0.81367	-26.03744	-27.66478	10.57771	13.01872	-26.85111	-65.0936	-110.65912	-17.08707	-7.32303	30.91946	4.06835	0
104	-1.62734	-26.03744	-25.22377	13.01872	10.57771	-26.85111	-57.77057	-103.33609	-14.64606	-7.32303	30.91946	6.50936	0
105	-4.06835	-30.91946	-27.66478	15.45973	10.57771	-29.29212	-50.44754	-98.45407	-12.20505	-4.88202	33.36047	8.95037	0
106	-6.50936	-35.80148	-30.10579	20.34175	10.57771	-34.17414	-45.56552	-96.01306	-9.76404	-4.88202	33.36047	8.95037	0
107	-11.39138	-40.6835	-30.10579	25.22377	8.1367	-36.61515	-45.56552	-96.01306	-7.32303	-4.88202	33.36047	8.95037	0
108	-18.71441	-48.00653	-30.10579	32.5468	5.69569	-39.05616	-48.00653	-105.7771	-7.32303	-2.44101	33.36047	8.95037	0
109	-26.03744	-52.88855	-27.66478	37.42882	0	-41.49717	-50.44754	-113.10013	-7.32303	-2.44101	33.36047	8.95037	0
110	-33.36047	-57.77057	-25.22377	44.75185	-4.88202	-41.49717	-52.88855	-117.98215	-7.32303	-2.44101	33.36047	8.95037	0
111	-38.24249	-62.65259	-25.22377	49.63387	-7.32303	-43.93818	-52.88855	-122.86417	-7.32303	-2.44101	33.36047	11.39138	0
112	-40.6835	-65.0936	-25.22377	52.07488	-9.76404	-46.37919	-48.00653	-122.86417	-7.32303	-2.44101	33.36047	13.83239	0
113	-43.12451	-69.97562	-27.66478	54.51589	-9.76404	-48.8202	-40.6835	-122.86417	-7.32303	-4.88202	33.36047	13.83239	0
114	-43.12451	-74.85764	-32.5468	56.9569	-7.32303	-53.70222	-35.80148	-120.42316	-7.32303	-4.88202	33.36047	11.39138	0
115	-43.12451	-79.73966	-37.42882	59.39791	-4.88202	-58.58424	-30.91946	-117.98215	-7.32303	-7.32303	30.91946	8.95037	0
116	-40.6835	-84.62168	-44.75185	61.83892	0	-65.90727	-28.47845	-117.98215	-7.32303	-10.57771	30.91946	8.95037	0
117	-40.6835	-89.5037	-49.63387	64.27993	3.25468	-70.78929	-30.91946	-117.98215	-9.76404	-10.57771	27.66478	6.50936	0
118	-38.24249	-89.5037	-52.07488	61.83892	5.69569	-70.78929	-35.80148	-122.86417	-9.76404	-10.57771	27.66478	6.50936	0
119	-38.24249	-89.5037	-52.07488	61.83892	5.69569	-70.78929	-43.12451	-125.30518	-9.76404	-10.57771	27.66478	8.95037	0
120	-38.24249	-87.06269	-49.63387	61.83892	5.69569	-68.34828	-48.00653	-127.74619	-9.76404	-10.57771	30.91946	8.95037	0
121	-38.24249	-84.62168	-47.19286	59.39791	3.25468	-65.90727	-48.00653	-127.74619	-9.76404	-10.57771	30.91946	11.39138	0
122	-38.24249	-82.18067	-44.75185	59.39791	3.25468	-63.46626	-48.00653	-120.42316	-9.76404	-10.57771	30.91946	11.39138	0
123	-38.24249	-79.73966	-42.31084	56.9569	0	-61.02525	-43.12451	-115.54114	-7.32303	-10.57771	30.91946	11.39138	0
124	-40.6835	-79.73966	-39.86983	59.39791	-2.44101	-61.02525	-35.80148	-105.7771	-7.32303	-10.57771	27.66478	11.39138	0
125	-40.6835	-79.73966	-39.86983	59.39791	-2.44101	-61.02525	-28.47845	-103.33609	-7.32303	-13.01872	27.66478	8.95037	0
126	-40.6835	-79.73966	-39.86983	59.39791	-2.44101	-61.02525	-26.03744	-98.45407	-4.88202	-13.01872	27.66478	8.95037	0
127	-43.12451	-82.18067	-39.86983	61.83892	-2.44101	-61.02525	-26.03744	-98.45407	-4.88202	-13.01872	27.66478	6.50936	0
128	-43.12451	-82.18067	-39.86983	61.83892	-2.44101	-61.02525	-28.47845	-100.89508	-2.44101	-13.01872	27.66478	6.50936	0
129	-43.12451	-82.18067	-39.86983	61.83892	-2.44101	-61.02525	-33.36047	-105.7771	-2.44101	-10.57771	27.66478	6.50936	0
130	-43.12451	-79.73966	-37.42882	59.39791	-4.88202	-58.58424	-38.24249	-108.21811	-2.44101	-10.57771	27.66478	6.50936	0
131	-40.6835	-79.73966	-39.86983	59.39791	-2.44101	-61.02525	-40.6835	-110.65912	-2.44101	-13.01872	25.22377	6.50936	0
132	-40.6835	-77.29865	-37.42882	56.9569	-2.44101	-58.58424	-40.6835	-110.65912	-2.44101	-13.01872	25.22377	6.50936	0
133	-40.6835	-77.29865	-37.42882	56.9569	-2.44101	-58.58424	-35.80148	-105.7771	-4.88202	-13.01872	25.22377	4.06835	0
134	-40.6835	-77.29865	-37.42882	56.9569	-2.44101	-58.58424	-30.91946	-100.89508	-4.88202	-15.45973	22.78276	4.06835	0
135	-40.6835	-77.29865	-37.42882	56.9569	-2.44101	-58.58424	-26.03744	-96.01306	-4.88202	-17.90074	22.78276	6.50936	0
136	-40.6835	-77.29865	-37.42882	56.9569	-2.44101	-58.58424	-23.59643	-93.57205	-4.88202	-17.90074	22.78276	6.50936	0
137	-40.6835	-79.73966	-39.86983	59.39791	-2.44101	-61.02525	-21.15542	-91.13104	-2.44101	-17.90074	22.78276	6.50936	0
138	-43.12451	-82.18067	-39.86983	61.83892	-2.44101	-61.02525	-21.15542	-93.57205	0	-15.45973	25.22377	6.50936	0
139	-43.12451	-82.18067	-39.86983	61.83892	-2.44101	-61.02525	-23.59643	-96.01306	0	-10.57771	27.66478	8.95037	0
140	-43.12451	-82.18067	-39.86983	61.83892	-2.44101	-61.02525	-26.03744	-100.89508	3.25468	-7.32303	30.91946	8.95037	0
141	-48.00653	-79.73966	-32.5468	61.83892	-9.76404	-56.14323	-26.03744	-103.33609	5.69569	-4.88202	35.80148	8.95037	0
142	-50.44754	-79.73966	-30.10579	64.27993	-12.20505	-56.14323	-23.59643	-105.7771	8.1367	0	38.24249	8.95037	0
143	-55.32956	-74.85764	-20.34175	64.27993	-19.52808	-48.8202	-16.2734	-113.10013	10.57771	4.88202	43.12451	8.95037	0
144	-60.21158	-67.53461	-8.1367	61.83892	-26.85111	-39.05616	-8.95037	-120.42316	15.45973	9.76404	48.00653	6.50936	0
145	-62.65259	-60.21158	2.44101	59.39791	-34.17414	-29.29212	-1.62734	-130.1872	20.34175	9.76404	48.00653	6.50936	0
146	-67.53461	-52.88855	14.64606	59.39791	-41.49717	-19.52808	5.69569	-132.62821	22.78276	12.20505	50.44754	4.06835	0
147	-65.0936	-52.88855	12.20505	56.9569	-39.05616	-21.96909	5.69569	-137.51023	22.78276	9.76404	48.00653	-1.62734	0
148	-55.32956	-48.00653	7.32303	49.63387	-31.73313	-21.96909	-4.06835	-147.27427	17.90074	2.44101	43.12451	-6.50936	0
149	-40.6835	-43.12451	-3.25468	39.86983	-19.52808	-24.4101	-23.59643	-166.80235	5.69569	-7.32303	33.36047	-13.83239	0
150	-18.71441	-38.24249	-20.34175	27.66478	0	-29.29212	-50.44754	-188.77144	-14.64606	-20.34175	17.90074	-28.47845	0
151	8.95037	-30.91946	-39.86983	10.57771	22.78276	-34.17414	-89.5037	-215.62255	-46.37919	-44.75185	-6.50936	-45.56552	0
152	48.00653	-16.2734	-64.27993	-17.08707	54.51589	-39.05616	-135.88289	-247.35568	-85.43535	-74.04397	-35.80148	-67.53461	0
153	91.94471	8.95037	-83.80801	-51.26121	88.69003	-36.61515	-189.58511	-293.73487	-131.81454	-105.7771	-67.53461	-94.38572	0
154	135.88289	45.56552	-91.13104	-90.31737	113.10013	-21.96909	-257.93339	-359.64214	-185.51676	-144.83326	-104.14976	-121.23683	0
155	179.82107	91.94471	-88.69003	-136.69656	135.06922	3.25468	-336.04571	-445.07749	-244.101	-181.44841	-143.20592	-148.08794	0
156	226.20026	145.64693	-81.367	-185.51676	154.5973	32.5468	-419.04005	-530.51284	-302.68524	-218.06356	-177.38006	-174.93905	0
157	270.13844	206.67218	-64.27993	-239.21898	166.80235	71.60296	-499.59338	-611.06617	-353.94645	-247.35568	-209.11319	-194.46713	0
158	309.1946	262.81541	-47.19286	-285.59817	179.0074	108.21811	-575.26469	-694.06051	-400.32564	-274.20679	-233.52329	-213.99521	0
159	340.92773	301.87157	-39.86983	-322.21332	191.21245	132.62821	-643.61297	-762.40879	-439.3818	-298.61689	-257.93339	-231.08228	0
160	370.21985	328.72268	-42.31084	-349.06443	205.85851	144.83326	-694.87418	-803.90596	-468.67392	-315.70396	-277.46147	-243.28733	0
161	392.18894	343.36874	-49.63387	-368.59251	220.50457	147.27427	-731.48933	-803.90596	-488.202	-327.90901	-292.10753	-250.61036	0
162	406.835	350.69177	-56.9569	-378.35655	232.70962	147.27427	-741.25337	-769.73182	-490.64301	-332.79103	-294.54854	-253.05137	0
163	404.39399	338.48672	-66.72094	-371.03352	235.15063	137.51023	-736.37135	-718.47061	-483.31998	-327.90901	-292.10753	-245.72834	0
164	389.74793	314.07662	-76.48498	-351.50544	232.70962	120.42316	-716.84327	-664.76839	-471.11493	-318.14497	-279.90248	-233.52329	0
165	360.45581	282.34349	-78.92599	-322.21332	220.50457	103.33609	-687.55115	-606.18415	-454.02786	-301.0579	-260.3744	-213.99521	0
166	316.51763	243.28733	-74.04397	-280.71615	196.09447	86.24902	-653.37701	-550.04092	-434.49978	-276.6478	-238.40531	-189.58511	0
167	260.3744	182.26208	-78.92599	-222.13191	169.24336	52.07488	-611.87984	-501.22072	-417.41271	-254.67871	-213.99521	-165.17501	0
168	189.58511	101.70875	-88.69003	-146.4606	139.95124	8.1367	-563.05964	-479.25163	-397.88463	-230.26861	-189.58511	-140.76491	0
169	118.79582	18.71441	-100.89508	-68.34828	110.65912	-41.49717	-521.56247	-476.81062	-385.67958	-213.18154	-170.05703	-121.23683	0
170	50.44754	-62.65259	-113.10013	5.69569	81.367	-87.87636	-482.50631	-486.57466	-373.47453	-196.09447	-152.96996	-101.70875	0
171	-6.50936	-131.00087	-125.30518	66.72094	59.39791	-129.37353	-441.00914	-493.89769	-358.82847	-181.44841	-138.3239	-87.06269	0
172	-55.32956	-182.26208	-127.74619	117.98215	34.98781	-156.22464	-399.51197	-506.10274	-339.30039	-166.80235	-123.67784	-72.41663	0
173	-89.5037	-206.67218	-117.98215	147.27427	13.01872	-163.54767	-355.57379	-518.30779	-312.44928	-147.27427	-104.14976	-57.77057	0
174	-106.59077	-204.23117	-98.45407	154.5973	-4.88202	-151.34262	-311.63561	-518.30779	-278.27514	-130.1872	-87.06269	-45.56552	0
175	-111.47279	-187.1441	-76.48498	147.27427	-19.52808	-131.81454	-272.57945	-513.42577	-246.54201	-113.10013	-72.41663	-38.24249	0
176	-111.47279	-167.61602	-56.9569	137.51023	-29.29212	-112.28646	-231.08228	-501.22072	-212.36787	-96.01306	-55.32956	-30.91946	0
177	-106.59077	-148.08794	-42.31084	125.30518	-34.17414	-95.19939	-194.46713	-489.01567	-175.75272	-78.92599	-40.6835	-21.15542	0
178	-104.14976	-133.44188	-30.10579	117.98215	-39.05616	-82.99434	-160.29299	-484.13365	-146.4606	-66.72094	-26.03744	-13.83239	0
179	-101.70875	-121.23683	-20.34175	110.65912	-41.49717	-70.78929	-133.44188	-479.25163	-117.16848	-52.07488	-11.39138	-6.50936	0
180	-101.70875	-113.9138	-13.01872	105.7771	-46.37919	-63.46626	-111.47279	-479.25163	-95.19939	-42.31084	0.81367	-1.62734	0
181	-104.14976	-111.47279	-8.1367	105.7771	-48.8202	-61.02525	-89.5037	-479.25163	-73.2303	-30.10579	13.01872	6.50936	0
182	-106.59077	-109.03178	-3.25468	105.7771	-53.70222	-56.14323	-69.97562	-469.48759	-53.70222	-20.34175	22.78276	11.39138	0
183	-106.59077	-106.59077	-0.81367	105.7771	-53.70222	-53.70222	-50.44754	-454.84153	-41.49717	-13.01872	27.66478	16.2734	0
184	-111.47279	-106.59077	4.88202	108.21811	-58.58424	-51.26121	-30.91946	-437.75446	-31.73313	-7.32303	33.36047	18.71441	0
185	-111.47279	-104.14976	7.32303	105.7771	-61.02525	-48.8202	-18.71441	-420.66739	-24.4101	-2.44101	35.80148	18.71441	0
186	-116.35481	-104.14976	12.20505	108.21811	-65.90727	-46.37919	-6.50936	-408.46234	-19.52808	0	38.24249	21.15542	0
187	-118.79582	-106.59077	12.20505	110.65912	-65.90727	-48.8202	-1.62734	-396.25729	-14.64606	2.44101	38.24249	21.15542	0
188	-118.79582	-111.47279	7.32303	113.10013	-63.46626	-53.70222	0.81367	-391.37527	-12.20505	2.44101	38.24249	18.71441	0
189	-121.23683	-113.9138	7.32303	115.54114	-65.90727	-53.70222	0.81367	-388.93426	-9.76404	2.44101	40.6835	18.71441	0
190	-121.23683	-113.9138	7.32303	115.54114	-65.90727	-53.70222	0.81367	-384.05224	-7.32303	4.88202	43.12451	18.71441	0
191	-123.67784	-113.9138	9.76404	117.98215	-68.34828	-53.70222	0.81367	-376.72921	-4.88202	7.32303	45.56552	21.15542	0
192	-123.67784	-113.9138	9.76404	117.98215	-68.34828	-53.70222	3.25468	-369.40618	-2.44101	9.76404	50.44754	23.59643	0
193	-123.67784	-113.9138	9.76404	117.98215	-68.34828	-53.70222	10.57771	-359.64214	0	14.64606	55.32956	28.47845	0
194	-123.67784	-116.35481	7.32303	117.98215	-65.90727	-56.14323	18.71441	-347.43709	8.1367	19.52808	60.21158	33.36047	0
195	-126.11885	-116.35481	9.76404	120.42316	-68.34828	-53.70222	28.47845	-340.11406	10.57771	21.96909	62.65259	35.80148	0
196	-126.11885	-116.35481	9.76404	120.42316	-68.34828	-53.70222	33.36047	-330.35002	13.01872	21.96909	62.65259	38.24249	0
197	-126.11885	-116.35481	9.76404	120.42316	-68.34828	-53.70222	38.24249	-325.468	15.45973	24.4101	62.65259	38.24249	0
198	-123.67784	-116.35481	7.32303	117.98215	-65.90727	-56.14323	38.24249	-320.58598	17.90074	21.96909	62.65259	35.80148	0
199	-121.23683	-116.35481	4.88202	117.98215	-63.46626	-56.14323	38.24249	-315.70396	17.90074	19.52808	60.21158	30.91946	0
200	-121.23683	-116.35481	4.88202	117.98215	-63.46626	-56.14323	38.24249	-310.82194	20.34175	17.08707	60.21158	28.47845	0
201	-121.23683	-113.9138	7.32303	115.54114	-65.90727	-53.70222	38.24249	-303.49891	20.34175	17.08707	57.77057	26.03744	0
202	-118.79582	-113.9138	4.88202	115.54114	-63.46626	-56.14323	40.6835	-291.29386	22.78276	17.08707	57.77057	26.03744	0
203	-116.35481	-113.9138	2.44101	113.10013	-61.02525	-56.14323	48.00653	-279.08881	27.66478	17.08707	60.21158	23.59643	0
204	-116.35481	-111.47279	4.88202	113.10013	-61.02525	-53.70222	57.77057	-266.88376	30.10579	19.52808	60.21158	23.59643	0
205	-116.35481	-111.47279	4.88202	113.10013	-61.02525	-53.70222	65.0936	-254.67871	34.98781	21.96909	62.65259	21.15542	0
206	-116.35481	-111.47279	4.88202	113.10013	-61.02525	-53.70222	72.41663	-244.91467	37.42882	24.4101	65.0936	23.59643	0
207	-113.9138	-111.47279	2.44101	110.65912	-58.58424	-56.14323	74.85764	-237.59164	39.86983	26.85111	67.53461	23.59643	0
208	-113.9138	-111.47279	2.44101	110.65912	-58.58424	-56.14323	74.85764	-232.70962	42.31084	26.85111	67.53461	23.59643	0
209	-113.9138	-109.03178	4.88202	110.65912	-61.02525	-53.70222	74.85764	-227.8276	44.75185	26.85111	69.97562	23.59643	0
210	-111.47279	-106.59077	4.88202	108.21811	-58.58424	-51.26121	72.41663	-220.50457	47.19286	29.29212	72.41663	23.59643	0
211	-111.47279	-104.14976	7.32303	105.7771	-61.02525	-48.8202	72.41663	-210.74053	49.63387	31.73313	72.41663	23.59643	0
212	-109.03178	-101.70875	7.32303	103.33609	-58.58424	-48.8202	74.85764	-198.53548	52.07488	31.73313	74.85764	23.59643	0
213	-109.03178	-101.70875	7.32303	103.33609	-58.58424	-48.8202	79.73966	-181.44841	54.51589	34.17414	77.29865	26.03744	0
214	-109.03178	-99.26774	9.76404	103.33609	-61.02525	-46.37919	89.5037	-166.80235	56.9569	34.17414	77.29865	28.47845	0
215	-109.03178	-99.26774	9.76404	103.33609	-61.02525	-46.37919	96.82673	-152.15629	59.39791	34.17414	77.29865	30.91946	0
216	-109.03178	-99.26774	9.76404	103.33609	-61.02525	-46.37919	104.14976	-137.51023	64.27993	36.61515	79.73966	33.36047	0
217	-109.03178	-101.70875	7.32303	103.33609	-58.58424	-48.8202	106.59077	-125.30518	66.72094	39.05616	79.73966	38.24249	0
218	-106.59077	-101.70875	4.88202	103.33609	-56.14323	-48.8202	109.03178	-115.54114	69.16195	39.05616	82.18067	38.24249	0
219	-104.14976	-101.70875	2.44101	100.89508	-53.70222	-51.26121	109.03178	-103.33609	71.60296	39.05616	82.18067	38.24249	0
220	-101.70875	-99.26774	2.44101	98.45407	-53.70222	-48.8202	109.03178	-91.13104	76.48498	41.49717	87.06269	40.6835	0
221	-101.70875	-96.82673	4.88202	98.45407	-53.70222	-46.37919	111.47279	-78.92599	81.367	46.37919	91.94471	45.56552	0
222	-101.70875	-91.94471	9.76404	96.01306	-56.14323	-41.49717	113.9138	-61.02525	83.80801	48.8202	91.94471	45.56552	0
223	-101.70875	-89.5037	12.20505	93.57205	-58.58424	-39.05616	121.23683	-41.49717	86.24902	48.8202	91.94471	45.56552	0
224	-101.70875	-87.06269	14.64606	93.57205	-58.58424	-36.61515	128.55986	-19.52808	88.69003	48.8202	94.38572	45.56552	0
225	-101.70875	-87.06269	14.64606	93.57205	-58.58424	-36.61515	135.88289	-2.44101	91.13104	51.26121	94.38572	45.56552	0
226	-96.82673	-87.06269	9.76404	91.13104	-53.70222	-39.05616	143.20592	14.64606	93.57205	51.26121	94.38572	45.56552	0
227	-91.94471	-87.06269	4.88202	88.69003	-48.8202	-41.49717	145.64693	31.73313	93.57205	51.26121	91.94471	43.12451	0
228	-89.5037	-84.62168	4.88202	86.24902	-48.8202	-41.49717	148.08794	46.37919	96.01306	51.26121	91.94471	43.12451	0
229	-89.5037	-84.62168	4.88202	86.24902	-48.8202	-41.49717	148.08794	61.02525	98.45407	51.26121	94.38572	43.12451	0
230	-87.06269	-84.62168	2.44101	83.80801	-46.37919	-41.49717	148.08794	73.2303	100.89508	53.70222	94.38572	43.12451	0
231	-82.18067	-82.18067	-0.81367	81.367	-41.49717	-41.49717	148.08794	92.75838	103.33609	53.70222	94.38572	40.6835	0
232	-82.18067	-77.29865	4.88202	78.92599	-43.93818	-36.61515	150.52895	114.72747	105.7771	51.26121	94.38572	40.6835	0
233	-79.73966	-77.29865	2.44101	76.48498	-41.49717	-39.05616	157.85198	141.57858	108.21811	53.70222	89.5037	40.6835	0
234	-77.29865	-74.85764	2.44101	74.04397	-41.49717	-36.61515	167.61602	165.98868	110.65912	53.70222	87.06269	40.6835	0
235	-72.41663	-74.85764	-3.25468	71.60296	-36.61515	-39.05616	174.93905	192.83979	113.10013	53.70222	84.62168	38.24249	0
236	-69.97562	-74.85764	-5.69569	71.60296	-34.17414	-41.49717	182.26208	217.24989	115.54114	53.70222	84.62168	38.24249	0
237	-67.53461	-74.85764	-8.1367	69.16195	-31.73313	-41.49717	187.1441	241.65999	120.42316	56.14323	87.06269	38.24249	0
238	-65.0936	-74.85764	-10.57771	69.16195	-29.29212	-43.93818	187.1441	261.18807	122.86417	58.58424	91.94471	38.24249	0
239	-60.21158	-69.97562	-10.57771	64.27993	-26.85111	-41.49717	187.1441	283.15716	127.74619	58.58424	94.38572	35.80148	0
240	-55.32956	-65.0936	-10.57771	59.39791	-24.4101	-39.05616	187.1441	307.56726	130.1872	56.14323	99.26774	33.36047	0
241	-52.88855	-65.0936	-13.01872	56.9569	-21.96909	-39.05616	189.58511	334.41837	135.06922	56.14323	99.26774	30.91946	0
242	-50.44754	-60.21158	-10.57771	54.51589	-21.96909	-36.61515	194.46713	363.71049	137.51023	56.14323	99.26774	28.47845	0
243	-45.56552	-55.32956	-10.57771	49.63387	-19.52808	-34.17414	201.79016	395.44362	139.95124	56.14323	99.26774	28.47845	0
244	-40.6835	-50.44754	-10.57771	44.75185	-17.08707	-31.73313	211.5542	427.17675	144.83326	53.70222	99.26774	26.03744	0
245	-33.36047	-50.44754	-17.90074	39.86983	-9.76404	-34.17414	221.31824	458.90988	147.27427	53.70222	96.82673	23.59643	0
246	-28.47845	-50.44754	-22.78276	37.42882	-4.88202	-36.61515	228.64127	490.64301	149.71528	53.70222	96.82673	23.59643	0
247	-23.59643	-48.00653	-25.22377	34.98781	0	-36.61515	233.52329	519.93513	152.15629	56.14323	96.82673	23.59643	0
248	-16.2734	-48.00653	-32.5468	30.10579	8.1367	-41.49717	238.40531	544.34523	157.03831	58.58424	99.26774	23.59643	0
249	-11.39138	-45.56552	-34.98781	27.66478	10.57771	-41.49717	238.40531	568.75533	159.47932	61.02525	104.14976	23.59643	0
250	-4.06835	-40.6835	-37.42882	20.34175	15.45973	-39.05616	240.84632	593.16543	166.80235	68.34828	106.59077	26.03744	0
251	0.81367	-38.24249	-39.86983	17.90074	20.34175	-39.05616	240.84632	622.45755	169.24336	68.34828	109.03178	26.03744	0
252	4.06835	-33.36047	-37.42882	13.01872	20.34175	-34.17414	245.72834	654.19068	171.68437	68.34828	109.03178	26.03744	0
253	8.95037	-30.91946	-39.86983	10.57771	22.78276	-34.17414	250.61036	685.92381	174.12538	63.46626	106.59077	23.59643	0
254	13.83239	-28.47845	-42.31084	5.69569	27.66478	-34.17414	257.93339	720.09795	174.12538	61.02525	104.14976	21.15542	0
255	21.15542	-26.03744	-47.19286	0.81367	32.5468	-36.61515	265.25642	751.83108	176.56639	58.58424	99.26774	18.71441	0
256	28.47845	-26.03744	-54.51589	-2.44101	39.86983	-39.05616	272.57945	781.1232	176.56639	53.70222	94.38572	13.83239	0
257	35.80148	-26.03744	-61.83892	-4.88202	47.19286	-43.93818	275.02046	807.97431	179.0074	51.26121	89.5037	11.39138	0
258	40.6835	-28.47845	-69.16195	-7.32303	54.51589	-48.8202	277.46147	829.9434	179.0074	51.26121	89.5037	11.39138	0
259	48.00653	-26.03744	-74.04397	-12.20505	59.39791	-48.8202	277.46147	851.91249	181.44841	51.26121	89.5037	11.39138	0
260	55.32956	-23.59643	-78.92599	-17.08707	66.72094	-51.26121	277.46147	871.44057	183.88942	51.26121	89.5037	11.39138	0
261	60.21158	-18.71441	-78.92599	-21.96909	69.16195	-48.8202	277.46147	893.40966	186.33043	53.70222	94.38572	11.39138	0
262	67.53461	-13.83239	-81.367	-26.85111	74.04397	-46.37919	279.90248	915.37875	188.77144	53.70222	94.38572	11.39138	0
263	72.41663	-6.50936	-78.92599	-34.17414	74.04397	-41.49717	284.7845	939.78885	191.21245	53.70222	96.82673	8.95037	0
264	77.29865	0.81367	-76.48498	-39.05616	76.48498	-36.61515	287.22551	964.19895	191.21245	53.70222	96.82673	6.50936	0
265	84.62168	4.06835	-81.367	-43.93818	83.80801	-39.05616	292.10753	983.72703	191.21245	53.70222	94.38572	4.06835	0
266	89.5037	8.95037	-81.367	-48.8202	86.24902	-36.61515	294.54854	1000.8141	191.21245	53.70222	94.38572	1.62734	0
267	96.82673	13.83239	-83.80801	-56.14323	91.13104	-34.17414	294.54854	1015.46016	191.21245	53.70222	94.38572	-1.62734	0
268	104.14976	18.71441	-86.24902	-61.02525	96.01306	-34.17414	294.54854	1025.2242	191.21245	53.70222	96.82673	-1.62734	1500	QRS+0
269	109.03178	21.15542	-88.69003	-65.90727	98.45407	-34.17414	292.10753	1032.54723	191.21245	53.70222	96.82673	-1.62734	0
270	116.35481	23.59643	-93.57205	-70.78929	105.7771	-34.17414	289.66652	1039.87026	193.65346	53.70222	99.26774	-1.62734	0
271	123.67784	28.47845	-96.01306	-75.67131	110.65912	-34.17414	289.66652	1049.6343	196.09447	58.58424	101.70875	1.62734	0
272	128.55986	33.36047	-96.01306	-80.55333	113.10013	-31.73313	287.22551	1061.83935	198.53548	58.58424	101.70875	1.62734	0
273	133.44188	35.80148	-98.45407	-85.43535	115.54114	-31.73313	287.22551	1071.60339	198.53548	58.58424	101.70875	1.62734	0
274	138.3239	38.24249	-100.89508	-87.87636	120.42316	-31.73313	289.66652	1081.36743	198.53548	56.14323	99.26774	-1.62734	0
275	143.20592	43.12451	-100.89508	-92.75838	122.86417	-29.29212	289.66652	1088.69046	198.53548	56.14323	94.38572	-4.06835	0
276	148.08794	50.44754	-98.45407	-100.08141	122.86417	-24.4101	289.66652	1091.13147	193.65346	51.26121	89.5037	-8.95037	0
277	152.96996	60.21158	-93.57205	-107.40444	122.86417	-17.08707	287.22551	1091.13147	191.21245	48.8202	87.06269	-13.83239	0
278	157.85198	67.53461	-91.13104	-112.28646	125.30518	-12.20505	284.7845	1081.36743	186.33043	41.49717	82.18067	-18.71441	0
279	160.29299	74.85764	-86.24902	-117.16848	122.86417	-4.88202	277.46147	1074.0444	183.88942	39.05616	77.29865	-21.15542	0
280	162.734	84.62168	-78.92599	-124.49151	120.42316	3.25468	272.57945	1064.28036	181.44841	36.61515	74.85764	-23.59643	0
281	165.17501	94.38572	-71.60296	-129.37353	117.98215	13.01872	267.69743	1059.39834	181.44841	34.17414	74.85764	-26.03744	0
282	165.17501	99.26774	-66.72094	-131.81454	115.54114	17.90074	260.3744	1054.51632	179.0074	34.17414	74.85764	-26.03744	0
283	165.17501	106.59077	-59.39791	-136.69656	113.10013	25.22377	255.49238	1049.6343	179.0074	34.17414	74.85764	-26.03744	0
284	165.17501	113.9138	-52.07488	-139.13757	108.21811	32.5468	253.05137	1042.31127	179.0074	36.61515	77.29865	-26.03744	0
285	165.17501	118.79582	-47.19286	-141.57858	105.7771	37.42882	250.61036	1032.54723	179.0074	36.61515	77.29865	-26.03744	0
286	167.61602	126.11885	-42.31084	-146.4606	105.7771	42.31084	250.61036	1022.78319	179.0074	39.05616	77.29865	-26.03744	0
287	170.05703	133.44188	-37.42882	-151.34262	103.33609	49.63387	245.72834	1005.69612	176.56639	39.05616	77.29865	-26.03744	0
288	170.05703	143.20592	-27.66478	-156.22464	98.45407	59.39791	240.84632	983.72703	174.12538	39.05616	77.29865	-23.59643	0
289	170.05703	150.52895	-20.34175	-161.10666	96.01306	66.72094	233.52329	959.31693	171.68437	36.61515	77.29865	-23.59643	0
290	170.05703	157.85198	-13.01872	-163.54767	91.13104	74.04397	226.20026	932.46582	166.80235	34.17414	77.29865	-23.59643	0
291	167.61602	167.61602	-0.81367	-168.42969	83.80801	83.80801	213.99521	910.49673	159.47932	31.73313	74.85764	-23.59643	0
292	167.61602	174.93905	7.32303	-170.8707	81.367	91.13104	201.79016	886.08663	154.5973	29.29212	74.85764	-23.59643	0
293	165.17501	184.70309	19.52808	-175.75272	74.04397	103.33609	189.58511	864.11754	147.27427	26.85111	72.41663	-26.03744	0
294	160.29299	189.58511	29.29212	-175.75272	66.72094	110.65912	182.26208	842.14845	139.95124	24.4101	67.53461	-26.03744	0
295	160.29299	194.46713	34.17414	-178.19373	64.27993	115.54114	174.93905	817.73835	135.06922	19.52808	62.65259	-26.03744	0
296	157.85198	201.79016	43.93818	-180.63474	56.9569	122.86417	167.61602	793.32825	130.1872	19.52808	60.21158	-26.03744	0
297	157.85198	209.11319	51.26121	-183.07575	54.51589	130.1872	162.734	764.03613	127.74619	19.52808	57.77057	-26.03744	0
298	152.96996	213.99521	61.02525	-183.07575	47.19286	137.51023	155.41097	732.303	122.86417	17.08707	57.77057	-23.59643	0
299	152.96996	218.87723	65.90727	-185.51676	44.75185	142.39225	148.08794	695.68785	120.42316	17.08707	57.77057	-21.15542	0
300	150.52895	223.75925	73.2303	-187.95777	39.86983	149.71528	140.76491	661.51371	117.98215	19.52808	60.21158	-16.2734	0
301	145.64693	228.64127	82.99434	-187.95777	32.5468	157.03831	131.00087	627.33957	115.54114	19.52808	62.65259	-13.83239	0
302	140.76491	228.64127	87.87636	-185.51676	27.66478	159.47932	121.23683	595.60644	113.10013	19.52808	65.0936	-8.95037	0
303	133.44188	228.64127	95.19939	-180.63474	20.34175	161.92033	113.9138	563.87331	105.7771	19.52808	65.0936	-6.50936	0
304	128.55986	228.64127	100.08141	-178.19373	15.45973	164.36134	104.14976	534.58119	98.45407	14.64606	60.21158	-6.50936	0
305	123.67784	228.64127	104.96343	-175.75272	10.57771	166.80235	99.26774	502.84806	91.13104	12.20505	57.77057	-4.06835	0
306	118.79582	226.20026	107.40444	-173.31171	5.69569	166.80235	94.38572	471.11493	83.80801	9.76404	52.88855	-4.06835	0
307	111.47279	226.20026	114.72747	-168.42969	-2.44101	171.68437	87.06269	434.49978	76.48498	4.88202	48.00653	-4.06835	0
308	104.14976	223.75925	119.60949	-163.54767	-7.32303	171.68437	82.18067	397.88463	74.04397	2.44101	45.56552	-1.62734	0
309	99.26774	223.75925	124.49151	-161.10666	-12.20505	174.12538	72.41663	361.26948	69.16195	2.44101	43.12451	-1.62734	0
310	94.38572	221.31824	126.93252	-158.66565	-17.08707	174.12538	62.65259	324.65433	64.27993	0	45.56552	1.62734	0
311	87.06269	216.43622	129.37353	-151.34262	-21.96909	174.12538	52.88855	292.9212	64.27993	4.88202	50.44754	8.95037	0
312	79.73966	211.5542	131.81454	-146.4606	-26.85111	171.68437	45.56552	268.5111	61.83892	9.76404	55.32956	16.2734	0
313	72.41663	201.79016	129.37353	-136.69656	-29.29212	166.80235	40.6835	246.54201	61.83892	12.20505	60.21158	23.59643	0
314	65.0936	192.02612	126.93252	-129.37353	-31.73313	159.47932	40.6835	229.45494	56.9569	17.08707	62.65259	30.91946	0
315	60.21158	179.82107	119.60949	-119.60949	-29.29212	149.71528	40.6835	209.92686	54.51589	17.08707	62.65259	35.80148	0
316	52.88855	170.05703	117.16848	-112.28646	-31.73313	144.83326	43.12451	187.95777	52.07488	17.08707	60.21158	38.24249	0
317	48.00653	157.85198	109.84545	-102.52242	-31.73313	135.06922	45.56552	165.98868	49.63387	17.08707	57.77057	40.6835	0
318	40.6835	148.08794	107.40444	-95.19939	-34.17414	127.74619	45.56552	141.57858	47.19286	12.20505	57.77057	38.24249	0
319	35.80148	138.3239	102.52242	-87.87636	-34.17414	120.42316	45.56552	117.16848	44.75185	9.76404	55.32956	35.80148	0
320	28.47845	133.44188	104.96343	-80.55333	-39.05616	120.42316	40.6835	95.19939	42.31084	7.32303	52.88855	33.36047	0
321	23.59643	126.11885	102.52242	-75.67131	-39.05616	115.54114	38.24249	78.11232	42.31084	4.88202	52.88855	30.91946	0
322	16.2734	121.23683	104.96343	-68.34828	-43.93818	113.10013	35.80148	68.34828	42.31084	4.88202	52.88855	28.47845	0
323	11.39138	113.9138	102.52242	-63.46626	-46.37919	108.21811	33.36047	61.02525	42.31084	4.88202	55.32956	28.47845	0
324	6.50936	104.14976	97.6404	-56.14323	-46.37919	100.89508	35.80148	56.14323	42.31084	4.88202	55.32956	28.47845	0
325	4.06835	94.38572	90.31737	-48.8202	-43.93818	93.57205	38.24249	51.26121	42.31084	2.44101	50.44754	26.03744	0
326	0.81367	82.18067	80.55333	-41.49717	-39.05616	81.367	43.12451	43.93818	39.86983	2.44101	48.00653	26.03744	0
327	-1.62734	72.41663	73.2303	-36.61515	-36.61515	71.60296	43.12451	34.17414	39.86983	4.88202	48.00653	30.91946	0
328	-4.06835	62.65259	65.90727	-29.29212	-34.17414	64.27993	43.12451	19.52808	37.42882	4.88202	45.56552	30.91946	0
329	-6.50936	55.32956	61.02525	-24.4101	-34.17414	56.9569	43.12451	4.88202	37.42882	4.88202	43.12451	30.91946	0
330	-11.39138	48.00653	58.58424	-19.52808	-34.17414	52.07488	38.24249	-7.32303	34.98781	2.44101	43.12451	30.91946	0
331	-16.2734	43.12451	58.58424	-14.64606	-36.61515	49.63387	33.36047	-17.08707	32.5468	0	43.12451	30.91946	0
332	-18.71441	40.6835	58.58424	-12.20505	-39.05616	49.63387	30.91946	-19.52808	32.5468	0	43.12451	30.91946	0
333	-21.15542	35.80148	56.14323	-7.32303	-39.05616	44.75185	28.47845	-19.52808	30.10579	0	43.12451	30.91946	0
334	-23.59643	33.36047	56.14323	-4.88202	-39.05616	44.75185	30.91946	-17.08707	30.10579	0	43.12451	30.91946	0
335	-28.47845	28.47845	56.14323	-2.44101	-41.49717	42.31084	35.80148	-14.64606	27.66478	2.44101	43.12451	33.36047	0
336	-28.47845	21.15542	48.8202	3.25468	-39.05616	34.98781	38.24249	-14.64606	25.22377	4.88202	43.12451	35.80148	0
337	-28.47845	16.2734	43.93818	5.69569	-36.61515	30.10579	43.12451	-17.08707	25.22377	7.32303	45.56552	38.24249	0
338	-28.47845	13.83239	41.49717	5.69569	-34.17414	27.66478	45.56552	-26.85111	25.22377	9.76404	48.00653	43.12451	0
339	-28.47845	11.39138	39.05616	8.1367	-34.17414	25.22377	45.56552	-34.17414	25.22377	12.20505	50.44754	45.56552	0
340	-30.91946	8.95037	39.05616	10.57771	-34.17414	22.78276	40.6835	-43.93818	25.22377	14.64606	55.32956	48.00653	0
341	-33.36047	6.50936	39.05616	13.01872	-36.61515	22.78276	35.80148	-48.8202	25.22377	17.08707	57.77057	50.44754	0
342	-35.80148	6.50936	41.49717	13.01872	-39.05616	22.78276	33.36047	-48.8202	27.66478	19.52808	62.65259	52.88855	0
343	-35.80148	4.06835	39.05616	15.45973	-36.61515	20.34175	33.36047	-46.37919	27.66478	19.52808	65.0936	52.88855	0
344	-38.24249	0.81367	39.05616	17.90074	-39.05616	20.34175	35.80148	-39.05616	27.66478	17.08707	60.21158	50.44754	-1500	QRS-0
345	-38.24249	-1.62734	36.61515	17.90074	-39.05616	17.90074	38.24249	-36.61515	25.22377	17.08707	57.77057	48.00653	0
346	-38.24249	-4.06835	34.17414	20.34175	-36.61515	15.45973	40.6835	-34.17414	22.78276	14.64606	52.88855	45.56552	0
347	-33.36047	-4.06835	29.29212	17.90074	-31.73313	13.01872	45.56552	-34.17414	22.78276	9.76404	48.00653	38.24249	0
348	-28.47845	-1.62734	26.85111	13.01872	-29.29212	13.01872	45.56552	-41.49717	20.34175	2.44101	40.6835	33.36047	0
349	-23.59643	-1.62734	21.96909	10.57771	-24.4101	10.57771	40.6835	-48.8202	20.34175	-2.44101	38.24249	28.47845	0
350	-18.71441	0.81367	19.52808	8.1367	-19.52808	10.57771	35.80148	-56.14323	17.90074	-4.88202	38.24249	28.47845	0
351	-13.83239	4.06835	17.08707	3.25468	-14.64606	10.57771	30.91946	-61.02525	17.90074	-7.32303	40.6835	28.47845	0
352	-11.39138	8.95037	19.52808	0.81367	-14.64606	13.01872	26.03744	-61.02525	17.90074	-10.57771	40.6835	26.03744	0
353	-11.39138	8.95037	19.52808	0.81367	-14.64606	13.01872	23.59643	-56.14323	17.90074	-13.01872	40.6835	26.03744	0
354	-11.39138	6.50936	17.08707	0.81367	-14.64606	10.57771	23.59643	-46.37919	17.90074	-13.01872	40.6835	23.59643	0
355	-13.83239	0.81367	14.64606	5.69569	-14.64606	8.1367	28.47845	-41.49717	15.45973	-15.45973	40.6835	21.15542	0
356	-13.83239	-1.62734	12.20505	5.69569	-14.64606	5.69569	33.36047	-36.61515	15.45973	-15.45973	40.6835	21.15542	0
357	-13.83239	-4.06835	9.76404	8.1367	-12.20505	3.25468	35.80148	-39.05616	15.45973	-15.45973	38.24249	21.15542	0
358	-13.83239	-6.50936	7.32303	8.1367	-12.20505	0	35.80148	-43.93818	15.45973	-15.45973	35.80148	21.15542	0
359	-13.83239	-6.50936	7.32303	8.1367	-12.20505	0	35.80148	-48.8202	17.90074	-15.45973	38.24249	21.15542	0
360	-13.83239	-4.06835	9.76404	8.1367	-12.20505	3.25468	30.91946	-56.14323	20.34175	-15.45973	40.6835	21.15542	0
361	-11.39138	0.81367	12.20505	3.25468	-12.20505	5.69569	26.03744	-61.02525	20.34175	-15.45973	43.12451	26.03744	0
362	-11.39138	4.06835	14.64606	3.25468	-12.20505	8.1367	21.15542	-61.02525	20.34175	-15.45973	43.12451	28.47845	0
363	-8.95037	4.06835	12.20505	0.81367	-9.76404	8.1367	21.15542	-56.14323	20.34175	-15.45973	43.12451	28.47845	0
364	-8.95037	4.06835	12.20505	0.81367	-9.76404	8.1367	23.59643	-48.8202	20.34175	-15.45973	45.56552	28.47845	0
365	-11.39138	4.06835	14.64606	3.25468	-12.20505	8.1367	28.47845	-41.49717	17.90074	-15.45973	48.00653	33.36047	0
366	-11.39138	0.81367	12.20505	3.25468	-12.20505	5.69569	33.36047	-39.05616	17.90074	-15.45973	45.56552	33.36047	0
367	-13.83239	0.81367	14.64606	5.69569	-14.64606	8.1367	35.80148	-39.05616	17.90074	-15.45973	43.12451	30.91946	0
368	-13.83239	0.81367	14.64606	5.69569	-14.64606	8.1367	38.24249	-41.49717	17.90074	-17.90074	40.6835	28.47845	0
369	-13.83239	0.81367	14.64606	5.69569	-14.64606	8.1367	35.80148	-46.37919	17.90074	-20.34175	38.24249	26.03744	0
370	-13.83239	0.81367	14.64606	5.69569	-14.64606	8.1367	30.91946	-53.70222	20.34175	-22.78276	38.24249	23.59643	0
371	-16.2734	0.81367	17.08707	5.69569	-17.08707	8.1367	28.47845	-56.14323	20.34175	-25.22377	38.24249	21.15542	0
372	-16.2734	0.81367	17.08707	5.69569	-17.08707	8.1367	26.03744	-53.70222	22.78276	-22.78276	38.24249	21.15542	0
373	-13.83239	4.06835	17.08707	3.25468	-14.64606	10.57771	23.59643	-46.37919	22.78276	-22.78276	43.12451	21.15542	0
374	-13.83239	4.06835	17.08707	3.25468	-14.64606	10.57771	26.03744	-41.49717	22.78276	-20.34175	50.44754	26.03744	0
375	-13.83239	0.81367	14.64606	5.69569	-14.64606	8.1367	30.91946	-36.61515	22.78276	-17.90074	52.88855	28.47845	0
376	-13.83239	0.81367	14.64606	5.69569	-14.64606	8.1367	35.80148	-36.61515	22.78276	-15.45973	50.44754	28.47845	0
377	-11.39138	0.81367	12.20505	3.25468	-12.20505	5.69569	38.24249	-36.61515	22.78276	-13.01872	50.44754	28.47845	0
378	-11.39138	-1.62734	9.76404	5.69569	-12.20505	3.25468	38.24249	-43.93818	20.34175	-15.45973	50.44754	28.47845	0
379	-11.39138	0.81367	12.20505	3.25468	-12.20505	5.69569	33.36047	-51.26121	17.90074	-17.90074	50.44754	28.47845	0
380	-8.95037	0.81367	9.76404	3.25468	-9.76404	5.69569	26.03744	-61.02525	15.45973	-22.78276	45.56552	23.59643	0
381	-8.95037	4.06835	12.20505	0.81367	-9.76404	8.1367	18.71441	-65.90727	10.57771	-25.22377	43.12451	21.15542	0
382	-8.95037	6.50936	14.64606	0.81367	-12.20505	10.57771	13.01872	-65.90727	10.57771	-25.22377	40.6835	18.71441	0
383	-11.39138	11.39138	21.96909	-2.44101	-17.08707	15.45973	13.01872	-61.02525	8.1367	-27.66478	43.12451	16.2734	0
384	-13.83239	11.39138	24.4101	0.81367	-19.52808	17.90074	13.01872	-53.70222	5.69569	-27.66478	48.00653	16.2734	0
385	-13.83239	8.95037	21.96909	0.81367	-17.08707	15.45973	18.71441	-51.26121	5.69569	-27.66478	48.00653	16.2734	0
386	-13.83239	4.06835	17.08707	3.25468	-14.64606	10.57771	26.03744	-51.26121	8.1367	-25.22377	43.12451	16.2734	0
387	-13.83239	0.81367	14.64606	5.69569	-14.64606	8.1367	28.47845	-51.26121	8.1367	-22.78276	40.6835	16.2734	0
388	-13.83239	0.81367	14.64606	5.69569	-14.64606	8.1367	28.47845	-58.58424	8.1367	-22.78276	40.6835	18.71441	0
389	-11.39138	-1.62734	9.76404	5.69569	-12.20505	3.25468	28.47845	-63.46626	8.1367	-22.78276	43.12451	21.15542	0
390	-11.39138	-1.62734	9.76404	5.69569	-12.20505	3.25468	26.03744	-70.78929	10.57771	-22.78276	43.12451	21.15542	0
391	-11.39138	0.81367	12.20505	3.25468	-12.20505	5.69569	18.71441	-74.04397	10.57771	-22.78276	45.56552	21.15542	0
392	-13.83239	0.81367	14.64606	5.69569	-14.64606	8.1367	13.01872	-74.04397	8.1367	-22.78276	45.56552	21.15542	0
393	-13.83239	0.81367	14.64606	5.69569	-14.64606	8.1367	13.01872	-74.04397	8.1367	-22.78276	50.44754	18.71441	0
394	-16.2734	0.81367	17.08707	5.69569	-17.08707	8.1367	16.2734	-68.34828	8.1367	-22.78276	52.88855	18.71441	0
395	-16.2734	0.81367	17.08707	5.69569	-17.08707	8.1367	18.71441	-65.90727	5.69569	-25.22377	50.44754	16.2734	0
396	-16.2734	0.81367	17.08707	5.69569	-17.08707	8.1367	21.15542	-65.90727	0	-27.66478	43.12451	13.83239	0
397	-18.71441	0.81367	19.52808	8.1367	-19.52808	10.57771	21.15542	-74.04397	-2.44101	-27.66478	38.24249	13.83239	0
398	-18.71441	0.81367	19.52808	8.1367	-19.52808	10.57771	18.71441	-81.367	-4.88202	-27.66478	38.24249	13.83239	0
399	-18.71441	0.81367	19.52808	8.1367	-19.52808	10.57771	16.2734	-88.69003	-4.88202	-30.10579	38.24249	13.83239	0
400	-18.71441	0.81367	19.52808	8.1367	-19.52808	10.57771	13.01872	-96.01306	-4.88202	-34.98781	35.80148	13.83239	0
401	-18.71441	4.06835	21.96909	5.69569	-19.52808	13.01872	8.1367	-98.45407	-4.88202	-34.98781	35.80148	13.83239	0
402	-18.71441	4.06835	21.96909	5.69569	-19.52808	13.01872	5.69569	-98.45407	-2.44101	-25.22377	43.12451	16.2734	0
403	-16.2734	0.81367	17.08707	5.69569	-17.08707	8.1367	3.25468	-96.01306	0	-20.34175	48.00653	21.15542	0
404	-16.2734	0.81367	17.08707	5.69569	-17.08707	8.1367	8.1367	-91.13104	0	-13.01872	38.24249	21.15542	0
405	-13.83239	-4.06835	9.76404	8.1367	-12.20505	3.25468	10.57771	-86.24902	0	-10.57771	30.91946	21.15542	0
406	-13.83239	-6.50936	7.32303	8.1367	-12.20505	0	13.01872	-83.80801	-2.44101	-7.32303	27.66478	21.15542	0
407	-13.83239	-8.95037	4.88202	10.57771	-9.76404	-2.44101	13.01872	-86.24902	-7.32303	-7.32303	25.22377	21.15542	0
408	-13.83239	-8.95037	4.88202	10.57771	-9.76404	-2.44101	13.01872	-91.13104	-12.20505	-10.57771	20.34175	18.71441	0
409	-13.83239	-4.06835	9.76404	8.1367	-12.20505	3.25468	8.1367	-96.01306	-17.08707	-17.90074	17.90074	16.2734	0
410	-13.83239	0.81367	14.64606	5.69569	-14.64606	8.1367	3.25468	-100.89508	-19.52808	-30.10579	22.78276	11.39138	0
411	-11.39138	4.06835	14.64606	3.25468	-12.20505	8.1367	-1.62734	-105.7771	-21.96909	-37.42882	30.91946	11.39138	0
412	-8.95037	4.06835	12.20505	0.81367	-9.76404	8.1367	-4.06835	-110.65912	-21.96909	-37.42882	35.80148	11.39138	0
413	-8.95037	4.06835	12.20505	0.81367	-9.76404	8.1367	-8.95037	-108.21811	-24.4101	-37.42882	38.24249	11.39138	0
414	-8.95037	4.06835	12.20505	0.81367	-9.76404	8.1367	-8.95037	-105.7771	-24.4101	-37.42882	43.12451	8.95037	0
415	-8.95037	0.81367	9.76404	3.25468	-9.76404	5.69569	-8.95037	-103.33609	-24.4101	-37.42882	43.12451	8.95037	0
416	-8.95037	-4.06835	4.88202	5.69569	-7.32303	0	-8.95037	-103.33609	-24.4101	-37.42882	38.24249	8.95037	0
417	-8.95037	-8.95037	-0.81367	8.1367	-4.88202	-4.88202	-8.95037	-103.33609	-26.85111	-30.10579	35.80148	11.39138	0
418	-8.95037	-8.95037	-0.81367	8.1367	-4.88202	-4.88202	-8.95037	-108.21811	-29.29212	0	-26.03744	11.39138	0
419	-11.39138	-11.39138	-0.81367	10.57771	-7.32303	-7.32303	-11.39138	-110.65912	-31.73313	183.07575	-409.27601	8.95037	0
420	-11.39138	-6.50936	4.88202	8.1367	-9.76404	-2.44101	-16.2734	-117.98215	-34.17414	383.23857	-892.59599	6.50936	0
421	-11.39138	-4.06835	7.32303	5.69569	-9.76404	0	-21.15542	-122.86417	-36.61515	388.12059	-997.55942	4.06835	0
422	-11.39138	-1.62734	9.76404	5.69569	-12.20505	3.25468	-26.03744	-127.74619	-39.05616	375.91554	-1017.0875	1.62734	0
423	-11.39138	0.81367	12.20505	3.25468	-12.20505	5.69569	-28.47845	-130.1872	-41.49717	363.71049	-1026.85154	-1.62734	0
424	-16.2734	0.81367	17.08707	5.69569	-17.08707	8.1367	-30.91946	-130.1872	-43.93818	346.62342	-1012.20548	-4.06835	0
425	-18.71441	-1.62734	17.08707	8.1367	-19.52808	8.1367	-30.91946	-130.1872	-46.37919	246.54201	-836.45276	-4.06835	0
426	-21.15542	-4.06835	17.08707	10.57771	-19.52808	5.69569	-28.47845	-127.74619	-46.37919	-2.44101	-314.07662	-6.50936	0
427	-21.15542	-4.06835	17.08707	10.57771	-19.52808	5.69569	-26.03744	-127.74619	-46.37919	-93.57205	-40.6835	-6.50936	0
428	-21.15542	-4.06835	17.08707	10.57771	-19.52808	5.69569	-26.03744	-130.1872	-46.37919	-86.24902	-1.62734	-8.95037	0
429	-21.15542	-6.50936	14.64606	13.01872	-19.52808	3.25468	-28.47845	-132.62821	-46.37919	-78.92599	15.45973	-6.50936	0
430	-21.15542	-6.50936	14.64606	13.01872	-19.52808	3.25468	-28.47845	-135.06922	-43.93818	-71.60296	25.22377	-1.62734	0
431	-21.15542	-6.50936	14.64606	13.01872	-19.52808	3.25468	-30.91946	-137.51023	-43.93818	-66.72094	27.66478	-1.62734	0
432	-21.15542	-4.06835	17.08707	10.57771	-19.52808	5.69569	-33.36047	-137.51023	-41.49717	-56.9569	38.24249	1.62734	0
433	-23.59643	-4.06835	19.52808	13.01872	-21.96909	8.1367	-35.80148	-137.51023	-41.49717	-49.63387	45.56552	6.50936	0
434	-26.03744	-8.95037	17.08707	15.45973	-21.96909	3.25468	-35.80148	-135.06922	-41.49717	-47.19286	52.88855	11.39138	0
435	-26.03744	-16.2734	9.76404	20.34175	-19.52808	-4.88202	-33.36047	-132.62821	-39.05616	-44.75185	52.88855	11.39138	0
436	-26.03744	-18.71441	7.32303	20.34175	-17.08707	-7.32303	-33.36047	-130.1872	-41.49717	-44.75185	45.56552	11.39138	0
437	-26.03744	-26.03744	-0.81367	25.22377	-14.64606	-14.64606	-30.91946	-132.62821	-41.49717	-39.86983	43.12451	16.2734	0
438	-26.03744	-30.91946	-5.69569	27.66478	-12.20505	-19.52808	-30.91946	-137.51023	-41.49717	-39.86983	43.12451	16.2734	0
439	-26.03744	-33.36047	-8.1367	27.66478	-9.76404	-21.96909	-33.36047	-142.39225	-43.93818	-44.75185	43.12451	18.71441	0
440	-26.03744	-33.36047	-8.1367	27.66478	-9.76404	-21.96909	-38.24249	-147.27427	-43.93818	-47.19286	43.12451	18.71441	0
441	-26.03744	-28.47845	-3.25468	25.22377	-12.20505	-17.08707	-43.12451	-152.15629	-46.37919	-49.63387	43.12451	18.71441	0
442	-28.47845	-23.59643	4.88202	25.22377	-17.08707	-9.76404	-48.00653	-154.5973	-48.8202	-49.63387	40.6835	16.2734	0
443	-28.47845	-18.71441	9.76404	22.78276	-19.52808	-4.88202	-50.44754	-157.03831	-53.70222	-54.51589	38.24249	13.83239	0
444	-28.47845	-16.2734	12.20505	20.34175	-21.96909	-2.44101	-52.88855	-152.15629	-56.14323	-59.39791	38.24249	8.95037	0
445	-30.91946	-16.2734	14.64606	22.78276	-24.4101	-2.44101	-52.88855	-149.71528	-58.58424	-61.83892	33.36047	6.50936	0
446	-30.91946	-18.71441	12.20505	22.78276	-21.96909	-4.88202	-48.00653	-149.71528	-58.58424	-61.83892	27.66478	6.50936	0
447	-33.36047	-26.03744	7.32303	27.66478	-21.96909	-9.76404	-45.56552	-149.71528	-58.58424	-61.83892	20.34175	4.06835	0
448	-33.36047	-30.91946	2.44101	30.10579	-19.52808	-14.64606	-43.12451	-152.15629	-58.58424	-64.27993	20.34175	4.06835	0
449	-33.36047	-35.80148	-3.25468	32.5468	-17.08707	-19.52808	-40.6835	-157.03831	-56.14323	-64.27993	25.22377	6.50936	0
450	-35.80148	-40.6835	-5.69569	37.42882	-17.08707	-24.4101	-40.6835	-164.36134	-53.70222	-64.27993	27.66478	8.95037	0
451	-35.80148	-43.12451	-8.1367	37.42882	-14.64606	-26.85111	-43.12451	-169.24336	-51.26121	-61.83892	30.91946	11.39138	0
452	-38.24249	-43.12451	-5.69569	39.86983	-17.08707	-24.4101	-45.56552	-171.68437	-51.26121	-56.9569	33.36047	11.39138	0
453	-38.24249	-43.12451	-5.69569	39.86983	-17.08707	-24.4101	-48.00653	-171.68437	-53.70222	-56.9569	33.36047	11.39138	0
454	-38.24249	-40.6835	-3.25468	37.42882	-19.52808	-21.96909	-50.44754	-169.24336	-56.14323	-59.39791	35.80148	6.50936	0
455	-38.24249	-40.6835	-3.25468	37.42882	-19.52808	-21.96909	-50.44754	-164.36134	-56.14323	-56.9569	35.80148	4.06835	0
456	-40.6835	-40.6835	-0.81367	39.86983	-21.96909	-21.96909	-50.44754	-164.36134	-58.58424	-56.9569	30.91946	1.62734	0
457	-40.6835	-40.6835	-0.81367	39.86983	-21.96909	-21.96909	-45.56552	-164.36134	-58.58424	-52.07488	27.66478	1.62734	0
458	-38.24249	-40.6835	-3.25468	37.42882	-19.52808	-21.96909	-45.56552	-169.24336	-58.58424	-52.07488	27.66478	-1.62734	0
459	-38.24249	-40.6835	-3.25468	37.42882	-19.52808	-21.96909	-45.56552	-171.68437	-58.58424	-54.51589	33.36047	1.62734	0
460	-38.24249	-40.6835	-3.25468	37.42882	-19.52808	-21.96909	-45.56552	-174.12538	-53.70222	-52.07488	38.24249	4.06835	0
461	-40.6835	-43.12451	-3.25468	39.86983	-19.52808	-24.4101	-45.56552	-179.0074	-51.26121	-44.75185	43.12451	11.39138	0
462	-40.6835	-43.12451	-3.25468	39.86983	-19.52808	-24.4101	-45.56552	-179.0074	-48.8202	-37.42882	48.00653	16.2734	0
463	-40.6835	-43.12451	-3.25468	39.86983	-19.52808	-24.4101	-48.00653	-176.56639	-48.8202	-34.98781	52.88855	18.71441	0
464	-40.6835	-43.12451	-3.25468	39.86983	-19.52808	-24.4101	-48.00653	-171.68437	-48.8202	-34.98781	55.32956	18.71441	0
465	-40.6835	-43.12451	-3.25468	39.86983	-19.52808	-24.4101	-48.00653	-166.80235	-48.8202	-32.5468	55.32956	21.15542	0
466	-40.6835	-43.12451	-3.25468	39.86983	-19.52808	-24.4101	-43.12451	-164.36134	-48.8202	-27.66478	55.32956	23.59643	0
467	-40.6835	-38.24249	2.44101	37.42882	-21.96909	-19.52808	-43.12451	-164.36134	-46.37919	-22.78276	52.88855	26.03744	0
468	-35.80148	-33.36047	2.44101	32.5468	-19.52808	-17.08707	-43.12451	-166.80235	-46.37919	-25.22377	50.44754	23.59643	0
469	-35.80148	-26.03744	9.76404	30.10579	-24.4101	-9.76404	-40.6835	-166.80235	-46.37919	-27.66478	52.88855	23.59643	0
470	-33.36047	-16.2734	17.08707	22.78276	-26.85111	0	-40.6835	-169.24336	-41.49717	-27.66478	57.77057	23.59643	0
471	-33.36047	-6.50936	26.85111	17.90074	-31.73313	10.57771	-40.6835	-169.24336	-36.61515	-25.22377	62.65259	23.59643	0
472	-33.36047	0.81367	34.17414	15.45973	-34.17414	17.90074	-38.24249	-166.80235	-31.73313	-17.90074	65.0936	26.03744	0
473	-33.36047	6.50936	39.05616	13.01872	-36.61515	22.78276	-35.80148	-159.47932	-26.85111	-17.90074	67.53461	28.47845	0
474	-33.36047	11.39138	43.93818	10.57771	-39.05616	27.66478	-30.91946	-149.71528	-21.96909	-17.90074	72.41663	28.47845	0
475	-33.36047	13.83239	46.37919	8.1367	-39.05616	30.10579	-26.03744	-139.95124	-19.52808	-13.01872	77.29865	28.47845	0
476	-35.80148	13.83239	48.8202	10.57771	-41.49717	30.10579	-21.15542	-137.51023	-14.64606	-10.57771	77.29865	33.36047	0
477	-35.80148	13.83239	48.8202	10.57771	-41.49717	30.10579	-21.15542	-137.51023	-14.64606	-4.88202	69.97562	30.91946	0
478	-35.80148	16.2734	51.26121	8.1367	-43.93818	32.5468	-23.59643	-139.95124	-19.52808	-10.57771	67.53461	26.03744	0
479	-30.91946	16.2734	46.37919	5.69569	-39.05616	30.10579	-28.47845	-144.83326	-24.4101	-17.90074	65.0936	21.15542	0
480	-28.47845	13.83239	41.49717	5.69569	-34.17414	27.66478	-35.80148	-152.15629	-29.29212	-25.22377	60.21158	13.83239	0
481	-28.47845	11.39138	39.05616	8.1367	-34.17414	25.22377	-43.12451	-159.47932	-36.61515	-30.10579	55.32956	8.95037	0
482	-26.03744	8.95037	34.17414	8.1367	-29.29212	20.34175	-52.88855	-164.36134	-43.93818	-34.98781	50.44754	4.06835	0
483	-26.03744	8.95037	34.17414	8.1367	-29.29212	20.34175	-60.21158	-164.36134	-51.26121	-39.86983	48.00653	1.62734	0
484	-26.03744	8.95037	34.17414	8.1367	-29.29212	20.34175	-62.65259	-161.92033	-53.70222	-42.31084	50.44754	1.62734	0
485	-26.03744	6.50936	31.73313	8.1367	-29.29212	17.90074	-65.0936	-159.47932	-56.14323	-39.86983	50.44754	6.50936	0
486	-26.03744	4.06835	29.29212	10.57771	-26.85111	15.45973	-62.65259	-159.47932	-58.58424	-34.98781	50.44754	8.95037	0
487	-28.47845	0.81367	29.29212	13.01872	-29.29212	15.45973	-60.21158	-164.36134	-58.58424	-30.10579	45.56552	13.83239	0
488	-26.03744	0.81367	26.85111	10.57771	-26.85111	13.01872	-60.21158	-169.24336	-61.02525	-32.5468	45.56552	13.83239	0
489	-23.59643	0.81367	24.4101	10.57771	-24.4101	13.01872	-62.65259	-171.68437	-63.46626	-37.42882	45.56552	13.83239	0
490	-21.15542	0.81367	21.96909	8.1367	-21.96909	10.57771	-67.53461	-179.0074	-65.90727	-42.31084	43.12451	8.95037	0
491	-16.2734	4.06835	19.52808	5.69569	-17.08707	10.57771	-72.41663	-183.88942	-70.78929	-49.63387	35.80148	4.06835	0
492	-11.39138	6.50936	17.08707	0.81367	-14.64606	10.57771	-79.73966	-186.33043	-75.67131	-52.07488	30.91946	-1.62734	0
493	-6.50936	8.95037	14.64606	-2.44101	-9.76404	10.57771	-84.62168	-186.33043	-80.55333	-59.39791	27.66478	-6.50936	0
494	-1.62734	11.39138	12.20505	-4.88202	-7.32303	10.57771	-84.62168	-181.44841	-82.99434	-64.27993	27.66478	-11.39138	0
495	-1.62734	11.39138	12.20505	-4.88202	-7.32303	10.57771	-84.62168	-179.0074	-85.43535	-66.72094	22.78276	-13.83239	0
496	-1.62734	6.50936	7.32303	-2.44101	-4.88202	5.69569	-84.62168	-179.0074	-87.87636	-66.72094	17.90074	-16.2734	0
497	-1.62734	0.81367	2.44101	-2.44101	-2.44101	0	-82.18067	-179.0074	-87.87636	-64.27993	13.01872	-16.2734	0
498	-4.06835	-1.62734	2.44101	0.81367	-4.88202	0	-79.73966	-181.44841	-87.87636	-64.27993	15.45973	-13.83239	0
499	-6.50936	-4.06835	2.44101	3.25468	-4.88202	-2.44101	-79.73966	-181.44841	-85.43535	-64.27993	20.34175	-11.39138	0
500	-8.95037	-6.50936	2.44101	5.69569	-7.32303	-2.44101	-77.29865	-183.88942	-82.99434	-61.83892	25.22377	-6.50936	0
501	-11.39138	-6.50936	4.88202	8.1367	-9.76404	-2.44101	-77.29865	-183.88942	-80.55333	-59.39791	27.66478	-4.06835	0
502	-11.39138	-4.06835	7.32303	5.69569	-9.76404	0	-72.41663	-179.0074	-75.67131	-52.07488	33.36047	-1.62734	0
503	-11.39138	-1.62734	9.76404	5.69569	-12.20505	3.25468	-69.97562	-171.68437	-70.78929	-44.75185	38.24249	-1.62734	0
504	-11.39138	0.81367	12.20505	3.25468	-12.20505	5.69569	-67.53461	-159.47932	-68.34828	-44.75185	45.56552	-1.62734	0
505	-13.83239	0.81367	14.64606	5.69569	-14.64606	8.1367	-60.21158	-152.15629	-65.90727	-39.86983	48.00653	1.62734	0
506	-16.2734	0.81367	17.08707	5.69569	-17.08707	8.1367	-55.32956	-144.83326	-61.02525	-34.98781	48.00653	6.50936	0
507	-18.71441	-1.62734	17.08707	8.1367	-19.52808	8.1367	-50.44754	-144.83326	-58.58424	-30.10579	45.56552	6.50936	0
508	-23.59643	-8.95037	14.64606	15.45973	-19.52808	3.25468	-48.00653	-144.83326	-58.58424	-30.10579	43.12451	6.50936	0
509	-30.91946	-16.2734	14.64606	22.78276	-24.4101	-2.44101	-45.56552	-149.71528	-56.14323	-32.5468	45.56552	8.95037	0
510	-35.80148	-26.03744	9.76404	30.10579	-24.4101	-9.76404	-43.12451	-157.03831	-53.70222	-32.5468	48.00653	11.39138	0
511	-40.6835	-33.36047	7.32303	34.98781	-24.4101	-14.64606	-43.12451	-164.36134	-53.70222	-32.5468	50.44754	13.83239	0
512	-45.56552	-38.24249	7.32303	39.86983	-26.85111	-17.08707	-45.56552	-171.68437	-53.70222	-27.66478	52.88855	16.2734	0
513	-48.00653	-45.56552	2.44101	44.75185	-26.85111	-21.96909	-45.56552	-174.12538	-53.70222	-25.22377	52.88855	16.2734	0
514	-52.88855	-50.44754	2.44101	49.63387	-29.29212	-24.4101	-45.56552	-174.12538	-53.70222	-27.66478	55.32956	16.2734	0
515	-52.88855	-50.44754	2.44101	49.63387	-29.29212	-24.4101	-45.56552	-171.68437	-53.70222	-27.66478	55.32956	16.2734	0
516	-52.88855	-52.88855	-0.81367	52.07488	-26.85111	-26.85111	-40.6835	-169.24336	-56.14323	-25.22377	52.88855	16.2734	0
517	-52.88855	-55.32956	-3.25468	52.07488	-26.85111	-29.29212	-38.24249	-169.24336	-56.14323	-20.34175	48.00653	16.2734	0
518	-52.88855	-60.21158	-8.1367	54.51589	-24.4101	-34.17414	-38.24249	-169.24336	-56.14323	-20.34175	43.12451	16.2734	0
519	-52.88855	-62.65259	-10.57771	56.9569	-21.96909	-36.61515	-38.24249	-171.68437	-56.14323	-22.78276	43.12451	16.2734	0
520	-52.88855	-65.0936	-13.01872	56.9569	-21.96909	-39.05616	-40.6835	-174.12538	-56.14323	-22.78276	48.00653	16.2734	0
521	-52.88855	-65.0936	-13.01872	56.9569	-21.96909	-39.05616	-40.6835	-176.56639	-56.14323	-22.78276	52.88855	16.2734	0
522	-52.88855	-65.0936	-13.01872	56.9569	-21.96909	-39.05616	-43.12451	-179.0074	-56.14323	-20.34175	55.32956	13.83239	0
523	-52.88855	-65.0936	-13.01872	56.9569	-21.96909	-39.05616	-45.56552	-179.0074	-56.14323	-17.90074	55.32956	13.83239	0
524	-52.88855	-65.0936	-13.01872	56.9569	-21.96909	-39.05616	-45.56552	-171.68437	-58.58424	-20.34175	60.21158	11.39138	0
525	-52.88855	-60.21158	-8.1367	54.51589	-24.4101	-34.17414	-40.6835	-166.80235	-58.58424	-22.78276	62.65259	11.39138	0
526	-50.44754	-60.21158	-10.57771	54.51589	-21.96909	-36.61515	-35.80148	-159.47932	-56.14323	-22.78276	57.77057	8.95037	0
527	-50.44754	-60.21158	-10.57771	54.51589	-21.96909	-36.61515	-33.36047	-159.47932	-56.14323	-20.34175	52.88855	6.50936	0
528	-48.00653	-60.21158	-13.01872	52.07488	-19.52808	-36.61515	-30.91946	-159.47932	-53.70222	-20.34175	50.44754	6.50936	0
529	-48.00653	-60.21158	-13.01872	52.07488	-19.52808	-36.61515	-28.47845	-159.47932	-53.70222	-25.22377	50.44754	8.95037	0
530	-48.00653	-60.21158	-13.01872	52.07488	-19.52808	-36.61515	-28.47845	-159.47932	-51.26121	-27.66478	52.88855	8.95037	0
531	-45.56552	-60.21158	-15.45973	52.07488	-17.08707	-39.05616	-33.36047	-159.47932	-48.8202	-27.66478	55.32956	8.95037	0
532	-45.56552	-57.77057	-13.01872	49.63387	-17.08707	-36.61515	-35.80148	-161.92033	-46.37919	-22.78276	57.77057	11.39138	0
533	-45.56552	-55.32956	-10.57771	49.63387	-19.52808	-34.17414	-38.24249	-161.92033	-46.37919	-20.34175	60.21158	11.39138	0
534	-45.56552	-50.44754	-5.69569	47.19286	-21.96909	-29.29212	-38.24249	-154.5973	-46.37919	-20.34175	65.0936	11.39138	0
535	-45.56552	-48.00653	-3.25468	44.75185	-21.96909	-26.85111	-33.36047	-149.71528	-46.37919	-20.34175	67.53461	11.39138	0
536	-45.56552	-48.00653	-3.25468	44.75185	-21.96909	-26.85111	-30.91946	-147.27427	-46.37919	-17.90074	65.0936	11.39138	0
537	-45.56552	-45.56552	-0.81367	44.75185	-24.4101	-24.4101	-28.47845	-147.27427	-43.93818	-13.01872	62.65259	11.39138	0
538	-45.56552	-45.56552	-0.81367	44.75185	-24.4101	-24.4101	-26.03744	-149.71528	-43.93818	-10.57771	60.21158	11.39138	0
539	-45.56552	-45.56552	-0.81367	44.75185	-24.4101	-24.4101	-26.03744	-154.5973	-43.93818	-13.01872	60.21158	11.39138	0
540	-45.56552	-43.12451	2.44101	42.31084	-24.4101	-21.96909	-28.47845	-157.03831	-43.93818	-7.32303	43.12451	13.83239	0
541	-45.56552	-43.12451	2.44101	42.31084	-24.4101	-21.96909	-30.91946	-159.47932	-43.93818	4.88202	13.01872	13.83239	0
542	-45.56552	-40.6835	4.88202	42.31084	-26.85111	-19.52808	-30.91946	-161.92033	-41.49717	36.61515	-43.12451	13.83239	0
543	-48.00653	-40.6835	7.32303	42.31084	-29.29212	-17.08707	-33.36047	-164.36134	-39.05616	51.26121	-74.85764	13.83239	0
544	-52.88855	-38.24249	14.64606	44.75185	-34.17414	-12.20505	-30.91946	-164.36134	-34.17414	53.70222	-84.62168	16.2734	0
545	-57.77057	-33.36047	24.4101	44.75185	-41.49717	-4.88202	-26.03744	-166.80235	-29.29212	53.70222	-82.18067	18.71441	0
546	-62.65259	-26.03744	36.61515	42.31084	-51.26121	5.69569	-21.15542	-174.12538	-24.4101	53.70222	-72.41663	18.71441	0
547	-65.0936	-21.15542	43.93818	42.31084	-56.14323	10.57771	-13.83239	-179.0074	-19.52808	51.26121	-60.21158	18.71441	0
548	-65.0936	-16.2734	48.8202	39.86983	-58.58424	15.45973	-11.39138	-181.44841	-19.52808	17.08707	-1.62734	13.83239	0
549	-60.21158	-11.39138	48.8202	34.98781	-56.14323	17.90074	-16.2734	-181.44841	-24.4101	-7.32303	27.66478	6.50936	0
550	-48.00653	-6.50936	41.49717	25.22377	-46.37919	17.90074	-26.03744	-186.33043	-34.17414	-27.66478	45.56552	-4.06835	0
551	-30.91946	0.81367	31.73313	13.01872	-31.73313	15.45973	-45.56552	-203.4175	-53.70222	-44.75185	38.24249	-16.2734	0
552	-6.50936	6.50936	12.20505	-2.44101	-9.76404	8.1367	-77.29865	-225.38659	-80.55333	-61.83892	22.78276	-33.36047	0
553	21.15542	16.2734	-5.69569	-19.52808	13.01872	5.69569	-116.35481	-257.11972	-112.28646	-83.80801	-1.62734	-52.88855	0
554	55.32956	33.36047	-22.78276	-43.93818	39.86983	5.69569	-167.61602	-303.49891	-153.78363	-113.10013	-26.03744	-74.85764	0
555	91.94471	60.21158	-32.5468	-75.67131	61.83892	15.45973	-226.20026	-369.40618	-200.16282	-142.39225	-52.88855	-96.82673	0
556	128.55986	96.82673	-32.5468	-112.28646	81.367	32.5468	-296.98955	-459.72355	-253.86504	-174.12538	-89.5037	-118.79582	0
557	170.05703	140.76491	-30.10579	-156.22464	100.89508	56.9569	-375.10187	-559.80496	-312.44928	-205.85851	-128.55986	-143.20592	0
558	211.5542	194.46713	-17.90074	-202.60383	115.54114	88.69003	-455.6552	-657.44536	-368.59251	-237.59164	-165.17501	-165.17501	0
559	250.61036	253.05137	2.44101	-251.42403	125.30518	127.74619	-531.32651	-745.32172	-422.29473	-271.76578	-194.46713	-184.70309	0
560	284.7845	299.43056	14.64606	-292.9212	135.06922	157.03831	-602.1158	-825.87505	-471.11493	-301.0579	-221.31824	-204.23117	0
561	316.51763	328.72268	12.20505	-322.21332	152.15629	171.68437	-663.14105	-884.45929	-512.6121	-327.90901	-245.72834	-221.31824	0
562	343.36874	345.80975	2.44101	-344.18241	171.68437	174.12538	-709.52024	-911.3104	-541.90422	-342.55507	-260.3744	-233.52329	0
563	358.0148	350.69177	-8.1367	-353.94645	183.88942	171.68437	-736.37135	-899.10535	-556.55028	-349.8781	-270.13844	-243.28733	0
564	362.89682	340.92773	-22.78276	-351.50544	193.65346	159.47932	-738.81236	-855.16717	-554.10927	-349.8781	-265.25642	-243.28733	0
565	358.0148	314.07662	-44.75185	-336.85938	200.97649	135.06922	-726.60731	-801.46495	-546.78624	-342.55507	-255.49238	-235.9643	0
566	338.48672	277.46147	-61.83892	-307.56726	200.97649	108.21811	-702.19721	-747.76273	-529.69917	-325.468	-243.28733	-223.75925	0
567	306.75359	245.72834	-61.83892	-275.83413	183.88942	93.57205	-670.46408	-689.17849	-505.28907	-298.61689	-223.75925	-201.79016	0
568	265.25642	199.34915	-66.72094	-231.89595	166.80235	66.72094	-626.5259	-635.47627	-483.31998	-271.76578	-204.23117	-177.38006	0
569	206.67218	135.88289	-71.60296	-170.8707	139.95124	32.5468	-577.7057	-589.09708	-458.90988	-254.67871	-179.82107	-155.41097	0
570	148.08794	65.0936	-83.80801	-107.40444	115.54114	-9.76404	-531.32651	-564.68698	-439.3818	-232.70962	-152.96996	-131.00087	0
571	87.06269	-6.50936	-93.57205	-41.49717	88.69003	-48.8202	-487.38833	-559.80496	-422.29473	-218.06356	-133.44188	-109.03178	0
572	28.47845	-72.41663	-100.89508	20.34175	64.27993	-85.43535	-443.45015	-559.80496	-407.64867	-196.09447	-113.9138	-89.5037	0
573	-18.71441	-128.55986	-110.65912	71.60296	44.75185	-119.60949	-404.39399	-559.80496	-385.67958	-179.0074	-96.82673	-72.41663	0
574	-57.77057	-165.17501	-108.21811	110.65912	25.22377	-136.69656	-365.33783	-564.68698	-363.71049	-164.36134	-74.85764	-55.32956	0
575	-82.18067	-170.05703	-88.69003	125.30518	3.25468	-129.37353	-326.28167	-559.80496	-331.97736	-144.83326	-55.32956	-40.6835	0
576	-91.94471	-162.734	-71.60296	125.30518	-12.20505	-117.16848	-289.66652	-552.48193	-297.80322	-125.30518	-40.6835	-30.91946	0
577	-91.94471	-143.20592	-52.07488	115.54114	-21.96909	-97.6404	-255.49238	-537.83587	-266.07009	-108.21811	-33.36047	-26.03744	0
578	-91.94471	-123.67784	-32.5468	105.7771	-31.73313	-78.11232	-221.31824	-520.7488	-231.89595	-93.57205	-23.59643	-21.15542	0
579	-91.94471	-109.03178	-17.90074	98.45407	-39.05616	-63.46626	-187.1441	-503.66173	-200.16282	-83.80801	-8.95037	-18.71441	0
580	-87.06269	-94.38572	-8.1367	88.69003	-41.49717	-51.26121	-155.41097	-491.45668	-170.8707	-74.04397	5.69569	-13.83239	0
581	-87.06269	-84.62168	2.44101	83.80801	-46.37919	-41.49717	-133.44188	-484.13365	-148.90161	-66.72094	15.45973	-11.39138	0
582	-89.5037	-79.73966	9.76404	83.80801	-51.26121	-36.61515	-111.47279	-481.69264	-124.49151	-54.51589	27.66478	-6.50936	0
583	-91.94471	-74.85764	17.08707	81.367	-56.14323	-29.29212	-91.94471	-471.9286	-104.96343	-39.86983	38.24249	-1.62734	0
584	-94.38572	-72.41663	21.96909	81.367	-58.58424	-26.85111	-74.85764	-457.28254	-85.43535	-32.5468	50.44754	4.06835	0
585	-94.38572	-67.53461	26.85111	78.92599	-61.02525	-21.96909	-57.77057	-440.19547	-70.78929	-22.78276	60.21158	8.95037	0
586	-96.82673	-65.0936	31.73313	78.92599	-65.90727	-17.08707	-45.56552	-423.1084	-61.02525	-15.45973	62.65259	13.83239	0
587	-96.82673	-65.0936	31.73313	78.92599	-65.90727	-17.08707	-33.36047	-408.46234	-51.26121	-10.57771	62.65259	16.2734	0
588	-96.82673	-65.0936	31.73313	78.92599	-65.90727	-17.08707	-28.47845	-396.25729	-43.93818	-4.88202	65.0936	18.71441	0
589	-99.26774	-67.53461	31.73313	81.367	-65.90727	-19.52808	-23.59643	-388.93426	-39.05616	-4.88202	67.53461	18.71441	0
590	-99.26774	-67.53461	31.73313	81.367	-65.90727	-19.52808	-21.15542	-384.05224	-36.61515	-7.32303	72.41663	18.71441	0
591	-99.26774	-69.97562	29.29212	83.80801	-65.90727	-21.96909	-21.15542	-379.17022	-34.17414	-7.32303	72.41663	18.71441	0
592	-99.26774	-72.41663	26.85111	83.80801	-63.46626	-24.4101	-18.71441	-374.2882	-29.29212	-4.88202	74.85764	18.71441	0
593	-99.26774	-72.41663	26.85111	83.80801	-63.46626	-24.4101	-18.71441	-366.96517	-26.85111	-2.44101	77.29865	18.71441	0
594	-99.26774	-72.41663	26.85111	83.80801	-63.46626	-24.4101	-13.83239	-357.20113	-24.4101	-2.44101	82.18067	18.71441	0
595	-99.26774	-72.41663	26.85111	83.80801	-63.46626	-24.4101	-6.50936	-344.99608	-19.52808	-2.44101	82.18067	21.15542	0
596	-99.26774	-74.85764	24.4101	86.24902	-63.46626	-26.85111	0.81367	-337.67305	-17.08707	0	82.18067	21.15542	0
597	-99.26774	-74.85764	24.4101	86.24902	-63.46626	-26.85111	5.69569	-330.35002	-14.64606	4.88202	77.29865	21.15542	0
598	-99.26774	-74.85764	24.4101	86.24902	-63.46626	-26.85111	10.57771	-325.468	-12.20505	7.32303	74.85764	21.15542	0
599	-99.26774	-74.85764	24.4101	86.24902	-63.46626	-26.85111	13.01872	-323.02699	-9.76404	7.32303	69.97562	21.15542	0
600	-96.82673	-74.85764	21.96909	83.80801	-61.02525	-26.85111	13.01872	-320.58598	-7.32303	80.55333	-72.41663	21.15542	0
601	-96.82673	-74.85764	21.96909	83.80801	-61.02525	-26.85111	13.01872	-318.14497	-4.88202	117.16848	-174.93905	21.15542	0
602	-96.82673	-72.41663	24.4101	83.80801	-61.02525	-24.4101	10.57771	-313.26295	-2.44101	117.16848	-189.58511	21.15542	0
603	-96.82673	-72.41663	24.4101	83.80801	-61.02525	-24.4101	13.01872	-303.49891	0	178.19373	-304.31258	23.59643	0
604	-99.26774	-72.41663	26.85111	83.80801	-63.46626	-24.4101	16.2734	-291.29386	0	217.24989	-411.71702	23.59643	0
605	-99.26774	-72.41663	26.85111	83.80801	-63.46626	-24.4101	21.15542	-279.08881	3.25468	236.77797	-470.30126	23.59643	0
606	-101.70875	-72.41663	29.29212	86.24902	-65.90727	-21.96909	26.03744	-269.32477	5.69569	300.24423	-621.64388	23.59643	0
607	-101.70875	-72.41663	29.29212	86.24902	-65.90727	-21.96909	33.36047	-262.00174	8.1367	256.30605	-565.50065	23.59643	0
608	-101.70875	-72.41663	29.29212	86.24902	-65.90727	-21.96909	35.80148	-257.11972	10.57771	300.24423	-653.37701	21.15542	0
609	-99.26774	-72.41663	26.85111	83.80801	-63.46626	-24.4101	35.80148	-254.67871	13.01872	371.03352	-819.36569	21.15542	0
610	-99.26774	-69.97562	29.29212	83.80801	-65.90727	-21.96909	35.80148	-249.79669	15.45973	390.5616	-902.36003	21.15542	0
611	-99.26774	-67.53461	31.73313	81.367	-65.90727	-19.52808	35.80148	-242.47366	17.90074	371.03352	-882.83195	21.15542	0
612	-99.26774	-67.53461	31.73313	81.367	-65.90727	-19.52808	35.80148	-235.15063	22.78276	319.77231	-775.42751	23.59643	0
613	-96.82673	-65.0936	31.73313	78.92599	-65.90727	-17.08707	38.24249	-222.94558	25.22377	236.77797	-589.91075	23.59643	0
614	-96.82673	-62.65259	34.17414	78.92599	-65.90727	-14.64606	43.12451	-210.74053	27.66478	244.101	-577.7057	26.03744	0
615	-96.82673	-62.65259	34.17414	78.92599	-65.90727	-14.64606	48.00653	-196.09447	32.5468	248.98302	-570.38267	26.03744	0
616	-96.82673	-62.65259	34.17414	78.92599	-65.90727	-14.64606	55.32956	-181.44841	34.98781	192.83979	-455.6552	28.47845	0
617	-94.38572	-62.65259	31.73313	76.48498	-63.46626	-17.08707	62.65259	-169.24336	34.98781	307.56726	-660.70004	28.47845	0
618	-94.38572	-62.65259	31.73313	76.48498	-63.46626	-17.08707	65.0936	-161.92033	37.42882	585.8424	-1241.66042	26.03744	0
619	-94.38572	-62.65259	31.73313	76.48498	-63.46626	-17.08707	69.97562	-152.15629	42.31084	683.4828	-1546.78667	26.03744	0
620	-91.94471	-62.65259	29.29212	76.48498	-61.02525	-17.08707	69.97562	-142.39225	44.75185	786.00522	-1817.73878	28.47845	0
621	-91.94471	-62.65259	29.29212	76.48498	-61.02525	-17.08707	72.41663	-132.62821	47.19286	783.56421	-1893.41009	28.47845	0
622	-89.5037	-62.65259	26.85111	74.04397	-58.58424	-19.52808	72.41663	-122.86417	47.19286	844.58946	-2054.51675	28.47845	0
623	-89.5037	-60.21158	29.29212	74.04397	-61.02525	-17.08707	72.41663	-110.65912	52.07488	920.26077	-2249.79755	26.03744	0
624	-89.5037	-57.77057	31.73313	71.60296	-61.02525	-14.64606	77.29865	-96.01306	54.51589	778.68219	-2030.10665	26.03744	0
625	-87.06269	-55.32956	31.73313	69.16195	-61.02525	-12.20505	84.62168	-78.92599	56.9569	537.0222	-1510.17152	26.03744	0
626	-84.62168	-55.32956	29.29212	69.16195	-58.58424	-14.64606	89.5037	-63.46626	59.39791	466.23291	-1312.44971	26.03744	0
627	-84.62168	-55.32956	29.29212	69.16195	-58.58424	-14.64606	96.82673	-48.8202	61.83892	356.38746	-1039.05659	26.03744	0
628	-79.73966	-55.32956	24.4101	66.72094	-53.70222	-17.08707	101.70875	-31.73313	64.27993	258.74706	-797.3966	26.03744	0
629	-77.29865	-52.88855	24.4101	64.27993	-51.26121	-14.64606	106.59077	-17.08707	69.16195	107.40444	-436.12712	26.03744	0
630	-77.29865	-50.44754	26.85111	61.83892	-53.70222	-12.20505	109.03178	0	71.60296	-25.22377	-77.29865	26.03744	0
631	-72.41663	-48.00653	24.4101	59.39791	-48.8202	-12.20505	109.03178	17.08707	76.48498	19.52808	-96.82673	26.03744	0
632	-72.41663	-43.12451	29.29212	56.9569	-51.26121	-7.32303	111.47279	31.73313	78.92599	39.05616	-91.94471	28.47845	0
633	-67.53461	-40.6835	26.85111	52.07488	-48.8202	-7.32303	113.9138	51.26121	83.80801	48.8202	-82.18067	30.91946	0
634	-67.53461	-35.80148	31.73313	49.63387	-51.26121	-2.44101	116.35481	73.2303	86.24902	58.58424	-74.85764	30.91946	0
635	-65.0936	-35.80148	29.29212	49.63387	-48.8202	-4.88202	123.67784	95.19939	91.13104	65.90727	-72.41663	33.36047	0
636	-62.65259	-33.36047	29.29212	47.19286	-46.37919	-2.44101	128.55986	117.16848	93.57205	65.90727	-62.65259	33.36047	0
637	-57.77057	-33.36047	24.4101	44.75185	-41.49717	-4.88202	133.44188	136.69656	96.01306	26.85111	22.78276	30.91946	0
638	-55.32956	-33.36047	21.96909	42.31084	-39.05616	-7.32303	140.76491	158.66565	98.45407	12.20505	67.53461	30.91946	0
639	-52.88855	-30.91946	21.96909	39.86983	-39.05616	-4.88202	143.20592	183.07575	100.89508	12.20505	77.29865	30.91946	0
640	-48.00653	-28.47845	19.52808	37.42882	-34.17414	-4.88202	145.64693	205.04484	103.33609	12.20505	84.62168	28.47845	0
641	-43.12451	-26.03744	17.08707	32.5468	-31.73313	-4.88202	148.08794	227.01393	108.21811	7.32303	96.82673	28.47845	0
642	-40.6835	-23.59643	17.08707	30.10579	-29.29212	-4.88202	150.52895	248.98302	110.65912	12.20505	101.70875	28.47845	0
643	-40.6835	-21.15542	19.52808	30.10579	-31.73313	-2.44101	152.96996	273.39312	115.54114	14.64606	106.59077	28.47845	0
644	-35.80148	-18.71441	17.08707	25.22377	-26.85111	-2.44101	157.85198	300.24423	120.42316	14.64606	113.9138	28.47845	0
645	-28.47845	-16.2734	12.20505	20.34175	-21.96909	-2.44101	165.17501	329.53635	122.86417	19.52808	116.35481	28.47845	0
646	-23.59643	-16.2734	7.32303	17.90074	-17.08707	-4.88202	174.93905	356.38746	127.74619	21.96909	116.35481	30.91946	0
647	-21.15542	-16.2734	4.88202	17.90074	-14.64606	-7.32303	182.26208	383.23857	130.1872	24.4101	111.47279	30.91946	0
648	-16.2734	-16.2734	-0.81367	15.45973	-9.76404	-9.76404	187.1441	410.08968	132.62821	24.4101	109.03178	28.47845	0
649	-8.95037	-13.83239	-5.69569	10.57771	-2.44101	-9.76404	189.58511	439.3818	137.51023	21.96909	111.47279	28.47845	0
650	-4.06835	-11.39138	-8.1367	5.69569	0	-9.76404	194.46713	466.23291	139.95124	19.52808	113.9138	28.47845	0
651	0.81367	-8.95037	-10.57771	3.25468	5.69569	-9.76404	196.90814	493.08402	144.83326	17.08707	113.9138	26.03744	0
652	0.81367	-6.50936	-8.1367	0.81367	3.25468	-7.32303	196.90814	517.49412	147.27427	21.96909	111.47279	23.59643	0
653	6.50936	-1.62734	-8.1367	-2.44101	5.69569	-4.88202	199.34915	544.34523	149.71528	24.4101	111.47279	23.59643	0
654	11.39138	0.81367	-10.57771	-7.32303	10.57771	-4.88202	204.23117	573.63735	154.5973	26.85111	116.35481	23.59643	-1250	T-0
655	16.2734	4.06835	-13.01872	-9.76404	15.45973	-4.88202	209.11319	600.48846	159.47932	26.85111	118.79582	23.59643	0
656	23.59643	6.50936	-17.90074	-14.64606	20.34175	-4.88202	216.43622	629.78058	164.36134	31.73313	111.47279	21.15542	0
657	28.47845	8.95037	-20.34175	-19.52808	25.22377	-4.88202	223.75925	654.19068	166.80235	39.05616	94.38572	21.15542	0
658	35.80148	11.39138	-25.22377	-24.4101	30.10579	-7.32303	231.08228	681.04179	171.68437	46.37919	84.62168	18.71441	0
659	43.12451	11.39138	-32.5468	-26.85111	37.42882	-9.76404	235.9643	710.33391	176.56639	46.37919	72.41663	16.2734	0
660	50.44754	13.83239	-37.42882	-31.73313	44.75185	-12.20505	240.84632	737.18502	179.0074	151.34262	-133.44188	16.2734	0
661	55.32956	18.71441	-37.42882	-36.61515	47.19286	-9.76404	240.84632	761.59512	181.44841	353.94645	-567.94166	13.83239	0
662	60.21158	21.15542	-39.86983	-41.49717	49.63387	-9.76404	243.28733	783.56421	183.88942	561.4323	-1075.67174	13.83239	0
663	65.0936	26.03744	-39.86983	-46.37919	52.07488	-7.32303	245.72834	805.5333	188.77144	678.60078	-1397.88506	11.39138	0
664	72.41663	30.91946	-42.31084	-51.26121	56.9569	-4.88202	248.16935	827.50239	191.21245	908.05572	-1937.34827	11.39138	0
665	77.29865	33.36047	-44.75185	-56.14323	61.83892	-4.88202	253.05137	849.47148	193.65346	1291.29429	-2823.4349	8.95037	0
666	82.18067	35.80148	-47.19286	-58.58424	64.27993	-4.88202	257.93339	871.44057	196.09447	1479.25206	-3416.60033	6.50936	0
667	89.5037	38.24249	-52.07488	-63.46626	71.60296	-7.32303	265.25642	890.96865	196.09447	1406.02176	-3421.48235	1.62734	0
668	96.82673	43.12451	-54.51589	-70.78929	76.48498	-4.88202	267.69743	908.05572	198.53548	1303.49934	-3296.99084	-1.62734	0
669	104.14976	48.00653	-56.9569	-75.67131	81.367	-4.88202	270.13844	925.14279	198.53548	1213.18197	-3145.64822	-1.62734	0
670	109.03178	52.88855	-56.9569	-80.55333	83.80801	-2.44101	270.13844	939.78885	200.97649	1108.21854	-2957.69045	-6.50936	0
671	116.35481	60.21158	-56.9569	-87.87636	86.24902	3.25468	270.13844	949.55289	200.97649	805.5333	-2349.87896	-8.95037	0
672	121.23683	67.53461	-54.51589	-95.19939	88.69003	8.1367	265.25642	959.31693	200.97649	449.14584	-1546.78667	-11.39138	0
673	126.11885	74.85764	-52.07488	-100.08141	88.69003	13.01872	262.81541	969.08097	200.97649	395.44362	-1290.48062	-13.83239	0
674	133.44188	79.73966	-54.51589	-107.40444	93.57205	13.01872	262.81541	981.28602	200.97649	495.52503	-1422.29516	-16.2734	0
675	138.3239	82.18067	-56.9569	-109.84545	98.45407	13.01872	262.81541	988.60905	200.97649	495.52503	-1400.32607	-18.71441	0
676	143.20592	84.62168	-59.39791	-114.72747	100.89508	13.01872	265.25642	995.93208	198.53548	461.35089	-1331.97779	-21.15542	0
677	145.64693	87.06269	-59.39791	-117.16848	103.33609	15.45973	267.69743	1000.8141	198.53548	414.9717	-1217.25032	-23.59643	0
678	150.52895	91.94471	-59.39791	-122.0505	105.7771	17.90074	267.69743	1005.69612	198.53548	388.12059	-1139.138	-26.03744	0
679	152.96996	94.38572	-59.39791	-124.49151	105.7771	17.90074	267.69743	1005.69612	196.09447	410.08968	-1168.43012	-26.03744	0
680	155.41097	99.26774	-56.9569	-126.93252	105.7771	22.78276	262.81541	1005.69612	196.09447	273.39312	-909.68306	-26.03744	0
681	155.41097	104.14976	-52.07488	-129.37353	103.33609	27.66478	260.3744	1000.8141	196.09447	70.78929	-436.12712	-26.03744	0
682	157.85198	111.47279	-47.19286	-134.25555	103.33609	32.5468	255.49238	995.93208	193.65346	24.4101	-255.49238	-23.59643	0
683	157.85198	116.35481	-42.31084	-136.69656	100.89508	37.42882	250.61036	991.05006	193.65346	26.85111	-192.02612	-21.15542	0
684	157.85198	121.23683	-37.42882	-139.13757	98.45407	42.31084	248.16935	983.72703	193.65346	31.73313	-160.29299	-18.71441	0
685	160.29299	126.11885	-34.98781	-144.01959	98.45407	47.19286	248.16935	976.404	191.21245	9.76404	-84.62168	-16.2734	0
686	162.734	131.00087	-32.5468	-146.4606	98.45407	49.63387	245.72834	966.63996	191.21245	-10.57771	-16.2734	-16.2734	0
687	162.734	135.88289	-27.66478	-148.90161	96.01306	54.51589	243.28733	954.43491	186.33043	-4.88202	-1.62734	-13.83239	0
688	162.734	143.20592	-20.34175	-153.78363	91.13104	61.83892	238.40531	937.34784	183.88942	-2.44101	8.1367	-13.83239	0
689	165.17501	150.52895	-15.45973	-158.66565	91.13104	69.16195	233.52329	922.70178	179.0074	-2.44101	10.57771	-13.83239	0
690	165.17501	157.85198	-8.1367	-161.10666	86.24902	76.48498	226.20026	903.1737	176.56639	-7.32303	25.22377	-13.83239	0
691	165.17501	167.61602	2.44101	-165.98868	81.367	86.24902	218.87723	883.64562	171.68437	-15.45973	45.56552	-13.83239	0
692	165.17501	177.38006	12.20505	-170.8707	76.48498	96.01306	209.11319	859.23552	169.24336	-20.34175	72.41663	-11.39138	0
693	165.17501	184.70309	19.52808	-175.75272	74.04397	103.33609	199.34915	837.26643	164.36134	-20.34175	87.06269	-11.39138	0
694	162.734	189.58511	26.85111	-175.75272	69.16195	108.21811	189.58511	815.29734	157.03831	-20.34175	91.94471	-8.95037	0
695	160.29299	194.46713	34.17414	-178.19373	64.27993	115.54114	184.70309	790.88724	152.15629	-20.34175	94.38572	-8.95037	0
696	157.85198	196.90814	39.05616	-178.19373	59.39791	117.98215	177.38006	766.47714	147.27427	-20.34175	91.94471	-8.95037	0
697	155.41097	199.34915	43.93818	-178.19373	56.9569	122.86417	170.05703	737.18502	139.95124	-20.34175	87.06269	-8.95037	0
698	152.96996	199.34915	46.37919	-175.75272	54.51589	122.86417	160.29299	710.33391	135.06922	-17.90074	82.18067	-8.95037	0
699	150.52895	201.79016	51.26121	-175.75272	49.63387	127.74619	150.52895	678.60078	127.74619	-22.78276	82.18067	-11.39138	0
700	150.52895	206.67218	56.14323	-178.19373	47.19286	132.62821	140.76491	646.86765	120.42316	-27.66478	82.18067	-13.83239	0
701	145.64693	213.99521	68.34828	-180.63474	39.86983	142.39225	128.55986	612.69351	115.54114	-30.10579	82.18067	-13.83239	0
702	143.20592	221.31824	78.11232	-183.07575	32.5468	149.71528	116.35481	578.51937	108.21811	-30.10579	82.18067	-13.83239	0
703	140.76491	226.20026	85.43535	-183.07575	27.66478	157.03831	101.70875	544.34523	100.89508	-30.10579	79.73966	-13.83239	0
704	138.3239	228.64127	90.31737	-183.07575	25.22377	159.47932	94.38572	515.05311	96.01306	-34.98781	82.18067	-13.83239	0
705	133.44188	228.64127	95.19939	-180.63474	20.34175	161.92033	87.06269	483.31998	88.69003	-34.98781	82.18067	-13.83239	0
706	126.11885	228.64127	102.52242	-178.19373	13.01872	166.80235	79.73966	454.02786	81.367	-34.98781	79.73966	-13.83239	0
707	121.23683	223.75925	102.52242	-173.31171	10.57771	164.36134	77.29865	419.85372	74.04397	-34.98781	72.41663	-13.83239	0
708	116.35481	221.31824	104.96343	-168.42969	5.69569	164.36134	69.97562	385.67958	66.72094	-34.98781	69.97562	-13.83239	0
709	111.47279	216.43622	104.96343	-163.54767	3.25468	161.92033	60.21158	353.94645	61.83892	-37.42882	69.97562	-11.39138	0
710	106.59077	211.5542	104.96343	-158.66565	0	159.47932	52.88855	322.21332	56.9569	-39.86983	72.41663	-8.95037	0
711	99.26774	209.11319	109.84545	-153.78363	-4.88202	159.47932	40.6835	288.03918	52.07488	-39.86983	72.41663	-6.50936	0
712	91.94471	204.23117	112.28646	-148.90161	-9.76404	159.47932	30.91946	258.74706	47.19286	-34.98781	74.85764	-4.06835	0
713	84.62168	196.90814	112.28646	-141.57858	-14.64606	154.5973	23.59643	229.45494	47.19286	-30.10579	77.29865	-1.62734	0
714	77.29865	189.58511	112.28646	-134.25555	-17.08707	152.15629	16.2734	209.92686	44.75185	-30.10579	82.18067	1.62734	0
715	69.97562	179.82107	109.84545	-124.49151	-19.52808	144.83326	16.2734	190.39878	42.31084	-30.10579	84.62168	4.06835	0
716	65.0936	170.05703	104.96343	-117.16848	-19.52808	137.51023	16.2734	173.31171	39.86983	-27.66478	84.62168	4.06835	0
717	57.77057	157.85198	100.08141	-107.40444	-21.96909	130.1872	18.71441	153.78363	39.86983	-25.22377	79.73966	4.06835	0
718	52.88855	148.08794	95.19939	-100.08141	-21.96909	122.86417	21.15542	136.69656	37.42882	-22.78276	79.73966	6.50936	0
719	45.56552	138.3239	92.75838	-92.75838	-24.4101	115.54114	21.15542	117.16848	37.42882	-25.22377	79.73966	8.95037	0
720	40.6835	131.00087	90.31737	-85.43535	-24.4101	110.65912	18.71441	97.6404	34.98781	-27.66478	82.18067	11.39138	0
721	33.36047	121.23683	87.87636	-78.11232	-26.85111	105.7771	16.2734	80.55333	32.5468	-27.66478	84.62168	11.39138	0
722	28.47845	116.35481	87.87636	-73.2303	-29.29212	103.33609	13.01872	61.02525	32.5468	-25.22377	84.62168	13.83239	0
723	26.03744	109.03178	82.99434	-68.34828	-29.29212	96.01306	10.57771	46.37919	30.10579	-22.78276	84.62168	13.83239	0
724	21.15542	101.70875	80.55333	-61.02525	-29.29212	91.13104	8.1367	36.61515	25.22377	-25.22377	87.06269	13.83239	0
725	13.83239	91.94471	78.11232	-53.70222	-31.73313	86.24902	8.1367	29.29212	22.78276	-27.66478	87.06269	13.83239	0
726	11.39138	82.18067	70.78929	-46.37919	-29.29212	76.48498	10.57771	24.4101	20.34175	-27.66478	84.62168	13.83239	0
727	6.50936	72.41663	65.90727	-39.05616	-29.29212	69.16195	13.01872	14.64606	17.90074	-27.66478	77.29865	13.83239	0
728	0.81367	65.0936	63.46626	-34.17414	-31.73313	64.27993	13.01872	7.32303	15.45973	-25.22377	74.85764	13.83239	0
729	-1.62734	55.32956	56.14323	-26.85111	-29.29212	54.51589	16.2734	0	15.45973	-27.66478	74.85764	13.83239	0
730	-4.06835	48.00653	51.26121	-21.96909	-26.85111	49.63387	16.2734	-12.20505	13.01872	-30.10579	77.29865	13.83239	0
731	-6.50936	43.12451	48.8202	-19.52808	-26.85111	44.75185	13.01872	-21.96909	13.01872	-32.5468	74.85764	11.39138	0
732	-8.95037	40.6835	48.8202	-17.08707	-29.29212	44.75185	10.57771	-31.73313	13.01872	-32.5468	77.29865	11.39138	0
733	-11.39138	35.80148	46.37919	-12.20505	-29.29212	39.86983	5.69569	-39.05616	10.57771	-30.10579	77.29865	11.39138	0
734	-13.83239	33.36047	46.37919	-9.76404	-29.29212	39.86983	3.25468	-39.05616	10.57771	-32.5468	79.73966	13.83239	0
735	-16.2734	28.47845	43.93818	-7.32303	-29.29212	34.98781	5.69569	-39.05616	5.69569	-32.5468	82.18067	13.83239	0
736	-18.71441	21.15542	39.05616	-2.44101	-29.29212	30.10579	8.1367	-36.61515	5.69569	-32.5468	77.29865	13.83239	0
737	-18.71441	16.2734	34.17414	0.81367	-26.85111	25.22377	13.01872	-39.05616	5.69569	-30.10579	74.85764	16.2734	0
738	-21.15542	11.39138	31.73313	3.25468	-26.85111	20.34175	16.2734	-41.49717	5.69569	-27.66478	72.41663	16.2734	0
739	-21.15542	6.50936	26.85111	5.69569	-24.4101	15.45973	16.2734	-43.93818	5.69569	-30.10579	72.41663	18.71441	0
740	-21.15542	4.06835	24.4101	8.1367	-21.96909	13.01872	16.2734	-51.26121	5.69569	-32.5468	77.29865	21.15542	0
741	-21.15542	4.06835	24.4101	8.1367	-21.96909	13.01872	16.2734	-56.14323	5.69569	-32.5468	77.29865	21.15542	0
742	-21.15542	4.06835	24.4101	8.1367	-21.96909	13.01872	13.01872	-61.02525	5.69569	-30.10579	79.73966	21.15542	0
743	-21.15542	4.06835	24.4101	8.1367	-21.96909	13.01872	10.57771	-61.02525	5.69569	-27.66478	79.73966	21.15542	0
744	-21.15542	4.06835	24.4101	8.1367	-21.96909	13.01872	5.69569	-61.02525	5.69569	-30.10579	84.62168	21.15542	0
745	-21.15542	4.06835	24.4101	8.1367	-21.96909	13.01872	5.69569	-58.58424	3.25468	-30.10579	84.62168	21.15542	0
746	-21.15542	0.81367	21.96909	8.1367	-21.96909	10.57771	10.57771	-53.70222	3.25468	-30.10579	79.73966	21.15542	0
747	-23.59643	0.81367	24.4101	10.57771	-24.4101	13.01872	13.01872	-53.70222	3.25468	-30.10579	77.29865	21.15542	0
748	-23.59643	0.81367	24.4101	10.57771	-24.4101	13.01872	18.71441	-56.14323	3.25468	-27.66478	72.41663	21.15542	0
749	-26.03744	-1.62734	24.4101	13.01872	-26.85111	10.57771	18.71441	-58.58424	3.25468	-32.5468	72.41663	21.15542	0
750	-26.03744	-1.62734	24.4101	13.01872	-26.85111	10.57771	18.71441	-63.46626	3.25468	-34.98781	74.85764	21.15542	0
751	-26.03744	0.81367	26.85111	10.57771	-26.85111	13.01872	18.71441	-65.90727	3.25468	-34.98781	74.85764	21.15542	0
752	-26.03744	0.81367	26.85111	10.57771	-26.85111	13.01872	18.71441	-70.78929	5.69569	-32.5468	77.29865	21.15542	0
753	-26.03744	4.06835	29.29212	10.57771	-26.85111	15.45973	13.01872	-70.78929	5.69569	-32.5468	77.29865	18.71441	0
754	-23.59643	6.50936	29.29212	8.1367	-26.85111	17.90074	13.01872	-68.34828	5.69569	-34.98781	77.29865	16.2734	0
755	-21.15542	6.50936	26.85111	5.69569	-24.4101	15.45973	13.01872	-61.02525	3.25468	-34.98781	79.73966	16.2734	0
756	-21.15542	0.81367	21.96909	8.1367	-21.96909	10.57771	16.2734	-58.58424	3.25468	-37.42882	74.85764	13.83239	0
757	-21.15542	0.81367	21.96909	8.1367	-21.96909	10.57771	21.15542	-56.14323	3.25468	-34.98781	69.97562	13.83239	0
758	-23.59643	-1.62734	21.96909	10.57771	-24.4101	10.57771	23.59643	-56.14323	3.25468	-34.98781	67.53461	13.83239	0
759	-23.59643	-1.62734	21.96909	10.57771	-24.4101	10.57771	26.03744	-56.14323	3.25468	-37.42882	67.53461	13.83239	0
760	-23.59643	-1.62734	21.96909	10.57771	-24.4101	10.57771	26.03744	-58.58424	3.25468	-39.86983	69.97562	13.83239	0
761	-26.03744	0.81367	26.85111	10.57771	-26.85111	13.01872	23.59643	-63.46626	3.25468	-39.86983	69.97562	16.2734	0
762	-26.03744	0.81367	26.85111	10.57771	-26.85111	13.01872	23.59643	-68.34828	5.69569	-34.98781	74.85764	18.71441	0
763	-23.59643	4.06835	26.85111	8.1367	-24.4101	15.45973	18.71441	-68.34828	5.69569	-30.10579	77.29865	21.15542	0
764	-23.59643	6.50936	29.29212	8.1367	-26.85111	17.90074	16.2734	-65.90727	5.69569	-30.10579	82.18067	21.15542	0
765	-23.59643	6.50936	29.29212	8.1367	-26.85111	17.90074	16.2734	-61.02525	5.69569	-30.10579	84.62168	21.15542	0
766	-23.59643	4.06835	26.85111	8.1367	-24.4101	15.45973	21.15542	-56.14323	5.69569	-25.22377	84.62168	23.59643	0
767	-23.59643	4.06835	26.85111	8.1367	-24.4101	15.45973	26.03744	-56.14323	5.69569	-20.34175	84.62168	23.59643	0
768	-23.59643	4.06835	26.85111	8.1367	-24.4101	15.45973	28.47845	-56.14323	5.69569	-17.90074	84.62168	26.03744	0
769	-23.59643	0.81367	24.4101	10.57771	-24.4101	13.01872	28.47845	-58.58424	5.69569	-17.90074	84.62168	26.03744	0
770	-23.59643	0.81367	24.4101	10.57771	-24.4101	13.01872	26.03744	-63.46626	5.69569	-17.90074	87.06269	26.03744	0
771	-23.59643	4.06835	26.85111	8.1367	-24.4101	15.45973	23.59643	-65.90727	5.69569	-17.90074	87.06269	26.03744	0
772	-23.59643	4.06835	26.85111	8.1367	-24.4101	15.45973	21.15542	-70.78929	8.1367	-17.90074	87.06269	26.03744	0
773	-23.59643	6.50936	29.29212	8.1367	-26.85111	17.90074	16.2734	-70.78929	8.1367	-15.45973	89.5037	23.59643	0
774	-23.59643	6.50936	29.29212	8.1367	-26.85111	17.90074	13.01872	-65.90727	8.1367	-17.90074	91.94471	23.59643	0
775	-23.59643	6.50936	29.29212	8.1367	-26.85111	17.90074	13.01872	-61.02525	5.69569	-22.78276	91.94471	21.15542	0
776	-23.59643	4.06835	26.85111	8.1367	-24.4101	15.45973	16.2734	-56.14323	5.69569	-22.78276	87.06269	21.15542	0
777	-23.59643	0.81367	24.4101	10.57771	-24.4101	13.01872	21.15542	-56.14323	3.25468	-22.78276	82.18067	21.15542	0
778	-23.59643	0.81367	24.4101	10.57771	-24.4101	13.01872	23.59643	-56.14323	3.25468	-20.34175	79.73966	18.71441	0
779	-23.59643	-1.62734	21.96909	10.57771	-24.4101	10.57771	23.59643	-56.14323	3.25468	-25.22377	77.29865	18.71441	0
780	-23.59643	-1.62734	21.96909	10.57771	-24.4101	10.57771	21.15542	-61.02525	3.25468	-25.22377	79.73966	18.71441	0
781	-23.59643	-1.62734	21.96909	10.57771	-24.4101	10.57771	18.71441	-65.90727	3.25468	-27.66478	79.73966	18.71441	0
782	-21.15542	0.81367	21.96909	8.1367	-21.96909	10.57771	16.2734	-70.78929	3.25468	-25.22377	79.73966	18.71441	0
783	-21.15542	6.50936	26.85111	5.69569	-24.4101	15.45973	13.01872	-70.78929	3.25468	-22.78276	79.73966	18.71441	0
784	-21.15542	6.50936	26.85111	5.69569	-24.4101	15.45973	10.57771	-68.34828	3.25468	-22.78276	82.18067	18.71441	0
785	-21.15542	6.50936	26.85111	5.69569	-24.4101	15.45973	10.57771	-63.46626	0	-22.78276	82.18067	18.71441	0
786	-23.59643	4.06835	26.85111	8.1367	-24.4101	15.45973	13.01872	-63.46626	0	-22.78276	79.73966	16.2734	0
787	-23.59643	0.81367	24.4101	10.57771	-24.4101	13.01872	16.2734	-61.02525	0	-20.34175	77.29865	16.2734	0
788	-23.59643	-1.62734	21.96909	10.57771	-24.4101	10.57771	18.71441	-61.02525	0	-20.34175	74.85764	16.2734	0
789	-23.59643	-4.06835	19.52808	13.01872	-21.96909	8.1367	18.71441	-63.46626	0	-25.22377	72.41663	16.2734	0
790	-23.59643	-4.06835	19.52808	13.01872	-21.96909	8.1367	16.2734	-68.34828	0	-27.66478	74.85764	16.2734	0
791	-23.59643	-4.06835	19.52808	13.01872	-21.96909	8.1367	13.01872	-70.78929	0	-27.66478	74.85764	16.2734	0
792	-23.59643	-1.62734	21.96909	10.57771	-24.4101	10.57771	10.57771	-74.04397	0	-25.22377	74.85764	18.71441	0
793	-23.59643	-1.62734	21.96909	10.57771	-24.4101	10.57771	8.1367	-78.92599	0	-22.78276	74.85764	18.71441	0
794	-23.59643	-1.62734	21.96909	10.57771	-24.4101	10.57771	3.25468	-76.48498	0	-22.78276	77.29865	18.71441	0
795	-26.03744	-1.62734	24.4101	13.01872	-26.85111	10.57771	3.25468	-74.04397	0	-22.78276	77.29865	18.71441	0
796	-28.47845	-4.06835	24.4101	15.45973	-26.85111	10.57771	8.1367	-74.04397	0	-22.78276	72.41663	18.71441	0
797	-28.47845	-6.50936	21.96909	15.45973	-26.85111	8.1367	13.01872	-74.04397	0	-15.45973	62.65259	18.71441	0
798	-28.47845	-8.95037	19.52808	17.90074	-24.4101	5.69569	13.01872	-76.48498	0	-15.45973	60.21158	18.71441	0
799	-30.91946	-11.39138	19.52808	20.34175	-26.85111	3.25468	13.01872	-78.92599	-2.44101	-20.34175	57.77057	18.71441	0
800	-26.03744	-11.39138	14.64606	17.90074	-21.96909	0	13.01872	-83.80801	-2.44101	-20.34175	55.32956	18.71441	0
801	-26.03744	-8.95037	17.08707	15.45973	-21.96909	3.25468	10.57771	-88.69003	-2.44101	-17.90074	45.56552	18.71441	0
802	-26.03744	-8.95037	17.08707	15.45973	-21.96909	3.25468	5.69569	-96.01306	-2.44101	0	8.1367	18.71441	0
803	-23.59643	-6.50936	17.08707	13.01872	-21.96909	5.69569	0.81367	-98.45407	-2.44101	0	5.69569	18.71441	0
804	-23.59643	-6.50936	17.08707	13.01872	-21.96909	5.69569	-1.62734	-96.01306	-4.88202	-2.44101	10.57771	16.2734	0
805	-21.15542	-6.50936	14.64606	13.01872	-19.52808	3.25468	-1.62734	-91.13104	-7.32303	-2.44101	10.57771	16.2734	0
806	-21.15542	-6.50936	14.64606	13.01872	-19.52808	3.25468	0.81367	-86.24902	-9.76404	-2.44101	10.57771	16.2734	0
807	-21.15542	-8.95037	12.20505	13.01872	-17.08707	0	3.25468	-86.24902	-9.76404	-4.88202	10.57771	13.83239	0
808	-18.71441	-8.95037	9.76404	13.01872	-14.64606	0	5.69569	-83.80801	-14.64606	-22.78276	43.12451	11.39138	0
809	-18.71441	-8.95037	9.76404	13.01872	-14.64606	0	5.69569	-81.367	-17.08707	-32.5468	57.77057	8.95037	0
810	-16.2734	-8.95037	7.32303	10.57771	-12.20505	-2.44101	3.25468	-86.24902	-17.08707	-34.98781	60.21158	8.95037	0
811	-16.2734	-4.06835	12.20505	8.1367	-14.64606	3.25468	-1.62734	-91.13104	-19.52808	-34.98781	60.21158	6.50936	0
812	-16.2734	-1.62734	14.64606	8.1367	-17.08707	5.69569	-4.06835	-96.01306	-21.96909	-34.98781	60.21158	6.50936	0
813	-16.2734	-1.62734	14.64606	8.1367	-17.08707	5.69569	-6.50936	-98.45407	-21.96909	-32.5468	60.21158	6.50936	0
814	-16.2734	-1.62734	14.64606	8.1367	-17.08707	5.69569	-8.95037	-96.01306	-24.4101	-34.98781	62.65259	4.06835	0
815	-16.2734	-1.62734	14.64606	8.1367	-17.08707	5.69569	-11.39138	-96.01306	-24.4101	-37.42882	65.0936	4.06835	0
816	-16.2734	-4.06835	12.20505	8.1367	-14.64606	3.25468	-13.83239	-91.13104	-26.85111	-37.42882	60.21158	1.62734	0
817	-16.2734	-6.50936	9.76404	10.57771	-14.64606	0	-13.83239	-91.13104	-29.29212	-34.98781	57.77057	1.62734	0
818	-13.83239	-6.50936	7.32303	8.1367	-12.20505	0	-11.39138	-91.13104	-31.73313	-32.5468	55.32956	-1.62734	0
819	-13.83239	-8.95037	4.88202	10.57771	-9.76404	-2.44101	-13.83239	-93.57205	-31.73313	-37.42882	52.88855	-1.62734	0
820	-13.83239	-8.95037	4.88202	10.57771	-9.76404	-2.44101	-16.2734	-98.45407	-36.61515	-39.86983	55.32956	-1.62734	0
821	-13.83239	-8.95037	4.88202	10.57771	-9.76404	-2.44101	-18.71441	-100.89508	-39.05616	-42.31084	55.32956	-1.62734	0
822	-13.83239	-8.95037	4.88202	10.57771	-9.76404	-2.44101	-21.15542	-108.21811	-39.05616	-37.42882	55.32956	-1.62734	0
823	-16.2734	-8.95037	7.32303	10.57771	-12.20505	-2.44101	-23.59643	-110.65912	-41.49717	-34.98781	55.32956	-1.62734	0
824	-18.71441	-11.39138	7.32303	13.01872	-14.64606	-2.44101	-26.03744	-110.65912	-41.49717	-34.98781	57.77057	-1.62734	0
825	-18.71441	-13.83239	4.88202	15.45973	-12.20505	-4.88202	-28.47845	-108.21811	-43.93818	-34.98781	60.21158	-1.62734	0
826	-18.71441	-16.2734	2.44101	15.45973	-12.20505	-7.32303	-28.47845	-105.7771	-46.37919	-34.98781	57.77057	-1.62734	0
827	-18.71441	-18.71441	-0.81367	17.90074	-9.76404	-9.76404	-26.03744	-105.7771	-46.37919	-32.5468	55.32956	-1.62734	0
828	-18.71441	-21.15542	-3.25468	17.90074	-9.76404	-12.20505	-26.03744	-105.7771	-46.37919	-32.5468	55.32956	-1.62734	0
829	-18.71441	-21.15542	-3.25468	17.90074	-9.76404	-12.20505	-26.03744	-105.7771	-48.8202	-37.42882	55.32956	-1.62734	0
830	-16.2734	-21.15542	-5.69569	17.90074	-7.32303	-14.64606	-26.03744	-110.65912	-48.8202	-39.86983	57.77057	-4.06835	0
831	-16.2734	-21.15542	-5.69569	17.90074	-7.32303	-14.64606	-26.03744	-113.10013	-51.26121	-42.31084	57.77057	-4.06835	0
832	-16.2734	-21.15542	-5.69569	17.90074	-7.32303	-14.64606	-28.47845	-117.98215	-51.26121	-37.42882	57.77057	-4.06835	0
833	-16.2734	-21.15542	-5.69569	17.90074	-7.32303	-14.64606	-30.91946	-120.42316	-51.26121	-34.98781	57.77057	-4.06835	0
834	-18.71441	-21.15542	-3.25468	17.90074	-9.76404	-12.20505	-33.36047	-115.54114	-51.26121	-37.42882	60.21158	-6.50936	0
835	-18.71441	-21.15542	-3.25468	17.90074	-9.76404	-12.20505	-35.80148	-113.10013	-51.26121	-37.42882	62.65259	-6.50936	0
836	-21.15542	-21.15542	-0.81367	20.34175	-12.20505	-12.20505	-35.80148	-108.21811	-51.26121	-34.98781	60.21158	-6.50936	0
837	-21.15542	-21.15542	-0.81367	20.34175	-12.20505	-12.20505	-35.80148	-108.21811	-51.26121	-32.5468	57.77057	-6.50936	0
838	-21.15542	-23.59643	-3.25468	20.34175	-9.76404	-14.64606	-35.80148	-108.21811	-53.70222	-32.5468	55.32956	-8.95037	0
839	-21.15542	-26.03744	-5.69569	22.78276	-9.76404	-17.08707	-35.80148	-108.21811	-53.70222	-37.42882	55.32956	-11.39138	0
840	-21.15542	-26.03744	-5.69569	22.78276	-9.76404	-17.08707	-38.24249	-115.54114	-53.70222	-39.86983	55.32956	-11.39138	0
841	-21.15542	-26.03744	-5.69569	22.78276	-9.76404	-17.08707	-38.24249	-120.42316	-56.14323	-42.31084	55.32956	-13.83239	0
842	-21.15542	-26.03744	-5.69569	22.78276	-9.76404	-17.08707	-40.6835	-125.30518	-56.14323	-42.31084	55.32956	-13.83239	0
843	-23.59643	-28.47845	-5.69569	25.22377	-9.76404	-17.08707	-43.12451	-130.1872	-56.14323	-37.42882	55.32956	-13.83239	0
844	-26.03744	-28.47845	-3.25468	25.22377	-12.20505	-17.08707	-45.56552	-127.74619	-56.14323	-39.86983	55.32956	-13.83239	0
845	-26.03744	-30.91946	-5.69569	27.66478	-12.20505	-19.52808	-48.00653	-125.30518	-58.58424	-39.86983	57.77057	-13.83239	0
846	-28.47845	-35.80148	-8.1367	30.10579	-12.20505	-21.96909	-48.00653	-120.42316	-58.58424	-37.42882	57.77057	-13.83239	0
847	-28.47845	-35.80148	-8.1367	30.10579	-12.20505	-21.96909	-45.56552	-120.42316	-58.58424	-34.98781	52.88855	-13.83239	0
848	-28.47845	-38.24249	-10.57771	32.5468	-9.76404	-24.4101	-43.12451	-122.86417	-56.14323	-34.98781	50.44754	-13.83239	0
849	-28.47845	-40.6835	-13.01872	32.5468	-9.76404	-26.85111	-45.56552	-125.30518	-56.14323	-37.42882	50.44754	-13.83239	0
850	-28.47845	-43.12451	-15.45973	34.98781	-7.32303	-29.29212	-45.56552	-130.1872	-56.14323	-37.42882	50.44754	-13.83239	0
851	-28.47845	-43.12451	-15.45973	34.98781	-7.32303	-29.29212	-45.56552	-135.06922	-56.14323	-39.86983	50.44754	-13.83239	0
852	-28.47845	-43.12451	-15.45973	34.98781	-7.32303	-29.29212	-45.56552	-142.39225	-56.14323	-37.42882	50.44754	-16.2734	0
853	-28.47845	-43.12451	-15.45973	34.98781	-7.32303	-29.29212	-48.00653	-144.83326	-56.14323	-32.5468	50.44754	-16.2734	0
854	-30.91946	-43.12451	-13.01872	34.98781	-9.76404	-29.29212	-50.44754	-144.83326	-56.14323	-32.5468	50.44754	-16.2734	0
855	-30.91946	-45.56552	-15.45973	37.42882	-9.76404	-31.73313	-50.44754	-139.95124	-56.14323	-32.5468	50.44754	-16.2734	0
856	-30.91946	-45.56552	-15.45973	37.42882	-9.76404	-31.73313	-50.44754	-135.06922	-56.14323	-32.5468	50.44754	-16.2734	0
857	-30.91946	-48.00653	-17.90074	37.42882	-7.32303	-34.17414	-45.56552	-132.62821	-56.14323	-30.10579	45.56552	-13.83239	0
858	-30.91946	-48.00653	-17.90074	37.42882	-7.32303	-34.17414	-43.12451	-132.62821	-56.14323	-27.66478	45.56552	-13.83239	0
859	-33.36047	-50.44754	-17.90074	39.86983	-9.76404	-34.17414	-43.12451	-132.62821	-56.14323	-27.66478	45.56552	-13.83239	0
860	-33.36047	-50.44754	-17.90074	39.86983	-9.76404	-34.17414	-43.12451	-139.95124	-56.14323	-27.66478	48.00653	-13.83239	0
861	-30.91946	-50.44754	-20.34175	39.86983	-7.32303	-36.61515	-43.12451	-144.83326	-56.14323	-27.66478	48.00653	-13.83239	0
862	-30.91946	-50.44754	-20.34175	39.86983	-7.32303	-36.61515	-43.12451	-149.71528	-53.70222	-25.22377	50.44754	-13.83239	0
863	-30.91946	-48.00653	-17.90074	37.42882	-7.32303	-34.17414	-43.12451	-152.15629	-53.70222	-22.78276	50.44754	-13.83239	0
864	-28.47845	-48.00653	-20.34175	37.42882	-4.88202	-34.17414	-48.00653	-152.15629	-53.70222	-22.78276	50.44754	-13.83239	0
865	-26.03744	-48.00653	-22.78276	34.98781	-2.44101	-36.61515	-48.00653	-147.27427	-53.70222	-22.78276	50.44754	-13.83239	0
866	-26.03744	-45.56552	-20.34175	34.98781	-4.88202	-34.17414	-48.00653	-139.95124	-51.26121	-20.34175	50.44754	-11.39138	0
867	-26.03744	-40.6835	-15.45973	32.5468	-7.32303	-29.29212	-43.12451	-135.06922	-48.8202	-20.34175	48.00653	-11.39138	0
868	-23.59643	-35.80148	-13.01872	27.66478	-7.32303	-24.4101	-38.24249	-132.62821	-46.37919	-17.90074	48.00653	-11.39138	0
869	-23.59643	-30.91946	-8.1367	25.22377	-9.76404	-19.52808	-35.80148	-130.1872	-43.93818	-17.90074	48.00653	-11.39138	0
870	-21.15542	-21.15542	-0.81367	20.34175	-12.20505	-12.20505	-33.36047	-130.1872	-39.05616	-15.45973	52.88855	-6.50936	0
871	-21.15542	-13.83239	7.32303	15.45973	-14.64606	-4.88202	-30.91946	-130.1872	-36.61515	-13.01872	60.21158	-4.06835	0
872	-21.15542	-6.50936	14.64606	13.01872	-19.52808	3.25468	-28.47845	-132.62821	-31.73313	-10.57771	65.0936	-1.62734	0
873	-18.71441	0.81367	19.52808	8.1367	-19.52808	10.57771	-26.03744	-132.62821	-24.4101	-2.44101	67.53461	1.62734	0
874	-18.71441	4.06835	21.96909	5.69569	-19.52808	13.01872	-23.59643	-127.74619	-19.52808	2.44101	72.41663	4.06835	0
875	-18.71441	8.95037	26.85111	3.25468	-21.96909	17.90074	-21.15542	-120.42316	-17.08707	4.88202	74.85764	8.95037	0
876	-18.71441	11.39138	29.29212	3.25468	-24.4101	20.34175	-18.71441	-110.65912	-14.64606	9.76404	74.85764	8.95037	0
877	-18.71441	11.39138	29.29212	3.25468	-24.4101	20.34175	-13.83239	-105.7771	-12.20505	12.20505	72.41663	8.95037	0
878	-18.71441	13.83239	31.73313	0.81367	-24.4101	22.78276	-13.83239	-105.7771	-12.20505	12.20505	69.97562	8.95037	0
879	-16.2734	13.83239	29.29212	0.81367	-21.96909	20.34175	-13.83239	-105.7771	-14.64606	9.76404	67.53461	4.06835	0
880	-13.83239	16.2734	29.29212	-2.44101	-21.96909	22.78276	-18.71441	-110.65912	-19.52808	2.44101	65.0936	-1.62734	0
881	-11.39138	16.2734	26.85111	-2.44101	-19.52808	20.34175	-23.59643	-117.98215	-24.4101	0	62.65259	-4.06835	0
882	-11.39138	16.2734	26.85111	-2.44101	-19.52808	20.34175	-28.47845	-127.74619	-29.29212	-4.88202	60.21158	-8.95037	0
883	-6.50936	13.83239	19.52808	-4.88202	-12.20505	15.45973	-35.80148	-135.06922	-34.17414	-7.32303	55.32956	-11.39138	0
884	-6.50936	11.39138	17.08707	-2.44101	-12.20505	13.01872	-43.12451	-137.51023	-41.49717	-10.57771	52.88855	-16.2734	0
885	-6.50936	8.95037	14.64606	-2.44101	-9.76404	10.57771	-48.00653	-137.51023	-46.37919	-13.01872	48.00653	-18.71441	0
886	-8.95037	6.50936	14.64606	0.81367	-12.20505	10.57771	-52.88855	-137.51023	-48.8202	-13.01872	45.56552	-21.15542	0
887	-8.95037	4.06835	12.20505	0.81367	-9.76404	8.1367	-52.88855	-137.51023	-53.70222	-15.45973	43.12451	-21.15542	0
888	-11.39138	0.81367	12.20505	3.25468	-12.20505	5.69569	-52.88855	-139.95124	-56.14323	-17.90074	40.6835	-26.03744	0
889	-13.83239	0.81367	14.64606	5.69569	-14.64606	8.1367	-55.32956	-142.39225	-61.02525	-20.34175	38.24249	-28.47845	0
890	-13.83239	0.81367	14.64606	5.69569	-14.64606	8.1367	-57.77057	-147.27427	-63.46626	-25.22377	38.24249	-30.91946	0
891	-8.95037	0.81367	9.76404	3.25468	-9.76404	5.69569	-60.21158	-152.15629	-65.90727	-27.66478	35.80148	-33.36047	0
892	-4.06835	0.81367	4.88202	0.81367	-4.88202	3.25468	-65.0936	-159.47932	-68.34828	-30.10579	33.36047	-38.24249	0
893	0.81367	4.06835	2.44101	-2.44101	0	3.25468	-69.97562	-164.36134	-73.2303	-34.98781	27.66478	-43.12451	0
894	6.50936	4.06835	-3.25468	-4.88202	5.69569	0	-77.29865	-164.36134	-78.11232	-39.86983	25.22377	-48.00653	0
895	8.95037	4.06835	-5.69569	-7.32303	8.1367	0	-79.73966	-161.92033	-80.55333	-42.31084	20.34175	-52.88855	0
896	8.95037	0.81367	-8.1367	-4.88202	8.1367	-2.44101	-82.18067	-157.03831	-82.99434	-44.75185	15.45973	-52.88855	0
897	8.95037	0.81367	-8.1367	-4.88202	8.1367	-2.44101	-79.73966	-157.03831	-85.43535	-44.75185	13.01872	-55.32956	0
898	6.50936	0.81367	-5.69569	-4.88202	5.69569	-2.44101	-77.29865	-157.03831	-85.43535	-44.75185	13.01872	-57.77057	0
899	0.81367	-4.06835	-5.69569	0.81367	3.25468	-4.88202	-74.85764	-154.5973	-82.99434	-44.75185	17.90074	-55.32956	0
900	0.81367	-6.50936	-8.1367	0.81367	3.25468	-7.32303	-69.97562	-154.5973	-80.55333	-39.86983	22.78276	-50.44754	0
901	-1.62734	-6.50936	-5.69569	3.25468	0	-7.32303	-67.53461	-154.5973	-75.67131	-37.42882	27.66478	-48.00653	0
902	-4.06835	-6.50936	-3.25468	3.25468	-2.44101	-4.88202	-62.65259	-154.5973	-70.78929	-32.5468	30.91946	-43.12451	0
903	-4.06835	-6.50936	-3.25468	3.25468	-2.44101	-4.88202	-60.21158	-149.71528	-65.90727	-27.66478	33.36047	-40.6835	0
904	-1.62734	-6.50936	-5.69569	3.25468	0	-7.32303	-57.77057	-142.39225	-61.02525	-25.22377	35.80148	-38.24249	0
905	-1.62734	-6.50936	-5.69569	3.25468	0	-7.32303	-55.32956	-132.62821	-58.58424	-22.78276	38.24249	-35.80148	0
906	-4.06835	-11.39138	-8.1367	5.69569	0	-9.76404	-50.44754	-122.86417	-56.14323	-17.90074	38.24249	-30.91946	0
907	-8.95037	-16.2734	-8.1367	10.57771	-2.44101	-12.20505	-45.56552	-120.42316	-53.70222	-15.45973	40.6835	-28.47845	0
908	-13.83239	-21.15542	-8.1367	15.45973	-4.88202	-14.64606	-38.24249	-120.42316	-51.26121	-15.45973	40.6835	-26.03744	0
909	-21.15542	-28.47845	-8.1367	22.78276	-7.32303	-19.52808	-35.80148	-120.42316	-51.26121	-13.01872	43.12451	-26.03744	0
910	-28.47845	-33.36047	-5.69569	30.10579	-12.20505	-19.52808	-30.91946	-125.30518	-48.8202	-10.57771	45.56552	-23.59643	0
911	-35.80148	-40.6835	-5.69569	37.42882	-17.08707	-24.4101	-30.91946	-135.06922	-48.8202	-10.57771	48.00653	-21.15542	0
912	-40.6835	-45.56552	-5.69569	42.31084	-19.52808	-26.85111	-30.91946	-142.39225	-48.8202	-10.57771	48.00653	-21.15542	0
913	-40.6835	-50.44754	-10.57771	44.75185	-17.08707	-31.73313	-33.36047	-147.27427	-48.8202	-10.57771	45.56552	-21.15542	0
914	-40.6835	-55.32956	-15.45973	47.19286	-14.64606	-36.61515	-38.24249	-147.27427	-51.26121	-10.57771	43.12451	-21.15542	0
915	-40.6835	-60.21158	-20.34175	49.63387	-12.20505	-41.49717	-38.24249	-144.83326	-51.26121	-13.01872	40.6835	-21.15542	0
916	-43.12451	-62.65259	-20.34175	52.07488	-12.20505	-41.49717	-40.6835	-142.39225	-53.70222	-13.01872	40.6835	-21.15542	0
917	-45.56552	-67.53461	-22.78276	54.51589	-12.20505	-46.37919	-35.80148	-142.39225	-53.70222	-13.01872	38.24249	-21.15542	0
918	-48.00653	-69.97562	-22.78276	56.9569	-14.64606	-46.37919	-33.36047	-139.95124	-53.70222	-13.01872	38.24249	-21.15542	0
919	-50.44754	-72.41663	-22.78276	59.39791	-14.64606	-48.8202	-30.91946	-139.95124	-53.70222	-13.01872	35.80148	-21.15542	0
920	-48.00653	-72.41663	-25.22377	59.39791	-12.20505	-48.8202	-30.91946	-142.39225	-53.70222	-13.01872	35.80148	-21.15542	0
921	-48.00653	-69.97562	-22.78276	56.9569	-14.64606	-46.37919	-30.91946	-142.39225	-51.26121	-15.45973	35.80148	-21.15542	0
922	-43.12451	-69.97562	-27.66478	54.51589	-9.76404	-48.8202	-30.91946	-147.27427	-51.26121	-15.45973	33.36047	-21.15542	0
923	-35.80148	-67.53461	-32.5468	49.63387	-2.44101	-51.26121	-30.91946	-144.83326	-51.26121	-17.90074	27.66478	-26.03744	0
924	-28.47845	-65.0936	-37.42882	44.75185	3.25468	-51.26121	-35.80148	-139.95124	-51.26121	-20.34175	27.66478	-26.03744	0
925	-26.03744	-65.0936	-39.86983	44.75185	5.69569	-53.70222	-35.80148	-132.62821	-51.26121	-20.34175	25.22377	-28.47845	0
926	-26.03744	-67.53461	-42.31084	44.75185	8.1367	-56.14323	-35.80148	-125.30518	-48.8202	-20.34175	22.78276	-28.47845	0
927	-28.47845	-72.41663	-44.75185	49.63387	8.1367	-58.58424	-28.47845	-122.86417	-46.37919	-22.78276	22.78276	-28.47845	0
928	-30.91946	-72.41663	-42.31084	49.63387	5.69569	-58.58424	-23.59643	-120.42316	-46.37919	-20.34175	22.78276	-28.47845	0
929	-35.80148	-74.85764	-39.86983	54.51589	0	-58.58424	-23.59643	-120.42316	-43.93818	-17.90074	22.78276	-23.59643	0
930	-40.6835	-74.85764	-34.98781	56.9569	-4.88202	-56.14323	-21.15542	-122.86417	-41.49717	-15.45973	27.66478	-21.15542	0
931	-40.6835	-74.85764	-34.98781	56.9569	-4.88202	-56.14323	-18.71441	-127.74619	-41.49717	-13.01872	27.66478	-18.71441	0
932	-40.6835	-69.97562	-30.10579	54.51589	-7.32303	-51.26121	-18.71441	-130.1872	-39.05616	-10.57771	27.66478	-18.71441	0
933	-38.24249	-69.97562	-32.5468	52.07488	-4.88202	-51.26121	-18.71441	-132.62821	-36.61515	-10.57771	30.91946	-16.2734	0
934	-38.24249	-67.53461	-30.10579	52.07488	-4.88202	-48.8202	-18.71441	-127.74619	-36.61515	-10.57771	30.91946	-13.83239	0
935	-33.36047	-67.53461	-34.98781	49.63387	0	-51.26121	-21.15542	-122.86417	-36.61515	-10.57771	27.66478	-13.83239	0
936	-30.91946	-69.97562	-39.86983	49.63387	3.25468	-56.14323	-18.71441	-115.54114	-36.61515	-13.01872	27.66478	-13.83239	0
937	-30.91946	-72.41663	-42.31084	49.63387	5.69569	-58.58424	-16.2734	-113.10013	-36.61515	-13.01872	27.66478	-13.83239	0
938	-33.36047	-72.41663	-39.86983	52.07488	3.25468	-56.14323	-13.83239	-113.10013	-36.61515	-13.01872	27.66478	-13.83239	0
939	-33.36047	-74.85764	-42.31084	52.07488	3.25468	-58.58424	-13.83239	-113.10013	-36.61515	-15.45973	25.22377	-16.2734	0
940	-33.36047	-74.85764	-42.31084	52.07488	3.25468	-58.58424	-13.83239	-117.98215	-36.61515	-15.45973	25.22377	-16.2734	0
941	-33.36047	-74.85764	-42.31084	52.07488	3.25468	-58.58424	-11.39138	-120.42316	-36.61515	-15.45973	25.22377	-16.2734	0
942	-35.80148	-74.85764	-39.86983	54.51589	0	-58.58424	-8.95037	-125.30518	-34.17414	-13.01872	25.22377	-16.2734	0
943	-38.24249	-74.85764	-37.42882	54.51589	-2.44101	-56.14323	-8.95037	-130.1872	-31.73313	-10.57771	27.66478	-13.83239	0
944	-40.6835	-72.41663	-32.5468	54.51589	-4.88202	-53.70222	-8.95037	-132.62821	-29.29212	-10.57771	30.91946	-8.95037	0
945	-48.00653	-69.97562	-22.78276	56.9569	-14.64606	-46.37919	-6.50936	-135.06922	-21.96909	-2.44101	38.24249	-4.06835	0
946	-52.88855	-65.0936	-13.01872	56.9569	-21.96909	-39.05616	-1.62734	-139.95124	-17.08707	2.44101	45.56552	-1.62734	0
947	-57.77057	-57.77057	-0.81367	56.9569	-29.29212	-29.29212	3.25468	-147.27427	-9.76404	7.32303	50.44754	4.06835	0
948	-60.21158	-50.44754	9.76404	54.51589	-36.61515	-21.96909	10.57771	-154.5973	-4.88202	12.20505	52.88855	6.50936	0
949	-57.77057	-45.56552	12.20505	49.63387	-36.61515	-17.08707	10.57771	-157.03831	-2.44101	12.20505	55.32956	6.50936	0
950	-50.44754	-40.6835	9.76404	44.75185	-31.73313	-17.08707	8.1367	-166.80235	-9.76404	9.76404	50.44754	4.06835	0
951	-38.24249	-30.91946	7.32303	32.5468	-24.4101	-12.20505	-8.95037	-186.33043	-21.96909	0	38.24249	-4.06835	0
952	-16.2734	-23.59643	-8.1367	17.90074	-4.88202	-17.08707	-35.80148	-205.85851	-43.93818	-17.90074	25.22377	-18.71441	0
953	6.50936	-11.39138	-17.90074	0.81367	10.57771	-14.64606	-72.41663	-230.26861	-75.67131	-39.86983	0.81367	-35.80148	0
954	43.12451	4.06835	-39.86983	-24.4101	42.31084	-17.08707	-126.11885	-257.11972	-117.16848	-69.16195	-28.47845	-60.21158	0
955	82.18067	30.91946	-52.07488	-56.14323	66.72094	-9.76404	-194.46713	-296.17588	-165.98868	-100.89508	-62.65259	-84.62168	0
956	126.11885	72.41663	-54.51589	-100.08141	91.13104	10.57771	-272.57945	-357.20113	-222.13191	-137.51023	-99.26774	-111.47279	0
957	170.05703	118.79582	-52.07488	-144.01959	110.65912	34.98781	-358.0148	-430.43143	-283.15716	-174.12538	-135.88289	-138.3239	0
958	216.43622	172.49804	-44.75185	-195.2808	130.1872	64.27993	-441.00914	-506.10274	-341.7414	-205.85851	-170.05703	-160.29299	0
959	260.3744	235.9643	-25.22377	-248.98302	142.39225	105.7771	-521.56247	-584.21506	-395.44362	-237.59164	-199.34915	-179.82107	0
960	301.87157	296.98955	-5.69569	-300.24423	154.5973	147.27427	-599.67479	-664.76839	-444.26382	-264.44275	-226.20026	-199.34915	0
961	336.04571	340.92773	4.88202	-339.30039	166.80235	174.12538	-665.58206	-735.55768	-488.202	-288.85285	-250.61036	-213.99521	0
962	367.77884	370.21985	2.44101	-368.59251	183.88942	186.33043	-721.72529	-779.49586	-524.81715	-310.82194	-270.13844	-226.20026	0
963	392.18894	384.86591	-8.1367	-388.12059	200.97649	188.77144	-763.22246	-789.2599	-551.66826	-327.90901	-287.22551	-235.9643	0
964	406.835	389.74793	-17.90074	-397.88463	213.18154	186.33043	-787.63256	-764.8498	-563.87331	-335.23204	-294.54854	-240.84632	0
965	409.27601	377.54288	-32.5468	-393.00261	220.50457	174.12538	-797.3966	-725.79364	-568.75533	-335.23204	-294.54854	-238.40531	0
966	397.07096	343.36874	-54.51589	-371.03352	225.38659	144.83326	-792.51458	-679.41445	-568.75533	-330.35002	-292.10753	-231.08228	0
967	372.66086	292.10753	-81.367	-331.97736	227.8276	105.7771	-770.54549	-615.94819	-568.75533	-325.468	-287.22551	-223.75925	0
968	336.04571	228.64127	-108.21811	-283.15716	222.94558	61.83892	-736.37135	-552.48193	-561.4323	-318.14497	-279.90248	-213.99521	0
969	282.34349	152.96996	-130.1872	-217.24989	205.85851	13.01872	-687.55115	-498.77971	-546.78624	-301.0579	-265.25642	-196.90814	0
970	213.99521	65.0936	-149.71528	-139.13757	181.44841	-41.49717	-626.5259	-464.60557	-522.37614	-279.08881	-240.84632	-172.49804	0
971	148.08794	-23.59643	-171.68437	-63.46626	159.47932	-97.6404	-567.94166	-447.5185	-500.40705	-259.56073	-221.31824	-150.52895	0
972	82.18067	-101.70875	-183.88942	8.1367	132.62821	-141.57858	-506.91641	-437.75446	-473.55594	-237.59164	-199.34915	-131.00087	0
973	23.59643	-162.734	-186.33043	69.16195	103.33609	-173.31171	-448.33217	-435.31345	-436.94079	-210.74053	-170.05703	-106.59077	0
974	-23.59643	-196.90814	-174.12538	108.21811	74.04397	-185.51676	-389.74793	-442.63648	-390.5616	-179.0074	-138.3239	-77.29865	0
975	-60.21158	-201.79016	-142.39225	130.1872	39.86983	-173.31171	-331.16369	-447.5185	-339.30039	-144.83326	-104.14976	-50.44754	0
976	-77.29865	-189.58511	-113.10013	132.62821	17.90074	-151.34262	-282.34349	-445.07749	-292.9212	-115.54114	-74.85764	-30.91946	0
977	-82.18067	-167.61602	-86.24902	122.86417	0	-126.93252	-235.9643	-442.63648	-251.42403	-93.57205	-55.32956	-18.71441	0
978	-84.62168	-143.20592	-59.39791	113.10013	-14.64606	-102.52242	-194.46713	-440.19547	-209.92686	-74.04397	-35.80148	-8.95037	0
979	-82.18067	-121.23683	-39.86983	100.89508	-21.96909	-80.55333	-157.85198	-437.75446	-175.75272	-56.9569	-21.15542	-4.06835	0
980	-79.73966	-101.70875	-22.78276	88.69003	-29.29212	-63.46626	-128.55986	-445.07749	-148.90161	-47.19286	-8.95037	-1.62734	0
981	-79.73966	-91.94471	-13.01872	83.80801	-34.17414	-53.70222	-106.59077	-454.84153	-124.49151	-34.98781	3.25468	4.06835	0
982	-82.18067	-87.06269	-5.69569	83.80801	-39.05616	-46.37919	-87.06269	-471.9286	-107.40444	-27.66478	13.01872	6.50936	0
983	-84.62168	-87.06269	-3.25468	83.80801	-41.49717	-46.37919	-74.85764	-486.57466	-90.31737	-20.34175	20.34175	6.50936	0
984	-89.5037	-89.5037	-0.81367	88.69003	-46.37919	-46.37919	-65.0936	-489.01567	-78.11232	-13.01872	25.22377	11.39138	0
985	-91.94471	-94.38572	-3.25468	91.13104	-46.37919	-48.8202	-55.32956	-486.57466	-65.90727	-7.32303	30.91946	13.83239	0
986	-94.38572	-96.82673	-3.25468	93.57205	-46.37919	-51.26121	-45.56552	-476.81062	-56.14323	-2.44101	38.24249	16.2734	0
987	-96.82673	-101.70875	-5.69569	98.45407	-46.37919	-53.70222	-33.36047	-467.04658	-48.8202	2.44101	43.12451	18.71441	0
988	-96.82673	-104.14976	-8.1367	98.45407	-46.37919	-56.14323	-23.59643	-454.84153	-43.93818	7.32303	45.56552	21.15542	0
989	-96.82673	-106.59077	-10.57771	100.89508	-43.93818	-58.58424	-16.2734	-442.63648	-36.61515	7.32303	48.00653	21.15542	0
990	-99.26774	-106.59077	-8.1367	100.89508	-46.37919	-58.58424	-11.39138	-437.75446	-34.17414	12.20505	50.44754	23.59643	0
991	-99.26774	-106.59077	-8.1367	100.89508	-46.37919	-58.58424	-6.50936	-432.87244	-29.29212	12.20505	52.88855	26.03744	0
992	-99.26774	-106.59077	-8.1367	100.89508	-46.37919	-58.58424	-4.06835	-427.99042	-24.4101	12.20505	52.88855	26.03744	0
993	-99.26774	-104.14976	-5.69569	100.89508	-48.8202	-56.14323	-1.62734	-423.1084	-24.4101	14.64606	52.88855	26.03744	0
994	-99.26774	-101.70875	-3.25468	98.45407	-48.8202	-53.70222	-1.62734	-413.34436	-19.52808	14.64606	52.88855	26.03744	0
995	-101.70875	-101.70875	-0.81367	100.89508	-51.26121	-51.26121	-1.62734	-401.13931	-19.52808	14.64606	52.88855	26.03744	0
996	-101.70875	-104.14976	-3.25468	100.89508	-51.26121	-53.70222	0.81367	-388.93426	-14.64606	14.64606	52.88855	26.03744	0
997	-101.70875	-104.14976	-3.25468	100.89508	-51.26121	-53.70222	8.1367	-379.17022	-12.20505	14.64606	52.88855	26.03744	0
998	-101.70875	-104.14976	-3.25468	100.89508	-51.26121	-53.70222	13.01872	-371.84719	-9.76404	14.64606	52.88855	26.03744	0
999	-101.70875	-106.59077	-5.69569	103.33609	-48.8202	-56.14323	16.2734	-366.96517	-4.88202	14.64606	52.88855	26.03744	0
1000	-101.70875	-106.59077	-5.69569	103.33609	-48.8202	-56.14323	18.71441	-362.08315	-2.44101	17.08707	57.77057	26.03744	0
1001	-101.70875	-106.59077	-5.69569	103.33609	-48.8202	-56.14323	21.15542	-359.64214	0	19.52808	57.77057	28.47845	0
1002	-101.70875	-109.03178	-8.1367	103.33609	-48.8202	-58.58424	23.59643	-354.76012	3.25468	19.52808	60.21158	28.47845	0
1003	-101.70875	-106.59077	-5.69569	103.33609	-48.8202	-56.14323	26.03744	-352.31911	5.69569	21.96909	60.21158	28.47845	0
1004	-104.14976	-106.59077	-3.25468	103.33609	-51.26121	-56.14323	26.03744	-340.11406	8.1367	24.4101	62.65259	30.91946	0
1005	-104.14976	-106.59077	-3.25468	103.33609	-51.26121	-56.14323	26.03744	-327.90901	10.57771	24.4101	62.65259	30.91946	0
