samplenr	I	II	III	aVR	aVL	aVF	V1	V2	V3	V4	V5	V6	measurement
0	-121.23683	26.85111	147.27427	47.19286	-133.44188	85.43535	-21.15542	9.76404	42.31084	-13.83239	-12.20505	-12.20505	0
1	-131.00087	21.96909	152.15629	54.51589	-140.76491	85.43535	-21.15542	9.76404	47.19286	-16.2734	-14.64606	-14.64606	0
2	-116.35481	31.73313	147.27427	42.31084	-131.00087	87.87636	-18.71441	9.76404	21.96909	-11.39138	-9.76404	-9.76404	0
3	-101.70875	34.17414	135.06922	32.5468	-118.79582	82.99434	-26.03744	0	19.52808	-13.83239	-12.20505	-14.64606	0
4	-96.82673	29.29212	125.30518	32.5468	-111.47279	75.67131	-28.47845	-2.44101	-2.44101	-8.95037	-7.32303	-7.32303	0
5	-104.14976	24.4101	127.74619	39.86983	-116.35481	75.67131	-35.80148	-9.76404	-14.64606	-18.71441	-17.08707	-17.08707	0
6	-101.70875	39.05616	139.95124	30.10579	-121.23683	87.87636	-18.71441	12.20505	17.08707	-26.03744	-24.4101	-24.4101	0
7	-101.70875	58.58424	159.47932	20.34175	-131.00087	107.40444	-11.39138	17.08707	21.96909	-23.59643	-21.96909	-24.4101	0
8	-101.70875	65.90727	166.80235	17.90074	-133.44188	114.72747	-18.71441	12.20505	74.04397	-33.36047	-31.73313	-31.73313	0
9	-121.23683	63.46626	183.88942	27.66478	-152.96996	122.0505	-13.83239	17.08707	78.92599	-28.47845	-26.85111	-29.29212	0
10	-126.11885	70.78929	196.09447	27.66478	-160.29299	131.81454	-13.83239	9.76404	59.39791	-30.91946	-29.29212	-31.73313	0
11	-128.55986	73.2303	200.97649	27.66478	-165.17501	136.69656	-4.06835	17.08707	69.16195	-23.59643	-24.4101	-24.4101	0
12	-138.3239	82.99434	220.50457	27.66478	-179.82107	151.34262	5.69569	17.08707	42.31084	-11.39138	-12.20505	-12.20505	0
13	-126.11885	90.31737	215.62255	17.90074	-170.05703	151.34262	5.69569	17.08707	37.42882	-6.50936	-4.88202	-7.32303	0
14	-118.79582	104.96343	222.94558	7.32303	-170.05703	163.54767	18.71441	32.5468	21.96909	-6.50936	-4.88202	-4.88202	0
15	-99.26774	131.81454	230.26861	-17.08707	-165.17501	180.63474	26.03744	39.86983	19.52808	-6.50936	-7.32303	-7.32303	0
16	-91.94471	141.57858	232.70962	-24.4101	-162.734	185.51676	40.6835	64.27993	47.19286	0.81367	0	0	0
17	-99.26774	148.90161	247.35568	-24.4101	-172.49804	197.72181	48.00653	74.04397	52.07488	8.95037	10.57771	10.57771	0
18	-89.5037	153.78363	242.47366	-31.73313	-165.17501	197.72181	38.24249	71.60296	105.7771	6.50936	5.69569	5.69569	0
19	-96.82673	151.34262	247.35568	-26.85111	-172.49804	197.72181	38.24249	71.60296	110.65912	11.39138	13.01872	13.01872	0
20	-113.9138	153.78363	266.88376	-19.52808	-189.58511	209.92686	30.91946	54.51589	88.69003	13.83239	13.01872	13.01872	0
21	-140.76491	161.10666	301.0579	-9.76404	-221.31824	229.45494	45.56552	61.83892	105.7771	26.03744	25.22377	22.78276	0
22	-148.08794	170.8707	318.14497	-12.20505	-233.52329	244.101	52.88855	56.9569	78.92599	30.91946	30.10579	30.10579	0
23	-133.44188	190.39878	323.02699	-29.29212	-228.64127	256.30605	55.32956	56.9569	81.367	30.91946	32.5468	32.5468	0
24	-126.11885	197.72181	323.02699	-36.61515	-223.75925	258.74706	67.53461	66.72094	64.27993	40.6835	42.31084	42.31084	0
25	-113.9138	209.92686	323.02699	-48.8202	-218.87723	266.07009	74.85764	71.60296	56.9569	40.6835	42.31084	42.31084	0
26	-106.59077	214.80888	320.58598	-53.70222	-213.99521	266.07009	91.94471	98.45407	91.13104	40.6835	42.31084	42.31084	0
27	-87.06269	222.13191	308.38093	-68.34828	-196.90814	263.62908	91.94471	96.01306	86.24902	48.00653	49.63387	49.63387	0
28	-65.0936	229.45494	293.73487	-82.99434	-179.82107	261.18807	84.62168	91.13104	132.62821	40.6835	42.31084	42.31084	0
29	-60.21158	239.21898	298.61689	-90.31737	-179.82107	268.5111	96.82673	103.33609	137.51023	35.80148	39.86983	39.86983	0
30	-60.21158	261.18807	320.58598	-100.08141	-189.58511	290.48019	99.26774	96.01306	115.54114	30.91946	32.5468	32.5468	0
31	-57.77057	275.83413	332.79103	-109.84545	-194.46713	302.68524	109.03178	103.33609	125.30518	28.47845	30.10579	27.66478	0
32	-74.85764	266.07009	340.11406	-95.19939	-206.67218	302.68524	106.59077	98.45407	88.69003	30.91946	32.5468	30.10579	0
33	-79.73966	268.5111	347.43709	-95.19939	-213.99521	307.56726	104.14976	96.01306	81.367	33.36047	34.98781	32.5468	0
34	-79.73966	266.07009	344.99608	-92.75838	-211.5542	305.12625	109.03178	100.89508	59.39791	33.36047	32.5468	32.5468	0
35	-74.85764	275.83413	349.8781	-100.08141	-211.5542	312.44928	111.47279	108.21811	56.9569	35.80148	37.42882	37.42882	0
36	-60.21158	270.95211	330.35002	-104.96343	-194.46713	300.24423	118.79582	125.30518	83.80801	33.36047	34.98781	34.98781	0
37	-50.44754	263.62908	313.26295	-107.40444	-182.26208	288.03918	113.9138	122.86417	74.04397	43.12451	44.75185	44.75185	0
38	-30.91946	278.27514	308.38093	-124.49151	-170.05703	292.9212	111.47279	122.86417	127.74619	35.80148	37.42882	37.42882	0
39	-4.06835	292.9212	296.17588	-144.01959	-150.52895	292.9212	123.67784	132.62821	139.95124	33.36047	34.98781	32.5468	0
40	4.06835	302.68524	298.61689	-153.78363	-148.08794	300.24423	126.11885	130.1872	125.30518	26.03744	27.66478	25.22377	0
41	6.50936	300.24423	293.73487	-153.78363	-143.20592	297.80322	131.00087	135.06922	135.06922	26.03744	27.66478	25.22377	0
42	-13.83239	283.15716	296.17588	-134.25555	-155.41097	288.03918	131.00087	122.86417	96.01306	26.03744	25.22377	25.22377	0
43	-40.6835	275.83413	315.70396	-117.16848	-177.38006	295.36221	138.3239	122.86417	96.01306	21.15542	22.78276	22.78276	0
44	-48.00653	268.5111	315.70396	-109.84545	-182.26208	290.48019	150.52895	125.30518	76.48498	21.15542	22.78276	22.78276	0
45	-55.32956	261.18807	315.70396	-102.52242	-184.70309	288.03918	155.41097	122.86417	64.27993	21.15542	22.78276	22.78276	0
46	-50.44754	253.86504	303.49891	-102.52242	-177.38006	278.27514	165.17501	135.06922	83.80801	21.15542	25.22377	25.22377	0
47	-55.32956	239.21898	293.73487	-92.75838	-174.93905	266.07009	160.29299	127.74619	69.16195	21.15542	22.78276	22.78276	0
48	-48.00653	239.21898	286.41184	-95.19939	-167.61602	261.18807	148.08794	117.98215	115.54114	13.83239	17.90074	17.90074	0
49	-33.36047	239.21898	271.76578	-102.52242	-152.96996	253.86504	138.3239	110.65912	115.54114	8.95037	10.57771	10.57771	0
50	-30.91946	227.01393	257.11972	-97.6404	-143.20592	241.65999	111.47279	83.80801	76.48498	4.06835	3.25468	5.69569	0
51	-6.50936	224.57292	230.26861	-109.84545	-118.79582	227.01393	99.26774	71.60296	74.04397	-4.06835	-4.88202	-2.44101	0
52	-1.62734	224.57292	225.38659	-112.28646	-113.9138	224.57292	94.38572	64.27993	39.86983	-6.50936	-7.32303	-7.32303	0
53	-23.59643	202.60383	225.38659	-90.31737	-123.67784	212.36787	84.62168	59.39791	39.86983	-4.06835	-4.88202	-4.88202	0
54	-13.83239	192.83979	205.85851	-90.31737	-109.03178	197.72181	87.06269	61.83892	19.52808	-6.50936	-4.88202	-4.88202	0
55	-1.62734	190.39878	191.21245	-95.19939	-96.82673	190.39878	87.06269	64.27993	9.76404	-6.50936	-7.32303	-7.32303	0
56	16.2734	187.95777	171.68437	-102.52242	-77.29865	180.63474	96.82673	83.80801	32.5468	-4.06835	-4.88202	-2.44101	0
57	26.03744	180.63474	154.5973	-102.52242	-65.0936	168.42969	96.82673	86.24902	30.10579	-4.06835	-4.88202	-2.44101	0
58	18.71441	158.66565	139.95124	-87.87636	-60.21158	148.90161	82.18067	81.367	78.92599	-13.83239	-12.20505	-12.20505	0
59	26.03744	136.69656	110.65912	-80.55333	-43.12451	124.49151	74.85764	76.48498	76.48498	-13.83239	-14.64606	-12.20505	0
60	38.24249	126.93252	88.69003	-82.99434	-26.03744	107.40444	57.77057	54.51589	42.31084	-6.50936	-7.32303	-7.32303	0
61	21.15542	97.6404	76.48498	-58.58424	-28.47845	87.87636	48.00653	42.31084	39.86983	-6.50936	-7.32303	-7.32303	0
62	4.06835	75.67131	71.60296	-39.05616	-33.36047	73.2303	43.12451	30.10579	2.44101	-4.06835	-4.88202	-4.88202	0
63	-11.39138	46.37919	56.9569	-17.08707	-33.36047	51.26121	38.24249	17.08707	-4.88202	-8.95037	-9.76404	-7.32303	0
64	-26.03744	24.4101	49.63387	0	-38.24249	36.61515	48.00653	20.34175	-24.4101	-4.06835	-4.88202	-2.44101	0
65	-16.2734	17.08707	32.5468	0	-23.59643	24.4101	45.56552	12.20505	-39.05616	-6.50936	-4.88202	-4.88202	0
66	-13.83239	9.76404	22.78276	2.44101	-18.71441	14.64606	52.88855	22.78276	-19.52808	-8.95037	-9.76404	-7.32303	0
67	-6.50936	9.76404	15.45973	-2.44101	-11.39138	12.20505	52.88855	22.78276	-26.85111	-6.50936	-7.32303	-7.32303	0
68	38.24249	26.85111	-11.39138	-31.73313	26.03744	7.32303	35.80148	17.08707	17.08707	-13.83239	-12.20505	-12.20505	0
69	55.32956	24.4101	-31.73313	-39.05616	43.12451	-2.44101	30.91946	17.08707	17.08707	-1.62734	0	0	0
70	55.32956	26.85111	-29.29212	-41.49717	43.12451	0	13.83239	4.88202	-9.76404	8.95037	8.1367	8.1367	0
71	57.77057	24.4101	-34.17414	-41.49717	45.56552	-4.88202	8.1367	4.88202	0	11.39138	10.57771	10.57771	0
72	38.24249	14.64606	-23.59643	-26.85111	30.91946	-4.88202	5.69569	4.88202	-31.73313	13.83239	13.01872	13.01872	0
73	21.15542	-12.20505	-34.17414	-4.88202	28.47845	-21.96909	-4.06835	0	-31.73313	6.50936	5.69569	5.69569	0
74	6.50936	-37.42882	-43.93818	14.64606	23.59643	-39.86983	-1.62734	0	-53.70222	8.95037	10.57771	10.57771	0
75	-1.62734	-54.51589	-53.70222	27.66478	26.03744	-54.51589	-1.62734	-2.44101	-61.02525	4.06835	5.69569	3.25468	0
76	4.06835	-64.27993	-68.34828	30.10579	35.80148	-66.72094	8.1367	9.76404	-39.05616	-4.06835	-2.44101	-4.88202	0
77	1.62734	-61.83892	-63.46626	30.10579	30.91946	-61.83892	11.39138	9.76404	-41.49717	-11.39138	-9.76404	-9.76404	0
78	16.2734	-64.27993	-80.55333	22.78276	48.00653	-71.60296	-6.50936	-7.32303	-4.88202	-21.15542	-19.52808	-19.52808	0
79	28.47845	-49.63387	-78.11232	9.76404	52.88855	-64.27993	-6.50936	-9.76404	0	-16.2734	-17.08707	-17.08707	0
80	23.59643	-42.31084	-65.90727	9.76404	43.12451	-54.51589	-13.83239	-24.4101	-26.85111	-18.71441	-17.08707	-17.08707	0
81	13.83239	-44.75185	-58.58424	14.64606	35.80148	-52.07488	-13.83239	-26.85111	-19.52808	-23.59643	-24.4101	-24.4101	0
82	-1.62734	-47.19286	-46.37919	22.78276	21.15542	-47.19286	-18.71441	-31.73313	-51.26121	-23.59643	-21.96909	-21.96909	0
83	8.95037	-49.63387	-58.58424	20.34175	33.36047	-54.51589	-26.03744	-39.05616	-56.14323	-21.15542	-19.52808	-19.52808	0
84	-4.06835	-74.04397	-70.78929	37.42882	33.36047	-74.04397	-26.03744	-39.05616	-80.55333	-13.83239	-12.20505	-12.20505	0
85	-28.47845	-96.01306	-68.34828	61.83892	18.71441	-83.80801	-26.03744	-39.05616	-85.43535	-6.50936	-4.88202	-4.88202	0
86	-26.03744	-110.65912	-85.43535	66.72094	28.47845	-98.45407	-21.15542	-26.85111	-58.58424	-1.62734	0	0	0
87	-21.15542	-110.65912	-90.31737	64.27993	33.36047	-100.89508	-18.71441	-26.85111	-58.58424	-1.62734	0	0	0
88	-8.95037	-100.89508	-92.75838	54.51589	40.6835	-98.45407	-23.59643	-26.85111	-9.76404	-1.62734	0	0	0
89	-23.59643	-108.21811	-85.43535	64.27993	30.91946	-98.45407	-23.59643	-24.4101	-2.44101	-1.62734	0	0	0
90	-26.03744	-110.65912	-85.43535	66.72094	28.47845	-98.45407	-33.36047	-39.05616	-26.85111	-1.62734	0	0	0
91	-6.50936	-96.01306	-90.31737	49.63387	40.6835	-93.57205	-33.36047	-39.05616	-17.08707	-1.62734	0	0	0
92	-4.06835	-81.367	-78.11232	42.31084	35.80148	-81.367	-30.91946	-39.05616	-41.49717	4.06835	3.25468	3.25468	0
93	-1.62734	-78.92599	-78.11232	39.86983	38.24249	-78.92599	-33.36047	-39.05616	-36.61515	16.2734	15.45973	15.45973	0
94	8.95037	-74.04397	-82.99434	32.5468	45.56552	-78.92599	-30.91946	-34.17414	-48.8202	26.03744	25.22377	25.22377	0
95	8.95037	-78.92599	-87.87636	34.98781	48.00653	-83.80801	-38.24249	-39.05616	-53.70222	30.91946	32.5468	32.5468	0
96	13.83239	-86.24902	-100.08141	34.98781	55.32956	-93.57205	-33.36047	-26.85111	-29.29212	38.24249	39.86983	39.86983	0
97	-6.50936	-96.01306	-90.31737	49.63387	40.6835	-93.57205	-26.03744	-24.4101	-31.73313	43.12451	44.75185	47.19286	0
98	-1.62734	-93.57205	-92.75838	47.19286	45.56552	-93.57205	-35.80148	-29.29212	7.32303	38.24249	39.86983	39.86983	0
99	-1.62734	-93.57205	-92.75838	47.19286	45.56552	-93.57205	-38.24249	-29.29212	0	38.24249	39.86983	39.86983	0
100	-26.03744	-100.89508	-75.67131	61.83892	23.59643	-88.69003	-43.12451	-46.37919	-36.61515	35.80148	37.42882	37.42882	0
101	-48.00653	-113.10013	-65.90727	78.92599	8.1367	-91.13104	-38.24249	-43.93818	-39.05616	30.91946	30.10579	30.10579	0
102	-45.56552	-98.45407	-53.70222	71.60296	3.25468	-76.48498	-28.47845	-43.93818	-73.2303	26.03744	25.22377	25.22377	0
103	-18.71441	-81.367	-63.46626	49.63387	21.15542	-74.04397	-26.03744	-43.93818	-73.2303	23.59643	25.22377	25.22377	0
104	-18.71441	-91.13104	-73.2303	54.51589	26.03744	-83.80801	-16.2734	-36.61515	-87.87636	33.36047	34.98781	34.98781	0
105	-21.15542	-108.21811	-87.87636	64.27993	33.36047	-98.45407	-16.2734	-39.05616	-92.75838	28.47845	30.10579	30.10579	0
106	-13.83239	-125.30518	-112.28646	69.16195	48.00653	-120.42316	-6.50936	-26.85111	-65.90727	23.59643	25.22377	25.22377	0
107	-1.62734	-120.42316	-119.60949	59.39791	57.77057	-120.42316	-1.62734	-21.96909	-61.02525	26.03744	25.22377	27.66478	0
108	30.91946	-103.33609	-134.25555	34.98781	82.18067	-117.98215	-11.39138	-26.85111	-9.76404	21.15542	20.34175	20.34175	0
109	26.03744	-105.7771	-131.81454	39.86983	77.29865	-117.98215	-16.2734	-24.4101	-4.88202	23.59643	25.22377	22.78276	0
110	1.62734	-113.10013	-114.72747	54.51589	57.77057	-113.10013	-35.80148	-43.93818	-36.61515	26.03744	25.22377	22.78276	0
111	13.83239	-103.33609	-117.16848	44.75185	65.0936	-110.65912	-43.12451	-46.37919	-29.29212	26.03744	25.22377	25.22377	0
112	4.06835	-88.69003	-92.75838	42.31084	48.00653	-91.13104	-43.12451	-46.37919	-56.14323	35.80148	34.98781	34.98781	0
113	4.06835	-83.80801	-87.87636	39.86983	45.56552	-86.24902	-45.56552	-46.37919	-53.70222	38.24249	39.86983	39.86983	0
114	-13.83239	-98.45407	-85.43535	54.51589	35.80148	-93.57205	-38.24249	-36.61515	-70.78929	48.00653	49.63387	49.63387	0
115	-23.59643	-105.7771	-82.99434	64.27993	28.47845	-96.01306	-38.24249	-34.17414	-75.67131	48.00653	49.63387	49.63387	0
116	-1.62734	-93.57205	-92.75838	47.19286	45.56552	-93.57205	-23.59643	-14.64606	-43.93818	33.36047	37.42882	37.42882	0
117	6.50936	-91.13104	-97.6404	42.31084	50.44754	-93.57205	-21.15542	-12.20505	-48.8202	23.59643	25.22377	25.22377	0
118	8.95037	-91.13104	-100.08141	39.86983	52.88855	-96.01306	-28.47845	-17.08707	-4.88202	11.39138	13.01872	13.01872	0
119	4.06835	-98.45407	-102.52242	47.19286	52.88855	-100.89508	-28.47845	-19.52808	-9.76404	6.50936	5.69569	5.69569	0
120	-11.39138	-113.10013	-102.52242	61.83892	45.56552	-108.21811	-40.6835	-46.37919	-48.8202	6.50936	5.69569	5.69569	0
121	-11.39138	-125.30518	-114.72747	66.72094	50.44754	-120.42316	-40.6835	-53.70222	-51.26121	-4.06835	-2.44101	-4.88202	0
122	-30.91946	-125.30518	-95.19939	76.48498	30.91946	-110.65912	-30.91946	-53.70222	-78.11232	8.95037	8.1367	8.1367	0
123	-30.91946	-122.86417	-92.75838	76.48498	30.91946	-108.21811	-23.59643	-51.26121	-73.2303	18.71441	17.90074	17.90074	0
124	-30.91946	-122.86417	-92.75838	76.48498	30.91946	-108.21811	-11.39138	-43.93818	-82.99434	28.47845	27.66478	30.10579	0
125	-21.15542	-113.10013	-92.75838	66.72094	35.80148	-103.33609	-13.83239	-51.26121	-85.43535	23.59643	25.22377	25.22377	0
126	-1.62734	-100.89508	-100.08141	49.63387	48.00653	-100.89508	-6.50936	-39.05616	-56.14323	23.59643	22.78276	22.78276	0
127	-1.62734	-83.80801	-82.99434	42.31084	40.6835	-83.80801	-1.62734	-34.17414	-51.26121	33.36047	32.5468	34.98781	0
128	13.83239	-69.16195	-82.99434	27.66478	48.00653	-76.48498	-13.83239	-39.05616	-4.88202	28.47845	27.66478	27.66478	0
129	23.59643	-64.27993	-87.87636	20.34175	55.32956	-76.48498	-18.71441	-41.49717	-7.32303	23.59643	22.78276	22.78276	0
130	21.15542	-64.27993	-85.43535	20.34175	52.88855	-74.04397	-35.80148	-61.02525	-46.37919	16.2734	15.45973	15.45973	0
131	28.47845	-71.60296	-100.08141	20.34175	62.65259	-86.24902	-40.6835	-61.02525	-46.37919	16.2734	15.45973	15.45973	0
132	18.71441	-78.92599	-97.6404	30.10579	57.77057	-88.69003	-45.56552	-58.58424	-75.67131	26.03744	25.22377	25.22377	0
133	21.15542	-76.48498	-97.6404	27.66478	57.77057	-86.24902	-48.00653	-53.70222	-68.34828	26.03744	22.78276	22.78276	0
134	18.71441	-96.01306	-114.72747	37.42882	65.0936	-105.7771	-45.56552	-46.37919	-80.55333	21.15542	20.34175	22.78276	0
135	11.39138	-115.54114	-126.93252	52.07488	67.53461	-120.42316	-48.00653	-48.8202	-80.55333	16.2734	17.90074	17.90074	0
136	-6.50936	-142.39225	-136.69656	74.04397	65.0936	-139.95124	-38.24249	-31.73313	-51.26121	21.15542	20.34175	20.34175	0
137	-11.39138	-147.27427	-136.69656	78.92599	62.65259	-142.39225	-35.80148	-26.85111	-48.8202	21.15542	20.34175	22.78276	0
138	-6.50936	-139.95124	-134.25555	71.60296	62.65259	-137.51023	-38.24249	-29.29212	0	8.95037	10.57771	10.57771	0
139	-13.83239	-147.27427	-134.25555	78.92599	60.21158	-142.39225	-33.36047	-26.85111	2.44101	4.06835	5.69569	5.69569	0
140	-21.15542	-147.27427	-126.93252	83.80801	52.88855	-137.51023	-43.12451	-46.37919	-34.17414	4.06835	3.25468	3.25468	0
141	-23.59643	-147.27427	-124.49151	83.80801	50.44754	-137.51023	-45.56552	-51.26121	-39.05616	-11.39138	-12.20505	-12.20505	0
142	-6.50936	-130.1872	-124.49151	66.72094	57.77057	-127.74619	-48.00653	-63.46626	-75.67131	-11.39138	-12.20505	-12.20505	0
143	11.39138	-113.10013	-124.49151	49.63387	67.53461	-117.98215	-45.56552	-63.46626	-73.2303	-16.2734	-17.08707	-17.08707	0
144	26.03744	-108.21811	-134.25555	39.86983	79.73966	-120.42316	-33.36047	-53.70222	-87.87636	-8.95037	-9.76404	-9.76404	0
145	40.6835	-100.89508	-141.57858	30.10579	89.5037	-120.42316	-33.36047	-53.70222	-92.75838	-18.71441	-17.08707	-17.08707	0
146	50.44754	-103.33609	-153.78363	25.22377	101.70875	-127.74619	-28.47845	-41.49717	-65.90727	-21.15542	-19.52808	-19.52808	0
147	55.32956	-96.01306	-151.34262	20.34175	101.70875	-122.86417	-23.59643	-39.05616	-63.46626	-13.83239	-12.20505	-12.20505	0
148	57.77057	-86.24902	-144.01959	14.64606	99.26774	-115.54114	-28.47845	-43.93818	-14.64606	-16.2734	-14.64606	-17.08707	0
149	38.24249	-96.01306	-134.25555	27.66478	84.62168	-115.54114	-26.03744	-41.49717	-17.08707	-18.71441	-19.52808	-19.52808	0
150	16.2734	-108.21811	-124.49151	44.75185	69.97562	-115.54114	-40.6835	-61.02525	-56.14323	-21.15542	-19.52808	-21.96909	0
151	-6.50936	-139.95124	-134.25555	71.60296	62.65259	-137.51023	-48.00653	-68.34828	-63.46626	-18.71441	-17.08707	-19.52808	0
152	-8.95037	-139.95124	-131.81454	74.04397	60.21158	-137.51023	-43.12451	-63.46626	-90.31737	-11.39138	-12.20505	-12.20505	0
153	-1.62734	-144.83326	-144.01959	71.60296	69.97562	-144.83326	-45.56552	-63.46626	-90.31737	-8.95037	-7.32303	-7.32303	0
154	-1.62734	-152.15629	-151.34262	76.48498	74.85764	-152.15629	-43.12451	-53.70222	-100.08141	-4.06835	-2.44101	-4.88202	0
155	-1.62734	-149.71528	-148.90161	74.04397	72.41663	-149.71528	-48.00653	-51.26121	-92.75838	-4.06835	-2.44101	-4.88202	0
156	6.50936	-144.83326	-151.34262	69.16195	77.29865	-147.27427	-38.24249	-34.17414	-51.26121	-1.62734	0	-2.44101	0
157	4.06835	-139.95124	-144.01959	66.72094	72.41663	-142.39225	-38.24249	-34.17414	-48.8202	-1.62734	0	0	0
158	8.95037	-125.30518	-134.25555	56.9569	69.97562	-130.1872	-50.44754	-46.37919	-7.32303	-13.83239	-12.20505	-14.64606	0
159	1.62734	-120.42316	-122.0505	59.39791	60.21158	-120.42316	-48.00653	-51.26121	-12.20505	-18.71441	-17.08707	-17.08707	0
160	4.06835	-122.86417	-126.93252	59.39791	65.0936	-125.30518	-52.88855	-73.2303	-53.70222	-23.59643	-21.96909	-21.96909	0
161	-4.06835	-139.95124	-136.69656	71.60296	65.0936	-139.95124	-52.88855	-73.2303	-61.02525	-16.2734	-14.64606	-14.64606	0
162	-8.95037	-147.27427	-139.13757	76.48498	65.0936	-144.83326	-48.00653	-73.2303	-97.6404	-6.50936	-4.88202	-4.88202	0
163	11.39138	-135.06922	-146.4606	61.83892	77.29865	-139.95124	-48.00653	-70.78929	-97.6404	-4.06835	-4.88202	-2.44101	0
164	23.59643	-125.30518	-148.90161	49.63387	84.62168	-137.51023	-33.36047	-51.26121	-100.08141	-1.62734	-2.44101	-2.44101	0
165	21.15542	-132.62821	-153.78363	54.51589	87.06269	-142.39225	-30.91946	-46.37919	-92.75838	0.81367	0	0	0
166	13.83239	-132.62821	-146.4606	59.39791	79.73966	-139.95124	-18.71441	-24.4101	-53.70222	0.81367	0	0	0
167	13.83239	-122.86417	-136.69656	54.51589	74.85764	-130.1872	-18.71441	-21.96909	-51.26121	-1.62734	-2.44101	0	0
168	40.6835	-100.89508	-141.57858	30.10579	89.5037	-120.42316	-23.59643	-21.96909	-2.44101	-13.83239	-12.20505	-12.20505	0
169	50.44754	-88.69003	-139.13757	17.90074	94.38572	-113.10013	-18.71441	-17.08707	2.44101	-18.71441	-19.52808	-19.52808	0
170	40.6835	-98.45407	-139.13757	27.66478	89.5037	-117.98215	-28.47845	-31.73313	-31.73313	-23.59643	-24.4101	-24.4101	0
171	45.56552	-103.33609	-148.90161	27.66478	96.82673	-125.30518	-35.80148	-34.17414	-39.05616	-18.71441	-19.52808	-19.52808	0
172	33.36047	-108.21811	-141.57858	37.42882	87.06269	-125.30518	-43.12451	-39.05616	-75.67131	-11.39138	-9.76404	-9.76404	0
173	28.47845	-115.54114	-144.01959	42.31084	84.62168	-130.1872	-50.44754	-43.93818	-75.67131	-8.95037	-9.76404	-9.76404	0
174	18.71441	-130.1872	-148.90161	54.51589	82.18067	-139.95124	-52.88855	-43.93818	-92.75838	-11.39138	-9.76404	-9.76404	0
175	16.2734	-144.83326	-161.10666	64.27993	87.06269	-152.15629	-60.21158	-53.70222	-102.52242	-13.83239	-14.64606	-14.64606	0
176	16.2734	-152.15629	-168.42969	66.72094	91.94471	-159.47932	-52.88855	-43.93818	-78.11232	-8.95037	-9.76404	-7.32303	0
177	-13.83239	-154.5973	-141.57858	83.80801	62.65259	-149.71528	-48.00653	-43.93818	-78.11232	-16.2734	-14.64606	-14.64606	0
178	1.62734	-127.74619	-129.37353	61.83892	65.0936	-127.74619	-48.00653	-43.93818	-29.29212	-28.47845	-29.29212	-26.85111	0
179	-1.62734	-122.86417	-122.0505	61.83892	60.21158	-122.86417	-43.12451	-43.93818	-26.85111	-26.03744	-24.4101	-24.4101	0
180	4.06835	-108.21811	-112.28646	52.07488	57.77057	-110.65912	-43.12451	-53.70222	-56.14323	-21.15542	-21.96909	-21.96909	0
181	8.95037	-103.33609	-112.28646	47.19286	60.21158	-108.21811	-38.24249	-48.8202	-51.26121	-21.15542	-21.96909	-21.96909	0
182	1.62734	-96.01306	-97.6404	47.19286	48.00653	-96.01306	-33.36047	-46.37919	-70.78929	-18.71441	-19.52808	-19.52808	0
183	13.83239	-93.57205	-107.40444	39.86983	60.21158	-100.89508	-30.91946	-46.37919	-65.90727	-13.83239	-12.20505	-12.20505	0
184	6.50936	-117.98215	-124.49151	54.51589	65.0936	-120.42316	-23.59643	-41.49717	-78.11232	-4.06835	-4.88202	-4.88202	0
185	8.95037	-127.74619	-136.69656	59.39791	72.41663	-132.62821	-16.2734	-41.49717	-75.67131	-4.06835	-4.88202	-4.88202	0
186	26.03744	-135.06922	-161.10666	54.51589	91.94471	-147.27427	-4.06835	-24.4101	-43.93818	-8.95037	-7.32303	-7.32303	0
187	13.83239	-139.95124	-153.78363	61.83892	82.18067	-147.27427	0.81367	-19.52808	-41.49717	0.81367	0	0	0
188	11.39138	-137.51023	-148.90161	61.83892	79.73966	-142.39225	-11.39138	-29.29212	-2.44101	0.81367	0	0	0
189	1.62734	-132.62821	-134.25555	64.27993	67.53461	-132.62821	-11.39138	-26.85111	-2.44101	0.81367	3.25468	0	0
190	13.83239	-113.10013	-126.93252	49.63387	69.97562	-120.42316	-21.15542	-41.49717	-29.29212	6.50936	8.1367	5.69569	0
191	33.36047	-98.45407	-131.81454	32.5468	82.18067	-115.54114	-28.47845	-46.37919	-29.29212	6.50936	5.69569	5.69569	0
192	23.59643	-96.01306	-119.60949	34.98781	69.97562	-108.21811	-33.36047	-51.26121	-58.58424	18.71441	17.90074	17.90074	0
193	18.71441	-93.57205	-112.28646	37.42882	65.0936	-103.33609	-35.80148	-51.26121	-56.14323	21.15542	20.34175	20.34175	0
194	11.39138	-105.7771	-117.16848	47.19286	62.65259	-110.65912	-35.80148	-48.8202	-73.2303	23.59643	25.22377	25.22377	0
195	11.39138	-108.21811	-119.60949	47.19286	65.0936	-113.10013	-38.24249	-48.8202	-75.67131	23.59643	25.22377	25.22377	0
196	-6.50936	-132.62821	-126.93252	69.16195	60.21158	-130.1872	-38.24249	-41.49717	-51.26121	16.2734	17.90074	17.90074	0
197	-8.95037	-144.83326	-136.69656	76.48498	62.65259	-142.39225	-48.00653	-48.8202	-61.02525	16.2734	17.90074	20.34175	0
198	-4.06835	-139.95124	-136.69656	71.60296	65.0936	-139.95124	-55.32956	-51.26121	-12.20505	0.81367	0	0	0
199	4.06835	-137.51023	-141.57858	66.72094	72.41663	-139.95124	-52.88855	-51.26121	-9.76404	-11.39138	-9.76404	-9.76404	0
200	6.50936	-125.30518	-131.81454	59.39791	67.53461	-127.74619	-57.77057	-65.90727	-36.61515	-16.2734	-14.64606	-14.64606	0
201	11.39138	-115.54114	-126.93252	52.07488	67.53461	-120.42316	-55.32956	-65.90727	-34.17414	-11.39138	-12.20505	-12.20505	0
202	11.39138	-110.65912	-122.0505	49.63387	65.0936	-115.54114	-52.88855	-70.78929	-65.90727	0.81367	0	0	0
203	26.03744	-91.13104	-117.16848	32.5468	69.97562	-103.33609	-35.80148	-58.58424	-53.70222	4.06835	5.69569	3.25468	0
204	26.03744	-88.69003	-114.72747	30.10579	69.97562	-100.89508	-21.15542	-41.49717	-61.02525	13.83239	15.45973	15.45973	0
205	40.6835	-83.80801	-124.49151	20.34175	82.18067	-103.33609	-18.71441	-41.49717	-61.02525	23.59643	25.22377	25.22377	0
206	23.59643	-103.33609	-126.93252	39.86983	74.85764	-115.54114	-16.2734	-29.29212	-34.17414	33.36047	34.98781	34.98781	0
207	11.39138	-120.42316	-131.81454	54.51589	69.97562	-125.30518	-21.15542	-34.17414	-36.61515	35.80148	39.86983	39.86983	0
208	18.71441	-117.98215	-136.69656	49.63387	77.29865	-127.74619	-30.91946	-41.49717	2.44101	16.2734	17.90074	17.90074	0
209	18.71441	-117.98215	-136.69656	49.63387	77.29865	-127.74619	-30.91946	-43.93818	0	13.83239	15.45973	15.45973	0
210	11.39138	-110.65912	-122.0505	49.63387	65.0936	-115.54114	-40.6835	-63.46626	-41.49717	13.83239	13.01872	13.01872	0
211	1.62734	-115.54114	-117.16848	56.9569	57.77057	-115.54114	-43.12451	-65.90727	-46.37919	13.83239	13.01872	10.57771	0
212	6.50936	-105.7771	-112.28646	49.63387	57.77057	-108.21811	-40.6835	-65.90727	-80.55333	11.39138	10.57771	10.57771	0
213	26.03744	-93.57205	-119.60949	32.5468	72.41663	-105.7771	-45.56552	-63.46626	-82.99434	8.95037	5.69569	5.69569	0
214	16.2734	-103.33609	-119.60949	42.31084	67.53461	-110.65912	-40.6835	-53.70222	-92.75838	8.95037	8.1367	8.1367	0
215	16.2734	-103.33609	-119.60949	42.31084	67.53461	-110.65912	-45.56552	-51.26121	-80.55333	16.2734	17.90074	17.90074	0
216	6.50936	-120.42316	-126.93252	56.9569	65.0936	-122.86417	-45.56552	-39.05616	-41.49717	13.83239	13.01872	15.45973	0
217	-4.06835	-127.74619	-124.49151	64.27993	60.21158	-127.74619	-45.56552	-39.05616	-31.73313	6.50936	8.1367	8.1367	0
218	-16.2734	-130.1872	-114.72747	71.60296	48.00653	-122.86417	-57.77057	-48.8202	9.76404	0.81367	0	0	0
219	-16.2734	-125.30518	-109.84545	69.16195	45.56552	-117.98215	-52.88855	-46.37919	9.76404	0.81367	0	0	0
220	-8.95037	-110.65912	-102.52242	59.39791	45.56552	-108.21811	-52.88855	-56.14323	-24.4101	-4.06835	-4.88202	-4.88202	0
221	-11.39138	-105.7771	-95.19939	56.9569	40.6835	-100.89508	-50.44754	-56.14323	-31.73313	-11.39138	-12.20505	-12.20505	0
222	4.06835	-81.367	-85.43535	37.42882	43.12451	-83.80801	-45.56552	-56.14323	-68.34828	-13.83239	-14.64606	-14.64606	0
223	18.71441	-64.27993	-82.99434	22.78276	50.44754	-74.04397	-45.56552	-61.02525	-78.11232	-8.95037	-9.76404	-9.76404	0
224	35.80148	-52.07488	-87.87636	7.32303	60.21158	-69.16195	-38.24249	-56.14323	-95.19939	-8.95037	-12.20505	-9.76404	0
225	33.36047	-49.63387	-82.99434	7.32303	57.77057	-66.72094	-30.91946	-56.14323	-87.87636	-8.95037	-9.76404	-7.32303	0
226	21.15542	-56.9569	-78.11232	17.90074	48.00653	-66.72094	-21.15542	-41.49717	-48.8202	-4.06835	-4.88202	-2.44101	0
227	35.80148	-49.63387	-85.43535	7.32303	60.21158	-66.72094	-16.2734	-41.49717	-46.37919	0.81367	3.25468	3.25468	0
228	38.24249	-54.51589	-92.75838	7.32303	65.0936	-74.04397	-16.2734	-41.49717	-4.88202	0.81367	0	0	0
229	26.03744	-64.27993	-90.31737	17.90074	57.77057	-76.48498	-4.06835	-29.29212	-2.44101	6.50936	5.69569	5.69569	0
230	26.03744	-69.16195	-95.19939	20.34175	60.21158	-81.367	-6.50936	-39.05616	-34.17414	16.2734	15.45973	15.45973	0
231	21.15542	-76.48498	-97.6404	27.66478	57.77057	-86.24902	-8.95037	-36.61515	-41.49717	26.03744	22.78276	22.78276	0
232	28.47845	-66.72094	-95.19939	17.90074	60.21158	-81.367	-6.50936	-34.17414	-68.34828	33.36047	32.5468	32.5468	0
233	30.91946	-64.27993	-95.19939	14.64606	62.65259	-78.92599	-8.95037	-31.73313	-68.34828	35.80148	37.42882	34.98781	0
234	4.06835	-81.367	-85.43535	37.42882	43.12451	-83.80801	-11.39138	-29.29212	-80.55333	35.80148	37.42882	37.42882	0
235	6.50936	-91.13104	-97.6404	42.31084	50.44754	-93.57205	-26.03744	-41.49717	-85.43535	30.91946	30.10579	32.5468	0
236	13.83239	-100.89508	-114.72747	42.31084	62.65259	-108.21811	-26.03744	-31.73313	-48.8202	28.47845	27.66478	27.66478	0
237	21.15542	-93.57205	-114.72747	34.98781	67.53461	-103.33609	-26.03744	-31.73313	-39.05616	13.83239	13.01872	13.01872	0
238	28.47845	-86.24902	-114.72747	27.66478	69.97562	-100.89508	-33.36047	-34.17414	4.88202	-8.95037	-9.76404	-9.76404	0
239	35.80148	-83.80801	-119.60949	22.78276	77.29865	-100.89508	-30.91946	-29.29212	2.44101	-18.71441	-19.52808	-19.52808	0
240	55.32956	-56.9569	-112.28646	0	82.18067	-83.80801	-28.47845	-34.17414	-29.29212	-26.03744	-26.85111	-26.85111	0
241	82.18067	-30.10579	-112.28646	-26.85111	96.82673	-71.60296	-16.2734	-24.4101	-31.73313	-28.47845	-31.73313	-29.29212	0
242	84.62168	-14.64606	-100.08141	-34.17414	91.94471	-56.9569	-8.95037	-19.52808	-58.58424	-28.47845	-29.29212	-29.29212	0
243	65.0936	-19.52808	-85.43535	-21.96909	74.85764	-52.07488	-4.06835	-14.64606	-58.58424	-38.24249	-39.05616	-39.05616	0
244	43.12451	-44.75185	-87.87636	0	65.0936	-66.72094	0.81367	-7.32303	-68.34828	-33.36047	-34.17414	-34.17414	0
245	35.80148	-69.16195	-104.96343	14.64606	69.97562	-86.24902	-6.50936	-14.64606	-68.34828	-30.91946	-31.73313	-29.29212	0
246	35.80148	-96.01306	-131.81454	30.10579	82.18067	-113.10013	-13.83239	-12.20505	-34.17414	-23.59643	-21.96909	-21.96909	0
247	35.80148	-108.21811	-144.01959	34.98781	89.5037	-125.30518	-18.71441	-17.08707	-24.4101	-16.2734	-14.64606	-14.64606	0
248	43.12451	-108.21811	-151.34262	32.5468	96.82673	-130.1872	-30.91946	-26.85111	17.08707	-16.2734	-14.64606	-14.64606	0
249	52.88855	-108.21811	-161.10666	27.66478	106.59077	-135.06922	-33.36047	-29.29212	12.20505	0.81367	0	0	0
250	79.73966	-86.24902	-165.98868	2.44101	121.23683	-125.30518	-38.24249	-43.93818	-24.4101	11.39138	10.57771	10.57771	0
251	101.70875	-59.39791	-161.10666	-21.96909	131.00087	-110.65912	-30.91946	-39.05616	-26.85111	28.47845	27.66478	27.66478	0
252	74.85764	-47.19286	-122.0505	-14.64606	96.82673	-83.80801	-13.83239	-26.85111	-46.37919	35.80148	34.98781	34.98781	0
253	57.77057	-47.19286	-104.96343	-4.88202	79.73966	-76.48498	-1.62734	-14.64606	-43.93818	30.91946	30.10579	30.10579	0
254	43.12451	-59.39791	-102.52242	7.32303	72.41663	-81.367	8.1367	-2.44101	-53.70222	28.47845	30.10579	30.10579	0
255	28.47845	-69.16195	-97.6404	20.34175	62.65259	-83.80801	5.69569	2.44101	-51.26121	33.36047	34.98781	34.98781	0
256	18.71441	-83.80801	-102.52242	32.5468	60.21158	-93.57205	5.69569	14.64606	-17.08707	30.91946	32.5468	34.98781	0
257	8.95037	-98.45407	-107.40444	44.75185	57.77057	-103.33609	-6.50936	4.88202	-17.08707	26.03744	27.66478	27.66478	0
258	23.59643	-86.24902	-109.84545	30.10579	65.0936	-98.45407	-23.59643	-12.20505	17.08707	11.39138	13.01872	13.01872	0
259	40.6835	-74.04397	-114.72747	14.64606	77.29865	-93.57205	-30.91946	-21.96909	9.76404	13.83239	15.45973	15.45973	0
260	30.91946	-64.27993	-95.19939	14.64606	62.65259	-78.92599	-33.36047	-41.49717	-26.85111	23.59643	25.22377	25.22377	0
261	28.47845	-66.72094	-95.19939	17.90074	60.21158	-81.367	-33.36047	-48.8202	-34.17414	26.03744	27.66478	25.22377	0
262	26.03744	-69.16195	-95.19939	20.34175	60.21158	-81.367	-28.47845	-53.70222	-63.46626	21.15542	22.78276	22.78276	0
263	13.83239	-69.16195	-82.99434	27.66478	48.00653	-76.48498	-21.15542	-48.8202	-63.46626	18.71441	20.34175	20.34175	0
264	-1.62734	-81.367	-80.55333	39.86983	38.24249	-81.367	-13.83239	-39.05616	-78.11232	23.59643	25.22377	25.22377	0
265	-6.50936	-91.13104	-85.43535	47.19286	38.24249	-88.69003	-18.71441	-39.05616	-78.11232	16.2734	20.34175	20.34175	0
266	-16.2734	-103.33609	-87.87636	59.39791	35.80148	-96.01306	-18.71441	-24.4101	-41.49717	16.2734	17.90074	20.34175	0
267	-16.2734	-108.21811	-92.75838	61.83892	38.24249	-100.89508	-30.91946	-29.29212	-39.05616	11.39138	13.01872	13.01872	0
268	-1.62734	-110.65912	-109.84545	54.51589	52.88855	-110.65912	-55.32956	-43.93818	-4.88202	0.81367	0	0	0
269	4.06835	-113.10013	-117.16848	54.51589	60.21158	-115.54114	-57.77057	-41.49717	0	-4.06835	-4.88202	-4.88202	0
270	6.50936	-108.21811	-114.72747	49.63387	60.21158	-110.65912	-67.53461	-56.14323	-29.29212	-1.62734	-2.44101	-2.44101	0
271	4.06835	-98.45407	-102.52242	47.19286	52.88855	-100.89508	-60.21158	-41.49717	-17.08707	0.81367	0	0	0
272	4.06835	-88.69003	-92.75838	42.31084	48.00653	-91.13104	-55.32956	-39.05616	-36.61515	11.39138	10.57771	13.01872	0
273	-4.06835	-81.367	-78.11232	42.31084	35.80148	-81.367	-52.88855	-36.61515	-34.17414	8.95037	8.1367	8.1367	0
274	-18.71441	-78.92599	-61.02525	47.19286	21.15542	-71.60296	-38.24249	-21.96909	-43.93818	16.2734	15.45973	17.90074	0
275	-33.36047	-61.83892	-29.29212	47.19286	-4.06835	-47.19286	-30.91946	-12.20505	-41.49717	26.03744	25.22377	27.66478	0
276	-28.47845	-56.9569	-29.29212	42.31084	-1.62734	-44.75185	-21.15542	4.88202	-12.20505	30.91946	30.10579	32.5468	0
277	-38.24249	-64.27993	-26.03744	49.63387	-6.50936	-47.19286	-21.15542	2.44101	-14.64606	21.15542	20.34175	22.78276	0
278	-38.24249	-81.367	-43.93818	59.39791	0.81367	-64.27993	-35.80148	-14.64606	9.76404	8.95037	10.57771	10.57771	0
279	-45.56552	-108.21811	-63.46626	76.48498	8.1367	-86.24902	-43.12451	-24.4101	2.44101	8.95037	8.1367	8.1367	0
280	-57.77057	-130.1872	-73.2303	93.57205	5.69569	-103.33609	-57.77057	-46.37919	-36.61515	13.83239	13.01872	13.01872	0
281	-50.44754	-137.51023	-87.87636	93.57205	18.71441	-113.10013	-62.65259	-56.14323	-39.05616	8.95037	8.1367	8.1367	0
282	-55.32956	-142.39225	-87.87636	98.45407	16.2734	-115.54114	-67.53461	-65.90727	-65.90727	13.83239	10.57771	13.01872	0
283	-57.77057	-147.27427	-90.31737	100.89508	16.2734	-120.42316	-72.41663	-73.2303	-70.78929	11.39138	10.57771	10.57771	0
284	-52.88855	-149.71528	-97.6404	100.89508	21.15542	-125.30518	-67.53461	-68.34828	-87.87636	21.15542	22.78276	20.34175	0
285	-45.56552	-149.71528	-104.96343	96.01306	28.47845	-127.74619	-69.97562	-70.78929	-97.6404	18.71441	20.34175	20.34175	0
286	-16.2734	-137.51023	-122.0505	76.48498	52.88855	-130.1872	-60.21158	-53.70222	-68.34828	18.71441	20.34175	20.34175	0
287	6.50936	-120.42316	-126.93252	56.9569	65.0936	-122.86417	-52.88855	-48.8202	-68.34828	13.83239	15.45973	15.45973	0
288	38.24249	-103.33609	-141.57858	32.5468	89.5037	-122.86417	-57.77057	-56.14323	-41.49717	0.81367	0	0	0
289	55.32956	-91.13104	-146.4606	17.90074	99.26774	-117.98215	-45.56552	-53.70222	-41.49717	-4.06835	-7.32303	-4.88202	0
290	87.06269	-59.39791	-146.4606	-14.64606	116.35481	-103.33609	-38.24249	-63.46626	-78.11232	-13.83239	-14.64606	-14.64606	0
291	155.41097	-9.76404	-165.98868	-73.2303	160.29299	-88.69003	-13.83239	-53.70222	-78.11232	-26.03744	-26.85111	-26.85111	0
292	213.99521	56.14323	-158.66565	-134.25555	187.1441	-52.07488	28.47845	-36.61515	-95.19939	-30.91946	-34.17414	-34.17414	0
293	289.66652	129.37353	-161.10666	-209.92686	226.20026	-14.64606	82.18067	-9.76404	-90.31737	-40.6835	-41.49717	-41.49717	0
294	340.92773	202.60383	-139.13757	-270.95211	240.84632	31.73313	155.41097	32.5468	-92.75838	-45.56552	-46.37919	-46.37919	0
295	428.80409	297.80322	-131.81454	-363.71049	279.90248	82.99434	221.31824	66.72094	-85.43535	-48.00653	-46.37919	-46.37919	0
296	519.12146	400.32564	-119.60949	-458.90988	318.95864	141.57858	301.87157	122.86417	-41.49717	-45.56552	-46.37919	-46.37919	0
297	572.82368	502.84806	-70.78929	-537.0222	321.39965	217.24989	377.54288	169.24336	-14.64606	-43.12451	-43.93818	-41.49717	0
298	597.23378	590.72442	-6.50936	-593.16543	301.87157	292.9212	431.2451	205.85851	49.63387	-40.6835	-43.93818	-41.49717	0
299	577.7057	659.0727	81.367	-617.57553	248.16935	371.03352	484.94732	252.2377	96.01306	-45.56552	-48.8202	-46.37919	0
300	543.53156	727.42098	183.88942	-634.6626	179.82107	456.46887	526.44449	283.97083	120.42316	-45.56552	-46.37919	-46.37919	0
301	492.27035	781.1232	288.85285	-637.10361	101.70875	534.58119	565.50065	332.79103	179.0074	-40.6835	-43.93818	-43.93818	0
302	404.39399	822.62037	418.22638	-612.69351	-6.50936	620.01654	599.67479	379.17022	220.50457	-45.56552	-48.8202	-46.37919	0
303	336.04571	866.55855	530.51284	-600.48846	-96.82673	698.12886	621.64388	420.66739	279.08881	-45.56552	-48.8202	-46.37919	0
304	257.93339	890.96865	633.03526	-573.63735	-187.1441	761.59512	638.73095	462.16456	313.26295	-45.56552	-48.8202	-46.37919	0
305	192.02612	883.64562	691.6195	-537.0222	-250.61036	788.44623	621.64388	471.9286	335.23204	-48.00653	-51.26121	-48.8202	0
306	140.76491	847.03047	706.26556	-493.08402	-282.34349	776.24118	587.46974	479.25163	366.96517	-48.00653	-48.8202	-46.37919	0
307	82.18067	771.35916	689.17849	-427.17675	-304.31258	729.86199	519.12146	447.5185	354.76012	-38.24249	-39.05616	-39.05616	0
308	16.2734	666.39573	650.12233	-341.7414	-316.51763	659.0727	436.12712	396.25729	366.96517	-33.36047	-36.61515	-34.17414	0
309	-38.24249	537.0222	574.45102	-248.98302	-306.75359	554.10927	345.80975	337.67305	330.35002	-28.47845	-29.29212	-29.29212	0
310	-94.38572	400.32564	493.89769	-153.78363	-294.54854	446.70483	253.05137	259.56073	259.56073	-28.47845	-31.73313	-31.73313	0
311	-111.47279	290.48019	401.13931	-90.31737	-255.49238	344.18241	177.38006	203.4175	222.94558	-26.03744	-26.85111	-26.85111	0
312	-126.11885	207.48585	332.79103	-41.49717	-228.64127	268.5111	121.23683	152.15629	169.24336	-23.59643	-24.4101	-24.4101	0
313	-133.44188	146.4606	279.08881	-7.32303	-206.67218	212.36787	79.73966	115.54114	139.95124	-30.91946	-31.73313	-31.73313	0
314	-116.35481	104.96343	220.50457	4.88202	-167.61602	161.10666	55.32956	91.13104	96.01306	-28.47845	-29.29212	-26.85111	0
315	-106.59077	75.67131	181.44841	14.64606	-143.20592	126.93252	30.91946	66.72094	64.27993	-26.03744	-26.85111	-26.85111	0
316	-87.06269	48.8202	135.06922	17.90074	-111.47279	90.31737	18.71441	59.39791	66.72094	-21.15542	-21.96909	-21.96909	0
317	-72.41663	26.85111	98.45407	22.78276	-84.62168	61.02525	8.1367	47.19286	44.75185	-13.83239	-14.64606	-12.20505	0
318	-65.0936	4.88202	69.16195	30.10579	-67.53461	36.61515	-13.83239	25.22377	54.51589	-13.83239	-14.64606	-14.64606	0
319	-65.0936	-17.08707	47.19286	39.86983	-55.32956	14.64606	-21.15542	17.08707	39.86983	-8.95037	-7.32303	-9.76404	0
320	-84.62168	-34.98781	49.63387	59.39791	-67.53461	7.32303	-33.36047	-2.44101	-2.44101	-8.95037	-7.32303	-7.32303	0
321	-79.73966	-47.19286	32.5468	61.83892	-57.77057	-7.32303	-35.80148	-7.32303	-7.32303	-4.06835	-2.44101	-4.88202	0
322	-79.73966	-42.31084	37.42882	59.39791	-60.21158	-2.44101	-28.47845	-2.44101	-17.08707	8.95037	8.1367	8.1367	0
323	-77.29865	-42.31084	34.98781	59.39791	-57.77057	-4.88202	-33.36047	-2.44101	-17.08707	4.06835	3.25468	3.25468	0
324	-82.18067	-52.07488	30.10579	66.72094	-57.77057	-12.20505	-30.91946	0	-29.29212	4.06835	5.69569	5.69569	0
325	-74.85764	-61.83892	13.01872	66.72094	-45.56552	-24.4101	-38.24249	-7.32303	-34.17414	4.06835	3.25468	3.25468	0
326	-60.21158	-59.39791	0.81367	59.39791	-30.91946	-30.10579	-30.91946	9.76404	2.44101	8.95037	8.1367	8.1367	0
327	-77.29865	-64.27993	13.01872	69.16195	-45.56552	-26.85111	-26.03744	9.76404	9.76404	8.95037	8.1367	8.1367	0
328	-82.18067	-71.60296	10.57771	76.48498	-48.00653	-32.5468	-40.6835	0	34.98781	-4.06835	-2.44101	-2.44101	0
329	-94.38572	-83.80801	10.57771	88.69003	-52.88855	-37.42882	-40.6835	-4.88202	37.42882	-1.62734	-2.44101	-2.44101	0
330	-96.82673	-78.92599	17.90074	86.24902	-57.77057	-32.5468	-45.56552	-17.08707	12.20505	0.81367	0	0	0
331	-96.82673	-69.16195	27.66478	81.367	-62.65259	-21.96909	-45.56552	-14.64606	19.52808	13.83239	13.01872	13.01872	0
332	-104.14976	-61.83892	42.31084	81.367	-74.85764	-9.76404	-48.00653	-14.64606	0	30.91946	27.66478	30.10579	0
333	-104.14976	-59.39791	44.75185	81.367	-74.85764	-7.32303	-55.32956	-17.08707	-2.44101	35.80148	34.98781	34.98781	0
334	-101.70875	-56.9569	44.75185	78.92599	-74.85764	-7.32303	-57.77057	-14.64606	-21.96909	38.24249	37.42882	37.42882	0
335	-82.18067	-47.19286	34.98781	64.27993	-60.21158	-7.32303	-60.21158	-17.08707	-26.85111	43.12451	42.31084	42.31084	0
336	-79.73966	-54.51589	25.22377	66.72094	-52.88855	-14.64606	-57.77057	-7.32303	0	40.6835	39.86983	42.31084	0
337	-96.82673	-69.16195	27.66478	81.367	-62.65259	-21.96909	-60.21158	-9.76404	-2.44101	43.12451	42.31084	44.75185	0
338	-99.26774	-74.04397	25.22377	86.24902	-62.65259	-24.4101	-69.97562	-14.64606	27.66478	30.91946	30.10579	30.10579	0
339	-79.73966	-69.16195	10.57771	74.04397	-45.56552	-30.10579	-69.97562	-12.20505	34.98781	21.15542	22.78276	22.78276	0
340	-62.65259	-59.39791	3.25468	59.39791	-33.36047	-30.10579	-74.85764	-24.4101	17.08707	21.15542	22.78276	22.78276	0
341	-72.41663	-56.9569	15.45973	64.27993	-45.56552	-21.96909	-67.53461	-17.08707	27.66478	18.71441	17.90074	17.90074	0
342	-82.18067	-49.63387	32.5468	64.27993	-57.77057	-9.76404	-65.0936	-14.64606	14.64606	16.2734	15.45973	15.45973	0
343	-82.18067	-42.31084	39.86983	61.83892	-62.65259	-2.44101	-62.65259	-9.76404	14.64606	13.83239	13.01872	13.01872	0
344	-62.65259	-26.85111	34.98781	44.75185	-48.00653	2.44101	-48.00653	2.44101	0	16.2734	17.90074	17.90074	0
345	-84.62168	-30.10579	54.51589	56.9569	-69.97562	12.20505	-40.6835	4.88202	-7.32303	18.71441	17.90074	20.34175	0
346	-101.70875	-34.98781	66.72094	66.72094	-84.62168	14.64606	-23.59643	25.22377	21.96909	21.15542	20.34175	22.78276	0
347	-111.47279	-44.75185	66.72094	76.48498	-89.5037	9.76404	-23.59643	25.22377	17.08707	21.15542	20.34175	22.78276	0
348	-101.70875	-47.19286	54.51589	74.04397	-79.73966	2.44101	-35.80148	17.08707	39.86983	18.71441	17.90074	20.34175	0
349	-104.14976	-47.19286	56.9569	74.04397	-82.18067	4.88202	-35.80148	17.08707	47.19286	18.71441	17.90074	20.34175	0
350	-104.14976	-47.19286	56.9569	74.04397	-82.18067	4.88202	-48.00653	2.44101	27.66478	26.03744	25.22377	25.22377	0
351	-111.47279	-61.83892	49.63387	86.24902	-82.18067	-7.32303	-55.32956	-4.88202	32.5468	26.03744	22.78276	22.78276	0
352	-109.03178	-52.07488	56.9569	78.92599	-84.62168	2.44101	-52.88855	-7.32303	21.96909	28.47845	27.66478	30.10579	0
353	-94.38572	-47.19286	47.19286	69.16195	-72.41663	0	-55.32956	-12.20505	17.08707	35.80148	34.98781	34.98781	0
354	-84.62168	-30.10579	54.51589	56.9569	-69.97562	12.20505	-40.6835	0	7.32303	40.6835	39.86983	42.31084	0
355	-79.73966	-9.76404	69.16195	44.75185	-74.85764	29.29212	-23.59643	14.64606	9.76404	48.00653	47.19286	49.63387	0
356	-91.94471	-12.20505	78.92599	52.07488	-84.62168	31.73313	-6.50936	32.5468	30.10579	48.00653	47.19286	49.63387	0
357	-101.70875	-2.44101	98.45407	52.07488	-99.26774	46.37919	3.25468	42.31084	27.66478	45.56552	44.75185	47.19286	0
358	-89.5037	7.32303	96.01306	39.86983	-91.94471	51.26121	-1.62734	39.86983	52.07488	35.80148	34.98781	37.42882	0
359	-96.82673	4.88202	100.89508	44.75185	-99.26774	51.26121	-1.62734	42.31084	59.39791	28.47845	27.66478	27.66478	0
360	-121.23683	-4.88202	115.54114	61.83892	-118.79582	53.70222	-8.95037	27.66478	34.98781	18.71441	17.90074	17.90074	0
361	-118.79582	-19.52808	98.45407	69.16195	-109.03178	39.05616	-21.15542	17.08707	37.42882	13.83239	13.01872	13.01872	0
362	-109.03178	-30.10579	78.92599	69.16195	-94.38572	24.4101	-40.6835	0	17.08707	13.83239	13.01872	13.01872	0
363	-109.03178	-32.5468	76.48498	69.16195	-94.38572	21.96909	-50.44754	-14.64606	17.08707	16.2734	15.45973	15.45973	0
364	-109.03178	-26.85111	81.367	66.72094	-94.38572	26.85111	-45.56552	-12.20505	2.44101	21.15542	20.34175	22.78276	0
365	-118.79582	-24.4101	93.57205	71.60296	-106.59077	34.17414	-45.56552	-19.52808	-9.76404	23.59643	25.22377	25.22377	0
366	-113.9138	-9.76404	103.33609	61.83892	-109.03178	46.37919	-35.80148	-2.44101	14.64606	26.03744	25.22377	27.66478	0
367	-113.9138	-4.88202	108.21811	59.39791	-111.47279	51.26121	-38.24249	-2.44101	4.88202	21.15542	20.34175	25.22377	0
368	-138.3239	-4.88202	132.62821	71.60296	-135.88289	63.46626	-45.56552	-7.32303	25.22377	8.95037	8.1367	10.57771	0
369	-143.20592	4.88202	147.27427	69.16195	-145.64693	75.67131	-35.80148	7.32303	34.98781	8.95037	10.57771	10.57771	0
370	-157.85198	2.44101	159.47932	76.48498	-157.85198	80.55333	-43.12451	0	9.76404	4.06835	3.25468	5.69569	0
371	-143.20592	7.32303	149.71528	66.72094	-145.64693	78.11232	-40.6835	7.32303	21.96909	0.81367	0	0	0
372	-135.88289	12.20505	147.27427	61.83892	-140.76491	78.11232	-33.36047	17.08707	21.96909	-1.62734	-2.44101	0	0
373	-131.00087	17.08707	147.27427	56.9569	-138.3239	80.55333	-30.91946	22.78276	32.5468	11.39138	10.57771	10.57771	0
374	-131.00087	12.20505	142.39225	59.39791	-135.88289	75.67131	-21.15542	30.10579	21.96909	26.03744	22.78276	25.22377	0
375	-128.55986	14.64606	142.39225	56.9569	-135.88289	78.11232	-21.15542	30.10579	21.96909	33.36047	32.5468	34.98781	0
376	-109.03178	24.4101	132.62821	42.31084	-121.23683	78.11232	-6.50936	44.75185	52.07488	35.80148	34.98781	37.42882	0
377	-116.35481	24.4101	139.95124	44.75185	-128.55986	80.55333	-6.50936	42.31084	47.19286	48.00653	47.19286	49.63387	0
378	-116.35481	24.4101	139.95124	44.75185	-128.55986	80.55333	-21.15542	27.66478	66.72094	48.00653	47.19286	49.63387	0
379	-113.9138	21.96909	135.06922	44.75185	-123.67784	78.11232	-26.03744	25.22377	64.27993	48.00653	47.19286	49.63387	0
380	-126.11885	24.4101	149.71528	49.63387	-138.3239	85.43535	-33.36047	17.08707	39.86983	45.56552	44.75185	44.75185	0
381	-111.47279	43.93818	154.5973	32.5468	-133.44188	97.6404	-28.47845	25.22377	52.07488	45.56552	42.31084	44.75185	0
382	-96.82673	63.46626	159.47932	14.64606	-128.55986	109.84545	-26.03744	27.66478	44.75185	40.6835	39.86983	39.86983	0
383	-94.38572	73.2303	166.80235	9.76404	-131.00087	119.60949	-21.15542	32.5468	49.63387	35.80148	32.5468	32.5468	0
384	-99.26774	78.11232	176.56639	9.76404	-138.3239	126.93252	-6.50936	44.75185	42.31084	35.80148	34.98781	34.98781	0
385	-99.26774	95.19939	193.65346	2.44101	-145.64693	144.01959	-1.62734	47.19286	37.42882	35.80148	32.5468	34.98781	0
386	-96.82673	97.6404	193.65346	0	-145.64693	144.01959	8.1367	56.9569	59.39791	38.24249	34.98781	37.42882	0
387	-89.5037	107.40444	196.09447	-9.76404	-143.20592	151.34262	16.2734	59.39791	59.39791	35.80148	34.98781	37.42882	0
388	-89.5037	107.40444	196.09447	-9.76404	-143.20592	151.34262	11.39138	54.51589	83.80801	26.03744	25.22377	25.22377	0
389	-106.59077	92.75838	198.53548	7.32303	-152.96996	144.01959	16.2734	59.39791	83.80801	21.15542	20.34175	20.34175	0
390	-104.14976	104.96343	208.29952	0	-155.41097	156.22464	18.71441	52.07488	64.27993	16.2734	17.90074	17.90074	0
391	-101.70875	112.28646	213.18154	-4.88202	-157.85198	161.10666	18.71441	49.63387	69.16195	13.83239	13.01872	13.01872	0
392	-96.82673	131.81454	227.8276	-17.08707	-162.734	178.19373	26.03744	47.19286	59.39791	8.95037	10.57771	8.1367	0
393	-106.59077	129.37353	235.15063	-12.20505	-170.05703	180.63474	26.03744	39.86983	54.51589	6.50936	5.69569	5.69569	0
394	-106.59077	117.16848	222.94558	-4.88202	-165.17501	168.42969	35.80148	44.75185	32.5468	11.39138	10.57771	13.01872	0
395	-113.9138	126.93252	240.03265	-7.32303	-177.38006	183.07575	43.12451	49.63387	25.22377	18.71441	20.34175	22.78276	0
396	-101.70875	134.25555	235.15063	-17.08707	-167.61602	183.07575	60.21158	74.04397	54.51589	26.03744	27.66478	30.10579	0
397	-96.82673	139.13757	235.15063	-21.96909	-165.17501	185.51676	69.97562	86.24902	54.51589	40.6835	42.31084	44.75185	0
398	-91.94471	141.57858	232.70962	-24.4101	-162.734	185.51676	65.0936	86.24902	78.92599	43.12451	42.31084	44.75185	0
399	-77.29865	161.10666	237.59164	-41.49717	-157.85198	197.72181	74.85764	98.45407	88.69003	52.88855	52.07488	54.51589	0
400	-72.41663	197.72181	269.32477	-63.46626	-170.05703	231.89595	79.73966	98.45407	78.92599	57.77057	56.9569	56.9569	0
401	-74.85764	219.6909	293.73487	-73.2303	-184.70309	256.30605	87.06269	105.7771	93.57205	55.32956	54.51589	54.51589	0
402	-79.73966	224.57292	303.49891	-73.2303	-192.02612	263.62908	87.06269	103.33609	86.24902	55.32956	56.9569	56.9569	0
403	-87.06269	234.33696	320.58598	-73.2303	-204.23117	275.83413	87.06269	98.45407	91.13104	52.88855	54.51589	54.51589	0
404	-87.06269	239.21898	325.468	-75.67131	-206.67218	280.71615	94.38572	105.7771	83.80801	48.00653	49.63387	49.63387	0
405	-82.18067	241.65999	323.02699	-80.55333	-201.79016	280.71615	96.82673	105.7771	83.80801	43.12451	44.75185	47.19286	0
406	-74.85764	227.01393	301.0579	-75.67131	-187.1441	263.62908	101.70875	120.42316	108.21811	48.00653	47.19286	49.63387	0
407	-72.41663	224.57292	296.17588	-75.67131	-184.70309	258.74706	104.14976	122.86417	105.7771	52.88855	54.51589	54.51589	0
408	-55.32956	239.21898	293.73487	-92.75838	-174.93905	266.07009	99.26774	117.98215	132.62821	45.56552	47.19286	47.19286	0
409	-50.44754	244.101	293.73487	-97.6404	-172.49804	268.5111	104.14976	117.98215	130.1872	43.12451	42.31084	42.31084	0
410	-55.32956	253.86504	308.38093	-100.08141	-182.26208	280.71615	101.70875	108.21811	103.33609	43.12451	42.31084	44.75185	0
411	-57.77057	268.5111	325.468	-104.96343	-192.02612	295.36221	109.03178	115.54114	108.21811	50.44754	49.63387	49.63387	0
412	-62.65259	288.03918	349.8781	-112.28646	-206.67218	317.3313	116.35481	117.98215	103.33609	45.56552	44.75185	44.75185	0
413	-62.65259	292.9212	354.76012	-114.72747	-209.11319	322.21332	106.59077	110.65912	96.01306	33.36047	32.5468	30.10579	0
414	-69.97562	288.03918	357.20113	-109.84545	-213.99521	322.21332	104.14976	105.7771	74.04397	28.47845	27.66478	27.66478	0
415	-62.65259	285.59817	347.43709	-112.28646	-204.23117	314.89029	96.82673	100.89508	66.72094	26.03744	27.66478	27.66478	0
416	-50.44754	273.39312	323.02699	-112.28646	-187.1441	297.80322	99.26774	110.65912	88.69003	23.59643	22.78276	25.22377	0
417	-45.56552	258.74706	303.49891	-107.40444	-174.93905	280.71615	94.38572	105.7771	81.367	11.39138	10.57771	13.01872	0
418	-50.44754	246.54201	296.17588	-97.6404	-172.49804	270.95211	87.06269	98.45407	103.33609	0.81367	0	3.25468	0
419	-45.56552	246.54201	291.29386	-100.08141	-167.61602	268.5111	99.26774	110.65912	110.65912	0.81367	0	3.25468	0
420	-33.36047	261.18807	293.73487	-114.72747	-162.734	275.83413	106.59077	117.98215	98.45407	0.81367	0	3.25468	0
421	-23.59643	261.18807	283.97083	-119.60949	-152.96996	270.95211	111.47279	125.30518	103.33609	-4.06835	-4.88202	-4.88202	0
422	-30.91946	251.42403	281.52982	-109.84545	-155.41097	266.07009	109.03178	125.30518	93.57205	-1.62734	-2.44101	0	0
423	-30.91946	236.77797	266.88376	-102.52242	-148.08794	251.42403	104.14976	120.42316	86.24902	-4.06835	-4.88202	-2.44101	0
424	-30.91946	222.13191	252.2377	-95.19939	-140.76491	236.77797	106.59077	125.30518	69.16195	4.06835	3.25468	3.25468	0
425	-13.83239	214.80888	227.8276	-100.08141	-121.23683	219.6909	101.70875	120.42316	59.39791	6.50936	5.69569	8.1367	0
426	4.06835	205.04484	200.97649	-104.96343	-99.26774	202.60383	99.26774	125.30518	78.92599	16.2734	15.45973	17.90074	0
427	8.95037	195.2808	186.33043	-102.52242	-89.5037	190.39878	91.94471	113.10013	71.60296	23.59643	22.78276	25.22377	0
428	23.59643	200.16282	176.56639	-112.28646	-77.29865	187.95777	82.18067	98.45407	91.13104	28.47845	27.66478	27.66478	0
429	35.80148	209.92686	174.12538	-122.0505	-69.97562	192.83979	84.62168	96.01306	93.57205	38.24249	37.42882	37.42882	0
430	50.44754	217.24989	166.80235	-134.25555	-57.77057	192.83979	79.73966	83.80801	66.72094	45.56552	44.75185	44.75185	0
431	45.56552	195.2808	149.71528	-119.60949	-52.88855	173.31171	77.29865	76.48498	61.83892	38.24249	37.42882	37.42882	0
432	28.47845	165.98868	137.51023	-97.6404	-55.32956	151.34262	69.97562	64.27993	37.42882	45.56552	44.75185	44.75185	0
433	8.95037	124.49151	115.54114	-65.90727	-52.88855	119.60949	62.65259	52.07488	21.96909	50.44754	49.63387	52.07488	0
434	23.59643	107.40444	83.80801	-65.90727	-30.91946	95.19939	67.53461	59.39791	2.44101	57.77057	56.9569	59.39791	0
435	40.6835	90.31737	49.63387	-65.90727	-4.06835	70.78929	57.77057	49.63387	-14.64606	50.44754	49.63387	54.51589	0
436	57.77057	82.99434	25.22377	-70.78929	16.2734	53.70222	57.77057	56.9569	7.32303	43.12451	42.31084	47.19286	0
437	65.0936	85.43535	20.34175	-75.67131	23.59643	53.70222	48.00653	47.19286	0	40.6835	42.31084	44.75185	0
438	84.62168	90.31737	5.69569	-87.87636	40.6835	48.8202	30.91946	30.10579	17.08707	33.36047	32.5468	34.98781	0
439	79.73966	85.43535	5.69569	-82.99434	38.24249	46.37919	28.47845	27.66478	17.08707	26.03744	25.22377	27.66478	0
440	62.65259	70.78929	8.1367	-65.90727	28.47845	39.05616	16.2734	9.76404	-14.64606	21.15542	20.34175	20.34175	0
441	43.12451	46.37919	3.25468	-43.93818	21.15542	24.4101	18.71441	9.76404	-17.08707	18.71441	17.90074	17.90074	0
442	26.03744	26.85111	0.81367	-26.85111	13.01872	14.64606	21.15542	12.20505	-26.85111	26.03744	25.22377	25.22377	0
443	26.03744	-2.44101	-29.29212	-12.20505	28.47845	-14.64606	13.83239	2.44101	-39.05616	40.6835	37.42882	39.86983	0
444	6.50936	-30.10579	-36.61515	12.20505	21.15542	-32.5468	18.71441	9.76404	-56.14323	48.00653	47.19286	49.63387	0
445	1.62734	-34.98781	-36.61515	14.64606	18.71441	-34.98781	13.83239	9.76404	-58.58424	52.88855	52.07488	54.51589	0
446	26.03744	-26.85111	-53.70222	0	40.6835	-39.86983	11.39138	22.78276	-26.85111	57.77057	56.9569	59.39791	0
447	30.91946	-14.64606	-46.37919	-7.32303	38.24249	-30.10579	5.69569	20.34175	-19.52808	62.65259	61.83892	64.27993	0
448	30.91946	-12.20505	-43.93818	-9.76404	38.24249	-26.85111	-11.39138	9.76404	7.32303	67.53461	66.72094	69.16195	0
449	18.71441	-26.85111	-46.37919	4.88202	33.36047	-37.42882	-23.59643	0	2.44101	65.0936	64.27993	66.72094	0
450	6.50936	-30.10579	-36.61515	12.20505	21.15542	-32.5468	-38.24249	-14.64606	-21.96909	62.65259	61.83892	64.27993	0
451	4.06835	-44.75185	-48.8202	20.34175	26.03744	-47.19286	-45.56552	-26.85111	-31.73313	67.53461	66.72094	66.72094	0
452	-1.62734	-56.9569	-56.14323	27.66478	26.03744	-56.9569	-50.44754	-36.61515	-48.8202	65.0936	64.27993	64.27993	0
453	-11.39138	-69.16195	-58.58424	39.86983	23.59643	-64.27993	-45.56552	-36.61515	-51.26121	57.77057	56.9569	56.9569	0
454	-16.2734	-91.13104	-75.67131	52.07488	28.47845	-83.80801	-35.80148	-34.17414	-73.2303	57.77057	54.51589	56.9569	0
455	-8.95037	-96.01306	-87.87636	52.07488	38.24249	-93.57205	-28.47845	-29.29212	-78.11232	52.88855	49.63387	52.07488	0
456	4.06835	-105.7771	-109.84545	49.63387	55.32956	-108.21811	-16.2734	-9.76404	-48.8202	50.44754	47.19286	49.63387	0
457	8.95037	-105.7771	-114.72747	47.19286	60.21158	-110.65912	-8.95037	0	-41.49717	38.24249	34.98781	39.86983	0
458	11.39138	-100.89508	-112.28646	44.75185	60.21158	-105.7771	-11.39138	4.88202	-7.32303	26.03744	25.22377	27.66478	0
459	16.2734	-93.57205	-109.84545	37.42882	62.65259	-100.89508	-11.39138	14.64606	2.44101	21.15542	20.34175	20.34175	0
460	21.15542	-96.01306	-117.16848	37.42882	67.53461	-105.7771	-30.91946	-2.44101	-21.96909	21.15542	20.34175	20.34175	0
461	11.39138	-103.33609	-114.72747	44.75185	62.65259	-108.21811	-48.00653	-14.64606	-29.29212	13.83239	10.57771	13.01872	0
462	4.06835	-93.57205	-97.6404	44.75185	50.44754	-96.01306	-57.77057	-24.4101	-39.05616	6.50936	3.25468	5.69569	0
463	6.50936	-83.80801	-90.31737	37.42882	48.00653	-86.24902	-62.65259	-31.73313	-41.49717	6.50936	5.69569	5.69569	0
464	4.06835	-93.57205	-97.6404	44.75185	50.44754	-96.01306	-62.65259	-31.73313	-61.02525	13.83239	13.01872	13.01872	0
465	-4.06835	-117.98215	-114.72747	59.39791	55.32956	-117.98215	-72.41663	-46.37919	-82.99434	13.83239	13.01872	15.45973	0
466	-11.39138	-135.06922	-124.49151	71.60296	55.32956	-130.1872	-65.0936	-31.73313	-63.46626	6.50936	5.69569	8.1367	0
467	-8.95037	-125.30518	-117.16848	66.72094	52.88855	-122.86417	-55.32956	-21.96909	-56.14323	4.06835	3.25468	8.1367	0
468	4.06835	-115.54114	-119.60949	54.51589	60.21158	-117.98215	-52.88855	-19.52808	-26.85111	0.81367	0	3.25468	0
469	1.62734	-117.98215	-119.60949	56.9569	60.21158	-117.98215	-52.88855	-19.52808	-26.85111	0.81367	0	0	0
470	6.50936	-110.65912	-117.16848	52.07488	60.21158	-113.10013	-57.77057	-34.17414	-46.37919	0.81367	0	0	0
471	8.95037	-91.13104	-100.08141	39.86983	52.88855	-96.01306	-52.88855	-34.17414	-46.37919	-4.06835	-7.32303	-4.88202	0
472	33.36047	-69.16195	-102.52242	17.90074	67.53461	-86.24902	-45.56552	-41.49717	-53.70222	-8.95037	-12.20505	-9.76404	0
473	48.00653	-59.39791	-107.40444	4.88202	77.29865	-83.80801	-38.24249	-39.05616	-53.70222	-8.95037	-12.20505	-9.76404	0
474	30.91946	-81.367	-112.28646	25.22377	69.97562	-96.01306	-28.47845	-29.29212	-73.2303	-6.50936	-9.76404	-7.32303	0
475	26.03744	-91.13104	-117.16848	32.5468	69.97562	-103.33609	-26.03744	-24.4101	-80.55333	-6.50936	-7.32303	-4.88202	0
476	8.95037	-103.33609	-112.28646	47.19286	60.21158	-108.21811	-11.39138	0	-46.37919	-8.95037	-9.76404	-7.32303	0
477	-1.62734	-113.10013	-112.28646	56.9569	55.32956	-113.10013	-8.95037	7.32303	-39.05616	-11.39138	-12.20505	-9.76404	0
478	1.62734	-115.54114	-117.16848	56.9569	57.77057	-115.54114	-16.2734	9.76404	-12.20505	-8.95037	-9.76404	-7.32303	0
479	-18.71441	-127.74619	-109.84545	71.60296	45.56552	-120.42316	-23.59643	4.88202	-14.64606	0.81367	0	0	0
480	-21.15542	-125.30518	-104.96343	71.60296	40.6835	-115.54114	-35.80148	-12.20505	-41.49717	-1.62734	-2.44101	0	0
481	-6.50936	-108.21811	-102.52242	56.9569	48.00653	-105.7771	-35.80148	-14.64606	-43.93818	-1.62734	-2.44101	-2.44101	0
482	1.62734	-103.33609	-104.96343	49.63387	52.88855	-103.33609	-40.6835	-21.96909	-58.58424	0.81367	0	0	0
483	21.15542	-91.13104	-112.28646	34.98781	65.0936	-100.89508	-50.44754	-26.85111	-65.90727	-1.62734	-2.44101	-2.44101	0
484	13.83239	-96.01306	-109.84545	39.86983	60.21158	-103.33609	-48.00653	-21.96909	-80.55333	0.81367	0	0	0
485	8.95037	-100.89508	-109.84545	44.75185	57.77057	-105.7771	-52.88855	-26.85111	-87.87636	-4.06835	-4.88202	-4.88202	0
486	4.06835	-103.33609	-107.40444	49.63387	55.32956	-105.7771	-45.56552	-12.20505	-56.14323	-1.62734	-4.88202	-2.44101	0
487	11.39138	-103.33609	-114.72747	44.75185	62.65259	-108.21811	-48.00653	-14.64606	-51.26121	4.06835	3.25468	5.69569	0
488	21.15542	-93.57205	-114.72747	34.98781	67.53461	-103.33609	-52.88855	-19.52808	-24.4101	4.06835	3.25468	5.69569	0
489	13.83239	-103.33609	-117.16848	44.75185	65.0936	-110.65912	-52.88855	-24.4101	-29.29212	16.2734	15.45973	15.45973	0
490	1.62734	-103.33609	-104.96343	49.63387	52.88855	-103.33609	-57.77057	-31.73313	-48.8202	26.03744	22.78276	25.22377	0
491	-1.62734	-110.65912	-109.84545	54.51589	52.88855	-110.65912	-57.77057	-34.17414	-56.14323	30.91946	27.66478	27.66478	0
492	-1.62734	-105.7771	-104.96343	52.07488	50.44754	-105.7771	-55.32956	-34.17414	-65.90727	26.03744	25.22377	25.22377	0
493	-1.62734	-103.33609	-102.52242	52.07488	50.44754	-103.33609	-57.77057	-39.05616	-70.78929	23.59643	22.78276	22.78276	0
494	-1.62734	-108.21811	-107.40444	54.51589	52.88855	-108.21811	-50.44754	-34.17414	-82.99434	21.15542	20.34175	20.34175	0
495	-1.62734	-108.21811	-107.40444	54.51589	52.88855	-108.21811	-50.44754	-34.17414	-82.99434	13.83239	13.01872	15.45973	0
496	-4.06835	-120.42316	-117.16848	61.83892	55.32956	-120.42316	-43.12451	-21.96909	-53.70222	0.81367	0	0	0
497	-1.62734	-122.86417	-122.0505	61.83892	60.21158	-122.86417	-43.12451	-24.4101	-53.70222	-1.62734	-2.44101	0	0
498	8.95037	-110.65912	-119.60949	49.63387	62.65259	-115.54114	-45.56552	-26.85111	-29.29212	-11.39138	-12.20505	-9.76404	0
499	11.39138	-113.10013	-124.49151	49.63387	67.53461	-117.98215	-50.44754	-26.85111	-36.61515	-13.83239	-17.08707	-14.64606	0
500	-1.62734	-115.54114	-114.72747	56.9569	55.32956	-115.54114	-52.88855	-34.17414	-63.46626	-23.59643	-24.4101	-24.4101	0
501	-8.95037	-117.98215	-109.84545	61.83892	50.44754	-115.54114	-50.44754	-31.73313	-63.46626	-26.03744	-26.85111	-24.4101	0
502	-11.39138	-113.10013	-102.52242	61.83892	45.56552	-108.21811	-50.44754	-31.73313	-78.11232	-21.15542	-21.96909	-19.52808	0
503	-1.62734	-105.7771	-104.96343	52.07488	50.44754	-105.7771	-45.56552	-24.4101	-73.2303	-23.59643	-24.4101	-21.96909	0
504	1.62734	-100.89508	-102.52242	49.63387	50.44754	-100.89508	-43.12451	-17.08707	-70.78929	-26.03744	-24.4101	-24.4101	0
505	-1.62734	-117.98215	-117.16848	59.39791	57.77057	-117.98215	-45.56552	-14.64606	-78.11232	-23.59643	-24.4101	-21.96909	0
506	13.83239	-115.54114	-129.37353	49.63387	69.97562	-122.86417	-50.44754	-9.76404	-68.34828	-26.03744	-26.85111	-24.4101	0
507	8.95037	-117.98215	-126.93252	54.51589	67.53461	-122.86417	-55.32956	-2.44101	-36.61515	-18.71441	-19.52808	-17.08707	0
508	8.95037	-115.54114	-124.49151	52.07488	65.0936	-120.42316	-69.97562	-12.20505	-12.20505	-28.47845	-29.29212	-29.29212	0
509	16.2734	-113.10013	-129.37353	47.19286	72.41663	-120.42316	-69.97562	-14.64606	4.88202	-35.80148	-34.17414	-36.61515	0
510	30.91946	-103.33609	-134.25555	34.98781	82.18067	-117.98215	-79.73966	-39.05616	-26.85111	-26.03744	-26.85111	-26.85111	0
511	35.80148	-100.89508	-136.69656	32.5468	84.62168	-117.98215	-77.29865	-43.93818	-26.85111	-28.47845	-29.29212	-31.73313	0
512	28.47845	-96.01306	-124.49151	32.5468	74.85764	-110.65912	-65.0936	-43.93818	-39.05616	-33.36047	-34.17414	-34.17414	0
513	11.39138	-108.21811	-119.60949	47.19286	65.0936	-113.10013	-55.32956	-43.93818	-41.49717	-40.6835	-41.49717	-43.93818	0
514	23.59643	-110.65912	-134.25555	42.31084	77.29865	-122.86417	-43.12451	-43.93818	-51.26121	-52.88855	-53.70222	-53.70222	0
515	38.24249	-115.54114	-153.78363	37.42882	94.38572	-135.06922	-38.24249	-39.05616	-65.90727	-55.32956	-56.14323	-56.14323	0
516	33.36047	-117.98215	-151.34262	42.31084	91.94471	-135.06922	-38.24249	-34.17414	-65.90727	-67.53461	-68.34828	-68.34828	0
517	35.80148	-117.98215	-153.78363	39.86983	94.38572	-135.06922	-33.36047	-21.96909	-41.49717	-77.29865	-78.11232	-78.11232	0
518	33.36047	-115.54114	-148.90161	39.86983	89.5037	-132.62821	-48.00653	-34.17414	-17.08707	-79.73966	-80.55333	-80.55333	0
519	38.24249	-115.54114	-153.78363	37.42882	94.38572	-135.06922	-52.88855	-34.17414	-7.32303	-77.29865	-78.11232	-78.11232	0
520	50.44754	-98.45407	-148.90161	22.78276	99.26774	-122.86417	-62.65259	-51.26121	-34.17414	-67.53461	-68.34828	-68.34828	0
521	43.12451	-93.57205	-136.69656	25.22377	89.5037	-115.54114	-62.65259	-51.26121	-31.73313	-62.65259	-63.46626	-63.46626	0
522	21.15542	-96.01306	-117.16848	37.42882	67.53461	-105.7771	-60.21158	-51.26121	-46.37919	-48.00653	-51.26121	-48.8202	0
523	4.06835	-110.65912	-114.72747	52.07488	57.77057	-113.10013	-65.0936	-53.70222	-56.14323	-38.24249	-39.05616	-39.05616	0
524	-4.06835	-113.10013	-109.84545	56.9569	52.88855	-113.10013	-57.77057	-46.37919	-68.34828	-30.91946	-34.17414	-31.73313	0
525	-11.39138	-125.30518	-114.72747	66.72094	50.44754	-120.42316	-48.00653	-36.61515	-87.87636	-21.15542	-21.96909	-19.52808	0
526	6.50936	-125.30518	-131.81454	59.39791	67.53461	-127.74619	-43.12451	-26.85111	-85.43535	-13.83239	-17.08707	-14.64606	0
527	8.95037	-142.39225	-151.34262	66.72094	79.73966	-147.27427	-33.36047	-9.76404	-63.46626	-18.71441	-19.52808	-17.08707	0
528	8.95037	-154.5973	-163.54767	71.60296	84.62168	-159.47932	-43.12451	-14.64606	-46.37919	-28.47845	-31.73313	-26.85111	0
529	38.24249	-139.95124	-178.19373	49.63387	106.59077	-159.47932	-40.6835	-7.32303	-34.17414	-30.91946	-34.17414	-29.29212	0
530	40.6835	-139.95124	-180.63474	49.63387	109.03178	-159.47932	-55.32956	-24.4101	-61.02525	-28.47845	-31.73313	-26.85111	0
531	52.88855	-139.95124	-192.83979	42.31084	121.23683	-166.80235	-57.77057	-24.4101	-51.26121	-33.36047	-34.17414	-34.17414	0
532	45.56552	-130.1872	-175.75272	42.31084	109.03178	-152.15629	-52.88855	-17.08707	-51.26121	-35.80148	-36.61515	-34.17414	0
533	30.91946	-125.30518	-156.22464	47.19286	91.94471	-139.95124	-55.32956	-17.08707	-43.93818	-28.47845	-31.73313	-29.29212	0
534	30.91946	-115.54114	-146.4606	42.31084	87.06269	-130.1872	-55.32956	-19.52808	-51.26121	-21.15542	-24.4101	-21.96909	0
535	30.91946	-117.98215	-148.90161	42.31084	89.5037	-132.62821	-50.44754	-21.96909	-63.46626	-21.15542	-21.96909	-19.52808	0
536	26.03744	-132.62821	-158.66565	52.07488	91.94471	-144.83326	-48.00653	-26.85111	-61.02525	-28.47845	-29.29212	-26.85111	0
537	30.91946	-127.74619	-158.66565	47.19286	94.38572	-142.39225	-38.24249	-14.64606	-39.05616	-33.36047	-34.17414	-31.73313	0
538	38.24249	-122.86417	-161.10666	42.31084	99.26774	-142.39225	-45.56552	-29.29212	-24.4101	-38.24249	-39.05616	-36.61515	0
539	38.24249	-135.06922	-173.31171	47.19286	104.14976	-154.5973	-50.44754	-34.17414	-26.85111	-45.56552	-46.37919	-43.93818	0
540	33.36047	-142.39225	-175.75272	54.51589	104.14976	-159.47932	-57.77057	-48.8202	-61.02525	-48.00653	-48.8202	-48.8202	0
541	28.47845	-144.83326	-173.31171	56.9569	99.26774	-159.47932	-55.32956	-41.49717	-56.14323	-50.44754	-51.26121	-48.8202	0
542	26.03744	-135.06922	-161.10666	54.51589	91.94471	-147.27427	-50.44754	-29.29212	-61.02525	-48.00653	-46.37919	-46.37919	0
543	23.59643	-130.1872	-153.78363	52.07488	87.06269	-142.39225	-50.44754	-21.96909	-51.26121	-45.56552	-46.37919	-46.37919	0
544	30.91946	-125.30518	-156.22464	47.19286	91.94471	-139.95124	-52.88855	-14.64606	-53.70222	-40.6835	-41.49717	-41.49717	0
545	23.59643	-127.74619	-151.34262	52.07488	87.06269	-139.95124	-48.00653	-4.88202	-53.70222	-38.24249	-39.05616	-36.61515	0
546	18.71441	-135.06922	-153.78363	56.9569	84.62168	-144.83326	-50.44754	2.44101	-41.49717	-38.24249	-39.05616	-39.05616	0
547	26.03744	-144.83326	-170.8707	59.39791	96.82673	-157.03831	-50.44754	12.20505	-17.08707	-35.80148	-36.61515	-36.61515	0
548	28.47845	-142.39225	-170.8707	56.9569	99.26774	-157.03831	-65.0936	0	7.32303	-38.24249	-39.05616	-39.05616	0
549	28.47845	-149.71528	-178.19373	59.39791	101.70875	-164.36134	-67.53461	-4.88202	12.20505	-40.6835	-41.49717	-41.49717	0
550	8.95037	-159.47932	-168.42969	74.04397	87.06269	-164.36134	-74.85764	-24.4101	-19.52808	-40.6835	-43.93818	-43.93818	0
551	6.50936	-164.36134	-170.8707	78.92599	87.06269	-166.80235	-74.85764	-29.29212	-17.08707	-50.44754	-51.26121	-51.26121	0
552	8.95037	-161.92033	-170.8707	76.48498	89.5037	-166.80235	-69.97562	-34.17414	-34.17414	-48.00653	-48.8202	-48.8202	0
553	8.95037	-149.71528	-158.66565	69.16195	82.18067	-154.5973	-62.65259	-34.17414	-34.17414	-43.12451	-43.93818	-43.93818	0
554	-1.62734	-149.71528	-148.90161	74.04397	72.41663	-149.71528	-55.32956	-36.61515	-46.37919	-38.24249	-39.05616	-39.05616	0
555	-18.71441	-157.03831	-139.13757	86.24902	60.21158	-149.71528	-45.56552	-29.29212	-61.02525	-28.47845	-29.29212	-29.29212	0
556	-13.83239	-154.5973	-141.57858	83.80801	62.65259	-149.71528	-40.6835	-21.96909	-53.70222	-30.91946	-31.73313	-31.73313	0
557	-11.39138	-154.5973	-144.01959	81.367	65.0936	-149.71528	-30.91946	-7.32303	-36.61515	-33.36047	-34.17414	-31.73313	0
558	11.39138	-135.06922	-146.4606	61.83892	77.29865	-139.95124	-35.80148	-9.76404	-9.76404	-35.80148	-36.61515	-34.17414	0
559	8.95037	-139.95124	-148.90161	64.27993	77.29865	-144.83326	-35.80148	-7.32303	-4.88202	-35.80148	-36.61515	-34.17414	0
560	28.47845	-125.30518	-153.78363	47.19286	89.5037	-139.95124	-45.56552	-19.52808	-26.85111	-40.6835	-41.49717	-41.49717	0
561	43.12451	-113.10013	-156.22464	34.98781	99.26774	-135.06922	-48.00653	-19.52808	-17.08707	-45.56552	-46.37919	-46.37919	0
562	52.88855	-103.33609	-156.22464	25.22377	104.14976	-130.1872	-50.44754	-19.52808	-24.4101	-43.12451	-43.93818	-43.93818	0
563	55.32956	-96.01306	-151.34262	20.34175	101.70875	-122.86417	-52.88855	-21.96909	-21.96909	-43.12451	-43.93818	-43.93818	0
564	40.6835	-103.33609	-144.01959	30.10579	91.94471	-122.86417	-52.88855	-19.52808	-29.29212	-40.6835	-41.49717	-41.49717	0
565	33.36047	-113.10013	-146.4606	39.86983	89.5037	-130.1872	-43.12451	-14.64606	-39.05616	-45.56552	-43.93818	-43.93818	0
566	28.47845	-132.62821	-161.10666	52.07488	94.38572	-147.27427	-38.24249	-7.32303	-39.05616	-45.56552	-46.37919	-46.37919	0
567	8.95037	-152.15629	-161.10666	71.60296	84.62168	-157.03831	-26.03744	7.32303	-24.4101	-38.24249	-39.05616	-36.61515	0
568	8.95037	-154.5973	-163.54767	71.60296	84.62168	-159.47932	-26.03744	7.32303	-2.44101	-38.24249	-39.05616	-39.05616	0
569	13.83239	-166.80235	-180.63474	76.48498	96.82673	-174.12538	-28.47845	12.20505	-2.44101	-38.24249	-39.05616	-39.05616	0
570	13.83239	-166.80235	-180.63474	76.48498	96.82673	-174.12538	-38.24249	0	-31.73313	-33.36047	-34.17414	-34.17414	0
571	16.2734	-154.5973	-170.8707	69.16195	91.94471	-161.92033	-43.12451	2.44101	-21.96909	-30.91946	-29.29212	-31.73313	0
572	11.39138	-139.95124	-151.34262	64.27993	79.73966	-144.83326	-48.00653	2.44101	-26.85111	-21.15542	-19.52808	-21.96909	0
573	21.15542	-115.54114	-136.69656	47.19286	77.29865	-125.30518	-52.88855	4.88202	-19.52808	-18.71441	-17.08707	-19.52808	0
574	26.03744	-108.21811	-134.25555	39.86983	79.73966	-120.42316	-57.77057	0	-26.85111	-21.15542	-19.52808	-19.52808	0
575	35.80148	-93.57205	-129.37353	27.66478	82.18067	-110.65912	-52.88855	0	-36.61515	-21.15542	-21.96909	-19.52808	0
576	33.36047	-86.24902	-119.60949	25.22377	74.85764	-103.33609	-40.6835	4.88202	-29.29212	-23.59643	-24.4101	-21.96909	0
577	30.91946	-93.57205	-124.49151	30.10579	77.29865	-108.21811	-33.36047	12.20505	-19.52808	-26.03744	-26.85111	-24.4101	0
578	33.36047	-98.45407	-131.81454	32.5468	82.18067	-115.54114	-35.80148	4.88202	2.44101	-33.36047	-34.17414	-31.73313	0
579	40.6835	-100.89508	-141.57858	30.10579	89.5037	-120.42316	-33.36047	9.76404	4.88202	-45.56552	-46.37919	-43.93818	0
580	40.6835	-100.89508	-141.57858	30.10579	89.5037	-120.42316	-40.6835	-2.44101	-21.96909	-52.88855	-53.70222	-51.26121	0
581	26.03744	-110.65912	-136.69656	42.31084	79.73966	-122.86417	-43.12451	2.44101	-17.08707	-52.88855	-53.70222	-53.70222	0
582	-1.62734	-117.98215	-117.16848	59.39791	57.77057	-117.98215	-38.24249	12.20505	-17.08707	-60.21158	-58.58424	-58.58424	0
583	-4.06835	-130.1872	-126.93252	66.72094	60.21158	-130.1872	-48.00653	12.20505	-14.64606	-65.0936	-65.90727	-65.90727	0
584	-8.95037	-139.95124	-131.81454	74.04397	60.21158	-137.51023	-60.21158	4.88202	-29.29212	-69.97562	-70.78929	-70.78929	0
585	-18.71441	-147.27427	-129.37353	81.367	55.32956	-139.95124	-65.0936	2.44101	-46.37919	-69.97562	-68.34828	-68.34828	0
586	-26.03744	-149.71528	-124.49151	86.24902	48.00653	-137.51023	-62.65259	2.44101	-41.49717	-67.53461	-68.34828	-68.34828	0
587	-28.47845	-159.47932	-131.81454	93.57205	50.44754	-147.27427	-67.53461	0	-31.73313	-67.53461	-68.34828	-68.34828	0
588	-16.2734	-154.5973	-139.13757	83.80801	60.21158	-147.27427	-77.29865	-17.08707	-9.76404	-74.85764	-75.67131	-75.67131	0
589	-13.83239	-157.03831	-144.01959	83.80801	65.0936	-152.15629	-79.73966	-19.52808	-7.32303	-67.53461	-70.78929	-70.78929	0
590	-16.2734	-142.39225	-126.93252	78.92599	55.32956	-135.06922	-72.41663	-26.85111	-26.85111	-67.53461	-68.34828	-68.34828	0
591	-1.62734	-125.30518	-124.49151	61.83892	60.21158	-125.30518	-55.32956	-7.32303	-4.88202	-67.53461	-68.34828	-68.34828	0
592	11.39138	-120.42316	-131.81454	54.51589	69.97562	-125.30518	-45.56552	-2.44101	-9.76404	-67.53461	-68.34828	-68.34828	0
593	28.47845	-105.7771	-134.25555	37.42882	79.73966	-120.42316	-38.24249	-2.44101	-9.76404	-74.85764	-75.67131	-75.67131	0
594	26.03744	-96.01306	-122.0505	34.98781	72.41663	-108.21811	-26.03744	7.32303	-19.52808	-82.18067	-85.43535	-82.99434	0
595	30.91946	-88.69003	-119.60949	27.66478	74.85764	-103.33609	-21.15542	12.20505	-36.61515	-87.06269	-87.87636	-85.43535	0
596	45.56552	-74.04397	-119.60949	14.64606	82.18067	-96.01306	-18.71441	17.08707	-36.61515	-82.18067	-82.99434	-80.55333	0
597	35.80148	-86.24902	-122.0505	25.22377	77.29865	-103.33609	-26.03744	17.08707	-31.73313	-79.73966	-80.55333	-78.11232	0
598	33.36047	-93.57205	-126.93252	30.10579	79.73966	-110.65912	-48.00653	0	-14.64606	-79.73966	-80.55333	-78.11232	0
599	33.36047	-96.01306	-129.37353	30.10579	79.73966	-113.10013	-52.88855	0	-7.32303	-69.97562	-70.78929	-68.34828	0
600	21.15542	-91.13104	-112.28646	34.98781	65.0936	-100.89508	-60.21158	-9.76404	-26.85111	-60.21158	-58.58424	-58.58424	0
601	26.03744	-86.24902	-112.28646	30.10579	67.53461	-98.45407	-60.21158	-9.76404	-14.64606	-45.56552	-46.37919	-46.37919	0
602	28.47845	-91.13104	-119.60949	30.10579	72.41663	-105.7771	-62.65259	-14.64606	-21.96909	-35.80148	-36.61515	-36.61515	0
603	40.6835	-86.24902	-126.93252	22.78276	82.18067	-105.7771	-62.65259	-19.52808	-19.52808	-43.12451	-41.49717	-43.93818	0
604	38.24249	-71.60296	-109.84545	14.64606	72.41663	-91.13104	-55.32956	-17.08707	-24.4101	-45.56552	-46.37919	-46.37919	0
605	35.80148	-52.07488	-87.87636	7.32303	60.21158	-69.16195	-40.6835	-7.32303	-29.29212	-43.12451	-41.49717	-43.93818	0
606	16.2734	-49.63387	-65.90727	14.64606	40.6835	-56.9569	-26.03744	4.88202	-19.52808	-38.24249	-39.05616	-39.05616	0
607	8.95037	-66.72094	-75.67131	27.66478	40.6835	-71.60296	-28.47845	7.32303	-14.64606	-43.12451	-41.49717	-41.49717	0
608	26.03744	-49.63387	-75.67131	12.20505	50.44754	-61.83892	-28.47845	9.76404	12.20505	-60.21158	-61.02525	-61.02525	0
609	30.91946	-47.19286	-78.11232	7.32303	52.88855	-61.83892	-18.71441	20.34175	21.96909	-69.97562	-68.34828	-70.78929	0
610	35.80148	-44.75185	-80.55333	4.88202	57.77057	-61.83892	-16.2734	17.08707	4.88202	-67.53461	-68.34828	-68.34828	0
611	48.00653	-52.07488	-100.08141	2.44101	72.41663	-76.48498	-13.83239	25.22377	17.08707	-65.0936	-68.34828	-68.34828	0
612	52.88855	-71.60296	-124.49151	9.76404	87.06269	-98.45407	-21.15542	17.08707	4.88202	-67.53461	-70.78929	-70.78929	0
613	72.41663	-69.16195	-141.57858	-2.44101	106.59077	-105.7771	-26.03744	17.08707	2.44101	-72.41663	-73.2303	-75.67131	0
614	87.06269	-59.39791	-146.4606	-14.64606	116.35481	-103.33609	-21.15542	20.34175	-2.44101	-52.88855	-53.70222	-53.70222	0
615	77.29865	-59.39791	-136.69656	-9.76404	106.59077	-98.45407	-16.2734	22.78276	-7.32303	-38.24249	-39.05616	-39.05616	0
616	84.62168	-49.63387	-134.25555	-17.08707	109.03178	-91.13104	-6.50936	32.5468	4.88202	-30.91946	-34.17414	-31.73313	0
617	79.73966	-59.39791	-139.13757	-9.76404	109.03178	-98.45407	-6.50936	34.98781	12.20505	-28.47845	-29.29212	-26.85111	0
618	77.29865	-49.63387	-126.93252	-14.64606	101.70875	-88.69003	-11.39138	30.10579	37.42882	-26.03744	-29.29212	-26.85111	0
619	91.94471	-44.75185	-136.69656	-24.4101	113.9138	-91.13104	-8.95037	37.42882	42.31084	-21.15542	-21.96909	-21.96909	0
620	84.62168	-54.51589	-139.13757	-14.64606	111.47279	-96.01306	-18.71441	25.22377	19.52808	-23.59643	-24.4101	-24.4101	0
621	89.5037	-64.27993	-153.78363	-12.20505	121.23683	-108.21811	-28.47845	20.34175	21.96909	-28.47845	-29.29212	-29.29212	0
622	60.21158	-93.57205	-153.78363	14.64606	106.59077	-122.86417	-40.6835	12.20505	4.88202	-30.91946	-31.73313	-31.73313	0
623	23.59643	-127.74619	-151.34262	52.07488	87.06269	-139.95124	-57.77057	-2.44101	-4.88202	-23.59643	-26.85111	-26.85111	0
624	23.59643	-142.39225	-165.98868	59.39791	94.38572	-154.5973	-67.53461	-12.20505	-21.96909	-21.15542	-21.96909	-21.96909	0
625	13.83239	-154.5973	-168.42969	69.16195	89.5037	-161.92033	-72.41663	-17.08707	-36.61515	-26.03744	-26.85111	-26.85111	0
626	16.2734	-144.83326	-161.10666	64.27993	87.06269	-152.15629	-65.0936	-7.32303	-21.96909	-26.03744	-29.29212	-26.85111	0
627	16.2734	-144.83326	-161.10666	64.27993	87.06269	-152.15629	-50.44754	4.88202	-2.44101	-28.47845	-29.29212	-26.85111	0
628	30.91946	-132.62821	-163.54767	49.63387	96.82673	-147.27427	-50.44754	-2.44101	21.96909	-33.36047	-34.17414	-34.17414	0
629	69.97562	-108.21811	-178.19373	17.90074	123.67784	-142.39225	-40.6835	4.88202	27.66478	-28.47845	-29.29212	-26.85111	0
630	82.18067	-83.80801	-165.98868	0	123.67784	-125.30518	-35.80148	0	2.44101	-33.36047	-34.17414	-34.17414	0
631	77.29865	-74.04397	-151.34262	-2.44101	113.9138	-113.10013	-26.03744	12.20505	4.88202	-28.47845	-31.73313	-29.29212	0
632	77.29865	-56.9569	-134.25555	-9.76404	104.14976	-96.01306	-21.15542	17.08707	-7.32303	-18.71441	-21.96909	-19.52808	0
633	74.85764	-49.63387	-124.49151	-12.20505	99.26774	-86.24902	-28.47845	17.08707	-12.20505	-16.2734	-17.08707	-17.08707	0
634	65.0936	-42.31084	-107.40444	-12.20505	84.62168	-74.04397	-30.91946	17.08707	-21.96909	-11.39138	-12.20505	-12.20505	0
635	40.6835	-47.19286	-87.87636	2.44101	62.65259	-66.72094	-30.91946	20.34175	-24.4101	-11.39138	-12.20505	-12.20505	0
636	26.03744	-49.63387	-75.67131	12.20505	50.44754	-61.83892	-28.47845	27.66478	-2.44101	-6.50936	-7.32303	-4.88202	0
637	21.15542	-52.07488	-73.2303	14.64606	45.56552	-61.83892	-30.91946	27.66478	17.08707	-4.06835	-2.44101	-2.44101	0
638	13.83239	-66.72094	-80.55333	25.22377	45.56552	-74.04397	-45.56552	9.76404	39.86983	-11.39138	-12.20505	-12.20505	0
639	-13.83239	-96.01306	-82.99434	54.51589	33.36047	-91.13104	-50.44754	2.44101	37.42882	-11.39138	-12.20505	-12.20505	0
640	-33.36047	-122.86417	-90.31737	76.48498	28.47845	-108.21811	-65.0936	-21.96909	-4.88202	-8.95037	-7.32303	-7.32303	0
641	-35.80148	-127.74619	-92.75838	81.367	28.47845	-110.65912	-65.0936	-19.52808	-9.76404	-4.06835	-2.44101	-2.44101	0
642	-45.56552	-139.95124	-95.19939	91.13104	23.59643	-117.98215	-69.97562	-24.4101	-31.73313	0.81367	0	0	0
643	-48.00653	-135.06922	-87.87636	91.13104	18.71441	-113.10013	-74.85764	-26.85111	-31.73313	4.06835	3.25468	3.25468	0
644	-45.56552	-130.1872	-85.43535	86.24902	18.71441	-108.21811	-74.85764	-26.85111	-31.73313	8.95037	8.1367	8.1367	0
645	-28.47845	-113.10013	-85.43535	69.16195	28.47845	-100.89508	-69.97562	-21.96909	-21.96909	11.39138	10.57771	13.01872	0
646	-21.15542	-98.45407	-78.11232	59.39791	28.47845	-88.69003	-67.53461	-14.64606	7.32303	13.83239	13.01872	15.45973	0
647	-38.24249	-105.7771	-68.34828	71.60296	13.01872	-88.69003	-65.0936	-9.76404	27.66478	8.95037	8.1367	10.57771	0
648	-28.47845	-93.57205	-65.90727	59.39791	18.71441	-81.367	-74.85764	-19.52808	56.9569	4.06835	3.25468	3.25468	0
649	-4.06835	-91.13104	-87.87636	47.19286	40.6835	-91.13104	-77.29865	-19.52808	54.51589	6.50936	3.25468	3.25468	0
650	-13.83239	-100.89508	-87.87636	56.9569	35.80148	-96.01306	-87.06269	-31.73313	14.64606	11.39138	10.57771	10.57771	0
651	-33.36047	-110.65912	-78.11232	71.60296	21.15542	-96.01306	-89.5037	-31.73313	2.44101	8.95037	8.1367	8.1367	0
652	-40.6835	-98.45407	-58.58424	69.16195	8.1367	-78.92599	-84.62168	-29.29212	-17.08707	13.83239	13.01872	13.01872	0
653	-8.95037	-74.04397	-65.90727	39.86983	28.47845	-71.60296	-82.18067	-26.85111	-21.96909	18.71441	17.90074	17.90074	0
654	-8.95037	-74.04397	-65.90727	39.86983	28.47845	-71.60296	-79.73966	-24.4101	-34.17414	30.91946	27.66478	27.66478	0
655	-11.39138	-78.92599	-68.34828	44.75185	28.47845	-74.04397	-79.73966	-21.96909	-39.05616	26.03744	22.78276	25.22377	0
656	-16.2734	-78.92599	-63.46626	47.19286	23.59643	-71.60296	-74.85764	-14.64606	-17.08707	23.59643	20.34175	22.78276	0
657	-11.39138	-83.80801	-73.2303	47.19286	30.91946	-78.92599	-82.18067	-19.52808	-7.32303	13.83239	10.57771	13.01872	0
658	6.50936	-88.69003	-95.19939	39.86983	50.44754	-91.13104	-99.26774	-41.49717	12.20505	0.81367	0	0	0
659	-8.95037	-117.98215	-109.84545	61.83892	50.44754	-115.54114	-109.03178	-53.70222	-2.44101	-1.62734	-4.88202	-4.88202	0
660	-6.50936	-120.42316	-114.72747	61.83892	52.88855	-117.98215	-113.9138	-75.67131	-48.8202	-6.50936	-4.88202	-7.32303	0
661	18.71441	-98.45407	-117.16848	39.86983	67.53461	-108.21811	-101.70875	-75.67131	-61.02525	-1.62734	-2.44101	-4.88202	0
662	28.47845	-88.69003	-117.16848	30.10579	72.41663	-103.33609	-91.94471	-75.67131	-95.19939	4.06835	3.25468	0	0
663	57.77057	-74.04397	-131.81454	7.32303	94.38572	-103.33609	-77.29865	-73.2303	-107.40444	13.83239	15.45973	15.45973	0
664	89.5037	-44.75185	-134.25555	-21.96909	111.47279	-88.69003	-43.12451	-48.8202	-112.28646	28.47845	30.10579	30.10579	0
665	128.55986	-2.44101	-131.81454	-63.46626	131.00087	-66.72094	-6.50936	-19.52808	-97.6404	48.00653	49.63387	49.63387	0
666	189.58511	53.70222	-136.69656	-122.0505	162.734	-42.31084	33.36047	14.64606	-58.58424	52.88855	54.51589	54.51589	0
667	265.25642	117.16848	-148.90161	-190.39878	206.67218	-14.64606	74.85764	37.42882	-26.85111	52.88855	54.51589	54.51589	0
668	350.69177	202.60383	-148.90161	-275.83413	250.61036	26.85111	116.35481	52.07488	12.20505	45.56552	47.19286	47.19286	0
669	431.2451	305.12625	-126.93252	-368.59251	279.90248	90.31737	187.1441	86.24902	21.96909	43.12451	42.31084	42.31084	0
670	509.35742	417.41271	-92.75838	-463.7919	301.87157	163.54767	255.49238	110.65912	-2.44101	38.24249	39.86983	39.86983	0
671	575.26469	515.05311	-61.02525	-544.34523	318.95864	227.01393	326.28167	149.71528	-4.88202	38.24249	39.86983	39.86983	0
672	609.43883	605.37048	-4.06835	-607.81149	306.75359	300.24423	399.51197	196.09447	-12.20505	33.36047	34.98781	34.98781	0
673	606.99782	698.12886	91.13104	-651.74967	257.93339	395.44362	475.18328	259.56073	25.22377	33.36047	34.98781	37.42882	0
674	560.61863	759.15411	198.53548	-659.0727	182.26208	478.43796	543.53156	327.90901	81.367	30.91946	34.98781	37.42882	0
675	480.0653	803.09229	323.02699	-641.98563	79.73966	563.87331	592.35176	393.81628	157.03831	26.03744	27.66478	30.10579	0
676	394.62995	839.70744	445.07749	-617.57553	-26.03744	641.98563	624.08489	452.40052	259.56073	23.59643	25.22377	27.66478	0
677	314.07662	886.08663	572.01001	-600.48846	-128.55986	729.86199	643.61297	496.3387	354.76012	13.83239	15.45973	17.90074	0
678	231.08228	903.1737	672.09142	-566.31432	-221.31824	788.44623	631.40792	506.10274	435.31345	8.95037	8.1367	10.57771	0
679	133.44188	864.11754	730.67566	-497.96604	-299.43056	798.21027	604.55681	506.10274	452.40052	8.95037	8.1367	8.1367	0
680	60.21158	798.21027	737.99869	-429.61776	-338.48672	768.91815	538.64954	459.72355	393.81628	11.39138	8.1367	8.1367	0
681	13.83239	710.33391	696.50152	-361.26948	-340.92773	703.01088	462.97823	413.34436	344.99608	13.83239	10.57771	10.57771	0
682	-28.47845	612.69351	640.35829	-292.9212	-333.6047	624.89856	382.4249	362.08315	276.6478	21.15542	20.34175	17.90074	0
683	-79.73966	485.76099	564.68698	-202.60383	-321.39965	524.81715	294.54854	303.49891	227.8276	23.59643	22.78276	22.78276	0
684	-106.59077	371.03352	476.81062	-131.81454	-292.10753	422.29473	221.31824	257.11972	188.77144	28.47845	27.66478	27.66478	0
685	-109.03178	292.9212	401.13931	-92.75838	-255.49238	346.62342	155.41097	215.62255	169.24336	23.59643	25.22377	25.22377	0
686	-87.06269	234.33696	320.58598	-73.2303	-204.23117	275.83413	96.82673	179.0074	181.44841	18.71441	17.90074	20.34175	0
687	-77.29865	175.75272	252.2377	-48.8202	-165.17501	212.36787	48.00653	139.95124	183.88942	13.83239	13.01872	15.45973	0
688	-82.18067	126.93252	208.29952	-21.96909	-145.64693	165.98868	3.25468	93.57205	196.09447	0.81367	0	3.25468	0
689	-77.29865	87.87636	164.36134	-4.88202	-121.23683	124.49151	-21.15542	61.83892	169.24336	-6.50936	-9.76404	-7.32303	0
690	-89.5037	41.49717	130.1872	22.78276	-109.03178	85.43535	-52.88855	20.34175	98.45407	-8.95037	-12.20505	-9.76404	0
691	-101.70875	-2.44101	98.45407	52.07488	-99.26774	46.37919	-69.97562	2.44101	61.83892	-13.83239	-14.64606	-14.64606	0
692	-113.9138	-34.98781	78.92599	74.04397	-96.82673	21.96909	-79.73966	-12.20505	14.64606	-18.71441	-19.52808	-19.52808	0
693	-133.44188	-52.07488	81.367	91.13104	-109.03178	14.64606	-74.85764	-12.20505	-2.44101	-18.71441	-19.52808	-19.52808	0
694	-131.00087	-49.63387	81.367	88.69003	-106.59077	14.64606	-60.21158	0	-14.64606	-18.71441	-19.52808	-19.52808	0
695	-101.70875	-42.31084	59.39791	71.60296	-82.18067	7.32303	-52.88855	7.32303	-17.08707	-16.2734	-17.08707	-14.64606	0
696	-89.5037	-42.31084	47.19286	64.27993	-69.97562	2.44101	-48.00653	17.08707	4.88202	-21.15542	-21.96909	-19.52808	0
697	-67.53461	-30.10579	37.42882	47.19286	-52.88855	2.44101	-40.6835	25.22377	21.96909	-21.15542	-21.96909	-19.52808	0
698	-72.41663	-24.4101	47.19286	47.19286	-60.21158	9.76404	-45.56552	20.34175	59.39791	-21.15542	-21.96909	-19.52808	0
699	-69.97562	-19.52808	49.63387	44.75185	-60.21158	14.64606	-45.56552	20.34175	66.72094	-16.2734	-17.08707	-17.08707	0
700	-62.65259	-9.76404	52.07488	34.98781	-57.77057	19.52808	-55.32956	2.44101	37.42882	-8.95037	-12.20505	-9.76404	0
701	-72.41663	-21.96909	49.63387	47.19286	-60.21158	12.20505	-62.65259	0	34.98781	-13.83239	-14.64606	-14.64606	0
702	-74.85764	-21.96909	52.07488	47.19286	-62.65259	14.64606	-65.0936	0	19.52808	-8.95037	-9.76404	-9.76404	0
703	-74.85764	-19.52808	54.51589	47.19286	-65.0936	17.08707	-69.97562	-2.44101	14.64606	-8.95037	-9.76404	-9.76404	0
704	-79.73966	-34.98781	44.75185	56.9569	-62.65259	4.88202	-74.85764	-7.32303	-7.32303	-8.95037	-9.76404	-9.76404	0
705	-84.62168	-37.42882	47.19286	59.39791	-67.53461	4.88202	-74.85764	-2.44101	-19.52808	-8.95037	-7.32303	-7.32303	0
706	-106.59077	-52.07488	54.51589	78.92599	-82.18067	0	-69.97562	9.76404	-4.88202	-4.06835	-4.88202	-2.44101	0
707	-101.70875	-44.75185	56.9569	71.60296	-79.73966	4.88202	-67.53461	17.08707	7.32303	8.95037	8.1367	10.57771	0
708	-82.18067	-34.98781	47.19286	56.9569	-65.0936	4.88202	-77.29865	7.32303	37.42882	18.71441	17.90074	20.34175	0
709	-89.5037	-44.75185	44.75185	66.72094	-67.53461	0	-79.73966	4.88202	42.31084	33.36047	32.5468	32.5468	0
710	-87.06269	-37.42882	49.63387	61.83892	-69.97562	4.88202	-84.62168	-14.64606	21.96909	40.6835	39.86983	39.86983	0
711	-77.29865	-34.98781	42.31084	54.51589	-60.21158	2.44101	-84.62168	-19.52808	32.5468	40.6835	39.86983	39.86983	0
712	-79.73966	-44.75185	34.98781	61.83892	-57.77057	-4.88202	-84.62168	-26.85111	19.52808	45.56552	44.75185	44.75185	0
713	-77.29865	-47.19286	30.10579	61.83892	-55.32956	-9.76404	-87.06269	-36.61515	12.20505	38.24249	37.42882	39.86983	0
714	-94.38572	-54.51589	39.86983	74.04397	-67.53461	-7.32303	-82.18067	-36.61515	-9.76404	33.36047	32.5468	32.5468	0
715	-96.82673	-42.31084	54.51589	69.16195	-77.29865	4.88202	-72.41663	-24.4101	-17.08707	21.15542	22.78276	22.78276	0
716	-109.03178	-32.5468	76.48498	69.16195	-94.38572	21.96909	-57.77057	-4.88202	2.44101	16.2734	15.45973	17.90074	0
717	-104.14976	-30.10579	74.04397	66.72094	-89.5037	21.96909	-57.77057	2.44101	7.32303	16.2734	15.45973	17.90074	0
718	-96.82673	-21.96909	74.04397	59.39791	-84.62168	24.4101	-65.0936	0	37.42882	0.81367	0	3.25468	0
719	-84.62168	-7.32303	76.48498	44.75185	-79.73966	34.17414	-57.77057	14.64606	52.07488	-4.06835	-4.88202	-4.88202	0
720	-82.18067	7.32303	88.69003	37.42882	-84.62168	46.37919	-57.77057	12.20505	39.86983	-13.83239	-14.64606	-14.64606	0
721	-96.82673	4.88202	100.89508	44.75185	-99.26774	51.26121	-55.32956	20.34175	56.9569	-11.39138	-12.20505	-12.20505	0
722	-96.82673	2.44101	98.45407	47.19286	-96.82673	48.8202	-55.32956	17.08707	42.31084	-11.39138	-12.20505	-12.20505	0
723	-99.26774	-2.44101	96.01306	49.63387	-96.82673	46.37919	-62.65259	12.20505	42.31084	-11.39138	-12.20505	-12.20505	0
724	-101.70875	2.44101	103.33609	49.63387	-101.70875	51.26121	-60.21158	7.32303	27.66478	-8.95037	-7.32303	-7.32303	0
725	-106.59077	-4.88202	100.89508	54.51589	-104.14976	46.37919	-65.0936	-2.44101	9.76404	-1.62734	-2.44101	0	0
726	-111.47279	-14.64606	96.01306	61.83892	-104.14976	39.05616	-62.65259	2.44101	17.08707	0.81367	0	3.25468	0
727	-104.14976	-9.76404	93.57205	56.9569	-99.26774	41.49717	-57.77057	9.76404	21.96909	0.81367	0	0	0
728	-109.03178	-19.52808	88.69003	64.27993	-99.26774	34.17414	-74.85764	-2.44101	49.63387	-8.95037	-9.76404	-9.76404	0
729	-111.47279	-30.10579	81.367	69.16195	-96.82673	24.4101	-79.73966	-4.88202	49.63387	-8.95037	-9.76404	-9.76404	0
730	-109.03178	-30.10579	78.92599	69.16195	-94.38572	24.4101	-89.5037	-17.08707	21.96909	-8.95037	-9.76404	-9.76404	0
731	-104.14976	-26.85111	76.48498	64.27993	-89.5037	24.4101	-89.5037	-12.20505	30.10579	-4.06835	-4.88202	-4.88202	0
732	-104.14976	-24.4101	78.92599	64.27993	-91.94471	26.85111	-89.5037	-14.64606	19.52808	-6.50936	-7.32303	-7.32303	0
733	-101.70875	-21.96909	78.92599	61.83892	-89.5037	26.85111	-89.5037	-19.52808	19.52808	-11.39138	-12.20505	-12.20505	0
734	-111.47279	-17.08707	93.57205	64.27993	-101.70875	36.61515	-79.73966	-14.64606	2.44101	-1.62734	-2.44101	-2.44101	0
735	-123.67784	-9.76404	113.10013	66.72094	-118.79582	51.26121	-65.0936	-7.32303	-7.32303	-1.62734	-2.44101	-2.44101	0
736	-131.00087	-14.64606	115.54114	71.60296	-123.67784	48.8202	-52.88855	7.32303	9.76404	-6.50936	-4.88202	-4.88202	0
737	-133.44188	-2.44101	130.1872	66.72094	-131.00087	63.46626	-35.80148	25.22377	21.96909	-8.95037	-7.32303	-7.32303	0
738	-123.67784	9.76404	132.62821	56.9569	-128.55986	70.78929	-33.36047	30.10579	61.83892	-18.71441	-17.08707	-17.08707	0
739	-128.55986	17.08707	144.83326	54.51589	-135.88289	80.55333	-26.03744	37.42882	74.04397	-8.95037	-4.88202	-7.32303	0
740	-128.55986	21.96909	149.71528	52.07488	-138.3239	85.43535	-35.80148	22.78276	47.19286	-6.50936	-2.44101	-4.88202	0
741	-106.59077	21.96909	127.74619	42.31084	-116.35481	73.2303	-48.00653	12.20505	47.19286	0.81367	0	0	0
742	-84.62168	39.05616	122.86417	22.78276	-104.14976	80.55333	-52.88855	9.76404	37.42882	13.83239	15.45973	15.45973	0
743	-72.41663	53.70222	125.30518	9.76404	-99.26774	87.87636	-55.32956	9.76404	42.31084	28.47845	30.10579	27.66478	0
744	-87.06269	34.17414	120.42316	25.22377	-104.14976	75.67131	-62.65259	0	17.08707	35.80148	37.42882	34.98781	0
745	-104.14976	17.08707	120.42316	42.31084	-111.47279	68.34828	-67.53461	-4.88202	-4.88202	38.24249	39.86983	39.86983	0
746	-121.23683	-2.44101	117.98215	61.83892	-118.79582	56.14323	-65.0936	0	4.88202	40.6835	42.31084	42.31084	0
747	-133.44188	-4.88202	127.74619	69.16195	-131.00087	61.02525	-55.32956	12.20505	14.64606	43.12451	44.75185	47.19286	0
748	-140.76491	7.32303	147.27427	66.72094	-143.20592	75.67131	-45.56552	22.78276	59.39791	35.80148	34.98781	37.42882	0
749	-145.64693	14.64606	159.47932	64.27993	-152.96996	85.43535	-35.80148	32.5468	78.92599	28.47845	27.66478	30.10579	0
750	-148.08794	31.73313	179.0074	56.9569	-162.734	104.96343	-40.6835	25.22377	66.72094	16.2734	15.45973	17.90074	0
751	-126.11885	56.14323	181.44841	34.98781	-152.96996	117.16848	-35.80148	27.66478	88.69003	8.95037	10.57771	10.57771	0
752	-104.14976	78.11232	181.44841	12.20505	-143.20592	129.37353	-33.36047	25.22377	83.80801	4.06835	5.69569	3.25468	0
753	-96.82673	92.75838	188.77144	2.44101	-143.20592	139.13757	-30.91946	22.78276	91.13104	4.06835	3.25468	3.25468	0
754	-89.5037	92.75838	181.44841	-2.44101	-135.88289	136.69656	-28.47845	20.34175	69.16195	8.95037	8.1367	8.1367	0
755	-94.38572	78.11232	171.68437	7.32303	-133.44188	124.49151	-30.91946	9.76404	44.75185	16.2734	15.45973	17.90074	0
756	-96.82673	68.34828	164.36134	14.64606	-131.00087	114.72747	-26.03744	14.64606	44.75185	18.71441	20.34175	22.78276	0
757	-101.70875	63.46626	164.36134	17.90074	-133.44188	112.28646	-23.59643	14.64606	34.98781	26.03744	25.22377	27.66478	0
758	-106.59077	68.34828	174.12538	17.90074	-140.76491	119.60949	-33.36047	7.32303	64.27993	26.03744	27.66478	27.66478	0
759	-113.9138	65.90727	179.0074	22.78276	-145.64693	122.0505	-33.36047	14.64606	69.16195	26.03744	27.66478	27.66478	0
760	-118.79582	73.2303	191.21245	22.78276	-155.41097	131.81454	-43.12451	0	47.19286	23.59643	22.78276	22.78276	0
761	-113.9138	95.19939	208.29952	9.76404	-160.29299	151.34262	-38.24249	9.76404	69.16195	21.15542	22.78276	22.78276	0
762	-121.23683	109.84545	230.26861	4.88202	-174.93905	168.42969	-30.91946	14.64606	66.72094	23.59643	25.22377	22.78276	0
763	-121.23683	126.93252	247.35568	-2.44101	-184.70309	185.51676	-23.59643	17.08707	76.48498	21.15542	20.34175	20.34175	0
764	-118.79582	136.69656	254.67871	-9.76404	-187.1441	195.2808	-4.06835	32.5468	64.27993	21.15542	20.34175	20.34175	0
765	-123.67784	146.4606	269.32477	-12.20505	-196.90814	207.48585	8.1367	42.31084	52.07488	26.03744	25.22377	25.22377	0
766	-118.79582	156.22464	274.20679	-19.52808	-196.90814	214.80888	23.59643	61.83892	64.27993	28.47845	27.66478	30.10579	0
767	-109.03178	173.31171	281.52982	-31.73313	-194.46713	227.01393	35.80148	74.04397	66.72094	30.91946	30.10579	32.5468	0
768	-96.82673	185.51676	281.52982	-43.93818	-189.58511	231.89595	28.47845	69.16195	96.01306	16.2734	15.45973	17.90074	0
769	-91.94471	183.07575	274.20679	-46.37919	-182.26208	227.01393	30.91946	71.60296	98.45407	16.2734	13.01872	15.45973	0
770	-94.38572	187.95777	281.52982	-46.37919	-187.1441	234.33696	21.15542	54.51589	76.48498	16.2734	15.45973	17.90074	0
771	-96.82673	195.2808	291.29386	-48.8202	-194.46713	241.65999	21.15542	54.51589	93.57205	18.71441	17.90074	17.90074	0
772	-87.06269	207.48585	293.73487	-61.02525	-189.58511	248.98302	23.59643	52.07488	86.24902	8.95037	10.57771	10.57771	0
773	-87.06269	212.36787	298.61689	-63.46626	-192.02612	253.86504	26.03744	52.07488	93.57205	0.81367	0	0	0
774	-94.38572	207.48585	301.0579	-56.14323	-196.90814	253.86504	33.36047	54.51589	74.04397	6.50936	8.1367	8.1367	0
775	-89.5037	222.13191	310.82194	-65.90727	-199.34915	266.07009	35.80148	56.9569	61.83892	11.39138	10.57771	13.01872	0
776	-84.62168	236.77797	320.58598	-75.67131	-201.79016	278.27514	48.00653	74.04397	81.367	4.06835	0	3.25468	0
777	-87.06269	241.65999	327.90901	-78.11232	-206.67218	283.15716	52.88855	81.367	81.367	0.81367	0	0	0
778	-74.85764	256.30605	330.35002	-90.31737	-201.79016	292.9212	48.00653	78.92599	115.54114	-8.95037	-9.76404	-9.76404	0
779	-69.97562	266.07009	335.23204	-97.6404	-201.79016	300.24423	48.00653	83.80801	130.1872	-4.06835	-4.88202	-2.44101	0
780	-60.21158	278.27514	337.67305	-109.84545	-199.34915	307.56726	35.80148	66.72094	113.10013	0.81367	0	0	0
781	-52.88855	278.27514	330.35002	-112.28646	-192.02612	302.68524	33.36047	66.72094	127.74619	0.81367	0	0	0
782	-57.77057	270.95211	327.90901	-107.40444	-192.02612	297.80322	38.24249	64.27993	120.42316	18.71441	17.90074	17.90074	0
783	-48.00653	268.5111	315.70396	-109.84545	-182.26208	290.48019	38.24249	61.83892	120.42316	28.47845	27.66478	27.66478	0
784	-40.6835	268.5111	308.38093	-114.72747	-174.93905	288.03918	48.00653	66.72094	100.89508	30.91946	32.5468	32.5468	0
785	-48.00653	261.18807	308.38093	-107.40444	-177.38006	283.15716	52.88855	59.39791	78.92599	33.36047	34.98781	34.98781	0
786	-43.12451	268.5111	310.82194	-112.28646	-177.38006	288.03918	69.97562	71.60296	88.69003	38.24249	37.42882	37.42882	0
787	-50.44754	278.27514	327.90901	-114.72747	-189.58511	302.68524	82.18067	81.367	88.69003	28.47845	30.10579	30.10579	0
788	-50.44754	295.36221	344.99608	-122.0505	-196.90814	319.77231	84.62168	78.92599	120.42316	18.71441	17.90074	17.90074	0
789	-48.00653	292.9212	340.11406	-122.0505	-194.46713	314.89029	84.62168	74.04397	117.98215	16.2734	15.45973	15.45973	0
790	-57.77057	285.59817	342.55507	-114.72747	-199.34915	312.44928	74.85764	54.51589	86.24902	23.59643	22.78276	22.78276	0
791	-52.88855	285.59817	337.67305	-117.16848	-194.46713	310.00827	77.29865	54.51589	93.57205	26.03744	25.22377	25.22377	0
792	-45.56552	283.15716	327.90901	-119.60949	-187.1441	305.12625	79.73966	54.51589	76.48498	26.03744	22.78276	22.78276	0
793	-26.03744	288.03918	313.26295	-131.81454	-170.05703	300.24423	82.18067	54.51589	71.60296	23.59643	22.78276	22.78276	0
794	-8.95037	275.83413	283.97083	-134.25555	-145.64693	278.27514	87.06269	59.39791	47.19286	30.91946	27.66478	30.10579	0
795	4.06835	275.83413	271.76578	-139.13757	-133.44188	273.39312	91.94471	64.27993	37.42882	28.47845	27.66478	30.10579	0
796	11.39138	283.15716	271.76578	-146.4606	-131.00087	278.27514	109.03178	86.24902	61.83892	23.59643	22.78276	25.22377	0
797	16.2734	285.59817	269.32477	-151.34262	-126.11885	278.27514	116.35481	96.01306	66.72094	26.03744	25.22377	27.66478	0
798	28.47845	295.36221	266.88376	-161.10666	-118.79582	280.71615	111.47279	93.57205	100.89508	21.15542	22.78276	22.78276	0
799	21.15542	275.83413	254.67871	-148.90161	-116.35481	266.07009	106.59077	88.69003	100.89508	21.15542	22.78276	22.78276	0
800	1.62734	248.98302	247.35568	-124.49151	-123.67784	248.98302	91.94471	66.72094	66.72094	18.71441	17.90074	17.90074	0
801	-6.50936	231.89595	237.59164	-112.28646	-121.23683	234.33696	87.06269	66.72094	74.04397	13.83239	15.45973	15.45973	0
802	-6.50936	212.36787	218.06356	-102.52242	-111.47279	214.80888	79.73966	64.27993	56.9569	13.83239	15.45973	15.45973	0
803	13.83239	202.60383	188.77144	-107.40444	-87.06269	195.2808	69.97562	59.39791	56.9569	13.83239	15.45973	15.45973	0
804	30.91946	183.07575	152.15629	-107.40444	-60.21158	168.42969	72.41663	64.27993	42.31084	8.95037	10.57771	13.01872	0
805	23.59643	156.22464	132.62821	-90.31737	-55.32956	144.01959	69.97562	61.83892	32.5468	21.15542	20.34175	22.78276	0
806	21.15542	139.13757	117.98215	-80.55333	-48.00653	129.37353	69.97562	69.16195	49.63387	30.91946	30.10579	32.5468	0
807	26.03744	131.81454	105.7771	-78.11232	-40.6835	119.60949	67.53461	66.72094	44.75185	35.80148	34.98781	37.42882	0
808	33.36047	114.72747	81.367	-73.2303	-23.59643	97.6404	50.44754	47.19286	69.16195	35.80148	32.5468	34.98781	0
809	26.03744	97.6404	71.60296	-61.02525	-23.59643	85.43535	45.56552	39.86983	64.27993	38.24249	37.42882	39.86983	0
810	8.95037	82.99434	74.04397	-46.37919	-33.36047	78.11232	23.59643	9.76404	21.96909	40.6835	42.31084	42.31084	0
811	6.50936	73.2303	66.72094	-39.05616	-30.91946	70.78929	11.39138	-2.44101	17.08707	45.56552	44.75185	44.75185	0
812	6.50936	68.34828	61.83892	-36.61515	-28.47845	65.90727	5.69569	-9.76404	0	50.44754	49.63387	49.63387	0
813	6.50936	56.14323	49.63387	-31.73313	-21.15542	53.70222	-1.62734	-17.08707	-2.44101	50.44754	49.63387	49.63387	0
814	-1.62734	31.73313	32.5468	-14.64606	-16.2734	31.73313	-1.62734	-21.96909	-26.85111	55.32956	56.9569	56.9569	0
815	-1.62734	14.64606	15.45973	-7.32303	-8.95037	14.64606	-4.06835	-24.4101	-41.49717	52.88855	52.07488	52.07488	0
816	11.39138	0	-11.39138	-4.88202	10.57771	-4.88202	0.81367	-14.64606	-29.29212	40.6835	39.86983	42.31084	0
817	11.39138	-17.08707	-29.29212	2.44101	21.15542	-21.96909	3.25468	-9.76404	-31.73313	26.03744	25.22377	27.66478	0
818	16.2734	-19.52808	-36.61515	2.44101	26.03744	-26.85111	-4.06835	-9.76404	0	6.50936	5.69569	8.1367	0
819	28.47845	-21.96909	-51.26121	-2.44101	40.6835	-37.42882	-6.50936	-9.76404	-2.44101	-16.2734	-17.08707	-14.64606	0
820	18.71441	-30.10579	-48.8202	4.88202	33.36047	-39.86983	-21.15542	-24.4101	-31.73313	-28.47845	-29.29212	-26.85111	0
821	21.15542	-32.5468	-53.70222	4.88202	35.80148	-42.31084	-26.03744	-24.4101	-21.96909	-38.24249	-39.05616	-36.61515	0
822	23.59643	-19.52808	-43.93818	-2.44101	33.36047	-32.5468	-26.03744	-21.96909	-24.4101	-40.6835	-41.49717	-41.49717	0
823	21.15542	-4.88202	-26.03744	-7.32303	23.59643	-14.64606	-26.03744	-17.08707	4.88202	-38.24249	-39.05616	-39.05616	0
824	35.80148	-12.20505	-48.8202	-12.20505	43.12451	-30.10579	-33.36047	-14.64606	30.10579	-33.36047	-34.17414	-34.17414	0
825	40.6835	-19.52808	-61.02525	-9.76404	50.44754	-39.86983	-45.56552	-24.4101	61.83892	-23.59643	-24.4101	-21.96909	0
826	57.77057	-17.08707	-75.67131	-19.52808	67.53461	-47.19286	-48.00653	-24.4101	110.65912	-18.71441	-19.52808	-19.52808	0
827	82.18067	-4.88202	-87.87636	-39.05616	84.62168	-47.19286	-55.32956	-41.49717	115.54114	-18.71441	-19.52808	-19.52808	0
828	77.29865	-9.76404	-87.87636	-34.17414	82.18067	-49.63387	-77.29865	-73.2303	125.30518	-23.59643	-26.85111	-26.85111	0
829	79.73966	-30.10579	-109.84545	-24.4101	94.38572	-69.16195	-91.94471	-102.52242	81.367	-11.39138	-14.64606	-14.64606	0
830	65.0936	-37.42882	-102.52242	-14.64606	82.18067	-69.16195	-109.03178	-141.57858	-4.88202	-8.95037	-12.20505	-12.20505	0
831	40.6835	-47.19286	-87.87636	2.44101	62.65259	-66.72094	-109.03178	-153.78363	-65.90727	-8.95037	-12.20505	-14.64606	0
832	30.91946	-52.07488	-82.99434	9.76404	55.32956	-66.72094	-104.14976	-156.22464	-126.93252	-4.06835	-4.88202	-7.32303	0
833	16.2734	-54.51589	-70.78929	17.90074	43.12451	-61.83892	-91.94471	-139.13757	-131.81454	0.81367	0	0	0
834	11.39138	-69.16195	-80.55333	27.66478	45.56552	-74.04397	-74.85764	-109.84545	-112.28646	6.50936	5.69569	8.1367	0
835	30.91946	-59.39791	-90.31737	14.64606	60.21158	-74.04397	-67.53461	-90.31737	-58.58424	8.95037	8.1367	10.57771	0
836	11.39138	-76.48498	-87.87636	32.5468	48.00653	-81.367	-62.65259	-73.2303	9.76404	8.95037	8.1367	8.1367	0
837	16.2734	-71.60296	-87.87636	27.66478	50.44754	-78.92599	-60.21158	-73.2303	32.5468	8.95037	8.1367	8.1367	0
838	26.03744	-61.83892	-87.87636	17.90074	55.32956	-74.04397	-67.53461	-85.43535	56.9569	4.06835	0	0	0
839	-6.50936	-81.367	-75.67131	42.31084	33.36047	-78.92599	-67.53461	-95.19939	25.22377	0.81367	0	0	0
840	-28.47845	-86.24902	-58.58424	56.9569	13.01872	-74.04397	-74.85764	-119.60949	-53.70222	0.81367	0	0	0
841	-50.44754	-93.57205	-43.93818	71.60296	-4.06835	-69.16195	-67.53461	-119.60949	-109.84545	0.81367	0	0	0
842	-52.88855	-98.45407	-46.37919	74.04397	-4.06835	-74.04397	-57.77057	-109.84545	-163.54767	0.81367	0	0	0
843	-38.24249	-100.89508	-63.46626	69.16195	10.57771	-83.80801	-50.44754	-90.31737	-156.22464	6.50936	5.69569	5.69569	0
844	-35.80148	-108.21811	-73.2303	71.60296	18.71441	-91.13104	-38.24249	-58.58424	-104.96343	4.06835	3.25468	5.69569	0
845	-4.06835	-93.57205	-90.31737	47.19286	43.12451	-93.57205	-40.6835	-46.37919	-29.29212	-1.62734	-2.44101	0	0
846	40.6835	-78.92599	-119.60949	17.90074	79.73966	-98.45407	-50.44754	-41.49717	52.07488	-6.50936	-7.32303	-4.88202	0
847	38.24249	-78.92599	-117.16848	20.34175	77.29865	-98.45407	-67.53461	-58.58424	81.367	-8.95037	-9.76404	-9.76404	0
848	30.91946	-86.24902	-117.16848	27.66478	72.41663	-100.89508	-94.38572	-90.31737	103.33609	-23.59643	-24.4101	-24.4101	0
849	16.2734	-98.45407	-114.72747	39.86983	65.0936	-105.7771	-101.70875	-112.28646	64.27993	-30.91946	-31.73313	-34.17414	0
850	-4.06835	-108.21811	-104.96343	54.51589	50.44754	-108.21811	-111.47279	-151.34262	-41.49717	-23.59643	-21.96909	-26.85111	0
851	-18.71441	-120.42316	-102.52242	69.16195	40.6835	-113.10013	-106.59077	-161.10666	-124.49151	-13.83239	-12.20505	-17.08707	0
852	-40.6835	-130.1872	-90.31737	83.80801	23.59643	-110.65912	-84.62168	-146.4606	-185.51676	-1.62734	0	-2.44101	0
853	-48.00653	-135.06922	-87.87636	91.13104	18.71441	-113.10013	-60.21158	-122.0505	-197.72181	-4.06835	-2.44101	-4.88202	0
854	-40.6835	-144.83326	-104.96343	91.13104	30.91946	-125.30518	-40.6835	-92.75838	-195.2808	0.81367	3.25468	3.25468	0
855	-21.15542	-135.06922	-114.72747	76.48498	45.56552	-125.30518	-30.91946	-70.78929	-153.78363	0.81367	3.25468	3.25468	0
856	-6.50936	-130.1872	-124.49151	66.72094	57.77057	-127.74619	-23.59643	-43.93818	-80.55333	0.81367	3.25468	3.25468	0
857	-8.95037	-135.06922	-126.93252	71.60296	57.77057	-132.62821	-30.91946	-43.93818	-48.8202	-1.62734	-2.44101	-2.44101	0
858	-18.71441	-144.83326	-126.93252	81.367	52.88855	-137.51023	-48.00653	-58.58424	-9.76404	-21.15542	-21.96909	-19.52808	0
859	-21.15542	-149.71528	-129.37353	83.80801	52.88855	-139.95124	-52.88855	-65.90727	-17.08707	-16.2734	-17.08707	-17.08707	0
860	-11.39138	-132.62821	-122.0505	71.60296	55.32956	-127.74619	-55.32956	-82.99434	-61.02525	-18.71441	-19.52808	-17.08707	0
861	-16.2734	-125.30518	-109.84545	69.16195	45.56552	-117.98215	-43.12451	-82.99434	-78.11232	-13.83239	-12.20505	-12.20505	0
862	-28.47845	-120.42316	-92.75838	74.04397	30.91946	-108.21811	-30.91946	-78.11232	-112.28646	-13.83239	-14.64606	-12.20505	0
863	-26.03744	-122.86417	-97.6404	74.04397	35.80148	-110.65912	-18.71441	-70.78929	-117.16848	-26.03744	-24.4101	-24.4101	0
864	-6.50936	-117.98215	-112.28646	61.83892	52.88855	-115.54114	-1.62734	-51.26121	-117.16848	-26.03744	-26.85111	-24.4101	0
865	4.06835	-115.54114	-119.60949	54.51589	60.21158	-117.98215	0.81367	-43.93818	-97.6404	-33.36047	-31.73313	-31.73313	0
866	11.39138	-117.98215	-129.37353	52.07488	69.97562	-122.86417	3.25468	-29.29212	-46.37919	-38.24249	-39.05616	-36.61515	0
867	8.95037	-120.42316	-129.37353	54.51589	67.53461	-125.30518	-4.06835	-31.73313	-26.85111	-38.24249	-39.05616	-36.61515	0
868	6.50936	-132.62821	-139.13757	61.83892	72.41663	-135.06922	-28.47845	-48.8202	9.76404	-52.88855	-53.70222	-53.70222	0
869	6.50936	-139.95124	-146.4606	66.72094	74.85764	-142.39225	-35.80148	-53.70222	9.76404	-48.00653	-48.8202	-48.8202	0
870	-4.06835	-142.39225	-139.13757	71.60296	67.53461	-142.39225	-48.00653	-78.11232	-29.29212	-40.6835	-41.49717	-41.49717	0
871	-13.83239	-144.83326	-131.81454	78.92599	57.77057	-139.95124	-50.44754	-85.43535	-41.49717	-35.80148	-34.17414	-34.17414	0
872	-23.59643	-152.15629	-129.37353	86.24902	52.88855	-142.39225	-43.12451	-85.43535	-73.2303	-23.59643	-24.4101	-24.4101	0
873	-21.15542	-159.47932	-139.13757	88.69003	57.77057	-149.71528	-38.24249	-82.99434	-82.99434	-13.83239	-14.64606	-14.64606	0
874	-1.62734	-154.5973	-153.78363	76.48498	74.85764	-154.5973	-21.15542	-63.46626	-87.87636	-4.06835	-4.88202	-4.88202	0
875	23.59643	-135.06922	-158.66565	54.51589	89.5037	-147.27427	-8.95037	-53.70222	-70.78929	0.81367	0	0	0
876	38.24249	-132.62821	-170.8707	47.19286	104.14976	-152.15629	0.81367	-34.17414	-31.73313	0.81367	0	3.25468	0
877	45.56552	-130.1872	-175.75272	42.31084	109.03178	-152.15629	0.81367	-34.17414	-29.29212	0.81367	0	3.25468	0
878	48.00653	-127.74619	-175.75272	39.86983	111.47279	-152.15629	-11.39138	-46.37919	-2.44101	-8.95037	-9.76404	-7.32303	0
879	48.00653	-130.1872	-178.19373	39.86983	111.47279	-154.5973	-11.39138	-48.8202	-7.32303	-8.95037	-9.76404	-7.32303	0
880	43.12451	-122.86417	-165.98868	39.86983	104.14976	-144.83326	-16.2734	-65.90727	-41.49717	-8.95037	-9.76404	-7.32303	0
881	23.59643	-135.06922	-158.66565	54.51589	89.5037	-147.27427	-16.2734	-68.34828	-53.70222	-6.50936	-9.76404	-4.88202	0
882	8.95037	-144.83326	-153.78363	66.72094	79.73966	-149.71528	-11.39138	-65.90727	-78.11232	-4.06835	-7.32303	-2.44101	0
883	-8.95037	-161.92033	-153.78363	83.80801	72.41663	-159.47932	-11.39138	-61.02525	-82.99434	-8.95037	-9.76404	-7.32303	0
884	-8.95037	-169.24336	-161.10666	88.69003	74.85764	-166.80235	0.81367	-39.05616	-95.19939	0.81367	0	0	0
885	-1.62734	-174.12538	-173.31171	86.24902	84.62168	-174.12538	-1.62734	-34.17414	-92.75838	-1.62734	-2.44101	0	0
886	-4.06835	-183.88942	-180.63474	93.57205	87.06269	-183.88942	-4.06835	-21.96909	-63.46626	-4.06835	-7.32303	-2.44101	0
887	-4.06835	-188.77144	-185.51676	96.01306	89.5037	-188.77144	-18.71441	-29.29212	-70.78929	-1.62734	-2.44101	0	0
888	-4.06835	-191.21245	-187.95777	96.01306	91.94471	-191.21245	-38.24249	-41.49717	-31.73313	-4.06835	-2.44101	0	0
889	1.62734	-183.88942	-185.51676	91.13104	91.94471	-183.88942	-40.6835	-41.49717	-9.76404	4.06835	3.25468	5.69569	0
890	1.62734	-179.0074	-180.63474	88.69003	89.5037	-179.0074	-52.88855	-63.46626	-21.96909	8.95037	10.57771	10.57771	0
891	-1.62734	-179.0074	-178.19373	88.69003	87.06269	-179.0074	-52.88855	-70.78929	-4.88202	11.39138	10.57771	10.57771	0
892	4.06835	-176.56639	-180.63474	86.24902	91.94471	-179.0074	-50.44754	-80.55333	-17.08707	18.71441	20.34175	17.90074	0
893	-1.62734	-191.21245	-190.39878	96.01306	94.38572	-191.21245	-52.88855	-87.87636	-19.52808	23.59643	22.78276	22.78276	0
894	-6.50936	-205.85851	-200.16282	105.7771	96.82673	-203.4175	-43.12451	-85.43535	-41.49717	28.47845	30.10579	30.10579	0
895	13.83239	-203.4175	-217.24989	93.57205	113.9138	-210.74053	-45.56552	-95.19939	-61.02525	26.03744	25.22377	25.22377	0
896	23.59643	-208.29952	-231.89595	91.13104	126.11885	-220.50457	-40.6835	-87.87636	-58.58424	23.59643	22.78276	25.22377	0
897	33.36047	-203.4175	-236.77797	83.80801	133.44188	-220.50457	-30.91946	-82.99434	-68.34828	28.47845	27.66478	30.10579	0
898	48.00653	-200.97649	-248.98302	76.48498	148.08794	-225.38659	-38.24249	-85.43535	-39.05616	28.47845	27.66478	30.10579	0
899	62.65259	-186.33043	-248.98302	61.83892	155.41097	-218.06356	-28.47845	-75.67131	-24.4101	23.59643	22.78276	25.22377	0
900	84.62168	-154.5973	-239.21898	34.98781	160.29299	-196.09447	-26.03744	-78.11232	-36.61515	13.83239	15.45973	15.45973	0
901	79.73966	-132.62821	-212.36787	25.22377	145.64693	-171.68437	-18.71441	-65.90727	-21.96909	16.2734	15.45973	15.45973	0
902	72.41663	-130.1872	-202.60383	27.66478	135.88289	-166.80235	-16.2734	-65.90727	-31.73313	18.71441	17.90074	20.34175	0
903	57.77057	-139.95124	-197.72181	39.86983	126.11885	-169.24336	-21.15542	-70.78929	-34.17414	11.39138	13.01872	13.01872	0
904	38.24249	-154.5973	-192.83979	56.9569	113.9138	-174.12538	-16.2734	-65.90727	-51.26121	13.83239	13.01872	15.45973	0
905	13.83239	-176.56639	-190.39878	81.367	101.70875	-183.88942	-21.15542	-73.2303	-63.46626	11.39138	13.01872	15.45973	0
906	8.95037	-191.21245	-200.16282	91.13104	104.14976	-196.09447	-18.71441	-63.46626	-41.49717	8.95037	8.1367	10.57771	0
907	-4.06835	-220.50457	-217.24989	110.65912	106.59077	-220.50457	-26.03744	-75.67131	-58.58424	4.06835	3.25468	5.69569	0
908	-4.06835	-230.26861	-227.01393	115.54114	111.47279	-230.26861	-38.24249	-87.87636	-34.17414	-6.50936	-7.32303	-4.88202	0
909	-4.06835	-225.38659	-222.13191	113.10013	109.03178	-225.38659	-35.80148	-85.43535	-26.85111	-18.71441	-19.52808	-17.08707	0
910	-1.62734	-218.06356	-217.24989	108.21811	106.59077	-218.06356	-43.12451	-100.08141	-53.70222	-28.47845	-29.29212	-29.29212	0
911	11.39138	-208.29952	-219.6909	98.45407	113.9138	-213.18154	-40.6835	-97.6404	-43.93818	-38.24249	-39.05616	-39.05616	0
912	18.71441	-200.97649	-219.6909	91.13104	118.79582	-210.74053	-38.24249	-95.19939	-58.58424	-38.24249	-39.05616	-39.05616	0
913	8.95037	-200.97649	-209.92686	96.01306	109.03178	-205.85851	-35.80148	-95.19939	-58.58424	-43.12451	-43.93818	-43.93818	0
914	-6.50936	-210.74053	-205.04484	108.21811	99.26774	-208.29952	-23.59643	-85.43535	-73.2303	-40.6835	-41.49717	-41.49717	0
915	-13.83239	-213.18154	-200.16282	113.10013	91.94471	-208.29952	-26.03744	-87.87636	-85.43535	-30.91946	-31.73313	-31.73313	0
916	-1.62734	-200.97649	-200.16282	100.89508	99.26774	-200.97649	-11.39138	-68.34828	-61.02525	-21.15542	-21.96909	-19.52808	0
917	4.06835	-188.77144	-192.83979	91.13104	96.82673	-191.21245	-6.50936	-61.02525	-68.34828	-18.71441	-21.96909	-19.52808	0
918	13.83239	-171.68437	-185.51676	78.92599	99.26774	-179.0074	-6.50936	-61.02525	-36.61515	-35.80148	-36.61515	-34.17414	0
919	18.71441	-171.68437	-190.39878	76.48498	104.14976	-181.44841	-6.50936	-58.58424	-31.73313	-40.6835	-41.49717	-39.05616	0
920	35.80148	-166.80235	-202.60383	64.27993	118.79582	-183.88942	-21.15542	-75.67131	-63.46626	-43.12451	-43.93818	-43.93818	0
921	57.77057	-159.47932	-217.24989	49.63387	135.88289	-188.77144	-26.03744	-75.67131	-53.70222	-43.12451	-43.93818	-43.93818	0
922	50.44754	-169.24336	-219.6909	59.39791	133.44188	-193.65346	-28.47845	-75.67131	-61.02525	-48.00653	-46.37919	-46.37919	0
923	28.47845	-188.77144	-217.24989	78.92599	121.23683	-203.4175	-30.91946	-78.11232	-61.02525	-45.56552	-43.93818	-43.93818	0
924	16.2734	-200.97649	-217.24989	91.13104	116.35481	-208.29952	-21.15542	-68.34828	-75.67131	-33.36047	-31.73313	-29.29212	0
925	21.15542	-198.53548	-219.6909	88.69003	118.79582	-208.29952	-21.15542	-70.78929	-90.31737	-18.71441	-17.08707	-14.64606	0
926	38.24249	-186.33043	-224.57292	74.04397	131.00087	-205.85851	-6.50936	-53.70222	-65.90727	-6.50936	-4.88202	-2.44101	0
927	21.15542	-200.97649	-222.13191	88.69003	121.23683	-210.74053	-4.06835	-53.70222	-75.67131	6.50936	8.1367	10.57771	0
928	26.03744	-188.77144	-214.80888	81.367	118.79582	-200.97649	-6.50936	-53.70222	-41.49717	11.39138	13.01872	13.01872	0
929	40.6835	-169.24336	-209.92686	64.27993	123.67784	-188.77144	-4.06835	-48.8202	-29.29212	23.59643	25.22377	25.22377	0
930	50.44754	-159.47932	-209.92686	54.51589	128.55986	-183.88942	-21.15542	-70.78929	-53.70222	35.80148	37.42882	37.42882	0
931	33.36047	-161.92033	-195.2808	64.27993	113.9138	-179.0074	-28.47845	-78.11232	-41.49717	35.80148	34.98781	34.98781	0
932	16.2734	-161.92033	-178.19373	71.60296	96.82673	-169.24336	-28.47845	-82.99434	-43.93818	38.24249	34.98781	34.98781	0
933	8.95037	-157.03831	-165.98868	74.04397	87.06269	-161.92033	-30.91946	-87.87636	-36.61515	28.47845	27.66478	27.66478	0
934	23.59643	-132.62821	-156.22464	54.51589	89.5037	-144.83326	-16.2734	-75.67131	-46.37919	21.15542	20.34175	22.78276	0
935	38.24249	-122.86417	-161.10666	42.31084	99.26774	-142.39225	-16.2734	-82.99434	-58.58424	13.83239	10.57771	13.01872	0
936	45.56552	-122.86417	-168.42969	37.42882	106.59077	-144.83326	-6.50936	-68.34828	-41.49717	0.81367	0	0	0
937	50.44754	-120.42316	-170.8707	34.98781	109.03178	-144.83326	3.25468	-61.02525	-46.37919	-11.39138	-12.20505	-9.76404	0
938	55.32956	-115.54114	-170.8707	30.10579	111.47279	-142.39225	-4.06835	-68.34828	-21.96909	-18.71441	-19.52808	-17.08707	0
939	65.0936	-110.65912	-175.75272	22.78276	118.79582	-142.39225	5.69569	-58.58424	-14.64606	-16.2734	-17.08707	-14.64606	0
940	74.85764	-108.21811	-183.07575	14.64606	128.55986	-144.83326	0.81367	-70.78929	-39.05616	-18.71441	-19.52808	-17.08707	0
941	52.88855	-130.1872	-183.07575	37.42882	116.35481	-157.03831	-1.62734	-75.67131	-36.61515	-16.2734	-17.08707	-17.08707	0
942	33.36047	-137.51023	-170.8707	52.07488	101.70875	-154.5973	-6.50936	-80.55333	-51.26121	-13.83239	-17.08707	-17.08707	0
943	21.15542	-144.83326	-165.98868	61.83892	91.94471	-154.5973	-16.2734	-90.31737	-58.58424	-13.83239	-14.64606	-14.64606	0
944	1.62734	-149.71528	-151.34262	74.04397	74.85764	-149.71528	-11.39138	-85.43535	-78.11232	-4.06835	-7.32303	-7.32303	0
945	-6.50936	-147.27427	-141.57858	76.48498	67.53461	-144.83326	-11.39138	-82.99434	-85.43535	-4.06835	-7.32303	-7.32303	0
946	-13.83239	-154.5973	-141.57858	83.80801	62.65259	-149.71528	-4.06835	-63.46626	-61.02525	-4.06835	-4.88202	-4.88202	0
947	-13.83239	-154.5973	-141.57858	83.80801	62.65259	-149.71528	-1.62734	-58.58424	-61.02525	-8.95037	-9.76404	-9.76404	0
948	4.06835	-142.39225	-146.4606	69.16195	74.85764	-144.83326	-8.95037	-58.58424	-24.4101	-8.95037	-7.32303	-7.32303	0
949	8.95037	-142.39225	-151.34262	66.72094	79.73966	-147.27427	-6.50936	-53.70222	-9.76404	-1.62734	-2.44101	-2.44101	0
950	28.47845	-122.86417	-151.34262	47.19286	89.5037	-137.51023	-11.39138	-68.34828	-26.85111	4.06835	3.25468	3.25468	0
951	40.6835	-115.54114	-156.22464	37.42882	96.82673	-135.06922	-16.2734	-75.67131	-21.96909	0.81367	0	0	0
952	30.91946	-110.65912	-141.57858	39.86983	84.62168	-125.30518	-21.15542	-87.87636	-34.17414	0.81367	0	0	0
953	16.2734	-117.98215	-134.25555	49.63387	74.85764	-125.30518	-30.91946	-100.08141	-43.93818	4.06835	3.25468	3.25468	0
954	8.95037	-127.74619	-136.69656	59.39791	72.41663	-132.62821	-28.47845	-100.08141	-70.78929	4.06835	3.25468	5.69569	0
955	4.06835	-125.30518	-129.37353	59.39791	65.0936	-127.74619	-30.91946	-100.08141	-85.43535	-6.50936	-7.32303	-4.88202	0
956	11.39138	-117.98215	-129.37353	52.07488	69.97562	-122.86417	-21.15542	-80.55333	-65.90727	-8.95037	-9.76404	-9.76404	0
957	-4.06835	-132.62821	-129.37353	66.72094	62.65259	-132.62821	-21.15542	-75.67131	-73.2303	-16.2734	-17.08707	-14.64606	0
958	6.50936	-120.42316	-126.93252	56.9569	65.0936	-122.86417	-23.59643	-70.78929	-39.05616	-23.59643	-24.4101	-21.96909	0
959	8.95037	-113.10013	-122.0505	52.07488	65.0936	-117.98215	-16.2734	-61.02525	-24.4101	-28.47845	-29.29212	-29.29212	0
960	11.39138	-96.01306	-107.40444	42.31084	57.77057	-100.89508	-16.2734	-63.46626	-41.49717	-28.47845	-29.29212	-29.29212	0
961	13.83239	-88.69003	-102.52242	37.42882	57.77057	-96.01306	-16.2734	-61.02525	-29.29212	-28.47845	-29.29212	-29.29212	0
962	8.95037	-98.45407	-107.40444	44.75185	57.77057	-103.33609	-21.15542	-68.34828	-39.05616	-23.59643	-21.96909	-24.4101	0
963	18.71441	-103.33609	-122.0505	42.31084	69.97562	-113.10013	-28.47845	-78.11232	-41.49717	-16.2734	-14.64606	-17.08707	0
964	30.91946	-115.54114	-146.4606	42.31084	87.06269	-130.1872	-33.36047	-82.99434	-63.46626	-1.62734	-2.44101	-2.44101	0
965	30.91946	-132.62821	-163.54767	49.63387	96.82673	-147.27427	-38.24249	-90.31737	-78.11232	4.06835	5.69569	5.69569	0
966	28.47845	-147.27427	-175.75272	59.39791	101.70875	-161.92033	-33.36047	-80.55333	-61.02525	13.83239	13.01872	15.45973	0
967	35.80148	-142.39225	-178.19373	52.07488	106.59077	-159.47932	-26.03744	-78.11232	-65.90727	16.2734	15.45973	17.90074	0
968	40.6835	-132.62821	-173.31171	44.75185	106.59077	-152.15629	-28.47845	-80.55333	-36.61515	18.71441	17.90074	20.34175	0
969	30.91946	-117.98215	-148.90161	42.31084	89.5037	-132.62821	-13.83239	-65.90727	-17.08707	18.71441	17.90074	20.34175	0
970	26.03744	-91.13104	-117.16848	32.5468	69.97562	-103.33609	-8.95037	-68.34828	-29.29212	16.2734	17.90074	17.90074	0
971	33.36047	-66.72094	-100.08141	14.64606	65.0936	-83.80801	-6.50936	-70.78929	-21.96909	16.2734	17.90074	17.90074	0
972	57.77057	-34.98781	-92.75838	-12.20505	74.85764	-64.27993	-4.06835	-73.2303	-31.73313	16.2734	15.45973	15.45973	0
973	67.53461	-21.96909	-90.31737	-21.96909	79.73966	-56.9569	-6.50936	-80.55333	-39.05616	11.39138	10.57771	10.57771	0
974	65.0936	-21.96909	-87.87636	-21.96909	77.29865	-54.51589	0.81367	-78.11232	-65.90727	11.39138	10.57771	13.01872	0
975	69.97562	-24.4101	-95.19939	-21.96909	82.18067	-59.39791	-1.62734	-85.43535	-92.75838	13.83239	13.01872	15.45973	0
976	74.85764	-34.98781	-109.84545	-19.52808	91.94471	-71.60296	8.1367	-73.2303	-82.99434	18.71441	17.90074	20.34175	0
977	65.0936	-49.63387	-114.72747	-7.32303	89.5037	-81.367	13.83239	-63.46626	-90.31737	23.59643	22.78276	25.22377	0
978	57.77057	-54.51589	-112.28646	-2.44101	84.62168	-83.80801	18.71441	-51.26121	-58.58424	26.03744	25.22377	25.22377	0
979	55.32956	-66.72094	-122.0505	4.88202	87.06269	-93.57205	26.03744	-39.05616	-43.93818	33.36047	32.5468	34.98781	0
980	65.0936	-56.9569	-122.0505	-4.88202	91.94471	-88.69003	23.59643	-36.61515	-48.8202	38.24249	37.42882	39.86983	0
981	74.85764	-52.07488	-126.93252	-12.20505	99.26774	-88.69003	23.59643	-29.29212	-26.85111	40.6835	37.42882	39.86983	0
982	79.73966	-56.9569	-136.69656	-12.20505	106.59077	-96.01306	16.2734	-31.73313	-24.4101	35.80148	32.5468	34.98781	0
983	87.06269	-56.9569	-144.01959	-14.64606	113.9138	-100.89508	11.39138	-34.17414	-19.52808	30.91946	27.66478	30.10579	0
984	91.94471	-64.27993	-156.22464	-14.64606	123.67784	-110.65912	8.1367	-36.61515	-39.05616	26.03744	22.78276	25.22377	0
985	77.29865	-66.72094	-144.01959	-4.88202	109.03178	-105.7771	5.69569	-39.05616	-48.8202	18.71441	17.90074	20.34175	0
986	69.97562	-76.48498	-146.4606	2.44101	106.59077	-110.65912	8.1367	-31.73313	-31.73313	16.2734	15.45973	17.90074	0
987	65.0936	-83.80801	-148.90161	9.76404	106.59077	-115.54114	5.69569	-34.17414	-41.49717	16.2734	13.01872	15.45973	0
988	67.53461	-78.92599	-146.4606	4.88202	106.59077	-113.10013	-1.62734	-41.49717	-19.52808	13.83239	10.57771	13.01872	0
989	69.97562	-81.367	-151.34262	4.88202	109.03178	-115.54114	-6.50936	-43.93818	-14.64606	16.2734	15.45973	15.45973	0
990	62.65259	-81.367	-144.01959	9.76404	101.70875	-113.10013	-13.83239	-58.58424	-36.61515	21.15542	17.90074	20.34175	0
991	69.97562	-93.57205	-163.54767	12.20505	116.35481	-127.74619	-21.15542	-63.46626	-29.29212	26.03744	22.78276	22.78276	0
992	69.97562	-113.10013	-183.07575	20.34175	126.11885	-147.27427	-30.91946	-75.67131	-41.49717	26.03744	25.22377	25.22377	0
993	57.77057	-120.42316	-178.19373	30.10579	116.35481	-149.71528	-33.36047	-82.99434	-43.93818	26.03744	25.22377	25.22377	0
994	43.12451	-127.74619	-170.8707	42.31084	106.59077	-149.71528	-23.59643	-75.67131	-61.02525	28.47845	27.66478	27.66478	0
995	28.47845	-127.74619	-156.22464	49.63387	91.94471	-142.39225	-18.71441	-78.11232	-68.34828	23.59643	22.78276	25.22377	0
996	26.03744	-122.86417	-148.90161	47.19286	87.06269	-135.06922	-8.95037	-63.46626	-46.37919	28.47845	27.66478	30.10579	0
997	23.59643	-120.42316	-144.01959	47.19286	82.18067	-132.62821	-11.39138	-65.90727	-58.58424	35.80148	37.42882	37.42882	0
998	28.47845	-88.69003	-117.16848	30.10579	72.41663	-103.33609	-11.39138	-61.02525	-26.85111	33.36047	32.5468	32.5468	0
999	38.24249	-64.27993	-102.52242	12.20505	69.97562	-83.80801	-8.95037	-51.26121	-7.32303	33.36047	32.5468	32.5468	0
1000	48.00653	-47.19286	-95.19939	0	69.97562	-71.60296	-16.2734	-61.02525	-17.08707	30.91946	30.10579	30.10579	0
1001	40.6835	-54.51589	-95.19939	7.32303	67.53461	-74.04397	-21.15542	-63.46626	-12.20505	28.47845	27.66478	27.66478	0
1002	30.91946	-61.83892	-92.75838	14.64606	60.21158	-76.48498	-26.03744	-63.46626	-17.08707	30.91946	30.10579	30.10579	0
1003	11.39138	-74.04397	-85.43535	30.10579	48.00653	-78.92599	-35.80148	-70.78929	-17.08707	26.03744	27.66478	25.22377	0
1004	-1.62734	-88.69003	-87.87636	44.75185	43.12451	-88.69003	-45.56552	-80.55333	-26.85111	16.2734	15.45973	15.45973	0
