samplenr	I	II	III	aVR	aVL	aVF	V1	V2	V3	V4	V5	V6	measurement
0	67.53461	-13.83239	-81.367	-26.85111	73.2303	-48.00653	-26.85111	209.11319	-28.47845	3.25468	-13.01872	-30.91946	0
1	87.06269	-1.62734	-88.69003	-43.93818	87.87636	-45.56552	-34.17414	206.67218	-38.24249	-1.62734	-15.45973	-33.36047	0
2	131.00087	28.47845	-103.33609	-80.55333	117.16848	-38.24249	-58.58424	196.90814	-57.77057	-18.71441	-30.10579	-48.00653	0
3	174.93905	55.32956	-120.42316	-114.72747	148.90161	-33.36047	-90.31737	182.26208	-82.18067	-38.24249	-52.07488	-67.53461	0
4	226.20026	87.06269	-139.95124	-156.22464	183.07575	-26.03744	-126.93252	155.41097	-111.47279	-65.0936	-78.92599	-84.62168	0
5	282.34349	121.23683	-161.92033	-202.60383	222.13191	-21.15542	-165.98868	113.9138	-140.76491	-91.94471	-105.7771	-101.70875	0
6	331.16369	150.52895	-181.44841	-241.65999	256.30605	-16.2734	-207.48585	65.0936	-170.05703	-118.79582	-127.74619	-116.35481	0
7	360.45581	179.82107	-181.44841	-270.95211	270.95211	-1.62734	-251.42403	8.1367	-201.79016	-145.64693	-147.27427	-128.55986	0
8	370.21985	209.11319	-161.92033	-290.48019	266.07009	23.59643	-292.9212	-55.32956	-228.64127	-165.17501	-154.5973	-131.00087	0
9	375.10187	245.72834	-130.1872	-310.00827	253.86504	57.77057	-324.65433	-133.44188	-245.72834	-172.49804	-149.71528	-123.67784	0
10	367.77884	279.90248	-88.69003	-324.65433	229.45494	96.82673	-349.06443	-223.75925	-250.61036	-170.05703	-132.62821	-109.03178	0
11	331.16369	299.43056	-32.5468	-314.89029	183.07575	133.44188	-366.1515	-331.16369	-245.72834	-155.41097	-108.21811	-84.62168	0
12	265.25642	296.98955	31.73313	-280.71615	117.16848	165.17501	-383.23857	-455.6552	-238.40531	-135.88289	-81.367	-57.77057	0
13	184.70309	282.34349	97.6404	-234.33696	43.93818	189.58511	-390.5616	-589.91075	-223.75925	-111.47279	-52.07488	-28.47845	0
14	101.70875	248.16935	146.4606	-175.75272	-22.78276	196.90814	-395.44362	-724.1663	-206.67218	-87.06269	-30.10579	-0.81367	0
15	16.2734	194.46713	178.19373	-104.96343	-81.367	187.1441	-397.88463	-851.09882	-194.46713	-67.53461	-10.57771	21.15542	0
16	-72.41663	118.79582	190.39878	-24.4101	-130.1872	152.96996	-402.76665	-953.62124	-187.1441	-57.77057	1.62734	35.80148	0
17	-148.08794	38.24249	185.51676	54.51589	-166.80235	111.47279	-400.32564	-1024.41053	-184.70309	-55.32956	7.32303	45.56552	0
18	-194.46713	-35.80148	158.66565	113.10013	-176.56639	60.21158	-388.12059	-1053.70265	-179.82107	-52.88855	14.64606	48.00653	0
19	-218.87723	-101.70875	117.16848	159.47932	-169.24336	6.50936	-373.47453	-1051.26164	-177.38006	-52.88855	21.96909	45.56552	0
20	-233.52329	-167.61602	65.90727	198.53548	-149.71528	-52.88855	-361.26948	-1024.41053	-177.38006	-55.32956	24.4101	40.6835	0
21	-235.9643	-213.99521	21.96909	222.94558	-130.1872	-96.82673	-349.06443	-980.47235	-177.38006	-57.77057	21.96909	35.80148	0
22	-240.84632	-243.28733	-3.25468	240.03265	-120.42316	-123.67784	-339.30039	-921.88811	-177.38006	-65.0936	12.20505	23.59643	0
23	-238.40531	-250.61036	-13.01872	242.47366	-113.10013	-133.44188	-322.21332	-843.77579	-172.49804	-60.21158	4.88202	21.15542	0
24	-235.9643	-250.61036	-15.45973	242.47366	-110.65912	-133.44188	-305.12625	-758.34044	-165.17501	-57.77057	-0.81367	21.15542	0
25	-233.52329	-245.72834	-13.01872	237.59164	-110.65912	-131.00087	-285.59817	-670.46408	-157.85198	-55.32956	-10.57771	16.2734	0
26	-221.31824	-221.31824	-0.81367	220.50457	-110.65912	-111.47279	-263.62908	-575.26469	-148.08794	-52.88855	-15.45973	16.2734	0
27	-204.23117	-187.1441	17.08707	193.65346	-110.65912	-87.06269	-231.89595	-472.74227	-133.44188	-48.00653	-10.57771	18.71441	0
28	-192.02612	-152.96996	39.05616	171.68437	-115.54114	-57.77057	-190.39878	-365.33783	-111.47279	-35.80148	1.62734	26.03744	0
29	-182.26208	-128.55986	53.70222	154.5973	-117.98215	-38.24249	-151.34262	-267.69743	-91.94471	-23.59643	12.20505	26.03744	0
30	-167.61602	-104.14976	63.46626	135.06922	-115.54114	-21.15542	-114.72747	-179.82107	-72.41663	-13.83239	24.4101	26.03744	0
31	-155.41097	-84.62168	70.78929	117.98215	-113.10013	-8.95037	-80.55333	-101.70875	-57.77057	-6.50936	29.29212	26.03744	0
32	-148.08794	-67.53461	80.55333	105.7771	-115.54114	6.50936	-51.26121	-30.91946	-40.6835	3.25468	34.17414	28.47845	0
33	-138.3239	-52.88855	85.43535	93.57205	-113.10013	16.2734	-26.85111	34.98781	-26.03744	13.83239	34.17414	30.91946	0
34	-131.00087	-45.56552	85.43535	86.24902	-108.21811	18.71441	-9.76404	94.38572	-18.71441	18.71441	26.85111	30.91946	0
35	-116.35481	-38.24249	78.11232	76.48498	-98.45407	18.71441	0	145.64693	-13.83239	21.15542	21.96909	30.91946	0
36	-111.47279	-33.36047	78.11232	71.60296	-96.01306	21.15542	8.1367	192.02612	-8.95037	23.59643	19.52808	35.80148	0
37	-104.14976	-33.36047	70.78929	66.72094	-88.69003	18.71441	13.01872	235.9643	-4.06835	28.47845	26.85111	40.6835	0
38	-96.82673	-33.36047	63.46626	64.27993	-81.367	13.83239	15.45973	279.90248	-1.62734	28.47845	34.17414	45.56552	0
39	-96.82673	-28.47845	68.34828	61.83892	-83.80801	18.71441	13.01872	311.63561	-1.62734	28.47845	39.05616	43.12451	0
40	-96.82673	-35.80148	61.02525	64.27993	-78.92599	11.39138	15.45973	343.36874	1.62734	28.47845	46.37919	45.56552	0
41	-89.5037	-40.6835	48.8202	64.27993	-69.16195	4.06835	22.78276	372.66086	6.50936	30.91946	51.26121	50.44754	0
42	-74.85764	-33.36047	41.49717	52.07488	-59.39791	4.06835	30.10579	404.39399	11.39138	35.80148	53.70222	50.44754	0
43	-67.53461	-23.59643	43.93818	44.75185	-56.9569	8.95037	30.10579	433.68611	13.83239	35.80148	46.37919	45.56552	0
44	-67.53461	-6.50936	61.02525	34.98781	-64.27993	26.03744	30.10579	458.09621	11.39138	30.91946	39.05616	40.6835	0
45	-67.53461	1.62734	68.34828	32.5468	-66.72094	33.36047	32.5468	480.0653	11.39138	33.36047	34.17414	43.12451	0
46	-62.65259	8.95037	70.78929	25.22377	-66.72094	38.24249	34.98781	502.03439	18.71441	38.24249	39.05616	48.00653	0
47	-62.65259	30.91946	92.75838	15.45973	-76.48498	60.21158	34.98781	514.23944	18.71441	40.6835	41.49717	48.00653	0
48	-67.53461	45.56552	112.28646	10.57771	-88.69003	77.29865	34.98781	526.44449	18.71441	43.12451	48.8202	45.56552	0
49	-69.97562	55.32956	124.49151	5.69569	-96.01306	89.5037	34.98781	536.20853	18.71441	43.12451	58.58424	50.44754	0
50	-67.53461	55.32956	122.0505	5.69569	-93.57205	87.06269	37.42882	543.53156	18.71441	45.56552	65.90727	50.44754	0
51	-67.53461	55.32956	122.0505	5.69569	-93.57205	87.06269	37.42882	548.41358	18.71441	48.00653	70.78929	52.88855	0
52	-69.97562	60.21158	129.37353	3.25468	-98.45407	94.38572	37.42882	560.61863	16.2734	48.00653	70.78929	48.00653	0
53	-72.41663	67.53461	139.13757	0	-105.7771	101.70875	39.86983	577.7057	13.83239	48.00653	68.34828	48.00653	0
54	-74.85764	67.53461	141.57858	3.25468	-108.21811	104.14976	39.86983	597.23378	13.83239	48.00653	65.90727	50.44754	0
55	-84.62168	62.65259	146.4606	10.57771	-115.54114	104.14976	37.42882	611.87984	11.39138	45.56552	61.02525	52.88855	0
56	-89.5037	62.65259	151.34262	13.01872	-120.42316	106.59077	39.86983	631.40792	11.39138	50.44754	61.02525	57.77057	0
57	-82.18067	84.62168	165.98868	-2.44101	-122.86417	123.67784	42.31084	653.37701	16.2734	55.32956	65.90727	69.97562	0
58	-72.41663	106.59077	178.19373	-17.08707	-125.30518	140.76491	44.75185	670.46408	18.71441	57.77057	70.78929	74.85764	0
59	-72.41663	113.9138	185.51676	-21.96909	-127.74619	148.08794	44.75185	680.22812	18.71441	57.77057	73.2303	77.29865	0
60	-74.85764	109.03178	183.07575	-17.08707	-127.74619	145.64693	42.31084	689.99216	18.71441	57.77057	75.67131	77.29865	0
61	-72.41663	113.9138	185.51676	-21.96909	-127.74619	148.08794	42.31084	699.7562	18.71441	57.77057	82.99434	77.29865	0
62	-69.97562	123.67784	192.83979	-26.85111	-130.1872	157.85198	42.31084	709.52024	18.71441	57.77057	87.87636	77.29865	0
63	-67.53461	126.11885	192.83979	-29.29212	-130.1872	157.85198	39.86983	721.72529	18.71441	55.32956	87.87636	74.85764	0
64	-67.53461	123.67784	190.39878	-29.29212	-127.74619	155.41097	39.86983	738.81236	18.71441	55.32956	90.31737	77.29865	0
65	-67.53461	123.67784	190.39878	-29.29212	-127.74619	155.41097	39.86983	753.45842	18.71441	55.32956	87.87636	77.29865	0
66	-60.21158	131.00087	190.39878	-36.61515	-125.30518	160.29299	44.75185	772.9865	21.15542	57.77057	90.31737	79.73966	0
67	-65.0936	133.44188	197.72181	-34.17414	-130.1872	165.17501	44.75185	792.51458	23.59643	60.21158	92.75838	82.18067	0
68	-69.97562	126.11885	195.2808	-29.29212	-132.62821	160.29299	44.75185	812.04266	26.03744	60.21158	92.75838	84.62168	0
69	-82.18067	116.35481	197.72181	-17.08707	-139.95124	155.41097	39.86983	826.68872	26.03744	60.21158	92.75838	82.18067	0
70	-94.38572	104.14976	197.72181	-4.88202	-144.83326	150.52895	37.42882	838.89377	21.15542	55.32956	90.31737	77.29865	0
71	-106.59077	94.38572	200.16282	5.69569	-152.15629	145.64693	34.98781	851.09882	21.15542	52.88855	90.31737	77.29865	0
72	-116.35481	87.06269	202.60383	13.01872	-159.47932	143.20592	34.98781	865.74488	21.15542	50.44754	90.31737	74.85764	0
73	-121.23683	82.18067	202.60383	17.90074	-161.92033	140.76491	32.5468	880.39094	16.2734	45.56552	85.43535	72.41663	0
74	-116.35481	87.06269	202.60383	13.01872	-159.47932	143.20592	32.5468	895.037	16.2734	43.12451	80.55333	72.41663	0
75	-116.35481	91.94471	207.48585	10.57771	-161.92033	148.08794	32.5468	907.24205	16.2734	40.6835	75.67131	69.97562	0
76	-116.35481	96.82673	212.36787	8.1367	-164.36134	152.96996	32.5468	919.4471	16.2734	40.6835	75.67131	72.41663	0
77	-113.9138	104.14976	217.24989	3.25468	-164.36134	160.29299	32.5468	931.65215	18.71441	45.56552	78.11232	74.85764	0
78	-111.47279	106.59077	217.24989	0	-164.36134	160.29299	30.10579	938.97518	18.71441	43.12451	80.55333	77.29865	0
79	-106.59077	113.9138	219.6909	-4.88202	-161.92033	165.17501	27.66478	946.29821	18.71441	43.12451	85.43535	74.85764	0
80	-101.70875	121.23683	222.13191	-9.76404	-161.92033	170.05703	27.66478	951.18023	21.15542	48.00653	95.19939	79.73966	0
81	-96.82673	128.55986	224.57292	-17.08707	-159.47932	174.93905	30.10579	948.73922	26.03744	52.88855	102.52242	87.06269	0
82	-91.94471	138.3239	229.45494	-24.4101	-159.47932	182.26208	32.5468	938.97518	28.47845	57.77057	104.96343	91.94471	0
83	-89.5037	140.76491	229.45494	-26.85111	-159.47932	184.70309	32.5468	924.32912	28.47845	57.77057	102.52242	91.94471	0
84	-94.38572	143.20592	236.77797	-24.4101	-164.36134	189.58511	32.5468	907.24205	33.36047	60.21158	100.08141	96.82673	0
85	-101.70875	143.20592	244.101	-21.96909	-171.68437	192.02612	34.98781	877.94993	35.80148	62.65259	97.6404	99.26774	0
86	-104.14976	145.64693	248.98302	-21.96909	-176.56639	196.90814	34.98781	843.77579	35.80148	62.65259	95.19939	99.26774	0
87	-104.14976	148.08794	251.42403	-21.96909	-176.56639	199.34915	30.10579	809.60165	33.36047	60.21158	95.19939	99.26774	0
88	-106.59077	148.08794	253.86504	-21.96909	-179.0074	199.34915	27.66478	782.75054	30.91946	57.77057	97.6404	101.70875	0
89	-111.47279	148.08794	258.74706	-19.52808	-183.88942	201.79016	22.78276	758.34044	28.47845	55.32956	100.08141	99.26774	0
90	-113.9138	152.96996	266.07009	-19.52808	-188.77144	209.11319	20.34175	736.37135	28.47845	57.77057	107.40444	99.26774	0
91	-106.59077	162.734	268.5111	-29.29212	-186.33043	213.99521	20.34175	714.40226	30.91946	57.77057	109.84545	99.26774	0
92	-104.14976	165.17501	268.5111	-31.73313	-186.33043	216.43622	17.90074	699.7562	30.91946	60.21158	109.84545	99.26774	0
93	-106.59077	167.61602	273.39312	-31.73313	-188.77144	218.87723	17.90074	687.55115	35.80148	60.21158	107.40444	99.26774	0
94	-113.9138	170.05703	283.15716	-29.29212	-198.53548	226.20026	17.90074	672.90509	35.80148	60.21158	102.52242	99.26774	0
95	-113.9138	170.05703	283.15716	-29.29212	-198.53548	226.20026	15.45973	655.81802	35.80148	60.21158	100.08141	94.38572	0
96	-109.03178	172.49804	280.71615	-31.73313	-193.65346	226.20026	13.01872	636.28994	35.80148	55.32956	92.75838	91.94471	0
97	-113.9138	172.49804	285.59817	-29.29212	-198.53548	228.64127	13.01872	619.20287	35.80148	52.88855	92.75838	91.94471	0
98	-121.23683	172.49804	292.9212	-26.85111	-205.85851	231.08228	10.57771	599.67479	33.36047	50.44754	97.6404	94.38572	0
99	-123.67784	172.49804	295.36221	-24.4101	-208.29952	233.52329	8.1367	577.7057	28.47845	48.00653	97.6404	91.94471	0
100	-118.79582	177.38006	295.36221	-29.29212	-205.85851	235.9643	8.1367	555.73661	33.36047	48.00653	102.52242	96.82673	1000	P+0
101	-118.79582	184.70309	302.68524	-34.17414	-210.74053	243.28733	8.1367	536.20853	35.80148	50.44754	104.96343	99.26774	0
102	-118.79582	192.02612	310.00827	-36.61515	-213.18154	250.61036	10.57771	521.56247	40.6835	55.32956	107.40444	104.14976	0
103	-113.9138	196.90814	310.00827	-41.49717	-210.74053	253.05137	13.01872	511.79843	43.12451	57.77057	109.84545	109.03178	0
104	-101.70875	204.23117	305.12625	-51.26121	-203.4175	253.05137	17.90074	506.91641	50.44754	65.0936	112.28646	116.35481	0
105	-91.94471	216.43622	307.56726	-63.46626	-198.53548	260.3744	20.34175	502.03439	57.77057	74.85764	117.16848	123.67784	0
106	-91.94471	226.20026	317.3313	-68.34828	-203.4175	270.13844	22.78276	497.15237	60.21158	77.29865	117.16848	126.11885	0
107	-96.82673	231.08228	327.09534	-68.34828	-210.74053	277.46147	20.34175	492.27035	57.77057	79.73966	119.60949	128.55986	0
108	-101.70875	228.64127	329.53635	-63.46626	-215.62255	277.46147	15.45973	482.50631	55.32956	77.29865	124.49151	131.00087	0
109	-113.9138	216.43622	329.53635	-51.26121	-220.50457	272.57945	8.1367	470.30126	48.00653	67.53461	122.0505	123.67784	0
110	-126.11885	213.99521	339.30039	-43.93818	-232.70962	275.02046	0	455.6552	43.12451	62.65259	117.16848	118.79582	0
111	-138.3239	209.11319	346.62342	-36.61515	-242.47366	277.46147	-4.88202	436.12712	35.80148	52.88855	112.28646	111.47279	0
112	-145.64693	204.23117	349.06443	-29.29212	-247.35568	275.02046	-12.20505	421.48106	28.47845	45.56552	104.96343	106.59077	0
113	-145.64693	204.23117	349.06443	-29.29212	-247.35568	275.02046	-12.20505	414.15803	26.03744	43.12451	100.08141	104.14976	0
114	-140.76491	209.11319	349.06443	-34.17414	-244.91467	277.46147	-14.64606	409.27601	26.03744	43.12451	95.19939	104.14976	0
115	-131.00087	226.20026	356.38746	-48.8202	-242.47366	289.66652	-12.20505	404.39399	28.47845	48.00653	95.19939	101.70875	0
116	-123.67784	238.40531	361.26948	-58.58424	-242.47366	299.43056	-9.76404	399.51197	33.36047	52.88855	97.6404	106.59077	0
117	-116.35481	248.16935	363.71049	-65.90727	-240.03265	304.31258	-9.76404	392.18894	33.36047	52.88855	100.08141	106.59077	0
118	-111.47279	260.3744	371.03352	-75.67131	-240.03265	314.07662	-7.32303	389.74793	38.24249	60.21158	109.84545	111.47279	0
119	-109.03178	267.69743	375.91554	-80.55333	-242.47366	321.39965	-4.88202	384.86591	40.6835	62.65259	112.28646	113.9138	0
120	-106.59077	275.02046	380.79756	-85.43535	-242.47366	326.28167	-7.32303	372.66086	40.6835	62.65259	114.72747	113.9138	0
121	-113.9138	275.02046	388.12059	-80.55333	-249.79669	331.16369	-7.32303	362.89682	40.6835	62.65259	117.16848	113.9138	0
122	-113.9138	272.57945	385.67958	-80.55333	-249.79669	328.72268	-7.32303	355.57379	43.12451	62.65259	114.72747	111.47279	0
123	-111.47279	270.13844	380.79756	-80.55333	-244.91467	323.84066	-7.32303	355.57379	45.56552	62.65259	112.28646	106.59077	0
124	-111.47279	265.25642	375.91554	-78.11232	-242.47366	318.95864	-4.88202	355.57379	48.00653	62.65259	109.84545	109.03178	0
125	-109.03178	262.81541	371.03352	-78.11232	-240.03265	316.51763	-4.88202	350.69177	48.00653	57.77057	104.96343	104.14976	0
126	-109.03178	255.49238	363.71049	-73.2303	-235.15063	309.1946	-2.44101	350.69177	45.56552	57.77057	102.52242	101.70875	0
127	-109.03178	250.61036	358.82847	-70.78929	-232.70962	304.31258	-2.44101	345.80975	48.00653	57.77057	104.96343	101.70875	0
128	-104.14976	253.05137	356.38746	-75.67131	-230.26861	304.31258	0	336.04571	50.44754	57.77057	107.40444	104.14976	0
129	-96.82673	260.3744	356.38746	-82.99434	-225.38659	306.75359	0	318.95864	50.44754	60.21158	109.84545	101.70875	0
130	-91.94471	270.13844	361.26948	-90.31737	-225.38659	314.07662	3.25468	301.87157	52.88855	60.21158	114.72747	104.14976	0
131	-89.5037	272.57945	361.26948	-92.75838	-225.38659	316.51763	5.69569	279.90248	57.77057	65.0936	117.16848	109.03178	0
132	-89.5037	270.13844	358.82847	-90.31737	-222.94558	314.07662	5.69569	257.93339	57.77057	67.53461	117.16848	109.03178	0
133	-89.5037	267.69743	356.38746	-90.31737	-222.94558	311.63561	5.69569	235.9643	57.77057	69.97562	117.16848	109.03178	0
134	-87.06269	267.69743	353.94645	-90.31737	-220.50457	309.1946	3.25468	216.43622	60.21158	69.97562	114.72747	106.59077	0
135	-82.18067	267.69743	349.06443	-92.75838	-215.62255	306.75359	8.1367	196.90814	62.65259	67.53461	112.28646	106.59077	0
136	-84.62168	250.61036	334.41837	-82.99434	-208.29952	292.10753	13.01872	179.82107	65.0936	69.97562	112.28646	106.59077	0
137	-87.06269	231.08228	317.3313	-73.2303	-200.97649	272.57945	15.45973	162.734	67.53461	72.41663	112.28646	106.59077	0
138	-84.62168	218.87723	302.68524	-68.34828	-193.65346	260.3744	17.90074	148.08794	67.53461	69.97562	109.84545	104.14976	0
139	-79.73966	209.11319	288.03918	-65.90727	-183.88942	248.16935	25.22377	135.88289	67.53461	69.97562	109.84545	101.70875	0
140	-74.85764	201.79016	275.83413	-63.46626	-174.12538	238.40531	30.10579	123.67784	69.97562	69.97562	109.84545	101.70875	0
141	-79.73966	189.58511	268.5111	-56.14323	-174.12538	228.64127	32.5468	113.9138	69.97562	69.97562	107.40444	99.26774	0
142	-84.62168	177.38006	261.18807	-46.37919	-171.68437	218.87723	32.5468	106.59077	67.53461	65.0936	100.08141	94.38572	0
143	-89.5037	160.29299	248.98302	-36.61515	-169.24336	204.23117	34.98781	104.14976	65.0936	60.21158	90.31737	87.06269	0
144	-89.5037	138.3239	227.01393	-24.4101	-157.03831	182.26208	42.31084	104.14976	69.97562	62.65259	87.87636	87.06269	0
145	-89.5037	131.00087	219.6909	-21.96909	-154.5973	174.93905	49.63387	104.14976	72.41663	62.65259	87.87636	87.06269	0
146	-84.62168	126.11885	209.92686	-21.96909	-147.27427	167.61602	54.51589	104.14976	72.41663	62.65259	82.99434	84.62168	0
147	-72.41663	118.79582	190.39878	-24.4101	-130.1872	152.96996	59.39791	104.14976	77.29865	65.0936	82.99434	84.62168	0
148	-65.0936	111.47279	175.75272	-24.4101	-120.42316	143.20592	64.27993	106.59077	77.29865	67.53461	85.43535	82.18067	0
149	-62.65259	104.14976	165.98868	-21.96909	-113.10013	133.44188	66.72094	106.59077	77.29865	62.65259	80.55333	74.85764	0
150	-55.32956	111.47279	165.98868	-29.29212	-110.65912	138.3239	66.72094	104.14976	74.85764	57.77057	75.67131	67.53461	0
151	-38.24249	121.23683	158.66565	-41.49717	-98.45407	138.3239	69.16195	101.70875	72.41663	55.32956	68.34828	60.21158	0
152	-28.47845	111.47279	139.13757	-41.49717	-83.80801	123.67784	74.04397	109.03178	74.85764	52.88855	61.02525	55.32956	0
153	-23.59643	101.70875	124.49151	-39.05616	-74.04397	111.47279	74.04397	113.9138	72.41663	45.56552	51.26121	43.12451	0
154	-13.83239	91.94471	104.96343	-39.05616	-59.39791	96.82673	76.48498	118.79582	72.41663	40.6835	43.93818	35.80148	0
155	-1.62734	87.06269	87.87636	-43.93818	-44.75185	87.06269	81.367	123.67784	72.41663	38.24249	39.05616	33.36047	0
156	13.83239	84.62168	70.78929	-48.8202	-27.66478	77.29865	86.24902	126.11885	72.41663	38.24249	36.61515	28.47845	0
157	18.71441	72.41663	53.70222	-46.37919	-17.90074	62.65259	91.13104	128.55986	74.85764	38.24249	36.61515	26.03744	0
158	16.2734	62.65259	46.37919	-39.05616	-15.45973	55.32956	96.01306	131.00087	74.85764	40.6835	36.61515	21.15542	0
159	18.71441	52.88855	34.17414	-36.61515	-8.1367	43.12451	98.45407	128.55986	74.85764	40.6835	36.61515	16.2734	0
160	13.83239	40.6835	26.85111	-26.85111	-5.69569	33.36047	100.89508	131.00087	77.29865	40.6835	36.61515	13.83239	0
161	13.83239	28.47845	14.64606	-21.96909	-0.81367	21.15542	100.89508	128.55986	74.85764	35.80148	34.17414	8.95037	0
162	13.83239	13.83239	-0.81367	-14.64606	7.32303	6.50936	100.89508	128.55986	72.41663	30.91946	26.85111	4.06835	0
163	16.2734	1.62734	-15.45973	-9.76404	17.08707	-6.50936	100.89508	131.00087	69.97562	26.03744	21.96909	-0.81367	0
164	8.95037	-11.39138	-20.34175	0	14.64606	-16.2734	100.89508	128.55986	69.97562	23.59643	17.08707	-4.06835	0
165	6.50936	-23.59643	-30.10579	8.1367	17.08707	-26.03744	98.45407	121.23683	67.53461	18.71441	9.76404	-6.50936	0
166	13.83239	-33.36047	-47.19286	8.1367	29.29212	-40.6835	98.45407	109.03178	67.53461	13.83239	4.88202	-11.39138	0
167	18.71441	-40.6835	-59.39791	10.57771	39.05616	-50.44754	100.89508	99.26774	67.53461	13.83239	1.62734	-16.2734	0
168	16.2734	-45.56552	-61.83892	13.01872	39.05616	-52.88855	103.33609	89.5037	69.97562	13.83239	4.88202	-16.2734	0
169	11.39138	-52.88855	-64.27993	20.34175	36.61515	-57.77057	105.7771	74.85764	72.41663	13.83239	4.88202	-21.15542	0
170	18.71441	-57.77057	-76.48498	17.90074	46.37919	-67.53461	108.21811	65.0936	72.41663	11.39138	1.62734	-26.03744	0
171	23.59643	-57.77057	-81.367	15.45973	51.26121	-69.97562	108.21811	55.32956	74.85764	8.95037	-0.81367	-28.47845	0
172	26.03744	-55.32956	-81.367	13.01872	53.70222	-67.53461	108.21811	47.19286	77.29865	8.95037	-5.69569	-30.91946	0
173	30.91946	-55.32956	-86.24902	10.57771	58.58424	-69.97562	108.21811	39.86983	77.29865	3.25468	-10.57771	-35.80148	0
174	35.80148	-55.32956	-91.13104	8.1367	63.46626	-72.41663	105.7771	27.66478	77.29865	3.25468	-15.45973	-35.80148	0
175	40.6835	-52.88855	-93.57205	5.69569	65.90727	-72.41663	105.7771	13.01872	77.29865	3.25468	-17.90074	-38.24249	0
176	48.00653	-45.56552	-93.57205	-2.44101	70.78929	-69.97562	105.7771	-6.50936	77.29865	0.81367	-20.34175	-40.6835	0
177	55.32956	-40.6835	-96.01306	-7.32303	75.67131	-67.53461	105.7771	-26.03744	77.29865	0.81367	-20.34175	-40.6835	0
178	57.77057	-38.24249	-96.01306	-9.76404	75.67131	-67.53461	105.7771	-43.12451	77.29865	0.81367	-17.90074	-40.6835	0
179	48.00653	-48.00653	-96.01306	0	70.78929	-72.41663	103.33609	-62.65259	74.85764	-4.06835	-20.34175	-45.56552	0
180	38.24249	-55.32956	-93.57205	8.1367	65.90727	-74.85764	105.7771	-77.29865	79.73966	0.81367	-15.45973	-43.12451	0
181	33.36047	-62.65259	-96.01306	13.01872	63.46626	-79.73966	105.7771	-87.06269	84.62168	3.25468	-15.45973	-40.6835	0
182	33.36047	-65.0936	-98.45407	15.45973	65.90727	-82.18067	105.7771	-94.38572	87.06269	3.25468	-15.45973	-38.24249	0
183	33.36047	-77.29865	-110.65912	20.34175	70.78929	-94.38572	103.33609	-99.26774	87.06269	3.25468	-20.34175	-43.12451	0
184	30.91946	-87.06269	-117.98215	27.66478	73.2303	-101.70875	103.33609	-104.14976	84.62168	3.25468	-25.22377	-43.12451	0
185	33.36047	-89.5037	-122.86417	27.66478	78.11232	-106.59077	103.33609	-109.03178	84.62168	0.81367	-27.66478	-40.6835	0
186	38.24249	-91.94471	-130.1872	25.22377	82.99434	-111.47279	100.89508	-116.35481	84.62168	-1.62734	-30.10579	-40.6835	0
187	43.12451	-91.94471	-135.06922	22.78276	87.87636	-113.9138	98.45407	-123.67784	79.73966	-6.50936	-30.10579	-40.6835	0
188	45.56552	-91.94471	-137.51023	22.78276	90.31737	-113.9138	96.01306	-128.55986	79.73966	-8.95037	-27.66478	-40.6835	0
189	35.80148	-101.70875	-137.51023	32.5468	85.43535	-118.79582	96.01306	-138.3239	77.29865	-16.2734	-30.10579	-43.12451	0
190	28.47845	-101.70875	-130.1872	34.98781	78.11232	-116.35481	96.01306	-143.20592	77.29865	-16.2734	-27.66478	-38.24249	0
191	28.47845	-101.70875	-130.1872	34.98781	78.11232	-116.35481	96.01306	-148.08794	77.29865	-16.2734	-30.10579	-40.6835	0
192	38.24249	-99.26774	-137.51023	30.10579	87.87636	-118.79582	98.45407	-148.08794	82.18067	-13.83239	-30.10579	-38.24249	0
193	48.00653	-91.94471	-139.95124	20.34175	92.75838	-116.35481	100.89508	-140.76491	82.18067	-11.39138	-32.5468	-35.80148	0
194	62.65259	-82.18067	-144.83326	8.1367	102.52242	-113.9138	105.7771	-133.44188	89.5037	-4.06835	-30.10579	-30.91946	0
195	72.41663	-69.97562	-142.39225	-2.44101	107.40444	-106.59077	105.7771	-123.67784	89.5037	-1.62734	-27.66478	-28.47845	0
196	74.85764	-65.0936	-139.95124	-4.88202	107.40444	-101.70875	100.89508	-121.23683	87.06269	-1.62734	-27.66478	-28.47845	0
197	69.97562	-69.97562	-139.95124	0	104.96343	-104.14976	93.57205	-118.79582	84.62168	-4.06835	-30.10579	-33.36047	0
198	52.88855	-82.18067	-135.06922	13.01872	92.75838	-109.03178	86.24902	-118.79582	79.73966	-6.50936	-30.10579	-33.36047	0
199	35.80148	-96.82673	-132.62821	30.10579	82.99434	-113.9138	76.48498	-118.79582	77.29865	-13.83239	-34.98781	-38.24249	0
200	26.03744	-111.47279	-137.51023	42.31084	80.55333	-123.67784	69.16195	-123.67784	72.41663	-18.71441	-39.86983	-40.6835	0
201	18.71441	-121.23683	-139.95124	49.63387	78.11232	-131.00087	61.83892	-128.55986	67.53461	-23.59643	-44.75185	-43.12451	0
202	18.71441	-126.11885	-144.83326	52.07488	80.55333	-135.88289	54.51589	-131.00087	65.0936	-26.03744	-52.07488	-48.00653	0
203	26.03744	-126.11885	-152.15629	49.63387	87.87636	-138.3239	52.07488	-131.00087	60.21158	-28.47845	-54.51589	-50.44754	0
204	33.36047	-118.79582	-152.15629	42.31084	92.75838	-135.88289	49.63387	-126.11885	60.21158	-26.03744	-54.51589	-48.00653	0
205	45.56552	-111.47279	-157.03831	32.5468	100.08141	-133.44188	49.63387	-121.23683	62.65259	-21.15542	-52.07488	-48.00653	0
206	52.88855	-106.59077	-159.47932	25.22377	104.96343	-133.44188	52.07488	-116.35481	67.53461	-13.83239	-47.19286	-43.12451	0
207	50.44754	-104.14976	-154.5973	25.22377	102.52242	-128.55986	52.07488	-113.9138	72.41663	-8.95037	-42.31084	-40.6835	0
208	45.56552	-106.59077	-152.15629	30.10579	97.6404	-128.55986	52.07488	-111.47279	74.85764	-4.06835	-37.42882	-40.6835	0
209	43.12451	-106.59077	-149.71528	30.10579	95.19939	-128.55986	52.07488	-109.03178	79.73966	-1.62734	-37.42882	-40.6835	0
210	45.56552	-101.70875	-147.27427	27.66478	95.19939	-123.67784	52.07488	-109.03178	84.62168	3.25468	-32.5468	-35.80148	0
211	52.88855	-89.5037	-142.39225	17.90074	97.6404	-116.35481	49.63387	-109.03178	84.62168	3.25468	-32.5468	-35.80148	0
212	52.88855	-84.62168	-137.51023	15.45973	95.19939	-111.47279	44.75185	-111.47279	82.18067	-1.62734	-39.86983	-40.6835	0
213	48.00653	-84.62168	-132.62821	17.90074	90.31737	-109.03178	37.42882	-111.47279	77.29865	-6.50936	-47.19286	-48.00653	0
214	48.00653	-87.06269	-135.06922	17.90074	90.31737	-111.47279	34.98781	-111.47279	74.85764	-11.39138	-49.63387	-48.00653	0
215	45.56552	-91.94471	-137.51023	22.78276	90.31737	-113.9138	32.5468	-113.9138	72.41663	-16.2734	-54.51589	-52.88855	0
216	40.6835	-94.38572	-135.06922	25.22377	87.87636	-113.9138	30.10579	-113.9138	72.41663	-18.71441	-56.9569	-55.32956	0
217	38.24249	-104.14976	-142.39225	32.5468	90.31737	-123.67784	25.22377	-118.79582	65.0936	-23.59643	-61.83892	-57.77057	0
218	43.12451	-106.59077	-149.71528	30.10579	95.19939	-128.55986	20.34175	-118.79582	65.0936	-26.03744	-64.27993	-57.77057	0
219	45.56552	-106.59077	-152.15629	30.10579	97.6404	-128.55986	17.90074	-121.23683	62.65259	-28.47845	-66.72094	-60.21158	0
220	48.00653	-106.59077	-154.5973	27.66478	100.08141	-131.00087	15.45973	-121.23683	65.0936	-28.47845	-66.72094	-60.21158	0
221	50.44754	-101.70875	-152.15629	25.22377	100.08141	-126.11885	13.01872	-123.67784	65.0936	-28.47845	-69.16195	-57.77057	0
222	57.77057	-96.82673	-154.5973	17.90074	104.96343	-126.11885	13.01872	-123.67784	67.53461	-26.03744	-66.72094	-55.32956	0
223	55.32956	-96.82673	-152.15629	20.34175	102.52242	-123.67784	15.45973	-121.23683	67.53461	-26.03744	-66.72094	-60.21158	0
224	48.00653	-101.70875	-149.71528	25.22377	97.6404	-126.11885	17.90074	-123.67784	69.97562	-26.03744	-66.72094	-60.21158	0
225	30.91946	-113.9138	-144.83326	39.86983	87.87636	-128.55986	20.34175	-126.11885	72.41663	-21.15542	-64.27993	-57.77057	0
226	18.71441	-121.23683	-139.95124	49.63387	78.11232	-131.00087	22.78276	-135.88289	72.41663	-21.15542	-66.72094	-57.77057	0
227	11.39138	-128.55986	-139.95124	56.9569	75.67131	-133.44188	25.22377	-138.3239	72.41663	-21.15542	-64.27993	-60.21158	0
228	1.62734	-138.3239	-139.95124	66.72094	70.78929	-138.3239	27.66478	-143.20592	72.41663	-21.15542	-64.27993	-60.21158	0
229	6.50936	-135.88289	-142.39225	64.27993	73.2303	-138.3239	27.66478	-143.20592	74.85764	-18.71441	-61.83892	-57.77057	0
230	11.39138	-133.44188	-144.83326	59.39791	78.11232	-138.3239	30.10579	-140.76491	77.29865	-13.83239	-56.9569	-52.88855	0
231	21.15542	-123.67784	-144.83326	49.63387	82.99434	-133.44188	30.10579	-135.88289	82.18067	-11.39138	-54.51589	-50.44754	0
232	33.36047	-113.9138	-147.27427	39.86983	90.31737	-131.00087	32.5468	-128.55986	82.18067	-11.39138	-52.07488	-50.44754	0
233	48.00653	-106.59077	-154.5973	27.66478	100.08141	-131.00087	34.98781	-121.23683	82.18067	-8.95037	-52.07488	-50.44754	0
234	57.77057	-101.70875	-159.47932	20.34175	107.40444	-131.00087	39.86983	-111.47279	87.06269	-6.50936	-44.75185	-45.56552	0
235	62.65259	-94.38572	-157.03831	15.45973	109.84545	-126.11885	39.86983	-109.03178	89.5037	-6.50936	-44.75185	-45.56552	0
236	57.77057	-101.70875	-159.47932	20.34175	107.40444	-131.00087	34.98781	-113.9138	87.06269	-8.95037	-52.07488	-50.44754	0
237	50.44754	-104.14976	-154.5973	25.22377	102.52242	-128.55986	30.10579	-121.23683	84.62168	-13.83239	-56.9569	-57.77057	0
238	45.56552	-106.59077	-152.15629	30.10579	97.6404	-128.55986	27.66478	-126.11885	82.18067	-18.71441	-59.39791	-60.21158	0
239	43.12451	-111.47279	-154.5973	32.5468	97.6404	-133.44188	25.22377	-131.00087	82.18067	-21.15542	-64.27993	-62.65259	0
240	38.24249	-111.47279	-149.71528	34.98781	92.75838	-131.00087	22.78276	-138.3239	79.73966	-23.59643	-66.72094	-65.0936	0
241	30.91946	-109.03178	-139.95124	37.42882	85.43535	-123.67784	22.78276	-143.20592	77.29865	-26.03744	-71.60296	-67.53461	0
242	35.80148	-106.59077	-142.39225	34.98781	87.87636	-123.67784	22.78276	-138.3239	79.73966	-26.03744	-69.16195	-67.53461	0
243	43.12451	-111.47279	-154.5973	32.5468	97.6404	-133.44188	22.78276	-128.55986	79.73966	-23.59643	-69.16195	-67.53461	0
244	48.00653	-111.47279	-159.47932	30.10579	102.52242	-135.88289	27.66478	-123.67784	82.18067	-18.71441	-64.27993	-65.0936	0
245	57.77057	-99.26774	-157.03831	20.34175	107.40444	-128.55986	30.10579	-118.79582	87.06269	-13.83239	-59.39791	-62.65259	0
246	65.0936	-87.06269	-152.15629	10.57771	107.40444	-118.79582	32.5468	-118.79582	87.06269	-11.39138	-56.9569	-62.65259	0
247	74.85764	-72.41663	-147.27427	-2.44101	109.84545	-109.03178	32.5468	-118.79582	89.5037	-11.39138	-56.9569	-60.21158	0
248	74.85764	-69.97562	-144.83326	-2.44101	109.84545	-106.59077	32.5468	-118.79582	91.94471	-8.95037	-54.51589	-57.77057	0
249	62.65259	-72.41663	-135.06922	3.25468	97.6404	-104.14976	30.10579	-123.67784	89.5037	-11.39138	-56.9569	-60.21158	0
250	55.32956	-74.85764	-130.1872	8.1367	92.75838	-101.70875	25.22377	-126.11885	87.06269	-13.83239	-56.9569	-60.21158	0
251	45.56552	-82.18067	-127.74619	17.90074	85.43535	-104.14976	25.22377	-131.00087	84.62168	-16.2734	-59.39791	-60.21158	0
252	38.24249	-96.82673	-135.06922	27.66478	85.43535	-116.35481	20.34175	-131.00087	82.18067	-18.71441	-64.27993	-62.65259	0
253	26.03744	-106.59077	-132.62821	39.86983	78.11232	-118.79582	20.34175	-128.55986	79.73966	-18.71441	-69.16195	-65.0936	0
254	21.15542	-121.23683	-142.39225	49.63387	80.55333	-131.00087	15.45973	-128.55986	74.85764	-23.59643	-71.60296	-65.0936	0
255	23.59643	-121.23683	-144.83326	47.19286	82.99434	-133.44188	13.01872	-131.00087	72.41663	-26.03744	-74.04397	-67.53461	0
256	33.36047	-111.47279	-144.83326	37.42882	87.87636	-128.55986	15.45973	-128.55986	74.85764	-23.59643	-74.04397	-67.53461	0
257	40.6835	-106.59077	-147.27427	32.5468	92.75838	-126.11885	20.34175	-126.11885	79.73966	-21.15542	-71.60296	-67.53461	0
258	40.6835	-104.14976	-144.83326	30.10579	92.75838	-123.67784	20.34175	-126.11885	79.73966	-18.71441	-69.16195	-65.0936	0
259	48.00653	-99.26774	-147.27427	25.22377	97.6404	-123.67784	20.34175	-126.11885	79.73966	-18.71441	-66.72094	-62.65259	0
260	52.88855	-94.38572	-147.27427	20.34175	100.08141	-121.23683	25.22377	-128.55986	82.18067	-13.83239	-61.83892	-60.21158	0
261	60.21158	-89.5037	-149.71528	13.01872	104.96343	-118.79582	30.10579	-126.11885	87.06269	-6.50936	-56.9569	-55.32956	0
262	52.88855	-99.26774	-152.15629	22.78276	102.52242	-126.11885	27.66478	-128.55986	84.62168	-6.50936	-61.83892	-60.21158	0
263	40.6835	-111.47279	-152.15629	34.98781	95.19939	-131.00087	20.34175	-135.88289	77.29865	-13.83239	-66.72094	-65.0936	0
264	45.56552	-109.03178	-154.5973	30.10579	100.08141	-131.00087	17.90074	-135.88289	77.29865	-13.83239	-69.16195	-65.0936	0
265	40.6835	-109.03178	-149.71528	32.5468	95.19939	-128.55986	13.01872	-140.76491	72.41663	-18.71441	-74.04397	-67.53461	0
266	40.6835	-111.47279	-152.15629	34.98781	95.19939	-131.00087	5.69569	-145.64693	65.0936	-26.03744	-78.92599	-69.97562	0
267	35.80148	-118.79582	-154.5973	39.86983	95.19939	-135.88289	0	-150.52895	62.65259	-30.91946	-81.367	-69.97562	0
268	38.24249	-121.23683	-159.47932	39.86983	97.6404	-140.76491	0	-152.96996	60.21158	-30.91946	-78.92599	-65.0936	0
269	40.6835	-121.23683	-161.92033	39.86983	100.08141	-140.76491	0	-160.29299	60.21158	-33.36047	-76.48498	-62.65259	0
270	33.36047	-126.11885	-159.47932	44.75185	95.19939	-143.20592	0	-167.61602	57.77057	-33.36047	-76.48498	-62.65259	0
271	26.03744	-135.88289	-161.92033	54.51589	92.75838	-148.08794	-2.44101	-172.49804	55.32956	-35.80148	-76.48498	-65.0936	0
272	21.15542	-140.76491	-161.92033	59.39791	90.31737	-150.52895	-2.44101	-174.93905	52.88855	-35.80148	-78.92599	-67.53461	0
273	16.2734	-143.20592	-159.47932	61.83892	87.87636	-150.52895	-2.44101	-174.93905	52.88855	-35.80148	-78.92599	-72.41663	0
274	11.39138	-138.3239	-149.71528	61.83892	80.55333	-143.20592	-2.44101	-177.38006	52.88855	-35.80148	-78.92599	-72.41663	0
275	13.83239	-131.00087	-144.83326	56.9569	78.11232	-138.3239	-2.44101	-177.38006	50.44754	-35.80148	-83.80801	-77.29865	0
276	23.59643	-121.23683	-144.83326	47.19286	82.99434	-133.44188	0	-177.38006	50.44754	-35.80148	-83.80801	-77.29865	0
277	38.24249	-113.9138	-152.15629	37.42882	95.19939	-133.44188	0	-179.82107	50.44754	-33.36047	-83.80801	-74.85764	0
278	45.56552	-111.47279	-157.03831	32.5468	100.08141	-133.44188	3.25468	-184.70309	50.44754	-30.91946	-83.80801	-72.41663	0
279	52.88855	-113.9138	-166.80235	30.10579	109.84545	-140.76491	3.25468	-189.58511	50.44754	-30.91946	-86.24902	-72.41663	0
280	60.21158	-113.9138	-174.12538	25.22377	117.16848	-143.20592	3.25468	-194.46713	48.00653	-30.91946	-86.24902	-72.41663	0
281	65.0936	-111.47279	-176.56639	22.78276	119.60949	-143.20592	3.25468	-196.90814	48.00653	-28.47845	-86.24902	-72.41663	0
282	65.0936	-109.03178	-174.12538	20.34175	119.60949	-140.76491	3.25468	-196.90814	50.44754	-28.47845	-86.24902	-72.41663	0
283	60.21158	-109.03178	-169.24336	22.78276	114.72747	-138.3239	3.25468	-196.90814	50.44754	-26.03744	-86.24902	-72.41663	0
284	52.88855	-111.47279	-164.36134	27.66478	107.40444	-138.3239	3.25468	-196.90814	52.88855	-23.59643	-83.80801	-69.97562	0
285	50.44754	-104.14976	-154.5973	25.22377	102.52242	-128.55986	5.69569	-194.46713	57.77057	-21.15542	-78.92599	-65.0936	0
286	50.44754	-101.70875	-152.15629	25.22377	100.08141	-126.11885	10.57771	-194.46713	57.77057	-18.71441	-76.48498	-60.21158	1500	QRS+0
287	55.32956	-99.26774	-154.5973	20.34175	104.96343	-126.11885	10.57771	-194.46713	55.32956	-16.2734	-76.48498	-60.21158	0
288	60.21158	-94.38572	-154.5973	15.45973	107.40444	-123.67784	15.45973	-194.46713	55.32956	-13.83239	-71.60296	-55.32956	0
289	60.21158	-91.94471	-152.15629	15.45973	104.96343	-121.23683	17.90074	-196.90814	48.00653	-13.83239	-71.60296	-60.21158	0
290	62.65259	-89.5037	-152.15629	13.01872	107.40444	-121.23683	20.34175	-196.90814	43.12451	-13.83239	-71.60296	-60.21158	0
291	60.21158	-91.94471	-152.15629	15.45973	104.96343	-121.23683	20.34175	-196.90814	38.24249	-16.2734	-74.04397	-62.65259	0
292	60.21158	-89.5037	-149.71528	13.01872	104.96343	-118.79582	20.34175	-194.46713	33.36047	-16.2734	-78.92599	-67.53461	0
293	62.65259	-79.73966	-142.39225	8.1367	102.52242	-111.47279	22.78276	-187.1441	33.36047	-13.83239	-78.92599	-67.53461	0
294	62.65259	-74.85764	-137.51023	5.69569	100.08141	-106.59077	22.78276	-184.70309	33.36047	-13.83239	-78.92599	-67.53461	0
295	55.32956	-79.73966	-135.06922	10.57771	95.19939	-106.59077	25.22377	-184.70309	30.91946	-13.83239	-78.92599	-65.0936	0
296	52.88855	-84.62168	-137.51023	15.45973	95.19939	-111.47279	25.22377	-189.58511	28.47845	-13.83239	-78.92599	-62.65259	0
297	57.77057	-79.73966	-137.51023	10.57771	97.6404	-109.03178	27.66478	-189.58511	30.91946	-8.95037	-78.92599	-55.32956	0
298	67.53461	-72.41663	-139.95124	0	102.52242	-106.59077	32.5468	-187.1441	30.91946	-6.50936	-74.04397	-45.56552	0
299	72.41663	-69.97562	-142.39225	-2.44101	107.40444	-106.59077	34.98781	-187.1441	30.91946	-6.50936	-71.60296	-40.6835	0
300	67.53461	-77.29865	-144.83326	3.25468	104.96343	-111.47279	34.98781	-192.02612	26.03744	-8.95037	-71.60296	-35.80148	0
301	72.41663	-74.85764	-147.27427	0	109.84545	-111.47279	34.98781	-189.58511	23.59643	-8.95037	-71.60296	-33.36047	0
302	79.73966	-65.0936	-144.83326	-7.32303	112.28646	-104.14976	37.42882	-182.26208	26.03744	-6.50936	-66.72094	-28.47845	0
303	82.18067	-52.88855	-135.06922	-14.64606	107.40444	-94.38572	37.42882	-174.93905	26.03744	-4.06835	-66.72094	-26.03744	0
304	79.73966	-45.56552	-125.30518	-17.08707	102.52242	-84.62168	37.42882	-172.49804	23.59643	-4.06835	-66.72094	-26.03744	0
305	74.85764	-50.44754	-125.30518	-12.20505	100.08141	-87.06269	32.5468	-172.49804	21.15542	-8.95037	-71.60296	-28.47845	0
306	69.97562	-50.44754	-120.42316	-9.76404	95.19939	-84.62168	32.5468	-172.49804	21.15542	-8.95037	-71.60296	-30.91946	0
307	72.41663	-38.24249	-110.65912	-17.08707	90.31737	-74.85764	34.98781	-170.05703	23.59643	-4.06835	-66.72094	-28.47845	0
308	79.73966	-21.15542	-100.89508	-29.29212	90.31737	-60.21158	37.42882	-167.61602	23.59643	-1.62734	-64.27993	-23.59643	0
309	84.62168	-8.95037	-93.57205	-39.05616	87.87636	-50.44754	39.86983	-167.61602	23.59643	0.81367	-61.83892	-23.59643	0
310	89.5037	-6.50936	-96.01306	-41.49717	92.75838	-50.44754	39.86983	-167.61602	21.15542	0.81367	-61.83892	-23.59643	0
311	87.06269	-6.50936	-93.57205	-41.49717	90.31737	-50.44754	32.5468	-170.05703	16.2734	-4.06835	-64.27993	-23.59643	0
312	87.06269	-1.62734	-88.69003	-43.93818	87.87636	-45.56552	25.22377	-170.05703	6.50936	-8.95037	-66.72094	-26.03744	0
313	89.5037	-1.62734	-91.13104	-43.93818	90.31737	-45.56552	15.45973	-172.49804	-1.62734	-18.71441	-74.04397	-33.36047	0
314	84.62168	-6.50936	-91.13104	-39.05616	87.87636	-48.00653	3.25468	-177.38006	-11.39138	-23.59643	-78.92599	-40.6835	0
315	79.73966	-18.71441	-98.45407	-31.73313	87.87636	-57.77057	-4.88202	-187.1441	-16.2734	-33.36047	-86.24902	-48.00653	0
316	77.29865	-21.15542	-98.45407	-29.29212	87.87636	-60.21158	-14.64606	-196.90814	-21.15542	-38.24249	-91.13104	-52.88855	0
317	74.85764	-16.2734	-91.13104	-29.29212	82.99434	-52.88855	-19.52808	-204.23117	-18.71441	-38.24249	-91.13104	-52.88855	0
318	77.29865	-13.83239	-91.13104	-31.73313	82.99434	-52.88855	-19.52808	-206.67218	-11.39138	-38.24249	-86.24902	-50.44754	0
319	79.73966	-16.2734	-96.01306	-31.73313	87.87636	-55.32956	-17.08707	-211.5542	-4.06835	-35.80148	-81.367	-45.56552	0
320	91.94471	-13.83239	-105.7771	-39.05616	97.6404	-60.21158	-17.08707	-211.5542	-1.62734	-33.36047	-76.48498	-40.6835	0
321	101.70875	-13.83239	-115.54114	-43.93818	107.40444	-65.0936	-17.08707	-211.5542	1.62734	-30.91946	-74.04397	-38.24249	0
322	104.14976	-16.2734	-120.42316	-43.93818	112.28646	-67.53461	-14.64606	-206.67218	1.62734	-28.47845	-71.60296	-35.80148	0
323	106.59077	-21.15542	-127.74619	-43.93818	117.16848	-74.85764	-14.64606	-204.23117	-1.62734	-28.47845	-71.60296	-38.24249	0
324	106.59077	-23.59643	-130.1872	-41.49717	117.16848	-77.29865	-14.64606	-204.23117	-4.06835	-28.47845	-69.16195	-35.80148	0
325	106.59077	-23.59643	-130.1872	-41.49717	117.16848	-77.29865	-14.64606	-209.11319	-8.95037	-28.47845	-71.60296	-38.24249	0
326	101.70875	-21.15542	-122.86417	-41.49717	112.28646	-72.41663	-19.52808	-216.43622	-16.2734	-30.91946	-76.48498	-43.12451	0
327	89.5037	-33.36047	-122.86417	-29.29212	104.96343	-77.29865	-21.96909	-223.75925	-21.15542	-33.36047	-78.92599	-45.56552	0
328	84.62168	-40.6835	-125.30518	-21.96909	104.96343	-82.18067	-21.96909	-228.64127	-21.15542	-33.36047	-76.48498	-43.12451	0
329	87.06269	-30.91946	-117.98215	-29.29212	102.52242	-74.85764	-21.96909	-233.52329	-23.59643	-30.91946	-76.48498	-43.12451	0
330	84.62168	-35.80148	-120.42316	-24.4101	102.52242	-77.29865	-21.96909	-235.9643	-23.59643	-28.47845	-76.48498	-45.56552	0
331	82.18067	-38.24249	-120.42316	-21.96909	100.08141	-79.73966	-21.96909	-238.40531	-23.59643	-28.47845	-76.48498	-45.56552	0
332	72.41663	-43.12451	-115.54114	-14.64606	92.75838	-79.73966	-24.4101	-235.9643	-23.59643	-28.47845	-74.04397	-45.56552	0
333	62.65259	-48.00653	-110.65912	-7.32303	85.43535	-79.73966	-21.96909	-235.9643	-21.15542	-26.03744	-74.04397	-45.56552	0
334	65.0936	-48.00653	-113.10013	-9.76404	87.87636	-79.73966	-19.52808	-235.9643	-18.71441	-21.15542	-71.60296	-43.12451	0
335	50.44754	-69.97562	-120.42316	8.1367	85.43535	-94.38572	-21.96909	-238.40531	-18.71441	-26.03744	-74.04397	-43.12451	0
336	35.80148	-87.06269	-122.86417	25.22377	78.11232	-104.14976	-24.4101	-243.28733	-26.03744	-33.36047	-76.48498	-45.56552	0
337	30.91946	-96.82673	-127.74619	32.5468	78.11232	-111.47279	-24.4101	-243.28733	-26.03744	-35.80148	-76.48498	-45.56552	0
338	30.91946	-96.82673	-127.74619	32.5468	78.11232	-111.47279	-24.4101	-243.28733	-28.47845	-35.80148	-76.48498	-43.12451	0
339	35.80148	-94.38572	-130.1872	27.66478	82.99434	-111.47279	-21.96909	-243.28733	-28.47845	-35.80148	-76.48498	-43.12451	0
340	33.36047	-94.38572	-127.74619	30.10579	80.55333	-111.47279	-19.52808	-240.84632	-26.03744	-35.80148	-74.04397	-43.12451	0
341	35.80148	-82.18067	-117.98215	22.78276	75.67131	-99.26774	-19.52808	-238.40531	-26.03744	-33.36047	-71.60296	-43.12451	0
342	45.56552	-74.85764	-120.42316	13.01872	82.99434	-96.82673	-17.08707	-235.9643	-23.59643	-28.47845	-66.72094	-40.6835	0
343	52.88855	-65.0936	-117.98215	5.69569	85.43535	-91.94471	-14.64606	-233.52329	-21.15542	-26.03744	-64.27993	-40.6835	0
344	50.44754	-65.0936	-115.54114	5.69569	82.99434	-89.5037	-14.64606	-238.40531	-21.15542	-26.03744	-64.27993	-40.6835	0
345	45.56552	-72.41663	-117.98215	13.01872	80.55333	-94.38572	-19.52808	-243.28733	-23.59643	-26.03744	-66.72094	-43.12451	0
346	40.6835	-84.62168	-125.30518	20.34175	82.99434	-104.14976	-26.85111	-248.16935	-28.47845	-33.36047	-69.16195	-45.56552	0
347	33.36047	-89.5037	-122.86417	27.66478	78.11232	-106.59077	-26.85111	-250.61036	-33.36047	-33.36047	-69.16195	-45.56552	0
348	23.59643	-94.38572	-117.98215	34.98781	70.78929	-106.59077	-29.29212	-255.49238	-35.80148	-35.80148	-71.60296	-45.56552	0
349	13.83239	-99.26774	-113.10013	42.31084	63.46626	-106.59077	-29.29212	-257.93339	-38.24249	-35.80148	-74.04397	-45.56552	0
350	6.50936	-104.14976	-110.65912	47.19286	58.58424	-106.59077	-29.29212	-257.93339	-38.24249	-33.36047	-69.16195	-43.12451	0
351	1.62734	-111.47279	-113.10013	54.51589	56.14323	-111.47279	-26.85111	-253.05137	-35.80148	-30.91946	-59.39791	-38.24249	0
352	1.62734	-106.59077	-108.21811	52.07488	53.70222	-106.59077	-24.4101	-250.61036	-35.80148	-28.47845	-56.9569	-38.24249	0
353	8.95037	-96.82673	-105.7771	42.31084	56.14323	-101.70875	-21.96909	-250.61036	-35.80148	-28.47845	-59.39791	-43.12451	0
354	8.95037	-94.38572	-103.33609	42.31084	56.14323	-99.26774	-24.4101	-250.61036	-35.80148	-30.91946	-59.39791	-43.12451	0
355	8.95037	-91.94471	-100.89508	39.86983	53.70222	-96.82673	-21.96909	-253.05137	-35.80148	-30.91946	-59.39791	-45.56552	0
356	8.95037	-87.06269	-96.01306	37.42882	51.26121	-91.94471	-21.96909	-253.05137	-35.80148	-30.91946	-61.83892	-45.56552	0
357	16.2734	-82.18067	-98.45407	32.5468	56.14323	-89.5037	-21.96909	-253.05137	-33.36047	-30.91946	-66.72094	-45.56552	0
358	18.71441	-82.18067	-100.89508	30.10579	58.58424	-91.94471	-19.52808	-253.05137	-30.91946	-28.47845	-66.72094	-43.12451	0
359	11.39138	-94.38572	-105.7771	39.86983	58.58424	-99.26774	-17.08707	-250.61036	-30.91946	-28.47845	-64.27993	-38.24249	0
360	6.50936	-101.70875	-108.21811	47.19286	56.14323	-104.14976	-12.20505	-245.72834	-26.03744	-23.59643	-61.83892	-35.80148	0
361	11.39138	-101.70875	-113.10013	44.75185	61.02525	-106.59077	-7.32303	-240.84632	-23.59643	-21.15542	-54.51589	-33.36047	0
362	13.83239	-106.59077	-120.42316	44.75185	65.90727	-113.9138	-7.32303	-233.52329	-23.59643	-21.15542	-54.51589	-35.80148	0
363	8.95037	-111.47279	-120.42316	49.63387	63.46626	-116.35481	-7.32303	-233.52329	-28.47845	-21.15542	-54.51589	-38.24249	0
364	6.50936	-113.9138	-120.42316	52.07488	63.46626	-116.35481	-7.32303	-231.08228	-30.91946	-21.15542	-54.51589	-43.12451	0
365	8.95037	-106.59077	-115.54114	47.19286	61.02525	-111.47279	-4.88202	-228.64127	-30.91946	-16.2734	-52.07488	-43.12451	0
366	16.2734	-99.26774	-115.54114	39.86983	65.90727	-106.59077	-4.88202	-223.75925	-30.91946	-16.2734	-49.63387	-45.56552	0
367	16.2734	-96.82673	-113.10013	39.86983	63.46626	-104.14976	-4.88202	-221.31824	-30.91946	-13.83239	-49.63387	-43.12451	0
368	13.83239	-96.82673	-110.65912	39.86983	61.02525	-104.14976	-4.88202	-218.87723	-30.91946	-11.39138	-47.19286	-40.6835	0
369	13.83239	-89.5037	-103.33609	37.42882	58.58424	-96.82673	0	-211.5542	-30.91946	-8.95037	-44.75185	-40.6835	0
370	18.71441	-82.18067	-100.89508	30.10579	58.58424	-91.94471	0	-206.67218	-28.47845	-8.95037	-44.75185	-38.24249	-1500	QRS-0
371	21.15542	-74.85764	-96.01306	25.22377	58.58424	-84.62168	0	-201.79016	-28.47845	-6.50936	-42.31084	-40.6835	0
372	18.71441	-74.85764	-93.57205	27.66478	56.14323	-84.62168	0	-194.46713	-30.91946	-6.50936	-39.86983	-40.6835	0
373	13.83239	-74.85764	-88.69003	30.10579	51.26121	-82.18067	0	-187.1441	-30.91946	-6.50936	-37.42882	-43.12451	0
374	13.83239	-72.41663	-86.24902	27.66478	48.8202	-79.73966	0	-182.26208	-30.91946	-6.50936	-37.42882	-45.56552	0
375	18.71441	-67.53461	-86.24902	22.78276	51.26121	-77.29865	0	-177.38006	-30.91946	-8.95037	-39.86983	-52.88855	0
376	18.71441	-74.85764	-93.57205	27.66478	56.14323	-84.62168	0	-172.49804	-33.36047	-11.39138	-42.31084	-55.32956	0
377	8.95037	-87.06269	-96.01306	37.42882	51.26121	-91.94471	-4.88202	-172.49804	-40.6835	-16.2734	-44.75185	-60.21158	0
378	8.95037	-94.38572	-103.33609	42.31084	56.14323	-99.26774	-4.88202	-167.61602	-43.12451	-18.71441	-47.19286	-60.21158	0
379	11.39138	-94.38572	-105.7771	39.86983	58.58424	-99.26774	-7.32303	-162.734	-43.12451	-18.71441	-44.75185	-62.65259	0
380	18.71441	-84.62168	-103.33609	32.5468	61.02525	-94.38572	-9.76404	-155.41097	-43.12451	-18.71441	-44.75185	-65.0936	0
381	21.15542	-79.73966	-100.89508	27.66478	61.02525	-89.5037	-14.64606	-150.52895	-48.00653	-21.15542	-42.31084	-62.65259	0
382	18.71441	-72.41663	-91.13104	25.22377	53.70222	-82.18067	-24.4101	-138.3239	-55.32956	-26.03744	-42.31084	-62.65259	0
383	30.91946	-48.00653	-78.92599	8.1367	53.70222	-62.65259	-34.17414	-126.11885	-60.21158	-30.91946	-44.75185	-65.0936	0
384	55.32956	-18.71441	-74.04397	-19.52808	63.46626	-45.56552	-48.8202	-113.9138	-69.97562	-38.24249	-47.19286	-67.53461	0
385	87.06269	6.50936	-81.367	-46.37919	85.43535	-38.24249	-73.2303	-113.9138	-87.06269	-52.88855	-59.39791	-77.29865	0
386	123.67784	21.15542	-103.33609	-73.2303	114.72747	-40.6835	-100.08141	-121.23683	-111.47279	-74.85764	-74.04397	-89.5037	0
387	162.734	33.36047	-130.1872	-97.6404	146.4606	-48.00653	-131.81454	-140.76491	-140.76491	-99.26774	-98.45407	-109.03178	0
388	213.99521	67.53461	-147.27427	-141.57858	180.63474	-40.6835	-170.8707	-174.93905	-170.05703	-123.67784	-117.98215	-128.55986	0
389	272.57945	109.03178	-164.36134	-190.39878	219.6909	-28.47845	-209.92686	-218.87723	-199.34915	-148.08794	-137.51023	-148.08794	0
390	328.72268	150.52895	-179.0074	-239.21898	253.86504	-13.83239	-248.98302	-272.57945	-228.64127	-170.05703	-154.5973	-162.734	0
391	362.89682	184.70309	-179.0074	-273.39312	270.95211	4.06835	-288.03918	-328.72268	-257.93339	-192.02612	-171.68437	-174.93905	0
392	372.66086	218.87723	-154.5973	-295.36221	263.62908	33.36047	-324.65433	-394.62995	-279.90248	-206.67218	-181.44841	-182.26208	0
393	375.10187	253.05137	-122.86417	-314.89029	248.98302	65.0936	-353.94645	-467.86025	-292.10753	-209.11319	-176.56639	-174.93905	0
394	355.57379	275.02046	-81.367	-314.89029	219.6909	96.82673	-368.59251	-548.41358	-287.22551	-199.34915	-159.47932	-155.41097	0
395	311.63561	294.54854	-17.90074	-302.68524	165.98868	138.3239	-383.23857	-650.936	-282.34349	-184.70309	-137.51023	-131.00087	0
396	240.84632	292.10753	51.26121	-266.07009	95.19939	172.49804	-390.5616	-768.10448	-270.13844	-165.17501	-110.65912	-104.14976	0
397	152.96996	279.90248	126.93252	-217.24989	14.64606	204.23117	-395.44362	-902.36003	-255.49238	-140.76491	-78.92599	-69.97562	0
398	74.85764	262.81541	187.95777	-168.42969	-56.9569	226.20026	-400.32564	-1036.61558	-240.84632	-118.79582	-47.19286	-38.24249	0
399	-4.06835	233.52329	236.77797	-114.72747	-120.42316	233.52329	-402.76665	-1161.10709	-231.08228	-101.70875	-25.22377	-16.2734	0
400	-79.73966	187.1441	266.07009	-53.70222	-171.68437	226.20026	-407.64867	-1263.62951	-228.64127	-94.38572	-10.57771	-6.50936	0
401	-148.08794	111.47279	258.74706	17.90074	-203.4175	184.70309	-407.64867	-1331.97779	-228.64127	-89.5037	-3.25468	-0.81367	0
402	-201.79016	26.03744	227.01393	86.24902	-213.18154	126.11885	-400.32564	-1363.71092	-223.75925	-84.62168	-0.81367	1.62734	0
403	-238.40531	-48.00653	190.39878	142.39225	-215.62255	69.97562	-390.5616	-1368.59294	-223.75925	-84.62168	-3.25468	-4.06835	0
404	-257.93339	-123.67784	134.25555	188.77144	-196.09447	4.06835	-378.35655	-1344.18284	-221.31824	-84.62168	-5.69569	-6.50936	0
405	-262.81541	-182.26208	80.55333	220.50457	-171.68437	-52.88855	-363.71049	-1302.68567	-216.43622	-84.62168	-10.57771	-13.83239	0
406	-260.3744	-218.87723	41.49717	237.59164	-152.15629	-89.5037	-351.50544	-1251.42446	-213.99521	-82.18067	-13.01872	-18.71441	0
407	-248.16935	-223.75925	24.4101	235.15063	-137.51023	-101.70875	-336.85938	-1185.51719	-204.23117	-77.29865	-13.01872	-21.15542	0
408	-231.08228	-216.43622	14.64606	222.94558	-122.86417	-101.70875	-319.77231	-1117.16891	-196.90814	-74.85764	-13.01872	-21.15542	0
409	-211.5542	-204.23117	7.32303	205.85851	-110.65912	-99.26774	-300.24423	-1041.4976	-189.58511	-74.85764	-15.45973	-26.03744	0
410	-189.58511	-182.26208	7.32303	183.88942	-98.45407	-89.5037	-280.71615	-958.50326	-184.70309	-74.85764	-15.45973	-28.47845	0
411	-174.93905	-155.41097	19.52808	164.36134	-98.45407	-69.97562	-256.30605	-870.6269	-174.93905	-74.85764	-13.01872	-28.47845	0
412	-167.61602	-131.00087	36.61515	147.27427	-103.33609	-48.00653	-224.57292	-780.30953	-162.734	-72.41663	-10.57771	-28.47845	0
413	-162.734	-116.35481	46.37919	137.51023	-105.7771	-35.80148	-192.83979	-694.87418	-148.08794	-67.53461	-17.90074	-30.91946	0
414	-157.85198	-109.03178	48.8202	132.62821	-103.33609	-30.91946	-161.10666	-619.20287	-135.88289	-65.0936	-17.90074	-28.47845	0
415	-152.96996	-96.82673	56.14323	122.86417	-105.7771	-21.15542	-131.81454	-548.41358	-121.23683	-57.77057	-20.34175	-28.47845	0
416	-145.64693	-89.5037	56.14323	115.54114	-100.89508	-18.71441	-107.40444	-484.94732	-106.59077	-52.88855	-20.34175	-28.47845	0
417	-143.20592	-79.73966	63.46626	110.65912	-103.33609	-8.95037	-80.55333	-431.2451	-91.94471	-43.12451	-15.45973	-26.03744	0
418	-133.44188	-67.53461	65.90727	98.45407	-100.89508	-1.62734	-61.02525	-382.4249	-77.29865	-33.36047	-13.01872	-23.59643	0
419	-118.79582	-52.88855	65.90727	83.80801	-93.57205	6.50936	-46.37919	-340.92773	-67.53461	-26.03744	-5.69569	-18.71441	0
420	-104.14976	-35.80148	68.34828	69.16195	-86.24902	16.2734	-36.61515	-306.75359	-62.65259	-21.15542	1.62734	-18.71441	0
421	-87.06269	-18.71441	68.34828	52.07488	-78.92599	23.59643	-29.29212	-275.02046	-60.21158	-18.71441	1.62734	-16.2734	0
422	-72.41663	-1.62734	70.78929	34.98781	-71.60296	33.36047	-24.4101	-248.16935	-55.32956	-13.83239	7.32303	-11.39138	0
423	-65.0936	6.50936	70.78929	27.66478	-66.72094	38.24249	-21.96909	-226.20026	-52.88855	-13.83239	7.32303	-11.39138	0
424	-55.32956	13.83239	68.34828	20.34175	-61.83892	40.6835	-21.96909	-213.99521	-50.44754	-13.83239	1.62734	-16.2734	0
425	-52.88855	13.83239	65.90727	17.90074	-59.39791	38.24249	-19.52808	-201.79016	-48.00653	-13.83239	1.62734	-16.2734	0
426	-55.32956	6.50936	61.02525	22.78276	-56.9569	33.36047	-19.52808	-194.46713	-48.00653	-13.83239	-0.81367	-18.71441	0
427	-57.77057	6.50936	63.46626	25.22377	-59.39791	33.36047	-17.08707	-187.1441	-40.6835	-8.95037	1.62734	-13.83239	0
428	-55.32956	13.83239	68.34828	20.34175	-61.83892	40.6835	-14.64606	-179.82107	-35.80148	-4.06835	7.32303	-13.83239	0
429	-52.88855	21.15542	73.2303	15.45973	-61.83892	45.56552	-12.20505	-179.82107	-35.80148	-4.06835	9.76404	-13.83239	0
430	-57.77057	23.59643	80.55333	15.45973	-69.16195	50.44754	-9.76404	-172.49804	-30.91946	-1.62734	17.08707	-11.39138	0
431	-69.97562	26.03744	95.19939	20.34175	-81.367	60.21158	-7.32303	-165.17501	-30.91946	-1.62734	19.52808	-8.95037	0
432	-74.85764	33.36047	107.40444	20.34175	-91.13104	69.97562	-4.88202	-157.85198	-26.03744	0.81367	21.96909	-6.50936	0
433	-72.41663	45.56552	117.16848	13.01872	-93.57205	79.73966	-2.44101	-155.41097	-23.59643	0.81367	21.96909	-4.06835	0
434	-77.29865	48.00653	124.49151	13.01872	-100.89508	84.62168	-7.32303	-157.85198	-23.59643	0.81367	17.08707	-4.06835	0
435	-84.62168	50.44754	134.25555	15.45973	-108.21811	91.94471	-7.32303	-157.85198	-26.03744	-1.62734	14.64606	-4.06835	0
436	-77.29865	65.0936	141.57858	5.69569	-108.21811	101.70875	-4.88202	-150.52895	-21.15542	0.81367	17.08707	-0.81367	0
437	-65.0936	79.73966	144.01959	-7.32303	-103.33609	111.47279	-4.88202	-150.52895	-18.71441	3.25468	21.96909	6.50936	0
438	-57.77057	91.94471	148.90161	-17.08707	-103.33609	118.79582	-4.88202	-150.52895	-18.71441	3.25468	26.85111	6.50936	0
439	-62.65259	94.38572	156.22464	-17.08707	-108.21811	123.67784	-7.32303	-152.96996	-21.15542	0.81367	29.29212	4.06835	0
440	-69.97562	89.5037	158.66565	-9.76404	-113.10013	123.67784	-7.32303	-152.96996	-21.15542	3.25468	34.17414	4.06835	0
441	-77.29865	84.62168	161.10666	-4.88202	-117.98215	121.23683	-7.32303	-148.08794	-21.15542	3.25468	36.61515	4.06835	0
442	-87.06269	77.29865	163.54767	3.25468	-125.30518	118.79582	-9.76404	-148.08794	-21.15542	0.81367	34.17414	4.06835	0
443	-96.82673	67.53461	163.54767	13.01872	-130.1872	113.9138	-14.64606	-152.96996	-26.03744	-1.62734	26.85111	1.62734	0
444	-104.14976	60.21158	163.54767	20.34175	-132.62821	111.47279	-17.08707	-152.96996	-26.03744	-4.06835	21.96909	-0.81367	0
445	-104.14976	65.0936	168.42969	17.90074	-135.06922	116.35481	-17.08707	-150.52895	-28.47845	-4.06835	21.96909	4.06835	0
446	-91.94471	72.41663	163.54767	8.1367	-127.74619	116.35481	-17.08707	-150.52895	-28.47845	-6.50936	19.52808	4.06835	0
447	-87.06269	77.29865	163.54767	3.25468	-125.30518	118.79582	-17.08707	-148.08794	-28.47845	-8.95037	17.08707	4.06835	0
448	-87.06269	84.62168	170.8707	0	-127.74619	126.11885	-19.52808	-150.52895	-28.47845	-8.95037	21.96909	4.06835	0
449	-82.18067	91.94471	173.31171	-4.88202	-127.74619	131.00087	-21.96909	-150.52895	-30.91946	-11.39138	26.85111	6.50936	0
450	-77.29865	99.26774	175.75272	-12.20505	-125.30518	135.88289	-21.96909	-150.52895	-28.47845	-8.95037	31.73313	6.50936	0
451	-77.29865	104.14976	180.63474	-14.64606	-127.74619	140.76491	-19.52808	-150.52895	-28.47845	-8.95037	34.17414	8.95037	0
452	-72.41663	109.03178	180.63474	-19.52808	-125.30518	143.20592	-19.52808	-152.96996	-26.03744	-6.50936	31.73313	6.50936	0
453	-65.0936	121.23683	185.51676	-29.29212	-125.30518	152.96996	-19.52808	-157.85198	-23.59643	-1.62734	34.17414	11.39138	0
454	-55.32956	126.11885	180.63474	-36.61515	-117.98215	152.96996	-14.64606	-160.29299	-16.2734	3.25468	36.61515	18.71441	0
455	-55.32956	126.11885	180.63474	-36.61515	-117.98215	152.96996	-12.20505	-165.17501	-11.39138	3.25468	39.05616	23.59643	0
456	-67.53461	123.67784	190.39878	-29.29212	-127.74619	155.41097	-12.20505	-172.49804	-8.95037	3.25468	36.61515	23.59643	0
457	-69.97562	118.79582	187.95777	-24.4101	-127.74619	152.96996	-14.64606	-184.70309	-11.39138	3.25468	36.61515	23.59643	0
458	-74.85764	111.47279	185.51676	-19.52808	-130.1872	148.08794	-17.08707	-196.90814	-16.2734	-1.62734	39.05616	21.15542	0
459	-87.06269	96.82673	183.07575	-4.88202	-135.06922	138.3239	-19.52808	-209.11319	-18.71441	-1.62734	41.49717	21.15542	0
460	-101.70875	84.62168	185.51676	8.1367	-142.39225	133.44188	-21.96909	-221.31824	-23.59643	-6.50936	43.93818	16.2734	0
461	-104.14976	89.5037	192.83979	5.69569	-147.27427	140.76491	-24.4101	-228.64127	-26.03744	-6.50936	43.93818	16.2734	0
462	-91.94471	96.82673	187.95777	-2.44101	-139.95124	140.76491	-24.4101	-233.52329	-28.47845	-4.06835	46.37919	18.71441	0
463	-82.18067	111.47279	192.83979	-14.64606	-137.51023	150.52895	-24.4101	-235.9643	-28.47845	-4.06835	43.93818	21.15542	0
464	-82.18067	121.23683	202.60383	-19.52808	-142.39225	160.29299	-21.96909	-240.84632	-23.59643	-1.62734	41.49717	21.15542	0
465	-82.18067	133.44188	214.80888	-26.85111	-147.27427	172.49804	-21.96909	-248.16935	-23.59643	-1.62734	36.61515	21.15542	0
466	-82.18067	148.08794	229.45494	-34.17414	-154.5973	187.1441	-24.4101	-255.49238	-26.03744	-4.06835	31.73313	21.15542	0
467	-79.73966	157.85198	236.77797	-39.05616	-157.03831	196.90814	-24.4101	-262.81541	-26.03744	-4.06835	31.73313	21.15542	0
468	-87.06269	152.96996	239.21898	-34.17414	-161.92033	194.46713	-29.29212	-270.13844	-26.03744	-4.06835	36.61515	18.71441	0
469	-94.38572	150.52895	244.101	-29.29212	-169.24336	196.90814	-29.29212	-277.46147	-26.03744	-6.50936	41.49717	18.71441	0
470	-99.26774	145.64693	244.101	-24.4101	-171.68437	194.46713	-31.73313	-277.46147	-26.03744	-6.50936	48.8202	21.15542	0
471	-99.26774	145.64693	244.101	-24.4101	-171.68437	194.46713	-31.73313	-277.46147	-23.59643	-6.50936	51.26121	23.59643	0
472	-94.38572	152.96996	246.54201	-29.29212	-169.24336	199.34915	-29.29212	-275.02046	-18.71441	-4.06835	53.70222	26.03744	0
473	-87.06269	157.85198	244.101	-36.61515	-164.36134	199.34915	-24.4101	-272.57945	-16.2734	-4.06835	56.14323	30.91946	0
474	-91.94471	155.41097	246.54201	-31.73313	-169.24336	199.34915	-26.85111	-277.46147	-18.71441	-6.50936	48.8202	26.03744	0
475	-99.26774	155.41097	253.86504	-29.29212	-176.56639	204.23117	-31.73313	-284.7845	-23.59643	-13.83239	41.49717	23.59643	0
476	-104.14976	152.96996	256.30605	-24.4101	-179.0074	204.23117	-34.17414	-292.10753	-23.59643	-16.2734	34.17414	21.15542	0
477	-104.14976	157.85198	261.18807	-26.85111	-181.44841	209.11319	-34.17414	-299.43056	-26.03744	-18.71441	31.73313	18.71441	0
478	-101.70875	162.734	263.62908	-31.73313	-181.44841	211.5542	-34.17414	-306.75359	-26.03744	-16.2734	39.05616	26.03744	0
479	-109.03178	157.85198	266.07009	-24.4101	-186.33043	211.5542	-36.61515	-314.07662	-26.03744	-13.83239	48.8202	26.03744	0
480	-113.9138	152.96996	266.07009	-19.52808	-188.77144	209.11319	-36.61515	-318.95864	-26.03744	-13.83239	51.26121	23.59643	0
481	-104.14976	165.17501	268.5111	-31.73313	-186.33043	216.43622	-31.73313	-316.51763	-16.2734	-4.06835	61.02525	30.91946	0
482	-94.38572	174.93905	268.5111	-41.49717	-181.44841	221.31824	-29.29212	-316.51763	-13.83239	-1.62734	63.46626	30.91946	0
483	-91.94471	179.82107	270.95211	-43.93818	-181.44841	223.75925	-31.73313	-318.95864	-13.83239	-1.62734	61.02525	30.91946	0
484	-96.82673	182.26208	278.27514	-43.93818	-186.33043	228.64127	-34.17414	-321.39965	-11.39138	0.81367	58.58424	30.91946	0
485	-101.70875	179.82107	280.71615	-39.05616	-191.21245	228.64127	-39.05616	-328.72268	-16.2734	-4.06835	46.37919	26.03744	0
486	-96.82673	189.58511	285.59817	-46.37919	-191.21245	235.9643	-41.49717	-336.04571	-18.71441	-6.50936	41.49717	28.47845	0
487	-87.06269	201.79016	288.03918	-58.58424	-186.33043	243.28733	-46.37919	-345.80975	-21.15542	-11.39138	43.93818	28.47845	0
488	-91.94471	201.79016	292.9212	-56.14323	-191.21245	245.72834	-51.26121	-358.0148	-28.47845	-18.71441	41.49717	23.59643	0
489	-91.94471	209.11319	300.24423	-58.58424	-196.09447	253.05137	-53.70222	-370.21985	-30.91946	-23.59643	43.93818	23.59643	0
490	-96.82673	204.23117	300.24423	-53.70222	-198.53548	250.61036	-58.58424	-377.54288	-35.80148	-30.91946	46.37919	16.2734	0
491	-99.26774	204.23117	302.68524	-53.70222	-200.97649	253.05137	-61.02525	-377.54288	-35.80148	-30.91946	48.8202	13.83239	0
492	-99.26774	204.23117	302.68524	-53.70222	-200.97649	253.05137	-58.58424	-375.10187	-33.36047	-28.47845	48.8202	13.83239	0
493	-106.59077	196.90814	302.68524	-46.37919	-203.4175	248.16935	-58.58424	-372.66086	-35.80148	-30.91946	39.05616	8.95037	0
494	-109.03178	196.90814	305.12625	-43.93818	-205.85851	250.61036	-56.14323	-370.21985	-35.80148	-28.47845	34.17414	8.95037	0
495	-104.14976	204.23117	307.56726	-51.26121	-205.85851	255.49238	-53.70222	-362.89682	-30.91946	-23.59643	31.73313	13.83239	0
496	-99.26774	216.43622	314.89029	-58.58424	-205.85851	265.25642	-48.8202	-358.0148	-28.47845	-18.71441	31.73313	16.2734	0
497	-89.5037	233.52329	322.21332	-73.2303	-205.85851	277.46147	-43.93818	-355.57379	-23.59643	-16.2734	36.61515	21.15542	0
498	-87.06269	248.16935	334.41837	-80.55333	-210.74053	289.66652	-41.49717	-355.57379	-21.15542	-16.2734	43.93818	23.59643	0
499	-87.06269	253.05137	339.30039	-82.99434	-213.18154	294.54854	-41.49717	-355.57379	-21.15542	-16.2734	48.8202	23.59643	0
500	-89.5037	257.93339	346.62342	-85.43535	-218.06356	301.87157	-43.93818	-355.57379	-21.15542	-16.2734	56.14323	23.59643	0
501	-89.5037	260.3744	349.06443	-85.43535	-218.06356	304.31258	-41.49717	-353.13278	-18.71441	-13.83239	63.46626	26.03744	0
502	-96.82673	257.93339	353.94645	-80.55333	-225.38659	304.31258	-43.93818	-348.25076	-18.71441	-16.2734	63.46626	26.03744	0
503	-96.82673	253.05137	349.06443	-78.11232	-222.94558	299.43056	-43.93818	-340.92773	-18.71441	-13.83239	63.46626	30.91946	0
504	-99.26774	250.61036	349.06443	-75.67131	-222.94558	299.43056	-43.93818	-336.04571	-18.71441	-13.83239	58.58424	33.36047	0
505	-96.82673	250.61036	346.62342	-78.11232	-220.50457	296.98955	-41.49717	-331.16369	-18.71441	-13.83239	53.70222	33.36047	0
506	-91.94471	260.3744	351.50544	-85.43535	-220.50457	304.31258	-41.49717	-326.28167	-18.71441	-16.2734	48.8202	38.24249	0
507	-89.5037	267.69743	356.38746	-90.31737	-222.94558	311.63561	-41.49717	-321.39965	-18.71441	-16.2734	46.37919	38.24249	0
508	-91.94471	270.13844	361.26948	-90.31737	-225.38659	314.07662	-43.93818	-321.39965	-23.59643	-18.71441	48.8202	33.36047	0
509	-87.06269	277.46147	363.71049	-95.19939	-225.38659	318.95864	-43.93818	-323.84066	-23.59643	-18.71441	56.14323	33.36047	0
510	-87.06269	277.46147	363.71049	-95.19939	-225.38659	318.95864	-43.93818	-323.84066	-23.59643	-18.71441	63.46626	28.47845	0
511	-84.62168	277.46147	361.26948	-97.6404	-222.94558	318.95864	-43.93818	-321.39965	-23.59643	-18.71441	65.90727	23.59643	0
512	-89.5037	267.69743	356.38746	-90.31737	-222.94558	311.63561	-43.93818	-316.51763	-23.59643	-16.2734	68.34828	23.59643	0
513	-87.06269	265.25642	351.50544	-90.31737	-218.06356	306.75359	-41.49717	-309.1946	-18.71441	-11.39138	70.78929	23.59643	0
514	-77.29865	260.3744	336.85938	-92.75838	-205.85851	296.98955	-36.61515	-304.31258	-18.71441	-6.50936	65.90727	26.03744	0
515	-79.73966	253.05137	331.97736	-87.87636	-205.85851	292.10753	-31.73313	-296.98955	-13.83239	-4.06835	61.02525	30.91946	0
516	-79.73966	250.61036	329.53635	-85.43535	-203.4175	289.66652	-31.73313	-294.54854	-11.39138	-1.62734	56.14323	30.91946	0
517	-77.29865	250.61036	327.09534	-87.87636	-200.97649	287.22551	-26.85111	-287.22551	-11.39138	0.81367	56.14323	33.36047	0
518	-67.53461	260.3744	327.09534	-97.6404	-196.09447	292.10753	-24.4101	-284.7845	-6.50936	3.25468	58.58424	30.91946	0
519	-60.21158	260.3744	319.77231	-100.08141	-188.77144	289.66652	-24.4101	-277.46147	-6.50936	3.25468	65.90727	28.47845	0
520	-72.41663	250.61036	322.21332	-90.31737	-196.09447	284.7845	-24.4101	-262.81541	-6.50936	0.81367	70.78929	26.03744	0
521	-84.62168	238.40531	322.21332	-78.11232	-203.4175	279.90248	-24.4101	-245.72834	-8.95037	-4.06835	68.34828	18.71441	0
522	-87.06269	231.08228	317.3313	-73.2303	-200.97649	272.57945	-21.96909	-226.20026	-8.95037	-4.06835	70.78929	18.71441	0
523	-91.94471	223.75925	314.89029	-65.90727	-203.4175	267.69743	-19.52808	-201.79016	-8.95037	-6.50936	68.34828	16.2734	0
524	-94.38572	211.5542	305.12625	-58.58424	-198.53548	257.93339	-19.52808	-184.70309	-13.83239	-11.39138	56.14323	13.83239	0
525	-89.5037	206.67218	295.36221	-58.58424	-191.21245	250.61036	-14.64606	-167.61602	-13.83239	-11.39138	46.37919	13.83239	0
526	-77.29865	206.67218	283.15716	-65.90727	-179.0074	243.28733	-7.32303	-157.85198	-11.39138	-8.95037	41.49717	13.83239	0
527	-57.77057	211.5542	268.5111	-78.11232	-161.92033	238.40531	0	-152.96996	-8.95037	-4.06835	41.49717	13.83239	0
528	-45.56552	206.67218	251.42403	-80.55333	-147.27427	228.64127	3.25468	-150.52895	-6.50936	-4.06835	43.93818	16.2734	0
529	-40.6835	194.46713	234.33696	-78.11232	-137.51023	213.99521	3.25468	-152.96996	-6.50936	-4.06835	46.37919	8.95037	0
530	-30.91946	179.82107	209.92686	-75.67131	-120.42316	194.46713	10.57771	-152.96996	-4.06835	-1.62734	56.14323	8.95037	0
531	-33.36047	162.734	195.2808	-65.90727	-113.10013	177.38006	15.45973	-145.64693	-1.62734	-1.62734	61.02525	4.06835	0
532	-43.12451	135.88289	178.19373	-46.37919	-110.65912	155.41097	17.90074	-138.3239	-1.62734	-4.06835	58.58424	-4.06835	0
533	-50.44754	116.35481	165.98868	-34.17414	-108.21811	140.76491	20.34175	-126.11885	-1.62734	-6.50936	51.26121	-13.83239	0
534	-50.44754	104.14976	153.78363	-26.85111	-100.89508	128.55986	25.22377	-111.47279	-1.62734	-8.95037	41.49717	-18.71441	0
535	-40.6835	96.82673	136.69656	-29.29212	-88.69003	116.35481	32.5468	-94.38572	1.62734	-8.95037	34.17414	-23.59643	0
536	-38.24249	94.38572	131.81454	-29.29212	-83.80801	111.47279	42.31084	-77.29865	6.50936	-4.06835	29.29212	-26.03744	0
537	-38.24249	89.5037	126.93252	-26.85111	-81.367	106.59077	49.63387	-62.65259	8.95037	-6.50936	24.4101	-26.03744	0
538	-30.91946	89.5037	119.60949	-29.29212	-74.04397	104.14976	54.51589	-50.44754	8.95037	-6.50936	24.4101	-28.47845	0
539	-21.15542	82.18067	102.52242	-31.73313	-61.83892	91.94471	61.83892	-40.6835	13.83239	-6.50936	26.85111	-28.47845	0
540	-4.06835	79.73966	82.99434	-39.05616	-42.31084	79.73966	66.72094	-30.91946	18.71441	-1.62734	36.61515	-26.03744	0
541	4.06835	74.85764	70.78929	-39.05616	-32.5468	72.41663	74.04397	-21.15542	23.59643	-1.62734	43.93818	-26.03744	0
542	6.50936	57.77057	51.26121	-31.73313	-22.78276	55.32956	74.04397	-16.2734	23.59643	-1.62734	39.05616	-33.36047	0
543	11.39138	45.56552	34.17414	-29.29212	-10.57771	40.6835	78.92599	-11.39138	26.03744	-1.62734	34.17414	-33.36047	0
544	21.15542	35.80148	14.64606	-29.29212	4.88202	26.03744	83.80801	-8.95037	28.47845	3.25468	24.4101	-35.80148	0
545	28.47845	30.91946	2.44101	-29.29212	14.64606	16.2734	86.24902	-6.50936	28.47845	3.25468	14.64606	-40.6835	0
546	26.03744	18.71441	-8.1367	-21.96909	17.08707	6.50936	88.69003	-6.50936	28.47845	-1.62734	1.62734	-43.12451	0
547	21.15542	4.06835	-17.90074	-12.20505	19.52808	-6.50936	91.13104	-6.50936	26.03744	-4.06835	-3.25468	-48.00653	0
548	26.03744	-4.06835	-30.10579	-12.20505	26.85111	-16.2734	96.01306	-8.95037	23.59643	-6.50936	-5.69569	-50.44754	0
549	26.03744	-13.83239	-39.86983	-7.32303	31.73313	-26.03744	98.45407	-11.39138	23.59643	-8.95037	-0.81367	-52.88855	0
550	26.03744	-28.47845	-54.51589	0	39.05616	-40.6835	98.45407	-18.71441	21.15542	-11.39138	1.62734	-57.77057	0
551	23.59643	-40.6835	-64.27993	8.1367	43.93818	-52.88855	98.45407	-21.15542	18.71441	-11.39138	9.76404	-55.32956	0
552	28.47845	-45.56552	-74.04397	8.1367	51.26121	-60.21158	100.89508	-26.03744	18.71441	-11.39138	9.76404	-57.77057	0
553	38.24249	-45.56552	-83.80801	3.25468	61.02525	-65.0936	100.89508	-30.91946	18.71441	-11.39138	4.88202	-62.65259	0
554	40.6835	-45.56552	-86.24902	0	63.46626	-65.0936	100.89508	-38.24249	16.2734	-11.39138	-3.25468	-65.0936	0
555	45.56552	-45.56552	-91.13104	0	68.34828	-67.53461	100.89508	-43.12451	16.2734	-13.83239	-15.45973	-67.53461	0
556	52.88855	-40.6835	-93.57205	-7.32303	73.2303	-67.53461	105.7771	-43.12451	18.71441	-8.95037	-20.34175	-67.53461	0
557	60.21158	-38.24249	-98.45407	-12.20505	78.11232	-67.53461	105.7771	-43.12451	21.15542	-6.50936	-22.78276	-67.53461	0
558	55.32956	-43.12451	-98.45407	-7.32303	75.67131	-69.97562	103.33609	-50.44754	16.2734	-8.95037	-25.22377	-67.53461	0
559	43.12451	-50.44754	-93.57205	3.25468	68.34828	-72.41663	98.45407	-60.21158	11.39138	-11.39138	-17.90074	-67.53461	0
560	43.12451	-52.88855	-96.01306	3.25468	68.34828	-74.85764	96.01306	-72.41663	11.39138	-13.83239	-10.57771	-67.53461	0
561	50.44754	-48.00653	-98.45407	-2.44101	73.2303	-72.41663	96.01306	-82.18067	8.95037	-16.2734	-0.81367	-69.97562	0
562	57.77057	-43.12451	-100.89508	-7.32303	78.11232	-72.41663	93.57205	-91.94471	6.50936	-21.15542	-0.81367	-72.41663	0
563	57.77057	-43.12451	-100.89508	-7.32303	78.11232	-72.41663	91.13104	-99.26774	6.50936	-23.59643	-5.69569	-72.41663	0
564	55.32956	-48.00653	-103.33609	-4.88202	78.11232	-74.85764	96.01306	-104.14976	6.50936	-23.59643	-10.57771	-69.97562	0
565	60.21158	-52.88855	-113.10013	-4.88202	85.43535	-82.18067	98.45407	-104.14976	8.95037	-21.15542	-17.90074	-69.97562	0
566	55.32956	-60.21158	-115.54114	0	85.43535	-87.06269	100.89508	-106.59077	8.95037	-18.71441	-25.22377	-69.97562	0
567	50.44754	-69.97562	-120.42316	8.1367	85.43535	-94.38572	105.7771	-104.14976	13.83239	-11.39138	-22.78276	-62.65259	0
568	48.00653	-72.41663	-120.42316	10.57771	82.99434	-96.82673	110.65912	-99.26774	18.71441	-4.06835	-10.57771	-55.32956	0
569	45.56552	-74.85764	-120.42316	13.01872	82.99434	-96.82673	113.10013	-96.82673	26.03744	0.81367	1.62734	-52.88855	0
570	40.6835	-82.18067	-122.86417	20.34175	80.55333	-101.70875	113.10013	-104.14976	26.03744	-1.62734	14.64606	-50.44754	0
571	38.24249	-87.06269	-125.30518	22.78276	80.55333	-106.59077	110.65912	-109.03178	26.03744	-1.62734	21.96909	-55.32956	0
572	38.24249	-89.5037	-127.74619	25.22377	82.99434	-109.03178	110.65912	-109.03178	28.47845	-1.62734	24.4101	-52.88855	0
573	38.24249	-94.38572	-132.62821	27.66478	85.43535	-113.9138	108.21811	-109.03178	26.03744	-1.62734	17.08707	-52.88855	0
574	35.80148	-94.38572	-130.1872	27.66478	82.99434	-111.47279	103.33609	-113.9138	21.15542	-6.50936	4.88202	-57.77057	0
575	30.91946	-101.70875	-132.62821	34.98781	80.55333	-116.35481	98.45407	-116.35481	13.83239	-11.39138	-10.57771	-60.21158	0
576	28.47845	-101.70875	-130.1872	34.98781	78.11232	-116.35481	96.01306	-116.35481	13.83239	-11.39138	-20.34175	-67.53461	0
577	33.36047	-96.82673	-130.1872	30.10579	80.55333	-113.9138	96.01306	-111.47279	13.83239	-8.95037	-25.22377	-67.53461	0
578	35.80148	-91.94471	-127.74619	27.66478	80.55333	-109.03178	96.01306	-111.47279	13.83239	-8.95037	-22.78276	-69.97562	0
579	38.24249	-84.62168	-122.86417	22.78276	80.55333	-104.14976	98.45407	-111.47279	16.2734	-8.95037	-13.01872	-72.41663	0
580	45.56552	-74.85764	-120.42316	13.01872	82.99434	-96.82673	100.89508	-111.47279	18.71441	-6.50936	-0.81367	-69.97562	0
581	45.56552	-74.85764	-120.42316	13.01872	82.99434	-96.82673	100.89508	-109.03178	21.15542	-6.50936	7.32303	-69.97562	0
582	48.00653	-77.29865	-125.30518	13.01872	85.43535	-101.70875	103.33609	-106.59077	21.15542	-4.06835	9.76404	-67.53461	0
583	48.00653	-79.73966	-127.74619	15.45973	87.87636	-104.14976	103.33609	-104.14976	21.15542	-6.50936	4.88202	-62.65259	0
584	45.56552	-79.73966	-125.30518	15.45973	85.43535	-101.70875	103.33609	-104.14976	18.71441	-8.95037	-0.81367	-62.65259	0
585	52.88855	-72.41663	-125.30518	8.1367	87.87636	-99.26774	98.45407	-106.59077	16.2734	-11.39138	-17.90074	-62.65259	0
586	50.44754	-74.85764	-125.30518	10.57771	87.87636	-99.26774	96.01306	-106.59077	16.2734	-11.39138	-27.66478	-62.65259	0
587	43.12451	-84.62168	-127.74619	20.34175	85.43535	-106.59077	96.01306	-101.70875	18.71441	-8.95037	-27.66478	-62.65259	0
588	33.36047	-91.94471	-125.30518	27.66478	78.11232	-109.03178	98.45407	-99.26774	21.15542	-6.50936	-22.78276	-60.21158	0
589	30.91946	-94.38572	-125.30518	30.10579	78.11232	-109.03178	100.89508	-99.26774	23.59643	-4.06835	-15.45973	-60.21158	0
590	28.47845	-91.94471	-120.42316	30.10579	73.2303	-106.59077	105.7771	-101.70875	26.03744	-1.62734	-0.81367	-57.77057	0
591	26.03744	-96.82673	-122.86417	34.98781	73.2303	-109.03178	108.21811	-96.82673	30.91946	3.25468	12.20505	-50.44754	0
592	28.47845	-99.26774	-127.74619	34.98781	78.11232	-113.9138	110.65912	-91.94471	30.91946	3.25468	21.96909	-48.00653	0
593	23.59643	-104.14976	-127.74619	39.86983	75.67131	-116.35481	105.7771	-94.38572	23.59643	0.81367	17.08707	-50.44754	0
594	28.47845	-104.14976	-132.62821	37.42882	80.55333	-118.79582	98.45407	-96.82673	16.2734	-4.06835	1.62734	-55.32956	0
595	40.6835	-94.38572	-135.06922	25.22377	87.87636	-113.9138	96.01306	-94.38572	13.83239	-4.06835	-8.1367	-52.88855	0
596	50.44754	-91.94471	-142.39225	20.34175	95.19939	-116.35481	96.01306	-94.38572	13.83239	-4.06835	-17.90074	-52.88855	0
597	52.88855	-89.5037	-142.39225	17.90074	97.6404	-116.35481	93.57205	-91.94471	11.39138	-4.06835	-25.22377	-55.32956	0
598	45.56552	-96.82673	-142.39225	25.22377	92.75838	-118.79582	91.13104	-91.94471	6.50936	-6.50936	-25.22377	-60.21158	0
599	40.6835	-94.38572	-135.06922	25.22377	87.87636	-113.9138	93.57205	-87.06269	6.50936	-8.95037	-22.78276	-62.65259	0
600	48.00653	-87.06269	-135.06922	17.90074	90.31737	-111.47279	100.89508	-82.18067	13.83239	-4.06835	-8.1367	-57.77057	0
601	48.00653	-84.62168	-132.62821	17.90074	90.31737	-109.03178	105.7771	-74.85764	16.2734	-1.62734	1.62734	-57.77057	0
602	38.24249	-91.94471	-130.1872	25.22377	82.99434	-111.47279	103.33609	-67.53461	13.83239	-1.62734	1.62734	-62.65259	0
603	30.91946	-96.82673	-127.74619	32.5468	78.11232	-111.47279	103.33609	-57.77057	13.83239	-1.62734	1.62734	-62.65259	0
604	28.47845	-99.26774	-127.74619	34.98781	78.11232	-113.9138	103.33609	-48.00653	16.2734	0.81367	-5.69569	-57.77057	0
605	28.47845	-101.70875	-130.1872	34.98781	78.11232	-116.35481	105.7771	-38.24249	21.15542	3.25468	-17.90074	-57.77057	0
606	28.47845	-101.70875	-130.1872	34.98781	78.11232	-116.35481	108.21811	-28.47845	26.03744	6.50936	-22.78276	-52.88855	0
607	28.47845	-101.70875	-130.1872	34.98781	78.11232	-116.35481	108.21811	-21.15542	28.47845	8.95037	-22.78276	-50.44754	0
608	35.80148	-99.26774	-135.06922	30.10579	85.43535	-116.35481	110.65912	-18.71441	28.47845	11.39138	-17.90074	-43.12451	0
609	45.56552	-94.38572	-139.95124	22.78276	92.75838	-116.35481	113.10013	-18.71441	30.91946	11.39138	-8.1367	-43.12451	0
610	48.00653	-91.94471	-139.95124	20.34175	92.75838	-116.35481	115.54114	-18.71441	33.36047	13.83239	4.88202	-40.6835	0
611	50.44754	-87.06269	-137.51023	17.90074	92.75838	-111.47279	115.54114	-18.71441	28.47845	8.95037	12.20505	-40.6835	0
612	52.88855	-91.94471	-144.83326	17.90074	97.6404	-118.79582	113.10013	-23.59643	26.03744	3.25468	12.20505	-43.12451	0
613	48.00653	-101.70875	-149.71528	25.22377	97.6404	-126.11885	108.21811	-23.59643	21.15542	0.81367	4.88202	-48.00653	0
614	40.6835	-111.47279	-152.15629	34.98781	95.19939	-131.00087	103.33609	-28.47845	16.2734	-4.06835	-8.1367	-55.32956	0
615	33.36047	-118.79582	-152.15629	42.31084	92.75838	-135.88289	100.89508	-28.47845	13.83239	-6.50936	-22.78276	-57.77057	0
616	28.47845	-121.23683	-149.71528	44.75185	87.87636	-135.88289	98.45407	-26.03744	11.39138	-8.95037	-34.98781	-60.21158	0
617	28.47845	-126.11885	-154.5973	47.19286	90.31737	-140.76491	96.01306	-21.15542	11.39138	-8.95037	-39.86983	-60.21158	0
618	28.47845	-128.55986	-157.03831	49.63387	92.75838	-143.20592	98.45407	-16.2734	13.83239	-8.95037	-34.98781	-60.21158	0
619	30.91946	-126.11885	-157.03831	47.19286	92.75838	-140.76491	98.45407	-13.83239	11.39138	-8.95037	-27.66478	-62.65259	0
620	33.36047	-123.67784	-157.03831	44.75185	95.19939	-140.76491	98.45407	-8.95037	11.39138	-6.50936	-13.01872	-60.21158	0
621	33.36047	-121.23683	-154.5973	42.31084	92.75838	-138.3239	100.89508	-1.62734	11.39138	-6.50936	-3.25468	-60.21158	0
622	35.80148	-118.79582	-154.5973	39.86983	95.19939	-135.88289	100.89508	3.25468	11.39138	-4.06835	1.62734	-60.21158	0
623	35.80148	-116.35481	-152.15629	39.86983	92.75838	-133.44188	105.7771	10.57771	16.2734	0.81367	-0.81367	-60.21158	0
624	38.24249	-109.03178	-147.27427	34.98781	92.75838	-128.55986	108.21811	17.90074	18.71441	3.25468	-8.1367	-60.21158	0
625	40.6835	-101.70875	-142.39225	30.10579	90.31737	-121.23683	108.21811	22.78276	21.15542	6.50936	-20.34175	-57.77057	0
626	35.80148	-101.70875	-137.51023	32.5468	85.43535	-118.79582	110.65912	27.66478	23.59643	6.50936	-27.66478	-55.32956	-1250	T-0
627	35.80148	-106.59077	-142.39225	34.98781	87.87636	-123.67784	113.10013	39.86983	28.47845	11.39138	-32.5468	-50.44754	0
628	38.24249	-116.35481	-154.5973	37.42882	95.19939	-135.88289	117.98215	55.32956	33.36047	13.83239	-37.42882	-48.00653	0
629	43.12451	-113.9138	-157.03831	34.98781	100.08141	-135.88289	120.42316	67.53461	33.36047	13.83239	-42.31084	-48.00653	0
630	45.56552	-113.9138	-159.47932	32.5468	102.52242	-135.88289	117.98215	79.73966	30.91946	8.95037	-47.19286	-45.56552	0
631	48.00653	-123.67784	-171.68437	37.42882	109.84545	-148.08794	115.54114	96.82673	28.47845	6.50936	-47.19286	-48.00653	0
632	45.56552	-128.55986	-174.12538	39.86983	109.84545	-150.52895	110.65912	118.79582	23.59643	3.25468	-42.31084	-48.00653	0
633	48.00653	-126.11885	-174.12538	37.42882	109.84545	-150.52895	108.21811	138.3239	23.59643	3.25468	-34.98781	-45.56552	0
634	48.00653	-116.35481	-164.36134	32.5468	104.96343	-140.76491	108.21811	152.96996	23.59643	3.25468	-30.10579	-43.12451	0
635	45.56552	-106.59077	-152.15629	30.10579	97.6404	-128.55986	103.33609	165.17501	21.15542	3.25468	-22.78276	-43.12451	0
636	43.12451	-111.47279	-154.5973	32.5468	97.6404	-133.44188	103.33609	179.82107	23.59643	3.25468	-13.01872	-40.6835	0
637	33.36047	-113.9138	-147.27427	39.86983	90.31737	-131.00087	103.33609	189.58511	23.59643	3.25468	-8.1367	-43.12451	0
638	33.36047	-111.47279	-144.83326	37.42882	87.87636	-128.55986	103.33609	196.90814	23.59643	3.25468	-10.57771	-45.56552	0
639	38.24249	-109.03178	-147.27427	34.98781	92.75838	-128.55986	100.89508	199.34915	21.15542	3.25468	-22.78276	-50.44754	0
640	38.24249	-109.03178	-147.27427	34.98781	92.75838	-128.55986	100.89508	199.34915	21.15542	0.81367	-37.42882	-55.32956	0
641	35.80148	-109.03178	-144.83326	34.98781	90.31737	-126.11885	100.89508	199.34915	16.2734	-1.62734	-44.75185	-57.77057	0
642	35.80148	-106.59077	-142.39225	34.98781	87.87636	-123.67784	98.45407	199.34915	16.2734	-1.62734	-42.31084	-60.21158	0
643	43.12451	-96.82673	-139.95124	25.22377	90.31737	-118.79582	100.89508	206.67218	18.71441	3.25468	-34.98781	-57.77057	0
644	48.00653	-89.5037	-137.51023	20.34175	92.75838	-113.9138	105.7771	213.99521	23.59643	6.50936	-17.90074	-50.44754	0
645	50.44754	-87.06269	-137.51023	17.90074	92.75838	-111.47279	105.7771	221.31824	26.03744	8.95037	1.62734	-45.56552	0
646	57.77057	-82.18067	-139.95124	10.57771	97.6404	-111.47279	108.21811	226.20026	28.47845	11.39138	19.52808	-40.6835	0
647	62.65259	-82.18067	-144.83326	8.1367	102.52242	-113.9138	108.21811	231.08228	30.91946	16.2734	34.17414	-40.6835	0
648	60.21158	-89.5037	-149.71528	13.01872	104.96343	-118.79582	108.21811	233.52329	30.91946	18.71441	39.05616	-38.24249	0
649	55.32956	-96.82673	-152.15629	20.34175	102.52242	-123.67784	108.21811	231.08228	28.47845	16.2734	39.05616	-40.6835	0
650	60.21158	-94.38572	-154.5973	15.45973	107.40444	-123.67784	105.7771	228.64127	28.47845	16.2734	29.29212	-40.6835	0
651	67.53461	-82.18067	-149.71528	5.69569	107.40444	-116.35481	108.21811	228.64127	28.47845	23.59643	29.29212	-33.36047	0
652	69.97562	-77.29865	-147.27427	3.25468	107.40444	-111.47279	110.65912	228.64127	28.47845	23.59643	26.85111	-30.91946	0
653	57.77057	-87.06269	-144.83326	13.01872	100.08141	-116.35481	105.7771	226.20026	23.59643	23.59643	31.73313	-28.47845	0
654	43.12451	-101.70875	-144.83326	27.66478	92.75838	-123.67784	100.89508	221.31824	16.2734	18.71441	36.61515	-33.36047	0
655	35.80148	-111.47279	-147.27427	37.42882	90.31737	-128.55986	98.45407	218.87723	13.83239	18.71441	43.93818	-33.36047	0
656	33.36047	-116.35481	-149.71528	39.86983	90.31737	-133.44188	96.01306	218.87723	13.83239	18.71441	46.37919	-33.36047	0
657	28.47845	-123.67784	-152.15629	47.19286	90.31737	-138.3239	93.57205	218.87723	11.39138	18.71441	41.49717	-38.24249	0
658	26.03744	-133.44188	-159.47932	52.07488	92.75838	-145.64693	86.24902	211.5542	6.50936	16.2734	26.85111	-45.56552	0
659	30.91946	-128.55986	-159.47932	47.19286	95.19939	-143.20592	86.24902	209.11319	6.50936	13.83239	4.88202	-48.00653	0
660	50.44754	-109.03178	-159.47932	27.66478	104.96343	-133.44188	91.13104	209.11319	11.39138	21.15542	-8.1367	-43.12451	0
661	62.65259	-94.38572	-157.03831	15.45973	109.84545	-126.11885	93.57205	209.11319	16.2734	23.59643	-27.66478	-38.24249	0
662	55.32956	-99.26774	-154.5973	20.34175	104.96343	-126.11885	93.57205	204.23117	13.83239	21.15542	-39.86983	-38.24249	0
663	45.56552	-111.47279	-157.03831	32.5468	100.08141	-133.44188	88.69003	201.79016	8.95037	16.2734	-44.75185	-38.24249	0
664	38.24249	-118.79582	-157.03831	39.86983	97.6404	-138.3239	91.13104	201.79016	8.95037	16.2734	-30.10579	-33.36047	0
665	30.91946	-128.55986	-159.47932	47.19286	95.19939	-143.20592	93.57205	201.79016	11.39138	18.71441	-13.01872	-30.91946	0
666	21.15542	-143.20592	-164.36134	59.39791	92.75838	-152.96996	91.13104	201.79016	6.50936	16.2734	1.62734	-33.36047	0
667	11.39138	-152.96996	-164.36134	69.16195	87.87636	-157.85198	83.80801	201.79016	4.06835	13.83239	7.32303	-35.80148	0
668	11.39138	-152.96996	-164.36134	69.16195	87.87636	-157.85198	81.367	206.67218	1.62734	13.83239	7.32303	-38.24249	0
669	23.59643	-145.64693	-169.24336	59.39791	95.19939	-157.85198	83.80801	209.11319	6.50936	18.71441	-0.81367	-38.24249	0
670	26.03744	-143.20592	-169.24336	56.9569	97.6404	-155.41097	86.24902	211.5542	8.95037	21.15542	-13.01872	-38.24249	0
671	26.03744	-140.76491	-166.80235	56.9569	95.19939	-152.96996	83.80801	211.5542	8.95037	21.15542	-30.10579	-40.6835	0
672	28.47845	-135.88289	-164.36134	52.07488	95.19939	-150.52895	83.80801	213.99521	6.50936	18.71441	-39.86983	-43.12451	0
673	40.6835	-123.67784	-164.36134	39.86983	102.52242	-143.20592	88.69003	221.31824	8.95037	21.15542	-32.5468	-38.24249	0
674	50.44754	-116.35481	-166.80235	32.5468	107.40444	-140.76491	96.01306	233.52329	16.2734	26.03744	-22.78276	-30.91946	0
675	60.21158	-106.59077	-166.80235	22.78276	112.28646	-135.88289	98.45407	250.61036	18.71441	28.47845	-13.01872	-23.59643	0
676	65.0936	-99.26774	-164.36134	15.45973	114.72747	-131.00087	100.89508	267.69743	21.15542	30.91946	1.62734	-18.71441	0
677	72.41663	-87.06269	-159.47932	5.69569	114.72747	-123.67784	103.33609	284.7845	23.59643	33.36047	9.76404	-13.83239	0
678	82.18067	-77.29865	-159.47932	-2.44101	119.60949	-118.79582	108.21811	306.75359	26.03744	38.24249	12.20505	-6.50936	0
679	79.73966	-72.41663	-152.15629	-4.88202	114.72747	-111.47279	110.65912	323.84066	26.03744	38.24249	4.88202	-8.95037	0
680	72.41663	-74.85764	-147.27427	0	109.84545	-111.47279	108.21811	333.6047	26.03744	35.80148	-5.69569	-8.95037	0
681	69.97562	-74.85764	-144.83326	0	107.40444	-109.03178	108.21811	338.48672	23.59643	33.36047	-8.1367	-11.39138	0
682	62.65259	-77.29865	-139.95124	5.69569	100.08141	-109.03178	105.7771	343.36874	21.15542	28.47845	-8.1367	-13.83239	0
683	62.65259	-74.85764	-137.51023	5.69569	100.08141	-106.59077	105.7771	350.69177	18.71441	26.03744	-3.25468	-13.83239	0
684	55.32956	-79.73966	-135.06922	10.57771	95.19939	-106.59077	105.7771	358.0148	16.2734	23.59643	1.62734	-13.83239	0
685	50.44754	-84.62168	-135.06922	15.45973	92.75838	-109.03178	105.7771	362.89682	13.83239	21.15542	7.32303	-13.83239	0
686	52.88855	-79.73966	-132.62821	13.01872	92.75838	-106.59077	110.65912	377.54288	18.71441	23.59643	17.08707	-8.95037	0
687	55.32956	-74.85764	-130.1872	8.1367	92.75838	-101.70875	115.54114	389.74793	23.59643	28.47845	24.4101	-4.06835	0
688	57.77057	-74.85764	-132.62821	8.1367	95.19939	-104.14976	115.54114	397.07096	28.47845	33.36047	26.85111	-0.81367	0
689	57.77057	-69.97562	-127.74619	5.69569	92.75838	-99.26774	113.10013	399.51197	28.47845	33.36047	19.52808	-4.06835	0
690	65.0936	-57.77057	-122.86417	-4.88202	92.75838	-89.5037	113.10013	401.95298	30.91946	38.24249	17.08707	1.62734	0
691	69.97562	-45.56552	-115.54114	-12.20505	92.75838	-79.73966	117.98215	406.835	38.24249	43.12451	19.52808	4.06835	0
692	74.85764	-33.36047	-108.21811	-21.96909	90.31737	-69.97562	115.54114	406.835	38.24249	43.12451	19.52808	4.06835	0
693	72.41663	-28.47845	-100.89508	-21.96909	85.43535	-65.0936	110.65912	404.39399	33.36047	38.24249	21.96909	-0.81367	0
694	72.41663	-18.71441	-91.13104	-26.85111	80.55333	-55.32956	105.7771	401.95298	30.91946	35.80148	26.85111	-0.81367	0
695	74.85764	-11.39138	-86.24902	-31.73313	80.55333	-48.00653	103.33609	399.51197	28.47845	33.36047	31.73313	-4.06835	0
696	72.41663	-16.2734	-88.69003	-29.29212	80.55333	-52.88855	100.89508	401.95298	28.47845	35.80148	34.17414	-4.06835	0
697	72.41663	-21.15542	-93.57205	-26.85111	82.99434	-57.77057	96.01306	401.95298	26.03744	30.91946	29.29212	-4.06835	0
698	72.41663	-23.59643	-96.01306	-24.4101	82.99434	-60.21158	88.69003	394.62995	18.71441	26.03744	19.52808	-4.06835	0
699	77.29865	-26.03744	-103.33609	-26.85111	90.31737	-65.0936	81.367	384.86591	11.39138	21.15542	12.20505	-6.50936	0
700	82.18067	-26.03744	-108.21811	-29.29212	95.19939	-67.53461	78.92599	375.10187	8.95037	21.15542	9.76404	-4.06835	0
701	89.5037	-18.71441	-108.21811	-36.61515	97.6404	-62.65259	76.48498	367.77884	8.95037	18.71441	9.76404	-4.06835	0
702	99.26774	-6.50936	-105.7771	-46.37919	102.52242	-55.32956	71.60296	360.45581	4.06835	16.2734	9.76404	-0.81367	0
703	109.03178	-1.62734	-110.65912	-53.70222	109.84545	-55.32956	69.16195	353.13278	1.62734	11.39138	21.96909	4.06835	0
704	109.03178	1.62734	-108.21811	-56.14323	109.84545	-52.88855	69.16195	350.69177	1.62734	11.39138	29.29212	8.95037	0
705	104.14976	1.62734	-103.33609	-53.70222	104.96343	-50.44754	66.72094	348.25076	-1.62734	8.95037	29.29212	8.95037	0
706	104.14976	1.62734	-103.33609	-53.70222	104.96343	-50.44754	64.27993	348.25076	-1.62734	6.50936	29.29212	8.95037	0
707	106.59077	1.62734	-105.7771	-53.70222	107.40444	-52.88855	59.39791	345.80975	-4.06835	3.25468	21.96909	4.06835	0
708	101.70875	-6.50936	-108.21811	-48.8202	104.96343	-57.77057	54.51589	338.48672	-11.39138	0.81367	12.20505	-0.81367	0
709	94.38572	-18.71441	-113.10013	-39.05616	102.52242	-65.0936	47.19286	331.16369	-16.2734	-4.06835	-3.25468	-8.95037	0
710	94.38572	-16.2734	-110.65912	-39.05616	102.52242	-62.65259	44.75185	318.95864	-18.71441	-4.06835	-15.45973	-18.71441	0
711	104.14976	-8.95037	-113.10013	-48.8202	107.40444	-60.21158	42.31084	311.63561	-18.71441	-1.62734	-13.01872	-16.2734	0
712	104.14976	-8.95037	-113.10013	-48.8202	107.40444	-60.21158	37.42882	299.43056	-23.59643	-4.06835	-13.01872	-23.59643	0
713	89.5037	-26.03744	-115.54114	-31.73313	102.52242	-69.97562	30.10579	287.22551	-28.47845	-6.50936	-13.01872	-30.91946	0
714	77.29865	-43.12451	-120.42316	-17.08707	97.6404	-82.18067	27.66478	279.90248	-28.47845	-6.50936	-3.25468	-30.91946	0
715	72.41663	-52.88855	-125.30518	-9.76404	97.6404	-89.5037	25.22377	277.46147	-28.47845	-6.50936	4.88202	-30.91946	0
716	65.0936	-65.0936	-130.1872	0	97.6404	-96.82673	25.22377	272.57945	-28.47845	-6.50936	9.76404	-30.91946	0
717	50.44754	-82.18067	-132.62821	15.45973	90.31737	-106.59077	20.34175	267.69743	-30.91946	-8.95037	9.76404	-35.80148	0
718	40.6835	-89.5037	-130.1872	22.78276	85.43535	-109.03178	20.34175	265.25642	-28.47845	-6.50936	4.88202	-38.24249	0
719	45.56552	-79.73966	-125.30518	15.45973	85.43535	-101.70875	27.66478	267.69743	-21.15542	0.81367	4.88202	-33.36047	0
720	57.77057	-62.65259	-120.42316	0	87.87636	-91.94471	32.5468	267.69743	-13.83239	6.50936	1.62734	-26.03744	0
721	60.21158	-52.88855	-113.10013	-4.88202	85.43535	-82.18067	34.98781	262.81541	-8.95037	11.39138	-3.25468	-23.59643	0
722	62.65259	-55.32956	-117.98215	-4.88202	90.31737	-87.06269	34.98781	253.05137	-8.95037	8.95037	-10.57771	-26.03744	0
723	62.65259	-57.77057	-120.42316	-2.44101	90.31737	-89.5037	34.98781	245.72834	-8.95037	11.39138	-8.1367	-26.03744	0
724	57.77057	-62.65259	-120.42316	0	87.87636	-91.94471	34.98781	238.40531	-6.50936	11.39138	1.62734	-23.59643	0
725	52.88855	-72.41663	-125.30518	8.1367	87.87636	-99.26774	32.5468	226.20026	-11.39138	6.50936	9.76404	-28.47845	0
726	45.56552	-87.06269	-132.62821	20.34175	87.87636	-109.03178	27.66478	218.87723	-16.2734	3.25468	19.52808	-30.91946	0
727	26.03744	-106.59077	-132.62821	39.86983	78.11232	-118.79582	25.22377	211.5542	-18.71441	0.81367	21.96909	-33.36047	0
728	13.83239	-118.79582	-132.62821	52.07488	73.2303	-126.11885	25.22377	206.67218	-18.71441	3.25468	24.4101	-30.91946	0
729	4.06835	-126.11885	-130.1872	59.39791	65.90727	-128.55986	25.22377	201.79016	-16.2734	3.25468	19.52808	-28.47845	0
730	1.62734	-128.55986	-130.1872	61.83892	65.90727	-128.55986	25.22377	194.46713	-16.2734	3.25468	9.76404	-28.47845	0
731	1.62734	-133.44188	-135.06922	64.27993	68.34828	-133.44188	25.22377	187.1441	-16.2734	6.50936	-0.81367	-26.03744	0
732	1.62734	-135.88289	-137.51023	66.72094	68.34828	-135.88289	25.22377	179.82107	-16.2734	6.50936	-8.1367	-28.47845	0
733	6.50936	-135.88289	-142.39225	64.27993	73.2303	-138.3239	25.22377	174.93905	-16.2734	8.95037	-8.1367	-30.91946	0
734	13.83239	-128.55986	-142.39225	56.9569	78.11232	-135.88289	27.66478	172.49804	-13.83239	11.39138	1.62734	-26.03744	0
735	18.71441	-123.67784	-142.39225	52.07488	80.55333	-133.44188	27.66478	167.61602	-13.83239	8.95037	9.76404	-28.47845	0
736	21.15542	-121.23683	-142.39225	49.63387	80.55333	-131.00087	27.66478	165.17501	-13.83239	8.95037	19.52808	-28.47845	0
737	16.2734	-118.79582	-135.06922	49.63387	75.67131	-126.11885	25.22377	160.29299	-13.83239	6.50936	21.96909	-28.47845	0
738	11.39138	-116.35481	-127.74619	52.07488	68.34828	-121.23683	25.22377	157.85198	-13.83239	6.50936	19.52808	-30.91946	0
739	1.62734	-123.67784	-125.30518	59.39791	63.46626	-123.67784	25.22377	150.52895	-13.83239	3.25468	12.20505	-30.91946	0
740	4.06835	-118.79582	-122.86417	56.9569	63.46626	-121.23683	25.22377	145.64693	-13.83239	3.25468	4.88202	-26.03744	0
741	8.95037	-109.03178	-117.98215	49.63387	63.46626	-113.9138	27.66478	140.76491	-13.83239	6.50936	-0.81367	-26.03744	0
742	13.83239	-109.03178	-122.86417	47.19286	68.34828	-116.35481	30.10579	138.3239	-13.83239	8.95037	-8.1367	-28.47845	0
743	16.2734	-121.23683	-137.51023	52.07488	75.67131	-128.55986	34.98781	138.3239	-8.95037	13.83239	-3.25468	-26.03744	0
744	26.03744	-123.67784	-149.71528	47.19286	87.87636	-135.88289	37.42882	138.3239	-4.06835	21.15542	7.32303	-18.71441	0
745	38.24249	-116.35481	-154.5973	37.42882	95.19939	-135.88289	37.42882	135.88289	-4.06835	23.59643	14.64606	-18.71441	0
746	35.80148	-121.23683	-157.03831	42.31084	95.19939	-138.3239	32.5468	133.44188	-4.06835	23.59643	21.96909	-18.71441	0
747	26.03744	-128.55986	-154.5973	49.63387	90.31737	-140.76491	32.5468	131.00087	-4.06835	23.59643	21.96909	-21.15542	0
748	13.83239	-133.44188	-147.27427	59.39791	80.55333	-140.76491	30.10579	128.55986	-4.06835	21.15542	17.08707	-18.71441	0
749	4.06835	-128.55986	-132.62821	61.83892	68.34828	-131.00087	25.22377	121.23683	-11.39138	16.2734	4.88202	-21.15542	0
750	-1.62734	-118.79582	-117.98215	59.39791	58.58424	-118.79582	22.78276	116.35481	-13.83239	13.83239	-5.69569	-23.59643	0
751	-1.62734	-121.23683	-120.42316	59.39791	58.58424	-121.23683	25.22377	116.35481	-11.39138	16.2734	-8.1367	-18.71441	0
752	1.62734	-111.47279	-113.10013	54.51589	56.14323	-111.47279	27.66478	116.35481	-8.95037	18.71441	-10.57771	-18.71441	0
753	8.95037	-104.14976	-113.10013	47.19286	61.02525	-109.03178	27.66478	113.9138	-8.95037	18.71441	-5.69569	-18.71441	0
754	4.06835	-104.14976	-108.21811	49.63387	56.14323	-106.59077	27.66478	113.9138	-8.95037	23.59643	4.88202	-16.2734	0
755	6.50936	-101.70875	-108.21811	47.19286	56.14323	-104.14976	27.66478	113.9138	-11.39138	23.59643	21.96909	-13.83239	0
756	11.39138	-101.70875	-113.10013	44.75185	61.02525	-106.59077	30.10579	113.9138	-8.95037	26.03744	31.73313	-18.71441	0
757	11.39138	-99.26774	-110.65912	42.31084	61.02525	-104.14976	25.22377	113.9138	-11.39138	23.59643	36.61515	-18.71441	0
758	8.95037	-96.82673	-105.7771	42.31084	56.14323	-101.70875	20.34175	109.03178	-16.2734	21.15542	34.17414	-21.15542	0
759	4.06835	-106.59077	-110.65912	49.63387	56.14323	-109.03178	15.45973	104.14976	-21.15542	16.2734	24.4101	-26.03744	0
760	8.95037	-106.59077	-115.54114	47.19286	61.02525	-111.47279	10.57771	99.26774	-23.59643	13.83239	9.76404	-28.47845	0
761	11.39138	-113.9138	-125.30518	49.63387	68.34828	-118.79582	10.57771	94.38572	-26.03744	11.39138	-8.1367	-33.36047	0
762	11.39138	-111.47279	-122.86417	49.63387	65.90727	-116.35481	8.1367	94.38572	-28.47845	8.95037	-17.90074	-35.80148	0
763	11.39138	-109.03178	-120.42316	47.19286	65.90727	-113.9138	8.1367	99.26774	-28.47845	11.39138	-15.45973	-35.80148	0
764	1.62734	-113.9138	-115.54114	54.51589	58.58424	-113.9138	8.1367	104.14976	-26.03744	13.83239	-5.69569	-33.36047	0
765	-1.62734	-109.03178	-108.21811	54.51589	53.70222	-109.03178	5.69569	109.03178	-26.03744	11.39138	4.88202	-35.80148	0
766	-1.62734	-94.38572	-93.57205	47.19286	46.37919	-94.38572	0	113.9138	-28.47845	11.39138	17.08707	-33.36047	0
767	13.83239	-74.85764	-88.69003	30.10579	51.26121	-82.18067	-7.32303	126.11885	-28.47845	8.95037	26.85111	-33.36047	0
768	33.36047	-50.44754	-83.80801	8.1367	58.58424	-67.53461	-19.52808	135.88289	-38.24249	3.25468	21.96909	-33.36047	0
769	57.77057	-26.03744	-83.80801	-17.08707	70.78929	-55.32956	-39.05616	135.88289	-50.44754	-8.95037	4.88202	-43.12451	0
770	94.38572	-1.62734	-96.01306	-46.37919	95.19939	-48.00653	-63.46626	123.67784	-67.53461	-26.03744	-20.34175	-55.32956	0
771	138.3239	28.47845	-110.65912	-82.99434	124.49151	-40.6835	-90.31737	106.59077	-89.5037	-43.12451	-44.75185	-65.0936	0
772	187.1441	55.32956	-132.62821	-122.0505	161.10666	-38.24249	-122.0505	77.29865	-113.9138	-65.0936	-71.60296	-82.18067	0
773	228.64127	77.29865	-152.15629	-153.78363	190.39878	-38.24249	-163.54767	34.98781	-143.20592	-91.94471	-93.57205	-101.70875	0
774	275.02046	106.59077	-169.24336	-190.39878	222.13191	-30.91946	-205.04484	-18.71441	-172.49804	-113.9138	-105.7771	-116.35481	0
775	318.95864	145.64693	-174.12538	-231.89595	246.54201	-13.83239	-248.98302	-77.29865	-201.79016	-138.3239	-115.54114	-131.00087	0
776	353.13278	179.82107	-174.12538	-266.07009	263.62908	4.06835	-292.9212	-140.76491	-228.64127	-157.85198	-122.86417	-140.76491	0
777	372.66086	218.87723	-154.5973	-295.36221	263.62908	33.36047	-334.41837	-218.87723	-253.05137	-172.49804	-125.30518	-143.20592	0
778	375.10187	260.3744	-115.54114	-317.3313	246.54201	72.41663	-371.03352	-309.1946	-267.69743	-179.82107	-122.86417	-138.3239	0
779	355.57379	294.54854	-61.83892	-324.65433	209.92686	116.35481	-395.44362	-409.27601	-275.02046	-177.38006	-117.98215	-121.23683	0
780	316.51763	314.07662	-3.25468	-314.89029	161.10666	155.41097	-412.53069	-528.8855	-272.57945	-167.61602	-103.33609	-94.38572	0
781	243.28733	304.31258	61.02525	-273.39312	92.75838	182.26208	-424.73574	-665.58206	-265.25642	-150.52895	-86.24902	-65.0936	0
782	155.41097	275.02046	119.60949	-214.80888	19.52808	196.90814	-434.49978	-816.92468	-255.49238	-133.44188	-61.83892	-38.24249	0
783	62.65259	228.64127	165.98868	-146.4606	-52.07488	196.90814	-441.82281	-960.94427	-245.72834	-118.79582	-37.42882	-16.2734	0
784	-26.03744	165.17501	190.39878	-70.78929	-108.21811	177.38006	-441.82281	-1080.55376	-231.08228	-99.26774	-3.25468	4.06835	0
785	-106.59077	82.18067	187.95777	10.57771	-147.27427	133.44188	-439.3818	-1173.31214	-223.75925	-87.06269	17.08707	13.83239	0
786	-160.29299	4.06835	163.54767	76.48498	-161.92033	82.18067	-429.61776	-1231.89638	-216.43622	-77.29865	34.17414	18.71441	0
787	-192.02612	-69.97562	122.0505	130.1872	-157.03831	26.03744	-417.41271	-1258.74749	-211.5542	-72.41663	41.49717	21.15542	0
788	-209.11319	-135.88289	73.2303	171.68437	-142.39225	-33.36047	-410.08968	-1253.86547	-211.5542	-74.85764	36.61515	13.83239	0
789	-218.87723	-194.46713	24.4101	205.85851	-122.86417	-87.06269	-397.88463	-1227.01436	-211.5542	-77.29865	24.4101	6.50936	0
790	-226.20026	-240.84632	-15.45973	232.70962	-105.7771	-128.55986	-388.12059	-1185.51719	-213.99521	-82.18067	7.32303	1.62734	0
791	-221.31824	-260.3744	-39.86983	240.03265	-91.13104	-150.52895	-378.35655	-1134.25598	-213.99521	-84.62168	-5.69569	-0.81367	0
792	-221.31824	-265.25642	-44.75185	242.47366	-88.69003	-155.41097	-366.1515	-1065.9077	-211.5542	-87.06269	-15.45973	-4.06835	0
793	-213.99521	-260.3744	-47.19286	235.15063	-83.80801	-155.41097	-351.50544	-987.79538	-206.67218	-87.06269	-20.34175	-8.95037	0
794	-211.5542	-245.72834	-34.98781	227.8276	-88.69003	-140.76491	-329.53635	-899.91902	-196.90814	-79.73966	-13.01872	-8.95037	0
795	-204.23117	-221.31824	-17.90074	210.74053	-93.57205	-121.23683	-302.68524	-804.71963	-184.70309	-74.85764	-3.25468	-13.83239	0
796	-194.46713	-194.46713	-0.81367	193.65346	-98.45407	-99.26774	-268.5111	-704.63822	-170.05703	-67.53461	7.32303	-16.2734	0
797	-182.26208	-165.17501	17.08707	171.68437	-100.89508	-74.85764	-229.45494	-602.1158	-148.08794	-55.32956	19.52808	-13.83239	0
798	-170.05703	-135.88289	34.17414	152.15629	-103.33609	-52.88855	-190.39878	-509.35742	-126.11885	-45.56552	24.4101	-11.39138	0
799	-157.85198	-113.9138	43.93818	135.06922	-100.89508	-35.80148	-153.78363	-431.2451	-109.03178	-35.80148	21.96909	-8.95037	0
800	-150.52895	-94.38572	56.14323	120.42316	-103.33609	-21.15542	-119.60949	-365.33783	-91.94471	-23.59643	17.08707	-6.50936	0
801	-140.76491	-74.85764	65.90727	105.7771	-103.33609	-6.50936	-90.31737	-309.1946	-77.29865	-13.83239	12.20505	-4.06835	0
802	-131.00087	-55.32956	75.67131	91.13104	-103.33609	8.95037	-65.90727	-260.3744	-62.65259	-4.06835	12.20505	1.62734	0
803	-113.9138	-35.80148	78.11232	74.04397	-96.01306	21.15542	-46.37919	-218.87723	-52.88855	3.25468	12.20505	6.50936	0
804	-101.70875	-26.03744	75.67131	61.83892	-88.69003	23.59643	-36.61515	-182.26208	-48.00653	6.50936	21.96909	8.95037	0
805	-99.26774	-21.15542	78.11232	59.39791	-88.69003	28.47845	-31.73313	-155.41097	-45.56552	6.50936	29.29212	8.95037	0
806	-94.38572	-16.2734	78.11232	54.51589	-86.24902	30.91946	-29.29212	-133.44188	-43.12451	8.95037	46.37919	8.95037	0
807	-87.06269	-8.95037	78.11232	47.19286	-83.80801	33.36047	-29.29212	-111.47279	-38.24249	11.39138	53.70222	8.95037	0
808	-74.85764	-1.62734	73.2303	37.42882	-74.04397	35.80148	-26.85111	-94.38572	-35.80148	11.39138	58.58424	13.83239	0
809	-72.41663	-4.06835	68.34828	37.42882	-71.60296	30.91946	-26.85111	-87.06269	-35.80148	11.39138	46.37919	6.50936	0
810	-74.85764	-8.95037	65.90727	39.86983	-71.60296	28.47845	-26.85111	-87.06269	-30.91946	8.95037	34.17414	4.06835	0
811	-67.53461	-8.95037	58.58424	37.42882	-64.27993	23.59643	-26.85111	-87.06269	-30.91946	8.95037	26.85111	4.06835	0
812	-62.65259	-8.95037	53.70222	34.98781	-59.39791	21.15542	-21.96909	-84.62168	-28.47845	8.95037	19.52808	1.62734	0
813	-55.32956	-13.83239	41.49717	32.5468	-49.63387	13.83239	-12.20505	-77.29865	-18.71441	16.2734	24.4101	6.50936	0
814	-52.88855	-8.95037	43.93818	30.10579	-49.63387	16.2734	-4.88202	-69.97562	-11.39138	23.59643	29.29212	11.39138	0
815	-52.88855	1.62734	53.70222	25.22377	-52.07488	26.03744	0	-65.0936	-8.95037	28.47845	36.61515	16.2734	0
816	-45.56552	13.83239	58.58424	15.45973	-52.07488	35.80148	8.1367	-57.77057	-6.50936	35.80148	51.26121	26.03744	0
817	-55.32956	16.2734	70.78929	17.90074	-61.83892	43.12451	10.57771	-52.88855	-4.06835	40.6835	56.14323	30.91946	0
818	-62.65259	26.03744	87.87636	17.90074	-74.04397	55.32956	13.01872	-48.00653	-1.62734	48.00653	61.02525	38.24249	0
819	-65.0936	48.00653	112.28646	8.1367	-88.69003	79.73966	10.57771	-50.44754	-1.62734	48.00653	61.02525	40.6835	0
820	-67.53461	60.21158	126.93252	3.25468	-96.01306	91.94471	5.69569	-57.77057	-6.50936	43.12451	58.58424	38.24249	0
821	-74.85764	57.77057	131.81454	8.1367	-103.33609	94.38572	3.25468	-65.0936	-6.50936	43.12451	63.46626	40.6835	0
822	-77.29865	60.21158	136.69656	8.1367	-105.7771	96.82673	0	-72.41663	-6.50936	43.12451	65.90727	40.6835	0
823	-69.97562	74.85764	144.01959	-2.44101	-105.7771	109.03178	0	-77.29865	-6.50936	43.12451	68.34828	40.6835	0
824	-62.65259	87.06269	148.90161	-12.20505	-105.7771	116.35481	0	-82.18067	-1.62734	45.56552	73.2303	48.00653	0
825	-62.65259	91.94471	153.78363	-14.64606	-108.21811	121.23683	-2.44101	-87.06269	-1.62734	45.56552	70.78929	48.00653	0
826	-69.97562	89.5037	158.66565	-9.76404	-113.10013	123.67784	-7.32303	-89.5037	-6.50936	45.56552	61.02525	48.00653	0
827	-72.41663	91.94471	163.54767	-9.76404	-117.98215	126.11885	-12.20505	-91.94471	-11.39138	40.6835	53.70222	45.56552	0
828	-72.41663	96.82673	168.42969	-12.20505	-120.42316	131.00087	-12.20505	-89.5037	-11.39138	38.24249	51.26121	48.00653	0
829	-77.29865	96.82673	173.31171	-9.76404	-125.30518	133.44188	-12.20505	-87.06269	-13.83239	38.24249	48.8202	45.56552	0
830	-82.18067	91.94471	173.31171	-4.88202	-127.74619	131.00087	-12.20505	-82.18067	-13.83239	40.6835	56.14323	48.00653	0
831	-84.62168	91.94471	175.75272	-4.88202	-130.1872	133.44188	-14.64606	-82.18067	-13.83239	38.24249	61.02525	48.00653	0
832	-82.18067	94.38572	175.75272	-7.32303	-127.74619	133.44188	-17.08707	-82.18067	-16.2734	35.80148	65.90727	48.00653	0
833	-79.73966	104.14976	183.07575	-12.20505	-130.1872	143.20592	-14.64606	-79.73966	-13.83239	38.24249	68.34828	48.00653	0
834	-74.85764	113.9138	187.95777	-19.52808	-130.1872	150.52895	-12.20505	-74.85764	-8.95037	40.6835	68.34828	50.44754	0
835	-74.85764	116.35481	190.39878	-21.96909	-132.62821	152.96996	-14.64606	-74.85764	-8.95037	40.6835	58.58424	48.00653	0
836	-74.85764	116.35481	190.39878	-21.96909	-132.62821	152.96996	-17.08707	-74.85764	-11.39138	38.24249	43.93818	45.56552	0
837	-77.29865	113.9138	190.39878	-19.52808	-132.62821	150.52895	-19.52808	-72.41663	-8.95037	38.24249	36.61515	45.56552	0
838	-79.73966	113.9138	192.83979	-17.08707	-135.06922	152.96996	-19.52808	-69.97562	-6.50936	40.6835	36.61515	48.00653	0
839	-74.85764	113.9138	187.95777	-19.52808	-130.1872	150.52895	-17.08707	-67.53461	-4.06835	43.12451	46.37919	52.88855	0
840	-72.41663	113.9138	185.51676	-21.96909	-127.74619	148.08794	-14.64606	-65.0936	-1.62734	48.00653	65.90727	57.77057	0
841	-72.41663	109.03178	180.63474	-19.52808	-125.30518	143.20592	-14.64606	-67.53461	1.62734	48.00653	80.55333	60.21158	0
842	-72.41663	113.9138	185.51676	-21.96909	-127.74619	148.08794	-14.64606	-69.97562	4.06835	50.44754	95.19939	65.0936	0
843	-72.41663	118.79582	190.39878	-24.4101	-130.1872	152.96996	-14.64606	-72.41663	6.50936	52.88855	100.08141	62.65259	0
844	-74.85764	126.11885	200.16282	-26.85111	-137.51023	162.734	-14.64606	-74.85764	6.50936	52.88855	95.19939	65.0936	0
845	-84.62168	118.79582	202.60383	-17.08707	-142.39225	160.29299	-19.52808	-79.73966	4.06835	48.00653	78.11232	62.65259	0
846	-91.94471	111.47279	202.60383	-9.76404	-147.27427	155.41097	-24.4101	-84.62168	-1.62734	40.6835	56.14323	55.32956	0
847	-94.38572	111.47279	205.04484	-9.76404	-149.71528	157.85198	-26.85111	-89.5037	-1.62734	40.6835	41.49717	55.32956	0
848	-94.38572	111.47279	205.04484	-9.76404	-149.71528	157.85198	-29.29212	-91.94471	-1.62734	40.6835	36.61515	55.32956	0
849	-101.70875	106.59077	207.48585	-2.44101	-154.5973	155.41097	-31.73313	-101.70875	-4.06835	38.24249	34.17414	55.32956	0
850	-109.03178	91.94471	200.16282	8.1367	-154.5973	145.64693	-29.29212	-106.59077	-1.62734	43.12451	39.05616	62.65259	0
851	-111.47279	84.62168	195.2808	13.01872	-152.15629	138.3239	-24.4101	-109.03178	1.62734	48.00653	46.37919	67.53461	0
852	-106.59077	94.38572	200.16282	5.69569	-152.15629	145.64693	-21.96909	-111.47279	4.06835	52.88855	56.14323	72.41663	0
853	-104.14976	101.70875	205.04484	0	-154.5973	152.96996	-21.96909	-116.35481	6.50936	52.88855	65.90727	74.85764	0
854	-104.14976	111.47279	214.80888	-4.88202	-159.47932	162.734	-21.96909	-116.35481	8.95037	55.32956	73.2303	79.73966	0
855	-101.70875	118.79582	219.6909	-9.76404	-159.47932	167.61602	-21.96909	-118.79582	8.95037	55.32956	68.34828	79.73966	0
856	-99.26774	128.55986	227.01393	-14.64606	-161.92033	177.38006	-26.85111	-118.79582	8.95037	50.44754	61.02525	74.85764	0
857	-99.26774	148.08794	246.54201	-24.4101	-171.68437	196.90814	-31.73313	-123.67784	6.50936	48.00653	63.46626	74.85764	0
858	-101.70875	157.85198	258.74706	-29.29212	-179.0074	206.67218	-31.73313	-123.67784	6.50936	48.00653	63.46626	77.29865	0
859	-104.14976	165.17501	268.5111	-31.73313	-186.33043	216.43622	-34.17414	-128.55986	6.50936	45.56552	58.58424	77.29865	0
860	-106.59077	172.49804	278.27514	-34.17414	-191.21245	223.75925	-36.61515	-133.44188	4.06835	45.56552	51.26121	77.29865	0
861	-111.47279	174.93905	285.59817	-31.73313	-198.53548	228.64127	-36.61515	-138.3239	4.06835	45.56552	48.8202	77.29865	0
862	-118.79582	179.82107	297.80322	-31.73313	-208.29952	238.40531	-36.61515	-140.76491	4.06835	50.44754	56.14323	82.18067	0
863	-111.47279	187.1441	297.80322	-39.05616	-203.4175	240.84632	-39.05616	-143.20592	4.06835	50.44754	58.58424	82.18067	0
864	-96.82673	192.02612	288.03918	-48.8202	-191.21245	238.40531	-41.49717	-143.20592	4.06835	52.88855	63.46626	79.73966	0
865	-94.38572	192.02612	285.59817	-48.8202	-188.77144	238.40531	-43.93818	-143.20592	4.06835	55.32956	65.90727	82.18067	0
866	-91.94471	192.02612	283.15716	-51.26121	-186.33043	235.9643	-43.93818	-140.76491	6.50936	55.32956	70.78929	84.62168	0
867	-91.94471	187.1441	278.27514	-48.8202	-183.88942	231.08228	-43.93818	-138.3239	6.50936	57.77057	75.67131	91.94471	0
868	-87.06269	187.1441	273.39312	-51.26121	-179.0074	228.64127	-41.49717	-135.88289	11.39138	60.21158	82.99434	94.38572	0
869	-89.5037	184.70309	273.39312	-48.8202	-181.44841	228.64127	-41.49717	-138.3239	11.39138	57.77057	87.87636	94.38572	0
870	-94.38572	184.70309	278.27514	-46.37919	-186.33043	231.08228	-36.61515	-143.20592	13.83239	60.21158	95.19939	101.70875	0
871	-101.70875	189.58511	290.48019	-43.93818	-196.09447	238.40531	-36.61515	-143.20592	16.2734	62.65259	100.08141	104.14976	0
872	-106.59077	192.02612	297.80322	-43.93818	-200.97649	243.28733	-36.61515	-148.08794	13.83239	62.65259	104.96343	104.14976	0
873	-113.9138	192.02612	305.12625	-39.05616	-208.29952	248.16935	-39.05616	-150.52895	11.39138	60.21158	102.52242	99.26774	0
874	-111.47279	199.34915	310.00827	-43.93818	-210.74053	253.05137	-41.49717	-150.52895	11.39138	57.77057	104.96343	99.26774	0
875	-111.47279	209.11319	319.77231	-48.8202	-215.62255	262.81541	-46.37919	-150.52895	8.95037	55.32956	102.52242	99.26774	0
876	-111.47279	221.31824	331.97736	-56.14323	-220.50457	275.02046	-48.8202	-148.08794	4.06835	52.88855	95.19939	96.82673	0
877	-113.9138	221.31824	334.41837	-53.70222	-222.94558	277.46147	-53.70222	-148.08794	1.62734	48.00653	85.43535	91.94471	0
878	-118.79582	223.75925	341.7414	-53.70222	-230.26861	282.34349	-61.02525	-150.52895	-1.62734	45.56552	78.11232	91.94471	0
879	-121.23683	231.08228	351.50544	-56.14323	-235.15063	289.66652	-63.46626	-152.96996	-4.06835	43.12451	73.2303	91.94471	0
880	-121.23683	233.52329	353.94645	-56.14323	-237.59164	292.10753	-63.46626	-155.41097	-4.06835	43.12451	73.2303	96.82673	0
881	-126.11885	226.20026	351.50544	-51.26121	-237.59164	287.22551	-65.90727	-155.41097	-4.06835	45.56552	63.46626	91.94471	0
882	-126.11885	223.75925	349.06443	-48.8202	-237.59164	284.7845	-65.90727	-157.85198	-4.06835	45.56552	56.14323	91.94471	0
883	-123.67784	223.75925	346.62342	-51.26121	-235.15063	284.7845	-65.90727	-157.85198	-4.06835	43.12451	53.70222	91.94471	0
884	-113.9138	235.9643	349.06443	-61.02525	-230.26861	292.10753	-63.46626	-152.96996	-1.62734	48.00653	61.02525	96.82673	0
885	-99.26774	243.28733	341.7414	-73.2303	-220.50457	292.10753	-61.02525	-145.64693	-1.62734	50.44754	70.78929	96.82673	0
886	-96.82673	248.16935	344.18241	-75.67131	-220.50457	294.54854	-61.02525	-140.76491	-1.62734	50.44754	80.55333	96.82673	0
887	-96.82673	255.49238	351.50544	-80.55333	-222.94558	301.87157	-61.02525	-135.88289	-1.62734	50.44754	85.43535	99.26774	0
888	-96.82673	260.3744	356.38746	-82.99434	-225.38659	306.75359	-63.46626	-133.44188	-1.62734	50.44754	92.75838	99.26774	0
889	-96.82673	265.25642	361.26948	-85.43535	-227.8276	311.63561	-61.02525	-128.55986	1.62734	52.88855	92.75838	99.26774	0
890	-96.82673	267.69743	363.71049	-85.43535	-230.26861	314.07662	-61.02525	-128.55986	4.06835	55.32956	85.43535	99.26774	0
891	-101.70875	265.25642	366.1515	-82.99434	-232.70962	314.07662	-58.58424	-126.11885	6.50936	55.32956	75.67131	99.26774	0
892	-101.70875	265.25642	366.1515	-82.99434	-232.70962	314.07662	-56.14323	-121.23683	11.39138	57.77057	65.90727	101.70875	0
893	-101.70875	265.25642	366.1515	-82.99434	-232.70962	314.07662	-53.70222	-118.79582	11.39138	60.21158	61.02525	104.14976	0
894	-94.38572	272.57945	366.1515	-90.31737	-230.26861	318.95864	-51.26121	-113.9138	11.39138	60.21158	65.90727	106.59077	0
895	-87.06269	284.7845	371.03352	-100.08141	-227.8276	326.28167	-48.8202	-104.14976	13.83239	62.65259	73.2303	106.59077	0
896	-82.18067	292.10753	373.47453	-104.96343	-227.8276	331.16369	-48.8202	-99.26774	13.83239	62.65259	90.31737	109.03178	0
897	-74.85764	299.43056	373.47453	-112.28646	-222.94558	336.04571	-46.37919	-91.94471	13.83239	65.0936	104.96343	109.03178	0
898	-69.97562	309.1946	378.35655	-119.60949	-222.94558	343.36874	-43.93818	-87.06269	16.2734	67.53461	114.72747	111.47279	0
899	-67.53461	309.1946	375.91554	-122.0505	-220.50457	340.92773	-48.8202	-87.06269	13.83239	62.65259	107.40444	106.59077	0
900	-79.73966	296.98955	375.91554	-109.84545	-227.8276	336.04571	-51.26121	-89.5037	11.39138	60.21158	95.19939	104.14976	0
901	-91.94471	282.34349	373.47453	-95.19939	-232.70962	326.28167	-56.14323	-94.38572	11.39138	57.77057	85.43535	104.14976	0
902	-94.38572	272.57945	366.1515	-90.31737	-230.26861	318.95864	-58.58424	-99.26774	8.95037	57.77057	75.67131	104.14976	0
903	-99.26774	253.05137	351.50544	-78.11232	-225.38659	301.87157	-53.70222	-101.70875	8.95037	52.88855	61.02525	94.38572	0
904	-109.03178	233.52329	341.7414	-63.46626	-225.38659	287.22551	-51.26121	-101.70875	8.95037	52.88855	58.58424	94.38572	0
905	-116.35481	216.43622	331.97736	-51.26121	-222.94558	272.57945	-43.93818	-99.26774	11.39138	55.32956	63.46626	94.38572	0
906	-111.47279	204.23117	314.89029	-46.37919	-213.18154	257.93339	-39.05616	-94.38572	11.39138	55.32956	63.46626	89.5037	0
907	-99.26774	196.90814	295.36221	-48.8202	-196.09447	245.72834	-29.29212	-87.06269	16.2734	60.21158	70.78929	89.5037	0
908	-89.5037	192.02612	280.71615	-51.26121	-183.88942	235.9643	-21.96909	-77.29865	18.71441	60.21158	70.78929	89.5037	0
909	-87.06269	189.58511	275.83413	-51.26121	-181.44841	231.08228	-19.52808	-69.97562	21.15542	60.21158	78.11232	87.06269	0
910	-82.18067	184.70309	266.07009	-51.26121	-174.12538	223.75925	-17.08707	-67.53461	23.59643	62.65259	75.67131	87.06269	0
911	-72.41663	179.82107	251.42403	-53.70222	-161.92033	213.99521	-14.64606	-67.53461	23.59643	57.77057	65.90727	79.73966	0
912	-60.21158	187.1441	246.54201	-63.46626	-152.15629	216.43622	-9.76404	-57.77057	23.59643	57.77057	58.58424	79.73966	0
913	-48.00653	196.90814	244.101	-75.67131	-144.83326	218.87723	0	-43.12451	28.47845	60.21158	65.90727	79.73966	0
914	-45.56552	192.02612	236.77797	-73.2303	-139.95124	213.99521	5.69569	-28.47845	30.91946	62.65259	68.34828	79.73966	0
915	-45.56552	177.38006	222.13191	-65.90727	-132.62821	199.34915	8.1367	-16.2734	30.91946	62.65259	65.90727	77.29865	0
916	-45.56552	162.734	207.48585	-58.58424	-125.30518	184.70309	13.01872	-1.62734	30.91946	60.21158	65.90727	74.85764	0
917	-38.24249	150.52895	187.95777	-56.14323	-113.10013	167.61602	17.90074	13.01872	30.91946	60.21158	68.34828	72.41663	0
918	-38.24249	135.88289	173.31171	-48.8202	-105.7771	152.96996	22.78276	30.10579	33.36047	60.21158	70.78929	72.41663	0
919	-40.6835	109.03178	148.90161	-34.17414	-93.57205	128.55986	27.66478	37.42882	35.80148	57.77057	63.46626	67.53461	0
920	-45.56552	87.06269	131.81454	-21.96909	-88.69003	109.03178	30.10579	39.86983	35.80148	52.88855	51.26121	62.65259	0
921	-43.12451	74.85764	117.16848	-17.08707	-78.92599	94.38572	37.42882	44.75185	35.80148	50.44754	36.61515	57.77057	0
922	-40.6835	62.65259	102.52242	-12.20505	-71.60296	82.18067	42.31084	49.63387	38.24249	48.00653	24.4101	55.32956	0
923	-38.24249	48.00653	85.43535	-4.88202	-61.83892	65.0936	44.75185	55.32956	38.24249	45.56552	14.64606	48.00653	0
924	-28.47845	45.56552	73.2303	-9.76404	-49.63387	57.77057	49.63387	62.65259	38.24249	43.12451	9.76404	43.12451	0
925	-21.15542	43.12451	63.46626	-12.20505	-42.31084	52.88855	54.51589	67.53461	35.80148	40.6835	9.76404	35.80148	0
926	-11.39138	43.12451	53.70222	-17.08707	-32.5468	48.00653	59.39791	69.97562	38.24249	43.12451	17.08707	30.91946	0
927	-1.62734	40.6835	41.49717	-19.52808	-20.34175	40.6835	64.27993	74.85764	40.6835	45.56552	21.96909	30.91946	0
928	8.95037	33.36047	24.4101	-21.96909	-8.1367	28.47845	64.27993	77.29865	43.12451	45.56552	21.96909	26.03744	0
929	18.71441	28.47845	9.76404	-24.4101	4.88202	18.71441	69.16195	79.73966	45.56552	45.56552	19.52808	23.59643	0
930	21.15542	21.15542	-0.81367	-21.96909	12.20505	11.39138	71.60296	77.29865	45.56552	45.56552	12.20505	18.71441	0
931	18.71441	8.95037	-10.57771	-14.64606	14.64606	-1.62734	71.60296	74.85764	43.12451	45.56552	4.88202	18.71441	0
932	21.15542	-1.62734	-22.78276	-9.76404	21.96909	-11.39138	71.60296	74.85764	40.6835	43.12451	-0.81367	13.83239	0
933	28.47845	-6.50936	-34.98781	-12.20505	31.73313	-21.15542	71.60296	74.85764	35.80148	38.24249	-8.1367	6.50936	0
934	33.36047	-6.50936	-39.86983	-14.64606	36.61515	-23.59643	71.60296	82.18067	33.36047	35.80148	-8.1367	4.06835	0
935	38.24249	-6.50936	-44.75185	-17.08707	41.49717	-26.03744	71.60296	89.5037	33.36047	33.36047	-8.1367	1.62734	0
936	43.12451	-8.95037	-52.07488	-17.08707	46.37919	-30.91946	71.60296	96.82673	30.91946	30.91946	-8.1367	-4.06835	0
937	43.12451	-16.2734	-59.39791	-14.64606	51.26121	-38.24249	74.04397	104.14976	30.91946	30.91946	-8.1367	-8.95037	0
938	45.56552	-23.59643	-69.16195	-12.20505	56.14323	-45.56552	71.60296	116.35481	30.91946	30.91946	-8.1367	-13.83239	0
939	50.44754	-23.59643	-74.04397	-14.64606	61.02525	-48.00653	71.60296	128.55986	30.91946	30.91946	-10.57771	-21.15542	0
940	48.00653	-33.36047	-81.367	-7.32303	63.46626	-57.77057	74.04397	140.76491	33.36047	30.91946	-8.1367	-21.15542	0
941	43.12451	-43.12451	-86.24902	0	63.46626	-65.0936	74.04397	148.08794	33.36047	30.91946	-8.1367	-23.59643	0
942	43.12451	-55.32956	-98.45407	5.69569	70.78929	-77.29865	71.60296	157.85198	30.91946	23.59643	-13.01872	-23.59643	0
943	45.56552	-57.77057	-103.33609	5.69569	73.2303	-79.73966	71.60296	170.05703	28.47845	21.15542	-15.45973	-23.59643	0
944	52.88855	-55.32956	-108.21811	0	80.55333	-82.18067	71.60296	179.82107	28.47845	18.71441	-17.90074	-21.15542	0
945	52.88855	-55.32956	-108.21811	0	80.55333	-82.18067	71.60296	187.1441	26.03744	13.83239	-20.34175	-18.71441	0
946	52.88855	-55.32956	-108.21811	0	80.55333	-82.18067	71.60296	194.46713	26.03744	11.39138	-25.22377	-18.71441	0
947	60.21158	-52.88855	-113.10013	-4.88202	85.43535	-82.18067	74.04397	196.90814	26.03744	11.39138	-32.5468	-21.15542	0
948	55.32956	-55.32956	-110.65912	0	82.99434	-82.18067	74.04397	204.23117	26.03744	11.39138	-37.42882	-21.15542	0
949	45.56552	-65.0936	-110.65912	8.1367	78.11232	-87.06269	71.60296	204.23117	26.03744	11.39138	-42.31084	-28.47845	0
950	33.36047	-79.73966	-113.10013	22.78276	73.2303	-96.82673	66.72094	204.23117	23.59643	11.39138	-44.75185	-33.36047	0
951	26.03744	-89.5037	-115.54114	30.10579	70.78929	-101.70875	61.83892	204.23117	21.15542	11.39138	-39.86983	-33.36047	0
952	21.15542	-99.26774	-120.42316	37.42882	70.78929	-109.03178	54.51589	199.34915	16.2734	8.95037	-44.75185	-43.12451	0
953	13.83239	-106.59077	-120.42316	44.75185	65.90727	-113.9138	47.19286	196.90814	11.39138	3.25468	-39.86983	-48.00653	0
954	16.2734	-109.03178	-125.30518	44.75185	70.78929	-116.35481	42.31084	199.34915	8.95037	3.25468	-39.86983	-50.44754	0
955	28.47845	-101.70875	-130.1872	34.98781	78.11232	-116.35481	44.75185	206.67218	13.83239	8.95037	-34.98781	-45.56552	0
956	43.12451	-87.06269	-130.1872	20.34175	85.43535	-109.03178	49.63387	216.43622	18.71441	16.2734	-27.66478	-38.24249	0
957	60.21158	-72.41663	-132.62821	5.69569	95.19939	-101.70875	54.51589	226.20026	23.59643	21.15542	-22.78276	-33.36047	0
958	62.65259	-67.53461	-130.1872	0	95.19939	-99.26774	56.9569	233.52329	26.03744	23.59643	-20.34175	-28.47845	0
959	57.77057	-69.97562	-127.74619	5.69569	92.75838	-99.26774	59.39791	240.84632	28.47845	26.03744	-20.34175	-26.03744	0
960	52.88855	-82.18067	-135.06922	13.01872	92.75838	-109.03178	59.39791	243.28733	28.47845	26.03744	-20.34175	-26.03744	0
961	40.6835	-91.94471	-132.62821	25.22377	85.43535	-111.47279	54.51589	238.40531	21.15542	21.15542	-15.45973	-28.47845	0
962	26.03744	-99.26774	-125.30518	34.98781	75.67131	-111.47279	49.63387	233.52329	16.2734	16.2734	-17.90074	-30.91946	0
963	11.39138	-111.47279	-122.86417	49.63387	65.90727	-116.35481	44.75185	233.52329	11.39138	8.95037	-25.22377	-38.24249	0
964	4.06835	-126.11885	-130.1872	59.39791	65.90727	-128.55986	42.31084	235.9643	11.39138	6.50936	-32.5468	-38.24249	0
965	4.06835	-128.55986	-132.62821	61.83892	68.34828	-131.00087	42.31084	238.40531	11.39138	6.50936	-42.31084	-38.24249	0
966	11.39138	-123.67784	-135.06922	54.51589	73.2303	-128.55986	42.31084	240.84632	11.39138	6.50936	-54.51589	-43.12451	0
967	18.71441	-116.35481	-135.06922	47.19286	75.67131	-126.11885	44.75185	245.72834	13.83239	8.95037	-64.27993	-40.6835	0
968	33.36047	-104.14976	-137.51023	34.98781	85.43535	-121.23683	49.63387	255.49238	16.2734	13.83239	-61.83892	-35.80148	0
969	45.56552	-99.26774	-144.83326	25.22377	95.19939	-121.23683	54.51589	260.3744	18.71441	21.15542	-52.07488	-33.36047	0
970	50.44754	-91.94471	-142.39225	20.34175	95.19939	-116.35481	56.9569	260.3744	21.15542	21.15542	-37.42882	-33.36047	0
971	57.77057	-82.18067	-139.95124	10.57771	97.6404	-111.47279	56.9569	260.3744	21.15542	26.03744	-20.34175	-30.91946	0
972	62.65259	-77.29865	-139.95124	5.69569	100.08141	-109.03178	59.39791	260.3744	23.59643	28.47845	-5.69569	-26.03744	0
973	55.32956	-79.73966	-135.06922	10.57771	95.19939	-106.59077	59.39791	257.93339	23.59643	30.91946	-0.81367	-26.03744	0
974	43.12451	-89.5037	-132.62821	22.78276	87.87636	-111.47279	54.51589	250.61036	23.59643	26.03744	-5.69569	-26.03744	0
975	38.24249	-96.82673	-135.06922	27.66478	85.43535	-116.35481	47.19286	243.28733	18.71441	21.15542	-25.22377	-30.91946	0
976	38.24249	-99.26774	-137.51023	30.10579	87.87636	-118.79582	44.75185	235.9643	13.83239	16.2734	-44.75185	-35.80148	0
977	38.24249	-96.82673	-135.06922	27.66478	85.43535	-116.35481	42.31084	233.52329	13.83239	16.2734	-56.9569	-35.80148	0
978	28.47845	-99.26774	-127.74619	34.98781	78.11232	-113.9138	42.31084	233.52329	13.83239	11.39138	-64.27993	-38.24249	0
979	30.91946	-99.26774	-130.1872	32.5468	80.55333	-113.9138	39.86983	233.52329	8.95037	6.50936	-61.83892	-40.6835	0
980	40.6835	-96.82673	-137.51023	27.66478	87.87636	-116.35481	39.86983	231.08228	8.95037	6.50936	-47.19286	-40.6835	0
981	43.12451	-96.82673	-139.95124	25.22377	90.31737	-118.79582	39.86983	231.08228	11.39138	8.95037	-30.10579	-40.6835	0
982	35.80148	-96.82673	-132.62821	30.10579	82.99434	-113.9138	39.86983	231.08228	11.39138	11.39138	-17.90074	-38.24249	0
983	30.91946	-101.70875	-132.62821	34.98781	80.55333	-116.35481	39.86983	231.08228	13.83239	13.83239	-13.01872	-35.80148	0
984	33.36047	-111.47279	-144.83326	37.42882	87.87636	-128.55986	39.86983	231.08228	11.39138	16.2734	-22.78276	-35.80148	0
985	40.6835	-113.9138	-154.5973	34.98781	97.6404	-133.44188	42.31084	233.52329	13.83239	18.71441	-32.5468	-35.80148	0
