samplenr	I	II	III	aVR	aVL	aVF	V1	V2	V3	V4	V5	V6	measurement
0	-30.10579	-52.88855	-22.78276	39.05616	-4.88202	-37.42882	26.03744	-27.66478	-29.29212	-13.01872	-21.96909	-17.08707	0
1	-27.66478	-55.32956	-27.66478	39.05616	0	-42.31084	23.59643	-27.66478	-26.85111	-13.01872	-21.96909	-19.52808	0
2	-27.66478	-52.88855	-25.22377	39.05616	-2.44101	-39.86983	23.59643	-27.66478	-26.85111	-13.01872	-19.52808	-19.52808	0
3	-20.34175	-52.88855	-32.5468	34.17414	4.88202	-42.31084	21.15542	-30.10579	-26.85111	-15.45973	-19.52808	-19.52808	0
4	-15.45973	-48.00653	-32.5468	29.29212	7.32303	-39.86983	18.71441	-32.5468	-29.29212	-15.45973	-19.52808	-19.52808	0
5	-13.01872	-45.56552	-32.5468	26.85111	9.76404	-39.86983	16.2734	-34.98781	-31.73313	-20.34175	-21.96909	-21.96909	0
6	-17.90074	-45.56552	-27.66478	29.29212	4.88202	-37.42882	16.2734	-34.98781	-31.73313	-20.34175	-21.96909	-21.96909	0
7	-17.90074	-45.56552	-27.66478	29.29212	4.88202	-37.42882	16.2734	-34.98781	-31.73313	-22.78276	-21.96909	-24.4101	0
8	-15.45973	-45.56552	-30.10579	29.29212	7.32303	-37.42882	13.83239	-32.5468	-31.73313	-22.78276	-24.4101	-24.4101	0
9	-10.57771	-45.56552	-34.98781	26.85111	12.20505	-39.86983	13.83239	-34.98781	-31.73313	-25.22377	-26.85111	-26.85111	0
10	-10.57771	-45.56552	-34.98781	26.85111	12.20505	-39.86983	13.83239	-32.5468	-29.29212	-25.22377	-26.85111	-26.85111	0
11	-15.45973	-50.44754	-34.98781	31.73313	9.76404	-42.31084	13.83239	-30.10579	-24.4101	-22.78276	-24.4101	-24.4101	0
12	-17.90074	-52.88855	-34.98781	34.17414	7.32303	-44.75185	11.39138	-30.10579	-24.4101	-22.78276	-24.4101	-24.4101	0
13	-13.01872	-52.88855	-39.86983	31.73313	12.20505	-47.19286	8.95037	-32.5468	-26.85111	-22.78276	-24.4101	-24.4101	0
14	-13.01872	-50.44754	-37.42882	29.29212	12.20505	-44.75185	8.95037	-32.5468	-26.85111	-22.78276	-24.4101	-24.4101	0
15	-15.45973	-45.56552	-30.10579	29.29212	7.32303	-37.42882	5.69569	-32.5468	-26.85111	-25.22377	-24.4101	-24.4101	0
16	-15.45973	-45.56552	-30.10579	29.29212	7.32303	-37.42882	5.69569	-32.5468	-26.85111	-28.47845	-24.4101	-24.4101	0
17	-10.57771	-45.56552	-34.98781	26.85111	12.20505	-39.86983	3.25468	-34.98781	-29.29212	-28.47845	-30.10579	-30.10579	0
18	-7.32303	-45.56552	-37.42882	24.4101	14.64606	-39.86983	3.25468	-34.98781	-29.29212	-30.91946	-30.10579	-30.10579	0
19	-15.45973	-48.00653	-32.5468	29.29212	7.32303	-39.86983	5.69569	-30.10579	-24.4101	-28.47845	-26.85111	-30.10579	0
20	-20.34175	-50.44754	-30.10579	34.17414	4.88202	-39.86983	5.69569	-27.66478	-21.96909	-25.22377	-24.4101	-30.10579	0
21	-17.90074	-50.44754	-32.5468	31.73313	7.32303	-42.31084	5.69569	-25.22377	-18.71441	-25.22377	-24.4101	-30.10579	0
22	-10.57771	-48.00653	-37.42882	26.85111	12.20505	-42.31084	5.69569	-22.78276	-16.2734	-22.78276	-21.96909	-30.10579	0
23	-10.57771	-48.00653	-37.42882	26.85111	12.20505	-42.31084	5.69569	-22.78276	-16.2734	-22.78276	-19.52808	-30.10579	0
24	-10.57771	-45.56552	-34.98781	26.85111	12.20505	-39.86983	5.69569	-22.78276	-13.83239	-20.34175	-19.52808	-30.10579	0
25	-10.57771	-43.12451	-32.5468	24.4101	9.76404	-37.42882	3.25468	-22.78276	-13.83239	-25.22377	-19.52808	-30.10579	0
26	-7.32303	-43.12451	-34.98781	24.4101	12.20505	-37.42882	0.81367	-27.66478	-18.71441	-28.47845	-24.4101	-32.5468	0
27	-7.32303	-48.00653	-39.86983	26.85111	14.64606	-42.31084	-1.62734	-30.10579	-21.96909	-30.91946	-24.4101	-34.98781	0
28	-10.57771	-50.44754	-39.86983	29.29212	14.64606	-44.75185	-1.62734	-27.66478	-18.71441	-30.91946	-24.4101	-34.98781	0
29	-13.01872	-52.88855	-39.86983	31.73313	12.20505	-47.19286	-1.62734	-25.22377	-16.2734	-30.91946	-24.4101	-34.98781	0
30	-10.57771	-55.32956	-44.75185	31.73313	17.08707	-49.63387	-1.62734	-25.22377	-13.83239	-28.47845	-24.4101	-34.98781	0
31	-10.57771	-57.77057	-47.19286	31.73313	17.08707	-52.07488	-1.62734	-25.22377	-13.83239	-28.47845	-24.4101	-37.42882	0
32	-2.44101	-55.32956	-52.07488	26.85111	24.4101	-52.07488	-4.06835	-22.78276	-13.83239	-28.47845	-21.96909	-37.42882	0
33	0	-52.88855	-52.07488	24.4101	24.4101	-52.07488	-4.06835	-20.34175	-11.39138	-28.47845	-21.96909	-37.42882	0
34	0	-50.44754	-49.63387	24.4101	24.4101	-49.63387	-6.50936	-20.34175	-11.39138	-28.47845	-21.96909	-37.42882	0
35	-2.44101	-45.56552	-42.31084	21.96909	19.52808	-42.31084	-6.50936	-20.34175	-11.39138	-28.47845	-21.96909	-37.42882	0
36	-10.57771	-45.56552	-34.98781	26.85111	12.20505	-39.86983	-6.50936	-20.34175	-11.39138	-28.47845	-19.52808	-37.42882	0
37	-10.57771	-45.56552	-34.98781	26.85111	12.20505	-39.86983	-6.50936	-20.34175	-11.39138	-28.47845	-19.52808	-39.86983	0
38	-10.57771	-45.56552	-34.98781	26.85111	12.20505	-39.86983	-6.50936	-20.34175	-11.39138	-28.47845	-17.08707	-39.86983	0
39	-13.01872	-45.56552	-32.5468	26.85111	9.76404	-39.86983	-4.06835	-15.45973	-8.95037	-28.47845	-14.64606	-39.86983	0
40	-13.01872	-50.44754	-37.42882	29.29212	12.20505	-44.75185	-1.62734	-15.45973	-6.50936	-28.47845	-12.20505	-39.86983	0
41	-10.57771	-55.32956	-44.75185	31.73313	17.08707	-49.63387	-1.62734	-15.45973	-6.50936	-28.47845	-9.76404	-42.31084	0
42	-4.88202	-55.32956	-49.63387	29.29212	21.96909	-52.07488	-4.06835	-17.90074	-6.50936	-28.47845	-7.32303	-44.75185	0
43	4.88202	-52.88855	-56.9569	21.96909	29.29212	-54.51589	-6.50936	-20.34175	-6.50936	-28.47845	-7.32303	-44.75185	0
44	4.88202	-52.88855	-56.9569	21.96909	29.29212	-54.51589	-8.95037	-20.34175	-6.50936	-28.47845	-4.88202	-44.75185	0
45	4.88202	-48.00653	-52.07488	19.52808	26.85111	-49.63387	-8.95037	-20.34175	-6.50936	-28.47845	-4.88202	-44.75185	0
46	2.44101	-45.56552	-47.19286	19.52808	24.4101	-44.75185	-8.95037	-20.34175	-6.50936	-28.47845	-4.88202	-44.75185	0
47	2.44101	-43.12451	-44.75185	19.52808	21.96909	-42.31084	-6.50936	-15.45973	-4.06835	-28.47845	-2.44101	-42.31084	0
48	4.88202	-43.12451	-47.19286	17.08707	24.4101	-44.75185	-6.50936	-15.45973	-4.06835	-28.47845	-2.44101	-42.31084	0
49	7.32303	-43.12451	-49.63387	17.08707	26.85111	-44.75185	-4.06835	-13.01872	-4.06835	-28.47845	-4.88202	-42.31084	0
50	7.32303	-43.12451	-49.63387	17.08707	26.85111	-44.75185	-1.62734	-8.1367	0.81367	-28.47845	-2.44101	-39.86983	0
51	9.76404	-43.12451	-52.07488	14.64606	29.29212	-47.19286	3.25468	-5.69569	3.25468	-25.22377	-2.44101	-37.42882	0
52	12.20505	-43.12451	-54.51589	14.64606	31.73313	-47.19286	3.25468	-5.69569	3.25468	-22.78276	-2.44101	-37.42882	0
53	19.52808	-45.56552	-64.27993	12.20505	41.49717	-54.51589	-1.62734	-8.1367	3.25468	-22.78276	-2.44101	-39.86983	0
54	14.64606	-48.00653	-61.83892	14.64606	36.61515	-54.51589	-4.06835	-10.57771	0.81367	-25.22377	-4.88202	-42.31084	0
55	-2.44101	-52.88855	-49.63387	26.85111	21.96909	-49.63387	-6.50936	-13.01872	-1.62734	-28.47845	-4.88202	-44.75185	0
56	-10.57771	-57.77057	-47.19286	31.73313	17.08707	-52.07488	-8.95037	-15.45973	-4.06835	-28.47845	-9.76404	-49.63387	0
57	-13.01872	-60.21158	-47.19286	34.17414	17.08707	-54.51589	-8.95037	-15.45973	-6.50936	-28.47845	-12.20505	-52.07488	0
58	-13.01872	-62.65259	-49.63387	36.61515	17.08707	-56.9569	-11.39138	-15.45973	-8.95037	-30.91946	-12.20505	-54.51589	0
59	-15.45973	-62.65259	-47.19286	36.61515	14.64606	-54.51589	-8.95037	-13.01872	-6.50936	-30.91946	-12.20505	-54.51589	0
60	-13.01872	-62.65259	-49.63387	36.61515	17.08707	-56.9569	-4.06835	-10.57771	-4.06835	-28.47845	-12.20505	-54.51589	0
61	-7.32303	-60.21158	-52.07488	31.73313	21.96909	-54.51589	-1.62734	-8.1367	-1.62734	-25.22377	-12.20505	-52.07488	0
62	0	-52.88855	-52.07488	24.4101	24.4101	-52.07488	0.81367	-5.69569	0.81367	-25.22377	-7.32303	-49.63387	0
63	4.88202	-48.00653	-52.07488	19.52808	26.85111	-49.63387	0.81367	-3.25468	0.81367	-22.78276	-7.32303	-47.19286	0
64	4.88202	-45.56552	-49.63387	19.52808	26.85111	-47.19286	3.25468	-3.25468	0.81367	-22.78276	-7.32303	-47.19286	0
65	2.44101	-45.56552	-47.19286	19.52808	24.4101	-44.75185	3.25468	-3.25468	0.81367	-28.47845	-9.76404	-49.63387	0
66	-4.88202	-45.56552	-39.86983	24.4101	17.08707	-42.31084	3.25468	-3.25468	-1.62734	-28.47845	-9.76404	-52.07488	0
67	-7.32303	-38.24249	-30.10579	21.96909	9.76404	-32.5468	5.69569	1.62734	-1.62734	-28.47845	-7.32303	-52.07488	0
68	-4.88202	-33.36047	-27.66478	17.08707	9.76404	-30.10579	8.95037	4.06835	-1.62734	-22.78276	-2.44101	-49.63387	0
69	0	-28.47845	-27.66478	12.20505	12.20505	-27.66478	13.83239	7.32303	-1.62734	-20.34175	0	-49.63387	0
70	2.44101	-23.59643	-25.22377	9.76404	12.20505	-22.78276	18.71441	12.20505	-1.62734	-15.45973	2.44101	-47.19286	0
71	4.88202	-21.15542	-25.22377	6.50936	14.64606	-22.78276	23.59643	17.08707	-1.62734	-10.57771	4.88202	-44.75185	0
72	9.76404	-13.83239	-22.78276	1.62734	14.64606	-17.90074	26.03744	19.52808	-1.62734	-8.1367	9.76404	-42.31084	0
73	17.08707	-6.50936	-22.78276	-5.69569	19.52808	-13.01872	28.47845	21.96909	-1.62734	-5.69569	12.20505	-37.42882	0
74	19.52808	-6.50936	-25.22377	-8.1367	21.96909	-15.45973	28.47845	21.96909	-4.06835	-5.69569	12.20505	-37.42882	0
75	17.08707	-3.25468	-20.34175	-8.1367	19.52808	-10.57771	28.47845	21.96909	-6.50936	-8.1367	12.20505	-37.42882	0
76	14.64606	-3.25468	-17.90074	-5.69569	17.08707	-10.57771	30.91946	24.4101	-6.50936	-8.1367	12.20505	-34.98781	0
77	12.20505	1.62734	-10.57771	-8.1367	12.20505	-3.25468	38.24249	29.29212	-1.62734	-3.25468	14.64606	-30.10579	0
78	17.08707	6.50936	-10.57771	-13.01872	14.64606	-0.81367	40.6835	34.17414	0.81367	-0.81367	17.08707	-24.4101	0
79	21.96909	8.95037	-13.01872	-15.45973	17.08707	-0.81367	45.56552	39.05616	5.69569	4.06835	21.96909	-19.52808	0
80	24.4101	11.39138	-13.01872	-17.90074	19.52808	-0.81367	48.00653	43.93818	10.57771	8.95037	24.4101	-12.20505	0
81	29.29212	13.83239	-15.45973	-22.78276	21.96909	-0.81367	50.44754	46.37919	17.90074	13.83239	29.29212	-7.32303	0
82	31.73313	18.71441	-13.01872	-25.22377	21.96909	4.88202	50.44754	48.8202	22.78276	16.2734	34.17414	-2.44101	0
83	36.61515	23.59643	-13.01872	-30.10579	24.4101	7.32303	48.00653	51.26121	22.78276	18.71441	36.61515	0	0
84	43.93818	30.91946	-13.01872	-37.42882	29.29212	9.76404	43.12451	48.8202	22.78276	18.71441	39.05616	2.44101	0
85	41.49717	38.24249	-3.25468	-39.86983	21.96909	19.52808	43.12451	48.8202	25.22377	18.71441	39.05616	2.44101	0
86	36.61515	38.24249	1.62734	-37.42882	17.08707	21.96909	43.12451	48.8202	25.22377	18.71441	39.05616	4.88202	0
87	34.17414	40.6835	7.32303	-37.42882	14.64606	24.4101	43.12451	48.8202	22.78276	18.71441	39.05616	4.88202	0
88	29.29212	35.80148	7.32303	-32.5468	12.20505	21.96909	40.6835	46.37919	20.34175	16.2734	39.05616	2.44101	0
89	24.4101	26.03744	1.62734	-25.22377	12.20505	14.64606	38.24249	41.49717	13.01872	11.39138	34.17414	0	0
90	17.08707	16.2734	-0.81367	-17.90074	9.76404	9.76404	35.80148	34.17414	10.57771	8.95037	29.29212	0	0
91	12.20505	4.06835	-8.1367	-8.1367	9.76404	-0.81367	30.91946	26.85111	3.25468	4.06835	24.4101	-4.88202	0
92	12.20505	-0.81367	-13.01872	-5.69569	12.20505	-5.69569	23.59643	14.64606	-4.06835	-3.25468	21.96909	-7.32303	0
93	14.64606	-3.25468	-17.90074	-5.69569	17.08707	-10.57771	16.2734	7.32303	-8.95037	-8.1367	17.08707	-7.32303	0
94	19.52808	-0.81367	-20.34175	-10.57771	19.52808	-10.57771	8.95037	1.62734	-13.83239	-13.01872	14.64606	-7.32303	0
95	24.4101	4.06835	-20.34175	-15.45973	21.96909	-8.1367	5.69569	1.62734	-13.83239	-13.01872	17.08707	-4.88202	0
96	29.29212	8.95037	-20.34175	-20.34175	24.4101	-5.69569	5.69569	1.62734	-13.83239	-13.01872	17.08707	-2.44101	0
97	39.05616	13.83239	-25.22377	-27.66478	31.73313	-5.69569	0.81367	1.62734	-11.39138	-13.01872	17.08707	0	0
98	51.26121	16.2734	-34.98781	-34.98781	43.93818	-8.1367	-1.62734	1.62734	-8.95037	-13.01872	19.52808	0	0
99	61.02525	18.71441	-42.31084	-39.86983	51.26121	-10.57771	-1.62734	4.06835	-6.50936	-10.57771	21.96909	4.88202	0
100	65.90727	18.71441	-47.19286	-42.31084	56.14323	-13.01872	3.25468	4.06835	-4.06835	-8.1367	21.96909	7.32303	1000	P+0
101	68.34828	13.83239	-54.51589	-42.31084	61.02525	-20.34175	3.25468	1.62734	-4.06835	-8.1367	24.4101	12.20505	0
102	75.67131	13.83239	-61.83892	-44.75185	68.34828	-22.78276	0.81367	-5.69569	-6.50936	-10.57771	21.96909	12.20505	0
103	78.11232	13.83239	-64.27993	-47.19286	70.78929	-25.22377	0.81367	-8.1367	-6.50936	-10.57771	21.96909	14.64606	0
104	68.34828	13.83239	-54.51589	-42.31084	61.02525	-20.34175	0.81367	-15.45973	-11.39138	-13.01872	17.08707	17.08707	0
105	51.26121	8.95037	-42.31084	-30.10579	46.37919	-15.45973	3.25468	-20.34175	-16.2734	-17.90074	12.20505	19.52808	0
106	36.61515	4.06835	-32.5468	-20.34175	34.17414	-13.01872	3.25468	-25.22377	-21.96909	-22.78276	7.32303	17.08707	0
107	24.4101	-3.25468	-27.66478	-10.57771	26.85111	-15.45973	5.69569	-30.10579	-26.85111	-28.47845	0	12.20505	0
108	19.52808	-6.50936	-25.22377	-8.1367	21.96909	-15.45973	5.69569	-34.98781	-34.17414	-35.80148	-7.32303	7.32303	0
109	12.20505	-13.83239	-25.22377	-0.81367	17.08707	-17.90074	8.95037	-39.86983	-36.61515	-38.24249	-14.64606	2.44101	0
110	9.76404	-23.59643	-32.5468	6.50936	19.52808	-27.66478	11.39138	-47.19286	-43.93818	-45.56552	-24.4101	-4.88202	0
111	14.64606	-33.36047	-47.19286	6.50936	29.29212	-39.86983	11.39138	-54.51589	-48.8202	-50.44754	-30.10579	-9.76404	0
112	14.64606	-38.24249	-52.07488	9.76404	31.73313	-44.75185	13.83239	-56.9569	-51.26121	-52.88855	-32.5468	-12.20505	0
113	9.76404	-40.6835	-49.63387	14.64606	29.29212	-44.75185	13.83239	-59.39791	-51.26121	-52.88855	-34.98781	-12.20505	0
114	4.88202	-43.12451	-47.19286	17.08707	24.4101	-44.75185	13.83239	-61.83892	-53.70222	-52.88855	-34.98781	-14.64606	0
115	-2.44101	-45.56552	-42.31084	21.96909	19.52808	-42.31084	16.2734	-61.83892	-53.70222	-52.88855	-34.98781	-12.20505	0
116	-7.32303	-45.56552	-37.42882	24.4101	14.64606	-39.86983	16.2734	-61.83892	-53.70222	-52.88855	-34.98781	-12.20505	0
117	-7.32303	-40.6835	-32.5468	21.96909	12.20505	-34.98781	18.71441	-59.39791	-53.70222	-52.88855	-34.98781	-12.20505	0
118	-13.01872	-48.00653	-34.98781	29.29212	9.76404	-42.31084	18.71441	-61.83892	-56.14323	-55.32956	-37.42882	-12.20505	0
119	-15.45973	-55.32956	-39.86983	34.17414	12.20505	-47.19286	18.71441	-66.72094	-58.58424	-57.77057	-42.31084	-19.52808	0
120	-20.34175	-60.21158	-39.86983	39.05616	9.76404	-49.63387	16.2734	-69.16195	-61.02525	-60.21158	-44.75185	-21.96909	0
121	-20.34175	-67.53461	-47.19286	41.49717	12.20505	-56.9569	13.83239	-74.04397	-63.46626	-62.65259	-49.63387	-26.85111	0
122	-25.22377	-74.85764	-49.63387	48.8202	12.20505	-61.83892	8.95037	-78.92599	-68.34828	-67.53461	-56.9569	-32.5468	0
123	-30.10579	-82.18067	-52.07488	53.70222	9.76404	-66.72094	8.95037	-83.80801	-73.2303	-69.97562	-56.9569	-34.98781	0
124	-34.98781	-84.62168	-49.63387	58.58424	7.32303	-66.72094	5.69569	-83.80801	-73.2303	-72.41663	-59.39791	-39.86983	0
125	-34.98781	-77.29865	-42.31084	53.70222	2.44101	-59.39791	8.95037	-81.367	-73.2303	-72.41663	-59.39791	-39.86983	0
126	-34.98781	-74.85764	-39.86983	53.70222	2.44101	-56.9569	11.39138	-78.92599	-73.2303	-69.97562	-59.39791	-39.86983	0
127	-34.98781	-74.85764	-39.86983	53.70222	2.44101	-56.9569	13.83239	-76.48498	-70.78929	-69.97562	-56.9569	-42.31084	0
128	-32.5468	-72.41663	-39.86983	51.26121	2.44101	-56.9569	16.2734	-76.48498	-70.78929	-69.97562	-56.9569	-44.75185	0
129	-32.5468	-72.41663	-39.86983	51.26121	2.44101	-56.9569	18.71441	-74.04397	-68.34828	-67.53461	-56.9569	-47.19286	0
130	-37.42882	-74.85764	-37.42882	53.70222	0	-56.9569	23.59643	-71.60296	-63.46626	-62.65259	-54.51589	-47.19286	0
131	-37.42882	-79.73966	-42.31084	56.14323	2.44101	-61.83892	23.59643	-71.60296	-63.46626	-60.21158	-54.51589	-49.63387	0
132	-30.10579	-74.85764	-44.75185	51.26121	7.32303	-59.39791	26.03744	-74.04397	-61.02525	-60.21158	-52.07488	-49.63387	0
133	-25.22377	-69.97562	-44.75185	46.37919	9.76404	-56.9569	28.47845	-74.04397	-58.58424	-55.32956	-49.63387	-49.63387	0
134	-25.22377	-62.65259	-37.42882	41.49717	4.88202	-49.63387	30.91946	-74.04397	-56.14323	-50.44754	-47.19286	-47.19286	0
135	-30.10579	-57.77057	-27.66478	41.49717	-2.44101	-42.31084	33.36047	-69.16195	-51.26121	-48.00653	-42.31084	-47.19286	0
136	-27.66478	-55.32956	-27.66478	39.05616	0	-42.31084	33.36047	-69.16195	-51.26121	-45.56552	-42.31084	-47.19286	0
137	-20.34175	-50.44754	-30.10579	34.17414	4.88202	-39.86983	33.36047	-66.72094	-51.26121	-48.00653	-42.31084	-47.19286	0
138	-17.90074	-50.44754	-32.5468	31.73313	7.32303	-42.31084	35.80148	-64.27993	-51.26121	-48.00653	-39.86983	-47.19286	0
139	-20.34175	-52.88855	-32.5468	34.17414	4.88202	-42.31084	35.80148	-61.83892	-48.8202	-45.56552	-39.86983	-47.19286	0
140	-22.78276	-57.77057	-34.98781	39.05616	4.88202	-47.19286	35.80148	-61.83892	-46.37919	-45.56552	-39.86983	-47.19286	0
141	-22.78276	-62.65259	-39.86983	41.49717	7.32303	-52.07488	35.80148	-61.83892	-46.37919	-45.56552	-39.86983	-47.19286	0
142	-20.34175	-62.65259	-42.31084	39.05616	9.76404	-52.07488	38.24249	-64.27993	-46.37919	-45.56552	-37.42882	-44.75185	0
143	-22.78276	-62.65259	-39.86983	41.49717	7.32303	-52.07488	40.6835	-64.27993	-41.49717	-43.12451	-34.98781	-42.31084	0
144	-32.5468	-60.21158	-27.66478	43.93818	-2.44101	-44.75185	48.00653	-59.39791	-34.17414	-40.6835	-34.98781	-39.86983	0
145	-39.86983	-62.65259	-22.78276	48.8202	-10.57771	-42.31084	57.77057	-49.63387	-31.73313	-43.12451	-39.86983	-47.19286	0
146	-54.51589	-67.53461	-13.01872	58.58424	-22.78276	-39.86983	74.85764	-30.10579	-24.4101	-48.00653	-49.63387	-59.39791	0
147	-66.72094	-74.85764	-8.1367	68.34828	-30.10579	-42.31084	99.26774	-0.81367	-16.2734	-52.88855	-64.27993	-74.04397	0
148	-83.80801	-84.62168	-0.81367	82.99434	-42.31084	-42.31084	131.00087	36.61515	-6.50936	-60.21158	-81.367	-93.57205	0
149	-91.13104	-96.82673	-5.69569	92.75838	-44.75185	-52.07488	162.734	78.11232	5.69569	-69.97562	-100.89508	-115.54114	0
150	-96.01306	-106.59077	-10.57771	100.08141	-44.75185	-59.39791	196.90814	126.93252	25.22377	-72.41663	-117.98215	-135.06922	0
151	-98.45407	-113.9138	-15.45973	104.96343	-42.31084	-64.27993	233.52329	187.95777	56.9569	-60.21158	-117.98215	-139.95124	0
152	-81.367	-111.47279	-30.10579	95.19939	-27.66478	-71.60296	262.81541	258.74706	105.7771	-28.47845	-98.45407	-127.74619	0
153	-54.51589	-106.59077	-52.07488	78.11232	-2.44101	-78.92599	282.34349	331.97736	169.24336	21.15542	-59.39791	-100.89508	0
154	0	-94.38572	-93.57205	46.37919	46.37919	-93.57205	287.22551	402.76665	247.35568	96.82673	7.32303	-49.63387	0
155	70.78929	-72.41663	-142.39225	-0.81367	104.96343	-105.7771	275.02046	475.99695	347.43709	201.79016	109.84545	26.85111	0
156	153.78363	-40.6835	-193.65346	-56.9569	173.31171	-115.54114	245.72834	537.0222	462.16456	333.6047	244.101	136.69656	0
157	266.07009	6.50936	-259.56073	-137.51023	263.62908	-125.30518	187.1441	571.19634	579.33304	489.82934	407.64867	275.83413	0
158	397.88463	67.53461	-330.35002	-232.70962	363.71049	-130.1872	106.59077	583.40139	703.82455	665.58206	598.04745	439.3818	0
159	541.90422	145.64693	-396.25729	-344.99608	468.67392	-125.30518	13.83239	585.8424	840.52111	863.30387	815.29734	629.78058	0
160	685.92381	235.9643	-449.95951	-462.16456	568.75533	-105.7771	-89.5037	571.19634	972.33565	1068.34871	1047.19329	832.38441	0
161	812.85633	336.04571	-476.81062	-574.45102	644.42664	-69.16195	-187.1441	546.78624	1099.26817	1270.95254	1274.20722	1034.98824	0
162	917.81976	445.89116	-471.9286	-681.85546	695.68785	-13.01872	-265.25642	527.25816	1218.87766	1463.79233	1489.0161	1227.82803	0
163	973.96299	553.2956	-420.66739	-764.8498	698.12886	68.34828	-314.07662	512.6121	1323.84109	1632.22202	1673.71919	1396.25772	0
164	973.96299	646.05398	-327.90901	-811.22899	651.74967	161.10666	-331.16369	483.31998	1382.42533	1738.81279	1795.76969	1518.30822	0
165	930.02481	711.96125	-218.06356	-820.99303	573.63735	248.98302	-328.72268	429.61776	1360.45624	1738.81279	1807.97474	1547.60034	0
166	842.14845	736.37135	-105.7771	-789.2599	473.55594	317.3313	-296.98955	349.06443	1243.28776	1612.69394	1683.48323	1464.606	0
167	717.65694	741.25337	24.4101	-730.67566	346.62342	383.23857	-240.84632	256.30605	1065.09403	1402.76708	1474.37004	1308.38136	0
168	566.31432	719.28428	153.78363	-642.7993	207.48585	436.94079	-167.61602	141.57858	830.75707	1126.93295	1203.41793	1098.4545	0
169	417.41271	663.14105	246.54201	-540.27688	85.43535	456.46887	-96.82673	4.06835	545.1589	802.27862	886.08663	847.03047	0
170	283.15716	585.02873	302.68524	-435.31345	-10.57771	444.26382	-28.47845	-130.1872	252.2377	460.53722	556.55028	573.63735	0
171	158.66565	487.38833	329.53635	-323.02699	-86.24902	410.08968	43.12451	-244.91467	-16.2734	148.08794	251.42403	310.00827	0
172	43.93818	399.51197	356.38746	-222.94558	-157.03831	378.35655	116.35481	-332.79103	-217.24989	-82.18067	26.85111	109.84545	0
173	-49.63387	321.39965	371.03352	-137.51023	-210.74053	346.62342	187.1441	-393.81628	-351.50544	-228.64127	-113.10013	-24.4101	0
174	-117.98215	238.40531	356.38746	-61.83892	-237.59164	297.80322	228.64127	-440.19547	-446.70483	-328.72268	-210.74053	-120.42316	0
175	-159.47932	160.29299	319.77231	-0.81367	-240.03265	239.21898	245.72834	-469.48759	-493.08402	-384.86591	-271.76578	-188.77144	0
176	-183.88942	89.5037	273.39312	46.37919	-227.8276	180.63474	245.72834	-476.81062	-500.40705	-404.39399	-301.0579	-230.26861	0
177	-198.53548	35.80148	234.33696	80.55333	-215.62255	134.25555	231.08228	-469.48759	-488.202	-401.95298	-308.38093	-247.35568	0
178	-193.65346	-3.25468	190.39878	97.6404	-191.21245	92.75838	196.90814	-454.84153	-458.90988	-379.98389	-291.29386	-247.35568	0
179	-176.56639	-26.03744	151.34262	100.08141	-164.36134	63.46626	148.08794	-432.87244	-417.41271	-345.80975	-262.00174	-232.70962	0
180	-154.5973	-40.6835	114.72747	95.19939	-135.06922	36.61515	101.70875	-401.13931	-371.03352	-306.75359	-225.38659	-210.74053	0
181	-125.30518	-40.6835	85.43535	80.55333	-105.7771	21.96909	62.65259	-362.08315	-327.09534	-270.13844	-191.21245	-188.77144	0
182	-105.7771	-30.91946	75.67131	65.90727	-91.13104	21.96909	45.56552	-315.70396	-280.71615	-231.08228	-152.15629	-161.92033	0
183	-91.13104	-11.39138	80.55333	48.8202	-86.24902	34.17414	35.80148	-271.76578	-234.33696	-194.46713	-120.42316	-135.06922	0
184	-74.04397	6.50936	80.55333	31.73313	-76.48498	43.93818	33.36047	-232.70962	-197.72181	-162.734	-93.57205	-113.10013	0
185	-74.04397	21.15542	95.19939	24.4101	-83.80801	58.58424	43.12451	-196.09447	-163.54767	-138.3239	-74.04397	-93.57205	0
186	-74.04397	28.47845	102.52242	21.96909	-88.69003	65.90727	52.88855	-171.68437	-144.01959	-121.23683	-64.27993	-83.80801	0
187	-81.367	33.36047	114.72747	21.96909	-98.45407	73.2303	62.65259	-154.5973	-129.37353	-111.47279	-56.9569	-76.48498	0
188	-88.69003	33.36047	122.0505	26.85111	-105.7771	78.11232	69.97562	-144.83326	-119.60949	-104.14976	-54.51589	-71.60296	0
189	-88.69003	30.91946	119.60949	26.85111	-103.33609	75.67131	69.97562	-142.39225	-117.16848	-104.14976	-54.51589	-69.16195	0
190	-96.01306	26.03744	122.0505	34.17414	-108.21811	73.2303	69.97562	-139.95124	-114.72747	-101.70875	-52.07488	-69.16195	0
191	-96.01306	21.15542	117.16848	36.61515	-105.7771	68.34828	67.53461	-142.39225	-114.72747	-101.70875	-52.07488	-69.16195	0
192	-93.57205	21.15542	114.72747	34.17414	-103.33609	68.34828	62.65259	-147.27427	-119.60949	-106.59077	-52.07488	-71.60296	0
193	-93.57205	16.2734	109.84545	36.61515	-100.89508	63.46626	60.21158	-154.5973	-124.49151	-106.59077	-52.07488	-71.60296	0
194	-100.89508	13.83239	114.72747	41.49717	-108.21811	63.46626	57.77057	-159.47932	-126.93252	-109.03178	-52.07488	-74.04397	0
195	-103.33609	13.83239	117.16848	43.93818	-110.65912	65.90727	55.32956	-161.92033	-129.37353	-111.47279	-54.51589	-74.04397	0
196	-103.33609	18.71441	122.0505	41.49717	-113.10013	70.78929	52.88855	-164.36134	-134.25555	-113.9138	-54.51589	-74.04397	0
197	-100.89508	18.71441	119.60949	39.05616	-110.65912	68.34828	52.88855	-166.80235	-134.25555	-113.9138	-54.51589	-74.04397	0
198	-103.33609	18.71441	122.0505	41.49717	-113.10013	70.78929	52.88855	-166.80235	-134.25555	-113.9138	-52.07488	-74.04397	0
199	-96.01306	23.59643	119.60949	34.17414	-108.21811	70.78929	52.88855	-164.36134	-134.25555	-113.9138	-47.19286	-71.60296	0
200	-93.57205	26.03744	119.60949	31.73313	-105.7771	73.2303	52.88855	-161.92033	-134.25555	-113.9138	-47.19286	-69.16195	0
201	-91.13104	23.59643	114.72747	31.73313	-103.33609	68.34828	52.88855	-161.92033	-134.25555	-111.47279	-44.75185	-69.16195	0
202	-86.24902	23.59643	109.84545	29.29212	-98.45407	65.90727	55.32956	-164.36134	-136.69656	-111.47279	-44.75185	-66.72094	0
203	-88.69003	23.59643	112.28646	31.73313	-100.89508	68.34828	55.32956	-166.80235	-136.69656	-111.47279	-44.75185	-66.72094	0
204	-88.69003	28.47845	117.16848	29.29212	-103.33609	73.2303	57.77057	-166.80235	-139.13757	-111.47279	-42.31084	-66.72094	0
205	-91.13104	30.91946	122.0505	29.29212	-105.7771	75.67131	57.77057	-166.80235	-139.13757	-111.47279	-42.31084	-66.72094	0
206	-100.89508	28.47845	129.37353	34.17414	-115.54114	78.11232	60.21158	-164.36134	-139.13757	-109.03178	-44.75185	-66.72094	0
207	-98.45407	28.47845	126.93252	34.17414	-113.10013	78.11232	60.21158	-164.36134	-139.13757	-111.47279	-47.19286	-69.16195	0
208	-100.89508	26.03744	126.93252	36.61515	-113.10013	75.67131	60.21158	-159.47932	-139.13757	-111.47279	-49.63387	-71.60296	0
209	-103.33609	21.15542	124.49151	39.05616	-113.10013	73.2303	60.21158	-157.03831	-139.13757	-111.47279	-49.63387	-74.04397	0
210	-103.33609	16.2734	119.60949	41.49717	-110.65912	68.34828	60.21158	-154.5973	-139.13757	-113.9138	-49.63387	-78.92599	0
211	-100.89508	11.39138	112.28646	43.93818	-105.7771	61.02525	57.77057	-152.15629	-141.57858	-113.9138	-49.63387	-78.92599	0
212	-100.89508	11.39138	112.28646	43.93818	-105.7771	61.02525	57.77057	-149.71528	-139.13757	-113.9138	-44.75185	-78.92599	0
213	-98.45407	16.2734	114.72747	39.05616	-105.7771	65.90727	60.21158	-149.71528	-139.13757	-111.47279	-44.75185	-78.92599	0
214	-103.33609	18.71441	122.0505	41.49717	-113.10013	70.78929	60.21158	-147.27427	-139.13757	-111.47279	-44.75185	-78.92599	0
215	-108.21811	23.59643	131.81454	41.49717	-120.42316	78.11232	60.21158	-144.83326	-139.13757	-111.47279	-47.19286	-78.92599	0
216	-103.33609	26.03744	129.37353	36.61515	-115.54114	78.11232	57.77057	-147.27427	-141.57858	-113.9138	-52.07488	-81.367	0
217	-103.33609	30.91946	134.25555	34.17414	-117.98215	82.99434	60.21158	-144.83326	-141.57858	-113.9138	-54.51589	-81.367	0
218	-98.45407	30.91946	129.37353	31.73313	-113.10013	80.55333	60.21158	-144.83326	-141.57858	-116.35481	-56.9569	-86.24902	0
219	-93.57205	26.03744	119.60949	31.73313	-105.7771	73.2303	57.77057	-144.83326	-144.01959	-118.79582	-54.51589	-86.24902	0
220	-96.01306	23.59643	119.60949	34.17414	-108.21811	70.78929	60.21158	-142.39225	-141.57858	-118.79582	-49.63387	-83.80801	0
221	-93.57205	18.71441	112.28646	36.61515	-103.33609	65.90727	60.21158	-142.39225	-141.57858	-116.35481	-42.31084	-81.367	0
222	-93.57205	18.71441	112.28646	36.61515	-103.33609	65.90727	62.65259	-139.95124	-136.69656	-113.9138	-34.98781	-74.04397	0
223	-93.57205	21.15542	114.72747	34.17414	-103.33609	68.34828	65.0936	-137.51023	-136.69656	-111.47279	-30.10579	-69.16195	0
224	-93.57205	23.59643	117.16848	34.17414	-105.7771	70.78929	67.53461	-137.51023	-134.25555	-109.03178	-32.5468	-64.27993	0
225	-96.01306	28.47845	124.49151	31.73313	-110.65912	75.67131	69.97562	-137.51023	-134.25555	-111.47279	-37.42882	-61.83892	0
226	-96.01306	30.91946	126.93252	31.73313	-110.65912	78.11232	69.97562	-135.06922	-136.69656	-111.47279	-42.31084	-61.83892	0
227	-98.45407	33.36047	131.81454	31.73313	-115.54114	82.99434	72.41663	-135.06922	-136.69656	-111.47279	-47.19286	-61.83892	0
228	-93.57205	35.80148	129.37353	26.85111	-110.65912	82.99434	72.41663	-135.06922	-136.69656	-113.9138	-49.63387	-61.83892	0
229	-96.01306	35.80148	131.81454	29.29212	-113.10013	82.99434	72.41663	-132.62821	-136.69656	-113.9138	-47.19286	-59.39791	0
230	-96.01306	35.80148	131.81454	29.29212	-113.10013	82.99434	69.97562	-130.1872	-136.69656	-111.47279	-42.31084	-56.9569	0
231	-93.57205	33.36047	126.93252	29.29212	-110.65912	80.55333	67.53461	-127.74619	-134.25555	-106.59077	-37.42882	-52.07488	0
232	-91.13104	35.80148	126.93252	26.85111	-108.21811	80.55333	67.53461	-125.30518	-129.37353	-104.14976	-30.10579	-47.19286	0
233	-83.80801	40.6835	124.49151	19.52808	-103.33609	82.99434	67.53461	-122.86417	-124.49151	-99.26774	-24.4101	-42.31084	0
234	-76.48498	45.56552	122.0505	14.64606	-98.45407	82.99434	67.53461	-122.86417	-122.0505	-96.82673	-21.96909	-37.42882	0
235	-76.48498	48.00653	124.49151	12.20505	-100.89508	85.43535	67.53461	-120.42316	-119.60949	-94.38572	-24.4101	-34.98781	0
236	-76.48498	48.00653	124.49151	12.20505	-100.89508	85.43535	69.97562	-117.98215	-114.72747	-91.94471	-26.85111	-34.98781	0
237	-74.04397	50.44754	124.49151	9.76404	-98.45407	87.87636	72.41663	-115.54114	-114.72747	-89.5037	-30.10579	-32.5468	0
238	-74.04397	50.44754	124.49151	9.76404	-98.45407	87.87636	74.85764	-110.65912	-112.28646	-87.06269	-30.10579	-30.10579	0
239	-71.60296	48.00653	119.60949	9.76404	-96.01306	82.99434	77.29865	-108.21811	-109.84545	-84.62168	-24.4101	-30.10579	0
240	-69.16195	45.56552	114.72747	9.76404	-91.13104	80.55333	79.73966	-105.7771	-109.84545	-82.18067	-19.52808	-24.4101	0
241	-71.60296	43.12451	114.72747	12.20505	-93.57205	78.11232	79.73966	-103.33609	-107.40444	-77.29865	-14.64606	-19.52808	0
242	-71.60296	40.6835	112.28646	14.64606	-91.13104	75.67131	79.73966	-103.33609	-107.40444	-74.85764	-7.32303	-14.64606	0
243	-74.04397	40.6835	114.72747	14.64606	-93.57205	78.11232	79.73966	-105.7771	-109.84545	-74.85764	-7.32303	-12.20505	0
244	-76.48498	38.24249	114.72747	17.08707	-96.01306	75.67131	79.73966	-108.21811	-112.28646	-74.85764	-4.88202	-9.76404	0
245	-81.367	38.24249	119.60949	19.52808	-100.89508	78.11232	77.29865	-108.21811	-112.28646	-77.29865	-9.76404	-9.76404	0
246	-81.367	40.6835	122.0505	19.52808	-100.89508	80.55333	77.29865	-108.21811	-114.72747	-77.29865	-12.20505	-9.76404	0
247	-78.92599	40.6835	119.60949	17.08707	-98.45407	80.55333	77.29865	-108.21811	-114.72747	-79.73966	-17.08707	-12.20505	0
248	-78.92599	38.24249	117.16848	19.52808	-98.45407	78.11232	77.29865	-105.7771	-117.16848	-82.18067	-19.52808	-12.20505	0
249	-78.92599	33.36047	112.28646	21.96909	-96.01306	73.2303	79.73966	-100.89508	-114.72747	-79.73966	-19.52808	-12.20505	0
250	-81.367	33.36047	114.72747	21.96909	-98.45407	73.2303	79.73966	-96.01306	-109.84545	-74.85764	-17.08707	-9.76404	0
251	-76.48498	33.36047	109.84545	19.52808	-93.57205	70.78929	82.18067	-93.57205	-107.40444	-72.41663	-14.64606	-4.88202	0
252	-71.60296	33.36047	104.96343	17.08707	-88.69003	68.34828	82.18067	-93.57205	-104.96343	-69.97562	-9.76404	-2.44101	0
253	-71.60296	33.36047	104.96343	17.08707	-88.69003	68.34828	79.73966	-93.57205	-102.52242	-67.53461	-7.32303	0	0
254	-76.48498	38.24249	114.72747	17.08707	-96.01306	75.67131	79.73966	-93.57205	-100.08141	-62.65259	-7.32303	4.88202	0
255	-74.04397	43.12451	117.16848	14.64606	-96.01306	80.55333	77.29865	-96.01306	-100.08141	-62.65259	-7.32303	7.32303	0
256	-66.72094	45.56552	112.28646	9.76404	-88.69003	78.11232	72.41663	-98.45407	-104.96343	-67.53461	-12.20505	4.88202	0
257	-61.83892	45.56552	107.40444	6.50936	-83.80801	75.67131	72.41663	-100.89508	-107.40444	-67.53461	-12.20505	4.88202	0
258	-59.39791	48.00653	107.40444	4.06835	-83.80801	78.11232	72.41663	-100.89508	-104.96343	-65.0936	-7.32303	9.76404	0
259	-56.9569	50.44754	107.40444	1.62734	-81.367	78.11232	72.41663	-96.01306	-100.08141	-62.65259	-2.44101	14.64606	0
260	-54.51589	50.44754	104.96343	1.62734	-78.92599	78.11232	74.85764	-91.13104	-95.19939	-55.32956	4.88202	19.52808	0
261	-49.63387	50.44754	100.08141	-0.81367	-74.04397	75.67131	77.29865	-86.24902	-87.87636	-48.00653	17.08707	26.85111	0
262	-47.19286	55.32956	102.52242	-5.69569	-74.04397	78.11232	82.18067	-78.92599	-78.11232	-40.6835	26.85111	34.17414	0
263	-42.31084	62.65259	104.96343	-10.57771	-74.04397	82.99434	82.18067	-74.04397	-70.78929	-35.80148	31.73313	39.05616	0
264	-42.31084	65.0936	107.40444	-13.01872	-74.04397	85.43535	82.18067	-69.16195	-68.34828	-33.36047	31.73313	39.05616	0
265	-42.31084	67.53461	109.84545	-13.01872	-76.48498	87.87636	82.18067	-66.72094	-65.90727	-33.36047	26.85111	39.05616	0
266	-39.86983	69.97562	109.84545	-15.45973	-74.04397	90.31737	82.18067	-64.27993	-65.90727	-35.80148	19.52808	34.17414	1500	QRS+0
267	-37.42882	69.97562	107.40444	-17.90074	-71.60296	87.87636	77.29865	-64.27993	-65.90727	-40.6835	14.64606	29.29212	0
268	-42.31084	67.53461	109.84545	-13.01872	-76.48498	87.87636	72.41663	-61.83892	-63.46626	-40.6835	12.20505	26.85111	0
269	-44.75185	65.0936	109.84545	-10.57771	-76.48498	87.87636	72.41663	-56.9569	-61.02525	-40.6835	17.08707	26.85111	0
270	-44.75185	65.0936	109.84545	-10.57771	-76.48498	87.87636	69.97562	-52.07488	-56.14323	-35.80148	21.96909	29.29212	0
271	-44.75185	60.21158	104.96343	-8.1367	-74.04397	82.99434	69.97562	-49.63387	-51.26121	-33.36047	31.73313	31.73313	0
272	-42.31084	60.21158	102.52242	-10.57771	-71.60296	80.55333	67.53461	-47.19286	-48.8202	-28.47845	39.05616	36.61515	0
273	-37.42882	62.65259	100.08141	-13.01872	-69.16195	80.55333	65.0936	-47.19286	-43.93818	-28.47845	46.37919	41.49717	0
274	-34.98781	69.97562	104.96343	-17.90074	-69.16195	87.87636	65.0936	-42.31084	-41.49717	-22.78276	51.26121	46.37919	0
275	-27.66478	77.29865	104.96343	-25.22377	-66.72094	90.31737	65.0936	-42.31084	-39.05616	-22.78276	51.26121	48.8202	0
276	-25.22377	79.73966	104.96343	-27.66478	-64.27993	92.75838	65.0936	-39.86983	-39.05616	-22.78276	48.8202	48.8202	0
277	-25.22377	77.29865	102.52242	-27.66478	-64.27993	90.31737	62.65259	-34.98781	-34.17414	-20.34175	46.37919	51.26121	0
278	-22.78276	77.29865	100.08141	-27.66478	-61.83892	87.87636	62.65259	-30.10579	-29.29212	-17.90074	51.26121	51.26121	0
279	-17.90074	72.41663	90.31737	-27.66478	-54.51589	80.55333	62.65259	-25.22377	-24.4101	-13.01872	53.70222	53.70222	0
280	-15.45973	69.97562	85.43535	-27.66478	-49.63387	78.11232	60.21158	-17.90074	-18.71441	-8.1367	61.02525	56.14323	0
281	-13.01872	65.0936	78.11232	-27.66478	-44.75185	70.78929	57.77057	-10.57771	-11.39138	-3.25468	68.34828	58.58424	0
282	-10.57771	65.0936	75.67131	-27.66478	-42.31084	70.78929	55.32956	-5.69569	-4.06835	4.06835	75.67131	63.46626	0
283	-7.32303	67.53461	75.67131	-30.10579	-42.31084	73.2303	52.88855	1.62734	3.25468	8.95037	82.99434	68.34828	0
284	2.44101	72.41663	70.78929	-37.42882	-34.98781	73.2303	48.00653	4.06835	5.69569	13.83239	82.99434	70.78929	0
285	4.88202	79.73966	75.67131	-42.31084	-34.98781	78.11232	45.56552	12.20505	10.57771	16.2734	85.43535	73.2303	0
286	4.88202	79.73966	75.67131	-42.31084	-34.98781	78.11232	40.6835	17.08707	13.01872	21.15542	82.99434	75.67131	0
287	7.32303	82.18067	75.67131	-44.75185	-34.98781	80.55333	35.80148	21.96909	15.45973	26.03744	82.99434	75.67131	0
288	9.76404	84.62168	75.67131	-47.19286	-32.5468	80.55333	33.36047	26.85111	20.34175	30.91946	82.99434	75.67131	0
289	12.20505	79.73966	68.34828	-47.19286	-27.66478	75.67131	30.91946	31.73313	27.66478	35.80148	85.43535	78.11232	0
290	17.08707	77.29865	61.02525	-47.19286	-22.78276	70.78929	28.47845	36.61515	32.5468	43.12451	90.31737	80.55333	0
291	21.96909	74.85764	53.70222	-49.63387	-15.45973	65.90727	26.03744	41.49717	42.31084	50.44754	95.19939	82.99434	0
292	31.73313	77.29865	46.37919	-54.51589	-8.1367	63.46626	26.03744	48.8202	49.63387	60.21158	104.96343	90.31737	0
293	41.49717	87.06269	46.37919	-64.27993	-2.44101	68.34828	28.47845	56.14323	61.83892	69.97562	114.72747	97.6404	0
294	53.70222	94.38572	41.49717	-74.04397	7.32303	68.34828	26.03744	58.58424	66.72094	74.85764	119.60949	100.08141	0
295	63.46626	101.70875	39.05616	-83.80801	12.20505	70.78929	23.59643	65.90727	71.60296	77.29865	124.49151	104.96343	0
296	70.78929	111.47279	41.49717	-91.13104	14.64606	78.11232	26.03744	73.2303	78.92599	87.06269	129.37353	112.28646	0
297	78.11232	118.79582	41.49717	-98.45407	19.52808	80.55333	28.47845	80.55333	88.69003	91.94471	134.25555	117.16848	0
298	85.43535	123.67784	39.05616	-105.7771	24.4101	82.99434	28.47845	87.87636	93.57205	99.26774	136.69656	122.0505	0
299	95.19939	126.11885	31.73313	-110.65912	31.73313	80.55333	26.03744	92.75838	100.89508	104.14976	141.57858	124.49151	0
300	104.96343	126.11885	21.96909	-115.54114	41.49717	75.67131	23.59643	100.08141	108.21811	109.03178	144.01959	129.37353	0
301	112.28646	126.11885	14.64606	-120.42316	48.8202	70.78929	21.15542	109.84545	117.98215	116.35481	153.78363	134.25555	0
302	126.93252	128.55986	1.62734	-127.74619	63.46626	65.90727	18.71441	119.60949	127.74619	123.67784	161.10666	141.57858	0
303	144.01959	133.44188	-10.57771	-139.95124	78.11232	63.46626	16.2734	126.93252	132.62821	128.55986	165.98868	144.01959	0
304	153.78363	133.44188	-20.34175	-144.83326	87.87636	58.58424	11.39138	139.13757	139.95124	131.00087	168.42969	144.01959	0
305	156.22464	133.44188	-22.78276	-144.83326	90.31737	56.14323	8.95037	148.90161	144.83326	131.00087	168.42969	146.4606	0
306	158.66565	128.55986	-30.10579	-144.83326	95.19939	51.26121	5.69569	161.10666	147.27427	131.00087	168.42969	144.01959	0
307	161.10666	126.11885	-34.98781	-144.83326	97.6404	46.37919	5.69569	170.8707	152.15629	133.44188	168.42969	144.01959	0
308	165.98868	121.23683	-44.75185	-144.83326	104.96343	39.05616	5.69569	183.07575	157.03831	133.44188	163.54767	141.57858	0
309	173.31171	116.35481	-56.9569	-144.83326	114.72747	31.73313	3.25468	190.39878	161.92033	133.44188	161.10666	136.69656	0
310	170.8707	109.03178	-61.83892	-139.95124	117.16848	24.4101	0.81367	200.16282	164.36134	135.88289	161.10666	134.25555	0
311	178.19373	109.03178	-69.16195	-144.83326	124.49151	21.96909	-1.62734	205.04484	169.24336	140.76491	161.10666	134.25555	0
312	192.83979	111.47279	-81.367	-152.15629	136.69656	17.08707	-4.06835	212.36787	174.12538	145.64693	163.54767	134.25555	0
313	207.48585	116.35481	-91.13104	-161.92033	148.90161	14.64606	-8.95037	217.24989	179.0074	152.96996	165.98868	134.25555	0
314	214.80888	116.35481	-98.45407	-166.80235	156.22464	9.76404	-13.83239	219.6909	179.0074	155.41097	165.98868	134.25555	0
315	217.24989	116.35481	-100.89508	-166.80235	158.66565	9.76404	-16.2734	219.6909	179.0074	157.85198	163.54767	134.25555	0
316	227.01393	121.23683	-105.7771	-174.12538	165.98868	9.76404	-18.71441	224.57292	179.0074	165.17501	165.98868	134.25555	0
317	236.77797	123.67784	-113.10013	-181.44841	175.75272	7.32303	-21.15542	229.45494	181.44841	170.05703	165.98868	134.25555	0
318	241.65999	118.79582	-122.86417	-181.44841	183.07575	-0.81367	-26.03744	231.89595	183.88942	172.49804	165.98868	131.81454	0
319	248.98302	113.9138	-135.06922	-181.44841	192.83979	-10.57771	-26.03744	236.77797	186.33043	174.93905	165.98868	129.37353	0
320	261.18807	113.9138	-147.27427	-188.77144	205.04484	-15.45973	-28.47845	239.21898	186.33043	174.93905	161.10666	126.93252	0
321	273.39312	111.47279	-161.92033	-193.65346	217.24989	-25.22377	-30.91946	241.65999	186.33043	177.38006	156.22464	122.0505	0
322	278.27514	106.59077	-171.68437	-193.65346	224.57292	-32.5468	-35.80148	241.65999	186.33043	174.93905	151.34262	117.16848	0
323	288.03918	99.26774	-188.77144	-193.65346	239.21898	-44.75185	-43.12451	234.33696	181.44841	170.05703	141.57858	109.84545	0
324	295.36221	94.38572	-200.97649	-196.09447	248.98302	-52.07488	-50.44754	227.01393	171.68437	160.29299	131.81454	100.08141	0
325	290.48019	89.5037	-200.97649	-191.21245	246.54201	-54.51589	-50.44754	219.6909	164.36134	152.96996	124.49151	92.75838	0
326	283.15716	79.73966	-203.4175	-181.44841	244.101	-61.83892	-50.44754	214.80888	157.03831	143.20592	114.72747	82.99434	0
327	275.83413	72.41663	-203.4175	-174.12538	239.21898	-64.27993	-50.44754	209.92686	149.71528	138.3239	107.40444	78.11232	0
328	278.27514	65.0936	-213.18154	-171.68437	246.54201	-74.04397	-48.00653	205.04484	144.83326	128.55986	100.08141	70.78929	0
329	273.39312	57.77057	-215.62255	-166.80235	244.101	-78.92599	-40.6835	202.60383	139.95124	126.11885	95.19939	63.46626	0
330	268.5111	52.88855	-215.62255	-161.92033	241.65999	-81.367	-33.36047	202.60383	135.06922	123.67784	90.31737	58.58424	0
331	261.18807	43.12451	-218.06356	-152.15629	239.21898	-86.24902	-26.03744	197.72181	130.1872	118.79582	85.43535	53.70222	0
332	261.18807	35.80148	-225.38659	-149.71528	244.101	-93.57205	-23.59643	187.95777	122.86417	109.03178	78.11232	43.93818	0
333	258.74706	28.47845	-230.26861	-144.83326	244.101	-100.89508	-23.59643	180.63474	113.10013	104.14976	73.2303	36.61515	0
334	246.54201	18.71441	-227.8276	-132.62821	236.77797	-103.33609	-21.15542	170.8707	103.33609	96.82673	65.90727	26.85111	0
335	229.45494	8.95037	-220.50457	-120.42316	224.57292	-105.7771	-16.2734	161.10666	93.57205	84.62168	58.58424	17.08707	0
336	212.36787	-3.25468	-215.62255	-105.7771	214.80888	-108.21811	-16.2734	148.90161	81.367	74.85764	48.8202	4.88202	0
337	195.2808	-11.39138	-205.85851	-93.57205	200.16282	-108.21811	-13.83239	139.13757	71.60296	65.0936	39.05616	-4.88202	0
338	185.51676	-16.2734	-200.97649	-86.24902	192.83979	-108.21811	-8.95037	131.81454	64.27993	57.77057	31.73313	-12.20505	0
339	178.19373	-21.15542	-198.53548	-78.92599	187.95777	-108.21811	-4.06835	126.93252	59.39791	52.88855	24.4101	-19.52808	0
340	170.8707	-26.03744	-196.09447	-74.04397	183.07575	-110.65912	0.81367	122.0505	54.51589	48.00653	17.08707	-24.4101	0
341	168.42969	-30.91946	-198.53548	-69.16195	183.07575	-113.10013	5.69569	114.72747	49.63387	45.56552	14.64606	-30.10579	0
342	165.98868	-30.91946	-196.09447	-69.16195	180.63474	-113.10013	8.95037	109.84545	44.75185	43.12451	14.64606	-30.10579	0
343	163.54767	-28.47845	-191.21245	-69.16195	175.75272	-108.21811	13.83239	102.52242	39.86983	43.12451	14.64606	-30.10579	0
344	163.54767	-26.03744	-188.77144	-69.16195	175.75272	-105.7771	18.71441	97.6404	34.98781	40.6835	14.64606	-32.5468	0
345	153.78363	-26.03744	-179.0074	-64.27993	165.98868	-100.89508	23.59643	90.31737	30.10579	35.80148	14.64606	-34.98781	0
346	144.01959	-30.91946	-174.12538	-56.9569	158.66565	-100.89508	28.47845	85.43535	25.22377	33.36047	12.20505	-37.42882	0
347	129.37353	-35.80148	-164.36134	-47.19286	146.4606	-98.45407	33.36047	80.55333	20.34175	28.47845	12.20505	-39.86983	0
348	117.16848	-40.6835	-157.03831	-39.86983	136.69656	-98.45407	38.24249	78.11232	17.90074	26.03744	12.20505	-42.31084	0
349	109.84545	-48.00653	-157.03831	-32.5468	131.81454	-100.89508	40.6835	73.2303	15.45973	26.03744	12.20505	-42.31084	0
350	102.52242	-52.88855	-154.5973	-25.22377	126.93252	-103.33609	43.12451	68.34828	13.01872	23.59643	9.76404	-44.75185	0
351	95.19939	-57.77057	-152.15629	-20.34175	122.0505	-103.33609	45.56552	65.90727	10.57771	23.59643	7.32303	-47.19286	0
352	87.87636	-60.21158	-147.27427	-15.45973	117.16848	-103.33609	48.00653	61.02525	8.1367	21.15542	2.44101	-49.63387	0
353	85.43535	-60.21158	-144.83326	-13.01872	114.72747	-100.89508	48.00653	56.14323	3.25468	16.2734	0	-52.07488	0
354	82.99434	-55.32956	-137.51023	-15.45973	109.84545	-96.01306	50.44754	53.70222	-1.62734	11.39138	-4.88202	-56.9569	0
355	78.11232	-50.44754	-127.74619	-15.45973	102.52242	-88.69003	52.88855	51.26121	-6.50936	6.50936	-9.76404	-59.39791	0
356	75.67131	-50.44754	-125.30518	-13.01872	100.08141	-86.24902	52.88855	48.8202	-11.39138	4.06835	-12.20505	-64.27993	0
357	75.67131	-48.00653	-122.86417	-15.45973	97.6404	-83.80801	52.88855	48.8202	-13.83239	-0.81367	-17.08707	-69.16195	0
358	73.2303	-45.56552	-117.98215	-15.45973	95.19939	-81.367	55.32956	51.26121	-13.83239	-0.81367	-17.08707	-71.60296	-1500	QRS-0
359	75.67131	-45.56552	-120.42316	-15.45973	97.6404	-81.367	55.32956	51.26121	-16.2734	-0.81367	-19.52808	-74.04397	0
360	75.67131	-45.56552	-120.42316	-15.45973	97.6404	-81.367	57.77057	51.26121	-16.2734	-0.81367	-21.96909	-76.48498	0
361	73.2303	-50.44754	-122.86417	-13.01872	97.6404	-86.24902	60.21158	51.26121	-16.2734	-0.81367	-24.4101	-76.48498	0
362	70.78929	-57.77057	-127.74619	-8.1367	97.6404	-91.13104	60.21158	48.8202	-18.71441	-3.25468	-26.85111	-78.92599	0
363	68.34828	-62.65259	-130.1872	-3.25468	97.6404	-96.01306	60.21158	46.37919	-21.96909	-5.69569	-26.85111	-78.92599	0
364	63.46626	-69.97562	-132.62821	1.62734	97.6404	-100.89508	60.21158	43.93818	-26.85111	-10.57771	-30.10579	-83.80801	0
365	56.14323	-72.41663	-127.74619	6.50936	90.31737	-98.45407	60.21158	43.93818	-29.29212	-13.01872	-30.10579	-86.24902	0
366	48.8202	-79.73966	-127.74619	14.64606	87.87636	-103.33609	60.21158	43.93818	-31.73313	-17.90074	-30.10579	-91.13104	0
367	43.93818	-82.18067	-125.30518	17.08707	82.99434	-103.33609	60.21158	46.37919	-36.61515	-20.34175	-32.5468	-93.57205	0
368	43.93818	-82.18067	-125.30518	17.08707	82.99434	-103.33609	62.65259	48.8202	-36.61515	-22.78276	-32.5468	-96.01306	0
369	46.37919	-79.73966	-125.30518	14.64606	85.43535	-100.89508	65.0936	53.70222	-36.61515	-22.78276	-32.5468	-96.01306	0
370	48.8202	-74.85764	-122.86417	12.20505	85.43535	-98.45407	67.53461	53.70222	-34.17414	-20.34175	-32.5468	-93.57205	0
371	56.14323	-72.41663	-127.74619	6.50936	90.31737	-98.45407	69.97562	56.14323	-31.73313	-17.90074	-32.5468	-91.13104	0
372	63.46626	-67.53461	-130.1872	1.62734	95.19939	-98.45407	69.97562	53.70222	-31.73313	-17.90074	-32.5468	-88.69003	0
373	70.78929	-60.21158	-130.1872	-5.69569	100.08141	-93.57205	65.0936	48.8202	-31.73313	-17.90074	-32.5468	-88.69003	0
374	70.78929	-57.77057	-127.74619	-8.1367	97.6404	-91.13104	65.0936	46.37919	-31.73313	-17.90074	-30.10579	-86.24902	0
375	61.02525	-57.77057	-117.98215	-3.25468	87.87636	-86.24902	65.0936	41.49717	-34.17414	-17.90074	-30.10579	-83.80801	0
376	51.26121	-65.0936	-115.54114	6.50936	82.99434	-88.69003	60.21158	36.61515	-39.05616	-22.78276	-30.10579	-86.24902	0
377	41.49717	-69.97562	-110.65912	12.20505	75.67131	-88.69003	55.32956	34.17414	-41.49717	-25.22377	-30.10579	-86.24902	0
378	26.85111	-77.29865	-103.33609	24.4101	63.46626	-88.69003	55.32956	34.17414	-43.93818	-25.22377	-30.10579	-83.80801	0
379	17.08707	-82.18067	-98.45407	31.73313	56.14323	-88.69003	55.32956	34.17414	-41.49717	-25.22377	-30.10579	-81.367	0
380	17.08707	-84.62168	-100.89508	31.73313	58.58424	-91.13104	52.88855	36.61515	-39.05616	-22.78276	-30.10579	-78.92599	0
381	21.96909	-84.62168	-105.7771	29.29212	63.46626	-93.57205	52.88855	39.05616	-36.61515	-20.34175	-30.10579	-74.04397	0
382	24.4101	-79.73966	-103.33609	26.85111	63.46626	-91.13104	52.88855	43.93818	-31.73313	-17.90074	-26.85111	-69.16195	0
383	26.85111	-77.29865	-103.33609	24.4101	63.46626	-88.69003	57.77057	43.93818	-29.29212	-15.45973	-26.85111	-66.72094	0
384	31.73313	-74.85764	-105.7771	19.52808	68.34828	-88.69003	57.77057	41.49717	-31.73313	-20.34175	-30.10579	-66.72094	0
385	34.17414	-72.41663	-105.7771	17.08707	68.34828	-88.69003	57.77057	36.61515	-31.73313	-25.22377	-32.5468	-69.16195	0
386	31.73313	-72.41663	-103.33609	19.52808	65.90727	-86.24902	60.21158	34.17414	-36.61515	-28.47845	-34.98781	-69.16195	0
387	31.73313	-72.41663	-103.33609	19.52808	65.90727	-86.24902	60.21158	29.29212	-41.49717	-30.91946	-39.86983	-74.04397	0
388	31.73313	-74.85764	-105.7771	19.52808	68.34828	-88.69003	62.65259	26.85111	-41.49717	-30.91946	-42.31084	-74.04397	0
389	29.29212	-77.29865	-105.7771	21.96909	65.90727	-91.13104	62.65259	24.4101	-41.49717	-33.36047	-42.31084	-74.04397	0
390	29.29212	-77.29865	-105.7771	21.96909	65.90727	-91.13104	62.65259	24.4101	-41.49717	-33.36047	-44.75185	-74.04397	0
391	29.29212	-77.29865	-105.7771	21.96909	65.90727	-91.13104	62.65259	24.4101	-41.49717	-30.91946	-47.19286	-71.60296	0
392	31.73313	-77.29865	-108.21811	21.96909	68.34828	-91.13104	62.65259	24.4101	-39.05616	-28.47845	-47.19286	-69.16195	0
393	29.29212	-72.41663	-100.89508	19.52808	63.46626	-86.24902	62.65259	24.4101	-34.17414	-28.47845	-44.75185	-64.27993	0
394	31.73313	-65.0936	-96.01306	14.64606	63.46626	-78.92599	62.65259	24.4101	-34.17414	-25.22377	-42.31084	-61.83892	0
395	31.73313	-60.21158	-91.13104	12.20505	61.02525	-74.04397	60.21158	24.4101	-34.17414	-28.47845	-39.86983	-61.83892	0
396	36.61515	-55.32956	-91.13104	6.50936	63.46626	-71.60296	60.21158	24.4101	-36.61515	-28.47845	-39.86983	-61.83892	0
397	39.05616	-55.32956	-93.57205	6.50936	65.90727	-74.04397	60.21158	21.96909	-41.49717	-33.36047	-42.31084	-66.72094	0
398	39.05616	-55.32956	-93.57205	6.50936	65.90727	-74.04397	60.21158	21.96909	-41.49717	-35.80148	-42.31084	-66.72094	0
399	41.49717	-55.32956	-96.01306	6.50936	68.34828	-74.04397	60.21158	21.96909	-41.49717	-35.80148	-44.75185	-69.16195	0
400	41.49717	-57.77057	-98.45407	6.50936	68.34828	-76.48498	62.65259	26.85111	-39.05616	-35.80148	-44.75185	-69.16195	0
401	39.05616	-60.21158	-98.45407	9.76404	68.34828	-78.92599	65.0936	34.17414	-34.17414	-33.36047	-44.75185	-71.60296	0
402	36.61515	-60.21158	-96.01306	9.76404	65.90727	-76.48498	65.0936	36.61515	-31.73313	-30.91946	-47.19286	-69.16195	0
403	36.61515	-57.77057	-93.57205	9.76404	63.46626	-74.04397	67.53461	41.49717	-24.4101	-28.47845	-42.31084	-66.72094	0
404	39.05616	-57.77057	-96.01306	6.50936	65.90727	-76.48498	67.53461	46.37919	-21.96909	-25.22377	-42.31084	-64.27993	0
405	39.05616	-57.77057	-96.01306	6.50936	65.90727	-76.48498	67.53461	48.8202	-18.71441	-25.22377	-39.86983	-66.72094	0
406	41.49717	-57.77057	-98.45407	6.50936	68.34828	-76.48498	67.53461	48.8202	-21.96909	-28.47845	-42.31084	-66.72094	0
407	36.61515	-62.65259	-98.45407	12.20505	65.90727	-78.92599	67.53461	48.8202	-21.96909	-28.47845	-44.75185	-69.16195	0
408	36.61515	-62.65259	-98.45407	12.20505	65.90727	-78.92599	69.97562	53.70222	-21.96909	-28.47845	-44.75185	-69.16195	0
409	34.17414	-65.0936	-98.45407	14.64606	65.90727	-81.367	72.41663	58.58424	-21.96909	-28.47845	-42.31084	-66.72094	0
410	31.73313	-65.0936	-96.01306	14.64606	63.46626	-78.92599	72.41663	58.58424	-21.96909	-28.47845	-44.75185	-66.72094	0
411	34.17414	-65.0936	-98.45407	14.64606	65.90727	-81.367	69.97562	58.58424	-21.96909	-28.47845	-44.75185	-64.27993	0
412	34.17414	-65.0936	-98.45407	14.64606	65.90727	-81.367	69.97562	58.58424	-21.96909	-28.47845	-44.75185	-61.83892	0
413	34.17414	-60.21158	-93.57205	12.20505	63.46626	-76.48498	69.97562	61.02525	-21.96909	-22.78276	-39.86983	-56.9569	0
414	36.61515	-57.77057	-93.57205	9.76404	63.46626	-74.04397	69.97562	61.02525	-18.71441	-20.34175	-37.42882	-52.07488	0
415	41.49717	-57.77057	-98.45407	6.50936	68.34828	-76.48498	62.65259	56.14323	-21.96909	-25.22377	-37.42882	-52.07488	0
416	43.93818	-57.77057	-100.89508	6.50936	70.78929	-78.92599	60.21158	53.70222	-24.4101	-25.22377	-37.42882	-54.51589	0
417	43.93818	-52.88855	-96.01306	4.06835	68.34828	-74.04397	60.21158	53.70222	-21.96909	-25.22377	-34.98781	-52.07488	0
418	41.49717	-52.88855	-93.57205	4.06835	65.90727	-71.60296	60.21158	51.26121	-24.4101	-28.47845	-34.98781	-52.07488	0
419	39.05616	-50.44754	-88.69003	4.06835	63.46626	-69.16195	57.77057	46.37919	-24.4101	-28.47845	-34.98781	-52.07488	0
420	46.37919	-50.44754	-96.01306	1.62734	70.78929	-71.60296	52.88855	39.05616	-29.29212	-33.36047	-39.86983	-56.9569	0
421	43.93818	-45.56552	-88.69003	-0.81367	65.90727	-66.72094	52.88855	34.17414	-34.17414	-35.80148	-42.31084	-56.9569	0
422	39.05616	-45.56552	-83.80801	1.62734	61.02525	-64.27993	52.88855	31.73313	-34.17414	-35.80148	-44.75185	-59.39791	0
423	36.61515	-43.12451	-78.92599	1.62734	56.14323	-59.39791	52.88855	26.85111	-36.61515	-38.24249	-47.19286	-61.83892	0
424	36.61515	-43.12451	-78.92599	1.62734	56.14323	-59.39791	50.44754	21.96909	-41.49717	-43.12451	-49.63387	-66.72094	0
425	39.05616	-45.56552	-83.80801	1.62734	61.02525	-64.27993	50.44754	17.08707	-43.93818	-48.00653	-52.07488	-69.16195	0
426	34.17414	-45.56552	-78.92599	4.06835	56.14323	-61.83892	52.88855	12.20505	-46.37919	-48.00653	-52.07488	-71.60296	0
427	31.73313	-45.56552	-76.48498	6.50936	53.70222	-59.39791	55.32956	12.20505	-46.37919	-48.00653	-49.63387	-71.60296	0
428	39.05616	-38.24249	-76.48498	-0.81367	56.14323	-56.9569	57.77057	12.20505	-46.37919	-48.00653	-49.63387	-71.60296	0
429	46.37919	-33.36047	-78.92599	-8.1367	61.02525	-54.51589	60.21158	9.76404	-43.93818	-48.00653	-49.63387	-69.16195	0
430	51.26121	-28.47845	-78.92599	-13.01872	63.46626	-52.07488	62.65259	7.32303	-43.93818	-48.00653	-49.63387	-69.16195	0
431	53.70222	-26.03744	-78.92599	-15.45973	65.90727	-52.07488	62.65259	4.06835	-41.49717	-43.12451	-49.63387	-66.72094	0
432	56.14323	-23.59643	-78.92599	-17.90074	65.90727	-49.63387	65.0936	4.06835	-39.05616	-40.6835	-47.19286	-64.27993	0
433	56.14323	-23.59643	-78.92599	-17.90074	65.90727	-49.63387	65.0936	-0.81367	-36.61515	-38.24249	-47.19286	-64.27993	0
434	53.70222	-26.03744	-78.92599	-15.45973	65.90727	-52.07488	65.0936	-5.69569	-39.05616	-38.24249	-47.19286	-64.27993	0
435	46.37919	-30.91946	-76.48498	-8.1367	61.02525	-52.07488	65.0936	-13.01872	-41.49717	-43.12451	-47.19286	-64.27993	0
436	39.05616	-38.24249	-76.48498	-0.81367	56.14323	-56.9569	65.0936	-20.34175	-46.37919	-45.56552	-47.19286	-64.27993	0
437	24.4101	-43.12451	-66.72094	6.50936	43.93818	-54.51589	65.0936	-25.22377	-51.26121	-48.00653	-47.19286	-64.27993	0
438	17.08707	-50.44754	-66.72094	14.64606	41.49717	-56.9569	60.21158	-32.5468	-56.14323	-55.32956	-54.51589	-69.16195	0
439	9.76404	-55.32956	-64.27993	21.96909	36.61515	-59.39791	60.21158	-34.98781	-61.02525	-60.21158	-59.39791	-69.16195	0
440	0	-62.65259	-61.83892	29.29212	29.29212	-61.83892	60.21158	-37.42882	-63.46626	-62.65259	-64.27993	-71.60296	0
441	-2.44101	-65.0936	-61.83892	31.73313	29.29212	-61.83892	62.65259	-37.42882	-65.90727	-65.0936	-69.16195	-71.60296	0
442	4.88202	-65.0936	-69.16195	29.29212	36.61515	-66.72094	62.65259	-37.42882	-65.90727	-67.53461	-71.60296	-71.60296	0
443	17.08707	-65.0936	-81.367	21.96909	48.8202	-71.60296	60.21158	-39.86983	-65.90727	-67.53461	-74.04397	-71.60296	0
444	19.52808	-65.0936	-83.80801	21.96909	51.26121	-74.04397	62.65259	-37.42882	-65.90727	-65.0936	-71.60296	-66.72094	0
445	17.08707	-65.0936	-81.367	21.96909	48.8202	-71.60296	62.65259	-37.42882	-65.90727	-62.65259	-66.72094	-64.27993	0
446	24.4101	-62.65259	-86.24902	17.08707	53.70222	-74.04397	62.65259	-39.86983	-65.90727	-60.21158	-64.27993	-64.27993	0
447	31.73313	-60.21158	-91.13104	12.20505	61.02525	-74.04397	57.77057	-42.31084	-68.34828	-60.21158	-61.83892	-64.27993	0
448	26.85111	-60.21158	-86.24902	14.64606	56.14323	-71.60296	55.32956	-42.31084	-65.90727	-60.21158	-61.83892	-61.83892	0
449	21.96909	-60.21158	-81.367	17.08707	51.26121	-69.16195	52.88855	-42.31084	-65.90727	-60.21158	-61.83892	-59.39791	0
450	14.64606	-62.65259	-76.48498	21.96909	43.93818	-69.16195	50.44754	-44.75185	-63.46626	-60.21158	-64.27993	-59.39791	0
451	21.96909	-62.65259	-83.80801	19.52808	51.26121	-71.60296	48.00653	-47.19286	-63.46626	-62.65259	-66.72094	-59.39791	0
452	24.4101	-60.21158	-83.80801	17.08707	53.70222	-71.60296	45.56552	-49.63387	-63.46626	-62.65259	-71.60296	-59.39791	0
453	21.96909	-67.53461	-88.69003	21.96909	53.70222	-76.48498	45.56552	-49.63387	-63.46626	-65.0936	-71.60296	-59.39791	0
454	19.52808	-69.97562	-88.69003	24.4101	53.70222	-78.92599	45.56552	-52.07488	-65.90727	-65.0936	-71.60296	-59.39791	0
455	21.96909	-74.85764	-96.01306	24.4101	58.58424	-83.80801	45.56552	-59.39791	-68.34828	-65.0936	-71.60296	-59.39791	0
456	24.4101	-74.85764	-98.45407	24.4101	61.02525	-86.24902	45.56552	-61.83892	-70.78929	-65.0936	-69.16195	-61.83892	0
457	19.52808	-74.85764	-93.57205	26.85111	56.14323	-83.80801	45.56552	-61.83892	-73.2303	-65.0936	-69.16195	-61.83892	0
458	12.20505	-79.73966	-91.13104	31.73313	51.26121	-83.80801	45.56552	-66.72094	-70.78929	-65.0936	-69.16195	-64.27993	0
459	9.76404	-77.29865	-86.24902	31.73313	46.37919	-81.367	45.56552	-66.72094	-70.78929	-65.0936	-74.04397	-66.72094	0
460	9.76404	-72.41663	-81.367	29.29212	43.93818	-76.48498	45.56552	-66.72094	-70.78929	-67.53461	-78.92599	-71.60296	0
461	9.76404	-67.53461	-76.48498	26.85111	41.49717	-71.60296	43.12451	-66.72094	-73.2303	-69.97562	-83.80801	-78.92599	0
462	7.32303	-65.0936	-71.60296	26.85111	39.05616	-66.72094	43.12451	-66.72094	-73.2303	-69.97562	-86.24902	-81.367	0
463	12.20505	-65.0936	-76.48498	24.4101	43.93818	-69.16195	43.12451	-66.72094	-73.2303	-72.41663	-88.69003	-86.24902	0
464	19.52808	-62.65259	-81.367	19.52808	48.8202	-71.60296	43.12451	-66.72094	-73.2303	-72.41663	-88.69003	-88.69003	0
465	21.96909	-60.21158	-81.367	17.08707	51.26121	-69.16195	40.6835	-69.16195	-75.67131	-72.41663	-83.80801	-88.69003	0
466	26.85111	-57.77057	-83.80801	14.64606	53.70222	-69.16195	33.36047	-74.04397	-75.67131	-72.41663	-81.367	-88.69003	0
467	26.85111	-57.77057	-83.80801	14.64606	53.70222	-69.16195	28.47845	-78.92599	-75.67131	-69.97562	-78.92599	-88.69003	0
468	24.4101	-55.32956	-78.92599	14.64606	51.26121	-66.72094	23.59643	-81.367	-75.67131	-69.97562	-78.92599	-88.69003	0
469	21.96909	-55.32956	-76.48498	14.64606	48.8202	-64.27993	21.15542	-81.367	-75.67131	-67.53461	-78.92599	-88.69003	0
470	19.52808	-55.32956	-74.04397	17.08707	46.37919	-64.27993	18.71441	-81.367	-78.11232	-67.53461	-81.367	-88.69003	0
471	19.52808	-55.32956	-74.04397	17.08707	46.37919	-64.27993	21.15542	-78.92599	-78.11232	-67.53461	-81.367	-86.24902	0
472	17.08707	-52.88855	-69.16195	17.08707	41.49717	-59.39791	23.59643	-74.04397	-75.67131	-65.0936	-76.48498	-81.367	0
473	21.96909	-52.88855	-74.04397	14.64606	46.37919	-61.83892	28.47845	-71.60296	-73.2303	-65.0936	-74.04397	-76.48498	0
474	21.96909	-57.77057	-78.92599	17.08707	48.8202	-66.72094	30.91946	-66.72094	-73.2303	-62.65259	-69.16195	-74.04397	0
475	19.52808	-60.21158	-78.92599	19.52808	48.8202	-69.16195	30.91946	-66.72094	-73.2303	-60.21158	-66.72094	-71.60296	0
476	14.64606	-60.21158	-74.04397	21.96909	43.93818	-66.72094	30.91946	-66.72094	-70.78929	-57.77057	-61.83892	-71.60296	0
477	9.76404	-57.77057	-66.72094	21.96909	36.61515	-61.83892	30.91946	-66.72094	-70.78929	-57.77057	-61.83892	-71.60296	0
478	7.32303	-55.32956	-61.83892	21.96909	34.17414	-56.9569	26.03744	-66.72094	-70.78929	-62.65259	-66.72094	-74.04397	0
479	2.44101	-55.32956	-56.9569	24.4101	29.29212	-54.51589	23.59643	-69.16195	-73.2303	-65.0936	-74.04397	-78.92599	0
480	0	-52.88855	-52.07488	24.4101	24.4101	-52.07488	21.15542	-71.60296	-75.67131	-69.97562	-78.92599	-83.80801	0
481	2.44101	-48.00653	-49.63387	21.96909	24.4101	-47.19286	18.71441	-71.60296	-78.11232	-69.97562	-81.367	-86.24902	0
482	7.32303	-48.00653	-54.51589	19.52808	29.29212	-49.63387	18.71441	-71.60296	-78.11232	-74.85764	-83.80801	-86.24902	0
483	12.20505	-48.00653	-59.39791	17.08707	34.17414	-52.07488	18.71441	-71.60296	-80.55333	-74.85764	-83.80801	-88.69003	0
484	12.20505	-52.88855	-64.27993	19.52808	36.61515	-56.9569	16.2734	-71.60296	-80.55333	-74.85764	-78.92599	-86.24902	0
485	14.64606	-55.32956	-69.16195	19.52808	41.49717	-61.83892	16.2734	-71.60296	-82.99434	-74.85764	-74.04397	-83.80801	0
486	12.20505	-55.32956	-66.72094	19.52808	39.05616	-59.39791	16.2734	-71.60296	-80.55333	-72.41663	-66.72094	-81.367	0
487	12.20505	-57.77057	-69.16195	21.96909	39.05616	-61.83892	13.83239	-71.60296	-80.55333	-72.41663	-66.72094	-81.367	0
488	7.32303	-57.77057	-64.27993	24.4101	34.17414	-59.39791	13.83239	-71.60296	-78.11232	-72.41663	-66.72094	-81.367	0
489	7.32303	-57.77057	-64.27993	24.4101	34.17414	-59.39791	11.39138	-69.16195	-80.55333	-74.85764	-71.60296	-83.80801	0
490	7.32303	-57.77057	-64.27993	24.4101	34.17414	-59.39791	13.83239	-66.72094	-80.55333	-74.85764	-74.04397	-86.24902	0
491	12.20505	-57.77057	-69.16195	21.96909	39.05616	-61.83892	13.83239	-64.27993	-80.55333	-72.41663	-74.04397	-86.24902	0
492	19.52808	-55.32956	-74.04397	17.08707	46.37919	-64.27993	16.2734	-64.27993	-80.55333	-69.97562	-76.48498	-86.24902	0
493	19.52808	-55.32956	-74.04397	17.08707	46.37919	-64.27993	18.71441	-59.39791	-78.11232	-67.53461	-74.04397	-83.80801	0
494	21.96909	-55.32956	-76.48498	14.64606	48.8202	-64.27993	18.71441	-59.39791	-78.11232	-67.53461	-71.60296	-81.367	0
495	21.96909	-55.32956	-76.48498	14.64606	48.8202	-64.27993	18.71441	-61.83892	-78.11232	-65.0936	-69.16195	-81.367	0
496	21.96909	-55.32956	-76.48498	14.64606	48.8202	-64.27993	16.2734	-66.72094	-80.55333	-65.0936	-69.16195	-81.367	0
497	21.96909	-52.88855	-74.04397	14.64606	46.37919	-61.83892	11.39138	-71.60296	-85.43535	-69.97562	-71.60296	-81.367	0
498	17.08707	-50.44754	-66.72094	14.64606	41.49717	-56.9569	5.69569	-74.04397	-85.43535	-72.41663	-76.48498	-86.24902	0
499	17.08707	-50.44754	-66.72094	14.64606	41.49717	-56.9569	3.25468	-78.92599	-90.31737	-77.29865	-83.80801	-88.69003	0
500	12.20505	-48.00653	-59.39791	17.08707	34.17414	-52.07488	-1.62734	-81.367	-92.75838	-77.29865	-88.69003	-88.69003	0
501	7.32303	-45.56552	-52.07488	17.08707	29.29212	-47.19286	-4.06835	-81.367	-90.31737	-77.29865	-88.69003	-88.69003	0
502	7.32303	-45.56552	-52.07488	17.08707	29.29212	-47.19286	-6.50936	-78.92599	-87.87636	-72.41663	-86.24902	-86.24902	0
503	4.88202	-45.56552	-49.63387	19.52808	26.85111	-47.19286	-4.06835	-74.04397	-82.99434	-67.53461	-81.367	-81.367	0
504	4.88202	-50.44754	-54.51589	21.96909	29.29212	-52.07488	0.81367	-74.04397	-78.11232	-62.65259	-76.48498	-76.48498	0
505	2.44101	-55.32956	-56.9569	24.4101	29.29212	-54.51589	3.25468	-71.60296	-75.67131	-55.32956	-71.60296	-74.04397	0
506	4.88202	-55.32956	-59.39791	24.4101	31.73313	-56.9569	5.69569	-71.60296	-73.2303	-50.44754	-64.27993	-71.60296	0
507	7.32303	-55.32956	-61.83892	21.96909	34.17414	-56.9569	8.95037	-71.60296	-70.78929	-48.00653	-61.83892	-66.72094	0
508	7.32303	-52.88855	-59.39791	21.96909	31.73313	-54.51589	8.95037	-74.04397	-73.2303	-48.00653	-61.83892	-64.27993	0
509	4.88202	-50.44754	-54.51589	21.96909	29.29212	-52.07488	8.95037	-76.48498	-73.2303	-48.00653	-64.27993	-61.83892	0
510	2.44101	-50.44754	-52.07488	21.96909	26.85111	-49.63387	8.95037	-74.04397	-73.2303	-48.00653	-66.72094	-56.9569	0
511	0	-50.44754	-49.63387	24.4101	24.4101	-49.63387	8.95037	-74.04397	-70.78929	-45.56552	-66.72094	-52.07488	0
512	-2.44101	-50.44754	-47.19286	24.4101	21.96909	-47.19286	8.95037	-71.60296	-68.34828	-45.56552	-69.16195	-47.19286	0
513	-4.88202	-55.32956	-49.63387	29.29212	21.96909	-52.07488	11.39138	-69.16195	-68.34828	-48.00653	-71.60296	-47.19286	0
514	-2.44101	-60.21158	-56.9569	29.29212	26.85111	-56.9569	16.2734	-69.16195	-68.34828	-50.44754	-74.04397	-47.19286	0
515	-2.44101	-62.65259	-59.39791	31.73313	26.85111	-59.39791	18.71441	-69.16195	-70.78929	-52.88855	-74.04397	-47.19286	0
516	2.44101	-65.0936	-66.72094	29.29212	34.17414	-64.27993	18.71441	-71.60296	-73.2303	-57.77057	-78.92599	-52.07488	0
517	2.44101	-67.53461	-69.16195	31.73313	34.17414	-66.72094	18.71441	-74.04397	-75.67131	-57.77057	-78.92599	-52.07488	0
518	2.44101	-62.65259	-64.27993	29.29212	31.73313	-61.83892	21.15542	-78.92599	-78.11232	-57.77057	-81.367	-54.51589	0
519	0	-62.65259	-61.83892	29.29212	29.29212	-61.83892	18.71441	-81.367	-78.11232	-62.65259	-83.80801	-56.9569	0
520	-7.32303	-57.77057	-49.63387	31.73313	19.52808	-52.07488	18.71441	-81.367	-75.67131	-60.21158	-83.80801	-54.51589	0
521	-10.57771	-52.88855	-42.31084	29.29212	14.64606	-47.19286	18.71441	-78.92599	-73.2303	-55.32956	-81.367	-52.07488	0
522	-13.01872	-50.44754	-37.42882	29.29212	12.20505	-44.75185	16.2734	-76.48498	-68.34828	-52.88855	-78.92599	-49.63387	0
523	-13.01872	-45.56552	-32.5468	26.85111	9.76404	-39.86983	18.71441	-71.60296	-65.90727	-50.44754	-76.48498	-47.19286	0
524	-7.32303	-45.56552	-37.42882	24.4101	14.64606	-39.86983	18.71441	-69.16195	-63.46626	-48.00653	-74.04397	-47.19286	0
525	-10.57771	-45.56552	-34.98781	26.85111	12.20505	-39.86983	21.15542	-64.27993	-61.02525	-45.56552	-74.04397	-44.75185	0
526	-13.01872	-48.00653	-34.98781	29.29212	9.76404	-42.31084	21.15542	-64.27993	-61.02525	-45.56552	-74.04397	-44.75185	0
527	-20.34175	-52.88855	-32.5468	34.17414	4.88202	-42.31084	21.15542	-66.72094	-58.58424	-48.00653	-76.48498	-44.75185	0
528	-25.22377	-55.32956	-30.10579	39.05616	2.44101	-42.31084	18.71441	-69.16195	-61.02525	-52.88855	-81.367	-47.19286	0
529	-25.22377	-52.88855	-27.66478	36.61515	0	-39.86983	18.71441	-71.60296	-58.58424	-52.88855	-83.80801	-44.75185	0
530	-32.5468	-52.88855	-20.34175	41.49717	-8.1367	-37.42882	21.15542	-71.60296	-58.58424	-52.88855	-83.80801	-39.86983	0
531	-32.5468	-52.88855	-20.34175	41.49717	-8.1367	-37.42882	18.71441	-74.04397	-58.58424	-50.44754	-81.367	-34.98781	0
532	-30.10579	-55.32956	-25.22377	41.49717	-2.44101	-39.86983	18.71441	-74.04397	-58.58424	-48.00653	-78.92599	-32.5468	0
533	-25.22377	-50.44754	-25.22377	36.61515	0	-37.42882	18.71441	-74.04397	-53.70222	-40.6835	-71.60296	-26.85111	0
534	-15.45973	-50.44754	-34.98781	31.73313	9.76404	-42.31084	18.71441	-71.60296	-48.8202	-35.80148	-66.72094	-24.4101	0
535	-10.57771	-52.88855	-42.31084	29.29212	14.64606	-47.19286	13.83239	-71.60296	-51.26121	-35.80148	-66.72094	-24.4101	0
536	-10.57771	-55.32956	-44.75185	31.73313	17.08707	-49.63387	13.83239	-71.60296	-48.8202	-30.91946	-64.27993	-19.52808	0
537	-7.32303	-50.44754	-42.31084	26.85111	17.08707	-44.75185	13.83239	-71.60296	-48.8202	-30.91946	-66.72094	-19.52808	0
538	-10.57771	-45.56552	-34.98781	26.85111	12.20505	-39.86983	13.83239	-71.60296	-48.8202	-33.36047	-69.16195	-17.08707	0
539	-10.57771	-45.56552	-34.98781	26.85111	12.20505	-39.86983	13.83239	-74.04397	-48.8202	-35.80148	-71.60296	-17.08707	0
540	-13.01872	-43.12451	-30.10579	26.85111	7.32303	-37.42882	13.83239	-74.04397	-48.8202	-38.24249	-71.60296	-14.64606	0
541	-27.66478	-43.12451	-15.45973	34.17414	-8.1367	-30.10579	16.2734	-69.16195	-46.37919	-35.80148	-66.72094	-12.20505	0
542	-32.5468	-43.12451	-10.57771	36.61515	-13.01872	-27.66478	16.2734	-66.72094	-43.93818	-35.80148	-66.72094	-9.76404	0
543	-37.42882	-50.44754	-13.01872	41.49717	-13.01872	-32.5468	16.2734	-64.27993	-43.93818	-38.24249	-66.72094	-12.20505	0
544	-39.86983	-55.32956	-15.45973	46.37919	-13.01872	-34.98781	18.71441	-64.27993	-43.93818	-38.24249	-66.72094	-12.20505	0
545	-37.42882	-57.77057	-20.34175	46.37919	-10.57771	-39.86983	18.71441	-66.72094	-46.37919	-38.24249	-66.72094	-9.76404	0
546	-37.42882	-57.77057	-20.34175	46.37919	-10.57771	-39.86983	21.15542	-69.16195	-46.37919	-40.6835	-69.16195	-9.76404	0
547	-30.10579	-52.88855	-22.78276	39.05616	-4.88202	-37.42882	21.15542	-69.16195	-46.37919	-40.6835	-71.60296	-9.76404	0
548	-25.22377	-45.56552	-20.34175	34.17414	-2.44101	-32.5468	23.59643	-71.60296	-48.8202	-43.12451	-74.04397	-9.76404	0
549	-22.78276	-43.12451	-20.34175	31.73313	-2.44101	-32.5468	23.59643	-71.60296	-48.8202	-43.12451	-76.48498	-9.76404	0
550	-20.34175	-38.24249	-17.90074	26.85111	-2.44101	-27.66478	23.59643	-69.16195	-46.37919	-43.12451	-74.04397	-9.76404	0
551	-20.34175	-33.36047	-13.01872	24.4101	-4.88202	-22.78276	23.59643	-64.27993	-39.05616	-38.24249	-71.60296	-7.32303	0
552	-20.34175	-38.24249	-17.90074	26.85111	-2.44101	-27.66478	23.59643	-59.39791	-36.61515	-35.80148	-66.72094	-7.32303	0
553	-20.34175	-43.12451	-22.78276	29.29212	0	-32.5468	21.15542	-59.39791	-36.61515	-35.80148	-64.27993	-12.20505	0
554	-15.45973	-50.44754	-34.98781	31.73313	9.76404	-42.31084	16.2734	-61.83892	-39.05616	-38.24249	-64.27993	-12.20505	0
555	-17.90074	-52.88855	-34.98781	34.17414	7.32303	-44.75185	13.83239	-61.83892	-39.05616	-38.24249	-64.27993	-12.20505	0
556	-20.34175	-55.32956	-34.98781	36.61515	7.32303	-44.75185	11.39138	-61.83892	-36.61515	-35.80148	-59.39791	-12.20505	0
557	-22.78276	-55.32956	-32.5468	36.61515	4.88202	-44.75185	8.95037	-64.27993	-36.61515	-38.24249	-59.39791	-14.64606	0
558	-30.10579	-57.77057	-27.66478	41.49717	-2.44101	-42.31084	5.69569	-66.72094	-36.61515	-40.6835	-59.39791	-14.64606	0
559	-34.98781	-55.32956	-20.34175	43.93818	-8.1367	-37.42882	5.69569	-69.16195	-36.61515	-40.6835	-64.27993	-17.08707	0
560	-47.19286	-55.32956	-8.1367	48.8202	-20.34175	-32.5468	11.39138	-64.27993	-34.17414	-40.6835	-64.27993	-17.08707	0
561	-52.07488	-57.77057	-5.69569	53.70222	-25.22377	-32.5468	13.83239	-61.83892	-34.17414	-40.6835	-64.27993	-17.08707	0
562	-52.07488	-60.21158	-8.1367	53.70222	-22.78276	-34.98781	16.2734	-61.83892	-34.17414	-40.6835	-64.27993	-17.08707	0
563	-49.63387	-62.65259	-13.01872	53.70222	-20.34175	-37.42882	21.15542	-59.39791	-31.73313	-38.24249	-61.83892	-17.08707	0
564	-42.31084	-65.0936	-22.78276	51.26121	-10.57771	-44.75185	23.59643	-56.9569	-31.73313	-35.80148	-59.39791	-17.08707	0
565	-30.10579	-65.0936	-34.98781	46.37919	2.44101	-49.63387	23.59643	-56.9569	-34.17414	-33.36047	-56.9569	-14.64606	0
566	-25.22377	-60.21158	-34.98781	41.49717	4.88202	-47.19286	26.03744	-56.9569	-31.73313	-30.91946	-49.63387	-12.20505	0
567	-27.66478	-55.32956	-27.66478	39.05616	0	-42.31084	28.47845	-54.51589	-26.85111	-28.47845	-42.31084	-4.88202	0
568	-37.42882	-55.32956	-17.90074	43.93818	-10.57771	-37.42882	30.91946	-54.51589	-21.96909	-25.22377	-39.86983	-4.88202	0
569	-42.31084	-55.32956	-13.01872	46.37919	-15.45973	-34.98781	30.91946	-54.51589	-21.96909	-25.22377	-42.31084	-7.32303	0
570	-47.19286	-55.32956	-8.1367	48.8202	-20.34175	-32.5468	30.91946	-54.51589	-21.96909	-25.22377	-44.75185	-7.32303	0
571	-52.07488	-52.88855	-0.81367	51.26121	-27.66478	-27.66478	33.36047	-47.19286	-18.71441	-25.22377	-44.75185	-7.32303	0
572	-52.07488	-55.32956	-3.25468	51.26121	-25.22377	-30.10579	33.36047	-47.19286	-18.71441	-25.22377	-49.63387	-9.76404	0
573	-47.19286	-60.21158	-13.01872	51.26121	-17.90074	-37.42882	30.91946	-47.19286	-21.96909	-28.47845	-54.51589	-14.64606	0
574	-42.31084	-62.65259	-20.34175	51.26121	-13.01872	-42.31084	30.91946	-49.63387	-24.4101	-33.36047	-54.51589	-19.52808	0
575	-37.42882	-62.65259	-25.22377	48.8202	-8.1367	-44.75185	30.91946	-49.63387	-26.85111	-33.36047	-52.07488	-17.08707	0
576	-37.42882	-60.21158	-22.78276	46.37919	-8.1367	-42.31084	30.91946	-49.63387	-29.29212	-33.36047	-52.07488	-17.08707	0
577	-32.5468	-60.21158	-27.66478	43.93818	-2.44101	-44.75185	26.03744	-54.51589	-34.17414	-38.24249	-54.51589	-19.52808	0
578	-37.42882	-55.32956	-17.90074	43.93818	-10.57771	-37.42882	23.59643	-54.51589	-34.17414	-38.24249	-54.51589	-17.08707	0
579	-37.42882	-52.88855	-15.45973	43.93818	-13.01872	-34.98781	18.71441	-54.51589	-34.17414	-38.24249	-52.07488	-17.08707	0
580	-37.42882	-50.44754	-13.01872	41.49717	-13.01872	-32.5468	16.2734	-52.07488	-31.73313	-38.24249	-52.07488	-17.08707	0
581	-34.98781	-45.56552	-10.57771	39.05616	-13.01872	-27.66478	13.83239	-49.63387	-31.73313	-35.80148	-52.07488	-17.08707	0
582	-34.98781	-48.00653	-13.01872	39.05616	-13.01872	-30.10579	11.39138	-47.19286	-31.73313	-35.80148	-52.07488	-17.08707	0
583	-39.86983	-52.88855	-13.01872	43.93818	-15.45973	-32.5468	13.83239	-42.31084	-31.73313	-35.80148	-49.63387	-14.64606	0
584	-39.86983	-52.88855	-13.01872	43.93818	-15.45973	-32.5468	13.83239	-42.31084	-26.85111	-33.36047	-47.19286	-14.64606	0
585	-39.86983	-55.32956	-15.45973	46.37919	-13.01872	-34.98781	18.71441	-42.31084	-26.85111	-28.47845	-44.75185	-12.20505	0
586	-47.19286	-50.44754	-3.25468	46.37919	-22.78276	-27.66478	23.59643	-37.42882	-21.96909	-25.22377	-39.86983	-9.76404	0
587	-47.19286	-43.12451	4.06835	43.93818	-27.66478	-20.34175	28.47845	-34.98781	-21.96909	-20.34175	-37.42882	-7.32303	0
588	-42.31084	-35.80148	7.32303	36.61515	-25.22377	-15.45973	28.47845	-34.98781	-18.71441	-20.34175	-37.42882	-9.76404	0
589	-42.31084	-28.47845	14.64606	34.17414	-30.10579	-8.1367	30.91946	-32.5468	-13.83239	-15.45973	-34.98781	-9.76404	0
590	-42.31084	-23.59643	19.52808	31.73313	-32.5468	-3.25468	33.36047	-27.66478	-11.39138	-13.01872	-30.10579	-7.32303	0
591	-42.31084	-21.15542	21.96909	29.29212	-32.5468	-0.81367	38.24249	-25.22377	-6.50936	-10.57771	-26.85111	-4.88202	0
592	-42.31084	-21.15542	21.96909	29.29212	-32.5468	-0.81367	40.6835	-20.34175	-6.50936	-8.1367	-24.4101	-4.88202	0
593	-39.86983	-21.15542	19.52808	29.29212	-30.10579	-0.81367	43.12451	-20.34175	-4.06835	-5.69569	-24.4101	-2.44101	0
594	-39.86983	-26.03744	14.64606	31.73313	-27.66478	-5.69569	45.56552	-15.45973	-1.62734	-3.25468	-21.96909	0	0
595	-32.5468	-23.59643	9.76404	26.85111	-22.78276	-8.1367	48.00653	-13.01872	0.81367	1.62734	-19.52808	2.44101	0
596	-27.66478	-18.71441	9.76404	21.96909	-20.34175	-5.69569	48.00653	-10.57771	3.25468	6.50936	-17.08707	4.88202	0
597	-27.66478	-16.2734	12.20505	19.52808	-20.34175	-3.25468	48.00653	-13.01872	3.25468	6.50936	-17.08707	7.32303	0
598	-30.10579	-13.83239	17.08707	19.52808	-25.22377	2.44101	43.12451	-13.01872	3.25468	8.95037	-19.52808	7.32303	0
599	-30.10579	-8.95037	21.96909	17.08707	-27.66478	7.32303	40.6835	-13.01872	5.69569	8.95037	-21.96909	7.32303	0
600	-34.98781	-3.25468	31.73313	17.08707	-32.5468	14.64606	40.6835	-8.1367	8.1367	8.95037	-19.52808	7.32303	0
601	-42.31084	-0.81367	41.49717	19.52808	-42.31084	19.52808	40.6835	-5.69569	10.57771	11.39138	-19.52808	9.76404	0
602	-47.19286	-0.81367	46.37919	21.96909	-47.19286	21.96909	40.6835	-0.81367	13.01872	13.83239	-17.08707	12.20505	0
603	-52.07488	-0.81367	51.26121	24.4101	-52.07488	24.4101	43.12451	4.06835	15.45973	13.83239	-12.20505	14.64606	0
604	-44.75185	1.62734	46.37919	19.52808	-44.75185	24.4101	43.12451	7.32303	20.34175	18.71441	-9.76404	19.52808	0
605	-42.31084	4.06835	46.37919	17.08707	-44.75185	24.4101	43.12451	12.20505	25.22377	26.03744	-2.44101	24.4101	0
606	-39.86983	4.06835	43.93818	17.08707	-42.31084	24.4101	43.12451	12.20505	27.66478	28.47845	2.44101	29.29212	0
607	-37.42882	6.50936	43.93818	14.64606	-39.86983	24.4101	38.24249	12.20505	27.66478	30.91946	7.32303	34.17414	0
608	-32.5468	11.39138	43.93818	9.76404	-37.42882	26.85111	38.24249	12.20505	30.10579	33.36047	9.76404	36.61515	0
609	-30.10579	16.2734	46.37919	6.50936	-37.42882	31.73313	35.80148	17.08707	34.98781	35.80148	9.76404	39.05616	0
610	-30.10579	21.15542	51.26121	4.06835	-39.86983	36.61515	38.24249	19.52808	39.86983	38.24249	12.20505	41.49717	0
611	-37.42882	23.59643	61.02525	6.50936	-49.63387	41.49717	35.80148	21.96909	39.86983	40.6835	14.64606	43.93818	0
612	-32.5468	21.15542	53.70222	4.06835	-42.31084	36.61515	30.91946	19.52808	39.86983	35.80148	12.20505	41.49717	0
613	-39.86983	16.2734	56.14323	9.76404	-47.19286	36.61515	28.47845	14.64606	34.98781	30.91946	7.32303	41.49717	0
614	-49.63387	8.95037	58.58424	19.52808	-54.51589	34.17414	23.59643	9.76404	30.10579	26.03744	2.44101	41.49717	0
615	-54.51589	-0.81367	53.70222	26.85111	-54.51589	26.85111	18.71441	1.62734	17.90074	18.71441	-2.44101	43.93818	0
616	-52.07488	-3.25468	48.8202	26.85111	-49.63387	21.96909	8.95037	-10.57771	8.1367	11.39138	-9.76404	43.93818	0
617	-49.63387	-3.25468	46.37919	24.4101	-47.19286	21.96909	5.69569	-20.34175	3.25468	6.50936	-12.20505	46.37919	0
618	-44.75185	-0.81367	43.93818	21.96909	-44.75185	21.96909	-1.62734	-27.66478	-1.62734	4.06835	-14.64606	51.26121	0
619	-34.98781	4.06835	39.05616	14.64606	-37.42882	21.96909	-6.50936	-30.10579	-1.62734	6.50936	-14.64606	53.70222	0
620	-25.22377	11.39138	36.61515	6.50936	-30.10579	24.4101	-6.50936	-25.22377	3.25468	8.95037	-9.76404	56.14323	0
621	-10.57771	18.71441	29.29212	-5.69569	-20.34175	24.4101	-6.50936	-25.22377	5.69569	8.95037	-7.32303	56.14323	0
622	-2.44101	18.71441	21.96909	-8.1367	-13.01872	21.96909	-6.50936	-20.34175	8.1367	11.39138	-2.44101	58.58424	0
623	0	18.71441	19.52808	-10.57771	-10.57771	19.52808	-6.50936	-15.45973	15.45973	16.2734	0	63.46626	0
624	4.88202	16.2734	12.20505	-10.57771	-2.44101	14.64606	-6.50936	-13.01872	17.90074	21.15542	4.88202	68.34828	0
625	0	16.2734	17.08707	-8.1367	-8.1367	17.08707	-6.50936	-13.01872	17.90074	23.59643	7.32303	70.78929	0
626	-7.32303	13.83239	21.96909	-3.25468	-15.45973	19.52808	-8.95037	-13.01872	20.34175	26.03744	7.32303	73.2303	0
627	-10.57771	11.39138	21.96909	-0.81367	-15.45973	17.08707	-11.39138	-13.01872	20.34175	26.03744	7.32303	75.67131	0
628	-20.34175	11.39138	31.73313	4.06835	-25.22377	21.96909	-11.39138	-10.57771	25.22377	26.03744	7.32303	78.11232	0
629	-34.98781	6.50936	41.49717	12.20505	-37.42882	24.4101	-11.39138	-13.01872	20.34175	23.59643	4.88202	73.2303	0
630	-42.31084	-3.25468	39.05616	21.96909	-39.86983	17.08707	-11.39138	-17.90074	13.01872	13.83239	-4.88202	63.46626	0
631	-56.9569	-11.39138	46.37919	31.73313	-52.07488	17.08707	-11.39138	-22.78276	3.25468	1.62734	-12.20505	51.26121	0
632	-61.83892	-23.59643	39.05616	41.49717	-52.07488	7.32303	-11.39138	-30.10579	-6.50936	-10.57771	-24.4101	39.05616	0
633	-69.16195	-38.24249	31.73313	51.26121	-52.07488	-3.25468	-13.83239	-37.42882	-18.71441	-22.78276	-34.98781	29.29212	0
634	-74.04397	-50.44754	24.4101	61.02525	-49.63387	-13.01872	-13.83239	-47.19286	-24.4101	-28.47845	-44.75185	24.4101	0
635	-71.60296	-52.88855	19.52808	61.02525	-47.19286	-17.90074	-13.83239	-52.07488	-31.73313	-30.91946	-47.19286	21.96909	0
636	-71.60296	-50.44754	21.96909	58.58424	-47.19286	-15.45973	-11.39138	-54.51589	-29.29212	-28.47845	-44.75185	26.85111	0
637	-69.16195	-50.44754	19.52808	58.58424	-44.75185	-15.45973	-11.39138	-56.9569	-29.29212	-28.47845	-44.75185	29.29212	0
638	-71.60296	-45.56552	26.85111	56.14323	-49.63387	-10.57771	-8.95037	-56.9569	-24.4101	-28.47845	-42.31084	31.73313	0
639	-76.48498	-43.12451	34.17414	58.58424	-56.9569	-5.69569	-8.95037	-56.9569	-24.4101	-28.47845	-42.31084	31.73313	0
640	-81.367	-45.56552	36.61515	61.02525	-59.39791	-5.69569	-8.95037	-59.39791	-24.4101	-30.91946	-42.31084	31.73313	0
641	-88.69003	-52.88855	36.61515	68.34828	-64.27993	-8.1367	-8.95037	-61.83892	-26.85111	-35.80148	-47.19286	26.85111	0
642	-91.13104	-60.21158	31.73313	73.2303	-61.83892	-15.45973	-13.83239	-64.27993	-34.17414	-43.12451	-52.07488	19.52808	0
643	-96.01306	-67.53461	29.29212	80.55333	-64.27993	-20.34175	-13.83239	-66.72094	-36.61515	-50.44754	-56.9569	14.64606	0
644	-98.45407	-74.85764	24.4101	85.43535	-61.83892	-25.22377	-13.83239	-66.72094	-39.05616	-50.44754	-61.83892	14.64606	0
645	-96.01306	-77.29865	19.52808	85.43535	-59.39791	-30.10579	-18.71441	-69.16195	-43.93818	-52.88855	-64.27993	14.64606	0
646	-93.57205	-79.73966	14.64606	85.43535	-54.51589	-32.5468	-21.15542	-69.16195	-43.93818	-52.88855	-66.72094	17.08707	0
647	-91.13104	-74.85764	17.08707	80.55333	-54.51589	-30.10579	-21.15542	-71.60296	-46.37919	-52.88855	-66.72094	19.52808	0
648	-83.80801	-72.41663	12.20505	75.67131	-49.63387	-30.10579	-26.03744	-74.04397	-48.8202	-57.77057	-71.60296	19.52808	0
649	-91.13104	-74.85764	17.08707	80.55333	-54.51589	-30.10579	-28.47845	-78.92599	-51.26121	-57.77057	-74.04397	19.52808	0
650	-93.57205	-74.85764	19.52808	82.99434	-56.9569	-27.66478	-28.47845	-78.92599	-51.26121	-57.77057	-74.04397	19.52808	0
651	-96.01306	-67.53461	29.29212	80.55333	-64.27993	-20.34175	-26.03744	-76.48498	-48.8202	-55.32956	-66.72094	21.96909	0
652	-100.89508	-67.53461	34.17414	82.99434	-69.16195	-17.90074	-21.15542	-76.48498	-43.93818	-50.44754	-61.83892	26.85111	0
653	-100.89508	-67.53461	34.17414	82.99434	-69.16195	-17.90074	-16.2734	-71.60296	-39.05616	-45.56552	-59.39791	29.29212	0
654	-98.45407	-67.53461	31.73313	80.55333	-66.72094	-17.90074	-8.95037	-66.72094	-31.73313	-38.24249	-56.9569	34.17414	0
655	-93.57205	-62.65259	31.73313	75.67131	-64.27993	-15.45973	-1.62734	-61.83892	-26.85111	-30.91946	-52.07488	39.05616	0
656	-86.24902	-60.21158	26.85111	70.78929	-56.9569	-17.90074	0.81367	-56.9569	-21.96909	-28.47845	-49.63387	43.93818	0
657	-83.80801	-57.77057	26.85111	68.34828	-56.9569	-15.45973	3.25468	-56.9569	-21.96909	-25.22377	-47.19286	46.37919	0
658	-81.367	-55.32956	26.85111	65.90727	-54.51589	-15.45973	3.25468	-59.39791	-21.96909	-25.22377	-49.63387	46.37919	0
659	-81.367	-52.88855	29.29212	65.90727	-56.9569	-13.01872	3.25468	-59.39791	-18.71441	-28.47845	-49.63387	46.37919	0
660	-88.69003	-52.88855	36.61515	68.34828	-64.27993	-8.1367	3.25468	-61.83892	-18.71441	-28.47845	-47.19286	48.8202	0
661	-96.01306	-52.88855	43.93818	73.2303	-71.60296	-5.69569	3.25468	-61.83892	-18.71441	-28.47845	-44.75185	51.26121	0
662	-100.89508	-60.21158	41.49717	78.11232	-71.60296	-10.57771	0.81367	-61.83892	-18.71441	-28.47845	-44.75185	51.26121	0
663	-100.89508	-67.53461	34.17414	82.99434	-69.16195	-17.90074	0.81367	-64.27993	-18.71441	-28.47845	-47.19286	51.26121	0
664	-103.33609	-74.85764	29.29212	87.87636	-66.72094	-22.78276	-1.62734	-64.27993	-16.2734	-28.47845	-49.63387	51.26121	0
665	-105.7771	-79.73966	26.85111	90.31737	-66.72094	-27.66478	-1.62734	-64.27993	-16.2734	-28.47845	-52.07488	51.26121	0
666	-98.45407	-77.29865	21.96909	85.43535	-61.83892	-27.66478	0.81367	-61.83892	-13.83239	-28.47845	-52.07488	51.26121	0
667	-98.45407	-72.41663	26.85111	82.99434	-64.27993	-22.78276	5.69569	-56.9569	-11.39138	-28.47845	-52.07488	51.26121	0
668	-98.45407	-67.53461	31.73313	80.55333	-66.72094	-17.90074	8.95037	-47.19286	-6.50936	-28.47845	-54.51589	46.37919	0
669	-105.7771	-65.0936	41.49717	82.99434	-74.04397	-13.01872	23.59643	-30.10579	0.81367	-28.47845	-59.39791	39.05616	0
670	-115.54114	-67.53461	48.8202	90.31737	-83.80801	-10.57771	43.12451	-3.25468	10.57771	-30.91946	-69.16195	26.85111	0
671	-120.42316	-72.41663	48.8202	95.19939	-86.24902	-13.01872	67.53461	31.73313	22.78276	-35.80148	-78.92599	7.32303	0
672	-132.62821	-84.62168	48.8202	107.40444	-91.13104	-17.90074	99.26774	75.67131	39.86983	-38.24249	-93.57205	-12.20505	0
673	-144.83326	-104.14976	41.49717	122.0505	-93.57205	-32.5468	131.00087	126.93252	61.83892	-38.24249	-108.21811	-30.10579	0
674	-149.71528	-118.79582	31.73313	131.81454	-91.13104	-44.75185	165.17501	187.95777	98.45407	-25.22377	-110.65912	-42.31084	0
675	-139.95124	-128.55986	12.20505	131.81454	-76.48498	-59.39791	192.02612	256.30605	149.71528	6.50936	-98.45407	-34.98781	0
676	-120.42316	-131.00087	-10.57771	124.49151	-56.9569	-71.60296	213.99521	331.97736	215.62255	55.32956	-64.27993	-12.20505	0
677	-88.69003	-128.55986	-39.86983	107.40444	-25.22377	-83.80801	223.75925	402.76665	293.73487	123.67784	-9.76404	34.17414	0
678	-34.98781	-113.9138	-78.92599	73.2303	21.96909	-96.01306	216.43622	473.55594	386.49325	213.99521	78.11232	104.96343	0
679	43.93818	-84.62168	-127.74619	19.52808	85.43535	-105.7771	187.1441	534.58119	491.45668	331.16369	192.83979	200.16282	0
680	136.69656	-43.12451	-179.0074	-47.19286	156.22464	-110.65912	135.88289	571.19634	601.30213	465.41924	341.7414	327.09534	0
681	248.98302	13.83239	-235.15063	-132.62821	241.65999	-110.65912	62.65259	580.96038	711.14758	621.64388	517.49412	483.31998	0
682	378.35655	87.06269	-291.29386	-232.70962	334.41837	-100.89508	-30.91946	568.75533	820.99303	794.95559	720.09795	663.95472	-1250	T-0
683	515.05311	174.93905	-340.11406	-344.99608	427.17675	-81.367	-133.44188	539.46321	930.83848	982.91336	939.78885	864.11754	0
684	646.86765	275.02046	-371.84719	-462.16456	510.17109	-47.19286	-238.40531	502.84806	1038.24292	1173.31214	1164.36177	1071.60339	0
685	749.39007	384.86591	-364.52416	-567.12799	556.55028	12.20505	-326.28167	461.35089	1143.20635	1363.71092	1386.49368	1281.53025	0
686	815.29734	502.03439	-313.26295	-659.88637	563.87331	95.19939	-384.86591	434.49978	1240.84675	1541.90465	1591.53852	1476.81105	0
687	837.26643	614.32085	-222.94558	-725.79364	529.69917	197.72181	-414.15803	414.9717	1314.07705	1677.78754	1744.50848	1630.59468	0
688	810.41532	699.7562	-110.65912	-755.08576	461.35089	295.36221	-414.15803	385.67958	1331.16412	1731.48976	1815.29777	1712.77535	0
689	737.18502	751.01741	14.64606	-745.32172	361.26948	383.23857	-392.18894	331.97736	1260.37483	1660.70047	1749.3905	1681.04222	0
690	629.78058	770.54549	141.57858	-701.38354	244.101	456.46887	-343.36874	266.07009	1118.79625	1488.20243	1574.45145	1552.48236	0
691	485.76099	765.66347	280.71615	-625.71223	102.52242	524.81715	-270.13844	202.60383	938.16151	1256.30648	1330.35045	1362.08358	0
692	341.7414	736.37135	395.44362	-540.27688	-27.66478	566.31432	-192.02612	131.81454	730.67566	985.35437	1047.19329	1132.62864	0
693	207.48585	677.78711	471.11493	-442.63648	-132.62821	576.07836	-111.47279	51.26121	501.22072	692.43317	742.06704	878.7636	0
694	75.67131	602.1158	527.25816	-340.11406	-225.38659	566.31432	-26.03744	-10.57771	288.85285	416.59904	449.14584	627.33957	0
695	-37.42882	519.12146	556.55028	-242.47366	-296.17588	537.0222	55.32956	-56.9569	110.65912	189.58511	207.48585	412.53069	0
696	-122.86417	445.89116	568.75533	-161.92033	-344.99608	507.73008	131.00087	-91.13104	-11.39138	38.24249	48.8202	261.18807	0
697	-186.33043	372.66086	558.99129	-93.57205	-371.84719	466.23291	201.79016	-110.65912	-100.08141	-65.0936	-56.9569	153.78363	0
698	-227.8276	294.54854	522.37614	-34.98781	-374.2882	407.64867	248.16935	-147.27427	-178.19373	-152.96996	-139.95124	68.34828	0
699	-264.44275	216.43622	480.87897	21.96909	-371.84719	349.06443	270.13844	-193.65346	-246.54201	-226.20026	-208.29952	-4.88202	0
700	-283.97083	143.20592	427.17675	68.34828	-354.76012	285.59817	262.81541	-242.47366	-297.80322	-282.34349	-257.11972	-56.9569	0
701	-283.97083	82.18067	366.1515	100.08141	-325.468	224.57292	240.84632	-288.85285	-336.85938	-323.84066	-293.73487	-96.01306	0
702	-286.41184	30.91946	317.3313	126.93252	-301.0579	173.31171	206.67218	-318.14497	-346.62342	-333.6047	-301.0579	-113.10013	0
703	-281.52982	-6.50936	275.83413	141.57858	-279.08881	134.25555	152.96996	-337.67305	-339.30039	-323.84066	-293.73487	-110.65912	0
704	-262.00174	-23.59643	239.21898	141.57858	-252.2377	107.40444	87.06269	-344.99608	-322.21332	-301.87157	-274.20679	-98.45407	0
705	-242.47366	-33.36047	209.92686	136.69656	-227.8276	87.87636	33.36047	-330.35002	-290.48019	-270.13844	-249.79669	-78.92599	0
706	-227.8276	-33.36047	195.2808	129.37353	-213.18154	80.55333	-1.62734	-293.73487	-251.42403	-235.9643	-222.94558	-56.9569	0
707	-210.74053	-21.15542	190.39878	114.72747	-200.97649	85.43535	-28.47845	-252.2377	-209.92686	-199.34915	-193.65346	-30.10579	0
708	-198.53548	-6.50936	192.83979	100.08141	-196.09447	92.75838	-43.12451	-213.18154	-170.8707	-167.61602	-166.80235	-7.32303	0
709	-191.21245	8.95037	200.16282	90.31737	-196.09447	104.96343	-48.00653	-174.12538	-136.69656	-138.3239	-144.83326	14.64606	0
710	-188.77144	13.83239	202.60383	85.43535	-196.09447	107.40444	-43.12451	-142.39225	-109.84545	-116.35481	-127.74619	29.29212	0
711	-196.09447	16.2734	212.36787	87.87636	-203.4175	114.72747	-38.24249	-122.86417	-92.75838	-104.14976	-117.98215	41.49717	0
712	-193.65346	21.15542	214.80888	85.43535	-203.4175	117.16848	-30.91946	-110.65912	-82.99434	-94.38572	-110.65912	48.8202	0
713	-193.65346	21.15542	214.80888	85.43535	-203.4175	117.16848	-28.47845	-103.33609	-75.67131	-89.5037	-105.7771	56.14323	0
714	-193.65346	18.71441	212.36787	85.43535	-203.4175	114.72747	-26.03744	-98.45407	-70.78929	-87.06269	-100.89508	61.02525	0
715	-183.88942	16.2734	200.16282	82.99434	-191.21245	107.40444	-26.03744	-98.45407	-73.2303	-87.06269	-100.89508	61.02525	0
716	-186.33043	13.83239	200.16282	85.43535	-193.65346	107.40444	-26.03744	-98.45407	-75.67131	-89.5037	-100.89508	61.02525	0
717	-191.21245	16.2734	207.48585	85.43535	-198.53548	112.28646	-26.03744	-96.01306	-75.67131	-89.5037	-100.89508	65.90727	0
718	-193.65346	18.71441	212.36787	85.43535	-203.4175	114.72747	-26.03744	-96.01306	-75.67131	-89.5037	-103.33609	65.90727	0
719	-198.53548	18.71441	217.24989	87.87636	-208.29952	117.16848	-28.47845	-96.01306	-75.67131	-91.94471	-110.65912	61.02525	0
720	-198.53548	18.71441	217.24989	87.87636	-208.29952	117.16848	-30.91946	-93.57205	-78.11232	-96.82673	-113.10013	58.58424	0
721	-205.85851	18.71441	224.57292	92.75838	-215.62255	122.0505	-33.36047	-91.13104	-78.11232	-96.82673	-113.10013	58.58424	0
722	-208.29952	18.71441	227.01393	92.75838	-218.06356	122.0505	-33.36047	-91.13104	-78.11232	-99.26774	-115.54114	58.58424	0
723	-203.4175	18.71441	222.13191	90.31737	-213.18154	119.60949	-38.24249	-88.69003	-78.11232	-99.26774	-117.98215	56.14323	0
724	-200.97649	18.71441	219.6909	90.31737	-210.74053	119.60949	-40.6835	-88.69003	-78.11232	-101.70875	-120.42316	56.14323	0
725	-193.65346	21.15542	214.80888	85.43535	-203.4175	117.16848	-40.6835	-88.69003	-80.55333	-99.26774	-120.42316	56.14323	0
726	-188.77144	23.59643	212.36787	80.55333	-200.97649	117.16848	-43.12451	-91.13104	-80.55333	-99.26774	-120.42316	58.58424	0
727	-191.21245	23.59643	214.80888	82.99434	-203.4175	119.60949	-48.00653	-93.57205	-82.99434	-99.26774	-122.86417	63.46626	0
728	-196.09447	23.59643	219.6909	85.43535	-208.29952	122.0505	-50.44754	-96.01306	-82.99434	-99.26774	-122.86417	63.46626	0
729	-198.53548	26.03744	224.57292	85.43535	-210.74053	124.49151	-55.32956	-96.01306	-82.99434	-99.26774	-125.30518	65.90727	0
730	-203.4175	26.03744	229.45494	87.87636	-215.62255	126.93252	-55.32956	-98.45407	-82.99434	-101.70875	-125.30518	65.90727	0
731	-203.4175	26.03744	229.45494	87.87636	-215.62255	126.93252	-55.32956	-103.33609	-85.43535	-106.59077	-125.30518	65.90727	0
732	-205.85851	26.03744	231.89595	87.87636	-218.06356	129.37353	-55.32956	-103.33609	-85.43535	-106.59077	-125.30518	68.34828	0
733	-208.29952	23.59643	231.89595	90.31737	-220.50457	126.93252	-52.88855	-103.33609	-82.99434	-104.14976	-120.42316	70.78929	0
734	-200.97649	26.03744	227.01393	85.43535	-213.18154	126.93252	-48.00653	-100.89508	-80.55333	-104.14976	-120.42316	73.2303	0
735	-196.09447	26.03744	222.13191	82.99434	-208.29952	124.49151	-48.00653	-100.89508	-80.55333	-101.70875	-120.42316	75.67131	0
736	-198.53548	23.59643	222.13191	85.43535	-210.74053	122.0505	-48.00653	-103.33609	-80.55333	-99.26774	-120.42316	75.67131	0
737	-198.53548	26.03744	224.57292	85.43535	-210.74053	124.49151	-48.00653	-105.7771	-80.55333	-99.26774	-120.42316	75.67131	0
738	-200.97649	30.91946	231.89595	82.99434	-215.62255	131.81454	-50.44754	-105.7771	-78.11232	-96.82673	-120.42316	78.11232	0
739	-198.53548	33.36047	231.89595	80.55333	-215.62255	131.81454	-55.32956	-105.7771	-80.55333	-101.70875	-122.86417	73.2303	0
740	-200.97649	30.91946	231.89595	82.99434	-215.62255	131.81454	-62.65259	-105.7771	-82.99434	-106.59077	-125.30518	70.78929	0
741	-210.74053	30.91946	241.65999	87.87636	-225.38659	136.69656	-65.0936	-108.21811	-82.99434	-106.59077	-125.30518	70.78929	0
742	-210.74053	30.91946	241.65999	87.87636	-225.38659	136.69656	-69.97562	-108.21811	-85.43535	-109.03178	-125.30518	68.34828	0
743	-210.74053	30.91946	241.65999	87.87636	-225.38659	136.69656	-69.97562	-105.7771	-85.43535	-109.03178	-125.30518	70.78929	0
744	-208.29952	28.47845	236.77797	87.87636	-222.94558	131.81454	-69.97562	-103.33609	-87.87636	-109.03178	-125.30518	70.78929	0
745	-205.85851	26.03744	231.89595	87.87636	-218.06356	129.37353	-69.97562	-103.33609	-90.31737	-106.59077	-125.30518	73.2303	0
746	-203.4175	26.03744	229.45494	87.87636	-215.62255	126.93252	-67.53461	-103.33609	-90.31737	-104.14976	-122.86417	73.2303	0
747	-196.09447	28.47845	224.57292	82.99434	-210.74053	126.93252	-67.53461	-103.33609	-92.75838	-104.14976	-122.86417	75.67131	0
748	-193.65346	33.36047	227.01393	78.11232	-210.74053	129.37353	-62.65259	-98.45407	-90.31737	-99.26774	-117.98215	78.11232	0
749	-198.53548	35.80148	234.33696	80.55333	-215.62255	134.25555	-60.21158	-96.01306	-87.87636	-99.26774	-117.98215	80.55333	0
750	-198.53548	35.80148	234.33696	80.55333	-215.62255	134.25555	-60.21158	-96.01306	-87.87636	-99.26774	-117.98215	78.11232	0
751	-198.53548	38.24249	236.77797	78.11232	-218.06356	136.69656	-62.65259	-93.57205	-87.87636	-99.26774	-117.98215	75.67131	0
752	-198.53548	38.24249	236.77797	78.11232	-218.06356	136.69656	-62.65259	-88.69003	-85.43535	-99.26774	-113.10013	78.11232	0
753	-198.53548	33.36047	231.89595	80.55333	-215.62255	131.81454	-62.65259	-88.69003	-85.43535	-99.26774	-113.10013	78.11232	0
754	-198.53548	30.91946	229.45494	82.99434	-213.18154	129.37353	-62.65259	-88.69003	-85.43535	-96.82673	-113.10013	80.55333	0
755	-198.53548	26.03744	224.57292	85.43535	-210.74053	124.49151	-65.0936	-88.69003	-85.43535	-96.82673	-113.10013	82.99434	0
756	-191.21245	28.47845	219.6909	80.55333	-205.85851	124.49151	-65.0936	-88.69003	-82.99434	-94.38572	-108.21811	85.43535	0
757	-188.77144	30.91946	219.6909	78.11232	-203.4175	124.49151	-65.0936	-88.69003	-80.55333	-91.94471	-105.7771	90.31737	0
758	-191.21245	30.91946	222.13191	78.11232	-205.85851	126.93252	-67.53461	-88.69003	-80.55333	-91.94471	-103.33609	92.75838	0
759	-203.4175	30.91946	234.33696	85.43535	-218.06356	131.81454	-67.53461	-86.24902	-75.67131	-89.5037	-100.89508	97.6404	0
760	-205.85851	33.36047	239.21898	85.43535	-222.94558	136.69656	-69.97562	-83.80801	-73.2303	-87.06269	-98.45407	100.08141	0
761	-200.97649	35.80148	236.77797	80.55333	-218.06356	136.69656	-74.85764	-81.367	-70.78929	-87.06269	-96.01306	97.6404	0
762	-198.53548	33.36047	231.89595	80.55333	-215.62255	131.81454	-77.29865	-81.367	-70.78929	-87.06269	-96.01306	95.19939	0
763	-203.4175	30.91946	234.33696	85.43535	-218.06356	131.81454	-82.18067	-78.92599	-65.90727	-87.06269	-96.01306	95.19939	0
764	-203.4175	28.47845	231.89595	85.43535	-218.06356	129.37353	-82.18067	-76.48498	-63.46626	-87.06269	-98.45407	95.19939	0
765	-200.97649	28.47845	229.45494	85.43535	-215.62255	129.37353	-87.06269	-74.04397	-65.90727	-84.62168	-100.89508	92.75838	0
766	-198.53548	26.03744	224.57292	85.43535	-210.74053	124.49151	-91.94471	-78.92599	-70.78929	-89.5037	-105.7771	87.87636	0
767	-200.97649	26.03744	227.01393	85.43535	-213.18154	126.93252	-94.38572	-81.367	-70.78929	-89.5037	-105.7771	87.87636	0
768	-196.09447	30.91946	227.01393	80.55333	-210.74053	129.37353	-96.82673	-81.367	-70.78929	-89.5037	-105.7771	90.31737	0
769	-196.09447	35.80148	231.89595	78.11232	-213.18154	134.25555	-96.82673	-78.92599	-70.78929	-91.94471	-105.7771	90.31737	0
770	-198.53548	38.24249	236.77797	78.11232	-218.06356	136.69656	-96.82673	-74.04397	-68.34828	-89.5037	-100.89508	92.75838	0
771	-200.97649	38.24249	239.21898	80.55333	-220.50457	139.13757	-96.82673	-71.60296	-65.90727	-87.06269	-98.45407	92.75838	0
772	-198.53548	35.80148	234.33696	80.55333	-215.62255	134.25555	-96.82673	-69.16195	-61.02525	-84.62168	-93.57205	95.19939	0
773	-193.65346	35.80148	229.45494	78.11232	-210.74053	131.81454	-94.38572	-64.27993	-56.14323	-82.18067	-93.57205	95.19939	0
774	-188.77144	30.91946	219.6909	78.11232	-203.4175	124.49151	-96.82673	-61.83892	-56.14323	-82.18067	-93.57205	95.19939	0
775	-188.77144	26.03744	214.80888	80.55333	-200.97649	119.60949	-96.82673	-61.83892	-56.14323	-79.73966	-93.57205	95.19939	0
776	-188.77144	23.59643	212.36787	80.55333	-200.97649	117.16848	-101.70875	-61.83892	-56.14323	-79.73966	-96.01306	95.19939	0
777	-176.56639	26.03744	202.60383	73.2303	-188.77144	114.72747	-106.59077	-64.27993	-58.58424	-82.18067	-96.01306	95.19939	0
778	-169.24336	30.91946	200.16282	68.34828	-183.88942	114.72747	-106.59077	-64.27993	-58.58424	-82.18067	-98.45407	95.19939	0
779	-166.80235	38.24249	205.04484	63.46626	-186.33043	122.0505	-106.59077	-64.27993	-56.14323	-82.18067	-93.57205	97.6404	0
780	-174.12538	45.56552	219.6909	63.46626	-196.09447	131.81454	-104.14976	-59.39791	-51.26121	-79.73966	-88.69003	102.52242	0
781	-171.68437	50.44754	222.13191	58.58424	-196.09447	136.69656	-104.14976	-56.9569	-48.8202	-77.29865	-86.24902	102.52242	0
782	-166.80235	55.32956	222.13191	53.70222	-193.65346	139.13757	-104.14976	-54.51589	-46.37919	-74.85764	-83.80801	102.52242	0
783	-169.24336	52.88855	222.13191	56.14323	-196.09447	136.69656	-104.14976	-49.63387	-41.49717	-72.41663	-81.367	102.52242	0
784	-176.56639	48.00653	224.57292	63.46626	-200.97649	136.69656	-101.70875	-47.19286	-39.05616	-69.97562	-78.92599	104.96343	0
785	-181.44841	43.12451	224.57292	68.34828	-203.4175	134.25555	-101.70875	-44.75185	-39.05616	-67.53461	-78.92599	104.96343	0
786	-179.0074	38.24249	217.24989	68.34828	-198.53548	126.93252	-104.14976	-44.75185	-36.61515	-67.53461	-81.367	102.52242	0
787	-179.0074	35.80148	214.80888	70.78929	-196.09447	124.49151	-104.14976	-44.75185	-34.17414	-69.97562	-81.367	102.52242	0
788	-179.0074	33.36047	212.36787	70.78929	-196.09447	122.0505	-104.14976	-44.75185	-34.17414	-69.97562	-83.80801	102.52242	0
789	-179.0074	35.80148	214.80888	70.78929	-196.09447	124.49151	-104.14976	-39.86983	-34.17414	-69.97562	-83.80801	102.52242	0
790	-179.0074	40.6835	219.6909	68.34828	-198.53548	129.37353	-104.14976	-37.42882	-29.29212	-69.97562	-81.367	107.40444	0
791	-171.68437	45.56552	217.24989	61.02525	-193.65346	131.81454	-109.03178	-34.98781	-26.85111	-67.53461	-78.92599	109.84545	0
792	-164.36134	45.56552	209.92686	58.58424	-186.33043	126.93252	-109.03178	-32.5468	-24.4101	-65.0936	-76.48498	112.28646	0
793	-157.03831	45.56552	202.60383	53.70222	-179.0074	124.49151	-113.9138	-30.10579	-21.96909	-60.21158	-74.04397	114.72747	0
794	-152.15629	43.12451	195.2808	53.70222	-174.12538	119.60949	-116.35481	-27.66478	-18.71441	-57.77057	-71.60296	117.16848	0
795	-147.27427	43.12451	190.39878	51.26121	-169.24336	117.16848	-118.79582	-27.66478	-18.71441	-55.32956	-69.16195	119.60949	0
796	-142.39225	43.12451	185.51676	48.8202	-164.36134	114.72747	-121.23683	-27.66478	-16.2734	-52.88855	-64.27993	122.0505	0
797	-144.83326	45.56552	190.39878	48.8202	-166.80235	117.16848	-123.67784	-27.66478	-13.83239	-48.00653	-61.83892	126.93252	0
798	-142.39225	48.00653	190.39878	46.37919	-166.80235	119.60949	-128.55986	-30.10579	-11.39138	-48.00653	-61.83892	129.37353	0
799	-149.71528	52.88855	202.60383	46.37919	-176.56639	126.93252	-128.55986	-27.66478	-6.50936	-40.6835	-56.9569	134.25555	0
800	-149.71528	57.77057	207.48585	43.93818	-179.0074	131.81454	-128.55986	-22.78276	0.81367	-35.80148	-49.63387	139.13757	0
801	-144.83326	65.0936	209.92686	39.05616	-176.56639	136.69656	-128.55986	-17.90074	8.1367	-30.91946	-44.75185	141.57858	0
802	-137.51023	65.0936	202.60383	34.17414	-169.24336	134.25555	-128.55986	-10.57771	15.45973	-25.22377	-39.86983	146.4606	0
803	-130.1872	65.0936	195.2808	31.73313	-161.92033	129.37353	-128.55986	-5.69569	20.34175	-20.34175	-34.98781	146.4606	0
804	-125.30518	65.0936	190.39878	29.29212	-157.03831	126.93252	-126.11885	1.62734	27.66478	-15.45973	-30.10579	148.90161	0
805	-125.30518	60.21158	185.51676	31.73313	-154.5973	122.0505	-123.67784	7.32303	32.5468	-10.57771	-26.85111	151.34262	0
806	-115.54114	65.0936	180.63474	24.4101	-147.27427	122.0505	-126.11885	9.76404	34.98781	-8.1367	-24.4101	151.34262	0
807	-108.21811	67.53461	175.75272	19.52808	-142.39225	122.0505	-131.00087	12.20505	39.86983	-8.1367	-21.96909	153.78363	0
808	-110.65912	72.41663	183.07575	17.08707	-147.27427	126.93252	-133.44188	14.64606	44.75185	-3.25468	-19.52808	156.22464	0
809	-113.10013	79.73966	192.83979	14.64606	-152.15629	136.69656	-135.88289	19.52808	49.63387	-0.81367	-14.64606	158.66565	0
810	-108.21811	84.62168	192.83979	9.76404	-149.71528	139.13757	-138.3239	24.4101	54.51589	1.62734	-12.20505	161.10666	0
811	-96.01306	89.5037	185.51676	1.62734	-139.95124	136.69656	-143.20592	26.85111	56.9569	1.62734	-9.76404	161.10666	0
812	-83.80801	89.5037	173.31171	-3.25468	-127.74619	131.81454	-148.08794	31.73313	61.83892	4.06835	-7.32303	161.10666	0
813	-76.48498	89.5037	165.98868	-8.1367	-120.42316	126.93252	-150.52895	36.61515	64.27993	8.95037	-2.44101	163.54767	0
814	-61.83892	89.5037	151.34262	-15.45973	-105.7771	119.60949	-152.96996	41.49717	71.60296	13.83239	2.44101	163.54767	0
815	-47.19286	84.62168	131.81454	-20.34175	-88.69003	107.40444	-160.29299	43.93818	71.60296	16.2734	4.88202	163.54767	0
816	-39.86983	84.62168	124.49151	-22.78276	-81.367	104.96343	-160.29299	48.8202	78.92599	21.15542	9.76404	163.54767	0
817	-34.98781	89.5037	124.49151	-27.66478	-78.92599	107.40444	-160.29299	56.14323	88.69003	26.03744	17.08707	168.42969	0
818	-37.42882	91.94471	129.37353	-27.66478	-83.80801	109.84545	-160.29299	63.46626	96.01306	30.91946	21.96909	173.31171	0
819	-37.42882	94.38572	131.81454	-30.10579	-83.80801	112.28646	-162.734	68.34828	103.33609	35.80148	26.85111	173.31171	0
820	-39.86983	94.38572	134.25555	-27.66478	-86.24902	114.72747	-162.734	73.2303	110.65912	38.24249	29.29212	178.19373	0
821	-44.75185	94.38572	139.13757	-25.22377	-91.13104	117.16848	-162.734	82.99434	115.54114	43.12451	34.17414	183.07575	0
822	-37.42882	89.5037	126.93252	-27.66478	-81.367	107.40444	-167.61602	85.43535	122.86417	45.56552	39.05616	183.07575	0
823	-32.5468	84.62168	117.16848	-27.66478	-74.04397	100.08141	-170.05703	90.31737	127.74619	45.56552	43.93818	185.51676	0
824	-22.78276	84.62168	107.40444	-32.5468	-64.27993	95.19939	-174.93905	95.19939	132.62821	50.44754	51.26121	187.95777	0
825	-10.57771	84.62168	95.19939	-37.42882	-52.07488	90.31737	-174.93905	100.08141	139.95124	55.32956	58.58424	190.39878	0
826	9.76404	91.94471	82.99434	-52.07488	-37.42882	87.87636	-177.38006	107.40444	147.27427	60.21158	65.90727	192.83979	0
827	26.85111	99.26774	73.2303	-64.27993	-22.78276	87.87636	-179.82107	109.84545	154.5973	62.65259	73.2303	195.2808	0
828	36.61515	106.59077	70.78929	-71.60296	-17.90074	90.31737	-179.82107	117.16848	161.92033	67.53461	78.11232	200.16282	0
829	43.93818	113.9138	70.78929	-78.92599	-13.01872	92.75838	-182.26208	126.93252	169.24336	72.41663	85.43535	202.60383	0
830	53.70222	118.79582	65.90727	-86.24902	-4.88202	92.75838	-184.70309	134.25555	176.56639	77.29865	90.31737	207.48585	0
831	65.90727	121.23683	56.14323	-93.57205	4.88202	90.31737	-187.1441	139.13757	181.44841	79.73966	92.75838	207.48585	0
832	73.2303	118.79582	46.37919	-96.01306	14.64606	82.99434	-192.02612	144.01959	186.33043	84.62168	95.19939	207.48585	0
833	80.55333	116.35481	36.61515	-98.45407	21.96909	78.11232	-196.90814	151.34262	191.21245	87.06269	102.52242	209.92686	0
834	87.87636	113.9138	26.85111	-100.89508	31.73313	70.78929	-199.34915	156.22464	196.09447	91.94471	107.40444	212.36787	0
835	102.52242	111.47279	9.76404	-108.21811	46.37919	61.02525	-204.23117	161.10666	196.09447	94.38572	109.84545	212.36787	0
836	112.28646	106.59077	-5.69569	-110.65912	58.58424	51.26121	-206.67218	161.10666	198.53548	94.38572	112.28646	209.92686	0
837	117.16848	104.14976	-13.01872	-110.65912	65.90727	46.37919	-211.5542	163.54767	198.53548	94.38572	112.28646	207.48585	0
838	117.16848	99.26774	-17.90074	-108.21811	68.34828	41.49717	-213.99521	165.98868	198.53548	94.38572	112.28646	205.04484	0
839	122.0505	94.38572	-27.66478	-108.21811	75.67131	34.17414	-218.87723	165.98868	200.97649	91.94471	104.96343	197.72181	0
840	124.49151	89.5037	-34.98781	-108.21811	80.55333	29.29212	-218.87723	170.8707	200.97649	91.94471	104.96343	195.2808	0
841	124.49151	84.62168	-39.86983	-105.7771	82.99434	24.4101	-218.87723	175.75272	203.4175	91.94471	102.52242	190.39878	0
842	129.37353	77.29865	-52.07488	-103.33609	90.31737	14.64606	-218.87723	178.19373	203.4175	89.5037	97.6404	187.95777	0
843	134.25555	72.41663	-61.83892	-103.33609	97.6404	7.32303	-218.87723	180.63474	205.85851	89.5037	97.6404	183.07575	0
844	146.4606	67.53461	-78.92599	-108.21811	112.28646	-5.69569	-218.87723	183.07575	205.85851	87.06269	97.6404	180.63474	0
845	156.22464	67.53461	-88.69003	-113.10013	122.0505	-10.57771	-218.87723	185.51676	205.85851	87.06269	97.6404	178.19373	0
846	165.98868	65.0936	-100.89508	-115.54114	134.25555	-17.90074	-216.43622	185.51676	203.4175	82.18067	97.6404	173.31171	0
847	170.8707	62.65259	-108.21811	-117.98215	139.13757	-22.78276	-218.87723	180.63474	198.53548	77.29865	95.19939	168.42969	0
848	170.8707	57.77057	-113.10013	-115.54114	141.57858	-27.66478	-221.31824	175.75272	193.65346	72.41663	87.87636	161.10666	0
849	168.42969	55.32956	-113.10013	-113.10013	141.57858	-27.66478	-221.31824	173.31171	188.77144	67.53461	82.99434	156.22464	0
850	170.8707	52.88855	-117.98215	-113.10013	144.01959	-32.5468	-221.31824	170.8707	183.88942	62.65259	73.2303	148.90161	0
851	165.98868	48.00653	-117.98215	-108.21811	141.57858	-34.98781	-221.31824	165.98868	179.0074	55.32956	65.90727	139.13757	0
852	165.98868	40.6835	-125.30518	-103.33609	146.4606	-42.31084	-221.31824	163.54767	174.12538	50.44754	58.58424	131.81454	0
853	163.54767	30.91946	-132.62821	-98.45407	148.90161	-49.63387	-218.87723	161.10666	169.24336	45.56552	51.26121	124.49151	0
854	163.54767	23.59643	-139.95124	-93.57205	151.34262	-56.9569	-213.99521	158.66565	166.80235	40.6835	46.37919	117.16848	0
855	165.98868	18.71441	-147.27427	-93.57205	156.22464	-64.27993	-213.99521	153.78363	157.03831	35.80148	43.93818	109.84545	0
856	163.54767	8.95037	-154.5973	-86.24902	158.66565	-71.60296	-209.11319	146.4606	149.71528	30.91946	39.05616	102.52242	0
857	153.78363	4.06835	-149.71528	-78.92599	151.34262	-71.60296	-206.67218	139.13757	142.39225	23.59643	34.17414	95.19939	0
858	141.57858	-0.81367	-142.39225	-71.60296	141.57858	-71.60296	-201.79016	131.81454	135.06922	21.15542	29.29212	87.87636	0
859	129.37353	-6.50936	-135.06922	-61.83892	131.81454	-69.16195	-196.90814	126.93252	127.74619	18.71441	21.96909	82.99434	0
860	114.72747	-8.95037	-122.86417	-54.51589	117.16848	-64.27993	-189.58511	122.0505	117.98215	16.2734	14.64606	75.67131	0
861	102.52242	-8.95037	-110.65912	-47.19286	104.96343	-59.39791	-184.70309	119.60949	110.65912	13.83239	7.32303	68.34828	0
862	92.75838	-13.83239	-105.7771	-39.86983	97.6404	-59.39791	-177.38006	117.16848	103.33609	13.83239	0	61.02525	0
863	85.43535	-16.2734	-100.89508	-34.98781	92.75838	-56.9569	-170.05703	114.72747	100.89508	13.83239	0	56.14323	0
864	78.11232	-21.15542	-98.45407	-30.10579	87.87636	-59.39791	-160.29299	112.28646	96.01306	13.83239	-2.44101	51.26121	0
865	65.90727	-30.91946	-96.01306	-17.90074	80.55333	-61.83892	-155.41097	107.40444	88.69003	8.95037	-7.32303	43.93818	0
866	56.14323	-35.80148	-91.13104	-10.57771	73.2303	-61.83892	-150.52895	100.08141	81.367	4.06835	-7.32303	36.61515	0
867	48.8202	-43.12451	-91.13104	-3.25468	68.34828	-66.72094	-148.08794	92.75838	74.04397	-0.81367	-7.32303	31.73313	0
868	34.17414	-48.00653	-81.367	6.50936	56.14323	-64.27993	-143.20592	85.43535	69.16195	-3.25468	-12.20505	26.85111	0
869	24.4101	-50.44754	-74.04397	12.20505	48.8202	-61.83892	-140.76491	80.55333	66.72094	-5.69569	-14.64606	19.52808	0
870	17.08707	-55.32956	-71.60296	17.08707	43.93818	-61.83892	-140.76491	73.2303	59.39791	-10.57771	-21.96909	12.20505	0
871	4.88202	-60.21158	-64.27993	26.85111	34.17414	-61.83892	-138.3239	68.34828	54.51589	-13.01872	-26.85111	7.32303	0
872	4.88202	-62.65259	-66.72094	26.85111	34.17414	-64.27993	-135.88289	65.90727	49.63387	-17.90074	-30.10579	2.44101	0
873	0	-65.0936	-64.27993	31.73313	31.73313	-64.27993	-133.44188	63.46626	47.19286	-17.90074	-30.10579	2.44101	0
874	0	-67.53461	-66.72094	31.73313	31.73313	-66.72094	-128.55986	58.58424	47.19286	-20.34175	-30.10579	0	0
875	0	-67.53461	-66.72094	31.73313	31.73313	-66.72094	-126.11885	56.14323	42.31084	-20.34175	-30.10579	0	0
876	-4.88202	-69.97562	-64.27993	36.61515	29.29212	-66.72094	-121.23683	53.70222	39.86983	-20.34175	-30.10579	-2.44101	0
877	-7.32303	-69.97562	-61.83892	36.61515	26.85111	-64.27993	-121.23683	46.37919	37.42882	-25.22377	-30.10579	-4.88202	0
878	-7.32303	-67.53461	-59.39791	36.61515	24.4101	-61.83892	-123.67784	43.93818	32.5468	-28.47845	-32.5468	-9.76404	0
879	-10.57771	-67.53461	-56.9569	36.61515	21.96909	-61.83892	-123.67784	41.49717	30.10579	-28.47845	-37.42882	-14.64606	0
880	-17.90074	-69.97562	-52.07488	41.49717	17.08707	-61.83892	-123.67784	39.05616	27.66478	-30.91946	-39.86983	-17.08707	0
881	-27.66478	-72.41663	-44.75185	48.8202	7.32303	-59.39791	-123.67784	39.05616	25.22377	-35.80148	-44.75185	-24.4101	0
882	-34.98781	-82.18067	-47.19286	56.14323	4.88202	-64.27993	-123.67784	36.61515	20.34175	-38.24249	-49.63387	-30.10579	0
883	-37.42882	-87.06269	-49.63387	61.02525	4.88202	-69.16195	-123.67784	36.61515	20.34175	-38.24249	-49.63387	-32.5468	0
884	-44.75185	-89.5037	-44.75185	65.90727	0	-66.72094	-118.79582	36.61515	17.90074	-38.24249	-47.19286	-32.5468	0
885	-49.63387	-96.82673	-47.19286	70.78929	-2.44101	-71.60296	-118.79582	34.17414	15.45973	-38.24249	-47.19286	-34.98781	0
886	-44.75185	-101.70875	-56.9569	70.78929	4.88202	-78.92599	-121.23683	29.29212	8.1367	-45.56552	-49.63387	-39.86983	0
887	-47.19286	-101.70875	-54.51589	73.2303	2.44101	-78.92599	-123.67784	21.96909	3.25468	-45.56552	-52.07488	-44.75185	0
888	-47.19286	-101.70875	-54.51589	73.2303	2.44101	-78.92599	-123.67784	17.08707	3.25468	-48.00653	-52.07488	-47.19286	0
889	-47.19286	-94.38572	-47.19286	68.34828	0	-71.60296	-123.67784	17.08707	0.81367	-48.00653	-54.51589	-49.63387	0
890	-47.19286	-94.38572	-47.19286	68.34828	0	-71.60296	-123.67784	14.64606	-4.06835	-50.44754	-59.39791	-52.07488	0
891	-44.75185	-91.94471	-47.19286	65.90727	0	-69.16195	-123.67784	12.20505	-6.50936	-50.44754	-61.83892	-54.51589	0
892	-39.86983	-89.5037	-49.63387	63.46626	4.88202	-69.16195	-121.23683	12.20505	-6.50936	-50.44754	-61.83892	-56.9569	0
893	-39.86983	-87.06269	-47.19286	61.02525	2.44101	-66.72094	-116.35481	17.08707	-6.50936	-50.44754	-61.83892	-56.9569	0
894	-27.66478	-87.06269	-59.39791	56.14323	14.64606	-74.04397	-116.35481	14.64606	-6.50936	-50.44754	-61.83892	-59.39791	0
895	-27.66478	-91.94471	-64.27993	58.58424	17.08707	-78.92599	-116.35481	12.20505	-11.39138	-50.44754	-59.39791	-59.39791	0
896	-25.22377	-91.94471	-66.72094	56.14323	19.52808	-78.92599	-116.35481	9.76404	-13.83239	-52.88855	-59.39791	-61.83892	0
897	-22.78276	-91.94471	-69.16195	56.14323	21.96909	-81.367	-116.35481	4.06835	-16.2734	-55.32956	-59.39791	-64.27993	0
898	-27.66478	-89.5037	-61.83892	56.14323	17.08707	-76.48498	-116.35481	4.06835	-18.71441	-57.77057	-59.39791	-64.27993	0
899	-34.98781	-89.5037	-54.51589	61.02525	9.76404	-71.60296	-116.35481	1.62734	-21.96909	-60.21158	-61.83892	-69.16195	0
900	-37.42882	-89.5037	-52.07488	61.02525	7.32303	-71.60296	-116.35481	1.62734	-21.96909	-62.65259	-64.27993	-71.60296	0
901	-37.42882	-89.5037	-52.07488	61.02525	7.32303	-71.60296	-116.35481	1.62734	-24.4101	-65.0936	-66.72094	-74.04397	0
902	-39.86983	-94.38572	-54.51589	65.90727	7.32303	-74.04397	-113.9138	-0.81367	-26.85111	-67.53461	-69.16195	-78.92599	0
903	-44.75185	-99.26774	-54.51589	70.78929	4.88202	-76.48498	-111.47279	1.62734	-26.85111	-67.53461	-69.16195	-78.92599	0
904	-44.75185	-101.70875	-56.9569	70.78929	4.88202	-78.92599	-106.59077	4.06835	-26.85111	-67.53461	-69.16195	-81.367	0
905	-42.31084	-104.14976	-61.83892	70.78929	9.76404	-83.80801	-106.59077	4.06835	-26.85111	-65.0936	-66.72094	-81.367	0
906	-42.31084	-101.70875	-59.39791	70.78929	7.32303	-81.367	-104.14976	4.06835	-26.85111	-62.65259	-64.27993	-81.367	0
907	-44.75185	-104.14976	-59.39791	73.2303	7.32303	-81.367	-104.14976	4.06835	-29.29212	-62.65259	-64.27993	-86.24902	0
908	-44.75185	-99.26774	-54.51589	70.78929	4.88202	-76.48498	-104.14976	4.06835	-29.29212	-62.65259	-64.27993	-86.24902	0
909	-39.86983	-94.38572	-54.51589	65.90727	7.32303	-74.04397	-104.14976	1.62734	-34.17414	-65.0936	-69.16195	-91.13104	0
910	-37.42882	-94.38572	-56.9569	63.46626	9.76404	-76.48498	-106.59077	-0.81367	-36.61515	-65.0936	-69.16195	-93.57205	0
911	-37.42882	-89.5037	-52.07488	61.02525	7.32303	-71.60296	-106.59077	-0.81367	-36.61515	-65.0936	-69.16195	-96.01306	0
912	-30.10579	-87.06269	-56.9569	56.14323	12.20505	-71.60296	-104.14976	-0.81367	-36.61515	-65.0936	-69.16195	-96.01306	0
913	-22.78276	-82.18067	-59.39791	51.26121	17.08707	-71.60296	-101.70875	4.06835	-34.17414	-62.65259	-64.27993	-91.13104	0
914	-17.90074	-82.18067	-64.27993	48.8202	21.96909	-74.04397	-99.26774	4.06835	-31.73313	-60.21158	-61.83892	-88.69003	0
915	-13.01872	-84.62168	-71.60296	46.37919	29.29212	-78.92599	-96.82673	4.06835	-29.29212	-57.77057	-56.9569	-86.24902	0
916	-10.57771	-79.73966	-69.16195	43.93818	29.29212	-74.04397	-94.38572	7.32303	-26.85111	-55.32956	-52.07488	-86.24902	0
917	-2.44101	-79.73966	-76.48498	39.05616	36.61515	-76.48498	-99.26774	4.06835	-29.29212	-57.77057	-52.07488	-86.24902	0
918	-4.88202	-82.18067	-76.48498	41.49717	34.17414	-78.92599	-101.70875	-0.81367	-31.73313	-60.21158	-56.9569	-91.13104	0
919	-10.57771	-87.06269	-76.48498	46.37919	31.73313	-81.367	-106.59077	-5.69569	-34.17414	-62.65259	-64.27993	-98.45407	0
920	-15.45973	-91.94471	-76.48498	51.26121	29.29212	-83.80801	-109.03178	-8.1367	-39.05616	-67.53461	-71.60296	-103.33609	0
921	-22.78276	-96.82673	-74.04397	58.58424	24.4101	-86.24902	-113.9138	-8.1367	-41.49717	-69.97562	-76.48498	-105.7771	0
922	-25.22377	-101.70875	-76.48498	61.02525	24.4101	-88.69003	-113.9138	-10.57771	-43.93818	-72.41663	-78.92599	-110.65912	0
923	-25.22377	-101.70875	-76.48498	61.02525	24.4101	-88.69003	-113.9138	-8.1367	-43.93818	-69.97562	-78.92599	-110.65912	0
924	-25.22377	-99.26774	-74.04397	61.02525	24.4101	-86.24902	-109.03178	-3.25468	-36.61515	-67.53461	-74.04397	-110.65912	0
925	-22.78276	-96.82673	-74.04397	58.58424	24.4101	-86.24902	-104.14976	-0.81367	-36.61515	-62.65259	-69.16195	-105.7771	0
926	-15.45973	-89.5037	-74.04397	51.26121	29.29212	-81.367	-99.26774	1.62734	-31.73313	-55.32956	-61.83892	-103.33609	0
927	-10.57771	-82.18067	-71.60296	43.93818	29.29212	-76.48498	-96.82673	4.06835	-26.85111	-52.88855	-56.9569	-100.89508	0
928	-2.44101	-74.85764	-71.60296	36.61515	34.17414	-71.60296	-99.26774	4.06835	-26.85111	-52.88855	-56.9569	-103.33609	0
929	0	-69.97562	-69.16195	34.17414	34.17414	-69.16195	-101.70875	1.62734	-29.29212	-50.44754	-56.9569	-103.33609	0
930	4.88202	-69.97562	-74.04397	31.73313	39.05616	-71.60296	-106.59077	1.62734	-31.73313	-52.88855	-61.83892	-108.21811	0
931	9.76404	-69.97562	-78.92599	29.29212	43.93818	-74.04397	-109.03178	1.62734	-34.17414	-55.32956	-64.27993	-113.10013	0
932	9.76404	-69.97562	-78.92599	29.29212	43.93818	-74.04397	-111.47279	1.62734	-34.17414	-55.32956	-64.27993	-115.54114	0
933	14.64606	-69.97562	-83.80801	26.85111	48.8202	-76.48498	-113.9138	1.62734	-36.61515	-55.32956	-66.72094	-117.98215	0
934	19.52808	-69.97562	-88.69003	24.4101	53.70222	-78.92599	-116.35481	4.06835	-36.61515	-57.77057	-66.72094	-120.42316	0
935	17.08707	-69.97562	-86.24902	24.4101	51.26121	-76.48498	-113.9138	7.32303	-31.73313	-52.88855	-61.83892	-120.42316	0
936	17.08707	-69.97562	-86.24902	24.4101	51.26121	-76.48498	-113.9138	7.32303	-29.29212	-50.44754	-56.9569	-117.98215	0
937	19.52808	-67.53461	-86.24902	21.96909	51.26121	-76.48498	-113.9138	7.32303	-29.29212	-48.00653	-54.51589	-115.54114	0
938	19.52808	-67.53461	-86.24902	21.96909	51.26121	-76.48498	-111.47279	7.32303	-29.29212	-45.56552	-52.07488	-115.54114	0
939	21.96909	-62.65259	-83.80801	19.52808	51.26121	-71.60296	-111.47279	7.32303	-26.85111	-45.56552	-49.63387	-113.10013	0
940	24.4101	-60.21158	-83.80801	17.08707	53.70222	-71.60296	-111.47279	7.32303	-26.85111	-43.12451	-49.63387	-113.10013	0
941	29.29212	-57.77057	-86.24902	12.20505	56.14323	-71.60296	-109.03178	7.32303	-26.85111	-43.12451	-49.63387	-113.10013	0
942	31.73313	-57.77057	-88.69003	12.20505	58.58424	-71.60296	-109.03178	7.32303	-26.85111	-45.56552	-52.07488	-113.10013	0
943	29.29212	-52.88855	-81.367	9.76404	53.70222	-66.72094	-104.14976	7.32303	-26.85111	-43.12451	-47.19286	-108.21811	0
944	31.73313	-50.44754	-81.367	6.50936	56.14323	-64.27993	-101.70875	7.32303	-26.85111	-43.12451	-47.19286	-108.21811	0
945	31.73313	-50.44754	-81.367	6.50936	56.14323	-64.27993	-99.26774	7.32303	-26.85111	-43.12451	-44.75185	-108.21811	0
946	31.73313	-50.44754	-81.367	6.50936	56.14323	-64.27993	-99.26774	4.06835	-29.29212	-43.12451	-44.75185	-108.21811	0
947	29.29212	-50.44754	-78.92599	9.76404	53.70222	-64.27993	-99.26774	-0.81367	-29.29212	-45.56552	-44.75185	-108.21811	0
948	26.85111	-50.44754	-76.48498	9.76404	51.26121	-61.83892	-96.82673	-0.81367	-31.73313	-45.56552	-44.75185	-108.21811	0
949	26.85111	-50.44754	-76.48498	9.76404	51.26121	-61.83892	-94.38572	-3.25468	-34.17414	-45.56552	-44.75185	-108.21811	0
950	26.85111	-50.44754	-76.48498	9.76404	51.26121	-61.83892	-94.38572	-5.69569	-34.17414	-45.56552	-44.75185	-110.65912	0
951	29.29212	-48.00653	-76.48498	6.50936	51.26121	-61.83892	-94.38572	-8.1367	-34.17414	-45.56552	-47.19286	-110.65912	0
952	31.73313	-43.12451	-74.04397	4.06835	51.26121	-56.9569	-94.38572	-10.57771	-34.17414	-43.12451	-47.19286	-113.10013	0
953	36.61515	-38.24249	-74.04397	-0.81367	53.70222	-54.51589	-91.94471	-10.57771	-34.17414	-40.6835	-47.19286	-110.65912	0
954	41.49717	-35.80148	-76.48498	-3.25468	58.58424	-54.51589	-91.94471	-10.57771	-31.73313	-38.24249	-47.19286	-110.65912	0
955	43.93818	-35.80148	-78.92599	-5.69569	61.02525	-56.9569	-91.94471	-13.01872	-31.73313	-38.24249	-44.75185	-108.21811	0
956	43.93818	-33.36047	-76.48498	-5.69569	58.58424	-54.51589	-89.5037	-13.01872	-31.73313	-35.80148	-44.75185	-108.21811	0
957	39.05616	-35.80148	-74.04397	-3.25468	56.14323	-54.51589	-89.5037	-15.45973	-34.17414	-38.24249	-47.19286	-110.65912	0
958	36.61515	-38.24249	-74.04397	-0.81367	53.70222	-54.51589	-89.5037	-17.90074	-36.61515	-43.12451	-52.07488	-115.54114	0
959	36.61515	-43.12451	-78.92599	1.62734	56.14323	-59.39791	-91.94471	-20.34175	-41.49717	-48.00653	-56.9569	-122.86417	0
960	31.73313	-45.56552	-76.48498	6.50936	53.70222	-59.39791	-91.94471	-22.78276	-41.49717	-50.44754	-59.39791	-127.74619	0
961	24.4101	-48.00653	-71.60296	9.76404	46.37919	-59.39791	-91.94471	-22.78276	-43.93818	-52.88855	-61.83892	-130.1872	0
962	17.08707	-50.44754	-66.72094	14.64606	41.49717	-56.9569	-87.06269	-22.78276	-41.49717	-50.44754	-61.83892	-130.1872	0
963	19.52808	-52.88855	-71.60296	14.64606	43.93818	-61.83892	-84.62168	-25.22377	-41.49717	-50.44754	-61.83892	-130.1872	0
964	24.4101	-52.88855	-76.48498	12.20505	48.8202	-64.27993	-79.73966	-30.10579	-43.93818	-50.44754	-64.27993	-130.1872	0
965	19.52808	-52.88855	-71.60296	14.64606	43.93818	-61.83892	-74.85764	-32.5468	-41.49717	-45.56552	-59.39791	-127.74619	0
966	17.08707	-52.88855	-69.16195	17.08707	41.49717	-59.39791	-72.41663	-32.5468	-41.49717	-43.12451	-59.39791	-125.30518	0
967	19.52808	-50.44754	-69.16195	14.64606	43.93818	-59.39791	-69.97562	-34.98781	-41.49717	-43.12451	-61.83892	-125.30518	0
968	21.96909	-48.00653	-69.16195	12.20505	43.93818	-56.9569	-69.97562	-34.98781	-43.93818	-45.56552	-64.27993	-127.74619	0
969	24.4101	-48.00653	-71.60296	9.76404	46.37919	-59.39791	-69.97562	-37.42882	-48.8202	-48.00653	-69.16195	-132.62821	0
970	21.96909	-48.00653	-69.16195	12.20505	43.93818	-56.9569	-72.41663	-37.42882	-48.8202	-48.00653	-69.16195	-135.06922	0
971	19.52808	-45.56552	-64.27993	12.20505	41.49717	-54.51589	-72.41663	-37.42882	-48.8202	-48.00653	-71.60296	-135.06922	0
972	21.96909	-45.56552	-66.72094	9.76404	43.93818	-54.51589	-72.41663	-32.5468	-48.8202	-48.00653	-69.16195	-135.06922	0
973	21.96909	-45.56552	-66.72094	9.76404	43.93818	-54.51589	-69.97562	-32.5468	-48.8202	-45.56552	-66.72094	-132.62821	0
974	24.4101	-48.00653	-71.60296	9.76404	46.37919	-59.39791	-67.53461	-30.10579	-43.93818	-40.6835	-64.27993	-130.1872	0
975	21.96909	-50.44754	-71.60296	12.20505	46.37919	-59.39791	-65.0936	-30.10579	-43.93818	-35.80148	-59.39791	-125.30518	0
976	17.08707	-50.44754	-66.72094	14.64606	41.49717	-56.9569	-60.21158	-30.10579	-39.05616	-33.36047	-56.9569	-120.42316	0
977	14.64606	-48.00653	-61.83892	14.64606	36.61515	-54.51589	-60.21158	-30.10579	-36.61515	-30.91946	-52.07488	-120.42316	0
978	14.64606	-45.56552	-59.39791	14.64606	36.61515	-52.07488	-60.21158	-30.10579	-39.05616	-30.91946	-54.51589	-120.42316	0
979	14.64606	-43.12451	-56.9569	12.20505	34.17414	-49.63387	-60.21158	-32.5468	-41.49717	-33.36047	-56.9569	-122.86417	0
980	9.76404	-40.6835	-49.63387	14.64606	29.29212	-44.75185	-57.77057	-32.5468	-41.49717	-33.36047	-56.9569	-125.30518	0
981	17.08707	-35.80148	-52.07488	6.50936	34.17414	-42.31084	-57.77057	-34.98781	-43.93818	-35.80148	-59.39791	-132.62821	0
982	19.52808	-33.36047	-52.07488	6.50936	34.17414	-42.31084	-55.32956	-32.5468	-41.49717	-35.80148	-59.39791	-132.62821	0
983	21.96909	-33.36047	-54.51589	4.06835	36.61515	-42.31084	-50.44754	-32.5468	-39.05616	-33.36047	-59.39791	-132.62821	0
984	26.85111	-33.36047	-59.39791	1.62734	41.49717	-44.75185	-48.00653	-32.5468	-39.05616	-30.91946	-59.39791	-132.62821	0
985	24.4101	-40.6835	-64.27993	6.50936	43.93818	-52.07488	-45.56552	-37.42882	-39.05616	-28.47845	-59.39791	-132.62821	0
986	19.52808	-45.56552	-64.27993	12.20505	41.49717	-54.51589	-45.56552	-39.86983	-39.05616	-28.47845	-59.39791	-132.62821	0
987	17.08707	-45.56552	-61.83892	12.20505	39.05616	-52.07488	-45.56552	-39.86983	-39.05616	-28.47845	-59.39791	-130.1872	0
988	12.20505	-45.56552	-56.9569	14.64606	34.17414	-49.63387	-45.56552	-42.31084	-41.49717	-30.91946	-61.83892	-130.1872	0
989	7.32303	-48.00653	-54.51589	19.52808	29.29212	-49.63387	-45.56552	-44.75185	-46.37919	-33.36047	-64.27993	-135.06922	0
