samplenr	I	II	III	aVR	aVL	aVF	V1	V2	V3	V4	V5	V6	measurement
0	66.72094	83.80801	17.08707	-75.67131	26.03744	51.26121	-120.42316	-48.8202	46.37919	2.44101	39.86983	33.36047	0
1	66.72094	81.367	14.64606	-73.2303	26.03744	48.8202	-122.86417	-51.26121	46.37919	0	39.86983	33.36047	0
2	64.27993	71.60296	7.32303	-68.34828	28.47845	39.05616	-130.1872	-53.70222	41.49717	-2.44101	39.86983	28.47845	0
3	61.83892	66.72094	4.88202	-63.46626	28.47845	36.61515	-132.62821	-56.14323	36.61515	-2.44101	39.86983	26.03744	0
4	59.39791	56.9569	-2.44101	-58.58424	30.91946	26.85111	-135.06922	-58.58424	31.73313	-9.76404	34.98781	21.15542	0
5	49.63387	47.19286	-2.44101	-48.8202	26.03744	21.96909	-135.06922	-63.46626	26.85111	-17.08707	32.5468	11.39138	0
6	42.31084	34.98781	-7.32303	-39.05616	26.03744	14.64606	-137.51023	-65.90727	19.52808	-26.85111	27.66478	4.06835	0
7	32.5468	25.22377	-7.32303	-29.29212	21.15542	9.76404	-137.51023	-70.78929	12.20505	-34.17414	17.90074	-5.69569	0
8	20.34175	13.01872	-7.32303	-17.08707	13.83239	2.44101	-137.51023	-73.2303	4.88202	-36.61515	10.57771	-15.45973	0
9	10.57771	3.25468	-7.32303	-7.32303	8.1367	-2.44101	-137.51023	-78.11232	0	-41.49717	5.69569	-25.22377	0
10	3.25468	-6.50936	-9.76404	2.44101	5.69569	-7.32303	-137.51023	-78.11232	-4.88202	-43.93818	-1.62734	-34.98781	0
11	-1.62734	-13.83239	-12.20505	7.32303	5.69569	-12.20505	-137.51023	-80.55333	-8.1367	-47.19286	-6.50936	-42.31084	0
12	-7.32303	-18.71441	-12.20505	12.20505	3.25468	-17.08707	-137.51023	-82.99434	-13.01872	-47.19286	-11.39138	-52.88855	0
13	-12.20505	-21.15542	-9.76404	14.64606	-1.62734	-17.08707	-137.51023	-82.99434	-13.01872	-41.49717	-16.2734	-55.32956	0
14	-14.64606	-21.15542	-7.32303	17.90074	-4.06835	-14.64606	-137.51023	-82.99434	-15.45973	-39.05616	-18.71441	-60.21158	0
15	-19.52808	-23.59643	-4.88202	20.34175	-6.50936	-14.64606	-137.51023	-82.99434	-15.45973	-39.05616	-18.71441	-67.53461	0
16	-19.52808	-23.59643	-4.88202	20.34175	-6.50936	-14.64606	-137.51023	-82.99434	-17.90074	-39.05616	-21.15542	-67.53461	0
17	-19.52808	-26.85111	-7.32303	22.78276	-6.50936	-17.08707	-142.39225	-82.99434	-17.90074	-36.61515	-23.59643	-67.53461	0
18	-19.52808	-26.85111	-7.32303	22.78276	-6.50936	-17.08707	-142.39225	-82.99434	-17.90074	-34.17414	-23.59643	-67.53461	0
19	-19.52808	-31.73313	-12.20505	25.22377	-4.06835	-21.96909	-147.27427	-82.99434	-17.90074	-36.61515	-23.59643	-67.53461	0
20	-19.52808	-36.61515	-17.08707	27.66478	-1.62734	-27.66478	-147.27427	-85.43535	-20.34175	-39.05616	-23.59643	-67.53461	0
21	-19.52808	-43.93818	-25.22377	30.10579	0.81367	-34.98781	-147.27427	-85.43535	-20.34175	-41.49717	-23.59643	-67.53461	0
22	-21.96909	-46.37919	-25.22377	32.5468	0.81367	-37.42882	-149.71528	-85.43535	-22.78276	-41.49717	-23.59643	-69.97562	0
23	-24.4101	-48.8202	-25.22377	34.98781	-1.62734	-37.42882	-149.71528	-85.43535	-22.78276	-41.49717	-23.59643	-69.97562	0
24	-24.4101	-51.26121	-27.66478	37.42882	0.81367	-39.86983	-149.71528	-85.43535	-22.78276	-41.49717	-26.03744	-69.97562	0
25	-26.85111	-53.70222	-27.66478	39.86983	-1.62734	-42.31084	-152.15629	-87.87636	-22.78276	-43.93818	-26.03744	-74.85764	0
26	-26.85111	-53.70222	-27.66478	39.86983	-1.62734	-42.31084	-152.15629	-87.87636	-22.78276	-43.93818	-26.03744	-74.85764	0
27	-26.85111	-53.70222	-27.66478	39.86983	-1.62734	-42.31084	-152.15629	-87.87636	-20.34175	-43.93818	-28.47845	-74.85764	0
28	-26.85111	-53.70222	-27.66478	39.86983	-1.62734	-42.31084	-152.15629	-87.87636	-17.90074	-41.49717	-28.47845	-74.85764	0
29	-29.29212	-53.70222	-25.22377	39.86983	-4.06835	-39.86983	-154.5973	-87.87636	-15.45973	-41.49717	-28.47845	-74.85764	0
30	-29.29212	-51.26121	-22.78276	39.86983	-4.06835	-37.42882	-154.5973	-85.43535	-13.01872	-41.49717	-23.59643	-72.41663	0
31	-29.29212	-51.26121	-22.78276	39.86983	-4.06835	-37.42882	-154.5973	-82.99434	-13.01872	-41.49717	-23.59643	-72.41663	0
32	-29.29212	-53.70222	-25.22377	39.86983	-4.06835	-39.86983	-152.15629	-80.55333	-10.57771	-41.49717	-21.15542	-72.41663	0
33	-29.29212	-56.14323	-27.66478	42.31084	-1.62734	-42.31084	-149.71528	-78.11232	-8.1367	-39.05616	-21.15542	-72.41663	0
34	-31.73313	-58.58424	-27.66478	44.75185	-4.06835	-44.75185	-149.71528	-75.67131	-8.1367	-39.05616	-18.71441	-72.41663	0
35	-31.73313	-61.02525	-30.10579	44.75185	-1.62734	-47.19286	-144.83326	-73.2303	-8.1367	-41.49717	-16.2734	-72.41663	0
36	-31.73313	-61.02525	-30.10579	44.75185	-1.62734	-47.19286	-144.83326	-70.78929	-4.88202	-39.05616	-13.83239	-69.97562	0
37	-26.85111	-61.02525	-34.98781	42.31084	3.25468	-49.63387	-142.39225	-70.78929	-4.88202	-36.61515	-11.39138	-67.53461	0
38	-26.85111	-61.02525	-34.98781	42.31084	3.25468	-49.63387	-142.39225	-68.34828	-2.44101	-34.17414	-8.95037	-67.53461	0
39	-29.29212	-63.46626	-34.98781	44.75185	0.81367	-49.63387	-142.39225	-68.34828	0	-34.17414	-8.95037	-67.53461	0
40	-29.29212	-63.46626	-34.98781	44.75185	0.81367	-49.63387	-142.39225	-68.34828	2.44101	-34.17414	-6.50936	-65.0936	0
41	-29.29212	-63.46626	-34.98781	44.75185	0.81367	-49.63387	-142.39225	-68.34828	2.44101	-34.17414	-6.50936	-67.53461	0
42	-29.29212	-61.02525	-32.5468	44.75185	0.81367	-47.19286	-142.39225	-68.34828	4.88202	-34.17414	-6.50936	-69.97562	0
43	-29.29212	-61.02525	-32.5468	44.75185	0.81367	-47.19286	-144.83326	-68.34828	4.88202	-34.17414	-6.50936	-69.97562	0
44	-29.29212	-61.02525	-32.5468	44.75185	0.81367	-47.19286	-147.27427	-68.34828	2.44101	-34.17414	-11.39138	-72.41663	0
45	-29.29212	-61.02525	-32.5468	44.75185	0.81367	-47.19286	-147.27427	-68.34828	2.44101	-34.17414	-11.39138	-74.85764	0
46	-29.29212	-61.02525	-32.5468	44.75185	0.81367	-47.19286	-147.27427	-68.34828	0	-34.17414	-11.39138	-74.85764	0
47	-29.29212	-61.02525	-32.5468	44.75185	0.81367	-47.19286	-149.71528	-68.34828	-2.44101	-34.17414	-11.39138	-74.85764	0
48	-29.29212	-61.02525	-32.5468	44.75185	0.81367	-47.19286	-149.71528	-65.90727	-4.88202	-34.17414	-8.95037	-74.85764	0
49	-26.85111	-58.58424	-32.5468	42.31084	0.81367	-47.19286	-152.15629	-65.90727	-4.88202	-34.17414	-8.95037	-74.85764	0
50	-26.85111	-58.58424	-32.5468	42.31084	0.81367	-47.19286	-152.15629	-65.90727	-8.1367	-34.17414	-6.50936	-72.41663	0
51	-26.85111	-58.58424	-32.5468	42.31084	0.81367	-47.19286	-149.71528	-63.46626	-8.1367	-31.73313	-6.50936	-69.97562	0
52	-24.4101	-58.58424	-34.98781	39.86983	3.25468	-47.19286	-139.95124	-61.02525	-8.1367	-31.73313	-4.06835	-67.53461	0
53	-24.4101	-58.58424	-34.98781	39.86983	3.25468	-47.19286	-130.1872	-58.58424	-8.1367	-29.29212	-1.62734	-62.65259	0
54	-24.4101	-61.02525	-37.42882	42.31084	5.69569	-49.63387	-117.98215	-58.58424	-10.57771	-29.29212	-1.62734	-62.65259	0
55	-24.4101	-63.46626	-39.86983	42.31084	5.69569	-52.07488	-108.21811	-56.14323	-10.57771	-29.29212	-1.62734	-60.21158	0
56	-21.96909	-63.46626	-42.31084	42.31084	8.1367	-54.51589	-96.01306	-56.14323	-10.57771	-29.29212	-1.62734	-57.77057	0
57	-21.96909	-65.90727	-44.75185	42.31084	11.39138	-56.9569	-83.80801	-56.14323	-8.1367	-29.29212	-1.62734	-57.77057	0
58	-21.96909	-65.90727	-44.75185	42.31084	11.39138	-56.9569	-71.60296	-56.14323	-8.1367	-26.85111	-1.62734	-57.77057	0
59	-19.52808	-65.90727	-47.19286	42.31084	13.83239	-56.9569	-59.39791	-56.14323	-8.1367	-26.85111	-1.62734	-57.77057	0
60	-21.96909	-65.90727	-44.75185	42.31084	11.39138	-56.9569	-54.51589	-56.14323	-8.1367	-26.85111	-1.62734	-57.77057	0
61	-21.96909	-63.46626	-42.31084	42.31084	8.1367	-54.51589	-49.63387	-56.14323	-8.1367	-29.29212	-1.62734	-57.77057	0
62	-21.96909	-63.46626	-42.31084	42.31084	8.1367	-54.51589	-47.19286	-56.14323	-8.1367	-29.29212	-6.50936	-62.65259	0
63	-21.96909	-61.02525	-39.86983	39.86983	8.1367	-52.07488	-47.19286	-58.58424	-8.1367	-34.17414	-8.95037	-65.0936	0
64	-19.52808	-63.46626	-44.75185	39.86983	11.39138	-54.51589	-47.19286	-63.46626	-10.57771	-39.05616	-13.83239	-69.97562	0
65	-19.52808	-63.46626	-44.75185	39.86983	11.39138	-54.51589	-49.63387	-65.90727	-15.45973	-41.49717	-18.71441	-74.85764	0
66	-19.52808	-68.34828	-49.63387	42.31084	13.83239	-59.39791	-52.07488	-68.34828	-17.90074	-47.19286	-21.15542	-77.29865	0
67	-19.52808	-68.34828	-49.63387	42.31084	13.83239	-59.39791	-54.51589	-73.2303	-20.34175	-49.63387	-28.47845	-82.18067	0
68	-19.52808	-73.2303	-54.51589	44.75185	16.2734	-64.27993	-54.51589	-75.67131	-20.34175	-52.07488	-40.6835	-89.5037	0
69	-17.08707	-78.11232	-61.83892	47.19286	21.15542	-71.60296	-59.39791	-78.11232	-25.22377	-59.39791	-26.03744	-99.26774	0
70	-17.08707	-85.43535	-69.16195	49.63387	26.03744	-78.92599	-61.83892	-80.55333	-27.66478	-69.16195	-38.24249	-94.38572	0
71	-14.64606	-97.6404	-83.80801	54.51589	33.36047	-91.13104	-64.27993	-82.99434	-32.5468	-81.367	-75.67131	-131.00087	0
72	-9.76404	-112.28646	-103.33609	59.39791	45.56552	-108.21811	-64.27993	-80.55333	-32.5468	-91.13104	-92.75838	-148.08794	0
73	-9.76404	-129.37353	-120.42316	69.16195	55.32956	-125.30518	-59.39791	-78.11232	-39.86983	-108.21811	-117.16848	-174.93905	0
74	-17.08707	-146.4606	-130.1872	81.367	55.32956	-139.95124	-64.27993	-80.55333	-52.07488	-135.06922	-153.78363	-211.5542	0
75	10.57771	-168.42969	-179.0074	78.92599	94.38572	-174.12538	-71.60296	-87.87636	-66.72094	-161.92033	-190.39878	-245.72834	0
76	10.57771	-202.60383	-213.18154	96.01306	111.47279	-208.29952	-64.27993	-100.08141	-83.80801	-188.77144	-197.72181	-262.81541	0
77	-14.64606	-248.98302	-235.15063	130.1872	109.03178	-242.47366	-108.21811	-119.60949	-103.33609	-230.26861	-285.59817	-336.04571	0
78	-26.85111	-258.74706	-232.70962	142.39225	101.70875	-247.35568	-135.06922	-144.01959	-137.51023	-281.52982	-351.50544	-399.51197	0
79	-24.4101	-244.101	-220.50457	132.62821	96.82673	-232.70962	-166.80235	-158.66565	-166.80235	-283.97083	-353.94645	-406.835	0
80	-4.88202	-219.6909	-215.62255	110.65912	104.14976	-218.06356	-183.88942	-209.92686	-183.88942	-301.0579	-353.94645	-377.54288	0
81	37.42882	-134.25555	-171.68437	47.19286	104.14976	-152.15629	-242.47366	-246.54201	-181.44841	-269.32477	-314.89029	-333.6047	0
82	69.16195	-18.71441	-88.69003	-24.4101	79.73966	-54.51589	-313.26295	-305.12625	-179.0074	-232.70962	-258.74706	-255.49238	0
83	108.21811	137.51023	29.29212	-122.0505	40.6835	82.99434	-337.67305	-310.00827	-120.42316	-157.03831	-173.31171	-155.41097	0
84	174.12538	291.29386	117.16848	-231.89595	28.47845	205.04484	-344.99608	-288.03918	-69.16195	-61.83892	-65.90727	-34.98781	0
85	235.15063	379.17022	144.01959	-307.56726	45.56552	261.18807	-391.37527	-324.65433	-64.27993	-21.96909	-21.15542	16.2734	0
86	247.35568	420.66739	173.31171	-334.41837	38.24249	297.80322	-344.99608	-82.99434	29.29212	82.99434	81.367	101.70875	0
87	257.11972	557.36395	300.24423	-407.64867	-21.15542	429.61776	-115.54114	0.81367	288.03918	346.62342	330.35002	304.31258	0
88	222.94558	706.26556	483.31998	-463.7919	-131.00087	595.60644	-47.19286	83.80801	495.52503	571.19634	550.04092	489.82934	0
89	198.53548	860.04919	661.51371	-529.69917	-231.08228	761.59512	21.15542	283.97083	659.0727	783.56421	762.40879	653.37701	0
90	171.68437	957.68959	786.00522	-563.87331	-306.75359	871.44057	190.39878	352.31911	766.47714	920.26077	899.10535	772.9865	0
91	154.5973	984.5407	829.9434	-568.75533	-338.48672	908.05572	236.77797	408.46234	864.11754	1071.60339	1060.21201	885.27296	0
92	161.92033	1018.71484	856.79451	-590.72442	-348.25076	937.34784	258.74706	425.54941	915.37875	1200.97692	1213.99564	1007.32346	0
93	135.06922	1006.50979	871.44057	-571.19634	-367.77884	939.78885	209.92686	344.99608	839.70744	1186.33086	1253.0518	1041.4976	0
94	125.30518	1011.39181	886.08663	-568.75533	-379.98389	949.55289	104.96343	174.12538	673.71876	1135.06965	1265.25685	1078.11275	0
95	139.95124	943.04353	803.09229	-541.90422	-331.16369	873.88158	-10.57771	32.5468	561.4323	1159.47975	1340.92816	1146.46103	0
96	176.56639	845.40313	668.83674	-510.17109	-245.72834	756.7131	-69.16195	81.367	497.96604	1179.00783	1419.04048	1219.69133	0
97	232.70962	759.96778	527.25816	-495.52503	-148.08794	644.42664	16.2734	34.98781	463.7919	1188.77187	1470.30169	1273.39355	0
98	225.38659	655.00435	429.61776	-439.3818	-101.70875	541.90422	1.62734	-6.50936	439.3818	1176.56682	1480.06573	1285.5986	0
99	220.50457	528.07183	307.56726	-373.47453	-43.12451	417.41271	-3.25468	-41.49717	393.00261	1130.18763	1443.45058	1241.66042	0
100	205.85851	374.2882	168.42969	-290.48019	18.71441	270.95211	-0.81367	0.81367	383.23857	1066.72137	1372.66129	1175.75315	1000	P+0
101	191.21245	242.47366	51.26121	-217.24989	69.97562	146.4606	6.50936	32.5468	346.62342	976.404	1275.02089	1107.40487	0
102	169.24336	193.65346	24.4101	-180.63474	72.41663	109.84545	11.39138	-73.2303	165.98868	744.50805	1077.29908	995.11841	0
103	137.51023	127.74619	-9.76404	-131.81454	74.85764	58.58424	13.83239	-146.4606	36.61515	544.34523	906.42838	870.6269	0
104	110.65912	47.19286	-64.27993	-78.11232	87.06269	-7.32303	16.2734	-178.19373	-54.51589	402.76665	750.20374	760.78145	0
105	115.54114	-34.17414	-149.71528	-41.49717	131.00087	-91.13104	11.39138	-131.81454	-98.45407	305.12625	623.27122	658.25903	0
106	100.89508	-90.31737	-191.21245	-4.88202	145.64693	-139.95124	1.62734	-141.57858	-125.30518	200.16282	486.57466	541.09055	0
107	76.48498	-117.16848	-193.65346	20.34175	133.44188	-154.5973	-0.81367	-134.25555	-149.71528	87.87636	325.468	409.27601	0
108	74.04397	-114.72747	-188.77144	20.34175	131.00087	-152.15629	-0.81367	-117.16848	-127.74619	70.78929	281.52982	377.54288	0
109	96.01306	-85.43535	-181.44841	-4.88202	138.3239	-132.62821	1.62734	-95.19939	-69.16195	107.40444	301.0579	360.45581	0
110	86.24902	-78.11232	-164.36134	-4.88202	123.67784	-120.42316	8.95037	-75.67131	4.88202	141.57858	298.61689	345.80975	0
111	74.04397	-48.8202	-122.86417	-12.20505	96.82673	-86.24902	13.83239	-56.14323	63.46626	180.63474	296.17588	316.51763	0
112	61.83892	-58.58424	-120.42316	-2.44101	89.5037	-88.69003	16.2734	-41.49717	29.29212	195.2808	288.85285	294.54854	0
113	54.51589	-51.26121	-105.7771	-2.44101	79.73966	-78.92599	18.71441	-30.91946	46.37919	161.10666	244.91467	235.9643	0
114	44.75185	-46.37919	-91.13104	0	67.53461	-69.16195	21.15542	-23.59643	53.70222	124.49151	193.65346	187.1441	0
115	37.42882	-41.49717	-78.92599	2.44101	57.77057	-59.39791	21.15542	-23.59643	53.70222	97.6404	125.30518	113.9138	0
116	30.10579	-41.49717	-71.60296	4.88202	50.44754	-56.9569	18.71441	-28.47845	48.8202	78.11232	64.27993	57.77057	0
117	22.78276	-41.49717	-64.27993	9.76404	43.12451	-52.07488	16.2734	-36.61515	39.05616	58.58424	91.13104	50.44754	0
118	20.34175	-39.05616	-59.39791	9.76404	38.24249	-49.63387	16.2734	-43.93818	29.29212	41.49717	66.72094	43.12451	0
119	15.45973	-39.05616	-54.51589	12.20505	33.36047	-47.19286	11.39138	-48.8202	24.4101	26.85111	47.19286	26.03744	0
120	10.57771	-39.05616	-49.63387	14.64606	28.47845	-44.75185	8.95037	-56.14323	19.52808	17.08707	37.42882	38.24249	0
121	10.57771	-39.05616	-49.63387	14.64606	28.47845	-44.75185	6.50936	-58.58424	17.08707	12.20505	32.5468	33.36047	0
122	8.1367	-39.05616	-47.19286	14.64606	26.03744	-42.31084	4.06835	-63.46626	14.64606	7.32303	27.66478	23.59643	0
123	8.1367	-39.05616	-47.19286	14.64606	26.03744	-42.31084	4.06835	-65.90727	12.20505	2.44101	22.78276	18.71441	0
124	8.1367	-39.05616	-47.19286	14.64606	26.03744	-42.31084	4.06835	-68.34828	4.88202	0	17.90074	16.2734	0
125	8.1367	-39.05616	-47.19286	14.64606	26.03744	-42.31084	4.06835	-70.78929	-2.44101	-2.44101	15.45973	13.83239	0
126	8.1367	-41.49717	-49.63387	14.64606	28.47845	-44.75185	4.06835	-70.78929	-8.1367	-4.88202	15.45973	13.83239	0
127	5.69569	-43.93818	-49.63387	17.90074	26.03744	-47.19286	4.06835	-73.2303	-13.01872	-4.88202	13.01872	13.83239	0
128	5.69569	-46.37919	-52.07488	20.34175	28.47845	-49.63387	4.06835	-75.67131	-20.34175	-7.32303	10.57771	13.83239	0
129	5.69569	-46.37919	-52.07488	20.34175	28.47845	-49.63387	6.50936	-78.11232	-25.22377	-7.32303	10.57771	16.2734	0
130	5.69569	-46.37919	-52.07488	20.34175	28.47845	-49.63387	6.50936	-78.11232	-30.10579	-7.32303	10.57771	18.71441	0
131	5.69569	-46.37919	-52.07488	20.34175	28.47845	-49.63387	8.95037	-78.11232	-34.98781	-7.32303	13.01872	21.15542	0
132	5.69569	-48.8202	-54.51589	20.34175	28.47845	-52.07488	11.39138	-75.67131	-37.42882	-7.32303	13.01872	23.59643	0
133	5.69569	-48.8202	-54.51589	20.34175	28.47845	-52.07488	13.83239	-73.2303	-37.42882	-4.88202	15.45973	26.03744	0
134	5.69569	-48.8202	-54.51589	20.34175	28.47845	-52.07488	16.2734	-70.78929	-34.98781	-4.88202	15.45973	28.47845	0
135	5.69569	-48.8202	-54.51589	20.34175	28.47845	-52.07488	18.71441	-68.34828	-34.98781	-4.88202	15.45973	28.47845	0
136	10.57771	-43.93818	-54.51589	14.64606	30.91946	-49.63387	21.15542	-63.46626	-30.10579	-4.88202	15.45973	28.47845	0
137	10.57771	-41.49717	-52.07488	14.64606	30.91946	-47.19286	23.59643	-63.46626	-27.66478	-2.44101	15.45973	28.47845	0
138	10.57771	-41.49717	-52.07488	14.64606	30.91946	-47.19286	26.03744	-61.02525	-27.66478	-2.44101	15.45973	28.47845	0
139	10.57771	-43.93818	-54.51589	14.64606	30.91946	-49.63387	28.47845	-61.02525	-22.78276	-2.44101	15.45973	28.47845	0
140	10.57771	-46.37919	-56.9569	17.90074	33.36047	-52.07488	28.47845	-61.02525	-20.34175	-2.44101	15.45973	26.03744	0
141	10.57771	-46.37919	-56.9569	17.90074	33.36047	-52.07488	30.91946	-58.58424	-17.90074	-4.88202	13.01872	21.15542	0
142	13.01872	-46.37919	-59.39791	14.64606	35.80148	-52.07488	33.36047	-58.58424	-17.90074	-7.32303	10.57771	18.71441	0
143	13.01872	-46.37919	-59.39791	14.64606	35.80148	-52.07488	33.36047	-56.14323	-15.45973	-9.76404	8.1367	13.83239	0
144	8.1367	-48.8202	-56.9569	20.34175	30.91946	-52.07488	33.36047	-58.58424	-15.45973	-12.20505	3.25468	8.95037	0
145	8.1367	-48.8202	-56.9569	20.34175	30.91946	-52.07488	33.36047	-56.14323	-13.01872	-12.20505	3.25468	6.50936	0
146	8.1367	-48.8202	-56.9569	20.34175	30.91946	-52.07488	33.36047	-56.14323	-8.1367	-12.20505	3.25468	6.50936	0
147	8.1367	-48.8202	-56.9569	20.34175	30.91946	-52.07488	33.36047	-56.14323	-8.1367	-14.64606	3.25468	4.06835	0
148	10.57771	-48.8202	-59.39791	17.90074	33.36047	-54.51589	30.91946	-56.14323	-4.88202	-12.20505	3.25468	4.06835	0
149	13.01872	-46.37919	-59.39791	14.64606	35.80148	-52.07488	33.36047	-56.14323	0	-12.20505	3.25468	4.06835	0
150	13.01872	-43.93818	-56.9569	14.64606	33.36047	-49.63387	33.36047	-56.14323	4.88202	-9.76404	3.25468	6.50936	0
151	13.01872	-48.8202	-61.83892	17.90074	35.80148	-54.51589	33.36047	-53.70222	7.32303	-9.76404	5.69569	8.95037	0
152	15.45973	-51.26121	-66.72094	17.90074	40.6835	-59.39791	36.61515	-51.26121	9.76404	-9.76404	3.25468	8.95037	0
153	17.90074	-48.8202	-66.72094	14.64606	40.6835	-56.9569	39.05616	-51.26121	9.76404	-9.76404	3.25468	8.95037	0
154	15.45973	-48.8202	-64.27993	14.64606	38.24249	-56.9569	36.61515	-51.26121	9.76404	-9.76404	0.81367	8.95037	0
155	15.45973	-48.8202	-64.27993	14.64606	38.24249	-56.9569	39.05616	-51.26121	9.76404	-12.20505	-1.62734	8.95037	0
156	13.01872	-48.8202	-61.83892	17.90074	35.80148	-54.51589	39.05616	-51.26121	12.20505	-12.20505	-1.62734	8.95037	0
157	10.57771	-51.26121	-61.83892	20.34175	35.80148	-56.9569	41.49717	-51.26121	14.64606	-14.64606	-1.62734	8.95037	0
158	8.1367	-51.26121	-59.39791	20.34175	33.36047	-54.51589	41.49717	-51.26121	17.08707	-14.64606	-1.62734	8.95037	0
159	8.1367	-53.70222	-61.83892	22.78276	33.36047	-56.9569	43.93818	-51.26121	21.96909	-14.64606	-4.06835	8.95037	0
160	8.1367	-51.26121	-59.39791	20.34175	33.36047	-54.51589	46.37919	-51.26121	26.85111	-14.64606	-1.62734	8.95037	0
161	8.1367	-48.8202	-56.9569	20.34175	30.91946	-52.07488	51.26121	-48.8202	29.29212	-14.64606	-1.62734	11.39138	0
162	10.57771	-51.26121	-61.83892	20.34175	35.80148	-56.9569	56.14323	-46.37919	31.73313	-14.64606	-4.06835	8.95037	0
163	13.01872	-51.26121	-64.27993	17.90074	38.24249	-56.9569	58.58424	-41.49717	34.17414	-12.20505	-6.50936	6.50936	0
164	15.45973	-48.8202	-64.27993	14.64606	38.24249	-56.9569	63.46626	-41.49717	36.61515	-12.20505	-6.50936	6.50936	0
165	20.34175	-46.37919	-66.72094	12.20505	43.12451	-56.9569	63.46626	-41.49717	39.05616	-9.76404	-8.95037	6.50936	0
166	20.34175	-46.37919	-66.72094	12.20505	43.12451	-56.9569	65.90727	-41.49717	41.49717	-9.76404	-8.95037	4.06835	0
167	20.34175	-43.93818	-64.27993	12.20505	40.6835	-54.51589	65.90727	-43.93818	41.49717	-9.76404	-8.95037	1.62734	0
168	20.34175	-46.37919	-66.72094	12.20505	43.12451	-56.9569	68.34828	-43.93818	43.93818	-7.32303	-11.39138	1.62734	0
169	17.90074	-48.8202	-66.72094	14.64606	40.6835	-56.9569	73.2303	-43.93818	48.8202	-7.32303	-13.83239	-3.25468	0
170	17.90074	-48.8202	-66.72094	14.64606	40.6835	-56.9569	78.11232	-43.93818	51.26121	-7.32303	-13.83239	-3.25468	0
171	15.45973	-48.8202	-64.27993	14.64606	38.24249	-56.9569	82.99434	-43.93818	56.14323	-9.76404	-13.83239	-5.69569	0
172	15.45973	-51.26121	-66.72094	17.90074	40.6835	-59.39791	87.87636	-41.49717	56.14323	-9.76404	-18.71441	-8.1367	0
173	13.01872	-53.70222	-66.72094	20.34175	38.24249	-59.39791	92.75838	-39.05616	58.58424	-9.76404	-21.15542	-15.45973	0
174	10.57771	-58.58424	-69.16195	22.78276	38.24249	-64.27993	97.6404	-36.61515	58.58424	-14.64606	-26.03744	-20.34175	0
175	8.1367	-61.02525	-69.16195	25.22377	38.24249	-64.27993	102.52242	-36.61515	56.14323	-14.64606	-30.91946	-25.22377	0
176	8.1367	-61.02525	-69.16195	25.22377	38.24249	-64.27993	104.96343	-36.61515	56.14323	-14.64606	-35.80148	-27.66478	0
177	8.1367	-61.02525	-69.16195	25.22377	38.24249	-64.27993	107.40444	-36.61515	53.70222	-17.08707	-38.24249	-32.5468	0
178	8.1367	-58.58424	-66.72094	25.22377	35.80148	-61.83892	107.40444	-36.61515	53.70222	-19.52808	-40.6835	-32.5468	0
179	8.1367	-58.58424	-66.72094	25.22377	35.80148	-61.83892	109.84545	-36.61515	53.70222	-21.96909	-45.56552	-34.98781	0
180	8.1367	-61.02525	-69.16195	25.22377	38.24249	-64.27993	112.28646	-36.61515	51.26121	-26.85111	-50.44754	-39.86983	0
181	8.1367	-61.02525	-69.16195	25.22377	38.24249	-64.27993	114.72747	-36.61515	43.93818	-34.17414	-57.77057	-44.75185	0
182	8.1367	-61.02525	-69.16195	25.22377	38.24249	-64.27993	117.16848	-36.61515	34.17414	-41.49717	-65.90727	-52.88855	0
183	8.1367	-61.02525	-69.16195	25.22377	38.24249	-64.27993	119.60949	-36.61515	24.4101	-47.19286	-73.2303	-57.77057	0
184	8.1367	-63.46626	-71.60296	27.66478	38.24249	-66.72094	124.49151	-36.61515	12.20505	-49.63387	-80.55333	-65.0936	0
185	5.69569	-63.46626	-69.16195	27.66478	35.80148	-66.72094	124.49151	-36.61515	-4.88202	-56.9569	-90.31737	-74.85764	0
186	3.25468	-65.90727	-69.16195	30.10579	35.80148	-66.72094	124.49151	-39.05616	-22.78276	-61.83892	-100.08141	-84.62168	0
187	-4.88202	-70.78929	-66.72094	37.42882	30.91946	-69.16195	122.0505	-43.93818	-39.86983	-66.72094	-107.40444	-94.38572	0
188	-4.88202	-70.78929	-66.72094	37.42882	30.91946	-69.16195	122.0505	-48.8202	-56.9569	-69.16195	-114.72747	-101.70875	0
189	-4.88202	-70.78929	-66.72094	37.42882	30.91946	-69.16195	122.0505	-48.8202	-69.16195	-76.48498	-122.0505	-109.03178	0
190	-4.88202	-70.78929	-66.72094	37.42882	30.91946	-69.16195	122.0505	-51.26121	-81.367	-81.367	-129.37353	-116.35481	0
191	-9.76404	-73.2303	-64.27993	39.86983	26.03744	-69.16195	122.0505	-53.70222	-93.57205	-86.24902	-136.69656	-123.67784	0
192	-12.20505	-73.2303	-61.83892	42.31084	23.59643	-69.16195	122.0505	-58.58424	-103.33609	-93.57205	-148.90161	-133.44188	0
193	-12.20505	-73.2303	-61.83892	42.31084	23.59643	-69.16195	119.60949	-61.02525	-110.65912	-98.45407	-158.66565	-143.20592	0
194	-14.64606	-73.2303	-59.39791	42.31084	21.15542	-66.72094	119.60949	-63.46626	-115.54114	-105.7771	-168.42969	-152.96996	0
195	-12.20505	-70.78929	-59.39791	39.86983	23.59643	-66.72094	119.60949	-63.46626	-122.86417	-110.65912	-178.19373	-162.734	0
196	-9.76404	-68.34828	-59.39791	37.42882	23.59643	-64.27993	117.16848	-68.34828	-127.74619	-115.54114	-187.95777	-172.49804	0
197	-12.20505	-65.90727	-54.51589	37.42882	21.15542	-61.83892	114.72747	-73.2303	-132.62821	-120.42316	-195.2808	-182.26208	0
198	-14.64606	-65.90727	-52.07488	39.86983	18.71441	-59.39791	107.40444	-78.11232	-139.95124	-127.74619	-205.04484	-189.58511	0
199	-17.08707	-68.34828	-52.07488	42.31084	16.2734	-61.83892	104.96343	-82.99434	-142.39225	-135.06922	-212.36787	-196.90814	0
200	-19.52808	-68.34828	-49.63387	42.31084	13.83239	-59.39791	102.52242	-85.43535	-144.83326	-137.51023	-219.6909	-201.79016	0
201	-19.52808	-68.34828	-49.63387	42.31084	13.83239	-59.39791	102.52242	-87.87636	-149.71528	-142.39225	-224.57292	-206.67218	0
202	-19.52808	-70.78929	-52.07488	44.75185	16.2734	-61.83892	102.52242	-90.31737	-157.03831	-149.71528	-234.33696	-213.99521	0
203	-19.52808	-73.2303	-54.51589	44.75185	16.2734	-64.27993	100.08141	-92.75838	-161.92033	-154.5973	-241.65999	-221.31824	0
204	-21.96909	-75.67131	-54.51589	47.19286	16.2734	-66.72094	100.08141	-95.19939	-164.36134	-159.47932	-248.98302	-226.20026	0
205	-21.96909	-75.67131	-54.51589	47.19286	16.2734	-66.72094	97.6404	-100.08141	-169.24336	-161.92033	-253.86504	-233.52329	0
206	-21.96909	-73.2303	-52.07488	47.19286	13.83239	-64.27993	95.19939	-104.96343	-171.68437	-164.36134	-256.30605	-235.9643	0
207	-19.52808	-70.78929	-52.07488	44.75185	16.2734	-61.83892	92.75838	-109.84545	-174.12538	-164.36134	-258.74706	-240.84632	0
208	-19.52808	-65.90727	-47.19286	42.31084	13.83239	-56.9569	90.31737	-114.72747	-171.68437	-161.92033	-258.74706	-243.28733	0
209	-19.52808	-61.02525	-42.31084	39.86983	11.39138	-52.07488	85.43535	-119.60949	-166.80235	-161.92033	-258.74706	-245.72834	0
210	-19.52808	-53.70222	-34.98781	34.98781	5.69569	-44.75185	85.43535	-122.0505	-164.36134	-161.92033	-256.30605	-245.72834	0
211	-19.52808	-48.8202	-30.10579	32.5468	3.25468	-39.86983	85.43535	-122.0505	-159.47932	-157.03831	-253.86504	-245.72834	0
212	-14.64606	-41.49717	-27.66478	27.66478	5.69569	-34.98781	87.87636	-119.60949	-152.15629	-149.71528	-246.54201	-240.84632	0
213	-14.64606	-36.61515	-22.78276	25.22377	3.25468	-30.10579	90.31737	-119.60949	-149.71528	-142.39225	-241.65999	-238.40531	0
214	-14.64606	-34.17414	-19.52808	22.78276	0.81367	-27.66478	90.31737	-117.16848	-144.83326	-137.51023	-234.33696	-233.52329	0
215	-14.64606	-34.17414	-19.52808	22.78276	0.81367	-27.66478	90.31737	-117.16848	-142.39225	-130.1872	-227.01393	-226.20026	0
216	-14.64606	-31.73313	-17.08707	22.78276	0.81367	-25.22377	90.31737	-114.72747	-139.95124	-122.86417	-217.24989	-218.87723	0
217	-12.20505	-26.85111	-14.64606	17.90074	0.81367	-21.96909	92.75838	-114.72747	-135.06922	-113.10013	-207.48585	-209.11319	0
218	-9.76404	-26.85111	-17.08707	17.90074	3.25468	-21.96909	95.19939	-112.28646	-130.1872	-105.7771	-195.2808	-199.34915	0
219	-7.32303	-21.15542	-14.64606	14.64606	3.25468	-19.52808	95.19939	-109.84545	-122.86417	-96.01306	-185.51676	-189.58511	0
220	-7.32303	-18.71441	-12.20505	12.20505	3.25468	-17.08707	97.6404	-109.84545	-120.42316	-91.13104	-175.75272	-179.82107	0
221	-7.32303	-16.2734	-9.76404	12.20505	0.81367	-14.64606	97.6404	-109.84545	-117.98215	-86.24902	-165.98868	-172.49804	0
222	-7.32303	-13.83239	-7.32303	9.76404	0.81367	-12.20505	102.52242	-104.96343	-115.54114	-78.92599	-158.66565	-162.734	0
223	-7.32303	-8.95037	-2.44101	7.32303	-1.62734	-7.32303	107.40444	-100.08141	-110.65912	-71.60296	-148.90161	-152.96996	0
224	-7.32303	-4.06835	2.44101	4.88202	-4.06835	-2.44101	112.28646	-97.6404	-108.21811	-66.72094	-141.57858	-145.64693	0
225	-4.88202	-1.62734	2.44101	2.44101	-4.06835	0	114.72747	-97.6404	-108.21811	-61.83892	-136.69656	-138.3239	0
226	-4.88202	0.81367	4.88202	2.44101	-4.06835	2.44101	117.16848	-95.19939	-105.7771	-54.51589	-129.37353	-128.55986	0
227	-4.88202	0.81367	4.88202	2.44101	-4.06835	2.44101	117.16848	-95.19939	-105.7771	-49.63387	-122.0505	-121.23683	0
228	-4.88202	0.81367	4.88202	2.44101	-4.06835	2.44101	122.0505	-95.19939	-103.33609	-47.19286	-114.72747	-111.47279	0
229	-4.88202	3.25468	7.32303	0	-6.50936	4.88202	126.93252	-92.75838	-98.45407	-43.93818	-109.84545	-101.70875	0
230	-4.88202	5.69569	9.76404	0	-6.50936	7.32303	126.93252	-92.75838	-96.01306	-41.49717	-104.96343	-91.94471	0
231	-4.88202	3.25468	7.32303	0	-6.50936	4.88202	126.93252	-92.75838	-96.01306	-41.49717	-102.52242	-84.62168	0
232	-4.88202	0.81367	4.88202	2.44101	-4.06835	2.44101	129.37353	-90.31737	-96.01306	-41.49717	-100.08141	-79.73966	0
233	-1.62734	3.25468	4.88202	0	-4.06835	4.88202	131.81454	-87.87636	-93.57205	-39.05616	-97.6404	-74.85764	0
234	-1.62734	3.25468	4.88202	0	-4.06835	4.88202	134.25555	-87.87636	-93.57205	-36.61515	-95.19939	-69.97562	0
235	-1.62734	3.25468	4.88202	0	-4.06835	4.88202	134.25555	-87.87636	-93.57205	-34.17414	-92.75838	-65.0936	0
236	0.81367	3.25468	2.44101	-2.44101	-1.62734	2.44101	134.25555	-87.87636	-93.57205	-29.29212	-87.87636	-60.21158	0
237	0.81367	3.25468	2.44101	-2.44101	-1.62734	2.44101	134.25555	-87.87636	-91.13104	-26.85111	-82.99434	-55.32956	0
238	0.81367	3.25468	2.44101	-2.44101	-1.62734	2.44101	134.25555	-87.87636	-88.69003	-24.4101	-78.11232	-52.88855	0
239	3.25468	8.1367	4.88202	-4.88202	-1.62734	7.32303	134.25555	-87.87636	-83.80801	-24.4101	-75.67131	-49.63387	0
240	0.81367	8.1367	7.32303	-4.88202	-4.06835	7.32303	134.25555	-90.31737	-81.367	-24.4101	-70.78929	-47.19286	0
241	-1.62734	5.69569	7.32303	-2.44101	-4.06835	7.32303	134.25555	-87.87636	-78.92599	-24.4101	-68.34828	-44.75185	0
242	-1.62734	5.69569	7.32303	-2.44101	-4.06835	7.32303	136.69656	-85.43535	-76.48498	-24.4101	-68.34828	-44.75185	0
243	-4.88202	3.25468	7.32303	0	-6.50936	4.88202	136.69656	-85.43535	-76.48498	-24.4101	-65.90727	-44.75185	0
244	-4.88202	0.81367	4.88202	2.44101	-4.06835	2.44101	136.69656	-82.99434	-74.04397	-24.4101	-65.90727	-44.75185	0
245	-4.88202	3.25468	7.32303	0	-6.50936	4.88202	136.69656	-82.99434	-74.04397	-24.4101	-65.90727	-44.75185	0
246	-4.88202	5.69569	9.76404	0	-6.50936	7.32303	134.25555	-85.43535	-74.04397	-21.96909	-65.90727	-44.75185	0
247	-4.88202	5.69569	9.76404	0	-6.50936	7.32303	134.25555	-85.43535	-74.04397	-19.52808	-65.90727	-42.31084	0
248	-4.88202	8.1367	12.20505	-2.44101	-8.95037	9.76404	134.25555	-85.43535	-69.16195	-17.08707	-61.02525	-39.86983	0
249	-1.62734	13.01872	14.64606	-4.88202	-8.95037	14.64606	131.81454	-90.31737	-64.27993	-17.08707	-61.02525	-34.98781	0
250	-1.62734	17.90074	19.52808	-7.32303	-11.39138	19.52808	131.81454	-90.31737	-64.27993	-14.64606	-55.32956	-32.5468	0
251	-1.62734	20.34175	21.96909	-9.76404	-11.39138	21.96909	134.25555	-90.31737	-59.39791	-14.64606	-50.44754	-30.10579	0
252	0.81367	22.78276	21.96909	-12.20505	-11.39138	21.96909	134.25555	-90.31737	-59.39791	-14.64606	-50.44754	-27.66478	0
253	-1.62734	22.78276	24.4101	-9.76404	-13.83239	24.4101	134.25555	-90.31737	-59.39791	-17.08707	-50.44754	-30.10579	0
254	-1.62734	22.78276	24.4101	-9.76404	-13.83239	24.4101	134.25555	-90.31737	-59.39791	-17.08707	-50.44754	-30.10579	0
255	0.81367	25.22377	24.4101	-12.20505	-11.39138	24.4101	134.25555	-90.31737	-59.39791	-17.08707	-48.00653	-30.10579	0
256	0.81367	25.22377	24.4101	-12.20505	-11.39138	24.4101	131.81454	-90.31737	-56.9569	-12.20505	-45.56552	-30.10579	0
257	0.81367	25.22377	24.4101	-12.20505	-11.39138	24.4101	131.81454	-90.31737	-56.9569	-12.20505	-45.56552	-30.10579	0
258	3.25468	25.22377	21.96909	-14.64606	-8.95037	24.4101	129.37353	-95.19939	-54.51589	-12.20505	-43.12451	-27.66478	0
259	5.69569	25.22377	19.52808	-14.64606	-6.50936	21.96909	126.93252	-95.19939	-49.63387	-12.20505	-40.6835	-25.22377	0
260	3.25468	22.78276	19.52808	-12.20505	-8.95037	21.96909	126.93252	-97.6404	-49.63387	-12.20505	-35.80148	-22.78276	0
261	3.25468	22.78276	19.52808	-12.20505	-8.95037	21.96909	129.37353	-95.19939	-47.19286	-7.32303	-33.36047	-17.90074	0
262	5.69569	17.90074	12.20505	-12.20505	-4.06835	14.64606	131.81454	-92.75838	-44.75185	-4.88202	-30.91946	-15.45973	0
263	0.81367	15.45973	14.64606	-7.32303	-6.50936	14.64606	134.25555	-92.75838	-44.75185	-4.88202	-28.47845	-13.01872	0
264	0.81367	13.01872	12.20505	-7.32303	-6.50936	12.20505	136.69656	-90.31737	-44.75185	-7.32303	-30.91946	-13.01872	0
265	-1.62734	10.57771	12.20505	-4.88202	-6.50936	12.20505	136.69656	-90.31737	-49.63387	-7.32303	-30.91946	-13.01872	0
266	-1.62734	10.57771	12.20505	-4.88202	-6.50936	12.20505	134.25555	-90.31737	-49.63387	-4.88202	-30.91946	-10.57771	0
267	-4.88202	8.1367	12.20505	-2.44101	-8.95037	9.76404	134.25555	-90.31737	-49.63387	-2.44101	-28.47845	-8.1367	0
268	-4.88202	5.69569	9.76404	0	-6.50936	7.32303	134.25555	-92.75838	-47.19286	-2.44101	-26.03744	-8.1367	0
269	-4.88202	8.1367	12.20505	-2.44101	-8.95037	9.76404	134.25555	-92.75838	-42.31084	-2.44101	-26.03744	-8.1367	0
270	-7.32303	10.57771	17.08707	-2.44101	-11.39138	12.20505	134.25555	-95.19939	-39.86983	-2.44101	-23.59643	-8.1367	0
271	-7.32303	13.01872	19.52808	-2.44101	-13.83239	14.64606	134.25555	-95.19939	-37.42882	-2.44101	-23.59643	-5.69569	0
272	-7.32303	15.45973	21.96909	-4.88202	-13.83239	17.08707	134.25555	-95.19939	-34.98781	-2.44101	-23.59643	-5.69569	0
273	-4.88202	22.78276	26.85111	-9.76404	-16.2734	24.4101	139.13757	-90.31737	-30.10579	2.44101	-21.15542	-5.69569	0
274	-4.88202	25.22377	29.29212	-9.76404	-16.2734	26.85111	139.13757	-90.31737	-25.22377	2.44101	-21.15542	-8.1367	0
275	-4.88202	30.10579	34.17414	-12.20505	-18.71441	31.73313	144.01959	-85.43535	-22.78276	2.44101	-21.15542	-10.57771	0
276	-1.62734	34.98781	36.61515	-17.08707	-18.71441	36.61515	148.90161	-82.99434	-17.90074	7.32303	-18.71441	-10.57771	0
277	3.25468	42.31084	39.05616	-21.96909	-18.71441	41.49717	153.78363	-82.99434	-15.45973	9.76404	-18.71441	-10.57771	0
278	3.25468	47.19286	43.93818	-24.4101	-21.15542	46.37919	156.22464	-80.55333	-10.57771	12.20505	-16.2734	-10.57771	0
279	3.25468	49.63387	46.37919	-26.85111	-21.15542	48.8202	161.10666	-78.11232	-4.88202	12.20505	-13.83239	-8.1367	0
280	5.69569	54.51589	48.8202	-29.29212	-21.15542	51.26121	165.98868	-73.2303	2.44101	14.64606	-8.95037	-5.69569	0
281	3.25468	54.51589	51.26121	-29.29212	-23.59643	53.70222	170.8707	-70.78929	7.32303	14.64606	-8.95037	-3.25468	0
282	3.25468	54.51589	51.26121	-29.29212	-23.59643	53.70222	180.63474	-63.46626	9.76404	17.08707	-8.95037	1.62734	0
283	3.25468	59.39791	56.14323	-31.73313	-26.03744	58.58424	185.51676	-58.58424	17.08707	21.96909	-4.06835	4.06835	0
284	5.69569	59.39791	53.70222	-31.73313	-23.59643	56.14323	187.95777	-58.58424	19.52808	24.4101	-1.62734	6.50936	0
285	3.25468	59.39791	56.14323	-31.73313	-26.03744	58.58424	187.95777	-58.58424	19.52808	24.4101	-1.62734	6.50936	0
286	3.25468	64.27993	61.02525	-34.17414	-28.47845	63.46626	187.95777	-56.14323	19.52808	29.29212	-1.62734	8.95037	0
287	8.1367	69.16195	61.02525	-39.05616	-26.03744	65.90727	183.07575	-58.58424	21.96909	31.73313	0.81367	11.39138	0
288	13.01872	71.60296	58.58424	-41.49717	-23.59643	65.90727	180.63474	-58.58424	24.4101	31.73313	3.25468	13.83239	0
289	17.90074	76.48498	58.58424	-46.37919	-21.15542	68.34828	175.75272	-63.46626	29.29212	31.73313	5.69569	16.2734	0
290	22.78276	83.80801	61.02525	-53.70222	-18.71441	73.2303	170.8707	-65.90727	29.29212	34.17414	10.57771	18.71441	0
291	25.22377	88.69003	63.46626	-56.14323	-18.71441	75.67131	163.54767	-70.78929	29.29212	31.73313	10.57771	18.71441	0
292	27.66478	91.13104	63.46626	-58.58424	-18.71441	78.11232	158.66565	-75.67131	24.4101	29.29212	8.1367	16.2734	0
293	32.5468	98.45407	65.90727	-65.90727	-16.2734	82.99434	153.78363	-78.11232	24.4101	29.29212	5.69569	13.83239	0
294	32.5468	105.7771	73.2303	-68.34828	-21.15542	90.31737	144.01959	-85.43535	19.52808	26.85111	5.69569	13.83239	0
295	32.5468	108.21811	75.67131	-70.78929	-21.15542	92.75838	136.69656	-92.75838	14.64606	24.4101	5.69569	11.39138	0
296	32.5468	110.65912	78.11232	-70.78929	-23.59643	95.19939	126.93252	-100.08141	9.76404	24.4101	3.25468	11.39138	0
297	32.5468	113.10013	80.55333	-73.2303	-23.59643	97.6404	117.16848	-109.84545	4.88202	21.96909	3.25468	11.39138	0
298	32.5468	115.54114	82.99434	-73.2303	-26.03744	100.08141	109.84545	-117.16848	0	21.96909	3.25468	13.83239	0
299	32.5468	115.54114	82.99434	-73.2303	-26.03744	100.08141	100.08141	-126.93252	0	17.08707	0.81367	13.83239	0
300	32.5468	115.54114	82.99434	-73.2303	-26.03744	100.08141	95.19939	-131.81454	-4.88202	12.20505	0.81367	13.83239	0
301	32.5468	115.54114	82.99434	-73.2303	-26.03744	100.08141	90.31737	-136.69656	-8.1367	9.76404	0.81367	16.2734	0
302	34.98781	115.54114	80.55333	-75.67131	-23.59643	97.6404	87.87636	-136.69656	-10.57771	9.76404	3.25468	18.71441	0
303	37.42882	115.54114	78.11232	-75.67131	-21.15542	97.6404	87.87636	-139.13757	-13.01872	9.76404	5.69569	18.71441	0
304	44.75185	115.54114	70.78929	-80.55333	-13.83239	92.75838	87.87636	-139.13757	-15.45973	9.76404	8.1367	23.59643	1500	QRS+0
305	52.07488	115.54114	63.46626	-82.99434	-6.50936	90.31737	87.87636	-139.13757	-15.45973	12.20505	10.57771	23.59643	0
306	56.9569	110.65912	53.70222	-82.99434	0.81367	82.99434	82.99434	-141.57858	-17.90074	14.64606	10.57771	28.47845	0
307	61.83892	110.65912	48.8202	-85.43535	5.69569	80.55333	80.55333	-144.01959	-17.90074	17.08707	15.45973	30.91946	0
308	66.72094	108.21811	41.49717	-87.87636	13.83239	75.67131	80.55333	-144.01959	-15.45973	21.96909	20.34175	35.80148	0
309	69.16195	103.33609	34.17414	-85.43535	18.71441	68.34828	78.11232	-146.4606	-13.01872	21.96909	22.78276	40.6835	0
310	71.60296	98.45407	26.85111	-85.43535	23.59643	63.46626	78.11232	-148.90161	-13.01872	19.52808	22.78276	40.6835	0
311	69.16195	88.69003	19.52808	-78.11232	26.03744	53.70222	78.11232	-151.34262	-13.01872	14.64606	20.34175	38.24249	0
312	64.27993	78.92599	14.64606	-70.78929	26.03744	46.37919	78.11232	-153.78363	-17.90074	9.76404	13.01872	33.36047	0
313	56.9569	69.16195	12.20505	-63.46626	23.59643	41.49717	78.11232	-158.66565	-22.78276	2.44101	5.69569	26.03744	0
314	49.63387	56.9569	7.32303	-53.70222	21.15542	31.73313	78.11232	-158.66565	-27.66478	-4.88202	-1.62734	18.71441	0
315	42.31084	47.19286	4.88202	-43.93818	18.71441	26.85111	80.55333	-161.10666	-34.98781	-14.64606	-11.39138	8.95037	0
316	32.5468	34.98781	2.44101	-34.17414	16.2734	19.52808	82.99434	-163.54767	-39.86983	-21.96909	-18.71441	-0.81367	0
317	22.78276	25.22377	2.44101	-24.4101	11.39138	14.64606	82.99434	-168.42969	-47.19286	-31.73313	-28.47845	-10.57771	0
318	13.01872	15.45973	2.44101	-14.64606	5.69569	9.76404	85.43535	-168.42969	-49.63387	-36.61515	-35.80148	-17.90074	0
319	8.1367	8.1367	0	-7.32303	3.25468	4.88202	90.31737	-168.42969	-47.19286	-43.93818	-40.6835	-22.78276	0
320	3.25468	3.25468	0	-2.44101	0.81367	2.44101	95.19939	-168.42969	-47.19286	-47.19286	-45.56552	-30.10579	0
321	-1.62734	-4.06835	-2.44101	2.44101	0.81367	-2.44101	97.6404	-165.98868	-49.63387	-49.63387	-50.44754	-34.98781	0
322	-7.32303	-8.95037	-2.44101	7.32303	-1.62734	-7.32303	97.6404	-161.10666	-52.07488	-56.9569	-57.77057	-44.75185	0
323	-9.76404	-11.39138	-2.44101	9.76404	-4.06835	-7.32303	100.08141	-153.78363	-52.07488	-59.39791	-63.46626	-52.88855	0
324	-14.64606	-13.83239	0	14.64606	-6.50936	-7.32303	102.52242	-146.4606	-52.07488	-64.27993	-68.34828	-60.21158	0
325	-17.08707	-18.71441	-2.44101	17.90074	-6.50936	-12.20505	102.52242	-139.13757	-54.51589	-66.72094	-73.2303	-67.53461	0
326	-14.64606	-18.71441	-4.88202	14.64606	-4.06835	-12.20505	102.52242	-129.37353	-52.07488	-64.27993	-73.2303	-69.97562	0
327	-12.20505	-23.59643	-12.20505	17.90074	0.81367	-19.52808	102.52242	-119.60949	-52.07488	-64.27993	-73.2303	-69.97562	0
328	-14.64606	-26.85111	-12.20505	20.34175	-1.62734	-19.52808	100.08141	-112.28646	-52.07488	-64.27993	-73.2303	-72.41663	0
329	-14.64606	-29.29212	-14.64606	20.34175	-1.62734	-21.96909	100.08141	-100.08141	-47.19286	-64.27993	-70.78929	-67.53461	0
330	-12.20505	-29.29212	-17.08707	20.34175	0.81367	-25.22377	102.52242	-90.31737	-42.31084	-64.27993	-65.90727	-65.0936	0
331	-12.20505	-31.73313	-19.52808	20.34175	3.25468	-27.66478	102.52242	-80.55333	-39.86983	-61.83892	-63.46626	-60.21158	0
332	-12.20505	-36.61515	-25.22377	22.78276	5.69569	-32.5468	104.96343	-70.78929	-37.42882	-61.83892	-61.02525	-57.77057	0
333	-12.20505	-36.61515	-25.22377	22.78276	5.69569	-32.5468	107.40444	-63.46626	-34.98781	-59.39791	-57.77057	-55.32956	0
334	-12.20505	-39.05616	-27.66478	25.22377	5.69569	-34.98781	109.84545	-58.58424	-32.5468	-59.39791	-57.77057	-52.88855	0
335	-14.64606	-43.93818	-30.10579	27.66478	5.69569	-37.42882	109.84545	-56.14323	-32.5468	-59.39791	-57.77057	-52.88855	0
336	-14.64606	-43.93818	-30.10579	27.66478	5.69569	-37.42882	109.84545	-51.26121	-32.5468	-59.39791	-57.77057	-52.88855	0
337	-14.64606	-41.49717	-27.66478	27.66478	5.69569	-34.98781	107.40444	-48.8202	-30.10579	-59.39791	-57.77057	-55.32956	0
338	-14.64606	-39.05616	-25.22377	25.22377	3.25468	-32.5468	107.40444	-48.8202	-27.66478	-59.39791	-57.77057	-55.32956	0
339	-14.64606	-41.49717	-27.66478	27.66478	5.69569	-34.98781	107.40444	-43.93818	-22.78276	-59.39791	-57.77057	-55.32956	0
340	-14.64606	-39.05616	-25.22377	25.22377	3.25468	-32.5468	107.40444	-43.93818	-20.34175	-61.83892	-57.77057	-55.32956	0
341	-14.64606	-41.49717	-27.66478	27.66478	5.69569	-34.98781	107.40444	-39.05616	-15.45973	-61.83892	-57.77057	-52.88855	0
342	-14.64606	-41.49717	-27.66478	27.66478	5.69569	-34.98781	109.84545	-36.61515	-10.57771	-61.83892	-57.77057	-52.88855	0
343	-14.64606	-41.49717	-27.66478	27.66478	5.69569	-34.98781	114.72747	-30.91946	-8.1367	-61.83892	-57.77057	-57.77057	0
344	-14.64606	-41.49717	-27.66478	27.66478	5.69569	-34.98781	117.16848	-26.03744	-4.88202	-59.39791	-57.77057	-60.21158	0
345	-14.64606	-39.05616	-25.22377	25.22377	3.25468	-32.5468	119.60949	-21.15542	-2.44101	-56.9569	-55.32956	-60.21158	0
346	-14.64606	-39.05616	-25.22377	25.22377	3.25468	-32.5468	122.0505	-18.71441	0	-56.9569	-55.32956	-65.0936	0
347	-14.64606	-39.05616	-25.22377	25.22377	3.25468	-32.5468	122.0505	-16.2734	0	-54.51589	-55.32956	-67.53461	0
348	-12.20505	-39.05616	-27.66478	25.22377	5.69569	-34.98781	119.60949	-13.83239	2.44101	-54.51589	-55.32956	-67.53461	0
349	-12.20505	-41.49717	-30.10579	25.22377	8.1367	-37.42882	119.60949	-11.39138	2.44101	-54.51589	-52.88855	-67.53461	0
350	-12.20505	-41.49717	-30.10579	25.22377	8.1367	-37.42882	119.60949	-8.95037	2.44101	-54.51589	-52.88855	-67.53461	0
351	-12.20505	-39.05616	-27.66478	25.22377	5.69569	-34.98781	119.60949	-8.95037	4.88202	-54.51589	-52.88855	-67.53461	0
352	-12.20505	-41.49717	-30.10579	25.22377	8.1367	-37.42882	117.16848	-8.95037	2.44101	-56.9569	-52.88855	-67.53461	0
353	-14.64606	-43.93818	-30.10579	27.66478	5.69569	-37.42882	114.72747	-8.95037	0	-56.9569	-52.88855	-67.53461	0
354	-17.08707	-48.8202	-32.5468	32.5468	5.69569	-42.31084	114.72747	-8.95037	-2.44101	-59.39791	-52.88855	-67.53461	0
355	-17.08707	-48.8202	-32.5468	32.5468	5.69569	-42.31084	112.28646	-8.95037	-2.44101	-59.39791	-52.88855	-65.0936	0
356	-17.08707	-48.8202	-32.5468	32.5468	5.69569	-42.31084	114.72747	-6.50936	-2.44101	-54.51589	-52.88855	-62.65259	0
357	-17.08707	-43.93818	-27.66478	30.10579	3.25468	-37.42882	114.72747	-4.06835	0	-52.07488	-48.00653	-62.65259	0
358	-17.08707	-41.49717	-25.22377	27.66478	3.25468	-34.98781	114.72747	-4.06835	0	-52.07488	-48.00653	-60.21158	0
359	-14.64606	-41.49717	-27.66478	27.66478	5.69569	-34.98781	114.72747	-1.62734	2.44101	-52.07488	-45.56552	-60.21158	0
360	-12.20505	-41.49717	-30.10579	25.22377	8.1367	-37.42882	114.72747	0.81367	2.44101	-54.51589	-48.00653	-60.21158	0
361	-9.76404	-39.05616	-30.10579	22.78276	8.1367	-34.98781	114.72747	3.25468	4.88202	-54.51589	-45.56552	-60.21158	0
362	-7.32303	-36.61515	-30.10579	20.34175	11.39138	-34.98781	112.28646	5.69569	4.88202	-52.07488	-45.56552	-60.21158	0
363	-7.32303	-36.61515	-30.10579	20.34175	11.39138	-34.98781	112.28646	10.57771	4.88202	-52.07488	-45.56552	-62.65259	0
364	-9.76404	-36.61515	-27.66478	22.78276	8.1367	-32.5468	109.84545	13.01872	4.88202	-54.51589	-48.00653	-62.65259	0
365	-9.76404	-41.49717	-32.5468	25.22377	11.39138	-37.42882	109.84545	13.01872	4.88202	-54.51589	-48.00653	-65.0936	0
366	-14.64606	-46.37919	-32.5468	30.10579	8.1367	-39.86983	109.84545	13.01872	4.88202	-54.51589	-48.00653	-65.0936	0
367	-14.64606	-46.37919	-32.5468	30.10579	8.1367	-39.86983	109.84545	13.01872	4.88202	-56.9569	-48.00653	-65.0936	0
368	-14.64606	-46.37919	-32.5468	30.10579	8.1367	-39.86983	109.84545	15.45973	7.32303	-56.9569	-48.00653	-65.0936	0
369	-17.08707	-51.26121	-34.98781	32.5468	8.1367	-44.75185	109.84545	15.45973	9.76404	-54.51589	-45.56552	-62.65259	0
370	-17.08707	-53.70222	-37.42882	34.98781	8.1367	-47.19286	109.84545	15.45973	9.76404	-56.9569	-48.00653	-65.0936	0
371	-17.08707	-58.58424	-42.31084	37.42882	11.39138	-52.07488	104.96343	15.45973	7.32303	-61.83892	-50.44754	-67.53461	0
372	-14.64606	-63.46626	-49.63387	37.42882	16.2734	-56.9569	104.96343	13.01872	4.88202	-66.72094	-55.32956	-72.41663	0
373	-14.64606	-65.90727	-52.07488	39.86983	18.71441	-59.39791	102.52242	13.01872	2.44101	-69.16195	-57.77057	-77.29865	0
374	-9.76404	-68.34828	-59.39791	37.42882	23.59643	-64.27993	97.6404	10.57771	0	-71.60296	-61.02525	-82.18067	0
375	-9.76404	-68.34828	-59.39791	37.42882	23.59643	-64.27993	90.31737	10.57771	-2.44101	-74.04397	-65.90727	-89.5037	0
376	-7.32303	-70.78929	-64.27993	37.42882	28.47845	-69.16195	85.43535	8.1367	-4.88202	-76.48498	-78.11232	-99.26774	0
377	-7.32303	-78.11232	-71.60296	42.31084	30.91946	-76.48498	80.55333	8.1367	-8.1367	-81.367	-68.34828	-106.59077	0
378	-7.32303	-87.87636	-81.367	47.19286	35.80148	-86.24902	75.67131	8.1367	-8.1367	-91.13104	-75.67131	-104.14976	0
379	-4.88202	-100.08141	-96.01306	52.07488	45.56552	-98.45407	75.67131	10.57771	-10.57771	-100.89508	-112.28646	-143.20592	0
380	-1.62734	-112.28646	-110.65912	56.9569	52.88855	-110.65912	75.67131	15.45973	-8.1367	-110.65912	-129.37353	-162.734	0
381	-4.88202	-119.60949	-115.54114	61.83892	55.32956	-117.98215	73.2303	17.90074	-10.57771	-127.74619	-153.78363	-192.02612	0
382	-12.20505	-158.66565	-147.27427	83.80801	67.53461	-154.5973	80.55333	17.90074	-20.34175	-152.15629	-190.39878	-228.64127	0
383	13.01872	-180.63474	-193.65346	83.80801	101.70875	-186.33043	78.11232	15.45973	-30.10579	-179.0074	-227.01393	-267.69743	0
384	25.22377	-197.72181	-222.94558	86.24902	123.67784	-210.74053	78.11232	5.69569	-47.19286	-208.29952	-236.77797	-289.66652	0
385	13.01872	-248.98302	-262.00174	117.98215	135.88289	-254.67871	33.36047	-11.39138	-52.07488	-242.47366	-317.3313	-362.89682	0
386	-29.29212	-263.62908	-235.15063	144.83326	101.70875	-249.79669	4.06835	5.69569	-83.80801	-305.93992	-390.5616	-433.68611	0
387	-26.85111	-258.74706	-232.70962	142.39225	101.70875	-247.35568	-3.25468	-48.8202	-110.65912	-305.93992	-390.5616	-438.56813	0
388	5.69569	-212.36787	-218.06356	103.33609	111.47279	-215.62255	-56.9569	-97.6404	-137.51023	-315.70396	-385.67958	-411.71702	0
389	30.10579	-126.93252	-157.03831	47.19286	91.94471	-142.39225	-110.65912	-139.13757	-135.06922	-288.85285	-351.50544	-360.45581	0
390	88.69003	17.90074	-71.60296	-53.70222	79.73966	-27.66478	-188.77144	-200.16282	-144.83326	-257.11972	-292.9212	-279.90248	0
391	132.62821	196.09447	63.46626	-163.54767	35.80148	129.37353	-208.29952	-209.92686	-98.45407	-198.53548	-219.6909	-189.58511	0
392	181.44841	357.20113	175.75272	-268.5111	3.25468	266.07009	-227.8276	-202.60383	-42.31084	-108.21811	-119.60949	-79.73966	0
393	205.85851	401.13931	195.2808	-302.68524	5.69569	297.80322	-286.41184	-236.77797	-42.31084	-78.92599	-95.19939	-34.98781	0
394	218.06356	486.57466	268.5111	-351.50544	-26.03744	378.35655	-205.85851	37.42882	82.99434	75.67131	54.51589	74.85764	0
395	210.74053	598.86112	388.12059	-405.20766	-89.5037	493.08402	28.47845	130.1872	363.71049	366.1515	327.90901	294.54854	0
396	196.09447	750.20374	554.10927	-473.55594	-179.82107	651.74967	102.52242	318.14497	585.8424	602.92947	554.92294	482.50631	0
397	154.5973	884.45929	729.86199	-519.93513	-287.22551	807.97431	275.83413	442.63648	759.15411	810.41532	755.08576	628.96691	0
398	108.21811	940.60252	832.38441	-524.81715	-362.89682	886.08663	353.94645	508.54375	859.23552	951.9939	903.98737	755.89943	0
399	96.01306	967.45363	871.44057	-532.14018	-387.30692	920.26077	432.05877	591.53809	978.84501	1122.8646	1069.97605	870.6269	0
400	105.7771	994.30474	888.52764	-549.22725	-392.18894	942.22986	444.26382	623.27122	1044.75228	1271.76621	1248.16978	1007.32346	0
401	113.10013	996.74575	883.64562	-554.10927	-384.86591	939.78885	383.23857	550.04092	981.28602	1288.85328	1316.51806	1078.11275	0
402	91.13104	986.98171	895.85067	-539.46321	-401.95298	942.22986	263.62908	381.61123	829.9434	1254.67914	1353.13321	1129.37396	0
403	120.42316	945.48454	825.06138	-532.14018	-353.13278	886.08663	144.01959	235.15063	722.53896	1291.29429	1453.21462	1241.66042	0
404	176.56639	869.81323	693.24684	-522.37614	-257.93339	781.1232	173.31171	247.35568	600.48846	1305.94035	1533.76795	1302.68567	0
405	174.12538	745.32172	571.19634	-458.90988	-199.34915	659.0727	148.90161	193.65346	546.78624	1308.38136	1577.70613	1356.38789	0
406	191.21245	655.00435	463.7919	-422.29473	-135.88289	558.99129	131.81454	144.83326	522.37614	1291.29429	1585.02916	1371.03395	-1500	QRS-0
407	191.21245	552.48193	361.26948	-371.03352	-84.62168	456.46887	122.0505	91.13104	463.7919	1200.97692	1516.68088	1305.12668	0
408	186.33043	384.05224	197.72181	-285.59817	-6.50936	290.48019	122.0505	137.51023	439.3818	1125.30561	1445.89159	1253.86547	0
409	161.92033	279.08881	117.16848	-219.6909	23.59643	197.72181	129.37353	157.03831	373.47453	981.28602	1314.07705	1168.43012	0
410	132.62821	208.29952	75.67131	-170.8707	28.47845	141.57858	134.25555	71.60296	202.60383	746.94906	1116.35524	1056.14366	0
411	120.42316	159.47932	39.05616	-139.13757	40.6835	100.08141	136.69656	3.25468	70.78929	532.14018	921.07444	921.88811	0
412	93.57205	76.48498	-17.08707	-85.43535	55.32956	29.29212	136.69656	-41.49717	-20.34175	380.79756	757.52677	802.27862	0
413	81.367	-11.39138	-93.57205	-34.17414	87.06269	-52.07488	124.49151	-43.93818	-66.72094	268.5111	618.3892	699.7562	0
414	66.72094	-68.34828	-135.06922	0	99.26774	-100.89508	112.28646	-1.62734	-110.65912	161.10666	474.36961	558.17762	0
415	59.39791	-95.19939	-154.5973	17.90074	106.59077	-125.30518	107.40444	5.69569	-142.39225	53.70222	315.70396	433.68611	0
416	56.9569	-104.96343	-161.92033	22.78276	109.03178	-132.62821	104.96343	22.78276	-132.62821	24.4101	274.20679	397.07096	0
417	66.72094	-97.6404	-164.36134	14.64606	113.9138	-130.1872	104.96343	42.31084	-61.83892	58.58424	276.6478	370.21985	0
418	76.48498	-82.99434	-159.47932	2.44101	116.35481	-120.42316	107.40444	64.27993	19.52808	109.84545	291.29386	358.0148	0
419	56.9569	-75.67131	-132.62821	9.76404	94.38572	-103.33609	112.28646	83.80801	78.11232	144.01959	291.29386	314.07662	0
420	44.75185	-65.90727	-110.65912	9.76404	77.29865	-88.69003	117.16848	103.33609	36.61515	139.13757	257.11972	265.25642	0
421	42.31084	-58.58424	-100.89508	7.32303	69.97562	-78.92599	117.16848	117.98215	58.58424	102.52242	215.62255	209.11319	0
422	34.98781	-56.14323	-91.13104	9.76404	62.65259	-74.04397	117.16848	125.30518	65.90727	78.11232	157.03831	152.96996	0
423	25.22377	-53.70222	-78.92599	14.64606	50.44754	-66.72094	112.28646	125.30518	65.90727	58.58424	96.01306	89.5037	0
424	22.78276	-51.26121	-74.04397	14.64606	48.00653	-61.83892	107.40444	120.42316	58.58424	39.05616	64.27993	40.6835	0
425	17.90074	-51.26121	-69.16195	14.64606	43.12451	-59.39791	104.96343	115.54114	53.70222	21.96909	64.27993	21.15542	0
426	15.45973	-51.26121	-66.72094	17.90074	40.6835	-59.39791	100.08141	108.21811	46.37919	4.88202	39.86983	-17.90074	0
427	13.01872	-53.70222	-66.72094	20.34175	38.24249	-59.39791	97.6404	103.33609	41.49717	-7.32303	22.78276	-30.10579	0
428	13.01872	-53.70222	-66.72094	20.34175	38.24249	-59.39791	92.75838	98.45407	36.61515	-17.08707	10.57771	-22.78276	0
429	8.1367	-56.14323	-64.27993	22.78276	35.80148	-59.39791	87.87636	93.57205	34.17414	-21.96909	-8.95037	-30.10579	0
430	8.1367	-56.14323	-64.27993	22.78276	35.80148	-59.39791	87.87636	91.13104	31.73313	-26.85111	3.25468	-22.78276	0
431	8.1367	-56.14323	-64.27993	22.78276	35.80148	-59.39791	87.87636	91.13104	31.73313	-31.73313	0.81367	-30.10579	0
432	8.1367	-53.70222	-61.83892	22.78276	33.36047	-56.9569	87.87636	91.13104	29.29212	-34.17414	0.81367	-30.10579	0
433	8.1367	-53.70222	-61.83892	22.78276	33.36047	-56.9569	87.87636	91.13104	29.29212	-34.17414	-1.62734	-30.10579	0
434	8.1367	-53.70222	-61.83892	22.78276	33.36047	-56.9569	90.31737	93.57205	31.73313	-31.73313	0.81367	-27.66478	0
435	8.1367	-53.70222	-61.83892	22.78276	33.36047	-56.9569	90.31737	93.57205	29.29212	-31.73313	0.81367	-27.66478	0
436	8.1367	-51.26121	-59.39791	20.34175	33.36047	-54.51589	90.31737	93.57205	29.29212	-34.17414	-1.62734	-30.10579	0
437	8.1367	-53.70222	-61.83892	22.78276	33.36047	-56.9569	92.75838	93.57205	26.85111	-36.61515	-4.06835	-30.10579	0
438	8.1367	-53.70222	-61.83892	22.78276	33.36047	-56.9569	95.19939	93.57205	24.4101	-41.49717	-4.06835	-30.10579	0
439	5.69569	-56.14323	-61.83892	25.22377	33.36047	-59.39791	95.19939	91.13104	24.4101	-41.49717	-6.50936	-30.10579	0
440	0.81367	-61.02525	-61.83892	30.10579	30.91946	-61.83892	95.19939	91.13104	21.96909	-41.49717	-6.50936	-30.10579	0
441	-4.88202	-63.46626	-59.39791	32.5468	26.03744	-61.83892	95.19939	88.69003	19.52808	-43.93818	-8.95037	-30.10579	0
442	-4.88202	-63.46626	-59.39791	32.5468	26.03744	-61.83892	95.19939	88.69003	14.64606	-47.19286	-11.39138	-34.98781	0
443	-4.88202	-63.46626	-59.39791	32.5468	26.03744	-61.83892	92.75838	86.24902	12.20505	-49.63387	-16.2734	-39.86983	0
444	-7.32303	-61.02525	-54.51589	32.5468	23.59643	-59.39791	92.75838	86.24902	12.20505	-49.63387	-16.2734	-39.86983	0
445	-9.76404	-58.58424	-49.63387	32.5468	18.71441	-54.51589	90.31737	86.24902	14.64606	-47.19286	-13.83239	-39.86983	0
446	-9.76404	-58.58424	-49.63387	32.5468	18.71441	-54.51589	90.31737	86.24902	17.08707	-47.19286	-13.83239	-39.86983	0
447	-9.76404	-58.58424	-49.63387	32.5468	18.71441	-54.51589	90.31737	86.24902	19.52808	-47.19286	-13.83239	-39.86983	0
448	-7.32303	-58.58424	-52.07488	32.5468	21.15542	-56.9569	90.31737	88.69003	24.4101	-47.19286	-8.95037	-39.86983	0
449	-7.32303	-58.58424	-52.07488	32.5468	21.15542	-56.9569	92.75838	91.13104	29.29212	-47.19286	-8.95037	-39.86983	0
450	-9.76404	-61.02525	-52.07488	34.98781	21.15542	-56.9569	97.6404	96.01306	31.73313	-47.19286	-8.95037	-39.86983	0
451	-9.76404	-63.46626	-54.51589	34.98781	21.15542	-59.39791	97.6404	96.01306	31.73313	-47.19286	-11.39138	-42.31084	0
452	-9.76404	-65.90727	-56.9569	37.42882	23.59643	-61.83892	97.6404	96.01306	29.29212	-52.07488	-13.83239	-44.75185	0
453	-9.76404	-68.34828	-59.39791	37.42882	23.59643	-64.27993	100.08141	96.01306	24.4101	-52.07488	-16.2734	-47.19286	0
454	-9.76404	-68.34828	-59.39791	37.42882	23.59643	-64.27993	100.08141	96.01306	21.96909	-52.07488	-16.2734	-49.63387	0
455	-9.76404	-70.78929	-61.83892	39.86983	26.03744	-66.72094	97.6404	93.57205	17.08707	-54.51589	-18.71441	-49.63387	0
456	-12.20505	-68.34828	-56.9569	39.86983	21.15542	-64.27993	97.6404	91.13104	12.20505	-54.51589	-21.15542	-52.88855	0
457	-12.20505	-65.90727	-54.51589	37.42882	21.15542	-61.83892	97.6404	91.13104	9.76404	-54.51589	-21.15542	-52.88855	0
458	-12.20505	-68.34828	-56.9569	39.86983	21.15542	-64.27993	97.6404	88.69003	4.88202	-54.51589	-21.15542	-52.88855	0
459	-12.20505	-70.78929	-59.39791	39.86983	23.59643	-66.72094	97.6404	88.69003	2.44101	-54.51589	-18.71441	-49.63387	0
460	-12.20505	-70.78929	-59.39791	39.86983	23.59643	-66.72094	102.52242	93.57205	0	-54.51589	-16.2734	-47.19286	0
461	-12.20505	-73.2303	-61.83892	42.31084	23.59643	-69.16195	104.96343	96.01306	0	-54.51589	-13.83239	-42.31084	0
462	-12.20505	-73.2303	-61.83892	42.31084	23.59643	-69.16195	104.96343	96.01306	-4.88202	-54.51589	-16.2734	-42.31084	0
463	-9.76404	-75.67131	-66.72094	42.31084	28.47845	-71.60296	104.96343	96.01306	-8.1367	-54.51589	-18.71441	-42.31084	0
464	-9.76404	-75.67131	-66.72094	42.31084	28.47845	-71.60296	107.40444	98.45407	-8.1367	-54.51589	-18.71441	-42.31084	0
465	-9.76404	-78.11232	-69.16195	42.31084	28.47845	-74.04397	104.96343	98.45407	-8.1367	-52.07488	-18.71441	-42.31084	0
466	-9.76404	-78.11232	-69.16195	42.31084	28.47845	-74.04397	102.52242	98.45407	-8.1367	-52.07488	-18.71441	-42.31084	0
467	-7.32303	-75.67131	-69.16195	39.86983	30.91946	-74.04397	102.52242	98.45407	-2.44101	-54.51589	-18.71441	-44.75185	0
468	-7.32303	-75.67131	-69.16195	39.86983	30.91946	-74.04397	97.6404	96.01306	2.44101	-54.51589	-18.71441	-47.19286	0
469	-9.76404	-75.67131	-66.72094	42.31084	28.47845	-71.60296	97.6404	96.01306	7.32303	-54.51589	-21.15542	-49.63387	0
470	-9.76404	-75.67131	-66.72094	42.31084	28.47845	-71.60296	97.6404	96.01306	12.20505	-52.07488	-21.15542	-52.88855	0
471	-12.20505	-78.11232	-66.72094	44.75185	26.03744	-74.04397	100.08141	100.89508	19.52808	-49.63387	-21.15542	-55.32956	0
472	-12.20505	-82.99434	-71.60296	47.19286	28.47845	-78.92599	100.08141	103.33609	19.52808	-54.51589	-26.03744	-57.77057	0
473	-12.20505	-85.43535	-74.04397	47.19286	30.91946	-81.367	102.52242	103.33609	17.08707	-54.51589	-28.47845	-62.65259	0
474	-12.20505	-87.87636	-76.48498	49.63387	30.91946	-83.80801	104.96343	103.33609	21.96909	-54.51589	-28.47845	-65.0936	0
475	-12.20505	-87.87636	-76.48498	49.63387	30.91946	-83.80801	104.96343	103.33609	21.96909	-52.07488	-28.47845	-65.0936	0
476	-12.20505	-87.87636	-76.48498	49.63387	30.91946	-83.80801	107.40444	105.7771	21.96909	-52.07488	-28.47845	-65.0936	0
477	-12.20505	-87.87636	-76.48498	49.63387	30.91946	-83.80801	107.40444	105.7771	21.96909	-52.07488	-28.47845	-67.53461	0
478	-12.20505	-85.43535	-74.04397	47.19286	30.91946	-81.367	109.84545	105.7771	21.96909	-54.51589	-30.91946	-67.53461	0
479	-9.76404	-85.43535	-76.48498	47.19286	33.36047	-81.367	112.28646	105.7771	19.52808	-56.9569	-33.36047	-69.97562	0
480	-7.32303	-82.99434	-76.48498	44.75185	33.36047	-81.367	114.72747	105.7771	19.52808	-56.9569	-35.80148	-72.41663	0
481	-7.32303	-82.99434	-76.48498	44.75185	33.36047	-81.367	114.72747	108.21811	19.52808	-56.9569	-35.80148	-72.41663	0
482	-7.32303	-85.43535	-78.92599	44.75185	35.80148	-83.80801	117.16848	108.21811	12.20505	-56.9569	-38.24249	-77.29865	0
483	-7.32303	-85.43535	-78.92599	44.75185	35.80148	-83.80801	119.60949	113.10013	9.76404	-54.51589	-40.6835	-82.18067	0
484	-9.76404	-90.31737	-81.367	49.63387	35.80148	-86.24902	122.0505	113.10013	7.32303	-54.51589	-43.12451	-84.62168	0
485	-12.20505	-92.75838	-81.367	52.07488	33.36047	-88.69003	122.0505	113.10013	0	-54.51589	-48.00653	-89.5037	0
486	-12.20505	-95.19939	-83.80801	52.07488	35.80148	-91.13104	122.0505	110.65912	-4.88202	-56.9569	-52.88855	-94.38572	0
487	-12.20505	-97.6404	-86.24902	54.51589	35.80148	-93.57205	119.60949	108.21811	-8.1367	-61.83892	-55.32956	-96.82673	0
488	-12.20505	-102.52242	-91.13104	56.9569	38.24249	-98.45407	119.60949	105.7771	-13.01872	-66.72094	-61.02525	-99.26774	0
489	-12.20505	-102.52242	-91.13104	56.9569	38.24249	-98.45407	119.60949	105.7771	-15.45973	-69.16195	-63.46626	-104.14976	0
490	-9.76404	-100.08141	-91.13104	54.51589	40.6835	-96.01306	122.0505	105.7771	-20.34175	-71.60296	-70.78929	-111.47279	0
491	-9.76404	-100.08141	-91.13104	54.51589	40.6835	-96.01306	122.0505	105.7771	-27.66478	-81.367	-80.55333	-121.23683	0
492	-9.76404	-100.08141	-91.13104	54.51589	40.6835	-96.01306	122.0505	105.7771	-37.42882	-91.13104	-95.19939	-133.44188	0
493	-12.20505	-100.08141	-88.69003	54.51589	38.24249	-96.01306	122.0505	100.89508	-44.75185	-98.45407	-104.96343	-145.64693	0
494	-12.20505	-100.08141	-88.69003	54.51589	38.24249	-96.01306	119.60949	98.45407	-49.63387	-98.45407	-112.28646	-152.96996	0
495	-12.20505	-100.08141	-88.69003	54.51589	38.24249	-96.01306	119.60949	93.57205	-52.07488	-98.45407	-119.60949	-162.734	0
496	-12.20505	-97.6404	-86.24902	54.51589	35.80148	-93.57205	119.60949	91.13104	-54.51589	-100.89508	-124.49151	-170.05703	0
497	-14.64606	-97.6404	-83.80801	54.51589	33.36047	-91.13104	117.16848	86.24902	-59.39791	-108.21811	-134.25555	-177.38006	0
498	-17.08707	-100.08141	-83.80801	56.9569	33.36047	-93.57205	117.16848	81.367	-66.72094	-117.98215	-144.01959	-187.1441	0
499	-17.08707	-102.52242	-86.24902	59.39791	33.36047	-96.01306	117.16848	76.48498	-66.72094	-122.86417	-153.78363	-196.90814	0
500	-17.08707	-102.52242	-86.24902	59.39791	33.36047	-96.01306	117.16848	74.04397	-69.16195	-130.1872	-161.10666	-204.23117	0
501	-17.08707	-102.52242	-86.24902	59.39791	33.36047	-96.01306	117.16848	74.04397	-71.60296	-132.62821	-165.98868	-209.11319	0
502	-19.52808	-107.40444	-88.69003	61.83892	33.36047	-98.45407	117.16848	71.60296	-74.04397	-139.95124	-175.75272	-218.87723	0
503	-21.96909	-109.84545	-88.69003	64.27993	33.36047	-100.89508	117.16848	69.16195	-81.367	-149.71528	-190.39878	-233.52329	0
504	-24.4101	-112.28646	-88.69003	66.72094	30.91946	-100.89508	117.16848	64.27993	-86.24902	-157.03831	-200.16282	-245.72834	0
505	-24.4101	-109.84545	-86.24902	66.72094	30.91946	-98.45407	112.28646	59.39791	-91.13104	-161.92033	-209.92686	-255.49238	0
506	-24.4101	-109.84545	-86.24902	66.72094	30.91946	-98.45407	109.84545	54.51589	-93.57205	-166.80235	-217.24989	-265.25642	0
507	-24.4101	-107.40444	-83.80801	64.27993	28.47845	-96.01306	107.40444	47.19286	-96.01306	-169.24336	-224.57292	-275.02046	0
508	-26.85111	-107.40444	-81.367	66.72094	26.03744	-96.01306	100.08141	39.86983	-98.45407	-176.56639	-229.45494	-279.90248	0
509	-29.29212	-107.40444	-78.92599	66.72094	23.59643	-93.57205	95.19939	32.5468	-103.33609	-183.88942	-236.77797	-287.22551	0
510	-31.73313	-104.96343	-74.04397	66.72094	21.15542	-91.13104	95.19939	27.66478	-105.7771	-186.33043	-244.101	-292.10753	0
511	-31.73313	-102.52242	-71.60296	66.72094	18.71441	-88.69003	90.31737	22.78276	-110.65912	-191.21245	-248.98302	-296.98955	0
512	-29.29212	-102.52242	-74.04397	64.27993	21.15542	-88.69003	87.87636	17.90074	-113.10013	-198.53548	-253.86504	-301.87157	0
513	-31.73313	-107.40444	-76.48498	69.16195	21.15542	-93.57205	85.43535	13.01872	-120.42316	-203.4175	-261.18807	-309.1946	0
514	-34.17414	-109.84545	-76.48498	71.60296	21.15542	-93.57205	80.55333	5.69569	-125.30518	-205.85851	-268.5111	-316.51763	0
515	-34.17414	-104.96343	-71.60296	69.16195	18.71441	-88.69003	75.67131	0.81367	-127.74619	-208.29952	-270.95211	-318.95864	0
516	-34.17414	-102.52242	-69.16195	66.72094	16.2734	-86.24902	73.2303	-1.62734	-130.1872	-208.29952	-273.39312	-323.84066	0
517	-31.73313	-97.6404	-66.72094	64.27993	16.2734	-83.80801	68.34828	-6.50936	-125.30518	-205.85851	-273.39312	-323.84066	0
518	-31.73313	-95.19939	-64.27993	61.83892	16.2734	-81.367	65.90727	-11.39138	-122.86417	-200.97649	-268.5111	-321.39965	0
519	-31.73313	-90.31737	-59.39791	59.39791	13.83239	-76.48498	65.90727	-11.39138	-117.98215	-196.09447	-263.62908	-316.51763	0
520	-34.17414	-85.43535	-52.07488	59.39791	8.1367	-69.16195	68.34828	-8.95037	-110.65912	-188.77144	-258.74706	-311.63561	0
521	-34.17414	-78.11232	-44.75185	54.51589	3.25468	-61.83892	68.34828	-8.95037	-105.7771	-183.88942	-253.86504	-309.1946	0
522	-34.17414	-78.11232	-44.75185	54.51589	3.25468	-61.83892	73.2303	-4.06835	-100.89508	-181.44841	-251.42403	-301.87157	0
523	-36.61515	-75.67131	-39.86983	54.51589	0.81367	-59.39791	78.11232	-4.06835	-98.45407	-176.56639	-246.54201	-296.98955	0
524	-39.05616	-75.67131	-37.42882	56.9569	-1.62734	-56.9569	78.11232	-1.62734	-93.57205	-169.24336	-236.77797	-289.66652	0
525	-36.61515	-70.78929	-34.98781	52.07488	-1.62734	-54.51589	78.11232	0.81367	-86.24902	-159.47932	-227.01393	-277.46147	0
526	-34.17414	-68.34828	-34.98781	49.63387	-1.62734	-52.07488	78.11232	3.25468	-81.367	-149.71528	-217.24989	-267.69743	0
527	-31.73313	-63.46626	-32.5468	47.19286	-1.62734	-49.63387	78.11232	3.25468	-74.04397	-144.83326	-207.48585	-260.3744	0
528	-31.73313	-58.58424	-27.66478	44.75185	-4.06835	-44.75185	80.55333	5.69569	-69.16195	-139.95124	-197.72181	-250.61036	0
529	-31.73313	-58.58424	-27.66478	44.75185	-4.06835	-44.75185	80.55333	5.69569	-64.27993	-132.62821	-187.95777	-240.84632	0
530	-31.73313	-53.70222	-22.78276	42.31084	-6.50936	-39.86983	82.99434	5.69569	-59.39791	-125.30518	-180.63474	-231.08228	0
531	-31.73313	-48.8202	-17.08707	39.86983	-8.95037	-34.98781	90.31737	10.57771	-54.51589	-117.98215	-170.8707	-221.31824	0
532	-31.73313	-41.49717	-9.76404	34.98781	-11.39138	-27.66478	95.19939	13.01872	-52.07488	-113.10013	-161.10666	-211.5542	0
533	-31.73313	-34.17414	-2.44101	32.5468	-16.2734	-19.52808	102.52242	17.90074	-52.07488	-108.21811	-156.22464	-204.23117	0
534	-31.73313	-29.29212	2.44101	30.10579	-18.71441	-14.64606	104.96343	17.90074	-52.07488	-103.33609	-146.4606	-196.90814	0
535	-31.73313	-23.59643	7.32303	27.66478	-18.71441	-9.76404	107.40444	17.90074	-52.07488	-98.45407	-139.13757	-184.70309	0
536	-34.17414	-21.15542	12.20505	27.66478	-23.59643	-4.88202	109.84545	17.90074	-52.07488	-91.13104	-131.81454	-174.93905	0
537	-34.17414	-18.71441	14.64606	25.22377	-23.59643	-2.44101	112.28646	17.90074	-47.19286	-86.24902	-122.0505	-162.734	0
538	-34.17414	-18.71441	14.64606	25.22377	-23.59643	-2.44101	112.28646	17.90074	-47.19286	-86.24902	-114.72747	-152.96996	0
539	-34.17414	-18.71441	14.64606	25.22377	-23.59643	-2.44101	112.28646	17.90074	-44.75185	-81.367	-107.40444	-143.20592	0
540	-31.73313	-18.71441	12.20505	25.22377	-21.15542	-4.88202	114.72747	17.90074	-42.31084	-78.92599	-102.52242	-133.44188	0
541	-31.73313	-21.15542	9.76404	25.22377	-21.15542	-7.32303	119.60949	20.34175	-39.86983	-74.04397	-97.6404	-126.11885	0
542	-34.17414	-26.85111	7.32303	30.10579	-21.15542	-9.76404	122.0505	22.78276	-37.42882	-74.04397	-95.19939	-121.23683	0
543	-34.17414	-26.85111	7.32303	30.10579	-21.15542	-9.76404	126.93252	25.22377	-39.86983	-74.04397	-95.19939	-121.23683	0
544	-36.61515	-26.85111	9.76404	30.10579	-23.59643	-9.76404	131.81454	27.66478	-39.86983	-74.04397	-95.19939	-123.67784	0
545	-39.05616	-26.85111	12.20505	32.5468	-26.03744	-7.32303	134.25555	27.66478	-42.31084	-71.60296	-95.19939	-123.67784	0
546	-39.05616	-26.85111	12.20505	32.5468	-26.03744	-7.32303	134.25555	25.22377	-42.31084	-66.72094	-92.75838	-121.23683	0
547	-39.05616	-26.85111	12.20505	32.5468	-26.03744	-7.32303	134.25555	22.78276	-39.86983	-66.72094	-90.31737	-118.79582	0
548	-39.05616	-23.59643	14.64606	30.10579	-26.03744	-4.88202	131.81454	20.34175	-39.86983	-64.27993	-87.87636	-113.9138	0
549	-41.49717	-23.59643	17.08707	32.5468	-28.47845	-4.88202	131.81454	20.34175	-37.42882	-64.27993	-85.43535	-109.03178	0
550	-43.93818	-26.85111	17.08707	34.98781	-30.91946	-4.88202	131.81454	17.90074	-37.42882	-64.27993	-85.43535	-106.59077	0
551	-43.93818	-26.85111	17.08707	34.98781	-30.91946	-4.88202	134.25555	17.90074	-34.98781	-61.83892	-82.99434	-104.14976	0
552	-43.93818	-29.29212	14.64606	34.98781	-30.91946	-7.32303	136.69656	17.90074	-34.98781	-64.27993	-80.55333	-101.70875	0
553	-43.93818	-29.29212	14.64606	34.98781	-30.91946	-7.32303	136.69656	17.90074	-34.98781	-64.27993	-80.55333	-99.26774	0
554	-41.49717	-29.29212	12.20505	34.98781	-28.47845	-9.76404	136.69656	17.90074	-34.98781	-61.83892	-80.55333	-96.82673	0
555	-41.49717	-29.29212	12.20505	34.98781	-28.47845	-9.76404	136.69656	17.90074	-34.98781	-59.39791	-78.11232	-94.38572	0
556	-43.93818	-29.29212	14.64606	34.98781	-30.91946	-7.32303	136.69656	17.90074	-34.98781	-59.39791	-78.11232	-94.38572	0
557	-43.93818	-26.85111	17.08707	34.98781	-30.91946	-4.88202	136.69656	15.45973	-34.98781	-59.39791	-75.67131	-94.38572	0
558	-43.93818	-26.85111	17.08707	34.98781	-30.91946	-4.88202	136.69656	13.01872	-32.5468	-59.39791	-73.2303	-89.5037	0
559	-41.49717	-21.15542	19.52808	30.10579	-30.91946	-2.44101	136.69656	13.01872	-30.10579	-59.39791	-70.78929	-87.06269	0
560	-41.49717	-18.71441	21.96909	30.10579	-30.91946	0	136.69656	13.01872	-27.66478	-56.9569	-70.78929	-84.62168	0
561	-41.49717	-18.71441	21.96909	30.10579	-30.91946	0	136.69656	13.01872	-27.66478	-56.9569	-70.78929	-82.18067	0
562	-43.93818	-21.15542	21.96909	32.5468	-33.36047	0	136.69656	10.57771	-27.66478	-59.39791	-70.78929	-79.73966	0
563	-43.93818	-23.59643	19.52808	32.5468	-30.91946	-2.44101	136.69656	10.57771	-32.5468	-61.83892	-73.2303	-79.73966	0
564	-43.93818	-23.59643	19.52808	32.5468	-30.91946	-2.44101	136.69656	8.1367	-32.5468	-59.39791	-70.78929	-79.73966	0
565	-43.93818	-23.59643	19.52808	32.5468	-30.91946	-2.44101	136.69656	8.1367	-30.10579	-54.51589	-68.34828	-77.29865	0
566	-46.37919	-26.85111	19.52808	34.98781	-33.36047	-4.88202	136.69656	8.1367	-30.10579	-49.63387	-65.90727	-74.85764	0
567	-51.26121	-34.17414	17.08707	42.31084	-35.80148	-9.76404	134.25555	3.25468	-30.10579	-49.63387	-65.90727	-74.85764	0
568	-51.26121	-34.17414	17.08707	42.31084	-35.80148	-9.76404	134.25555	3.25468	-30.10579	-49.63387	-65.90727	-74.85764	0
569	-51.26121	-36.61515	14.64606	42.31084	-33.36047	-12.20505	134.25555	3.25468	-27.66478	-49.63387	-63.46626	-74.85764	0
570	-53.70222	-36.61515	17.08707	44.75185	-35.80148	-9.76404	134.25555	3.25468	-27.66478	-49.63387	-63.46626	-74.85764	0
571	-56.14323	-34.17414	21.96909	44.75185	-40.6835	-7.32303	134.25555	3.25468	-25.22377	-49.63387	-63.46626	-74.85764	0
572	-56.14323	-36.61515	19.52808	44.75185	-38.24249	-9.76404	136.69656	3.25468	-22.78276	-49.63387	-63.46626	-74.85764	0
573	-56.14323	-36.61515	19.52808	44.75185	-38.24249	-9.76404	136.69656	5.69569	-27.66478	-49.63387	-65.90727	-77.29865	0
574	-58.58424	-39.05616	19.52808	47.19286	-40.6835	-9.76404	136.69656	5.69569	-30.10579	-52.07488	-65.90727	-79.73966	0
575	-56.14323	-36.61515	19.52808	44.75185	-38.24249	-9.76404	136.69656	5.69569	-30.10579	-49.63387	-65.90727	-79.73966	0
576	-58.58424	-36.61515	21.96909	47.19286	-40.6835	-7.32303	139.13757	5.69569	-30.10579	-47.19286	-65.90727	-79.73966	0
577	-58.58424	-36.61515	21.96909	47.19286	-40.6835	-7.32303	136.69656	5.69569	-27.66478	-47.19286	-63.46626	-79.73966	0
578	-58.58424	-36.61515	21.96909	47.19286	-40.6835	-7.32303	136.69656	5.69569	-27.66478	-47.19286	-63.46626	-77.29865	0
579	-58.58424	-36.61515	21.96909	47.19286	-40.6835	-7.32303	136.69656	5.69569	-22.78276	-47.19286	-61.02525	-74.85764	0
580	-61.02525	-31.73313	29.29212	44.75185	-45.56552	-2.44101	139.13757	8.1367	-20.34175	-47.19286	-61.02525	-74.85764	0
581	-63.46626	-29.29212	34.17414	44.75185	-50.44754	2.44101	141.57858	8.1367	-17.90074	-43.93818	-61.02525	-74.85764	0
582	-63.46626	-29.29212	34.17414	44.75185	-50.44754	2.44101	144.01959	13.01872	-15.45973	-47.19286	-61.02525	-74.85764	0
583	-63.46626	-26.85111	36.61515	44.75185	-50.44754	4.88202	146.4606	17.90074	-15.45973	-47.19286	-61.02525	-77.29865	0
584	-65.90727	-23.59643	41.49717	44.75185	-52.88855	7.32303	148.90161	17.90074	-13.01872	-43.93818	-61.02525	-79.73966	0
585	-63.46626	-18.71441	43.93818	39.86983	-52.88855	12.20505	148.90161	20.34175	-13.01872	-39.05616	-57.77057	-77.29865	0
586	-63.46626	-16.2734	46.37919	39.86983	-55.32956	14.64606	151.34262	22.78276	-8.1367	-34.17414	-52.88855	-74.85764	0
587	-63.46626	-13.83239	48.8202	37.42882	-55.32956	17.08707	156.22464	27.66478	-4.88202	-34.17414	-50.44754	-72.41663	0
588	-63.46626	-13.83239	48.8202	37.42882	-55.32956	17.08707	161.10666	30.10579	-4.88202	-34.17414	-48.00653	-69.97562	0
589	-61.02525	-13.83239	46.37919	37.42882	-52.88855	14.64606	165.98868	34.98781	2.44101	-31.73313	-43.12451	-67.53461	0
590	-61.02525	-8.95037	51.26121	34.98781	-55.32956	19.52808	170.8707	39.86983	7.32303	-26.85111	-40.6835	-65.0936	0
591	-63.46626	-8.95037	53.70222	34.98781	-57.77057	21.96909	175.75272	44.75185	12.20505	-21.96909	-35.80148	-62.65259	0
592	-63.46626	-6.50936	56.14323	34.98781	-60.21158	24.4101	180.63474	49.63387	12.20505	-21.96909	-35.80148	-60.21158	0
593	-61.02525	-1.62734	58.58424	30.10579	-60.21158	26.85111	185.51676	54.51589	12.20505	-24.4101	-35.80148	-62.65259	0
594	-58.58424	5.69569	63.46626	25.22377	-60.21158	34.17414	187.95777	56.9569	14.64606	-21.96909	-35.80148	-65.0936	0
595	-56.14323	10.57771	65.90727	22.78276	-60.21158	36.61515	187.95777	59.39791	17.08707	-19.52808	-33.36047	-62.65259	0
596	-53.70222	13.01872	65.90727	20.34175	-60.21158	39.05616	185.51676	59.39791	17.08707	-17.08707	-30.91946	-62.65259	0
597	-53.70222	17.90074	70.78929	17.90074	-62.65259	43.93818	183.07575	56.9569	17.08707	-14.64606	-28.47845	-62.65259	0
598	-51.26121	22.78276	73.2303	14.64606	-62.65259	46.37919	175.75272	54.51589	17.08707	-17.08707	-28.47845	-57.77057	0
599	-46.37919	27.66478	73.2303	9.76404	-60.21158	48.8202	170.8707	52.07488	19.52808	-19.52808	-26.03744	-52.88855	0
600	-41.49717	37.42882	78.11232	2.44101	-60.21158	56.14323	165.98868	47.19286	19.52808	-19.52808	-23.59643	-52.88855	0
601	-41.49717	39.86983	80.55333	0	-60.21158	58.58424	156.22464	42.31084	19.52808	-19.52808	-23.59643	-52.88855	0
602	-43.93818	42.31084	85.43535	0	-65.0936	63.46626	148.90161	34.98781	12.20505	-26.85111	-28.47845	-52.88855	0
603	-43.93818	42.31084	85.43535	0	-65.0936	63.46626	139.13757	27.66478	4.88202	-31.73313	-33.36047	-55.32956	0
604	-46.37919	49.63387	95.19939	-2.44101	-69.97562	70.78929	129.37353	17.90074	-2.44101	-34.17414	-35.80148	-57.77057	0
605	-43.93818	56.9569	100.08141	-7.32303	-72.41663	78.11232	119.60949	8.1367	-8.1367	-36.61515	-35.80148	-57.77057	0
606	-43.93818	64.27993	107.40444	-9.76404	-74.85764	85.43535	109.84545	-1.62734	-10.57771	-36.61515	-38.24249	-57.77057	0
607	-46.37919	64.27993	109.84545	-9.76404	-77.29865	85.43535	100.08141	-11.39138	-15.45973	-41.49717	-40.6835	-60.21158	0
608	-46.37919	69.16195	114.72747	-12.20505	-79.73966	90.31737	92.75838	-18.71441	-17.90074	-47.19286	-40.6835	-60.21158	0
609	-41.49717	74.04397	114.72747	-17.08707	-77.29865	92.75838	85.43535	-23.59643	-20.34175	-47.19286	-40.6835	-57.77057	0
610	-39.05616	76.48498	114.72747	-19.52808	-77.29865	95.19939	82.99434	-28.47845	-20.34175	-47.19286	-40.6835	-57.77057	0
611	-36.61515	78.92599	114.72747	-21.96909	-74.85764	95.19939	82.99434	-28.47845	-20.34175	-47.19286	-38.24249	-55.32956	0
612	-36.61515	76.48498	112.28646	-19.52808	-74.85764	92.75838	78.11232	-28.47845	-22.78276	-47.19286	-38.24249	-52.88855	0
613	-34.17414	71.60296	104.96343	-19.52808	-69.97562	87.87636	78.11232	-28.47845	-27.66478	-49.63387	-40.6835	-52.88855	0
614	-31.73313	69.16195	100.08141	-19.52808	-65.0936	82.99434	78.11232	-28.47845	-27.66478	-47.19286	-40.6835	-52.88855	0
615	-26.85111	66.72094	92.75838	-19.52808	-60.21158	78.11232	75.67131	-28.47845	-27.66478	-43.93818	-35.80148	-49.63387	0
616	-21.96909	64.27993	85.43535	-21.96909	-52.88855	73.2303	68.34828	-30.91946	-27.66478	-41.49717	-33.36047	-44.75185	0
617	-21.96909	54.51589	75.67131	-17.08707	-48.00653	63.46626	63.46626	-33.36047	-27.66478	-41.49717	-28.47845	-44.75185	0
618	-19.52808	47.19286	65.90727	-14.64606	-43.12451	56.14323	61.02525	-36.61515	-27.66478	-41.49717	-26.03744	-39.86983	0
619	-19.52808	42.31084	61.02525	-12.20505	-40.6835	51.26121	58.58424	-36.61515	-27.66478	-43.93818	-26.03744	-37.42882	0
620	-19.52808	34.98781	53.70222	-7.32303	-35.80148	43.93818	58.58424	-36.61515	-30.10579	-43.93818	-26.03744	-34.98781	0
621	-21.96909	27.66478	48.8202	-2.44101	-35.80148	36.61515	58.58424	-36.61515	-30.10579	-43.93818	-26.03744	-34.98781	0
622	-24.4101	17.90074	41.49717	2.44101	-33.36047	29.29212	58.58424	-39.05616	-32.5468	-47.19286	-30.91946	-37.42882	0
623	-26.85111	5.69569	31.73313	9.76404	-28.47845	17.08707	58.58424	-43.93818	-39.86983	-52.07488	-35.80148	-44.75185	0
624	-34.17414	-4.06835	29.29212	17.90074	-30.91946	12.20505	58.58424	-43.93818	-44.75185	-56.9569	-43.12451	-52.88855	0
625	-41.49717	-13.83239	26.85111	27.66478	-33.36047	4.88202	61.02525	-48.8202	-49.63387	-64.27993	-50.44754	-60.21158	0
626	-48.8202	-23.59643	24.4101	34.98781	-35.80148	0	63.46626	-51.26121	-56.9569	-69.16195	-61.02525	-69.97562	0
627	-56.14323	-29.29212	26.85111	42.31084	-43.12451	-2.44101	65.90727	-53.70222	-59.39791	-78.92599	-65.90727	-79.73966	0
628	-61.02525	-34.17414	26.85111	47.19286	-45.56552	-4.88202	65.90727	-56.14323	-61.83892	-86.24902	-73.2303	-87.06269	0
629	-68.34828	-41.49717	26.85111	54.51589	-48.00653	-7.32303	70.78929	-56.14323	-64.27993	-91.13104	-78.11232	-91.94471	0
630	-70.78929	-46.37919	24.4101	56.9569	-48.00653	-12.20505	73.2303	-56.14323	-64.27993	-96.01306	-82.99434	-99.26774	0
631	-78.11232	-51.26121	26.85111	64.27993	-52.88855	-12.20505	78.11232	-53.70222	-64.27993	-100.89508	-90.31737	-104.14976	0
632	-80.55333	-58.58424	21.96909	69.16195	-52.88855	-19.52808	80.55333	-53.70222	-66.72094	-108.21811	-95.19939	-109.03178	0
633	-85.43535	-63.46626	21.96909	74.04397	-55.32956	-21.96909	82.99434	-53.70222	-71.60296	-113.10013	-102.52242	-116.35481	0
634	-85.43535	-68.34828	17.08707	76.48498	-52.88855	-27.66478	82.99434	-53.70222	-71.60296	-113.10013	-104.96343	-118.79582	0
635	-85.43535	-73.2303	12.20505	78.92599	-50.44754	-32.5468	82.99434	-53.70222	-71.60296	-113.10013	-104.96343	-121.23683	0
636	-85.43535	-78.11232	7.32303	81.367	-48.00653	-37.42882	80.55333	-56.14323	-71.60296	-110.65912	-104.96343	-121.23683	0
637	-85.43535	-80.55333	4.88202	81.367	-45.56552	-39.86983	78.11232	-58.58424	-69.16195	-110.65912	-104.96343	-123.67784	0
638	-85.43535	-82.99434	2.44101	83.80801	-45.56552	-42.31084	75.67131	-61.02525	-69.16195	-113.10013	-104.96343	-123.67784	0
639	-85.43535	-82.99434	2.44101	83.80801	-45.56552	-42.31084	73.2303	-63.46626	-69.16195	-113.10013	-104.96343	-123.67784	0
640	-85.43535	-82.99434	2.44101	83.80801	-45.56552	-42.31084	73.2303	-63.46626	-66.72094	-113.10013	-104.96343	-123.67784	0
641	-82.99434	-80.55333	2.44101	81.367	-43.12451	-39.86983	75.67131	-61.02525	-61.83892	-110.65912	-102.52242	-121.23683	0
642	-82.99434	-85.43535	-2.44101	83.80801	-40.6835	-44.75185	75.67131	-61.02525	-59.39791	-110.65912	-100.08141	-118.79582	0
643	-82.99434	-87.87636	-4.88202	83.80801	-40.6835	-47.19286	78.11232	-58.58424	-59.39791	-110.65912	-100.08141	-121.23683	0
644	-85.43535	-90.31737	-4.88202	86.24902	-40.6835	-49.63387	80.55333	-56.14323	-59.39791	-108.21811	-100.08141	-123.67784	0
645	-85.43535	-90.31737	-4.88202	86.24902	-40.6835	-49.63387	82.99434	-53.70222	-59.39791	-105.7771	-100.08141	-123.67784	0
646	-85.43535	-90.31737	-4.88202	86.24902	-40.6835	-49.63387	82.99434	-53.70222	-56.9569	-103.33609	-100.08141	-123.67784	0
647	-82.99434	-92.75838	-9.76404	86.24902	-38.24249	-52.07488	85.43535	-51.26121	-52.07488	-100.89508	-95.19939	-121.23683	0
648	-85.43535	-95.19939	-9.76404	88.69003	-38.24249	-54.51589	85.43535	-51.26121	-49.63387	-100.89508	-95.19939	-121.23683	0
649	-85.43535	-100.08141	-14.64606	91.13104	-35.80148	-59.39791	82.99434	-51.26121	-47.19286	-100.89508	-95.19939	-118.79582	0
650	-85.43535	-100.08141	-14.64606	91.13104	-35.80148	-59.39791	82.99434	-51.26121	-44.75185	-100.89508	-95.19939	-116.35481	0
651	-82.99434	-97.6404	-14.64606	88.69003	-35.80148	-56.9569	85.43535	-48.8202	-37.42882	-100.89508	-95.19939	-113.9138	0
652	-82.99434	-97.6404	-14.64606	88.69003	-35.80148	-56.9569	85.43535	-48.8202	-37.42882	-103.33609	-95.19939	-111.47279	0
653	-85.43535	-100.08141	-14.64606	91.13104	-35.80148	-59.39791	82.99434	-51.26121	-34.98781	-103.33609	-97.6404	-111.47279	0
654	-85.43535	-104.96343	-19.52808	93.57205	-33.36047	-64.27993	82.99434	-51.26121	-30.10579	-103.33609	-97.6404	-111.47279	0
655	-87.87636	-104.96343	-17.08707	96.01306	-35.80148	-61.83892	78.11232	-53.70222	-30.10579	-103.33609	-97.6404	-111.47279	0
656	-85.43535	-104.96343	-19.52808	93.57205	-33.36047	-64.27993	78.11232	-53.70222	-27.66478	-100.89508	-97.6404	-109.03178	0
657	-85.43535	-104.96343	-19.52808	93.57205	-33.36047	-64.27993	78.11232	-53.70222	-25.22377	-98.45407	-97.6404	-109.03178	0
658	-85.43535	-104.96343	-19.52808	93.57205	-33.36047	-64.27993	78.11232	-56.14323	-22.78276	-98.45407	-95.19939	-109.03178	0
659	-87.87636	-107.40444	-19.52808	96.01306	-35.80148	-64.27993	75.67131	-56.14323	-22.78276	-98.45407	-95.19939	-109.03178	0
660	-90.31737	-107.40444	-17.08707	98.45407	-38.24249	-64.27993	75.67131	-58.58424	-20.34175	-98.45407	-95.19939	-109.03178	-1250	T-0
661	-87.87636	-102.52242	-14.64606	93.57205	-38.24249	-59.39791	75.67131	-58.58424	-20.34175	-96.01306	-95.19939	-106.59077	0
662	-85.43535	-102.52242	-17.08707	93.57205	-35.80148	-61.83892	75.67131	-56.14323	-17.90074	-96.01306	-95.19939	-106.59077	0
663	-85.43535	-100.08141	-14.64606	91.13104	-35.80148	-59.39791	75.67131	-56.14323	-20.34175	-98.45407	-95.19939	-106.59077	0
664	-85.43535	-100.08141	-14.64606	91.13104	-35.80148	-59.39791	75.67131	-58.58424	-20.34175	-98.45407	-95.19939	-104.14976	0
665	-87.87636	-102.52242	-14.64606	93.57205	-38.24249	-59.39791	73.2303	-61.02525	-20.34175	-98.45407	-97.6404	-104.14976	0
666	-87.87636	-102.52242	-14.64606	93.57205	-38.24249	-59.39791	73.2303	-61.02525	-20.34175	-96.01306	-97.6404	-101.70875	0
667	-87.87636	-102.52242	-14.64606	93.57205	-38.24249	-59.39791	73.2303	-63.46626	-15.45973	-96.01306	-95.19939	-99.26774	0
668	-87.87636	-102.52242	-14.64606	93.57205	-38.24249	-59.39791	70.78929	-65.90727	-15.45973	-96.01306	-95.19939	-99.26774	0
669	-87.87636	-102.52242	-14.64606	93.57205	-38.24249	-59.39791	68.34828	-65.90727	-13.01872	-96.01306	-95.19939	-99.26774	0
670	-85.43535	-100.08141	-14.64606	91.13104	-35.80148	-59.39791	68.34828	-63.46626	-8.1367	-96.01306	-95.19939	-96.82673	0
671	-85.43535	-100.08141	-14.64606	91.13104	-35.80148	-59.39791	70.78929	-61.02525	-8.1367	-93.57205	-95.19939	-96.82673	0
672	-85.43535	-100.08141	-14.64606	91.13104	-35.80148	-59.39791	73.2303	-61.02525	-4.88202	-93.57205	-95.19939	-96.82673	0
673	-82.99434	-97.6404	-14.64606	88.69003	-35.80148	-56.9569	73.2303	-58.58424	-4.88202	-93.57205	-95.19939	-96.82673	0
674	-80.55333	-92.75838	-12.20505	86.24902	-35.80148	-54.51589	73.2303	-58.58424	-4.88202	-93.57205	-95.19939	-99.26774	0
675	-80.55333	-92.75838	-12.20505	86.24902	-35.80148	-54.51589	70.78929	-58.58424	-8.1367	-93.57205	-97.6404	-99.26774	0
676	-80.55333	-90.31737	-9.76404	83.80801	-35.80148	-52.07488	68.34828	-61.02525	-8.1367	-93.57205	-97.6404	-99.26774	0
677	-80.55333	-90.31737	-9.76404	83.80801	-35.80148	-52.07488	68.34828	-63.46626	-8.1367	-93.57205	-97.6404	-99.26774	0
678	-78.11232	-87.87636	-9.76404	81.367	-35.80148	-49.63387	65.90727	-63.46626	-8.1367	-96.01306	-97.6404	-99.26774	0
679	-78.11232	-90.31737	-12.20505	83.80801	-33.36047	-52.07488	63.46626	-65.90727	-8.1367	-98.45407	-100.08141	-96.82673	0
680	-78.11232	-92.75838	-14.64606	83.80801	-33.36047	-54.51589	61.02525	-68.34828	-10.57771	-98.45407	-100.08141	-99.26774	0
681	-78.11232	-95.19939	-17.08707	86.24902	-30.91946	-56.9569	56.14323	-70.78929	-13.01872	-100.89508	-100.08141	-99.26774	0
682	-78.11232	-100.08141	-22.78276	88.69003	-28.47845	-61.83892	51.26121	-75.67131	-15.45973	-105.7771	-102.52242	-99.26774	0
683	-80.55333	-104.96343	-25.22377	91.13104	-28.47845	-66.72094	46.37919	-80.55333	-22.78276	-108.21811	-107.40444	-106.59077	0
684	-78.11232	-104.96343	-27.66478	91.13104	-26.03744	-66.72094	41.49717	-85.43535	-25.22377	-110.65912	-112.28646	-111.47279	0
685	-73.2303	-104.96343	-32.5468	88.69003	-21.15542	-69.16195	39.05616	-87.87636	-27.66478	-110.65912	-119.60949	-121.23683	0
686	-73.2303	-109.84545	-37.42882	91.13104	-18.71441	-74.04397	33.36047	-90.31737	-30.10579	-115.54114	-126.93252	-126.11885	0
687	-73.2303	-119.60949	-47.19286	96.01306	-13.83239	-83.80801	30.91946	-95.19939	-30.10579	-122.86417	-139.13757	-143.20592	0
688	-70.78929	-129.37353	-59.39791	98.45407	-6.50936	-96.01306	28.47845	-95.19939	-30.10579	-130.1872	-129.37353	-133.44188	0
689	-65.90727	-139.13757	-74.04397	100.89508	3.25468	-108.21811	26.03744	-95.19939	-30.10579	-139.95124	-163.54767	-172.49804	0
690	-61.02525	-151.34262	-91.13104	105.7771	13.83239	-122.86417	28.47845	-87.87636	-30.10579	-149.71528	-183.07575	-194.46713	0
691	-68.34828	-170.8707	-103.33609	117.98215	16.2734	-137.51023	33.36047	-87.87636	-32.5468	-169.24336	-209.92686	-226.20026	0
692	-51.26121	-192.83979	-142.39225	120.42316	45.56552	-169.24336	28.47845	-78.11232	-42.31084	-196.09447	-246.54201	-262.81541	0
693	-36.61515	-207.48585	-171.68437	120.42316	67.53461	-191.21245	23.59643	-61.02525	-54.51589	-225.38659	-285.59817	-299.43056	0
694	-41.49717	-251.42403	-210.74053	144.83326	84.62168	-232.70962	-8.1367	-112.28646	-71.60296	-227.8276	-305.12625	-331.16369	0
695	-51.26121	-288.03918	-237.59164	169.24336	91.94471	-264.44275	-34.98781	-134.25555	-91.13104	-313.26295	-397.88463	-414.15803	0
696	-63.46626	-278.27514	-215.62255	169.24336	74.85764	-247.35568	-69.16195	-163.54767	-120.42316	-354.76012	-441.82281	-455.6552	0
697	-51.26121	-263.62908	-213.18154	157.03831	79.73966	-240.03265	-103.33609	-185.51676	-152.15629	-357.20113	-454.02786	-455.6552	0
698	-29.29212	-214.80888	-186.33043	120.42316	77.29865	-200.97649	-139.95124	-236.77797	-164.36134	-364.52416	-436.94079	-428.80409	0
699	3.25468	-122.0505	-125.30518	59.39791	62.65259	-122.86417	-208.29952	-292.9212	-169.24336	-335.23204	-402.76665	-370.21985	0
700	42.31084	25.22377	-17.08707	-34.17414	30.91946	4.88202	-252.2377	-334.41837	-149.71528	-296.17588	-331.97736	-282.34349	0
701	78.92599	215.62255	136.69656	-146.4606	-28.47845	175.75272	-283.97083	-336.85938	-93.57205	-200.97649	-239.21898	-179.82107	0
702	122.86417	335.23204	212.36787	-229.45494	-45.56552	273.39312	-320.58598	-356.38746	-86.24902	-137.51023	-175.75272	-84.62168	0
703	159.47932	379.17022	219.6909	-268.5111	-30.91946	300.24423	-366.96517	-395.44362	-91.13104	-127.74619	-146.4606	-65.0936	0
704	166.80235	471.9286	305.12625	-319.77231	-69.97562	388.12059	-122.86417	-122.0505	70.78929	51.26121	17.90074	79.73966	0
705	142.39225	623.27122	480.87897	-383.23857	-170.05703	551.66826	-56.9569	-41.49717	317.3313	312.44928	274.20679	284.7845	0
706	103.33609	757.52677	654.19068	-429.61776	-275.02046	705.45189	11.39138	39.86983	519.93513	549.22725	508.54375	482.50631	0
707	54.51589	877.13626	822.62037	-466.23291	-384.86591	849.47148	80.55333	225.38659	651.74967	732.303	669.65041	597.23378	0
708	39.86983	967.45363	927.5838	-502.84806	-443.45015	947.11188	256.30605	308.38093	788.44623	910.49673	860.04919	741.25337	0
709	39.86983	1004.06878	964.19895	-522.37614	-462.97823	983.72703	297.80322	357.20113	878.7636	1074.0444	1038.24292	868.18589	0
710	39.86983	1016.27383	976.404	-527.25816	-467.86025	995.93208	302.68524	359.64214	920.26077	1183.88985	1187.14453	987.79538	0
711	30.10579	1016.27383	986.16804	-522.37614	-477.62429	1000.8141	241.65999	269.32477	839.70744	1196.0949	1240.84675	1036.61558	0
712	13.01872	986.98171	973.96299	-500.40705	-480.0653	981.28602	119.60949	96.01306	688.36482	1188.77187	1284.78493	1104.96386	0
713	54.51589	938.16151	883.64562	-495.52503	-414.15803	910.49673	8.95037	-28.47845	610.2525	1242.47409	1409.27644	1212.3683	0
714	81.367	823.43404	742.06704	-451.58685	-331.16369	783.56421	78.11232	22.78276	527.25816	1249.79712	1467.86068	1273.39355	0
715	108.21811	708.70657	600.48846	-407.64867	-245.72834	654.19068	61.02525	-23.59643	500.40705	1249.79712	1509.35785	1305.12668	0
716	98.45407	603.74314	505.28907	-351.50544	-204.23117	554.10927	48.8202	-63.46626	468.67392	1220.505	1494.71179	1302.68567	0
717	88.69003	469.48759	380.79756	-278.27514	-145.64693	424.73574	46.37919	-75.67131	410.08968	1137.51066	1406.83543	1224.57335	0
718	78.92599	305.93992	227.01393	-192.83979	-74.85764	266.07009	53.70222	-28.47845	400.32564	1064.28036	1350.6922	1178.19416	0
719	66.72094	237.59164	170.8707	-151.34262	-52.88855	205.04484	65.90727	-70.78929	258.74706	837.26643	1157.85241	1068.34871	0
720	22.78276	147.27427	124.49151	-85.43535	-50.44754	136.69656	73.2303	-156.22464	95.19939	598.04745	972.33565	956.06225	0
721	5.69569	96.01306	90.31737	-51.26121	-43.12451	92.75838	73.2303	-200.16282	-20.34175	407.64867	781.93687	821.8067	0
722	17.90074	22.78276	4.88202	-19.52808	5.69569	14.64606	70.78929	-219.6909	-93.57205	300.24423	647.68132	741.25337	0
723	-7.32303	-75.67131	-69.16195	39.86983	30.91946	-74.04397	61.02525	-178.19373	-125.30518	200.16282	528.07183	628.96691	0
724	-9.76404	-119.60949	-110.65912	64.27993	50.44754	-115.54114	53.70222	-175.75272	-157.03831	85.43535	366.96517	494.71136	0
725	-19.52808	-153.78363	-135.06922	86.24902	57.77057	-144.83326	53.70222	-161.10666	-169.24336	4.88202	252.2377	397.07096	0
726	-17.08707	-151.34262	-135.06922	83.80801	57.77057	-144.83326	53.70222	-141.57858	-135.06922	2.44101	225.38659	365.33783	0
727	22.78276	-109.84545	-132.62821	42.31084	77.29865	-120.42316	58.58424	-117.16848	-59.39791	51.26121	227.8276	338.48672	0
728	-4.88202	-119.60949	-115.54114	61.83892	55.32956	-117.98215	58.58424	-100.08141	17.08707	90.31737	240.03265	314.07662	0
729	-26.85111	-114.72747	-88.69003	69.16195	30.91946	-103.33609	61.02525	-80.55333	2.44101	107.40444	227.8276	265.25642	0
730	-14.64606	-95.19939	-81.367	54.51589	33.36047	-88.69003	65.90727	-61.02525	26.85111	114.72747	213.18154	233.52329	0
731	-17.08707	-87.87636	-71.60296	52.07488	26.03744	-81.367	65.90727	-51.26121	41.49717	85.43535	166.80235	182.26208	0
732	-26.85111	-87.87636	-61.83892	56.9569	16.2734	-76.48498	63.46626	-48.8202	46.37919	36.61515	83.80801	109.03178	0
733	-31.73313	-85.43535	-54.51589	56.9569	11.39138	-71.60296	58.58424	-51.26121	41.49717	19.52808	37.42882	43.12451	0
734	-34.17414	-82.99434	-49.63387	56.9569	5.69569	-66.72094	51.26121	-56.14323	34.17414	0	8.1367	8.95037	0
735	-39.05616	-82.99434	-44.75185	59.39791	0.81367	-64.27993	46.37919	-63.46626	24.4101	-19.52808	-23.59643	-10.57771	0
736	-41.49717	-85.43535	-44.75185	61.83892	0.81367	-66.72094	41.49717	-70.78929	17.08707	-34.17414	-8.95037	-17.90074	0
737	-39.05616	-85.43535	-47.19286	61.83892	3.25468	-66.72094	39.05616	-75.67131	12.20505	-43.93818	-18.71441	-15.45973	0
738	-41.49717	-87.87636	-47.19286	64.27993	0.81367	-69.16195	33.36047	-80.55333	7.32303	-52.07488	-28.47845	1.62734	0
739	-41.49717	-90.31737	-49.63387	64.27993	3.25468	-71.60296	33.36047	-82.99434	4.88202	-54.51589	-33.36047	-13.01872	0
740	-41.49717	-90.31737	-49.63387	64.27993	3.25468	-71.60296	33.36047	-82.99434	4.88202	-54.51589	-35.80148	-13.01872	0
741	-39.05616	-85.43535	-47.19286	61.83892	3.25468	-66.72094	33.36047	-82.99434	4.88202	-54.51589	-35.80148	-13.01872	0
742	-39.05616	-87.87636	-49.63387	61.83892	3.25468	-69.16195	36.61515	-82.99434	4.88202	-56.9569	-38.24249	-15.45973	0
743	-39.05616	-87.87636	-49.63387	61.83892	3.25468	-69.16195	36.61515	-82.99434	0	-59.39791	-40.6835	-20.34175	0
744	-39.05616	-87.87636	-49.63387	61.83892	3.25468	-69.16195	33.36047	-82.99434	0	-61.83892	-45.56552	-25.22377	0
745	-39.05616	-85.43535	-47.19286	61.83892	3.25468	-66.72094	33.36047	-85.43535	-2.44101	-61.83892	-48.00653	-27.66478	0
746	-39.05616	-85.43535	-47.19286	61.83892	3.25468	-66.72094	33.36047	-85.43535	-2.44101	-64.27993	-48.00653	-30.10579	0
747	-41.49717	-82.99434	-42.31084	61.83892	-1.62734	-64.27993	33.36047	-87.87636	-2.44101	-64.27993	-48.00653	-30.10579	0
748	-41.49717	-82.99434	-42.31084	61.83892	-1.62734	-64.27993	33.36047	-87.87636	-2.44101	-64.27993	-48.00653	-30.10579	0
749	-41.49717	-82.99434	-42.31084	61.83892	-1.62734	-64.27993	30.91946	-90.31737	-2.44101	-66.72094	-52.88855	-30.10579	0
750	-41.49717	-80.55333	-39.86983	59.39791	-1.62734	-61.83892	30.91946	-90.31737	-4.88202	-69.16195	-52.88855	-30.10579	0
751	-41.49717	-80.55333	-39.86983	59.39791	-1.62734	-61.83892	33.36047	-90.31737	-2.44101	-66.72094	-52.88855	-30.10579	0
752	-41.49717	-82.99434	-42.31084	61.83892	-1.62734	-64.27993	33.36047	-87.87636	-2.44101	-66.72094	-52.88855	-27.66478	0
753	-39.05616	-82.99434	-44.75185	59.39791	0.81367	-64.27993	33.36047	-87.87636	-2.44101	-66.72094	-52.88855	-27.66478	0
754	-36.61515	-82.99434	-47.19286	59.39791	3.25468	-66.72094	36.61515	-85.43535	-2.44101	-64.27993	-50.44754	-30.10579	0
755	-34.17414	-82.99434	-49.63387	56.9569	5.69569	-66.72094	36.61515	-85.43535	0	-61.83892	-50.44754	-27.66478	0
756	-34.17414	-82.99434	-49.63387	56.9569	5.69569	-66.72094	39.05616	-85.43535	0	-59.39791	-50.44754	-27.66478	0
757	-34.17414	-85.43535	-52.07488	59.39791	8.1367	-69.16195	39.05616	-85.43535	2.44101	-59.39791	-48.00653	-27.66478	0
758	-34.17414	-87.87636	-54.51589	59.39791	8.1367	-71.60296	39.05616	-82.99434	4.88202	-56.9569	-45.56552	-22.78276	0
759	-36.61515	-90.31737	-54.51589	61.83892	8.1367	-74.04397	41.49717	-82.99434	4.88202	-56.9569	-45.56552	-22.78276	0
760	-41.49717	-92.75838	-52.07488	66.72094	3.25468	-74.04397	41.49717	-80.55333	4.88202	-56.9569	-45.56552	-25.22377	0
761	-41.49717	-92.75838	-52.07488	66.72094	3.25468	-74.04397	46.37919	-80.55333	4.88202	-54.51589	-43.12451	-25.22377	0
762	-41.49717	-92.75838	-52.07488	66.72094	3.25468	-74.04397	46.37919	-78.11232	4.88202	-56.9569	-43.12451	-25.22377	0
763	-41.49717	-95.19939	-54.51589	66.72094	5.69569	-76.48498	46.37919	-78.11232	2.44101	-59.39791	-48.00653	-27.66478	0
764	-41.49717	-92.75838	-52.07488	66.72094	3.25468	-74.04397	46.37919	-78.11232	0	-61.83892	-48.00653	-30.10579	0
765	-41.49717	-90.31737	-49.63387	64.27993	3.25468	-71.60296	46.37919	-78.11232	0	-61.83892	-50.44754	-32.5468	0
766	-39.05616	-85.43535	-47.19286	61.83892	3.25468	-66.72094	46.37919	-80.55333	0	-59.39791	-50.44754	-32.5468	0
767	-36.61515	-82.99434	-47.19286	59.39791	3.25468	-66.72094	43.93818	-82.99434	0	-61.83892	-50.44754	-32.5468	0
768	-34.17414	-82.99434	-49.63387	56.9569	5.69569	-66.72094	43.93818	-82.99434	2.44101	-61.83892	-50.44754	-32.5468	0
769	-34.17414	-80.55333	-47.19286	56.9569	5.69569	-64.27993	43.93818	-82.99434	2.44101	-61.83892	-50.44754	-32.5468	0
770	-34.17414	-80.55333	-47.19286	56.9569	5.69569	-64.27993	43.93818	-80.55333	4.88202	-61.83892	-50.44754	-32.5468	0
771	-34.17414	-80.55333	-47.19286	56.9569	5.69569	-64.27993	43.93818	-78.11232	4.88202	-59.39791	-50.44754	-32.5468	0
772	-34.17414	-82.99434	-49.63387	56.9569	5.69569	-66.72094	43.93818	-78.11232	4.88202	-59.39791	-50.44754	-30.10579	0
773	-31.73313	-85.43535	-54.51589	56.9569	11.39138	-71.60296	43.93818	-78.11232	4.88202	-59.39791	-50.44754	-30.10579	0
774	-31.73313	-90.31737	-59.39791	59.39791	13.83239	-76.48498	41.49717	-78.11232	2.44101	-59.39791	-50.44754	-32.5468	0
775	-34.17414	-95.19939	-61.83892	64.27993	13.83239	-78.92599	41.49717	-78.11232	0	-56.9569	-50.44754	-32.5468	0
776	-34.17414	-95.19939	-61.83892	64.27993	13.83239	-78.92599	41.49717	-78.11232	0	-56.9569	-50.44754	-30.10579	0
777	-31.73313	-97.6404	-66.72094	64.27993	16.2734	-83.80801	39.05616	-78.11232	4.88202	-56.9569	-45.56552	-30.10579	0
778	-31.73313	-100.08141	-69.16195	64.27993	18.71441	-86.24902	36.61515	-78.11232	4.88202	-59.39791	-45.56552	-30.10579	0
779	-31.73313	-102.52242	-71.60296	66.72094	18.71441	-88.69003	36.61515	-78.11232	4.88202	-59.39791	-45.56552	-27.66478	0
780	-29.29212	-100.08141	-71.60296	64.27993	21.15542	-86.24902	36.61515	-75.67131	7.32303	-59.39791	-45.56552	-27.66478	0
781	-29.29212	-97.6404	-69.16195	61.83892	18.71441	-83.80801	36.61515	-73.2303	9.76404	-56.9569	-45.56552	-30.10579	0
782	-29.29212	-97.6404	-69.16195	61.83892	18.71441	-83.80801	39.05616	-73.2303	9.76404	-56.9569	-48.00653	-32.5468	0
783	-29.29212	-97.6404	-69.16195	61.83892	18.71441	-83.80801	41.49717	-68.34828	12.20505	-59.39791	-50.44754	-37.42882	0
784	-26.85111	-95.19939	-69.16195	59.39791	21.15542	-83.80801	41.49717	-68.34828	12.20505	-59.39791	-52.88855	-44.75185	0
785	-26.85111	-92.75838	-66.72094	59.39791	18.71441	-81.367	41.49717	-68.34828	12.20505	-56.9569	-55.32956	-47.19286	0
786	-26.85111	-87.87636	-61.83892	56.9569	16.2734	-76.48498	41.49717	-65.90727	12.20505	-54.51589	-57.77057	-52.88855	0
787	-21.96909	-85.43535	-64.27993	52.07488	21.15542	-76.48498	41.49717	-65.90727	19.52808	-52.07488	-55.32956	-52.88855	0
788	-21.96909	-85.43535	-64.27993	52.07488	21.15542	-76.48498	41.49717	-65.90727	19.52808	-52.07488	-55.32956	-52.88855	0
789	-19.52808	-87.87636	-69.16195	52.07488	23.59643	-78.92599	39.05616	-65.90727	19.52808	-54.51589	-55.32956	-52.88855	0
790	-21.96909	-90.31737	-69.16195	54.51589	23.59643	-81.367	39.05616	-63.46626	21.96909	-54.51589	-57.77057	-52.88855	0
791	-21.96909	-90.31737	-69.16195	54.51589	23.59643	-81.367	39.05616	-61.02525	24.4101	-54.51589	-57.77057	-52.88855	0
792	-19.52808	-90.31737	-71.60296	54.51589	26.03744	-81.367	41.49717	-58.58424	24.4101	-54.51589	-57.77057	-52.88855	0
793	-19.52808	-92.75838	-74.04397	54.51589	26.03744	-83.80801	43.93818	-56.14323	24.4101	-56.9569	-61.02525	-57.77057	0
794	-19.52808	-92.75838	-74.04397	54.51589	26.03744	-83.80801	43.93818	-53.70222	21.96909	-59.39791	-65.90727	-62.65259	0
795	-19.52808	-95.19939	-76.48498	56.9569	28.47845	-86.24902	41.49717	-53.70222	17.08707	-59.39791	-68.34828	-65.0936	0
796	-19.52808	-95.19939	-76.48498	56.9569	28.47845	-86.24902	39.05616	-53.70222	14.64606	-61.83892	-73.2303	-69.97562	0
797	-19.52808	-95.19939	-76.48498	56.9569	28.47845	-86.24902	36.61515	-53.70222	14.64606	-64.27993	-78.11232	-77.29865	0
798	-17.08707	-92.75838	-76.48498	54.51589	28.47845	-86.24902	36.61515	-51.26121	14.64606	-66.72094	-80.55333	-79.73966	0
799	-17.08707	-95.19939	-78.92599	54.51589	30.91946	-88.69003	33.36047	-51.26121	12.20505	-69.16195	-85.43535	-84.62168	0
800	-17.08707	-97.6404	-81.367	56.9569	30.91946	-91.13104	33.36047	-51.26121	9.76404	-74.04397	-92.75838	-91.94471	0
801	-19.52808	-97.6404	-78.92599	56.9569	28.47845	-88.69003	33.36047	-48.8202	7.32303	-78.92599	-100.08141	-101.70875	0
802	-19.52808	-100.08141	-81.367	59.39791	30.91946	-91.13104	30.91946	-48.8202	2.44101	-86.24902	-109.84545	-109.03178	0
803	-21.96909	-104.96343	-83.80801	61.83892	30.91946	-96.01306	30.91946	-48.8202	-2.44101	-93.57205	-119.60949	-118.79582	0
804	-21.96909	-107.40444	-86.24902	64.27993	30.91946	-98.45407	30.91946	-48.8202	-4.88202	-98.45407	-129.37353	-128.55986	0
805	-21.96909	-107.40444	-86.24902	64.27993	30.91946	-98.45407	28.47845	-48.8202	-10.57771	-100.89508	-136.69656	-138.3239	0
806	-24.4101	-109.84545	-86.24902	66.72094	30.91946	-98.45407	26.03744	-48.8202	-15.45973	-105.7771	-146.4606	-148.08794	0
807	-26.85111	-109.84545	-83.80801	66.72094	28.47845	-98.45407	23.59643	-51.26121	-17.90074	-113.10013	-153.78363	-155.41097	0
808	-29.29212	-109.84545	-81.367	69.16195	26.03744	-96.01306	21.15542	-53.70222	-20.34175	-117.98215	-161.10666	-162.734	0
809	-29.29212	-109.84545	-81.367	69.16195	26.03744	-96.01306	18.71441	-53.70222	-25.22377	-125.30518	-168.42969	-170.05703	0
810	-29.29212	-109.84545	-81.367	69.16195	26.03744	-96.01306	18.71441	-56.14323	-30.10579	-127.74619	-175.75272	-177.38006	0
811	-29.29212	-107.40444	-78.92599	66.72094	23.59643	-93.57205	18.71441	-56.14323	-32.5468	-132.62821	-183.07575	-187.1441	0
812	-31.73313	-109.84545	-78.92599	69.16195	23.59643	-96.01306	13.83239	-56.14323	-37.42882	-137.51023	-190.39878	-192.02612	0
813	-34.17414	-114.72747	-81.367	74.04397	23.59643	-98.45407	11.39138	-61.02525	-44.75185	-144.83326	-200.16282	-201.79016	0
814	-34.17414	-117.16848	-83.80801	74.04397	23.59643	-100.89508	6.50936	-63.46626	-49.63387	-152.15629	-209.92686	-211.5542	0
815	-36.61515	-117.16848	-81.367	76.48498	21.15542	-100.89508	4.06835	-68.34828	-56.9569	-154.5973	-217.24989	-218.87723	0
816	-34.17414	-114.72747	-81.367	74.04397	23.59643	-98.45407	-3.25468	-73.2303	-61.83892	-159.47932	-224.57292	-226.20026	0
817	-36.61515	-114.72747	-78.92599	74.04397	21.15542	-98.45407	-8.1367	-78.11232	-64.27993	-164.36134	-231.89595	-231.08228	0
818	-36.61515	-114.72747	-78.92599	74.04397	21.15542	-98.45407	-13.01872	-82.99434	-69.16195	-171.68437	-239.21898	-235.9643	0
819	-36.61515	-114.72747	-78.92599	74.04397	21.15542	-98.45407	-20.34175	-85.43535	-74.04397	-176.56639	-244.101	-238.40531	0
820	-39.05616	-117.16848	-78.92599	76.48498	18.71441	-98.45407	-25.22377	-90.31737	-78.92599	-183.88942	-253.86504	-245.72834	0
821	-39.05616	-114.72747	-76.48498	76.48498	18.71441	-96.01306	-27.66478	-90.31737	-83.80801	-186.33043	-258.74706	-250.61036	0
822	-39.05616	-114.72747	-76.48498	76.48498	18.71441	-96.01306	-27.66478	-90.31737	-86.24902	-191.21245	-263.62908	-255.49238	0
823	-36.61515	-109.84545	-74.04397	71.60296	18.71441	-93.57205	-30.10579	-90.31737	-88.69003	-196.09447	-270.95211	-260.3744	0
824	-39.05616	-109.84545	-71.60296	74.04397	16.2734	-91.13104	-34.98781	-92.75838	-93.57205	-198.53548	-275.83413	-267.69743	0
825	-39.05616	-109.84545	-71.60296	74.04397	16.2734	-91.13104	-37.42882	-92.75838	-98.45407	-198.53548	-278.27514	-270.13844	0
826	-39.05616	-104.96343	-66.72094	71.60296	13.83239	-86.24902	-42.31084	-95.19939	-98.45407	-198.53548	-280.71615	-272.57945	0
827	-39.05616	-100.08141	-61.83892	69.16195	11.39138	-81.367	-44.75185	-95.19939	-98.45407	-196.09447	-278.27514	-272.57945	0
828	-34.17414	-95.19939	-61.83892	64.27993	13.83239	-78.92599	-47.19286	-97.6404	-96.01306	-191.21245	-273.39312	-267.69743	0
829	-31.73313	-90.31737	-59.39791	59.39791	13.83239	-76.48498	-47.19286	-95.19939	-96.01306	-186.33043	-268.5111	-260.3744	0
830	-29.29212	-82.99434	-54.51589	54.51589	11.39138	-69.16195	-47.19286	-92.75838	-91.13104	-179.0074	-261.18807	-255.49238	0
831	-29.29212	-75.67131	-47.19286	52.07488	8.1367	-61.83892	-44.75185	-90.31737	-86.24902	-171.68437	-253.86504	-245.72834	0
832	-26.85111	-73.2303	-47.19286	49.63387	8.1367	-61.83892	-42.31084	-87.87636	-81.367	-166.80235	-246.54201	-235.9643	0
833	-24.4101	-68.34828	-44.75185	44.75185	8.1367	-56.9569	-39.86983	-82.99434	-78.92599	-159.47932	-239.21898	-228.64127	0
834	-21.96909	-63.46626	-42.31084	42.31084	8.1367	-54.51589	-34.98781	-80.55333	-74.04397	-149.71528	-229.45494	-218.87723	0
835	-21.96909	-58.58424	-37.42882	39.86983	5.69569	-49.63387	-34.98781	-78.11232	-71.60296	-139.95124	-219.6909	-211.5542	0
836	-21.96909	-53.70222	-32.5468	37.42882	3.25468	-44.75185	-32.5468	-78.11232	-69.16195	-130.1872	-212.36787	-201.79016	0
837	-21.96909	-48.8202	-27.66478	34.98781	0.81367	-39.86983	-32.5468	-75.67131	-61.83892	-125.30518	-200.16282	-192.02612	0
838	-21.96909	-43.93818	-22.78276	32.5468	-1.62734	-34.98781	-30.10579	-73.2303	-59.39791	-117.98215	-190.39878	-182.26208	0
839	-21.96909	-41.49717	-19.52808	30.10579	-1.62734	-32.5468	-27.66478	-70.78929	-56.9569	-113.10013	-183.07575	-172.49804	0
840	-24.4101	-36.61515	-12.20505	30.10579	-6.50936	-25.22377	-25.22377	-65.90727	-54.51589	-108.21811	-175.75272	-165.17501	0
841	-26.85111	-34.17414	-7.32303	30.10579	-11.39138	-21.96909	-22.78276	-63.46626	-49.63387	-103.33609	-165.98868	-155.41097	0
842	-26.85111	-34.17414	-7.32303	30.10579	-11.39138	-21.96909	-17.90074	-58.58424	-47.19286	-98.45407	-158.66565	-145.64693	0
843	-26.85111	-36.61515	-9.76404	30.10579	-8.95037	-25.22377	-15.45973	-56.14323	-47.19286	-96.01306	-151.34262	-135.88289	0
844	-26.85111	-36.61515	-9.76404	30.10579	-8.95037	-25.22377	-13.01872	-51.26121	-47.19286	-93.57205	-146.4606	-131.00087	0
845	-26.85111	-36.61515	-9.76404	30.10579	-8.95037	-25.22377	-10.57771	-48.8202	-47.19286	-88.69003	-139.13757	-121.23683	0
846	-26.85111	-34.17414	-7.32303	30.10579	-11.39138	-21.96909	-8.1367	-48.8202	-47.19286	-83.80801	-134.25555	-113.9138	0
847	-26.85111	-34.17414	-7.32303	30.10579	-11.39138	-21.96909	-8.1367	-48.8202	-44.75185	-83.80801	-126.93252	-106.59077	0
848	-26.85111	-34.17414	-7.32303	30.10579	-11.39138	-21.96909	-5.69569	-48.8202	-42.31084	-78.92599	-119.60949	-96.82673	0
849	-26.85111	-36.61515	-9.76404	30.10579	-8.95037	-25.22377	-3.25468	-46.37919	-42.31084	-76.48498	-112.28646	-89.5037	0
850	-24.4101	-31.73313	-7.32303	27.66478	-8.95037	-19.52808	1.62734	-43.93818	-39.86983	-74.04397	-109.84545	-84.62168	0
851	-24.4101	-26.85111	-2.44101	25.22377	-11.39138	-14.64606	8.95037	-39.05616	-34.98781	-69.16195	-104.96343	-79.73966	0
852	-24.4101	-26.85111	-2.44101	25.22377	-11.39138	-14.64606	13.83239	-36.61515	-34.98781	-69.16195	-100.08141	-74.85764	0
853	-24.4101	-26.85111	-2.44101	25.22377	-11.39138	-14.64606	13.83239	-36.61515	-34.98781	-69.16195	-100.08141	-74.85764	0
854	-24.4101	-23.59643	0	22.78276	-11.39138	-12.20505	16.2734	-36.61515	-34.98781	-66.72094	-97.6404	-72.41663	0
855	-24.4101	-23.59643	0	22.78276	-11.39138	-12.20505	16.2734	-36.61515	-34.98781	-64.27993	-95.19939	-69.97562	0
856	-24.4101	-23.59643	0	22.78276	-11.39138	-12.20505	16.2734	-36.61515	-34.98781	-61.83892	-92.75838	-65.0936	0
857	-24.4101	-21.15542	2.44101	22.78276	-13.83239	-9.76404	16.2734	-36.61515	-27.66478	-59.39791	-87.87636	-62.65259	0
858	-24.4101	-21.15542	2.44101	22.78276	-13.83239	-9.76404	16.2734	-36.61515	-27.66478	-59.39791	-82.99434	-57.77057	0
859	-24.4101	-21.15542	2.44101	22.78276	-13.83239	-9.76404	13.83239	-39.05616	-27.66478	-59.39791	-80.55333	-52.88855	0
860	-24.4101	-21.15542	2.44101	22.78276	-13.83239	-9.76404	13.83239	-39.05616	-25.22377	-59.39791	-78.11232	-49.63387	0
861	-24.4101	-21.15542	2.44101	22.78276	-13.83239	-9.76404	13.83239	-39.05616	-22.78276	-56.9569	-75.67131	-47.19286	0
862	-24.4101	-21.15542	2.44101	22.78276	-13.83239	-9.76404	13.83239	-36.61515	-20.34175	-54.51589	-73.2303	-44.75185	0
863	-24.4101	-23.59643	0	22.78276	-11.39138	-12.20505	16.2734	-36.61515	-20.34175	-56.9569	-73.2303	-44.75185	0
864	-24.4101	-21.15542	2.44101	22.78276	-13.83239	-9.76404	16.2734	-36.61515	-20.34175	-56.9569	-73.2303	-44.75185	0
865	-24.4101	-21.15542	2.44101	22.78276	-13.83239	-9.76404	16.2734	-36.61515	-25.22377	-54.51589	-73.2303	-44.75185	0
866	-24.4101	-21.15542	2.44101	22.78276	-13.83239	-9.76404	16.2734	-39.05616	-25.22377	-52.07488	-73.2303	-44.75185	0
867	-26.85111	-18.71441	7.32303	22.78276	-16.2734	-7.32303	13.83239	-41.49717	-25.22377	-52.07488	-73.2303	-44.75185	0
868	-26.85111	-18.71441	7.32303	22.78276	-16.2734	-7.32303	13.83239	-43.93818	-25.22377	-52.07488	-70.78929	-39.86983	0
869	-24.4101	-16.2734	7.32303	20.34175	-16.2734	-4.88202	11.39138	-43.93818	-25.22377	-52.07488	-68.34828	-37.42882	0
870	-24.4101	-16.2734	7.32303	20.34175	-16.2734	-4.88202	13.83239	-43.93818	-25.22377	-52.07488	-68.34828	-34.98781	0
871	-26.85111	-18.71441	7.32303	22.78276	-16.2734	-7.32303	13.83239	-43.93818	-22.78276	-49.63387	-65.90727	-32.5468	0
872	-24.4101	-16.2734	7.32303	20.34175	-16.2734	-4.88202	16.2734	-41.49717	-22.78276	-47.19286	-63.46626	-30.10579	0
873	-24.4101	-16.2734	7.32303	20.34175	-16.2734	-4.88202	18.71441	-39.05616	-20.34175	-47.19286	-63.46626	-30.10579	0
874	-24.4101	-18.71441	4.88202	20.34175	-13.83239	-7.32303	18.71441	-39.05616	-20.34175	-47.19286	-63.46626	-30.10579	0
875	-21.96909	-18.71441	2.44101	20.34175	-11.39138	-9.76404	18.71441	-36.61515	-20.34175	-47.19286	-63.46626	-27.66478	0
876	-21.96909	-18.71441	2.44101	20.34175	-11.39138	-9.76404	18.71441	-36.61515	-20.34175	-43.93818	-63.46626	-27.66478	0
877	-19.52808	-16.2734	2.44101	17.90074	-11.39138	-7.32303	18.71441	-36.61515	-15.45973	-41.49717	-61.02525	-25.22377	0
878	-19.52808	-16.2734	2.44101	17.90074	-11.39138	-7.32303	16.2734	-36.61515	-15.45973	-41.49717	-61.02525	-22.78276	0
879	-19.52808	-16.2734	2.44101	17.90074	-11.39138	-7.32303	16.2734	-36.61515	-15.45973	-41.49717	-57.77057	-22.78276	0
880	-19.52808	-16.2734	2.44101	17.90074	-11.39138	-7.32303	18.71441	-36.61515	-15.45973	-41.49717	-57.77057	-22.78276	0
881	-19.52808	-16.2734	2.44101	17.90074	-11.39138	-7.32303	18.71441	-36.61515	-13.01872	-41.49717	-57.77057	-22.78276	0
882	-19.52808	-16.2734	2.44101	17.90074	-11.39138	-7.32303	21.15542	-36.61515	-10.57771	-41.49717	-57.77057	-20.34175	0
883	-21.96909	-16.2734	4.88202	17.90074	-13.83239	-7.32303	21.15542	-33.36047	-10.57771	-43.93818	-57.77057	-20.34175	0
884	-21.96909	-18.71441	2.44101	20.34175	-11.39138	-9.76404	21.15542	-30.91946	-10.57771	-43.93818	-57.77057	-22.78276	0
885	-26.85111	-18.71441	7.32303	22.78276	-16.2734	-7.32303	21.15542	-30.91946	-13.01872	-41.49717	-57.77057	-25.22377	0
886	-26.85111	-18.71441	7.32303	22.78276	-16.2734	-7.32303	21.15542	-30.91946	-13.01872	-39.05616	-57.77057	-25.22377	0
887	-26.85111	-18.71441	7.32303	22.78276	-16.2734	-7.32303	21.15542	-33.36047	-10.57771	-36.61515	-55.32956	-25.22377	0
888	-26.85111	-16.2734	9.76404	20.34175	-18.71441	-4.88202	18.71441	-33.36047	-8.1367	-36.61515	-52.88855	-22.78276	0
889	-24.4101	-16.2734	7.32303	20.34175	-16.2734	-4.88202	18.71441	-33.36047	-8.1367	-36.61515	-50.44754	-20.34175	0
890	-24.4101	-13.83239	9.76404	17.90074	-16.2734	-2.44101	21.15542	-28.47845	-8.1367	-36.61515	-50.44754	-17.90074	0
891	-24.4101	-11.39138	12.20505	17.90074	-18.71441	0	23.59643	-26.03744	-4.88202	-34.17414	-48.00653	-17.90074	0
892	-24.4101	-8.95037	14.64606	14.64606	-18.71441	2.44101	26.03744	-23.59643	-2.44101	-31.73313	-45.56552	-17.90074	0
893	-24.4101	-6.50936	17.08707	14.64606	-21.15542	4.88202	30.91946	-18.71441	-2.44101	-31.73313	-45.56552	-17.90074	0
894	-21.96909	-4.06835	17.08707	12.20505	-18.71441	4.88202	33.36047	-13.83239	0	-29.29212	-45.56552	-17.90074	0
895	-21.96909	-1.62734	19.52808	12.20505	-21.15542	7.32303	36.61515	-11.39138	0	-26.85111	-43.12451	-17.90074	0
896	-21.96909	3.25468	24.4101	9.76404	-23.59643	12.20505	36.61515	-11.39138	2.44101	-21.96909	-43.12451	-15.45973	0
897	-21.96909	8.1367	29.29212	7.32303	-26.03744	17.08707	39.05616	-8.95037	7.32303	-19.52808	-38.24249	-15.45973	0
898	-21.96909	13.01872	34.17414	4.88202	-28.47845	21.96909	41.49717	-6.50936	9.76404	-19.52808	-35.80148	-13.01872	0
899	-19.52808	13.01872	31.73313	2.44101	-26.03744	21.96909	43.93818	-1.62734	12.20505	-19.52808	-33.36047	-13.01872	0
900	-19.52808	15.45973	34.17414	2.44101	-26.03744	24.4101	48.8202	0.81367	14.64606	-19.52808	-33.36047	-13.01872	0
901	-19.52808	20.34175	39.05616	0	-28.47845	29.29212	53.70222	5.69569	17.08707	-17.08707	-33.36047	-13.01872	0
902	-19.52808	22.78276	41.49717	-2.44101	-30.91946	31.73313	56.14323	10.57771	19.52808	-17.08707	-30.91946	-13.01872	0
903	-17.08707	27.66478	43.93818	-4.88202	-30.91946	34.17414	61.02525	15.45973	19.52808	-17.08707	-30.91946	-13.01872	0
904	-17.08707	32.5468	48.8202	-7.32303	-33.36047	39.05616	63.46626	17.90074	21.96909	-14.64606	-30.91946	-17.90074	0
905	-17.08707	32.5468	48.8202	-7.32303	-33.36047	39.05616	65.90727	22.78276	21.96909	-12.20505	-28.47845	-17.90074	0
906	-12.20505	34.98781	46.37919	-12.20505	-28.47845	39.05616	65.90727	22.78276	24.4101	-7.32303	-26.03744	-17.90074	0
907	-12.20505	37.42882	48.8202	-12.20505	-30.91946	41.49717	65.90727	22.78276	29.29212	-7.32303	-21.15542	-17.90074	0
908	-7.32303	42.31084	48.8202	-17.08707	-28.47845	43.93818	63.46626	22.78276	31.73313	-7.32303	-18.71441	-17.90074	0
909	-4.88202	47.19286	51.26121	-21.96909	-28.47845	48.8202	58.58424	22.78276	34.17414	-4.88202	-16.2734	-15.45973	0
910	-4.88202	52.07488	56.14323	-24.4101	-30.91946	53.70222	56.14323	20.34175	36.61515	-2.44101	-13.83239	-13.01872	0
911	-4.88202	56.9569	61.02525	-26.85111	-33.36047	58.58424	48.8202	15.45973	36.61515	-2.44101	-13.83239	-13.01872	0
912	0.81367	61.83892	61.02525	-31.73313	-30.91946	61.02525	43.93818	13.01872	36.61515	-2.44101	-13.83239	-8.1367	0
913	3.25468	69.16195	65.90727	-36.61515	-30.91946	68.34828	36.61515	8.1367	31.73313	-4.88202	-13.83239	-5.69569	0
914	3.25468	74.04397	70.78929	-39.05616	-33.36047	73.2303	28.47845	-1.62734	26.85111	-7.32303	-16.2734	-5.69569	0
915	3.25468	81.367	78.11232	-41.49717	-38.24249	80.55333	18.71441	-8.95037	19.52808	-9.76404	-16.2734	-5.69569	0
916	3.25468	83.80801	80.55333	-43.93818	-38.24249	82.99434	8.95037	-18.71441	12.20505	-9.76404	-18.71441	-5.69569	0
917	3.25468	86.24902	82.99434	-43.93818	-40.6835	85.43535	-0.81367	-28.47845	7.32303	-14.64606	-18.71441	-3.25468	0
918	3.25468	86.24902	82.99434	-43.93818	-40.6835	85.43535	-10.57771	-36.61515	2.44101	-19.52808	-21.15542	-3.25468	0
919	3.25468	86.24902	82.99434	-43.93818	-40.6835	85.43535	-17.90074	-43.93818	-4.88202	-21.96909	-23.59643	-0.81367	0
920	3.25468	83.80801	80.55333	-43.93818	-38.24249	82.99434	-25.22377	-48.8202	-8.1367	-26.85111	-26.03744	-0.81367	0
921	3.25468	83.80801	80.55333	-43.93818	-38.24249	82.99434	-27.66478	-51.26121	-8.1367	-26.85111	-26.03744	-0.81367	0
922	5.69569	81.367	75.67131	-43.93818	-35.80148	78.11232	-27.66478	-51.26121	-10.57771	-26.85111	-26.03744	-0.81367	0
923	8.1367	78.92599	70.78929	-43.93818	-30.91946	75.67131	-30.10579	-48.8202	-10.57771	-26.85111	-28.47845	1.62734	0
924	15.45973	78.92599	63.46626	-46.37919	-23.59643	70.78929	-30.10579	-48.8202	-10.57771	-24.4101	-26.03744	4.06835	0
925	20.34175	81.367	61.02525	-51.26121	-21.15542	70.78929	-30.10579	-46.37919	-10.57771	-19.52808	-21.15542	6.50936	0
926	27.66478	81.367	53.70222	-53.70222	-13.83239	68.34828	-30.10579	-46.37919	-10.57771	-14.64606	-16.2734	11.39138	0
927	32.5468	81.367	48.8202	-56.14323	-8.95037	65.90727	-32.5468	-46.37919	-4.88202	-12.20505	-11.39138	16.2734	0
928	37.42882	81.367	43.93818	-58.58424	-4.06835	63.46626	-32.5468	-46.37919	-2.44101	-9.76404	-4.06835	21.15542	0
929	37.42882	76.48498	39.05616	-56.14323	-1.62734	58.58424	-34.98781	-46.37919	-2.44101	-9.76404	-1.62734	23.59643	0
930	37.42882	71.60296	34.17414	-53.70222	0.81367	53.70222	-34.98781	-46.37919	-4.88202	-12.20505	-1.62734	23.59643	0
931	37.42882	66.72094	29.29212	-51.26121	3.25468	48.8202	-34.98781	-48.8202	-8.1367	-14.64606	-4.06835	23.59643	0
932	32.5468	56.9569	24.4101	-43.93818	3.25468	41.49717	-34.98781	-51.26121	-10.57771	-19.52808	-8.95037	18.71441	0
933	30.10579	44.75185	14.64606	-36.61515	8.1367	29.29212	-34.98781	-51.26121	-15.45973	-26.85111	-16.2734	11.39138	0
934	22.78276	34.98781	12.20505	-29.29212	5.69569	24.4101	-34.98781	-56.14323	-22.78276	-34.17414	-26.03744	1.62734	0
935	17.90074	27.66478	9.76404	-21.96909	3.25468	19.52808	-32.5468	-56.14323	-30.10579	-39.05616	-35.80148	-8.1367	0
936	8.1367	17.90074	9.76404	-12.20505	-1.62734	14.64606	-30.10579	-61.02525	-37.42882	-47.19286	-45.56552	-17.90074	0
937	-1.62734	8.1367	9.76404	-2.44101	-6.50936	9.76404	-27.66478	-63.46626	-42.31084	-52.07488	-52.88855	-27.66478	0
938	-4.88202	-1.62734	2.44101	2.44101	-4.06835	0	-25.22377	-65.90727	-44.75185	-59.39791	-57.77057	-34.98781	0
939	-12.20505	-8.95037	2.44101	9.76404	-6.50936	-4.88202	-22.78276	-65.90727	-49.63387	-64.27993	-63.46626	-42.31084	0
940	-19.52808	-16.2734	2.44101	17.90074	-11.39138	-7.32303	-20.34175	-65.90727	-54.51589	-69.16195	-70.78929	-49.63387	0
941	-26.85111	-23.59643	2.44101	25.22377	-13.83239	-12.20505	-17.90074	-65.90727	-54.51589	-71.60296	-75.67131	-52.88855	0
942	-31.73313	-26.85111	4.88202	27.66478	-18.71441	-12.20505	-15.45973	-65.90727	-56.9569	-76.48498	-80.55333	-57.77057	0
943	-36.61515	-34.17414	2.44101	34.98781	-21.15542	-17.08707	-13.01872	-65.90727	-59.39791	-81.367	-85.43535	-62.65259	0
944	-36.61515	-39.05616	-2.44101	37.42882	-18.71441	-21.96909	-10.57771	-65.90727	-61.83892	-83.80801	-87.87636	-69.97562	0
945	-36.61515	-39.05616	-2.44101	37.42882	-18.71441	-21.96909	-10.57771	-65.90727	-64.27993	-83.80801	-87.87636	-69.97562	0
946	-34.17414	-43.93818	-9.76404	37.42882	-13.83239	-27.66478	-10.57771	-65.90727	-66.72094	-81.367	-90.31737	-72.41663	0
947	-31.73313	-46.37919	-14.64606	37.42882	-8.95037	-32.5468	-13.01872	-70.78929	-64.27993	-83.80801	-90.31737	-72.41663	0
948	-31.73313	-48.8202	-17.08707	39.86983	-8.95037	-34.98781	-13.01872	-70.78929	-64.27993	-83.80801	-90.31737	-72.41663	0
949	-29.29212	-48.8202	-19.52808	37.42882	-6.50936	-34.98781	-15.45973	-70.78929	-64.27993	-86.24902	-87.87636	-69.97562	0
950	-31.73313	-48.8202	-17.08707	39.86983	-8.95037	-34.98781	-15.45973	-70.78929	-64.27993	-86.24902	-87.87636	-69.97562	0
951	-34.17414	-51.26121	-17.08707	42.31084	-8.95037	-34.98781	-15.45973	-70.78929	-61.83892	-86.24902	-87.87636	-69.97562	0
952	-34.17414	-53.70222	-19.52808	42.31084	-8.95037	-37.42882	-15.45973	-70.78929	-59.39791	-86.24902	-85.43535	-69.97562	0
953	-34.17414	-56.14323	-22.78276	44.75185	-6.50936	-39.86983	-13.01872	-65.90727	-59.39791	-86.24902	-85.43535	-69.97562	0
954	-36.61515	-58.58424	-22.78276	47.19286	-8.95037	-42.31084	-10.57771	-65.90727	-59.39791	-86.24902	-87.87636	-72.41663	0
955	-39.05616	-61.02525	-22.78276	49.63387	-8.95037	-42.31084	-10.57771	-63.46626	-61.83892	-86.24902	-87.87636	-74.85764	0
956	-39.05616	-61.02525	-22.78276	49.63387	-8.95037	-42.31084	-8.1367	-63.46626	-61.83892	-83.80801	-87.87636	-77.29865	0
957	-39.05616	-61.02525	-22.78276	49.63387	-8.95037	-42.31084	-8.1367	-63.46626	-56.9569	-83.80801	-87.87636	-77.29865	0
958	-39.05616	-61.02525	-22.78276	49.63387	-8.95037	-42.31084	-5.69569	-61.02525	-56.9569	-83.80801	-87.87636	-77.29865	0
959	-34.17414	-58.58424	-25.22377	44.75185	-6.50936	-42.31084	-5.69569	-58.58424	-54.51589	-81.367	-85.43535	-74.85764	0
960	-31.73313	-53.70222	-22.78276	42.31084	-6.50936	-39.86983	-3.25468	-58.58424	-49.63387	-81.367	-82.99434	-72.41663	0
961	-31.73313	-53.70222	-22.78276	42.31084	-6.50936	-39.86983	-0.81367	-58.58424	-47.19286	-81.367	-82.99434	-72.41663	0
962	-34.17414	-51.26121	-17.08707	42.31084	-8.95037	-34.98781	-0.81367	-56.14323	-47.19286	-78.92599	-82.99434	-72.41663	0
963	-34.17414	-51.26121	-17.08707	42.31084	-8.95037	-34.98781	4.06835	-53.70222	-44.75185	-78.92599	-82.99434	-72.41663	0
964	-34.17414	-48.8202	-14.64606	39.86983	-11.39138	-32.5468	4.06835	-53.70222	-42.31084	-78.92599	-82.99434	-72.41663	0
965	-34.17414	-46.37919	-12.20505	39.86983	-11.39138	-30.10579	4.06835	-53.70222	-44.75185	-76.48498	-82.99434	-72.41663	0
966	-34.17414	-46.37919	-12.20505	39.86983	-11.39138	-30.10579	4.06835	-53.70222	-47.19286	-74.04397	-85.43535	-72.41663	0
967	-34.17414	-46.37919	-12.20505	39.86983	-11.39138	-30.10579	4.06835	-56.14323	-47.19286	-74.04397	-85.43535	-74.85764	0
968	-36.61515	-51.26121	-14.64606	42.31084	-11.39138	-34.98781	4.06835	-56.14323	-47.19286	-74.04397	-82.99434	-74.85764	0
969	-36.61515	-51.26121	-14.64606	42.31084	-11.39138	-34.98781	4.06835	-56.14323	-47.19286	-74.04397	-80.55333	-69.97562	0
970	-36.61515	-51.26121	-14.64606	42.31084	-11.39138	-34.98781	4.06835	-56.14323	-47.19286	-74.04397	-80.55333	-69.97562	0
971	-34.17414	-51.26121	-17.08707	42.31084	-8.95037	-34.98781	4.06835	-56.14323	-44.75185	-74.04397	-80.55333	-67.53461	0
972	-34.17414	-51.26121	-17.08707	42.31084	-8.95037	-34.98781	6.50936	-56.14323	-44.75185	-71.60296	-78.11232	-67.53461	0
973	-34.17414	-53.70222	-19.52808	42.31084	-8.95037	-37.42882	6.50936	-53.70222	-42.31084	-71.60296	-78.11232	-65.0936	0
974	-34.17414	-56.14323	-22.78276	44.75185	-6.50936	-39.86983	8.95037	-53.70222	-42.31084	-71.60296	-75.67131	-65.0936	0
975	-31.73313	-53.70222	-22.78276	42.31084	-6.50936	-39.86983	11.39138	-51.26121	-42.31084	-69.16195	-75.67131	-65.0936	0
976	-31.73313	-53.70222	-22.78276	42.31084	-6.50936	-39.86983	11.39138	-51.26121	-42.31084	-69.16195	-73.2303	-65.0936	0
977	-31.73313	-53.70222	-22.78276	42.31084	-6.50936	-39.86983	8.95037	-53.70222	-42.31084	-66.72094	-73.2303	-65.0936	0
978	-29.29212	-51.26121	-22.78276	39.86983	-4.06835	-37.42882	8.95037	-56.14323	-42.31084	-69.16195	-73.2303	-65.0936	0
979	-29.29212	-48.8202	-19.52808	37.42882	-6.50936	-34.98781	6.50936	-56.14323	-42.31084	-69.16195	-73.2303	-65.0936	0
980	-29.29212	-48.8202	-19.52808	37.42882	-6.50936	-34.98781	6.50936	-56.14323	-42.31084	-69.16195	-73.2303	-65.0936	0
981	-29.29212	-48.8202	-19.52808	37.42882	-6.50936	-34.98781	6.50936	-56.14323	-42.31084	-69.16195	-73.2303	-65.0936	0
982	-29.29212	-48.8202	-19.52808	37.42882	-6.50936	-34.98781	4.06835	-56.14323	-42.31084	-69.16195	-73.2303	-65.0936	0
983	-29.29212	-48.8202	-19.52808	37.42882	-6.50936	-34.98781	4.06835	-56.14323	-42.31084	-71.60296	-73.2303	-65.0936	0
984	-29.29212	-48.8202	-19.52808	37.42882	-6.50936	-34.98781	4.06835	-53.70222	-39.86983	-71.60296	-73.2303	-69.97562	0
985	-29.29212	-51.26121	-22.78276	39.86983	-4.06835	-37.42882	4.06835	-53.70222	-42.31084	-71.60296	-75.67131	-69.97562	0
986	-34.17414	-53.70222	-19.52808	42.31084	-8.95037	-37.42882	4.06835	-53.70222	-42.31084	-71.60296	-75.67131	-72.41663	0
987	-34.17414	-53.70222	-19.52808	42.31084	-8.95037	-37.42882	4.06835	-53.70222	-39.86983	-71.60296	-75.67131	-74.85764	0
988	-34.17414	-53.70222	-19.52808	42.31084	-8.95037	-37.42882	4.06835	-53.70222	-37.42882	-71.60296	-73.2303	-74.85764	0
989	-29.29212	-53.70222	-25.22377	39.86983	-4.06835	-39.86983	4.06835	-53.70222	-39.86983	-71.60296	-70.78929	-72.41663	0
990	-26.85111	-53.70222	-27.66478	39.86983	-1.62734	-42.31084	4.06835	-53.70222	-39.86983	-74.04397	-70.78929	-69.97562	0
991	-26.85111	-53.70222	-27.66478	39.86983	-1.62734	-42.31084	4.06835	-53.70222	-39.86983	-76.48498	-73.2303	-69.97562	0
992	-26.85111	-58.58424	-32.5468	42.31084	0.81367	-47.19286	1.62734	-56.14323	-44.75185	-76.48498	-73.2303	-72.41663	0
