samplenr	I	II	III	aVR	aVL	aVF	V1	V2	V3	V4	V5	V6	measurement
0	13.01872	-58.58424	-70.78929	21.96909	40.6835	-63.46626	12.20505	8.1367	3.25468	-63.46626	-2.44101	-36.61515	0
1	13.01872	-61.02525	-73.2303	21.96909	43.12451	-65.90727	12.20505	8.1367	0	-65.90727	-2.44101	-36.61515	0
2	15.45973	-61.02525	-75.67131	21.96909	45.56552	-68.34828	9.76404	3.25468	-4.88202	-70.78929	-2.44101	-39.05616	0
3	17.90074	-61.02525	-78.11232	19.52808	48.00653	-68.34828	6.50936	0.81367	-4.88202	-73.2303	-4.88202	-39.05616	0
4	20.34175	-61.02525	-80.55333	19.52808	50.44754	-70.78929	6.50936	0.81367	-4.88202	-75.67131	-7.32303	-39.05616	0
5	22.78276	-58.58424	-80.55333	17.08707	50.44754	-68.34828	6.50936	0.81367	-4.88202	-75.67131	-7.32303	-41.49717	0
6	20.34175	-56.14323	-75.67131	17.08707	48.00653	-65.90727	6.50936	3.25468	-2.44101	-73.2303	-7.32303	-41.49717	0
7	15.45973	-56.14323	-70.78929	19.52808	43.12451	-63.46626	6.50936	3.25468	-2.44101	-70.78929	-4.88202	-41.49717	0
8	10.57771	-56.14323	-65.90727	21.96909	38.24249	-61.02525	6.50936	3.25468	0	-70.78929	-4.88202	-39.05616	0
9	8.1367	-58.58424	-65.90727	24.4101	35.80148	-61.02525	6.50936	3.25468	0	-68.34828	-4.88202	-39.05616	0
10	5.69569	-61.02525	-65.90727	26.85111	35.80148	-63.46626	6.50936	5.69569	5.69569	-63.46626	-2.44101	-36.61515	0
11	3.25468	-65.90727	-68.34828	29.29212	35.80148	-65.90727	12.20505	8.1367	3.25468	-63.46626	0	-36.61515	0
12	5.69569	-63.46626	-68.34828	26.85111	35.80148	-65.90727	12.20505	8.1367	0	-61.02525	0	-34.17414	0
13	8.1367	-61.02525	-68.34828	24.4101	38.24249	-63.46626	12.20505	8.1367	0	-61.02525	0	-34.17414	0
14	10.57771	-61.02525	-70.78929	24.4101	40.6835	-65.90727	12.20505	8.1367	0	-63.46626	-2.44101	-34.17414	0
15	10.57771	-61.02525	-70.78929	24.4101	40.6835	-65.90727	9.76404	5.69569	0	-65.90727	-2.44101	-39.05616	0
16	8.1367	-65.90727	-73.2303	26.85111	40.6835	-68.34828	6.50936	3.25468	0	-65.90727	-2.44101	-41.49717	0
17	5.69569	-65.90727	-70.78929	29.29212	38.24249	-68.34828	6.50936	3.25468	-2.44101	-65.90727	-2.44101	-41.49717	0
18	8.1367	-63.46626	-70.78929	26.85111	38.24249	-65.90727	4.06835	3.25468	0	-65.90727	0	-41.49717	0
19	10.57771	-58.58424	-68.34828	21.96909	38.24249	-63.46626	4.06835	3.25468	0	-65.90727	0	-39.05616	0
20	13.01872	-56.14323	-68.34828	19.52808	40.6835	-61.02525	4.06835	3.25468	0	-61.02525	0	-39.05616	0
21	10.57771	-58.58424	-68.34828	21.96909	38.24249	-63.46626	4.06835	3.25468	-2.44101	-61.02525	2.44101	-39.05616	0
22	8.1367	-58.58424	-65.90727	24.4101	35.80148	-61.02525	4.06835	3.25468	-2.44101	-61.02525	4.88202	-36.61515	0
23	10.57771	-58.58424	-68.34828	21.96909	38.24249	-63.46626	4.06835	5.69569	0	-61.02525	4.88202	-34.17414	0
24	15.45973	-56.14323	-70.78929	19.52808	43.12451	-63.46626	4.06835	8.1367	0	-58.58424	4.88202	-31.73313	0
25	22.78276	-51.26121	-73.2303	12.20505	48.00653	-61.02525	6.50936	8.1367	3.25468	-56.14323	7.32303	-34.17414	0
26	22.78276	-48.8202	-70.78929	12.20505	45.56552	-58.58424	6.50936	10.57771	3.25468	-56.14323	7.32303	-36.61515	0
27	22.78276	-51.26121	-73.2303	12.20505	48.00653	-61.02525	4.06835	10.57771	3.25468	-56.14323	7.32303	-36.61515	0
28	20.34175	-51.26121	-70.78929	14.64606	45.56552	-61.02525	1.62734	10.57771	3.25468	-56.14323	4.88202	-39.05616	0
29	20.34175	-48.8202	-68.34828	12.20505	43.12451	-58.58424	4.06835	13.01872	8.1367	-56.14323	7.32303	-36.61515	0
30	20.34175	-43.93818	-63.46626	9.76404	40.6835	-53.70222	6.50936	17.90074	13.01872	-48.8202	12.20505	-31.73313	0
31	22.78276	-31.73313	-53.70222	2.44101	38.24249	-41.49717	12.20505	22.78276	15.45973	-46.37919	17.08707	-29.29212	0
32	25.22377	-24.4101	-48.8202	-0.81367	35.80148	-36.61515	14.64606	22.78276	15.45973	-43.93818	17.08707	-26.85111	0
33	27.66478	-19.52808	-46.37919	-5.69569	35.80148	-31.73313	17.08707	22.78276	17.90074	-43.93818	17.08707	-26.85111	0
34	27.66478	-17.08707	-43.93818	-5.69569	35.80148	-29.29212	19.52808	27.66478	22.78276	-41.49717	17.08707	-24.4101	0
35	27.66478	-9.76404	-36.61515	-10.57771	30.91946	-21.96909	24.4101	32.5468	27.66478	-36.61515	19.52808	-21.96909	0
36	25.22377	-2.44101	-26.85111	-13.01872	26.03744	-14.64606	26.85111	38.24249	34.98781	-29.29212	24.4101	-17.08707	0
37	22.78276	3.25468	-19.52808	-13.01872	21.15542	-7.32303	29.29212	43.12451	39.86983	-21.96909	29.29212	-14.64606	0
38	22.78276	8.1367	-14.64606	-15.45973	18.71441	-2.44101	26.85111	43.12451	42.31084	-21.96909	31.73313	-14.64606	0
39	25.22377	10.57771	-14.64606	-17.90074	21.15542	-2.44101	21.96909	43.12451	42.31084	-21.96909	31.73313	-11.39138	0
40	22.78276	10.57771	-12.20505	-17.90074	18.71441	0.81367	19.52808	43.12451	44.75185	-17.08707	34.17414	-8.95037	0
41	22.78276	13.01872	-9.76404	-17.90074	16.2734	3.25468	17.08707	43.12451	44.75185	-17.08707	36.61515	-4.06835	0
42	22.78276	17.90074	-4.88202	-20.34175	13.83239	8.1367	9.76404	38.24249	42.31084	-14.64606	39.05616	-1.62734	0
43	25.22377	17.90074	-7.32303	-22.78276	16.2734	5.69569	4.06835	32.5468	39.86983	-19.52808	34.17414	-1.62734	0
44	25.22377	17.90074	-7.32303	-22.78276	16.2734	5.69569	-3.25468	25.22377	34.98781	-21.96909	29.29212	-1.62734	0
45	27.66478	17.90074	-9.76404	-22.78276	18.71441	5.69569	-10.57771	17.90074	32.5468	-21.96909	26.85111	-6.50936	0
46	30.10579	15.45973	-14.64606	-22.78276	23.59643	0.81367	-17.90074	13.01872	30.10579	-24.4101	24.4101	-6.50936	0
47	34.98781	17.90074	-17.08707	-27.66478	26.03744	0.81367	-25.22377	10.57771	30.10579	-24.4101	24.4101	-4.06835	0
48	32.5468	13.01872	-19.52808	-22.78276	26.03744	-2.44101	-34.98781	5.69569	27.66478	-26.85111	24.4101	-1.62734	0
49	37.42882	13.01872	-24.4101	-25.22377	30.91946	-4.88202	-39.86983	3.25468	27.66478	-26.85111	24.4101	0.81367	0
50	44.75185	15.45973	-29.29212	-30.10579	38.24249	-7.32303	-39.86983	3.25468	27.66478	-21.96909	26.85111	0.81367	0
51	52.07488	17.90074	-34.17414	-34.98781	43.12451	-7.32303	-39.86983	5.69569	27.66478	-21.96909	31.73313	5.69569	0
52	59.39791	20.34175	-39.05616	-39.86983	50.44754	-9.76404	-39.86983	8.1367	27.66478	-19.52808	34.17414	10.57771	0
53	64.27993	20.34175	-43.93818	-42.31084	55.32956	-12.20505	-42.31084	10.57771	32.5468	-19.52808	36.61515	13.01872	0
54	66.72094	17.90074	-48.8202	-42.31084	57.77057	-14.64606	-39.86983	15.45973	37.42882	-17.08707	39.05616	17.90074	0
55	66.72094	15.45973	-51.26121	-42.31084	60.21158	-17.08707	-37.42882	20.34175	42.31084	-12.20505	41.49717	20.34175	0
56	74.04397	15.45973	-58.58424	-44.75185	67.53461	-21.96909	-32.5468	27.66478	49.63387	-9.76404	43.93818	20.34175	0
57	78.92599	20.34175	-58.58424	-49.63387	69.97562	-19.52808	-27.66478	35.80148	56.9569	-1.62734	51.26121	25.22377	0
58	83.80801	22.78276	-61.02525	-54.51589	72.41663	-19.52808	-25.22377	43.12451	64.27993	0.81367	56.14323	30.10579	0
59	83.80801	22.78276	-61.02525	-54.51589	72.41663	-19.52808	-20.34175	48.00653	69.16195	5.69569	61.02525	34.98781	0
60	83.80801	20.34175	-63.46626	-52.07488	74.85764	-21.96909	-17.90074	52.88855	71.60296	10.57771	63.46626	37.42882	0
61	83.80801	20.34175	-63.46626	-52.07488	74.85764	-21.96909	-13.01872	55.32956	71.60296	13.01872	68.34828	42.31084	0
62	86.24902	22.78276	-63.46626	-54.51589	74.85764	-19.52808	-8.1367	57.77057	71.60296	15.45973	68.34828	44.75185	0
63	88.69003	27.66478	-61.02525	-59.39791	74.85764	-17.08707	-5.69569	57.77057	76.48498	15.45973	70.78929	44.75185	0
64	83.80801	25.22377	-58.58424	-54.51589	72.41663	-17.08707	-3.25468	57.77057	76.48498	13.01872	65.90727	42.31084	0
65	71.60296	17.90074	-53.70222	-44.75185	62.65259	-17.08707	-0.81367	55.32956	71.60296	8.1367	61.02525	34.98781	0
66	61.83892	8.1367	-53.70222	-34.98781	57.77057	-21.96909	-0.81367	48.00653	61.83892	0.81367	48.8202	22.78276	0
67	49.63387	-2.44101	-51.26121	-25.22377	50.44754	-26.85111	-0.81367	45.56552	56.9569	-4.06835	41.49717	15.45973	0
68	34.98781	-4.88202	-39.05616	-15.45973	35.80148	-21.96909	4.06835	45.56552	54.51589	-9.76404	34.17414	8.1367	0
69	25.22377	-12.20505	-36.61515	-8.1367	30.91946	-24.4101	6.50936	43.12451	52.07488	-17.08707	26.85111	0.81367	0
70	20.34175	-17.08707	-36.61515	-3.25468	28.47845	-26.85111	9.76404	40.6835	47.19286	-21.96909	21.96909	-6.50936	0
71	10.57771	-26.85111	-36.61515	7.32303	23.59643	-31.73313	12.20505	35.80148	37.42882	-26.85111	17.08707	-11.39138	0
72	5.69569	-31.73313	-36.61515	12.20505	21.15542	-34.17414	14.64606	32.5468	30.10579	-31.73313	14.64606	-14.64606	0
73	3.25468	-36.61515	-39.05616	14.64606	21.15542	-36.61515	14.64606	30.10579	27.66478	-39.05616	7.32303	-19.52808	0
74	3.25468	-36.61515	-39.05616	14.64606	21.15542	-36.61515	17.08707	30.10579	25.22377	-41.49717	4.88202	-21.96909	0
75	8.1367	-31.73313	-39.05616	9.76404	23.59643	-34.17414	17.08707	30.10579	22.78276	-41.49717	2.44101	-24.4101	0
76	13.01872	-29.29212	-41.49717	7.32303	26.03744	-34.17414	17.08707	27.66478	22.78276	-41.49717	0	-26.85111	0
77	15.45973	-24.4101	-39.05616	2.44101	26.03744	-31.73313	14.64606	27.66478	22.78276	-41.49717	-2.44101	-26.85111	0
78	10.57771	-24.4101	-34.17414	4.88202	21.15542	-29.29212	14.64606	27.66478	22.78276	-41.49717	-2.44101	-26.85111	0
79	8.1367	-24.4101	-31.73313	7.32303	18.71441	-26.85111	14.64606	27.66478	25.22377	-41.49717	-4.88202	-26.85111	0
80	5.69569	-24.4101	-29.29212	7.32303	16.2734	-26.85111	14.64606	27.66478	25.22377	-39.05616	-7.32303	-26.85111	0
81	0	-24.4101	-24.4101	9.76404	11.39138	-24.4101	17.08707	30.10579	22.78276	-39.05616	-9.76404	-26.85111	0
82	0	-24.4101	-24.4101	9.76404	11.39138	-24.4101	21.96909	30.10579	22.78276	-39.05616	-12.20505	-24.4101	0
83	-2.44101	-24.4101	-21.96909	12.20505	8.95037	-24.4101	21.96909	30.10579	22.78276	-39.05616	-14.64606	-21.96909	0
84	-9.76404	-26.85111	-17.08707	17.08707	4.06835	-21.96909	24.4101	32.5468	25.22377	-41.49717	-20.34175	-21.96909	0
85	-12.20505	-29.29212	-17.08707	19.52808	0.81367	-24.4101	24.4101	32.5468	25.22377	-41.49717	-27.66478	-26.85111	0
86	-7.32303	-29.29212	-21.96909	17.08707	6.50936	-26.85111	21.96909	30.10579	25.22377	-41.49717	-34.98781	-31.73313	0
87	0	-29.29212	-29.29212	12.20505	13.83239	-29.29212	19.52808	30.10579	22.78276	-41.49717	-42.31084	-31.73313	0
88	0	-29.29212	-29.29212	12.20505	13.83239	-29.29212	19.52808	30.10579	22.78276	-43.93818	-49.63387	-31.73313	0
89	0	-29.29212	-29.29212	12.20505	13.83239	-29.29212	19.52808	27.66478	22.78276	-43.93818	-52.07488	-31.73313	0
90	0	-31.73313	-31.73313	14.64606	16.2734	-31.73313	19.52808	27.66478	22.78276	-43.93818	-56.9569	-31.73313	0
91	-2.44101	-34.17414	-31.73313	17.08707	13.83239	-34.17414	19.52808	25.22377	15.45973	-46.37919	-59.39791	-31.73313	0
92	-4.88202	-39.05616	-34.17414	19.52808	13.83239	-36.61515	19.52808	22.78276	13.01872	-46.37919	-61.83892	-34.17414	0
93	-7.32303	-41.49717	-34.17414	21.96909	13.83239	-39.05616	19.52808	20.34175	13.01872	-51.26121	-64.27993	-36.61515	0
94	-14.64606	-46.37919	-31.73313	29.29212	8.95037	-39.05616	19.52808	20.34175	13.01872	-51.26121	-64.27993	-36.61515	0
95	-21.96909	-53.70222	-31.73313	36.61515	4.06835	-43.93818	19.52808	22.78276	13.01872	-48.8202	-64.27993	-36.61515	0
96	-26.85111	-56.14323	-29.29212	39.05616	0.81367	-43.93818	19.52808	22.78276	13.01872	-48.8202	-64.27993	-39.05616	0
97	-21.96909	-53.70222	-31.73313	36.61515	4.06835	-43.93818	19.52808	22.78276	13.01872	-48.8202	-64.27993	-39.05616	0
98	-19.52808	-51.26121	-31.73313	34.17414	6.50936	-41.49717	17.08707	22.78276	13.01872	-48.8202	-64.27993	-39.05616	0
99	-17.08707	-48.8202	-31.73313	31.73313	6.50936	-41.49717	14.64606	22.78276	13.01872	-48.8202	-64.27993	-41.49717	0
100	-14.64606	-48.8202	-34.17414	29.29212	8.95037	-41.49717	14.64606	22.78276	13.01872	-46.37919	-64.27993	-41.49717	1000	P+0
101	-14.64606	-48.8202	-34.17414	29.29212	8.95037	-41.49717	14.64606	22.78276	10.57771	-46.37919	-61.83892	-39.05616	0
102	-17.08707	-51.26121	-34.17414	31.73313	8.95037	-43.93818	14.64606	22.78276	8.1367	-43.93818	-59.39791	-36.61515	0
103	-21.96909	-51.26121	-29.29212	34.17414	4.06835	-41.49717	14.64606	20.34175	5.69569	-46.37919	-61.83892	-39.05616	0
104	-21.96909	-53.70222	-31.73313	36.61515	4.06835	-43.93818	12.20505	20.34175	5.69569	-48.8202	-66.72094	-39.05616	0
105	-21.96909	-56.14323	-34.17414	36.61515	6.50936	-46.37919	12.20505	20.34175	5.69569	-46.37919	-66.72094	-41.49717	0
106	-24.4101	-56.14323	-31.73313	39.05616	4.06835	-43.93818	9.76404	20.34175	3.25468	-46.37919	-69.16195	-43.93818	0
107	-21.96909	-56.14323	-34.17414	36.61515	6.50936	-46.37919	6.50936	20.34175	3.25468	-46.37919	-69.16195	-46.37919	0
108	-19.52808	-56.14323	-36.61515	36.61515	8.95037	-46.37919	4.06835	20.34175	3.25468	-46.37919	-69.16195	-46.37919	0
109	-19.52808	-56.14323	-36.61515	36.61515	8.95037	-46.37919	4.06835	20.34175	5.69569	-46.37919	-66.72094	-43.93818	0
110	-17.08707	-53.70222	-36.61515	34.17414	8.95037	-46.37919	4.06835	22.78276	8.1367	-41.49717	-61.83892	-41.49717	0
111	-9.76404	-46.37919	-36.61515	26.85111	13.83239	-41.49717	6.50936	22.78276	5.69569	-39.05616	-56.9569	-39.05616	0
112	-4.88202	-41.49717	-36.61515	21.96909	16.2734	-39.05616	6.50936	22.78276	3.25468	-39.05616	-56.9569	-36.61515	0
113	0	-41.49717	-41.49717	19.52808	21.15542	-41.49717	4.06835	17.90074	3.25468	-43.93818	-54.51589	-36.61515	0
114	0	-43.93818	-43.93818	19.52808	21.15542	-43.93818	1.62734	17.90074	3.25468	-43.93818	-56.9569	-36.61515	0
115	-2.44101	-46.37919	-43.93818	21.96909	21.15542	-46.37919	1.62734	17.90074	3.25468	-41.49717	-56.9569	-36.61515	0
116	-9.76404	-51.26121	-41.49717	29.29212	16.2734	-46.37919	1.62734	20.34175	5.69569	-39.05616	-56.9569	-39.05616	0
117	-19.52808	-56.14323	-36.61515	36.61515	8.95037	-46.37919	1.62734	22.78276	10.57771	-36.61515	-56.9569	-36.61515	0
118	-17.08707	-58.58424	-41.49717	36.61515	11.39138	-51.26121	-0.81367	22.78276	10.57771	-36.61515	-59.39791	-36.61515	0
119	-12.20505	-61.02525	-48.8202	34.17414	18.71441	-56.14323	-3.25468	20.34175	10.57771	-39.05616	-61.83892	-36.61515	0
120	-12.20505	-61.02525	-48.8202	34.17414	18.71441	-56.14323	-3.25468	22.78276	13.01872	-36.61515	-61.83892	-36.61515	0
121	-14.64606	-61.02525	-46.37919	36.61515	16.2734	-53.70222	-0.81367	25.22377	13.01872	-34.17414	-59.39791	-34.17414	0
122	-19.52808	-61.02525	-41.49717	39.05616	11.39138	-51.26121	1.62734	27.66478	13.01872	-34.17414	-54.51589	-31.73313	0
123	-19.52808	-61.02525	-41.49717	39.05616	11.39138	-51.26121	1.62734	25.22377	13.01872	-34.17414	-54.51589	-31.73313	0
124	-14.64606	-61.02525	-46.37919	36.61515	16.2734	-53.70222	-0.81367	22.78276	5.69569	-36.61515	-56.9569	-31.73313	0
125	-7.32303	-61.02525	-53.70222	31.73313	23.59643	-58.58424	-3.25468	13.01872	-7.32303	-51.26121	-54.51589	-34.17414	0
126	0	-61.02525	-61.02525	29.29212	30.91946	-61.02525	-3.25468	13.01872	10.57771	-48.8202	-69.16195	-36.61515	0
127	-4.88202	-61.02525	-56.14323	31.73313	26.03744	-58.58424	-3.25468	15.45973	32.5468	-39.05616	-71.60296	-46.37919	0
128	0	-58.58424	-58.58424	26.85111	28.47845	-58.58424	-5.69569	35.80148	22.78276	-24.4101	-76.48498	-48.8202	0
129	5.69569	-70.78929	-75.67131	31.73313	40.6835	-73.2303	-5.69569	43.12451	27.66478	-17.08707	-56.9569	-48.8202	0
130	-7.32303	-73.2303	-65.90727	39.05616	28.47845	-70.78929	-3.25468	74.85764	56.9569	-9.76404	-39.86983	-11.39138	0
131	-7.32303	-53.70222	-46.37919	29.29212	18.71441	-51.26121	4.06835	162.734	93.57205	17.90074	-9.76404	10.57771	0
132	34.98781	-46.37919	-80.55333	4.88202	57.77057	-63.46626	-8.1367	211.5542	152.15629	56.9569	21.96909	25.22377	0
133	52.07488	-73.2303	-124.49151	9.76404	87.06269	-97.6404	-10.57771	262.81541	220.50457	122.86417	70.78929	49.63387	0
134	86.24902	-112.28646	-197.72181	12.20505	140.76491	-153.78363	-42.31084	353.13278	323.02699	193.65346	144.01959	93.57205	0
135	98.45407	-122.0505	-219.6909	9.76404	157.85198	-170.8707	-69.16195	401.95298	442.63648	293.73487	246.54201	169.24336	0
136	166.80235	-112.28646	-278.27514	-27.66478	221.31824	-195.2808	-103.33609	458.09621	603.74314	423.1084	341.7414	225.38659	0
137	213.18154	-112.28646	-324.65433	-52.07488	267.69743	-217.24989	-127.74619	480.0653	772.17283	564.68698	480.87897	327.90901	0
138	264.44275	-104.96343	-368.59251	-81.367	316.51763	-236.77797	-179.0074	482.50631	921.07444	759.96778	646.86765	457.28254	0
139	320.58598	-124.49151	-444.26382	-98.45407	382.4249	-283.15716	-240.03265	441.00914	1074.85807	945.48454	859.23552	606.18415	0
140	381.61123	-85.43535	-466.23291	-149.71528	423.92207	-275.83413	-298.61689	409.27601	1226.20069	1121.23726	1064.28036	791.70091	0
141	449.95951	-51.26121	-500.40705	-200.97649	475.18328	-275.83413	-393.81628	340.92773	1340.92816	1287.22594	1269.3252	957.68959	0
142	496.3387	-14.64606	-510.17109	-242.47366	502.03439	-261.18807	-513.42577	211.5542	1345.81018	1355.57422	1393.81671	1084.62211	0
143	518.30779	44.75185	-473.55594	-281.52982	497.15237	-214.80888	-569.569	-1.62734	1157.85241	1257.93382	1369.40661	1104.15019	0
144	486.57466	88.69003	-397.88463	-288.85285	443.45015	-153.78363	-635.47627	-350.69177	713.58859	933.27949	1171.6848	1011.39181	0
145	413.34436	100.89508	-312.44928	-257.11972	362.89682	-104.96343	-667.2094	-714.40226	242.47366	557.36395	908.05572	862.4902	0
146	308.38093	88.69003	-219.6909	-198.53548	265.25642	-65.90727	-718.47061	-1065.9077	-163.54767	225.38659	617.57553	679.41445	0
147	240.03265	88.69003	-151.34262	-164.36134	196.90814	-31.73313	-752.64475	-1388.12102	-554.10927	-73.2303	363.71049	525.63082	0
148	166.80235	61.83892	-104.96343	-115.54114	135.88289	-21.96909	-786.81889	-1681.04222	-976.404	-366.1515	78.11232	342.55507	0
149	103.33609	54.51589	-48.8202	-78.92599	77.29865	3.25468	-806.34697	-1908.05615	-1288.85328	-602.92947	-144.83326	174.12538	0
150	17.90074	49.63387	32.5468	-34.98781	-6.50936	42.31084	-820.99303	-1949.55332	-1396.25772	-727.42098	-296.17588	56.9569	0
151	-43.93818	-4.88202	39.86983	21.96909	-43.12451	17.90074	-806.34697	-1849.47191	-1366.9656	-788.44623	-432.87244	-100.08141	0
152	-65.90727	25.22377	91.13104	19.52808	-77.29865	56.9569	-735.55768	-1659.07313	-1244.9151	-754.27209	-469.48759	-170.8707	0
153	-87.87636	34.98781	122.86417	24.4101	-104.14976	78.92599	-645.24031	-1463.79233	-1091.13147	-644.42664	-423.1084	-153.78363	0
154	-80.55333	127.74619	208.29952	-25.22377	-143.20592	166.80235	-554.92294	-1251.42446	-920.26077	-524.81715	-342.55507	-107.40444	0
155	-122.0505	117.98215	240.03265	-0.81367	-179.82107	179.0074	-486.57466	-1085.43578	-807.97431	-463.7919	-313.26295	-102.52242	0
156	-139.13757	135.06922	274.20679	-0.81367	-206.67218	203.4175	-442.63648	-904.80104	-654.19068	-373.47453	-276.6478	-90.31737	0
157	-80.55333	193.65346	274.20679	-56.9569	-177.38006	232.70962	-391.37527	-746.13539	-512.6121	-349.06443	-230.26861	-65.90727	0
158	-53.70222	186.33043	240.03265	-66.72094	-145.64693	213.18154	-342.55507	-628.96691	-461.35089	-297.80322	-213.18154	-56.14323	0
159	-48.8202	191.21245	240.03265	-71.60296	-143.20592	215.62255	-320.58598	-580.14671	-432.05877	-229.45494	-213.18154	-68.34828	0
160	-43.93818	191.21245	235.15063	-74.04397	-138.3239	213.18154	-301.0579	-526.44449	-400.32564	-224.57292	-196.09447	-65.90727	0
161	-36.61515	183.88942	220.50457	-74.04397	-128.55986	200.97649	-249.79669	-455.6552	-346.62342	-195.2808	-186.33043	-68.34828	0
162	-36.61515	171.68437	208.29952	-69.16195	-121.23683	188.77144	-198.53548	-389.74793	-297.80322	-163.54767	-164.36134	-75.67131	0
163	-43.93818	154.5973	198.53548	-56.9569	-121.23683	176.56639	-144.83326	-338.48672	-268.5111	-129.37353	-183.88942	-82.99434	0
164	-53.70222	139.95124	193.65346	-44.75185	-123.67784	166.80235	-132.62821	-311.63561	-261.18807	-144.01959	-181.44841	-87.87636	0
165	-65.90727	130.1872	196.09447	-32.5468	-131.00087	161.92033	-113.10013	-296.98955	-256.30605	-153.78363	-176.56639	-90.31737	0
166	-75.67131	122.86417	198.53548	-25.22377	-135.88289	159.47932	-120.42316	-284.7845	-229.45494	-131.81454	-174.12538	-95.19939	0
167	-80.55333	115.54114	196.09447	-17.90074	-138.3239	154.5973	-108.21811	-275.02046	-212.36787	-124.49151	-171.68437	-97.6404	0
168	-82.99434	113.10013	196.09447	-15.45973	-138.3239	154.5973	-100.89508	-250.61036	-209.92686	-119.60949	-171.68437	-100.08141	0
169	-82.99434	113.10013	196.09447	-15.45973	-138.3239	154.5973	-93.57205	-226.20026	-197.72181	-114.72747	-166.80235	-97.6404	0
170	-82.99434	113.10013	196.09447	-15.45973	-138.3239	154.5973	-86.24902	-209.11319	-187.95777	-104.96343	-164.36134	-95.19939	0
171	-85.43535	115.54114	200.97649	-15.45973	-143.20592	157.03831	-78.92599	-209.11319	-180.63474	-97.6404	-159.47932	-92.75838	0
172	-85.43535	115.54114	200.97649	-15.45973	-143.20592	157.03831	-71.60296	-196.90814	-173.31171	-92.75838	-154.5973	-90.31737	0
173	-85.43535	115.54114	200.97649	-15.45973	-143.20592	157.03831	-66.72094	-187.1441	-161.10666	-87.87636	-152.15629	-90.31737	0
174	-78.11232	115.54114	193.65346	-20.34175	-135.88289	154.5973	-64.27993	-177.38006	-153.78363	-82.99434	-152.15629	-87.87636	0
175	-73.2303	115.54114	188.77144	-22.78276	-131.00087	152.15629	-61.83892	-170.05703	-148.90161	-78.11232	-152.15629	-90.31737	0
176	-70.78929	113.10013	183.88942	-22.78276	-126.11885	147.27427	-56.9569	-162.734	-141.57858	-73.2303	-149.71528	-90.31737	0
177	-70.78929	110.65912	181.44841	-20.34175	-126.11885	144.83326	-56.9569	-155.41097	-134.25555	-70.78929	-147.27427	-90.31737	0
178	-70.78929	110.65912	181.44841	-20.34175	-126.11885	144.83326	-52.07488	-150.52895	-126.93252	-65.90727	-144.83326	-87.87636	0
179	-70.78929	110.65912	181.44841	-20.34175	-126.11885	144.83326	-47.19286	-145.64693	-122.0505	-63.46626	-139.95124	-85.43535	0
180	-70.78929	110.65912	181.44841	-20.34175	-126.11885	144.83326	-44.75185	-138.3239	-117.16848	-58.58424	-135.06922	-82.99434	0
181	-68.34828	113.10013	181.44841	-22.78276	-123.67784	147.27427	-39.86983	-135.88289	-117.16848	-56.14323	-132.62821	-80.55333	0
182	-73.2303	108.21811	181.44841	-17.90074	-126.11885	144.83326	-39.86983	-135.88289	-117.16848	-56.14323	-132.62821	-80.55333	0
183	-73.2303	103.33609	176.56639	-15.45973	-123.67784	139.95124	-37.42882	-135.88289	-117.16848	-58.58424	-132.62821	-82.99434	0
184	-75.67131	100.89508	176.56639	-13.01872	-126.11885	137.51023	-34.98781	-131.00087	-114.72747	-58.58424	-135.06922	-82.99434	0
185	-78.11232	103.33609	181.44841	-13.01872	-128.55986	142.39225	-34.98781	-128.55986	-112.28646	-56.14323	-135.06922	-85.43535	0
186	-75.67131	105.7771	181.44841	-15.45973	-128.55986	142.39225	-32.5468	-126.11885	-109.84545	-53.70222	-135.06922	-87.87636	0
187	-70.78929	108.21811	179.0074	-20.34175	-123.67784	142.39225	-32.5468	-123.67784	-109.84545	-53.70222	-135.06922	-87.87636	0
188	-68.34828	110.65912	179.0074	-22.78276	-123.67784	144.83326	-32.5468	-121.23683	-107.40444	-53.70222	-132.62821	-87.87636	0
189	-68.34828	110.65912	179.0074	-22.78276	-123.67784	144.83326	-30.10579	-118.79582	-104.96343	-51.26121	-132.62821	-85.43535	0
190	-63.46626	113.10013	176.56639	-25.22377	-118.79582	144.83326	-27.66478	-111.47279	-100.08141	-46.37919	-127.74619	-80.55333	0
191	-58.58424	117.98215	176.56639	-30.10579	-116.35481	147.27427	-22.78276	-106.59077	-100.08141	-43.93818	-125.30518	-75.67131	0
192	-56.14323	122.86417	179.0074	-34.98781	-116.35481	149.71528	-17.90074	-104.14976	-97.6404	-39.05616	-122.86417	-70.78929	0
193	-51.26121	125.30518	176.56639	-37.42882	-113.9138	149.71528	-15.45973	-101.70875	-92.75838	-39.05616	-120.42316	-68.34828	0
194	-51.26121	125.30518	176.56639	-37.42882	-113.9138	149.71528	-13.01872	-96.82673	-90.31737	-39.05616	-120.42316	-68.34828	0
195	-56.14323	122.86417	179.0074	-34.98781	-116.35481	149.71528	-10.57771	-94.38572	-87.87636	-34.17414	-120.42316	-68.34828	0
196	-61.02525	120.42316	181.44841	-30.10579	-121.23683	149.71528	-10.57771	-91.94471	-82.99434	-34.17414	-117.98215	-68.34828	0
197	-61.02525	120.42316	181.44841	-30.10579	-121.23683	149.71528	-10.57771	-91.94471	-82.99434	-34.17414	-117.98215	-68.34828	0
198	-61.02525	115.54114	176.56639	-27.66478	-118.79582	144.83326	-13.01872	-89.5037	-82.99434	-34.17414	-117.98215	-70.78929	0
199	-63.46626	115.54114	179.0074	-27.66478	-121.23683	147.27427	-13.01872	-89.5037	-82.99434	-34.17414	-117.98215	-70.78929	0
200	-63.46626	117.98215	181.44841	-27.66478	-121.23683	149.71528	-10.57771	-84.62168	-78.11232	-31.73313	-113.10013	-70.78929	0
201	-63.46626	120.42316	183.88942	-30.10579	-123.67784	152.15629	-5.69569	-79.73966	-78.11232	-29.29212	-110.65912	-65.90727	0
202	-63.46626	122.86417	186.33043	-30.10579	-123.67784	154.5973	-3.25468	-74.85764	-78.11232	-26.85111	-110.65912	-65.90727	0
203	-63.46626	122.86417	186.33043	-30.10579	-123.67784	154.5973	-0.81367	-74.85764	-75.67131	-26.85111	-110.65912	-65.90727	0
204	-58.58424	125.30518	183.88942	-34.98781	-121.23683	154.5973	-0.81367	-72.41663	-75.67131	-29.29212	-113.10013	-65.90727	0
205	-56.14323	125.30518	181.44841	-34.98781	-118.79582	152.15629	1.62734	-69.97562	-73.2303	-24.4101	-113.10013	-65.90727	0
206	-63.46626	122.86417	186.33043	-30.10579	-123.67784	154.5973	1.62734	-65.0936	-68.34828	-21.96909	-113.10013	-65.90727	0
207	-63.46626	122.86417	186.33043	-30.10579	-123.67784	154.5973	4.06835	-62.65259	-65.90727	-19.52808	-113.10013	-65.90727	0
208	-68.34828	120.42316	188.77144	-27.66478	-128.55986	154.5973	4.06835	-60.21158	-63.46626	-17.08707	-110.65912	-65.90727	0
209	-70.78929	117.98215	188.77144	-25.22377	-128.55986	152.15629	4.06835	-57.77057	-58.58424	-17.08707	-110.65912	-65.90727	0
210	-70.78929	117.98215	188.77144	-25.22377	-128.55986	152.15629	6.50936	-52.88855	-56.14323	-12.20505	-110.65912	-63.46626	0
211	-68.34828	120.42316	188.77144	-27.66478	-128.55986	154.5973	6.50936	-48.00653	-56.14323	-9.76404	-108.21811	-58.58424	0
212	-68.34828	122.86417	191.21245	-27.66478	-128.55986	157.03831	12.20505	-43.12451	-53.70222	-9.76404	-105.7771	-56.14323	0
213	-70.78929	122.86417	193.65346	-27.66478	-131.00087	157.03831	17.08707	-38.24249	-46.37919	-6.50936	-103.33609	-53.70222	0
214	-65.90727	130.1872	196.09447	-32.5468	-131.00087	161.92033	17.08707	-35.80148	-43.93818	-4.06835	-105.7771	-51.26121	0
215	-61.02525	135.06922	196.09447	-37.42882	-128.55986	164.36134	21.96909	-30.91946	-41.49717	0.81367	-105.7771	-51.26121	0
216	-56.14323	142.39225	198.53548	-44.75185	-126.11885	169.24336	26.85111	-26.03744	-36.61515	5.69569	-100.89508	-48.8202	0
217	-53.70222	144.83326	198.53548	-47.19286	-126.11885	171.68437	26.85111	-23.59643	-34.17414	5.69569	-100.89508	-48.8202	0
218	-53.70222	142.39225	196.09447	-44.75185	-123.67784	169.24336	24.4101	-21.15542	-31.73313	5.69569	-100.89508	-51.26121	0
219	-56.14323	139.95124	196.09447	-42.31084	-126.11885	166.80235	24.4101	-21.15542	-29.29212	5.69569	-100.89508	-51.26121	0
220	-58.58424	135.06922	193.65346	-39.86983	-126.11885	164.36134	26.85111	-18.71441	-29.29212	8.1367	-103.33609	-53.70222	0
221	-56.14323	135.06922	191.21245	-39.86983	-123.67784	161.92033	29.29212	-16.2734	-29.29212	8.1367	-103.33609	-53.70222	0
222	-53.70222	139.95124	193.65346	-44.75185	-123.67784	166.80235	34.17414	-11.39138	-29.29212	10.57771	-103.33609	-51.26121	0
223	-56.14323	139.95124	196.09447	-42.31084	-126.11885	166.80235	36.61515	-6.50936	-24.4101	10.57771	-100.89508	-51.26121	0
224	-56.14323	142.39225	198.53548	-44.75185	-126.11885	169.24336	39.05616	0.81367	-19.52808	10.57771	-103.33609	-51.26121	0
225	-56.14323	142.39225	198.53548	-44.75185	-126.11885	169.24336	41.49717	5.69569	-14.64606	15.45973	-103.33609	-51.26121	0
226	-53.70222	144.83326	198.53548	-47.19286	-126.11885	171.68437	46.37919	13.01872	-12.20505	17.90074	-100.89508	-51.26121	0
227	-53.70222	144.83326	198.53548	-47.19286	-126.11885	171.68437	48.8202	20.34175	-7.32303	22.78276	-98.45407	-51.26121	0
228	-51.26121	149.71528	200.97649	-49.63387	-126.11885	174.12538	51.26121	27.66478	0	25.22377	-91.13104	-48.8202	0
229	-51.26121	152.15629	203.4175	-52.07488	-126.11885	176.56639	53.70222	32.5468	3.25468	27.66478	-83.80801	-46.37919	0
230	-51.26121	149.71528	200.97649	-49.63387	-126.11885	174.12538	56.14323	40.6835	8.1367	30.10579	-78.92599	-46.37919	0
231	-53.70222	149.71528	203.4175	-49.63387	-128.55986	176.56639	58.58424	45.56552	8.1367	32.5468	-71.60296	-43.93818	0
232	-58.58424	149.71528	208.29952	-47.19286	-133.44188	179.0074	63.46626	50.44754	10.57771	34.98781	-64.27993	-41.49717	0
233	-61.02525	149.71528	210.74053	-44.75185	-135.88289	179.0074	65.90727	55.32956	13.01872	34.98781	-59.39791	-39.05616	0
234	-63.46626	147.27427	210.74053	-42.31084	-135.88289	179.0074	68.34828	62.65259	20.34175	34.98781	-54.51589	-36.61515	0
235	-63.46626	147.27427	210.74053	-42.31084	-135.88289	179.0074	70.78929	69.97562	25.22377	39.86983	-49.63387	-39.05616	0
236	-63.46626	147.27427	210.74053	-42.31084	-135.88289	179.0074	73.2303	77.29865	30.10579	42.31084	-44.75185	-39.05616	0
237	-61.02525	147.27427	208.29952	-44.75185	-133.44188	176.56639	73.2303	84.62168	34.98781	44.75185	-39.86983	-39.05616	0
238	-58.58424	147.27427	205.85851	-44.75185	-131.00087	176.56639	73.2303	89.5037	37.42882	44.75185	-34.98781	-39.05616	0
239	-51.26121	147.27427	198.53548	-49.63387	-123.67784	171.68437	73.2303	94.38572	42.31084	44.75185	-32.5468	-39.05616	0
240	-46.37919	152.15629	198.53548	-54.51589	-121.23683	174.12538	78.11232	104.14976	47.19286	49.63387	-30.10579	-36.61515	0
241	-46.37919	152.15629	198.53548	-54.51589	-121.23683	174.12538	80.55333	111.47279	49.63387	54.51589	-25.22377	-31.73313	0
242	-43.93818	152.15629	196.09447	-54.51589	-118.79582	174.12538	82.99434	118.79582	52.07488	56.9569	-25.22377	-29.29212	0
243	-41.49717	157.03831	198.53548	-59.39791	-118.79582	176.56639	85.43535	123.67784	56.9569	56.9569	-22.78276	-29.29212	0
244	-39.05616	161.92033	200.97649	-61.83892	-118.79582	181.44841	87.87636	131.00087	61.83892	56.9569	-22.78276	-26.85111	0
245	-36.61515	164.36134	200.97649	-64.27993	-118.79582	181.44841	92.75838	140.76491	66.72094	61.83892	-17.90074	-24.4101	0
246	-39.05616	164.36134	203.4175	-64.27993	-121.23683	183.88942	95.19939	148.08794	71.60296	66.72094	-17.90074	-24.4101	0
247	-43.93818	164.36134	208.29952	-61.83892	-126.11885	186.33043	97.6404	155.41097	78.92599	69.16195	-12.20505	-21.96909	0
248	-51.26121	161.92033	213.18154	-56.9569	-131.00087	186.33043	100.08141	160.29299	83.80801	69.16195	-7.32303	-21.96909	0
249	-51.26121	159.47932	210.74053	-54.51589	-131.00087	183.88942	100.08141	165.17501	88.69003	69.16195	-7.32303	-21.96909	0
250	-46.37919	164.36134	210.74053	-59.39791	-128.55986	186.33043	104.96343	170.05703	91.13104	71.60296	-4.88202	-21.96909	0
251	-41.49717	166.80235	208.29952	-64.27993	-123.67784	186.33043	109.84545	177.38006	91.13104	74.04397	-2.44101	-17.08707	0
252	-39.05616	164.36134	203.4175	-64.27993	-121.23683	183.88942	114.72747	182.26208	93.57205	74.04397	0	-17.08707	0
253	-39.05616	164.36134	203.4175	-64.27993	-121.23683	183.88942	117.16848	184.70309	96.01306	71.60296	0	-17.08707	0
254	-36.61515	164.36134	200.97649	-64.27993	-118.79582	181.44841	119.60949	189.58511	98.45407	69.16195	-4.88202	-17.08707	0
255	-34.17414	164.36134	198.53548	-66.72094	-116.35481	181.44841	124.49151	196.90814	100.89508	71.60296	-4.88202	-19.52808	0
256	-29.29212	166.80235	196.09447	-69.16195	-111.47279	181.44841	126.93252	201.79016	100.89508	71.60296	-4.88202	-19.52808	0
257	-24.4101	166.80235	191.21245	-71.60296	-106.59077	179.0074	126.93252	206.67218	103.33609	74.04397	-4.88202	-19.52808	0
258	-17.08707	169.24336	186.33043	-76.48498	-101.70875	176.56639	129.37353	209.11319	105.7771	74.04397	-2.44101	-19.52808	0
259	-21.96909	164.36134	186.33043	-71.60296	-104.14976	174.12538	131.81454	211.5542	105.7771	74.04397	-2.44101	-19.52808	0
260	-24.4101	164.36134	188.77144	-71.60296	-106.59077	176.56639	134.25555	216.43622	108.21811	76.48498	-2.44101	-21.96909	0
261	-29.29212	161.92033	191.21245	-66.72094	-109.03178	176.56639	139.13757	221.31824	105.7771	78.92599	0	-19.52808	0
262	-29.29212	157.03831	186.33043	-64.27993	-106.59077	171.68437	141.57858	223.75925	103.33609	78.92599	0	-19.52808	0
263	-24.4101	157.03831	181.44841	-66.72094	-101.70875	169.24336	141.57858	223.75925	100.89508	78.92599	-2.44101	-19.52808	0
264	-19.52808	157.03831	176.56639	-69.16195	-96.82673	166.80235	144.01959	223.75925	100.89508	76.48498	-4.88202	-19.52808	0
265	-19.52808	157.03831	176.56639	-69.16195	-96.82673	166.80235	146.4606	226.20026	100.89508	76.48498	-7.32303	-21.96909	0
266	-17.08707	157.03831	174.12538	-71.60296	-94.38572	164.36134	146.4606	228.64127	98.45407	76.48498	-9.76404	-24.4101	0
267	-14.64606	157.03831	171.68437	-71.60296	-91.94471	164.36134	146.4606	228.64127	96.01306	74.04397	-9.76404	-26.85111	0
268	-14.64606	154.5973	169.24336	-71.60296	-91.94471	161.92033	144.01959	228.64127	93.57205	71.60296	-12.20505	-26.85111	0
269	-12.20505	147.27427	159.47932	-69.16195	-84.62168	152.15629	141.57858	226.20026	88.69003	64.27993	-17.90074	-31.73313	0
270	-9.76404	139.95124	149.71528	-66.72094	-79.73966	144.83326	141.57858	226.20026	86.24902	64.27993	-17.90074	-31.73313	0
271	-7.32303	135.06922	142.39225	-64.27993	-74.85764	137.51023	141.57858	228.64127	81.367	59.39791	-17.90074	-34.17414	0
272	-4.88202	127.74619	132.62821	-61.83892	-67.53461	130.1872	141.57858	228.64127	74.04397	54.51589	-20.34175	-36.61515	0
273	-4.88202	122.86417	127.74619	-59.39791	-65.0936	125.30518	139.13757	228.64127	71.60296	47.19286	-22.78276	-36.61515	0
274	0	115.54114	115.54114	-59.39791	-57.77057	115.54114	136.69656	228.64127	66.72094	39.86983	-27.66478	-39.05616	0
275	5.69569	108.21811	103.33609	-56.9569	-48.00653	105.7771	134.25555	226.20026	64.27993	37.42882	-30.10579	-43.93818	0
276	5.69569	103.33609	98.45407	-54.51589	-45.56552	100.89508	131.81454	226.20026	61.83892	32.5468	-30.10579	-46.37919	0
277	8.1367	100.89508	93.57205	-54.51589	-43.12451	98.45407	129.37353	228.64127	61.83892	30.10579	-30.10579	-46.37919	0
278	13.01872	100.89508	88.69003	-56.9569	-38.24249	96.01306	129.37353	231.08228	59.39791	27.66478	-30.10579	-43.93818	0
279	15.45973	98.45407	83.80801	-56.9569	-33.36047	91.13104	126.93252	228.64127	59.39791	22.78276	-30.10579	-43.93818	0
280	10.57771	91.13104	81.367	-52.07488	-35.80148	86.24902	126.93252	228.64127	59.39791	22.78276	-27.66478	-39.05616	0
281	17.90074	91.13104	74.04397	-54.51589	-28.47845	83.80801	129.37353	233.52329	59.39791	25.22377	-20.34175	-31.73313	0
282	30.10579	93.57205	64.27993	-61.83892	-16.2734	78.92599	129.37353	233.52329	59.39791	25.22377	-17.90074	-29.29212	0
283	37.42882	96.01306	59.39791	-66.72094	-11.39138	78.92599	129.37353	233.52329	59.39791	22.78276	-17.90074	-24.4101	0
284	42.31084	91.13104	49.63387	-66.72094	-4.06835	71.60296	129.37353	233.52329	59.39791	20.34175	-17.90074	-21.96909	0
285	52.07488	88.69003	37.42882	-71.60296	8.95037	64.27993	124.49151	231.08228	59.39791	20.34175	-12.20505	-21.96909	0
286	56.9569	83.80801	27.66478	-71.60296	16.2734	56.9569	119.60949	228.64127	59.39791	20.34175	-12.20505	-21.96909	0
287	61.83892	76.48498	15.45973	-69.16195	23.59643	47.19286	109.84545	223.75925	56.9569	17.90074	-9.76404	-21.96909	0
288	66.72094	71.60296	5.69569	-69.16195	30.91946	39.86983	97.6404	216.43622	54.51589	15.45973	-4.88202	-21.96909	0
289	69.16195	61.83892	-7.32303	-66.72094	38.24249	27.66478	87.87636	206.67218	49.63387	10.57771	-4.88202	-19.52808	0
290	69.16195	52.07488	-17.08707	-61.83892	43.12451	17.90074	75.67131	199.34915	44.75185	8.1367	-4.88202	-19.52808	0
291	66.72094	42.31084	-24.4101	-54.51589	45.56552	10.57771	68.34828	192.02612	39.86983	5.69569	-4.88202	-17.08707	0
292	69.16195	34.98781	-34.17414	-52.07488	52.88855	0.81367	58.58424	182.26208	32.5468	0.81367	-4.88202	-17.08707	0
293	71.60296	27.66478	-43.93818	-49.63387	57.77057	-7.32303	46.37919	170.05703	27.66478	-6.50936	-7.32303	-17.08707	0
294	74.04397	17.90074	-56.14323	-47.19286	65.0936	-19.52808	34.17414	160.29299	22.78276	-9.76404	-9.76404	-17.08707	0
295	78.92599	10.57771	-68.34828	-44.75185	74.85764	-29.29212	26.85111	152.96996	22.78276	-9.76404	-7.32303	-17.08707	0
296	88.69003	8.1367	-80.55333	-49.63387	84.62168	-36.61515	19.52808	150.52895	22.78276	-9.76404	-4.88202	-14.64606	0
297	96.01306	5.69569	-90.31737	-52.07488	94.38572	-41.49717	12.20505	143.20592	22.78276	-6.50936	0	-14.64606	0
298	103.33609	0.81367	-102.52242	-52.07488	104.14976	-51.26121	6.50936	138.3239	22.78276	-6.50936	4.88202	-11.39138	0
299	108.21811	-2.44101	-109.84545	-54.51589	109.03178	-56.14323	-0.81367	135.88289	27.66478	-4.06835	12.20505	-8.95037	0
300	115.54114	-2.44101	-117.16848	-56.9569	116.35481	-58.58424	-3.25468	135.88289	34.98781	3.25468	21.96909	-1.62734	0
301	120.42316	-4.88202	-124.49151	-59.39791	121.23683	-63.46626	-3.25468	135.88289	37.42882	13.01872	34.17414	8.1367	0
302	127.74619	-4.88202	-131.81454	-61.83892	128.55986	-68.34828	-3.25468	135.88289	42.31084	17.90074	41.49717	17.90074	0
303	135.06922	-4.88202	-139.13757	-66.72094	135.88289	-70.78929	-5.69569	135.88289	49.63387	22.78276	48.8202	25.22377	0
304	135.06922	-9.76404	-144.01959	-64.27993	138.3239	-75.67131	-5.69569	135.88289	56.9569	30.10579	53.70222	32.5468	0
305	139.95124	-9.76404	-148.90161	-66.72094	143.20592	-78.11232	-8.1367	135.88289	64.27993	37.42882	63.46626	37.42882	0
306	144.83326	-9.76404	-153.78363	-69.16195	148.08794	-80.55333	-8.1367	135.88289	71.60296	47.19286	73.2303	44.75185	0
307	144.83326	-9.76404	-153.78363	-69.16195	148.08794	-80.55333	-8.1367	138.3239	81.367	56.9569	85.43535	52.07488	0
308	142.39225	-12.20505	-153.78363	-66.72094	148.08794	-82.99434	-10.57771	135.88289	86.24902	64.27993	95.19939	56.9569	1500	QRS+0
309	135.06922	-14.64606	-148.90161	-61.83892	140.76491	-80.55333	-10.57771	135.88289	91.13104	69.16195	102.52242	61.83892	0
310	127.74619	-14.64606	-141.57858	-56.9569	133.44188	-78.11232	-8.1367	133.44188	96.01306	78.92599	107.40444	66.72094	0
311	115.54114	-19.52808	-134.25555	-49.63387	123.67784	-75.67131	-5.69569	131.00087	93.57205	81.367	109.84545	69.16195	0
312	103.33609	-24.4101	-126.93252	-39.86983	113.9138	-75.67131	-3.25468	123.67784	91.13104	81.367	109.84545	69.16195	0
313	96.01306	-24.4101	-119.60949	-37.42882	106.59077	-70.78929	-0.81367	113.9138	86.24902	76.48498	102.52242	61.83892	0
314	83.80801	-24.4101	-107.40444	-30.10579	94.38572	-65.90727	1.62734	106.59077	81.367	71.60296	92.75838	54.51589	0
315	74.04397	-29.29212	-102.52242	-22.78276	87.06269	-65.90727	6.50936	99.26774	76.48498	69.16195	85.43535	47.19286	0
316	69.16195	-29.29212	-97.6404	-20.34175	82.18067	-63.46626	9.76404	94.38572	74.04397	66.72094	80.55333	37.42882	0
317	64.27993	-34.17414	-97.6404	-15.45973	79.73966	-65.90727	12.20505	87.06269	69.16195	61.83892	73.2303	27.66478	0
318	61.83892	-39.05616	-100.08141	-13.01872	79.73966	-68.34828	12.20505	77.29865	61.83892	54.51589	65.90727	20.34175	0
319	59.39791	-39.05616	-97.6404	-10.57771	77.29865	-68.34828	12.20505	69.97562	54.51589	49.63387	61.02525	13.01872	0
320	59.39791	-39.05616	-97.6404	-10.57771	77.29865	-68.34828	12.20505	65.0936	52.07488	47.19286	56.14323	8.1367	0
321	59.39791	-39.05616	-97.6404	-10.57771	77.29865	-68.34828	14.64606	62.65259	47.19286	47.19286	56.14323	8.1367	0
322	59.39791	-41.49717	-100.08141	-10.57771	79.73966	-70.78929	17.08707	57.77057	44.75185	49.63387	58.58424	10.57771	0
323	61.83892	-41.49717	-102.52242	-10.57771	82.18067	-70.78929	17.08707	52.88855	44.75185	44.75185	53.70222	10.57771	0
324	54.51589	-43.93818	-97.6404	-5.69569	74.85764	-70.78929	17.08707	48.00653	39.86983	42.31084	48.8202	8.1367	0
325	47.19286	-46.37919	-92.75838	-0.81367	69.97562	-68.34828	17.08707	43.12451	37.42882	42.31084	48.8202	5.69569	0
326	42.31084	-46.37919	-87.87636	-0.81367	65.0936	-65.90727	17.08707	43.12451	37.42882	44.75185	48.8202	3.25468	0
327	39.86983	-43.93818	-82.99434	-0.81367	60.21158	-63.46626	17.08707	43.12451	42.31084	49.63387	48.8202	3.25468	0
328	37.42882	-41.49717	-78.11232	-0.81367	57.77057	-58.58424	17.08707	43.12451	44.75185	49.63387	51.26121	5.69569	0
329	42.31084	-39.05616	-80.55333	-3.25468	60.21158	-58.58424	19.52808	40.6835	44.75185	52.07488	53.70222	5.69569	0
330	39.86983	-39.05616	-78.11232	-0.81367	57.77057	-58.58424	19.52808	40.6835	44.75185	52.07488	51.26121	5.69569	0
331	37.42882	-39.05616	-75.67131	-0.81367	55.32956	-56.14323	19.52808	38.24249	39.86983	52.07488	51.26121	5.69569	0
332	37.42882	-39.05616	-75.67131	-0.81367	55.32956	-56.14323	21.96909	35.80148	39.86983	52.07488	48.8202	5.69569	0
333	39.86983	-39.05616	-78.11232	-0.81367	57.77057	-58.58424	21.96909	32.5468	37.42882	47.19286	43.93818	5.69569	0
334	42.31084	-36.61515	-78.11232	-3.25468	60.21158	-56.14323	21.96909	32.5468	37.42882	44.75185	39.05616	3.25468	0
335	42.31084	-36.61515	-78.11232	-3.25468	60.21158	-56.14323	21.96909	32.5468	37.42882	47.19286	36.61515	0.81367	0
336	42.31084	-34.17414	-75.67131	-5.69569	57.77057	-53.70222	24.4101	32.5468	34.98781	47.19286	36.61515	-1.62734	0
337	37.42882	-31.73313	-68.34828	-3.25468	52.88855	-48.8202	24.4101	32.5468	34.98781	47.19286	36.61515	-1.62734	0
338	34.98781	-31.73313	-65.90727	-3.25468	50.44754	-48.8202	26.85111	35.80148	37.42882	49.63387	39.05616	-1.62734	0
339	30.10579	-29.29212	-58.58424	-0.81367	43.12451	-43.93818	31.73313	35.80148	42.31084	49.63387	39.05616	-1.62734	0
340	20.34175	-34.17414	-53.70222	4.88202	35.80148	-43.93818	31.73313	38.24249	42.31084	52.07488	39.05616	-1.62734	0
341	13.01872	-36.61515	-48.8202	9.76404	30.91946	-41.49717	36.61515	40.6835	42.31084	54.51589	41.49717	0.81367	0
342	8.1367	-36.61515	-43.93818	12.20505	26.03744	-39.05616	39.05616	40.6835	39.86983	56.9569	39.05616	3.25468	0
343	3.25468	-39.05616	-41.49717	17.08707	21.15542	-39.05616	39.05616	40.6835	39.86983	52.07488	34.17414	0.81367	0
344	5.69569	-39.05616	-43.93818	14.64606	23.59643	-41.49717	39.05616	40.6835	39.86983	52.07488	29.29212	-1.62734	0
345	10.57771	-43.93818	-53.70222	14.64606	30.91946	-48.8202	39.05616	40.6835	39.86983	52.07488	26.85111	-6.50936	0
346	13.01872	-43.93818	-56.14323	14.64606	33.36047	-48.8202	41.49717	40.6835	39.86983	52.07488	24.4101	-8.95037	0
347	15.45973	-46.37919	-61.02525	14.64606	38.24249	-53.70222	39.05616	40.6835	39.86983	52.07488	21.96909	-11.39138	0
348	20.34175	-43.93818	-63.46626	9.76404	40.6835	-53.70222	39.05616	43.12451	39.86983	52.07488	24.4101	-11.39138	0
349	25.22377	-39.05616	-63.46626	4.88202	43.12451	-51.26121	43.93818	45.56552	42.31084	54.51589	26.85111	-11.39138	0
350	27.66478	-39.05616	-65.90727	4.88202	45.56552	-51.26121	46.37919	50.44754	44.75185	54.51589	26.85111	-11.39138	0
351	30.10579	-39.05616	-68.34828	2.44101	48.00653	-53.70222	51.26121	52.88855	44.75185	56.9569	29.29212	-6.50936	0
352	34.98781	-34.17414	-68.34828	-0.81367	50.44754	-51.26121	53.70222	52.88855	44.75185	59.39791	29.29212	-4.06835	0
353	32.5468	-36.61515	-68.34828	-0.81367	50.44754	-51.26121	56.14323	55.32956	47.19286	59.39791	29.29212	-1.62734	0
354	30.10579	-36.61515	-65.90727	2.44101	48.00653	-51.26121	61.02525	57.77057	49.63387	59.39791	26.85111	-1.62734	0
355	30.10579	-39.05616	-68.34828	2.44101	48.00653	-53.70222	63.46626	60.21158	52.07488	61.83892	26.85111	-4.06835	0
356	25.22377	-39.05616	-63.46626	4.88202	43.12451	-51.26121	63.46626	62.65259	52.07488	64.27993	26.85111	-4.06835	0
357	25.22377	-39.05616	-63.46626	4.88202	43.12451	-51.26121	63.46626	62.65259	52.07488	64.27993	26.85111	-6.50936	0
358	25.22377	-43.93818	-68.34828	7.32303	45.56552	-56.14323	63.46626	62.65259	52.07488	61.83892	24.4101	-8.95037	0
359	22.78276	-43.93818	-65.90727	9.76404	43.12451	-53.70222	63.46626	62.65259	52.07488	59.39791	24.4101	-8.95037	0
360	22.78276	-43.93818	-65.90727	9.76404	43.12451	-53.70222	63.46626	62.65259	49.63387	59.39791	24.4101	-11.39138	0
361	25.22377	-43.93818	-68.34828	7.32303	45.56552	-56.14323	65.90727	62.65259	47.19286	59.39791	24.4101	-11.39138	0
362	30.10579	-41.49717	-70.78929	4.88202	50.44754	-56.14323	65.90727	60.21158	42.31084	54.51589	24.4101	-11.39138	0
363	34.98781	-39.05616	-73.2303	-0.81367	52.88855	-56.14323	65.90727	57.77057	39.86983	49.63387	19.52808	-11.39138	0
364	37.42882	-39.05616	-75.67131	-0.81367	55.32956	-56.14323	65.90727	57.77057	39.86983	49.63387	14.64606	-11.39138	0
365	39.86983	-39.05616	-78.11232	-0.81367	57.77057	-58.58424	68.34828	57.77057	39.86983	47.19286	9.76404	-14.64606	0
366	37.42882	-39.05616	-75.67131	-0.81367	55.32956	-56.14323	68.34828	57.77057	37.42882	47.19286	7.32303	-14.64606	0
367	39.86983	-39.05616	-78.11232	-0.81367	57.77057	-58.58424	68.34828	60.21158	37.42882	44.75185	7.32303	-14.64606	0
368	39.86983	-39.05616	-78.11232	-0.81367	57.77057	-58.58424	68.34828	60.21158	37.42882	44.75185	7.32303	-14.64606	0
369	32.5468	-41.49717	-73.2303	2.44101	52.88855	-56.14323	68.34828	57.77057	37.42882	42.31084	7.32303	-14.64606	0
370	25.22377	-46.37919	-70.78929	9.76404	48.00653	-58.58424	68.34828	57.77057	37.42882	42.31084	7.32303	-14.64606	0
371	17.90074	-46.37919	-63.46626	12.20505	40.6835	-53.70222	70.78929	60.21158	34.98781	42.31084	12.20505	-11.39138	0
372	15.45973	-48.8202	-63.46626	14.64606	38.24249	-56.14323	73.2303	57.77057	32.5468	37.42882	12.20505	-11.39138	0
373	10.57771	-51.26121	-61.02525	19.52808	35.80148	-56.14323	73.2303	55.32956	30.10579	32.5468	9.76404	-11.39138	0
374	5.69569	-53.70222	-58.58424	21.96909	30.91946	-56.14323	70.78929	52.88855	30.10579	27.66478	7.32303	-11.39138	0
375	0	-58.58424	-58.58424	26.85111	28.47845	-58.58424	70.78929	50.44754	27.66478	27.66478	4.88202	-14.64606	0
376	0	-58.58424	-58.58424	26.85111	28.47845	-58.58424	70.78929	48.00653	25.22377	25.22377	2.44101	-17.08707	0
377	0	-58.58424	-58.58424	26.85111	28.47845	-58.58424	68.34828	45.56552	22.78276	22.78276	0	-19.52808	0
378	0	-56.14323	-56.14323	26.85111	28.47845	-56.14323	68.34828	45.56552	22.78276	20.34175	-2.44101	-19.52808	0
379	5.69569	-53.70222	-58.58424	21.96909	30.91946	-56.14323	68.34828	43.12451	25.22377	20.34175	-2.44101	-19.52808	0
380	5.69569	-53.70222	-58.58424	21.96909	30.91946	-56.14323	68.34828	40.6835	25.22377	20.34175	-2.44101	-19.52808	0
381	5.69569	-56.14323	-61.02525	24.4101	33.36047	-58.58424	73.2303	38.24249	22.78276	17.90074	0	-17.08707	0
382	8.1367	-53.70222	-61.02525	21.96909	33.36047	-56.14323	75.67131	35.80148	22.78276	17.90074	2.44101	-14.64606	0
383	10.57771	-53.70222	-63.46626	19.52808	35.80148	-58.58424	75.67131	32.5468	22.78276	15.45973	2.44101	-14.64606	0
384	13.01872	-53.70222	-65.90727	19.52808	38.24249	-58.58424	78.11232	32.5468	22.78276	15.45973	2.44101	-8.95037	-1500	QRS-0
385	13.01872	-56.14323	-68.34828	19.52808	40.6835	-61.02525	78.11232	32.5468	20.34175	15.45973	2.44101	-8.95037	0
386	13.01872	-58.58424	-70.78929	21.96909	40.6835	-63.46626	78.11232	32.5468	15.45973	13.01872	0	-11.39138	0
387	10.57771	-63.46626	-73.2303	24.4101	40.6835	-68.34828	75.67131	30.10579	13.01872	10.57771	-4.88202	-14.64606	0
388	5.69569	-70.78929	-75.67131	31.73313	40.6835	-73.2303	73.2303	27.66478	13.01872	8.1367	-7.32303	-14.64606	0
389	0	-70.78929	-70.78929	34.17414	35.80148	-70.78929	73.2303	25.22377	13.01872	10.57771	-7.32303	-14.64606	0
390	0	-70.78929	-70.78929	34.17414	35.80148	-70.78929	70.78929	25.22377	15.45973	15.45973	-7.32303	-14.64606	0
391	0	-68.34828	-68.34828	31.73313	33.36047	-68.34828	70.78929	25.22377	15.45973	15.45973	-2.44101	-11.39138	0
392	0	-68.34828	-68.34828	31.73313	33.36047	-68.34828	73.2303	22.78276	13.01872	15.45973	0	-11.39138	0
393	0	-68.34828	-68.34828	31.73313	33.36047	-68.34828	73.2303	20.34175	13.01872	15.45973	2.44101	-11.39138	0
394	0	-68.34828	-68.34828	31.73313	33.36047	-68.34828	73.2303	20.34175	13.01872	15.45973	2.44101	-8.95037	0
395	0	-68.34828	-68.34828	31.73313	33.36047	-68.34828	73.2303	20.34175	13.01872	17.90074	4.88202	-6.50936	0
396	3.25468	-65.90727	-68.34828	29.29212	35.80148	-65.90727	73.2303	20.34175	13.01872	17.90074	4.88202	-6.50936	0
397	3.25468	-65.90727	-68.34828	29.29212	35.80148	-65.90727	75.67131	22.78276	13.01872	20.34175	2.44101	-6.50936	0
398	5.69569	-65.90727	-70.78929	29.29212	38.24249	-68.34828	78.11232	22.78276	13.01872	17.90074	-2.44101	-6.50936	0
399	5.69569	-68.34828	-73.2303	29.29212	38.24249	-70.78929	75.67131	25.22377	13.01872	17.90074	-2.44101	-6.50936	0
400	5.69569	-68.34828	-73.2303	29.29212	38.24249	-70.78929	73.2303	25.22377	13.01872	17.90074	-2.44101	-8.95037	0
401	3.25468	-68.34828	-70.78929	31.73313	35.80148	-68.34828	70.78929	27.66478	13.01872	17.90074	-2.44101	-8.95037	0
402	3.25468	-68.34828	-70.78929	31.73313	35.80148	-68.34828	68.34828	27.66478	10.57771	15.45973	-2.44101	-8.95037	0
403	5.69569	-63.46626	-68.34828	26.85111	35.80148	-65.90727	68.34828	25.22377	10.57771	15.45973	-2.44101	-6.50936	0
404	5.69569	-63.46626	-68.34828	26.85111	35.80148	-65.90727	68.34828	25.22377	10.57771	15.45973	-2.44101	-6.50936	0
405	5.69569	-65.90727	-70.78929	29.29212	38.24249	-68.34828	63.46626	22.78276	5.69569	15.45973	-2.44101	-6.50936	0
406	8.1367	-65.90727	-73.2303	26.85111	40.6835	-68.34828	61.02525	20.34175	0	13.01872	-2.44101	-6.50936	0
407	10.57771	-65.90727	-75.67131	26.85111	43.12451	-70.78929	58.58424	15.45973	0	10.57771	-7.32303	-6.50936	0
408	10.57771	-65.90727	-75.67131	26.85111	43.12451	-70.78929	58.58424	15.45973	0	8.1367	-12.20505	-8.95037	0
409	10.57771	-63.46626	-73.2303	24.4101	40.6835	-68.34828	58.58424	15.45973	0	8.1367	-12.20505	-11.39138	0
410	10.57771	-65.90727	-75.67131	26.85111	43.12451	-70.78929	56.14323	13.01872	0	8.1367	-12.20505	-11.39138	0
411	10.57771	-68.34828	-78.11232	26.85111	43.12451	-73.2303	53.70222	13.01872	0	10.57771	-12.20505	-11.39138	0
412	10.57771	-70.78929	-80.55333	29.29212	45.56552	-75.67131	51.26121	10.57771	0	8.1367	-9.76404	-11.39138	0
413	10.57771	-65.90727	-75.67131	26.85111	43.12451	-70.78929	48.8202	10.57771	0	8.1367	-9.76404	-8.95037	0
414	10.57771	-65.90727	-75.67131	26.85111	43.12451	-70.78929	48.8202	10.57771	0	10.57771	-7.32303	-8.95037	0
415	8.1367	-68.34828	-75.67131	29.29212	40.6835	-70.78929	48.8202	10.57771	-2.44101	10.57771	-4.88202	-4.06835	0
416	5.69569	-68.34828	-73.2303	29.29212	38.24249	-70.78929	46.37919	8.1367	-4.88202	10.57771	-4.88202	-1.62734	0
417	5.69569	-70.78929	-75.67131	31.73313	40.6835	-73.2303	43.93818	3.25468	-7.32303	8.1367	-7.32303	-1.62734	0
418	13.01872	-70.78929	-82.99434	26.85111	48.00653	-75.67131	43.93818	0.81367	-7.32303	5.69569	-12.20505	-1.62734	0
419	13.01872	-68.34828	-80.55333	26.85111	45.56552	-73.2303	43.93818	-1.62734	-7.32303	3.25468	-12.20505	-6.50936	0
420	8.1367	-73.2303	-80.55333	31.73313	43.12451	-75.67131	39.05616	-4.06835	-9.76404	3.25468	-14.64606	-8.95037	0
421	5.69569	-73.2303	-78.11232	31.73313	40.6835	-75.67131	39.05616	-4.06835	-9.76404	3.25468	-14.64606	-11.39138	0
422	3.25468	-75.67131	-78.11232	34.17414	40.6835	-75.67131	36.61515	-4.06835	-9.76404	3.25468	-14.64606	-11.39138	0
423	3.25468	-70.78929	-73.2303	31.73313	38.24249	-70.78929	36.61515	-4.06835	-7.32303	3.25468	-12.20505	-11.39138	0
424	3.25468	-68.34828	-70.78929	31.73313	35.80148	-68.34828	39.05616	-4.06835	-4.88202	3.25468	-9.76404	-11.39138	0
425	5.69569	-65.90727	-70.78929	29.29212	38.24249	-68.34828	39.05616	-1.62734	-4.88202	5.69569	-7.32303	-8.95037	0
426	0	-65.90727	-65.90727	31.73313	33.36047	-65.90727	39.05616	-1.62734	-7.32303	5.69569	-7.32303	-8.95037	0
427	0	-65.90727	-65.90727	31.73313	33.36047	-65.90727	39.05616	-1.62734	-7.32303	3.25468	-7.32303	-8.95037	0
428	0	-65.90727	-65.90727	31.73313	33.36047	-65.90727	39.05616	-1.62734	-7.32303	-1.62734	-12.20505	-6.50936	0
429	0	-65.90727	-65.90727	31.73313	33.36047	-65.90727	39.05616	0.81367	-7.32303	-1.62734	-14.64606	-8.95037	0
430	0	-70.78929	-70.78929	34.17414	35.80148	-70.78929	36.61515	3.25468	-9.76404	-1.62734	-17.90074	-8.95037	0
431	0	-75.67131	-75.67131	36.61515	38.24249	-75.67131	31.73313	5.69569	-9.76404	-1.62734	-17.90074	-11.39138	0
432	0	-78.11232	-78.11232	36.61515	38.24249	-78.11232	31.73313	10.57771	-9.76404	-4.06835	-17.90074	-11.39138	0
433	0	-78.11232	-78.11232	36.61515	38.24249	-78.11232	31.73313	13.01872	-9.76404	-4.06835	-17.90074	-8.95037	0
434	-2.44101	-78.11232	-75.67131	39.05616	35.80148	-78.11232	31.73313	17.90074	-9.76404	-4.06835	-14.64606	-8.95037	0
435	0	-78.11232	-78.11232	36.61515	38.24249	-78.11232	34.17414	22.78276	-14.64606	-1.62734	-12.20505	-6.50936	0
436	0	-78.11232	-78.11232	36.61515	38.24249	-78.11232	34.17414	25.22377	-14.64606	-4.06835	-9.76404	-1.62734	0
437	3.25468	-75.67131	-78.11232	34.17414	40.6835	-75.67131	39.05616	25.22377	-14.64606	-4.06835	-9.76404	-1.62734	0
438	3.25468	-75.67131	-78.11232	34.17414	40.6835	-75.67131	41.49717	27.66478	-14.64606	-6.50936	-12.20505	-1.62734	0
439	3.25468	-70.78929	-73.2303	31.73313	38.24249	-70.78929	41.49717	27.66478	-14.64606	-6.50936	-12.20505	-1.62734	0
440	3.25468	-65.90727	-68.34828	29.29212	35.80148	-65.90727	39.05616	30.10579	-14.64606	-6.50936	-9.76404	-4.06835	0
441	3.25468	-68.34828	-70.78929	31.73313	35.80148	-68.34828	34.17414	27.66478	-17.08707	-6.50936	-12.20505	-8.95037	0
442	3.25468	-70.78929	-73.2303	31.73313	38.24249	-70.78929	31.73313	25.22377	-17.08707	-9.76404	-12.20505	-8.95037	0
443	3.25468	-73.2303	-75.67131	34.17414	38.24249	-73.2303	31.73313	25.22377	-17.08707	-9.76404	-9.76404	-8.95037	0
444	5.69569	-68.34828	-73.2303	29.29212	38.24249	-70.78929	31.73313	27.66478	-14.64606	-6.50936	-7.32303	-6.50936	0
445	5.69569	-68.34828	-73.2303	29.29212	38.24249	-70.78929	31.73313	30.10579	-14.64606	-4.06835	-7.32303	-1.62734	0
446	5.69569	-70.78929	-75.67131	31.73313	40.6835	-73.2303	31.73313	30.10579	-17.08707	-1.62734	-4.88202	3.25468	0
447	5.69569	-70.78929	-75.67131	31.73313	40.6835	-73.2303	31.73313	30.10579	-17.08707	-1.62734	-7.32303	5.69569	0
448	8.1367	-70.78929	-78.11232	29.29212	43.12451	-73.2303	34.17414	30.10579	-17.08707	-4.06835	-9.76404	8.1367	0
449	8.1367	-73.2303	-80.55333	31.73313	43.12451	-75.67131	34.17414	30.10579	-14.64606	-1.62734	-9.76404	8.1367	0
450	10.57771	-70.78929	-80.55333	29.29212	45.56552	-75.67131	36.61515	30.10579	-14.64606	0.81367	-9.76404	10.57771	0
451	10.57771	-70.78929	-80.55333	29.29212	45.56552	-75.67131	31.73313	27.66478	-14.64606	0.81367	-9.76404	10.57771	0
452	10.57771	-70.78929	-80.55333	29.29212	45.56552	-75.67131	31.73313	27.66478	-14.64606	-1.62734	-9.76404	8.1367	0
453	8.1367	-75.67131	-82.99434	31.73313	45.56552	-78.11232	29.29212	22.78276	-14.64606	-4.06835	-9.76404	8.1367	0
454	8.1367	-75.67131	-82.99434	31.73313	45.56552	-78.11232	31.73313	22.78276	-14.64606	-1.62734	-7.32303	8.1367	0
455	8.1367	-73.2303	-80.55333	31.73313	43.12451	-75.67131	34.17414	25.22377	-14.64606	-1.62734	-2.44101	13.01872	0
456	10.57771	-73.2303	-82.99434	29.29212	45.56552	-78.11232	34.17414	22.78276	-17.08707	-4.06835	-2.44101	15.45973	0
457	13.01872	-73.2303	-85.43535	29.29212	48.00653	-78.11232	34.17414	20.34175	-19.52808	-6.50936	-2.44101	15.45973	0
458	17.90074	-70.78929	-87.87636	24.4101	52.88855	-78.11232	36.61515	20.34175	-19.52808	-9.76404	-7.32303	15.45973	0
459	17.90074	-70.78929	-87.87636	24.4101	52.88855	-78.11232	36.61515	20.34175	-17.08707	-9.76404	-7.32303	15.45973	0
460	17.90074	-75.67131	-92.75838	26.85111	55.32956	-82.99434	36.61515	20.34175	-14.64606	-9.76404	-7.32303	15.45973	0
461	15.45973	-78.11232	-92.75838	29.29212	52.88855	-85.43535	34.17414	20.34175	-14.64606	-9.76404	-7.32303	13.01872	0
462	13.01872	-78.11232	-90.31737	31.73313	50.44754	-82.99434	34.17414	17.90074	-14.64606	-9.76404	-7.32303	10.57771	0
463	13.01872	-82.99434	-95.19939	34.17414	52.88855	-87.87636	31.73313	13.01872	-14.64606	-12.20505	-9.76404	10.57771	0
464	5.69569	-82.99434	-87.87636	36.61515	45.56552	-85.43535	31.73313	13.01872	-14.64606	-12.20505	-9.76404	10.57771	0
465	3.25468	-85.43535	-87.87636	39.05616	45.56552	-85.43535	31.73313	13.01872	-19.52808	-12.20505	-9.76404	10.57771	0
466	-2.44101	-87.87636	-85.43535	43.93818	40.6835	-87.87636	31.73313	10.57771	-21.96909	-12.20505	-7.32303	13.01872	0
467	-4.88202	-90.31737	-85.43535	46.37919	40.6835	-87.87636	31.73313	5.69569	-24.4101	-14.64606	-9.76404	13.01872	0
468	-4.88202	-85.43535	-80.55333	43.93818	38.24249	-82.99434	34.17414	5.69569	-24.4101	-17.08707	-9.76404	13.01872	0
469	-2.44101	-80.55333	-78.11232	39.05616	38.24249	-80.55333	34.17414	5.69569	-24.4101	-17.08707	-9.76404	13.01872	0
470	3.25468	-75.67131	-78.11232	34.17414	40.6835	-75.67131	34.17414	5.69569	-24.4101	-14.64606	-9.76404	13.01872	0
471	5.69569	-73.2303	-78.11232	31.73313	40.6835	-75.67131	34.17414	5.69569	-21.96909	-14.64606	-9.76404	13.01872	0
472	5.69569	-73.2303	-78.11232	31.73313	40.6835	-75.67131	34.17414	5.69569	-21.96909	-14.64606	-7.32303	13.01872	0
473	10.57771	-70.78929	-80.55333	29.29212	45.56552	-75.67131	36.61515	5.69569	-19.52808	-14.64606	-4.88202	13.01872	0
474	13.01872	-63.46626	-75.67131	24.4101	43.12451	-68.34828	36.61515	8.1367	-14.64606	-9.76404	0	15.45973	0
475	15.45973	-58.58424	-73.2303	19.52808	43.12451	-65.90727	39.05616	8.1367	-17.08707	-9.76404	2.44101	17.90074	0
476	13.01872	-63.46626	-75.67131	24.4101	43.12451	-68.34828	39.05616	8.1367	-19.52808	-9.76404	4.88202	20.34175	0
477	8.1367	-68.34828	-75.67131	29.29212	40.6835	-70.78929	39.05616	5.69569	-19.52808	-12.20505	2.44101	20.34175	0
478	0	-68.34828	-68.34828	31.73313	33.36047	-68.34828	41.49717	5.69569	-17.08707	-12.20505	2.44101	22.78276	0
479	0	-68.34828	-68.34828	31.73313	33.36047	-68.34828	41.49717	5.69569	-14.64606	-12.20505	2.44101	22.78276	0
480	5.69569	-63.46626	-68.34828	26.85111	35.80148	-65.90727	41.49717	5.69569	-14.64606	-12.20505	2.44101	20.34175	0
481	5.69569	-63.46626	-68.34828	26.85111	35.80148	-65.90727	36.61515	5.69569	-14.64606	-12.20505	2.44101	17.90074	0
482	3.25468	-68.34828	-70.78929	31.73313	35.80148	-68.34828	34.17414	0.81367	-14.64606	-14.64606	2.44101	15.45973	0
483	3.25468	-70.78929	-73.2303	31.73313	38.24249	-70.78929	31.73313	-1.62734	-17.08707	-17.08707	0	15.45973	0
484	5.69569	-68.34828	-73.2303	29.29212	38.24249	-70.78929	29.29212	-4.06835	-17.08707	-14.64606	2.44101	15.45973	0
485	5.69569	-65.90727	-70.78929	29.29212	38.24249	-68.34828	29.29212	-1.62734	-19.52808	-14.64606	4.88202	17.90074	0
486	13.01872	-61.02525	-73.2303	21.96909	43.12451	-65.90727	29.29212	-1.62734	-21.96909	-14.64606	7.32303	22.78276	0
487	15.45973	-61.02525	-75.67131	21.96909	45.56552	-68.34828	29.29212	-4.06835	-21.96909	-14.64606	4.88202	25.22377	0
488	8.1367	-63.46626	-70.78929	26.85111	38.24249	-65.90727	29.29212	-4.06835	-21.96909	-19.52808	2.44101	27.66478	0
489	8.1367	-63.46626	-70.78929	26.85111	38.24249	-65.90727	29.29212	-4.06835	-21.96909	-19.52808	2.44101	27.66478	0
490	10.57771	-63.46626	-73.2303	24.4101	40.6835	-68.34828	29.29212	-4.06835	-21.96909	-19.52808	2.44101	25.22377	0
491	8.1367	-65.90727	-73.2303	26.85111	40.6835	-68.34828	26.85111	-4.06835	-21.96909	-17.08707	0	22.78276	0
492	0	-73.2303	-73.2303	34.17414	35.80148	-73.2303	26.85111	-1.62734	-19.52808	-17.08707	2.44101	22.78276	0
493	-2.44101	-75.67131	-73.2303	36.61515	35.80148	-75.67131	24.4101	-1.62734	-17.08707	-17.08707	2.44101	20.34175	0
494	-2.44101	-75.67131	-73.2303	36.61515	35.80148	-75.67131	24.4101	-4.06835	-17.08707	-14.64606	2.44101	20.34175	0
495	-4.88202	-75.67131	-70.78929	39.05616	33.36047	-73.2303	24.4101	-4.06835	-19.52808	-14.64606	4.88202	20.34175	0
496	-7.32303	-78.11232	-70.78929	41.49717	30.91946	-75.67131	21.96909	-4.06835	-21.96909	-14.64606	4.88202	22.78276	0
497	-9.76404	-80.55333	-70.78929	43.93818	30.91946	-75.67131	19.52808	-4.06835	-21.96909	-12.20505	4.88202	22.78276	0
498	-9.76404	-80.55333	-70.78929	43.93818	30.91946	-75.67131	21.96909	-4.06835	-21.96909	-14.64606	2.44101	25.22377	0
499	-7.32303	-80.55333	-73.2303	41.49717	33.36047	-78.11232	21.96909	-4.06835	-21.96909	-14.64606	2.44101	25.22377	0
500	-4.88202	-75.67131	-70.78929	39.05616	33.36047	-73.2303	21.96909	-4.06835	-19.52808	-12.20505	4.88202	25.22377	0
501	-2.44101	-70.78929	-68.34828	34.17414	33.36047	-70.78929	21.96909	-1.62734	-17.08707	-12.20505	4.88202	25.22377	0
502	0	-68.34828	-68.34828	31.73313	33.36047	-68.34828	21.96909	0.81367	-17.08707	-9.76404	7.32303	25.22377	0
503	-4.88202	-70.78929	-65.90727	36.61515	30.91946	-68.34828	21.96909	0.81367	-14.64606	-12.20505	7.32303	25.22377	0
504	-7.32303	-75.67131	-68.34828	39.05616	30.91946	-73.2303	21.96909	0.81367	-12.20505	-12.20505	7.32303	22.78276	0
505	0	-75.67131	-75.67131	36.61515	38.24249	-75.67131	21.96909	0.81367	-14.64606	-12.20505	7.32303	22.78276	0
506	0	-75.67131	-75.67131	36.61515	38.24249	-75.67131	21.96909	-1.62734	-19.52808	-12.20505	7.32303	22.78276	0
507	0	-78.11232	-78.11232	36.61515	38.24249	-78.11232	19.52808	-4.06835	-19.52808	-14.64606	7.32303	25.22377	0
508	-4.88202	-80.55333	-75.67131	41.49717	35.80148	-78.11232	19.52808	-6.50936	-19.52808	-17.08707	2.44101	25.22377	0
509	-12.20505	-85.43535	-73.2303	46.37919	30.91946	-80.55333	17.08707	-8.95037	-19.52808	-19.52808	-2.44101	22.78276	0
510	-14.64606	-87.87636	-73.2303	48.8202	28.47845	-80.55333	17.08707	-8.95037	-19.52808	-19.52808	-2.44101	20.34175	0
511	-14.64606	-90.31737	-75.67131	51.26121	30.91946	-82.99434	12.20505	-8.95037	-19.52808	-19.52808	-2.44101	17.90074	0
512	-19.52808	-95.19939	-75.67131	56.14323	28.47845	-85.43535	12.20505	-11.39138	-19.52808	-19.52808	-4.88202	17.90074	0
513	-29.29212	-97.6404	-68.34828	61.02525	18.71441	-82.99434	12.20505	-11.39138	-17.08707	-19.52808	0	17.90074	0
514	-26.85111	-92.75838	-65.90727	58.58424	18.71441	-80.55333	12.20505	-11.39138	-14.64606	-17.08707	2.44101	17.90074	0
515	-26.85111	-90.31737	-63.46626	56.14323	18.71441	-78.11232	12.20505	-11.39138	-14.64606	-14.64606	2.44101	20.34175	0
516	-26.85111	-87.87636	-61.02525	56.14323	16.2734	-75.67131	12.20505	-11.39138	-19.52808	-14.64606	4.88202	22.78276	0
517	-24.4101	-85.43535	-61.02525	53.70222	18.71441	-73.2303	12.20505	-11.39138	-19.52808	-14.64606	7.32303	25.22377	0
518	-19.52808	-82.99434	-63.46626	48.8202	21.15542	-73.2303	12.20505	-11.39138	-19.52808	-17.08707	4.88202	25.22377	0
519	-14.64606	-80.55333	-65.90727	46.37919	26.03744	-73.2303	12.20505	-8.95037	-19.52808	-19.52808	2.44101	25.22377	0
520	-9.76404	-73.2303	-63.46626	39.05616	26.03744	-68.34828	12.20505	-6.50936	-14.64606	-14.64606	2.44101	25.22377	0
521	0	-63.46626	-63.46626	29.29212	30.91946	-63.46626	12.20505	-4.06835	-14.64606	-12.20505	2.44101	27.66478	0
522	3.25468	-61.02525	-63.46626	26.85111	33.36047	-61.02525	12.20505	-1.62734	-9.76404	-9.76404	4.88202	27.66478	0
523	0	-63.46626	-63.46626	29.29212	30.91946	-63.46626	14.64606	3.25468	-7.32303	-9.76404	7.32303	27.66478	0
524	-2.44101	-61.02525	-58.58424	29.29212	28.47845	-61.02525	17.08707	5.69569	-2.44101	-4.06835	9.76404	32.5468	0
525	-2.44101	-56.14323	-53.70222	26.85111	26.03744	-56.14323	19.52808	10.57771	0	0.81367	14.64606	34.98781	0
526	-4.88202	-51.26121	-46.37919	26.85111	21.15542	-48.8202	24.4101	17.90074	3.25468	5.69569	19.52808	39.86983	0
527	-4.88202	-46.37919	-41.49717	24.4101	18.71441	-43.93818	26.85111	20.34175	8.1367	8.1367	24.4101	44.75185	0
528	-4.88202	-39.05616	-34.17414	19.52808	13.83239	-36.61515	29.29212	22.78276	10.57771	8.1367	24.4101	44.75185	0
529	-4.88202	-34.17414	-29.29212	17.08707	11.39138	-31.73313	31.73313	25.22377	13.01872	8.1367	21.96909	44.75185	0
530	-2.44101	-29.29212	-26.85111	14.64606	11.39138	-29.29212	31.73313	27.66478	17.90074	13.01872	24.4101	44.75185	0
531	0	-21.96909	-21.96909	9.76404	11.39138	-21.96909	29.29212	30.10579	20.34175	15.45973	24.4101	44.75185	0
532	8.1367	-12.20505	-19.52808	-0.81367	13.83239	-14.64606	26.85111	32.5468	22.78276	15.45973	26.85111	44.75185	0
533	13.01872	-7.32303	-19.52808	-3.25468	16.2734	-12.20505	24.4101	32.5468	25.22377	15.45973	29.29212	44.75185	0
534	13.01872	-4.88202	-17.08707	-5.69569	13.83239	-9.76404	24.4101	32.5468	30.10579	15.45973	31.73313	47.19286	0
535	17.90074	-2.44101	-19.52808	-8.1367	18.71441	-9.76404	21.96909	35.80148	30.10579	20.34175	36.61515	49.63387	0
536	20.34175	0.81367	-19.52808	-10.57771	21.15542	-9.76404	19.52808	35.80148	30.10579	22.78276	41.49717	54.51589	0
537	22.78276	3.25468	-19.52808	-13.01872	21.15542	-7.32303	14.64606	32.5468	27.66478	22.78276	41.49717	54.51589	0
538	22.78276	3.25468	-19.52808	-13.01872	21.15542	-7.32303	9.76404	27.66478	27.66478	20.34175	39.05616	56.9569	0
539	25.22377	5.69569	-19.52808	-15.45973	23.59643	-7.32303	6.50936	25.22377	25.22377	17.90074	39.05616	56.9569	0
540	22.78276	5.69569	-17.08707	-15.45973	21.15542	-4.88202	1.62734	20.34175	20.34175	17.90074	39.05616	54.51589	0
541	20.34175	8.1367	-12.20505	-15.45973	16.2734	-2.44101	-3.25468	15.45973	20.34175	17.90074	39.05616	54.51589	0
542	22.78276	10.57771	-12.20505	-17.90074	18.71441	0.81367	-10.57771	8.1367	17.90074	15.45973	39.05616	52.07488	0
543	27.66478	13.01872	-14.64606	-20.34175	21.15542	0.81367	-17.90074	3.25468	15.45973	15.45973	39.05616	52.07488	0
544	25.22377	10.57771	-14.64606	-17.90074	21.15542	-2.44101	-25.22377	-1.62734	13.01872	15.45973	39.05616	52.07488	0
545	27.66478	10.57771	-17.08707	-20.34175	23.59643	-2.44101	-30.10579	-4.06835	10.57771	15.45973	41.49717	52.07488	0
546	32.5468	10.57771	-21.96909	-22.78276	28.47845	-4.88202	-30.10579	-1.62734	10.57771	17.90074	48.8202	56.9569	0
547	32.5468	10.57771	-21.96909	-22.78276	28.47845	-4.88202	-34.98781	-1.62734	13.01872	20.34175	51.26121	61.83892	0
548	39.86983	15.45973	-24.4101	-27.66478	33.36047	-4.88202	-34.98781	0.81367	15.45973	22.78276	53.70222	66.72094	0
549	49.63387	17.90074	-31.73313	-34.98781	40.6835	-7.32303	-34.98781	3.25468	20.34175	25.22377	58.58424	71.60296	0
550	52.07488	13.01872	-39.05616	-32.5468	45.56552	-12.20505	-34.98781	10.57771	27.66478	32.5468	61.02525	76.48498	0
551	52.07488	8.1367	-43.93818	-30.10579	48.00653	-17.08707	-34.98781	15.45973	32.5468	39.86983	65.90727	78.92599	0
552	59.39791	8.1367	-51.26121	-34.98781	55.32956	-21.96909	-34.98781	20.34175	37.42882	42.31084	70.78929	83.80801	0
553	66.72094	8.1367	-58.58424	-37.42882	62.65259	-24.4101	-30.10579	27.66478	44.75185	49.63387	75.67131	88.69003	0
554	71.60296	10.57771	-61.02525	-42.31084	67.53461	-24.4101	-25.22377	32.5468	54.51589	59.39791	85.43535	93.57205	0
555	71.60296	10.57771	-61.02525	-42.31084	67.53461	-24.4101	-22.78276	38.24249	59.39791	64.27993	90.31737	98.45407	0
556	66.72094	3.25468	-63.46626	-34.98781	65.0936	-29.29212	-20.34175	40.6835	59.39791	66.72094	95.19939	100.89508	0
557	61.83892	-4.88202	-65.90727	-30.10579	62.65259	-34.17414	-20.34175	43.12451	59.39791	69.16195	97.6404	103.33609	0
558	56.9569	-9.76404	-65.90727	-25.22377	60.21158	-36.61515	-17.90074	43.12451	59.39791	66.72094	97.6404	103.33609	0
559	59.39791	-9.76404	-68.34828	-25.22377	62.65259	-39.05616	-13.01872	43.12451	61.83892	66.72094	95.19939	100.89508	0
560	56.9569	-9.76404	-65.90727	-25.22377	60.21158	-36.61515	-8.1367	45.56552	64.27993	69.16195	95.19939	98.45407	0
561	44.75185	-14.64606	-58.58424	-15.45973	50.44754	-36.61515	-5.69569	45.56552	64.27993	66.72094	90.31737	93.57205	0
562	34.98781	-21.96909	-56.14323	-8.1367	45.56552	-39.05616	-3.25468	43.12451	59.39791	61.83892	82.99434	86.24902	0
563	25.22377	-29.29212	-53.70222	-0.81367	38.24249	-41.49717	-0.81367	40.6835	56.9569	54.51589	75.67131	78.92599	0
564	20.34175	-29.29212	-48.8202	2.44101	33.36047	-39.05616	4.06835	38.24249	54.51589	49.63387	68.34828	69.16195	0
565	13.01872	-34.17414	-46.37919	9.76404	28.47845	-39.05616	6.50936	38.24249	49.63387	47.19286	63.46626	61.83892	0
566	3.25468	-39.05616	-41.49717	17.08707	21.15542	-39.05616	6.50936	35.80148	42.31084	42.31084	58.58424	54.51589	0
567	0	-43.93818	-43.93818	19.52808	21.15542	-43.93818	9.76404	32.5468	34.98781	34.98781	53.70222	47.19286	0
568	-2.44101	-51.26121	-48.8202	24.4101	23.59643	-51.26121	9.76404	27.66478	30.10579	25.22377	46.37919	37.42882	0
569	0	-51.26121	-51.26121	24.4101	26.03744	-51.26121	9.76404	25.22377	27.66478	20.34175	39.05616	30.10579	0
570	0	-51.26121	-51.26121	24.4101	26.03744	-51.26121	9.76404	25.22377	27.66478	20.34175	36.61515	27.66478	0
571	0	-51.26121	-51.26121	24.4101	26.03744	-51.26121	6.50936	22.78276	25.22377	17.90074	36.61515	25.22377	0
572	-2.44101	-53.70222	-51.26121	26.85111	23.59643	-53.70222	6.50936	22.78276	25.22377	15.45973	34.17414	25.22377	0
573	0	-53.70222	-53.70222	24.4101	26.03744	-53.70222	6.50936	25.22377	25.22377	15.45973	34.17414	25.22377	0
574	0	-53.70222	-53.70222	24.4101	26.03744	-53.70222	6.50936	25.22377	27.66478	17.90074	34.17414	27.66478	0
575	5.69569	-53.70222	-58.58424	21.96909	30.91946	-56.14323	6.50936	27.66478	27.66478	17.90074	34.17414	27.66478	0
576	3.25468	-53.70222	-56.14323	24.4101	28.47845	-53.70222	6.50936	27.66478	27.66478	17.90074	34.17414	27.66478	0
577	-2.44101	-58.58424	-56.14323	29.29212	26.03744	-58.58424	6.50936	30.10579	25.22377	17.90074	31.73313	27.66478	0
578	-4.88202	-63.46626	-58.58424	31.73313	26.03744	-61.02525	6.50936	30.10579	22.78276	15.45973	26.85111	25.22377	0
579	-4.88202	-65.90727	-61.02525	34.17414	28.47845	-63.46626	9.76404	30.10579	22.78276	13.01872	21.96909	20.34175	0
580	-4.88202	-65.90727	-61.02525	34.17414	28.47845	-63.46626	9.76404	30.10579	20.34175	13.01872	17.08707	15.45973	0
581	-2.44101	-63.46626	-61.02525	31.73313	28.47845	-63.46626	9.76404	30.10579	20.34175	13.01872	14.64606	13.01872	0
582	-4.88202	-65.90727	-61.02525	34.17414	28.47845	-63.46626	9.76404	30.10579	17.90074	13.01872	12.20505	13.01872	0
583	-7.32303	-65.90727	-58.58424	34.17414	26.03744	-63.46626	12.20505	30.10579	20.34175	13.01872	12.20505	13.01872	0
584	-12.20505	-63.46626	-51.26121	36.61515	18.71441	-58.58424	14.64606	30.10579	22.78276	15.45973	12.20505	13.01872	0
585	-12.20505	-58.58424	-46.37919	34.17414	16.2734	-53.70222	17.08707	32.5468	22.78276	15.45973	9.76404	10.57771	0
586	-12.20505	-58.58424	-46.37919	34.17414	16.2734	-53.70222	19.52808	32.5468	22.78276	15.45973	12.20505	10.57771	0
587	-14.64606	-56.14323	-41.49717	34.17414	13.83239	-48.8202	21.96909	35.80148	22.78276	15.45973	12.20505	13.01872	0
588	-17.08707	-56.14323	-39.05616	34.17414	11.39138	-48.8202	26.85111	35.80148	22.78276	13.01872	12.20505	13.01872	0
589	-19.52808	-58.58424	-39.05616	36.61515	8.95037	-48.8202	26.85111	35.80148	20.34175	8.1367	9.76404	8.1367	0
590	-19.52808	-61.02525	-41.49717	39.05616	11.39138	-51.26121	26.85111	35.80148	20.34175	8.1367	7.32303	5.69569	0
591	-14.64606	-58.58424	-43.93818	34.17414	13.83239	-51.26121	24.4101	35.80148	17.90074	5.69569	4.88202	3.25468	0
592	-12.20505	-58.58424	-46.37919	34.17414	16.2734	-53.70222	24.4101	32.5468	15.45973	3.25468	2.44101	0.81367	0
593	-12.20505	-63.46626	-51.26121	36.61515	18.71441	-58.58424	21.96909	32.5468	13.01872	0.81367	2.44101	0.81367	0
594	-9.76404	-65.90727	-56.14323	36.61515	23.59643	-61.02525	21.96909	32.5468	15.45973	5.69569	4.88202	3.25468	0
595	-12.20505	-68.34828	-56.14323	39.05616	21.15542	-63.46626	21.96909	35.80148	15.45973	8.1367	4.88202	5.69569	0
596	-17.08707	-73.2303	-56.14323	43.93818	18.71441	-65.90727	21.96909	35.80148	13.01872	8.1367	7.32303	5.69569	0
597	-17.08707	-73.2303	-56.14323	43.93818	18.71441	-65.90727	21.96909	35.80148	13.01872	10.57771	9.76404	8.1367	0
598	-21.96909	-75.67131	-53.70222	46.37919	16.2734	-65.90727	24.4101	35.80148	15.45973	10.57771	9.76404	8.1367	0
599	-26.85111	-78.11232	-51.26121	51.26121	11.39138	-65.90727	24.4101	38.24249	17.90074	10.57771	9.76404	8.1367	0
600	-26.85111	-78.11232	-51.26121	51.26121	11.39138	-65.90727	24.4101	38.24249	20.34175	15.45973	9.76404	8.1367	0
601	-29.29212	-78.11232	-48.8202	51.26121	8.95037	-63.46626	24.4101	40.6835	22.78276	17.90074	9.76404	8.1367	0
602	-29.29212	-78.11232	-48.8202	51.26121	8.95037	-63.46626	21.96909	38.24249	22.78276	15.45973	9.76404	5.69569	0
603	-29.29212	-78.11232	-48.8202	51.26121	8.95037	-63.46626	19.52808	35.80148	20.34175	13.01872	7.32303	5.69569	0
604	-29.29212	-78.11232	-48.8202	51.26121	8.95037	-63.46626	19.52808	35.80148	20.34175	15.45973	7.32303	3.25468	0
605	-24.4101	-73.2303	-48.8202	46.37919	11.39138	-61.02525	19.52808	35.80148	20.34175	15.45973	7.32303	3.25468	0
606	-21.96909	-73.2303	-51.26121	46.37919	13.83239	-63.46626	19.52808	35.80148	15.45973	13.01872	7.32303	3.25468	0
607	-21.96909	-73.2303	-51.26121	46.37919	13.83239	-63.46626	17.08707	32.5468	10.57771	10.57771	4.88202	0.81367	0
608	-19.52808	-73.2303	-53.70222	43.93818	16.2734	-63.46626	19.52808	32.5468	8.1367	5.69569	4.88202	-1.62734	0
609	-24.4101	-75.67131	-51.26121	48.8202	13.83239	-63.46626	19.52808	32.5468	8.1367	5.69569	2.44101	-4.06835	0
610	-24.4101	-75.67131	-51.26121	48.8202	13.83239	-63.46626	19.52808	32.5468	10.57771	8.1367	0	-6.50936	0
611	-26.85111	-70.78929	-43.93818	46.37919	8.95037	-58.58424	17.08707	32.5468	10.57771	8.1367	0	-6.50936	0
612	-24.4101	-70.78929	-46.37919	46.37919	11.39138	-58.58424	14.64606	32.5468	10.57771	8.1367	0	-6.50936	0
613	-24.4101	-70.78929	-46.37919	46.37919	11.39138	-58.58424	14.64606	32.5468	10.57771	5.69569	-2.44101	-6.50936	0
614	-26.85111	-70.78929	-43.93818	46.37919	8.95037	-58.58424	14.64606	32.5468	15.45973	10.57771	0	-4.06835	0
615	-26.85111	-70.78929	-43.93818	46.37919	8.95037	-58.58424	14.64606	32.5468	15.45973	13.01872	2.44101	-4.06835	0
616	-24.4101	-65.90727	-41.49717	43.93818	8.95037	-53.70222	14.64606	32.5468	15.45973	15.45973	4.88202	-1.62734	0
617	-17.08707	-63.46626	-46.37919	39.05616	13.83239	-56.14323	14.64606	35.80148	15.45973	15.45973	7.32303	0.81367	0
618	-14.64606	-63.46626	-48.8202	36.61515	16.2734	-56.14323	14.64606	35.80148	17.90074	15.45973	7.32303	3.25468	0
619	-12.20505	-63.46626	-51.26121	36.61515	18.71441	-58.58424	14.64606	45.56552	0	15.45973	7.32303	3.25468	0
620	-9.76404	-63.46626	-53.70222	34.17414	21.15542	-58.58424	17.08707	32.5468	8.1367	5.69569	9.76404	3.25468	0
621	-12.20505	-68.34828	-56.14323	39.05616	21.15542	-63.46626	14.64606	35.80148	34.98781	17.90074	2.44101	5.69569	0
622	-12.20505	-73.2303	-61.02525	41.49717	23.59643	-68.34828	12.20505	25.22377	37.42882	13.01872	-9.76404	-4.06835	0
623	-12.20505	-78.11232	-65.90727	43.93818	26.03744	-73.2303	12.20505	50.44754	32.5468	34.98781	17.08707	8.1367	0
624	-2.44101	-80.55333	-78.11232	39.05616	38.24249	-80.55333	12.20505	55.32956	32.5468	34.98781	24.4101	5.69569	0
625	-31.73313	-90.31737	-58.58424	58.58424	13.83239	-75.67131	-0.81367	77.29865	52.07488	32.5468	29.29212	22.78276	0
626	-29.29212	-90.31737	-61.02525	58.58424	16.2734	-75.67131	34.17414	170.05703	108.21811	81.367	68.34828	59.39791	0
627	27.66478	-68.34828	-95.19939	19.52808	60.21158	-80.55333	17.08707	221.31824	159.47932	105.7771	90.31737	64.27993	0
628	34.98781	-122.0505	-156.22464	41.49717	94.38572	-139.13757	-5.69569	267.69743	227.8276	159.47932	129.37353	88.69003	0
629	44.75185	-163.54767	-207.48585	58.58424	126.11885	-185.51676	-32.5468	358.0148	313.26295	232.70962	202.60383	127.74619	0
630	61.83892	-173.31171	-234.33696	53.70222	148.08794	-202.60383	-59.39791	406.835	437.75446	323.02699	302.68524	191.21245	0
631	103.33609	-178.19373	-280.71615	36.61515	192.02612	-229.45494	-76.48498	465.41924	606.18415	449.95951	395.44362	257.11972	0
632	218.06356	-134.25555	-351.50544	-42.31084	284.7845	-241.65999	-100.89508	484.94732	772.17283	598.86112	544.34523	374.2882	0
633	274.20679	-144.01959	-417.41271	-66.72094	345.80975	-280.71615	-169.24336	475.18328	903.98737	777.05485	732.303	510.98476	0
634	369.40618	-124.49151	-493.08402	-122.86417	431.2451	-307.56726	-215.62255	443.45015	1057.771	965.01262	942.22986	672.09142	0
635	430.43143	-97.6404	-527.25816	-166.80235	477.62429	-312.44928	-283.97083	397.07096	1184.70352	1126.11928	1147.2747	845.40313	0
636	481.69264	-48.8202	-529.69917	-218.06356	504.4754	-288.03918	-352.31911	318.95864	1270.13887	1270.13887	1327.90944	1006.50979	0
637	557.36395	3.25468	-554.10927	-281.52982	555.73661	-275.83413	-464.60557	201.79016	1282.34392	1340.92816	1462.16499	1138.32433	0
638	535.39486	30.10579	-505.28907	-283.97083	521.56247	-236.77797	-542.71789	-45.56552	1050.44797	1206.67261	1398.69873	1131.0013	0
639	498.77971	59.39791	-439.3818	-279.08881	470.30126	-190.39878	-593.9791	-394.62995	596.42011	869.81323	1171.6848	1026.03787	0
640	418.22638	91.13104	-327.09534	-254.67871	372.66086	-117.16848	-615.94819	-768.10448	154.5973	506.10274	893.40966	874.69525	0
641	320.58598	100.89508	-219.6909	-210.74053	270.13844	-58.58424	-645.24031	-1107.40487	-244.101	176.56639	593.16543	674.53243	0
642	227.8276	86.24902	-141.57858	-157.03831	184.70309	-26.85111	-669.65041	-1417.41314	-610.2525	-100.08141	351.50544	532.95385	0
643	144.83326	54.51589	-90.31737	-100.89508	118.79582	-17.08707	-725.79364	-1727.42141	-1047.19329	-405.20766	65.90727	327.90901	0
644	13.01872	30.10579	17.90074	-22.78276	-1.62734	25.22377	-747.76273	-1942.23029	-1332.79146	-622.45755	-159.47932	159.47932	0
645	-61.02525	15.45973	76.48498	21.96909	-67.53461	44.75185	-737.99869	-1949.55332	-1398.69873	-724.97997	-291.29386	54.51589	0
646	-78.11232	25.22377	103.33609	24.4101	-89.5037	64.27993	-684.29647	-1810.41575	-1342.5555	-746.94906	-398.6983	-75.67131	0
647	-119.60949	5.69569	125.30518	56.14323	-121.23683	64.27993	-637.91728	-1639.54505	-1230.26904	-715.21593	-430.43143	-141.57858	0
648	-119.60949	34.98781	154.5973	41.49717	-135.88289	93.57205	-567.12799	-1432.0592	-1059.39834	-588.28341	-366.96517	-117.16848	0
649	-112.28646	100.89508	213.18154	4.88202	-162.734	157.03831	-493.89769	-1229.45537	-910.49673	-475.99695	-291.29386	-73.2303	0
650	-78.11232	179.0074	257.11972	-52.07488	-167.61602	218.06356	-418.22638	-1048.82063	-766.47714	-414.9717	-244.91467	-56.14323	0
651	-102.52242	174.12538	276.6478	-37.42882	-189.58511	225.38659	-376.72921	-882.83195	-632.22159	-346.62342	-225.38659	-53.70222	0
652	-97.6404	159.47932	257.11972	-32.5468	-177.38006	208.29952	-352.31911	-738.81236	-519.93513	-312.44928	-193.65346	-41.49717	0
653	-68.34828	174.12538	242.47366	-54.51589	-155.41097	208.29952	-320.58598	-619.20287	-458.90988	-261.18807	-179.0074	-34.17414	0
654	-63.46626	179.0074	242.47366	-59.39791	-152.96996	210.74053	-291.29386	-550.85459	-414.9717	-200.16282	-157.03831	-26.85111	0
655	-63.46626	174.12538	237.59164	-56.9569	-150.52895	205.85851	-240.03265	-480.0653	-353.94645	-168.42969	-139.95124	-24.4101	0
656	-58.58424	169.24336	227.8276	-56.9569	-143.20592	198.53548	-183.88942	-414.15803	-312.44928	-139.13757	-120.42316	-24.4101	0
657	-53.70222	164.36134	218.06356	-56.9569	-135.88289	191.21245	-157.03831	-365.33783	-280.71615	-126.93252	-108.21811	-26.85111	0
658	-56.14323	157.03831	213.18154	-52.07488	-133.44188	183.88942	-110.65912	-301.87157	-239.21898	-90.31737	-91.13104	-29.29212	0
659	-65.90727	149.71528	215.62255	-42.31084	-140.76491	181.44841	-81.367	-262.81541	-234.33696	-90.31737	-110.65912	-34.17414	0
660	-70.78929	137.51023	208.29952	-34.98781	-138.3239	171.68437	-76.48498	-257.93339	-229.45494	-117.16848	-108.21811	-39.05616	0
661	-73.2303	127.74619	200.97649	-27.66478	-135.88289	164.36134	-78.92599	-253.05137	-209.92686	-95.19939	-108.21811	-43.93818	0
662	-78.11232	120.42316	198.53548	-22.78276	-138.3239	159.47932	-54.51589	-228.64127	-173.31171	-92.75838	-110.65912	-48.8202	0
663	-80.55333	115.54114	196.09447	-17.90074	-138.3239	154.5973	-61.83892	-206.67218	-178.19373	-90.31737	-110.65912	-51.26121	0
664	-80.55333	113.10013	193.65346	-17.90074	-135.88289	152.15629	-56.9569	-204.23117	-183.07575	-87.87636	-110.65912	-51.26121	0
665	-82.99434	110.65912	193.65346	-15.45973	-138.3239	152.15629	-49.63387	-204.23117	-175.75272	-80.55333	-108.21811	-48.8202	0
666	-82.99434	110.65912	193.65346	-15.45973	-138.3239	152.15629	-42.31084	-179.82107	-168.42969	-73.2303	-103.33609	-43.93818	0
667	-80.55333	110.65912	191.21245	-15.45973	-135.88289	149.71528	-37.42882	-167.61602	-161.10666	-68.34828	-100.89508	-41.49717	0
668	-75.67131	113.10013	188.77144	-20.34175	-131.00087	149.71528	-30.10579	-157.85198	-151.34262	-65.90727	-98.45407	-39.05616	0
669	-75.67131	113.10013	188.77144	-20.34175	-131.00087	149.71528	-25.22377	-145.64693	-144.01959	-61.02525	-93.57205	-39.05616	0
670	-78.11232	113.10013	191.21245	-17.90074	-133.44188	152.15629	-17.90074	-135.88289	-136.69656	-53.70222	-91.13104	-36.61515	0
671	-78.11232	115.54114	193.65346	-20.34175	-135.88289	154.5973	-15.45973	-126.11885	-126.93252	-48.8202	-88.69003	-34.17414	0
672	-78.11232	117.98215	196.09447	-20.34175	-135.88289	157.03831	-13.01872	-118.79582	-122.0505	-46.37919	-86.24902	-34.17414	0
673	-78.11232	122.86417	200.97649	-22.78276	-138.3239	161.92033	-13.01872	-113.9138	-117.16848	-46.37919	-86.24902	-31.73313	0
674	-80.55333	122.86417	203.4175	-22.78276	-140.76491	161.92033	-10.57771	-111.47279	-112.28646	-41.49717	-86.24902	-31.73313	0
675	-80.55333	122.86417	203.4175	-22.78276	-140.76491	161.92033	-8.1367	-106.59077	-109.84545	-39.05616	-86.24902	-31.73313	0
676	-78.11232	122.86417	200.97649	-22.78276	-138.3239	161.92033	-8.1367	-104.14976	-112.28646	-39.05616	-81.367	-29.29212	0
677	-78.11232	122.86417	200.97649	-22.78276	-138.3239	161.92033	-8.1367	-101.70875	-112.28646	-39.05616	-81.367	-29.29212	0
678	-78.11232	122.86417	200.97649	-22.78276	-138.3239	161.92033	-5.69569	-101.70875	-107.40444	-39.05616	-81.367	-26.85111	0
679	-73.2303	122.86417	196.09447	-25.22377	-133.44188	159.47932	-5.69569	-96.82673	-102.52242	-39.05616	-78.92599	-26.85111	0
680	-73.2303	120.42316	193.65346	-25.22377	-133.44188	157.03831	-5.69569	-94.38572	-100.08141	-36.61515	-76.48498	-26.85111	0
681	-73.2303	117.98215	191.21245	-22.78276	-131.00087	154.5973	-5.69569	-89.5037	-97.6404	-34.17414	-71.60296	-26.85111	0
682	-70.78929	115.54114	186.33043	-22.78276	-128.55986	149.71528	-5.69569	-87.06269	-92.75838	-31.73313	-69.16195	-24.4101	0
683	-68.34828	117.98215	186.33043	-25.22377	-126.11885	152.15629	-3.25468	-82.18067	-87.87636	-29.29212	-66.72094	-21.96909	0
684	-70.78929	115.54114	186.33043	-22.78276	-128.55986	149.71528	-0.81367	-79.73966	-82.99434	-24.4101	-64.27993	-19.52808	0
685	-73.2303	115.54114	188.77144	-22.78276	-131.00087	152.15629	-0.81367	-74.85764	-80.55333	-21.96909	-61.83892	-17.08707	0
686	-73.2303	115.54114	188.77144	-22.78276	-131.00087	152.15629	-0.81367	-72.41663	-80.55333	-19.52808	-61.83892	-14.64606	0
687	-78.11232	115.54114	193.65346	-20.34175	-135.88289	154.5973	-0.81367	-69.97562	-80.55333	-19.52808	-59.39791	-14.64606	0
688	-80.55333	113.10013	193.65346	-17.90074	-135.88289	152.15629	-0.81367	-69.97562	-78.11232	-19.52808	-61.83892	-14.64606	0
689	-75.67131	117.98215	193.65346	-22.78276	-133.44188	154.5973	1.62734	-67.53461	-75.67131	-19.52808	-61.83892	-14.64606	0
690	-70.78929	122.86417	193.65346	-27.66478	-131.00087	157.03831	1.62734	-65.0936	-75.67131	-19.52808	-61.83892	-19.52808	0
691	-70.78929	122.86417	193.65346	-27.66478	-131.00087	157.03831	-0.81367	-65.0936	-75.67131	-19.52808	-61.83892	-21.96909	0
692	-68.34828	122.86417	191.21245	-27.66478	-128.55986	157.03831	-0.81367	-62.65259	-75.67131	-21.96909	-61.83892	-21.96909	0
693	-61.02525	127.74619	188.77144	-34.98781	-123.67784	157.03831	-0.81367	-60.21158	-75.67131	-21.96909	-61.83892	-21.96909	0
694	-61.02525	127.74619	188.77144	-34.98781	-123.67784	157.03831	1.62734	-57.77057	-70.78929	-21.96909	-61.83892	-21.96909	0
695	-61.02525	127.74619	188.77144	-34.98781	-123.67784	157.03831	6.50936	-50.44754	-68.34828	-19.52808	-59.39791	-19.52808	0
696	-61.02525	132.62821	193.65346	-37.42882	-126.11885	161.92033	9.76404	-40.6835	-65.90727	-17.08707	-52.07488	-14.64606	0
697	-63.46626	132.62821	196.09447	-34.98781	-128.55986	164.36134	12.20505	-38.24249	-65.90727	-17.08707	-49.63387	-14.64606	0
698	-68.34828	127.74619	196.09447	-30.10579	-131.00087	161.92033	14.64606	-35.80148	-65.90727	-17.08707	-54.51589	-14.64606	0
699	-68.34828	127.74619	196.09447	-30.10579	-131.00087	161.92033	19.52808	-30.91946	-61.02525	-17.08707	-54.51589	-14.64606	0
700	-68.34828	125.30518	193.65346	-30.10579	-131.00087	159.47932	19.52808	-23.59643	-58.58424	-12.20505	-54.51589	-14.64606	-1250	T-0
701	-73.2303	125.30518	198.53548	-27.66478	-135.88289	161.92033	21.96909	-21.15542	-56.14323	-9.76404	-54.51589	-14.64606	0
702	-73.2303	125.30518	198.53548	-27.66478	-135.88289	161.92033	21.96909	-16.2734	-56.14323	-9.76404	-54.51589	-14.64606	0
703	-70.78929	125.30518	196.09447	-27.66478	-133.44188	159.47932	21.96909	-16.2734	-56.14323	-9.76404	-54.51589	-17.08707	0
704	-68.34828	125.30518	193.65346	-30.10579	-131.00087	159.47932	19.52808	-18.71441	-56.14323	-9.76404	-56.9569	-21.96909	0
705	-61.02525	125.30518	186.33043	-32.5468	-123.67784	154.5973	19.52808	-18.71441	-56.14323	-9.76404	-59.39791	-24.4101	0
706	-56.14323	130.1872	186.33043	-37.42882	-121.23683	157.03831	21.96909	-13.83239	-56.14323	-9.76404	-56.9569	-21.96909	0
707	-58.58424	135.06922	193.65346	-39.86983	-126.11885	164.36134	26.85111	-8.95037	-51.26121	-6.50936	-54.51589	-19.52808	0
708	-58.58424	137.51023	196.09447	-39.86983	-126.11885	166.80235	31.73313	-6.50936	-46.37919	-6.50936	-54.51589	-17.08707	0
709	-63.46626	137.51023	200.97649	-37.42882	-131.00087	169.24336	36.61515	-1.62734	-43.93818	-6.50936	-54.51589	-17.08707	0
710	-68.34828	135.06922	203.4175	-34.98781	-135.88289	169.24336	41.49717	3.25468	-41.49717	-1.62734	-52.07488	-17.08707	0
711	-73.2303	132.62821	205.85851	-30.10579	-138.3239	169.24336	43.93818	10.57771	-36.61515	3.25468	-49.63387	-14.64606	0
712	-75.67131	132.62821	208.29952	-30.10579	-140.76491	169.24336	46.37919	15.45973	-29.29212	5.69569	-47.19286	-14.64606	0
713	-78.11232	132.62821	210.74053	-27.66478	-143.20592	171.68437	51.26121	20.34175	-26.85111	8.1367	-44.75185	-11.39138	0
714	-85.43535	127.74619	213.18154	-22.78276	-148.08794	169.24336	53.70222	25.22377	-21.96909	10.57771	-42.31084	-8.95037	0
715	-90.31737	122.86417	213.18154	-17.90074	-150.52895	166.80235	53.70222	30.10579	-21.96909	15.45973	-39.86983	-8.95037	0
716	-87.87636	120.42316	208.29952	-17.90074	-148.08794	164.36134	53.70222	32.5468	-21.96909	15.45973	-39.86983	-6.50936	0
717	-85.43535	125.30518	210.74053	-20.34175	-148.08794	166.80235	56.14323	35.80148	-21.96909	15.45973	-37.42882	-4.06835	0
718	-78.11232	127.74619	205.85851	-25.22377	-140.76491	166.80235	58.58424	38.24249	-17.08707	15.45973	-37.42882	-4.06835	0
719	-73.2303	135.06922	208.29952	-32.5468	-140.76491	171.68437	63.46626	43.12451	-12.20505	17.90074	-39.86983	-4.06835	0
720	-70.78929	137.51023	208.29952	-34.98781	-138.3239	171.68437	65.90727	50.44754	-7.32303	22.78276	-37.42882	-4.06835	0
721	-70.78929	142.39225	213.18154	-37.42882	-140.76491	176.56639	68.34828	57.77057	-2.44101	27.66478	-34.98781	-1.62734	0
722	-68.34828	144.83326	213.18154	-39.86983	-140.76491	179.0074	68.34828	62.65259	0	27.66478	-34.98781	-1.62734	0
723	-63.46626	152.15629	215.62255	-44.75185	-138.3239	183.88942	70.78929	69.97562	3.25468	30.10579	-34.98781	-1.62734	0
724	-63.46626	157.03831	220.50457	-47.19286	-140.76491	188.77144	73.2303	74.85764	10.57771	34.98781	-32.5468	0.81367	0
725	-63.46626	159.47932	222.94558	-49.63387	-143.20592	191.21245	75.67131	82.18067	15.45973	39.86983	-27.66478	3.25468	0
726	-61.02525	159.47932	220.50457	-49.63387	-140.76491	188.77144	78.11232	87.06269	15.45973	39.86983	-27.66478	5.69569	0
727	-61.02525	157.03831	218.06356	-49.63387	-138.3239	186.33043	80.55333	91.94471	15.45973	39.86983	-25.22377	5.69569	0
728	-61.02525	154.5973	215.62255	-47.19286	-138.3239	183.88942	80.55333	94.38572	20.34175	39.86983	-27.66478	3.25468	0
729	-61.02525	152.15629	213.18154	-47.19286	-135.88289	181.44841	82.99434	99.26774	20.34175	37.42882	-30.10579	3.25468	0
730	-58.58424	154.5973	213.18154	-49.63387	-135.88289	183.88942	85.43535	104.14976	25.22377	39.86983	-30.10579	3.25468	0
731	-56.14323	159.47932	215.62255	-52.07488	-135.88289	186.33043	87.87636	111.47279	32.5468	44.75185	-25.22377	5.69569	0
732	-56.14323	159.47932	215.62255	-52.07488	-135.88289	186.33043	90.31737	116.35481	37.42882	47.19286	-25.22377	5.69569	0
733	-58.58424	157.03831	215.62255	-49.63387	-135.88289	186.33043	95.19939	123.67784	42.31084	47.19286	-25.22377	5.69569	0
734	-61.02525	154.5973	215.62255	-47.19286	-138.3239	183.88942	97.6404	128.55986	47.19286	49.63387	-25.22377	5.69569	0
735	-61.02525	152.15629	213.18154	-47.19286	-135.88289	181.44841	102.52242	138.3239	54.51589	54.51589	-22.78276	8.1367	0
736	-61.02525	154.5973	215.62255	-47.19286	-138.3239	183.88942	107.40444	148.08794	56.9569	56.9569	-17.90074	13.01872	0
737	-61.02525	157.03831	218.06356	-49.63387	-138.3239	186.33043	112.28646	155.41097	61.83892	59.39791	-17.90074	15.45973	0
738	-63.46626	159.47932	222.94558	-49.63387	-143.20592	191.21245	117.16848	162.734	66.72094	59.39791	-17.90074	15.45973	0
739	-70.78929	149.71528	220.50457	-39.86983	-145.64693	183.88942	119.60949	170.05703	71.60296	59.39791	-17.90074	15.45973	0
740	-70.78929	144.83326	215.62255	-37.42882	-143.20592	179.0074	122.0505	177.38006	76.48498	61.83892	-17.90074	13.01872	0
741	-70.78929	142.39225	213.18154	-37.42882	-140.76491	176.56639	124.49151	182.26208	81.367	64.27993	-17.90074	13.01872	0
742	-63.46626	144.83326	208.29952	-42.31084	-135.88289	176.56639	126.93252	189.58511	83.80801	66.72094	-14.64606	15.45973	0
743	-61.02525	149.71528	210.74053	-44.75185	-135.88289	179.0074	126.93252	194.46713	88.69003	69.16195	-14.64606	15.45973	0
744	-58.58424	149.71528	208.29952	-47.19286	-133.44188	179.0074	129.37353	196.90814	93.57205	71.60296	-12.20505	15.45973	0
745	-53.70222	149.71528	203.4175	-49.63387	-128.55986	176.56639	131.81454	204.23117	93.57205	71.60296	-12.20505	15.45973	0
746	-46.37919	149.71528	196.09447	-52.07488	-121.23683	171.68437	134.25555	209.11319	93.57205	71.60296	-9.76404	17.90074	0
747	-43.93818	149.71528	193.65346	-54.51589	-118.79582	171.68437	136.69656	213.99521	93.57205	71.60296	-9.76404	17.90074	0
748	-46.37919	152.15629	198.53548	-54.51589	-121.23683	174.12538	141.57858	218.87723	96.01306	71.60296	-9.76404	17.90074	0
749	-48.8202	152.15629	200.97649	-52.07488	-123.67784	176.56639	146.4606	223.75925	98.45407	69.16195	-12.20505	15.45973	0
750	-46.37919	154.5973	200.97649	-54.51589	-123.67784	176.56639	146.4606	226.20026	98.45407	69.16195	-14.64606	10.57771	0
751	-46.37919	154.5973	200.97649	-54.51589	-123.67784	176.56639	148.90161	231.08228	98.45407	69.16195	-14.64606	10.57771	0
752	-43.93818	154.5973	198.53548	-56.9569	-121.23683	176.56639	151.34262	233.52329	100.89508	69.16195	-17.90074	8.1367	0
753	-41.49717	154.5973	196.09447	-56.9569	-118.79582	174.12538	151.34262	235.9643	103.33609	66.72094	-17.90074	8.1367	0
754	-41.49717	157.03831	198.53548	-59.39791	-118.79582	176.56639	153.78363	238.40531	103.33609	66.72094	-17.90074	8.1367	0
755	-41.49717	157.03831	198.53548	-59.39791	-118.79582	176.56639	156.22464	243.28733	103.33609	64.27993	-20.34175	5.69569	0
756	-39.05616	154.5973	193.65346	-59.39791	-116.35481	174.12538	156.22464	243.28733	100.89508	61.83892	-20.34175	5.69569	0
757	-34.17414	152.15629	186.33043	-59.39791	-109.03178	169.24336	156.22464	243.28733	96.01306	59.39791	-22.78276	5.69569	0
758	-34.17414	149.71528	183.88942	-59.39791	-109.03178	166.80235	158.66565	243.28733	96.01306	52.07488	-27.66478	3.25468	0
759	-39.05616	144.83326	183.88942	-54.51589	-111.47279	164.36134	161.10666	245.72834	96.01306	49.63387	-30.10579	3.25468	0
760	-39.05616	139.95124	179.0074	-52.07488	-109.03178	159.47932	161.10666	245.72834	93.57205	47.19286	-32.5468	0.81367	0
761	-43.93818	135.06922	179.0074	-47.19286	-111.47279	157.03831	161.10666	248.16935	91.13104	42.31084	-34.98781	-1.62734	0
762	-46.37919	125.30518	171.68437	-39.86983	-109.03178	147.27427	161.10666	248.16935	88.69003	37.42882	-37.42882	-4.06835	0
763	-51.26121	117.98215	169.24336	-34.98781	-109.03178	142.39225	156.22464	245.72834	86.24902	32.5468	-42.31084	-4.06835	0
764	-48.8202	115.54114	164.36134	-34.98781	-106.59077	139.95124	156.22464	243.28733	83.80801	27.66478	-44.75185	-6.50936	0
765	-43.93818	113.10013	157.03831	-34.98781	-99.26774	135.06922	156.22464	243.28733	78.92599	22.78276	-47.19286	-8.95037	0
766	-39.05616	108.21811	147.27427	-34.98781	-91.94471	127.74619	156.22464	245.72834	74.04397	17.90074	-49.63387	-8.95037	0
767	-31.73313	100.89508	132.62821	-34.98781	-82.18067	115.54114	153.78363	245.72834	69.16195	13.01872	-52.07488	-8.95037	0
768	-29.29212	91.13104	120.42316	-32.5468	-74.85764	105.7771	153.78363	243.28733	69.16195	5.69569	-59.39791	-11.39138	0
769	-29.29212	81.367	110.65912	-27.66478	-69.97562	96.01306	151.34262	243.28733	64.27993	-1.62734	-64.27993	-14.64606	0
770	-29.29212	74.04397	103.33609	-22.78276	-65.0936	88.69003	151.34262	240.84632	59.39791	-4.06835	-69.16195	-19.52808	0
771	-24.4101	71.60296	96.01306	-25.22377	-60.21158	83.80801	151.34262	240.84632	59.39791	-4.06835	-69.16195	-19.52808	0
772	-19.52808	69.16195	88.69003	-25.22377	-52.88855	78.92599	151.34262	240.84632	59.39791	-6.50936	-69.16195	-19.52808	0
773	-19.52808	61.83892	81.367	-22.78276	-50.44754	71.60296	148.90161	240.84632	56.9569	-9.76404	-71.60296	-21.96909	0
774	-17.08707	54.51589	71.60296	-20.34175	-43.12451	61.83892	148.90161	238.40531	56.9569	-12.20505	-71.60296	-21.96909	0
775	-14.64606	49.63387	64.27993	-17.90074	-38.24249	56.9569	148.90161	235.9643	52.07488	-14.64606	-71.60296	-24.4101	0
776	-9.76404	47.19286	56.9569	-20.34175	-33.36047	52.07488	148.90161	235.9643	47.19286	-19.52808	-71.60296	-24.4101	0
777	-4.88202	44.75185	49.63387	-20.34175	-26.03744	47.19286	146.4606	233.52329	42.31084	-24.4101	-71.60296	-24.4101	0
778	3.25468	39.86983	37.42882	-22.78276	-16.2734	39.86983	144.01959	228.64127	39.86983	-29.29212	-74.04397	-24.4101	0
779	13.01872	34.98781	22.78276	-25.22377	-4.06835	30.10579	144.01959	228.64127	39.86983	-36.61515	-76.48498	-24.4101	0
780	13.01872	27.66478	15.45973	-20.34175	-1.62734	22.78276	141.57858	228.64127	37.42882	-36.61515	-74.04397	-24.4101	0
781	20.34175	22.78276	3.25468	-22.78276	8.95037	13.01872	136.69656	226.20026	37.42882	-39.05616	-71.60296	-24.4101	0
782	22.78276	20.34175	-2.44101	-22.78276	13.83239	10.57771	134.25555	226.20026	37.42882	-41.49717	-69.16195	-21.96909	0
783	22.78276	15.45973	-7.32303	-20.34175	16.2734	5.69569	129.37353	223.75925	37.42882	-41.49717	-64.27993	-17.08707	0
784	27.66478	10.57771	-17.08707	-20.34175	23.59643	-2.44101	119.60949	218.87723	37.42882	-41.49717	-61.83892	-17.08707	0
785	32.5468	3.25468	-29.29212	-17.90074	30.91946	-12.20505	109.84545	213.99521	34.98781	-41.49717	-56.9569	-17.08707	0
786	32.5468	-2.44101	-34.17414	-15.45973	33.36047	-17.08707	100.08141	209.11319	32.5468	-43.93818	-52.07488	-14.64606	0
787	30.10579	-7.32303	-36.61515	-13.01872	33.36047	-21.96909	95.19939	201.79016	30.10579	-43.93818	-47.19286	-11.39138	0
788	30.10579	-12.20505	-41.49717	-10.57771	35.80148	-26.85111	87.87636	194.46713	30.10579	-46.37919	-47.19286	-11.39138	0
789	37.42882	-14.64606	-51.26121	-13.01872	43.12451	-31.73313	78.11232	184.70309	30.10579	-51.26121	-47.19286	-11.39138	0
790	37.42882	-21.96909	-58.58424	-8.1367	48.00653	-39.05616	68.34828	172.49804	27.66478	-51.26121	-47.19286	-11.39138	0
791	42.31084	-26.85111	-68.34828	-8.1367	55.32956	-46.37919	53.70222	162.734	22.78276	-53.70222	-44.75185	-11.39138	0
792	47.19286	-31.73313	-78.11232	-8.1367	62.65259	-53.70222	46.37919	155.41097	22.78276	-53.70222	-39.86983	-6.50936	0
793	47.19286	-36.61515	-82.99434	-5.69569	65.0936	-58.58424	43.93818	148.08794	25.22377	-53.70222	-32.5468	-1.62734	0
794	52.07488	-39.05616	-90.31737	-8.1367	69.97562	-63.46626	39.05616	143.20592	27.66478	-51.26121	-27.66478	3.25468	0
795	59.39791	-43.93818	-102.52242	-8.1367	79.73966	-73.2303	34.17414	140.76491	27.66478	-46.37919	-20.34175	8.1367	0
796	64.27993	-48.8202	-112.28646	-8.1367	87.06269	-80.55333	26.85111	138.3239	27.66478	-43.93818	-14.64606	15.45973	0
797	69.16195	-48.8202	-117.16848	-10.57771	91.94471	-82.99434	24.4101	133.44188	30.10579	-36.61515	-4.88202	22.78276	0
798	76.48498	-51.26121	-126.93252	-13.01872	101.70875	-87.87636	24.4101	131.00087	37.42882	-29.29212	2.44101	30.10579	0
799	83.80801	-51.26121	-134.25555	-17.90074	109.03178	-92.75838	24.4101	131.00087	44.75185	-24.4101	9.76404	34.98781	0
800	86.24902	-53.70222	-139.13757	-17.90074	111.47279	-95.19939	24.4101	131.00087	49.63387	-14.64606	17.08707	39.86983	0
801	91.13104	-53.70222	-144.01959	-20.34175	116.35481	-97.6404	24.4101	131.00087	59.39791	-4.06835	26.85111	44.75185	0
802	96.01306	-51.26121	-146.4606	-22.78276	121.23683	-97.6404	24.4101	133.44188	69.16195	5.69569	36.61515	54.51589	0
803	98.45407	-51.26121	-148.90161	-25.22377	123.67784	-100.08141	24.4101	131.00087	74.04397	10.57771	46.37919	59.39791	0
804	103.33609	-51.26121	-153.78363	-27.66478	128.55986	-102.52242	24.4101	128.55986	81.367	20.34175	51.26121	64.27993	0
805	105.7771	-51.26121	-156.22464	-27.66478	131.00087	-102.52242	24.4101	128.55986	81.367	25.22377	58.58424	69.16195	0
806	105.7771	-51.26121	-156.22464	-27.66478	131.00087	-102.52242	24.4101	123.67784	81.367	30.10579	63.46626	71.60296	0
807	98.45407	-51.26121	-148.90161	-25.22377	123.67784	-100.08141	26.85111	121.23683	83.80801	32.5468	68.34828	76.48498	0
808	88.69003	-51.26121	-139.13757	-20.34175	113.9138	-95.19939	31.73313	118.79582	86.24902	32.5468	68.34828	76.48498	0
809	81.367	-51.26121	-131.81454	-15.45973	106.59077	-90.31737	31.73313	113.9138	83.80801	32.5468	63.46626	69.16195	0
810	71.60296	-53.70222	-124.49151	-10.57771	96.82673	-87.87636	31.73313	104.14976	76.48498	27.66478	53.70222	59.39791	0
811	56.9569	-58.58424	-114.72747	-0.81367	84.62168	-85.43535	31.73313	94.38572	69.16195	20.34175	43.93818	49.63387	0
812	39.86983	-65.90727	-104.96343	12.20505	72.41663	-85.43535	34.17414	87.06269	61.83892	15.45973	34.17414	39.86983	0
813	25.22377	-70.78929	-95.19939	21.96909	60.21158	-82.99434	36.61515	77.29865	54.51589	8.1367	26.85111	30.10579	0
814	15.45973	-78.11232	-92.75838	29.29212	52.88855	-85.43535	36.61515	67.53461	49.63387	0.81367	17.08707	17.90074	0
815	8.1367	-80.55333	-87.87636	34.17414	48.00653	-82.99434	39.05616	62.65259	39.86983	-4.06835	7.32303	10.57771	0
816	8.1367	-80.55333	-87.87636	34.17414	48.00653	-82.99434	39.05616	55.32956	32.5468	-9.76404	2.44101	3.25468	0
817	8.1367	-80.55333	-87.87636	34.17414	48.00653	-82.99434	39.05616	48.00653	25.22377	-14.64606	-2.44101	-1.62734	0
818	8.1367	-78.11232	-85.43535	34.17414	45.56552	-80.55333	41.49717	43.12451	22.78276	-17.08707	-7.32303	-1.62734	0
819	13.01872	-75.67131	-87.87636	29.29212	50.44754	-80.55333	43.93818	40.6835	22.78276	-17.08707	-7.32303	-1.62734	0
820	13.01872	-73.2303	-85.43535	29.29212	48.00653	-78.11232	43.93818	38.24249	22.78276	-14.64606	-7.32303	-6.50936	0
821	15.45973	-73.2303	-87.87636	26.85111	50.44754	-80.55333	41.49717	35.80148	22.78276	-14.64606	-7.32303	-6.50936	0
822	10.57771	-73.2303	-82.99434	29.29212	45.56552	-78.11232	43.93818	38.24249	25.22377	-12.20505	-4.88202	-6.50936	0
823	5.69569	-70.78929	-75.67131	31.73313	40.6835	-73.2303	43.93818	38.24249	27.66478	-9.76404	-4.88202	-6.50936	0
824	0	-70.78929	-70.78929	34.17414	35.80148	-70.78929	43.93818	35.80148	30.10579	-9.76404	-4.88202	-6.50936	0
825	-2.44101	-70.78929	-68.34828	34.17414	33.36047	-70.78929	43.93818	35.80148	30.10579	-9.76404	-4.88202	-8.95037	0
826	-7.32303	-75.67131	-68.34828	39.05616	30.91946	-73.2303	43.93818	35.80148	30.10579	-9.76404	-4.88202	-8.95037	0
827	-14.64606	-82.99434	-68.34828	46.37919	26.03744	-75.67131	41.49717	38.24249	27.66478	-9.76404	-2.44101	-8.95037	0
828	-17.08707	-82.99434	-65.90727	48.8202	23.59643	-75.67131	43.93818	38.24249	30.10579	-9.76404	-2.44101	-8.95037	0
829	-17.08707	-78.11232	-61.02525	46.37919	21.15542	-70.78929	46.37919	38.24249	30.10579	-9.76404	-2.44101	-8.95037	0
830	-14.64606	-73.2303	-58.58424	41.49717	21.15542	-65.90727	43.93818	38.24249	30.10579	-6.50936	-4.88202	-11.39138	0
831	-12.20505	-70.78929	-58.58424	39.05616	23.59643	-65.90727	39.05616	38.24249	30.10579	-4.06835	-4.88202	-11.39138	0
832	-17.08707	-73.2303	-56.14323	43.93818	18.71441	-65.90727	39.05616	40.6835	32.5468	-4.06835	-4.88202	-11.39138	0
833	-17.08707	-78.11232	-61.02525	46.37919	21.15542	-70.78929	39.05616	40.6835	32.5468	-4.06835	-2.44101	-11.39138	0
834	-17.08707	-78.11232	-61.02525	46.37919	21.15542	-70.78929	36.61515	40.6835	34.98781	0.81367	0	-8.95037	0
835	-14.64606	-78.11232	-63.46626	43.93818	23.59643	-70.78929	36.61515	43.12451	34.98781	3.25468	0	-8.95037	0
836	-14.64606	-80.55333	-65.90727	46.37919	26.03744	-73.2303	34.17414	43.12451	32.5468	3.25468	0	-8.95037	0
837	-19.52808	-87.87636	-68.34828	51.26121	23.59643	-78.11232	31.73313	43.12451	30.10579	3.25468	2.44101	-6.50936	0
838	-19.52808	-92.75838	-73.2303	53.70222	26.03744	-82.99434	34.17414	43.12451	32.5468	3.25468	2.44101	-6.50936	0
839	-19.52808	-92.75838	-73.2303	53.70222	26.03744	-82.99434	36.61515	45.56552	32.5468	3.25468	0	-6.50936	0
840	-17.08707	-90.31737	-73.2303	51.26121	28.47845	-82.99434	36.61515	48.00653	34.98781	5.69569	0	-8.95037	0
841	-14.64606	-85.43535	-70.78929	48.8202	28.47845	-78.11232	36.61515	48.00653	37.42882	8.1367	0	-8.95037	0
842	-17.08707	-87.87636	-70.78929	51.26121	26.03744	-80.55333	36.61515	50.44754	37.42882	5.69569	-2.44101	-11.39138	0
843	-21.96909	-87.87636	-65.90727	53.70222	21.15542	-78.11232	36.61515	50.44754	37.42882	5.69569	-2.44101	-14.64606	0
844	-24.4101	-87.87636	-63.46626	53.70222	18.71441	-75.67131	39.05616	50.44754	37.42882	5.69569	-4.88202	-14.64606	0
845	-26.85111	-87.87636	-61.02525	56.14323	16.2734	-75.67131	39.05616	52.88855	34.98781	5.69569	-4.88202	-17.08707	0
846	-29.29212	-82.99434	-53.70222	53.70222	11.39138	-68.34828	39.05616	55.32956	30.10579	3.25468	-4.88202	-17.08707	0
847	-31.73313	-82.99434	-51.26121	56.14323	8.95037	-68.34828	41.49717	55.32956	30.10579	3.25468	-7.32303	-19.52808	0
848	-31.73313	-90.31737	-58.58424	58.58424	13.83239	-75.67131	43.93818	52.88855	27.66478	-1.62734	-12.20505	-21.96909	0
849	-34.17414	-92.75838	-58.58424	61.02525	11.39138	-75.67131	43.93818	52.88855	25.22377	-4.06835	-17.90074	-24.4101	0
850	-31.73313	-90.31737	-58.58424	58.58424	13.83239	-75.67131	46.37919	52.88855	27.66478	-1.62734	-17.90074	-26.85111	0
851	-26.85111	-90.31737	-63.46626	56.14323	18.71441	-78.11232	46.37919	52.88855	30.10579	-1.62734	-17.90074	-29.29212	0
852	-21.96909	-87.87636	-65.90727	53.70222	21.15542	-78.11232	43.93818	52.88855	30.10579	-1.62734	-20.34175	-31.73313	0
853	-19.52808	-87.87636	-68.34828	51.26121	23.59643	-78.11232	46.37919	55.32956	32.5468	-1.62734	-20.34175	-29.29212	0
854	-19.52808	-90.31737	-70.78929	53.70222	26.03744	-80.55333	46.37919	55.32956	37.42882	3.25468	-17.90074	-26.85111	0
855	-21.96909	-95.19939	-73.2303	56.14323	26.03744	-85.43535	46.37919	57.77057	39.86983	8.1367	-12.20505	-21.96909	0
856	-21.96909	-97.6404	-75.67131	58.58424	26.03744	-87.87636	46.37919	60.21158	37.42882	8.1367	-7.32303	-19.52808	0
857	-21.96909	-100.08141	-78.11232	58.58424	28.47845	-90.31737	43.93818	57.77057	37.42882	10.57771	-7.32303	-17.08707	0
858	-24.4101	-104.96343	-80.55333	63.46626	28.47845	-92.75838	43.93818	55.32956	37.42882	8.1367	-7.32303	-17.08707	0
859	-26.85111	-107.40444	-80.55333	65.90727	26.03744	-95.19939	41.49717	52.88855	37.42882	5.69569	-7.32303	-17.08707	0
860	-29.29212	-107.40444	-78.11232	65.90727	23.59643	-92.75838	39.05616	50.44754	34.98781	5.69569	-7.32303	-19.52808	0
861	-29.29212	-109.84545	-80.55333	68.34828	26.03744	-95.19939	34.17414	48.00653	32.5468	5.69569	-9.76404	-21.96909	0
862	-21.96909	-104.96343	-82.99434	61.02525	30.91946	-95.19939	31.73313	48.00653	30.10579	0.81367	-12.20505	-26.85111	0
863	-19.52808	-102.52242	-82.99434	58.58424	30.91946	-92.75838	31.73313	48.00653	27.66478	-1.62734	-14.64606	-29.29212	0
864	-17.08707	-100.08141	-82.99434	56.14323	33.36047	-92.75838	31.73313	43.12451	27.66478	-4.06835	-17.90074	-31.73313	0
865	-14.64606	-100.08141	-85.43535	56.14323	35.80148	-92.75838	29.29212	43.12451	22.78276	-4.06835	-22.78276	-36.61515	0
866	-9.76404	-100.08141	-90.31737	53.70222	40.6835	-95.19939	26.85111	40.6835	17.90074	-9.76404	-22.78276	-39.05616	0
867	-7.32303	-100.08141	-92.75838	51.26121	43.12451	-97.6404	26.85111	40.6835	15.45973	-9.76404	-22.78276	-39.05616	0
868	-7.32303	-100.08141	-92.75838	51.26121	43.12451	-97.6404	29.29212	40.6835	13.01872	-12.20505	-27.66478	-43.93818	0
869	-12.20505	-102.52242	-90.31737	56.14323	38.24249	-97.6404	31.73313	40.6835	13.01872	-14.64606	-30.10579	-46.37919	0
870	-17.08707	-109.84545	-92.75838	61.02525	38.24249	-102.52242	29.29212	40.6835	13.01872	-14.64606	-30.10579	-48.8202	0
871	-17.08707	-114.72747	-97.6404	63.46626	40.6835	-107.40444	24.4101	35.80148	8.1367	-14.64606	-32.5468	-53.70222	0
872	-17.08707	-119.60949	-102.52242	65.90727	43.12451	-112.28646	19.52808	32.5468	8.1367	-14.64606	-34.98781	-53.70222	0
873	-29.29212	-122.0505	-92.75838	73.2303	30.91946	-107.40444	21.96909	32.5468	8.1367	-12.20505	-30.10579	-51.26121	0
874	-41.49717	-122.0505	-80.55333	80.55333	18.71441	-102.52242	21.96909	38.24249	13.01872	-9.76404	-25.22377	-46.37919	0
875	-41.49717	-117.16848	-75.67131	78.11232	16.2734	-97.6404	21.96909	38.24249	13.01872	-9.76404	-25.22377	-46.37919	0
876	-41.49717	-117.16848	-75.67131	78.11232	16.2734	-97.6404	21.96909	38.24249	10.57771	-9.76404	-25.22377	-43.93818	0
877	-39.05616	-114.72747	-75.67131	75.67131	18.71441	-95.19939	21.96909	38.24249	10.57771	-9.76404	-20.34175	-43.93818	0
878	-36.61515	-114.72747	-78.11232	73.2303	21.15542	-97.6404	21.96909	35.80148	13.01872	-9.76404	-20.34175	-41.49717	0
879	-36.61515	-107.40444	-70.78929	70.78929	16.2734	-90.31737	26.85111	38.24249	13.01872	-6.50936	-17.90074	-39.05616	0
880	-36.61515	-102.52242	-65.90727	68.34828	13.83239	-85.43535	29.29212	38.24249	15.45973	-1.62734	-17.90074	-36.61515	0
881	-31.73313	-95.19939	-63.46626	61.02525	16.2734	-80.55333	29.29212	38.24249	15.45973	-1.62734	-17.90074	-39.05616	0
882	-21.96909	-92.75838	-70.78929	56.14323	23.59643	-82.99434	26.85111	35.80148	13.01872	-4.06835	-20.34175	-41.49717	0
883	-24.4101	-95.19939	-70.78929	58.58424	23.59643	-82.99434	24.4101	35.80148	8.1367	-9.76404	-20.34175	-43.93818	0
884	-26.85111	-97.6404	-70.78929	61.02525	21.15542	-85.43535	24.4101	32.5468	5.69569	-9.76404	-22.78276	-43.93818	0
885	-26.85111	-97.6404	-70.78929	61.02525	21.15542	-85.43535	21.96909	32.5468	5.69569	-6.50936	-22.78276	-43.93818	0
886	-29.29212	-95.19939	-65.90727	61.02525	18.71441	-80.55333	17.08707	30.10579	3.25468	-6.50936	-25.22377	-43.93818	0
887	-29.29212	-92.75838	-63.46626	58.58424	16.2734	-78.11232	14.64606	27.66478	3.25468	-6.50936	-25.22377	-46.37919	0
888	-26.85111	-92.75838	-65.90727	58.58424	18.71441	-80.55333	12.20505	25.22377	0	-9.76404	-25.22377	-48.8202	0
889	-26.85111	-92.75838	-65.90727	58.58424	18.71441	-80.55333	12.20505	22.78276	0	-9.76404	-25.22377	-48.8202	0
890	-26.85111	-95.19939	-68.34828	58.58424	21.15542	-82.99434	9.76404	20.34175	0	-9.76404	-27.66478	-48.8202	0
891	-24.4101	-95.19939	-70.78929	58.58424	23.59643	-82.99434	6.50936	17.90074	0	-12.20505	-27.66478	-48.8202	0
892	-21.96909	-95.19939	-73.2303	56.14323	26.03744	-85.43535	6.50936	17.90074	0	-9.76404	-27.66478	-48.8202	0
893	-19.52808	-92.75838	-73.2303	53.70222	26.03744	-82.99434	6.50936	20.34175	0	-9.76404	-27.66478	-48.8202	0
894	-19.52808	-95.19939	-75.67131	56.14323	28.47845	-85.43535	6.50936	20.34175	-4.88202	-9.76404	-27.66478	-48.8202	0
895	-21.96909	-97.6404	-75.67131	58.58424	26.03744	-87.87636	6.50936	20.34175	-4.88202	-12.20505	-27.66478	-48.8202	0
896	-26.85111	-100.08141	-73.2303	61.02525	23.59643	-87.87636	6.50936	20.34175	-4.88202	-14.64606	-27.66478	-46.37919	0
897	-26.85111	-97.6404	-70.78929	61.02525	21.15542	-85.43535	6.50936	20.34175	-4.88202	-12.20505	-27.66478	-48.8202	0
898	-29.29212	-97.6404	-68.34828	61.02525	18.71441	-82.99434	6.50936	17.90074	-4.88202	-12.20505	-27.66478	-48.8202	0
899	-31.73313	-100.08141	-68.34828	63.46626	18.71441	-85.43535	4.06835	17.90074	-4.88202	-12.20505	-27.66478	-48.8202	0
900	-34.17414	-100.08141	-65.90727	65.90727	16.2734	-82.99434	1.62734	17.90074	-7.32303	-12.20505	-25.22377	-48.8202	0
901	-34.17414	-97.6404	-63.46626	63.46626	13.83239	-80.55333	1.62734	15.45973	-7.32303	-14.64606	-25.22377	-48.8202	0
902	-34.17414	-97.6404	-63.46626	63.46626	13.83239	-80.55333	1.62734	13.01872	-7.32303	-14.64606	-25.22377	-48.8202	0
903	-31.73313	-97.6404	-65.90727	63.46626	16.2734	-82.99434	1.62734	13.01872	-9.76404	-14.64606	-25.22377	-46.37919	0
904	-29.29212	-92.75838	-63.46626	58.58424	16.2734	-78.11232	1.62734	13.01872	-17.08707	-14.64606	-25.22377	-46.37919	0
905	-29.29212	-92.75838	-63.46626	58.58424	16.2734	-78.11232	1.62734	10.57771	-17.08707	-17.08707	-25.22377	-46.37919	0
906	-34.17414	-95.19939	-61.02525	63.46626	13.83239	-78.11232	4.06835	10.57771	-14.64606	-17.08707	-27.66478	-43.93818	0
907	-31.73313	-92.75838	-61.02525	61.02525	13.83239	-78.11232	4.06835	10.57771	-14.64606	-17.08707	-27.66478	-43.93818	0
908	-21.96909	-90.31737	-68.34828	53.70222	23.59643	-80.55333	-0.81367	8.1367	-17.08707	-17.08707	-27.66478	-46.37919	0
909	-21.96909	-90.31737	-68.34828	53.70222	23.59643	-80.55333	-3.25468	5.69569	-17.08707	-17.08707	-27.66478	-46.37919	0
910	-19.52808	-90.31737	-70.78929	53.70222	26.03744	-80.55333	-8.1367	3.25468	-17.08707	-19.52808	-27.66478	-46.37919	0
911	-17.08707	-90.31737	-73.2303	51.26121	28.47845	-82.99434	-10.57771	-1.62734	-19.52808	-19.52808	-27.66478	-48.8202	0
912	-17.08707	-90.31737	-73.2303	51.26121	28.47845	-82.99434	-10.57771	-1.62734	-19.52808	-17.08707	-27.66478	-46.37919	0
913	-17.08707	-90.31737	-73.2303	51.26121	28.47845	-82.99434	-13.01872	-1.62734	-19.52808	-17.08707	-25.22377	-46.37919	0
914	-19.52808	-90.31737	-70.78929	53.70222	26.03744	-80.55333	-15.45973	-4.06835	-26.85111	-17.08707	-25.22377	-46.37919	0
915	-17.08707	-92.75838	-75.67131	53.70222	28.47845	-85.43535	-17.90074	-11.39138	-26.85111	-19.52808	-30.10579	-48.8202	0
916	-21.96909	-95.19939	-73.2303	56.14323	26.03744	-85.43535	-20.34175	-13.83239	-29.29212	-21.96909	-30.10579	-48.8202	0
917	-19.52808	-95.19939	-75.67131	56.14323	28.47845	-85.43535	-20.34175	-13.83239	-29.29212	-19.52808	-30.10579	-48.8202	0
918	-17.08707	-95.19939	-78.11232	53.70222	30.91946	-87.87636	-20.34175	-13.83239	-26.85111	-17.08707	-27.66478	-48.8202	0
919	-19.52808	-95.19939	-75.67131	56.14323	28.47845	-85.43535	-20.34175	-13.83239	-26.85111	-14.64606	-27.66478	-48.8202	0
920	-17.08707	-90.31737	-73.2303	51.26121	28.47845	-82.99434	-20.34175	-13.83239	-26.85111	-14.64606	-27.66478	-48.8202	0
921	-14.64606	-90.31737	-75.67131	51.26121	30.91946	-82.99434	-22.78276	-13.83239	-26.85111	-14.64606	-27.66478	-48.8202	0
922	-14.64606	-92.75838	-78.11232	51.26121	30.91946	-85.43535	-25.22377	-13.83239	-26.85111	-14.64606	-27.66478	-51.26121	0
923	-7.32303	-90.31737	-82.99434	46.37919	38.24249	-87.87636	-27.66478	-13.83239	-29.29212	-14.64606	-27.66478	-51.26121	0
924	-7.32303	-85.43535	-78.11232	43.93818	35.80148	-82.99434	-27.66478	-13.83239	-34.17414	-14.64606	-25.22377	-48.8202	0
925	-9.76404	-90.31737	-80.55333	48.8202	35.80148	-85.43535	-27.66478	-16.2734	-34.17414	-14.64606	-25.22377	-48.8202	0
926	-17.08707	-92.75838	-75.67131	53.70222	28.47845	-85.43535	-30.10579	-18.71441	-31.73313	-17.08707	-30.10579	-48.8202	0
927	-21.96909	-92.75838	-70.78929	56.14323	23.59643	-82.99434	-34.98781	-21.15542	-31.73313	-17.08707	-30.10579	-51.26121	0
928	-24.4101	-90.31737	-65.90727	56.14323	21.15542	-78.11232	-37.42882	-21.15542	-34.17414	-17.08707	-30.10579	-53.70222	0
929	-24.4101	-87.87636	-63.46626	53.70222	18.71441	-75.67131	-42.31084	-23.59643	-34.17414	-17.08707	-32.5468	-53.70222	0
930	-21.96909	-85.43535	-63.46626	51.26121	21.15542	-75.67131	-44.75185	-23.59643	-34.17414	-17.08707	-32.5468	-53.70222	0
931	-19.52808	-82.99434	-63.46626	48.8202	21.15542	-73.2303	-44.75185	-23.59643	-29.29212	-14.64606	-30.10579	-51.26121	0
932	-19.52808	-80.55333	-61.02525	48.8202	21.15542	-70.78929	-42.31084	-21.15542	-26.85111	-9.76404	-30.10579	-51.26121	0
933	-21.96909	-78.11232	-56.14323	48.8202	16.2734	-68.34828	-42.31084	-21.15542	-29.29212	-9.76404	-30.10579	-51.26121	0
934	-19.52808	-75.67131	-56.14323	46.37919	18.71441	-65.90727	-42.31084	-21.15542	-34.17414	-9.76404	-30.10579	-51.26121	0
935	-19.52808	-75.67131	-56.14323	46.37919	18.71441	-65.90727	-42.31084	-21.15542	-34.17414	-9.76404	-30.10579	-51.26121	0
936	-19.52808	-75.67131	-56.14323	46.37919	18.71441	-65.90727	-42.31084	-21.15542	-31.73313	-9.76404	-32.5468	-48.8202	0
937	-19.52808	-75.67131	-56.14323	46.37919	18.71441	-65.90727	-39.86983	-21.15542	-29.29212	-9.76404	-32.5468	-48.8202	0
938	-19.52808	-78.11232	-58.58424	46.37919	18.71441	-68.34828	-39.86983	-18.71441	-29.29212	-9.76404	-32.5468	-51.26121	0
939	-19.52808	-78.11232	-58.58424	46.37919	18.71441	-68.34828	-42.31084	-18.71441	-29.29212	-9.76404	-32.5468	-51.26121	0
940	-14.64606	-75.67131	-61.02525	43.93818	23.59643	-68.34828	-44.75185	-21.15542	-29.29212	-9.76404	-32.5468	-53.70222	0
941	-7.32303	-70.78929	-63.46626	36.61515	28.47845	-68.34828	-47.19286	-23.59643	-31.73313	-12.20505	-34.98781	-53.70222	0
942	-7.32303	-68.34828	-61.02525	36.61515	26.03744	-65.90727	-49.63387	-26.03744	-31.73313	-9.76404	-34.98781	-56.14323	0
943	-2.44101	-65.90727	-63.46626	31.73313	30.91946	-65.90727	-52.07488	-26.03744	-34.17414	-9.76404	-34.98781	-56.14323	0
944	-2.44101	-65.90727	-63.46626	31.73313	30.91946	-65.90727	-52.07488	-26.03744	-39.05616	-12.20505	-34.98781	-56.14323	0
945	-2.44101	-65.90727	-63.46626	31.73313	30.91946	-65.90727	-52.07488	-28.47845	-41.49717	-14.64606	-37.42882	-56.14323	0
946	-2.44101	-65.90727	-63.46626	31.73313	30.91946	-65.90727	-56.9569	-30.91946	-41.49717	-19.52808	-42.31084	-58.58424	0
947	-2.44101	-65.90727	-63.46626	31.73313	30.91946	-65.90727	-59.39791	-30.91946	-41.49717	-19.52808	-44.75185	-63.46626	0
948	-4.88202	-65.90727	-61.02525	34.17414	28.47845	-63.46626	-59.39791	-30.91946	-43.93818	-19.52808	-44.75185	-63.46626	0
949	-7.32303	-68.34828	-61.02525	36.61515	26.03744	-65.90727	-61.83892	-30.91946	-43.93818	-19.52808	-44.75185	-65.90727	0
950	-9.76404	-68.34828	-58.58424	36.61515	23.59643	-63.46626	-64.27993	-30.91946	-41.49717	-17.08707	-44.75185	-65.90727	0
951	-7.32303	-65.90727	-58.58424	34.17414	26.03744	-63.46626	-64.27993	-30.91946	-39.05616	-19.52808	-42.31084	-65.90727	0
952	-2.44101	-63.46626	-61.02525	31.73313	28.47845	-63.46626	-64.27993	-30.91946	-39.05616	-17.08707	-42.31084	-65.90727	0
953	0	-63.46626	-63.46626	29.29212	30.91946	-63.46626	-66.72094	-30.91946	-39.05616	-17.08707	-42.31084	-65.90727	0
954	0	-61.02525	-61.02525	29.29212	30.91946	-61.02525	-64.27993	-30.91946	-41.49717	-14.64606	-39.86983	-63.46626	0
955	-4.88202	-61.02525	-56.14323	31.73313	26.03744	-58.58424	-64.27993	-30.91946	-41.49717	-14.64606	-39.86983	-63.46626	0
956	-7.32303	-63.46626	-56.14323	34.17414	23.59643	-61.02525	-64.27993	-30.91946	-41.49717	-17.08707	-42.31084	-63.46626	0
957	-7.32303	-63.46626	-56.14323	34.17414	23.59643	-61.02525	-64.27993	-30.91946	-41.49717	-14.64606	-42.31084	-63.46626	0
958	-9.76404	-63.46626	-53.70222	34.17414	21.15542	-58.58424	-66.72094	-33.36047	-39.05616	-14.64606	-42.31084	-63.46626	0
959	-9.76404	-63.46626	-53.70222	34.17414	21.15542	-58.58424	-66.72094	-33.36047	-39.05616	-14.64606	-42.31084	-63.46626	0
960	-9.76404	-63.46626	-53.70222	34.17414	21.15542	-58.58424	-69.16195	-33.36047	-36.61515	-14.64606	-39.86983	-61.02525	0
961	-12.20505	-63.46626	-51.26121	36.61515	18.71441	-58.58424	-69.16195	-33.36047	-36.61515	-17.08707	-39.86983	-61.02525	0
962	-14.64606	-61.02525	-46.37919	36.61515	16.2734	-53.70222	-69.16195	-35.80148	-36.61515	-17.08707	-39.86983	-61.02525	0
963	-9.76404	-61.02525	-51.26121	34.17414	21.15542	-56.14323	-71.60296	-35.80148	-36.61515	-17.08707	-39.86983	-63.46626	0
964	-2.44101	-56.14323	-53.70222	26.85111	26.03744	-56.14323	-71.60296	-35.80148	-41.49717	-17.08707	-37.42882	-61.02525	0
965	-2.44101	-53.70222	-51.26121	26.85111	23.59643	-53.70222	-69.16195	-38.24249	-39.05616	-17.08707	-37.42882	-63.46626	0
966	0	-53.70222	-53.70222	24.4101	26.03744	-53.70222	-69.16195	-38.24249	-39.05616	-19.52808	-42.31084	-65.90727	0
967	0	-51.26121	-51.26121	24.4101	26.03744	-51.26121	-69.16195	-40.6835	-39.05616	-19.52808	-42.31084	-68.34828	0
968	-4.88202	-51.26121	-46.37919	26.85111	21.15542	-48.8202	-71.60296	-40.6835	-39.05616	-21.96909	-44.75185	-70.78929	0
969	-7.32303	-51.26121	-43.93818	26.85111	18.71441	-48.8202	-74.04397	-40.6835	-39.05616	-21.96909	-42.31084	-70.78929	0
970	-7.32303	-51.26121	-43.93818	26.85111	18.71441	-48.8202	-74.04397	-40.6835	-39.05616	-19.52808	-42.31084	-70.78929	0
971	-7.32303	-53.70222	-46.37919	29.29212	18.71441	-51.26121	-71.60296	-38.24249	-36.61515	-19.52808	-39.86983	-68.34828	0
972	-9.76404	-53.70222	-43.93818	29.29212	16.2734	-48.8202	-71.60296	-38.24249	-36.61515	-19.52808	-37.42882	-68.34828	0
973	-9.76404	-53.70222	-43.93818	29.29212	16.2734	-48.8202	-71.60296	-35.80148	-36.61515	-17.08707	-34.98781	-65.90727	0
974	-7.32303	-53.70222	-46.37919	29.29212	18.71441	-51.26121	-71.60296	-35.80148	-41.49717	-17.08707	-32.5468	-63.46626	0
975	-7.32303	-53.70222	-46.37919	29.29212	18.71441	-51.26121	-69.16195	-35.80148	-39.05616	-17.08707	-32.5468	-63.46626	0
976	-7.32303	-56.14323	-48.8202	29.29212	21.15542	-53.70222	-69.16195	-35.80148	-36.61515	-17.08707	-32.5468	-63.46626	0
977	-4.88202	-56.14323	-51.26121	29.29212	23.59643	-53.70222	-69.16195	-38.24249	-36.61515	-14.64606	-34.98781	-65.90727	0
978	-4.88202	-56.14323	-51.26121	29.29212	23.59643	-53.70222	-71.60296	-38.24249	-36.61515	-14.64606	-37.42882	-65.90727	0
979	-4.88202	-53.70222	-48.8202	26.85111	21.15542	-51.26121	-76.48498	-40.6835	-36.61515	-14.64606	-39.86983	-65.90727	0
980	-2.44101	-53.70222	-51.26121	26.85111	23.59643	-53.70222	-78.92599	-40.6835	-36.61515	-14.64606	-39.86983	-65.90727	0
981	-2.44101	-53.70222	-51.26121	26.85111	23.59643	-53.70222	-78.92599	-40.6835	-34.17414	-14.64606	-37.42882	-63.46626	0
982	0	-51.26121	-51.26121	24.4101	26.03744	-51.26121	-78.92599	-40.6835	-34.17414	-12.20505	-37.42882	-63.46626	0
983	5.69569	-48.8202	-53.70222	19.52808	28.47845	-51.26121	-78.92599	-40.6835	-34.17414	-12.20505	-37.42882	-61.02525	0
984	10.57771	-43.93818	-53.70222	14.64606	30.91946	-48.8202	-76.48498	-40.6835	-39.05616	-12.20505	-34.98781	-61.02525	0
985	13.01872	-43.93818	-56.14323	14.64606	33.36047	-48.8202	-71.60296	-40.6835	-36.61515	-12.20505	-34.98781	-58.58424	0
986	15.45973	-36.61515	-51.26121	9.76404	33.36047	-43.93818	-69.16195	-35.80148	-34.17414	-12.20505	-34.98781	-58.58424	0
987	13.01872	-39.05616	-51.26121	12.20505	30.91946	-43.93818	-66.72094	-33.36047	-31.73313	-12.20505	-34.98781	-58.58424	0
988	13.01872	-39.05616	-51.26121	12.20505	30.91946	-43.93818	-66.72094	-33.36047	-31.73313	-12.20505	-34.98781	-61.02525	0
989	10.57771	-39.05616	-48.8202	12.20505	28.47845	-43.93818	-66.72094	-33.36047	-31.73313	-12.20505	-34.98781	-63.46626	0
990	5.69569	-43.93818	-48.8202	17.08707	26.03744	-46.37919	-69.16195	-33.36047	-31.73313	-14.64606	-34.98781	-63.46626	0
991	-7.32303	-51.26121	-43.93818	26.85111	18.71441	-48.8202	-69.16195	-33.36047	-31.73313	-17.08707	-34.98781	-63.46626	0
992	-14.64606	-56.14323	-41.49717	34.17414	13.83239	-48.8202	-71.60296	-33.36047	-31.73313	-17.08707	-32.5468	-63.46626	0
993	-14.64606	-53.70222	-39.05616	31.73313	11.39138	-46.37919	-71.60296	-30.91946	-31.73313	-14.64606	-30.10579	-61.02525	0
994	-14.64606	-53.70222	-39.05616	31.73313	11.39138	-46.37919	-69.16195	-30.91946	-36.61515	-14.64606	-27.66478	-58.58424	0
995	-9.76404	-48.8202	-39.05616	26.85111	13.83239	-43.93818	-69.16195	-33.36047	-36.61515	-12.20505	-27.66478	-56.14323	0
996	-2.44101	-41.49717	-39.05616	19.52808	18.71441	-41.49717	-71.60296	-38.24249	-39.05616	-14.64606	-32.5468	-56.14323	0
997	-2.44101	-39.05616	-36.61515	19.52808	16.2734	-39.05616	-71.60296	-38.24249	-39.05616	-14.64606	-32.5468	-58.58424	0
998	0	-34.17414	-34.17414	14.64606	16.2734	-34.17414	-74.04397	-38.24249	-36.61515	-12.20505	-34.98781	-61.02525	0
999	10.57771	-29.29212	-39.05616	7.32303	23.59643	-34.17414	-74.04397	-35.80148	-34.17414	-9.76404	-34.98781	-58.58424	0
1000	17.90074	-26.85111	-43.93818	2.44101	30.91946	-34.17414	-71.60296	-35.80148	-31.73313	-9.76404	-34.98781	-58.58424	0
1001	17.90074	-26.85111	-43.93818	2.44101	30.91946	-34.17414	-71.60296	-35.80148	-31.73313	-9.76404	-34.98781	-58.58424	0
1002	15.45973	-26.85111	-41.49717	4.88202	28.47845	-34.17414	-71.60296	-35.80148	-29.29212	-9.76404	-34.98781	-58.58424	0
1003	13.01872	-29.29212	-41.49717	7.32303	26.03744	-34.17414	-71.60296	-35.80148	-29.29212	-9.76404	-34.98781	-58.58424	0
1004	10.57771	-31.73313	-41.49717	9.76404	26.03744	-36.61515	-71.60296	-33.36047	-31.73313	-9.76404	-34.98781	-58.58424	0
1005	8.1367	-36.61515	-43.93818	12.20505	26.03744	-39.05616	-66.72094	-30.91946	-29.29212	-9.76404	-30.10579	-53.70222	0
1006	10.57771	-39.05616	-48.8202	12.20505	28.47845	-43.93818	-64.27993	-30.91946	-29.29212	-9.76404	-32.5468	-53.70222	0
1007	5.69569	-39.05616	-43.93818	14.64606	23.59643	-41.49717	-64.27993	-30.91946	-29.29212	-9.76404	-32.5468	-53.70222	0
1008	3.25468	-39.05616	-41.49717	17.08707	21.15542	-39.05616	-64.27993	-30.91946	-29.29212	-9.76404	-32.5468	-56.14323	0
