samplenr	I	II	III	aVR	aVL	aVF	V1	V2	V3	V4	V5	V6	measurement
0	-25.22377	27.66478	51.26121	-2.44101	-38.24249	36.61515	152.96996	239.21898	534.58119	61.83892	-6.50936	-339.30039	0
1	-25.22377	22.78276	46.37919	-2.44101	-38.24249	31.73313	152.96996	248.98302	539.46321	71.60296	-1.62734	-275.83413	0
2	-20.34175	8.1367	26.85111	7.32303	-23.59643	17.08707	167.61602	268.5111	554.10927	86.24902	12.20505	-212.36787	0
3	-44.75185	-1.62734	41.49717	21.96909	-43.12451	17.08707	182.26208	288.03918	563.87331	100.89508	21.15542	-139.13757	0
4	-78.92599	-1.62734	75.67131	41.49717	-77.29865	36.61515	201.79016	312.44928	588.28341	120.42316	40.6835	-65.90727	0
5	-64.27993	-1.62734	61.02525	31.73313	-62.65259	26.85111	211.5542	341.7414	593.16543	135.06922	55.32956	-13.83239	0
6	-44.75185	-6.50936	36.61515	21.96909	-43.12451	13.01872	206.67218	341.7414	588.28341	135.06922	50.44754	49.63387	0
7	-44.75185	-1.62734	41.49717	21.96909	-43.12451	17.08707	187.1441	336.85938	563.87331	115.54114	26.03744	108.21811	0
8	-39.86983	-1.62734	36.61515	21.96909	-38.24249	17.08707	187.1441	346.62342	563.87331	115.54114	21.15542	191.21245	0
9	-34.98781	-1.62734	31.73313	17.08707	-33.36047	13.01872	187.1441	351.50544	573.63735	115.54114	21.15542	274.20679	0
10	-39.86983	3.25468	41.49717	17.08707	-43.12451	21.96909	177.38006	351.50544	573.63735	105.7771	16.2734	342.55507	0
11	-39.86983	-1.62734	36.61515	21.96909	-38.24249	17.08707	172.49804	351.50544	583.40139	110.65912	21.15542	406.02133	0
12	-39.86983	-11.39138	26.85111	26.85111	-33.36047	8.95037	192.02612	385.67958	612.69351	139.95124	50.44754	484.13365	0
13	-49.63387	-16.2734	31.73313	31.73313	-43.12451	8.95037	206.67218	405.20766	627.33957	154.5973	69.97562	542.71789	0
14	-34.98781	-16.2734	17.08707	21.96909	-28.47845	-0.81367	206.67218	414.9717	627.33957	159.47932	74.85764	581.77405	0
15	-20.34175	-16.2734	2.44101	17.08707	-13.83239	-5.69569	211.5542	434.49978	632.22159	164.36134	84.62168	630.59425	0
16	-10.57771	-16.2734	-7.32303	12.20505	-4.06835	-10.57771	211.5542	434.49978	627.33957	164.36134	84.62168	669.65041	0
17	-10.57771	-6.50936	2.44101	7.32303	-8.95037	-0.81367	196.90814	424.73574	612.69351	154.5973	69.97562	703.82455	0
18	8.95037	-6.50936	-15.45973	-2.44101	10.57771	-10.57771	182.26208	419.85372	602.92947	135.06922	50.44754	747.76273	0
19	13.83239	-6.50936	-20.34175	-7.32303	15.45973	-15.45973	167.61602	414.9717	598.04745	125.30518	45.56552	791.70091	0
20	-0.81367	3.25468	2.44101	-2.44101	-4.06835	4.06835	167.61602	414.9717	602.92947	115.54114	45.56552	835.63909	0
21	-0.81367	-1.62734	-2.44101	2.44101	0.81367	-0.81367	162.734	405.20766	602.92947	110.65912	50.44754	864.93121	0
22	-0.81367	-11.39138	-11.39138	7.32303	5.69569	-10.57771	172.49804	429.61776	627.33957	130.1872	69.97562	908.86939	0
23	4.06835	-16.2734	-20.34175	2.44101	10.57771	-20.34175	177.38006	429.61776	627.33957	135.06922	69.97562	923.51545	0
24	-0.81367	-16.2734	-15.45973	7.32303	5.69569	-15.45973	182.26208	439.3818	632.22159	144.83326	74.85764	938.16151	0
25	-5.69569	-21.15542	-15.45973	12.20505	5.69569	-20.34175	177.38006	444.26382	632.22159	149.71528	79.73966	947.92555	0
26	-5.69569	-16.2734	-11.39138	7.32303	0.81367	-15.45973	172.49804	439.3818	627.33957	149.71528	79.73966	962.57161	0
27	-5.69569	-1.62734	2.44101	2.44101	-4.06835	-0.81367	148.08794	419.85372	612.69351	130.1872	69.97562	962.57161	0
28	13.83239	8.1367	-7.32303	-12.20505	10.57771	-0.81367	133.44188	405.20766	607.81149	110.65912	60.21158	982.09969	0
29	28.47845	13.01872	-15.45973	-21.96909	20.34175	-0.81367	118.79582	385.67958	588.28341	76.48498	45.56552	982.09969	0
30	33.36047	22.78276	-11.39138	-31.73313	20.34175	4.06835	99.26774	361.26948	573.63735	52.07488	26.03744	977.21767	0
31	33.36047	27.66478	-7.32303	-31.73313	20.34175	8.95037	99.26774	356.38746	563.87331	37.42882	26.03744	977.21767	0
32	23.59643	13.01872	-11.39138	-21.96909	15.45973	-0.81367	109.03178	361.26948	573.63735	47.19286	35.80148	991.86373	0
33	4.06835	8.1367	2.44101	-7.32303	0.81367	4.06835	113.9138	361.26948	568.75533	56.9569	45.56552	991.86373	0
34	-5.69569	-1.62734	2.44101	2.44101	-4.06835	-0.81367	109.03178	351.50544	554.10927	52.07488	40.6835	977.21767	0
35	-0.81367	-6.50936	-7.32303	2.44101	0.81367	-5.69569	104.14976	336.85938	539.46321	47.19286	40.6835	957.68959	0
36	18.71441	-6.50936	-25.22377	-7.32303	20.34175	-15.45973	89.5037	312.44928	515.05311	27.66478	21.15542	938.16151	0
37	47.19286	13.01872	-34.98781	-31.73313	38.24249	-10.57771	69.97562	273.39312	485.76099	9.76404	8.1367	913.75141	0
38	47.19286	13.01872	-34.98781	-31.73313	38.24249	-10.57771	55.32956	248.98302	471.11493	-14.64606	-6.50936	899.10535	0
39	61.02525	13.01872	-49.63387	-36.61515	52.88855	-15.45973	40.6835	219.6909	446.70483	-43.93818	-30.91946	879.57727	0
40	56.14323	17.90074	-39.86983	-36.61515	48.00653	-10.57771	30.91946	195.2808	427.17675	-68.34828	-40.6835	855.16717	0
41	51.26121	13.01872	-39.86983	-31.73313	43.12451	-10.57771	21.15542	180.63474	412.53069	-82.99434	-45.56552	840.52111	0
42	56.14323	-1.62734	-59.39791	-26.85111	57.77057	-30.10579	35.80148	175.75272	417.41271	-73.2303	-30.91946	835.63909	0
43	43.12451	-11.39138	-54.51589	-17.08707	48.00653	-34.98781	35.80148	170.8707	412.53069	-68.34828	-26.03744	820.99303	0
44	23.59643	-21.15542	-44.75185	-2.44101	33.36047	-34.98781	40.6835	161.10666	407.64867	-58.58424	-16.2734	801.46495	0
45	-0.81367	-35.80148	-34.98781	17.08707	15.45973	-34.98781	50.44754	161.10666	407.64867	-48.8202	-1.62734	791.70091	0
46	-20.34175	-40.6835	-20.34175	31.73313	0.81367	-30.10579	45.56552	141.57858	397.88463	-43.93818	-1.62734	772.17283	0
47	-5.69569	-35.80148	-30.10579	17.08707	10.57771	-34.98781	16.2734	107.40444	368.59251	-68.34828	-21.15542	737.99869	0
48	18.71441	-35.80148	-54.51589	7.32303	33.36047	-44.75185	-3.25468	78.11232	349.06443	-97.6404	-40.6835	708.70657	0
49	47.19286	-35.80148	-83.80801	-7.32303	62.65259	-59.39791	-16.2734	43.93818	329.53635	-122.0505	-60.21158	674.53243	0
50	56.14323	-30.91946	-88.69003	-12.20505	72.41663	-59.39791	-30.91946	24.4101	310.00827	-141.57858	-79.73966	635.47627	0
51	23.59643	-26.03744	-49.63387	-2.44101	33.36047	-39.86983	-16.2734	34.17414	319.77231	-136.69656	-74.85764	615.94819	0
52	8.95037	-35.80148	-44.75185	12.20505	25.22377	-39.86983	-7.32303	53.70222	334.41837	-117.16848	-60.21158	601.30213	0
53	-5.69569	-45.56552	-39.86983	21.96909	15.45973	-44.75185	-3.25468	63.46626	339.30039	-107.40444	-45.56552	581.77405	0
54	-20.34175	-60.21158	-39.86983	41.49717	10.57771	-49.63387	1.62734	58.58424	334.41837	-102.52242	-40.6835	557.36395	0
55	-39.86983	-74.85764	-34.98781	56.14323	-4.06835	-54.51589	6.50936	63.46626	339.30039	-87.87636	-30.91946	537.83587	0
56	-49.63387	-69.97562	-20.34175	61.02525	-13.83239	-44.75185	11.39138	68.34828	344.18241	-73.2303	-21.15542	518.30779	0
57	-49.63387	-60.21158	-11.39138	56.14323	-18.71441	-34.98781	-3.25468	48.8202	334.41837	-87.87636	-35.80148	489.01567	0
58	-30.10579	-55.32956	-25.22377	41.49717	-4.06835	-39.86983	-21.15542	34.17414	324.65433	-97.6404	-50.44754	459.72355	0
59	-5.69569	-50.44754	-44.75185	26.85111	20.34175	-49.63387	-35.80148	9.76404	310.00827	-117.16848	-60.21158	425.54941	0
60	13.83239	-40.6835	-54.51589	12.20505	33.36047	-49.63387	-45.56552	-4.88202	300.24423	-136.69656	-69.97562	396.25729	0
61	18.71441	-35.80148	-54.51589	7.32303	33.36047	-44.75185	-40.6835	-4.88202	305.12625	-131.81454	-65.0936	376.72921	0
62	-0.81367	-45.56552	-44.75185	21.96909	20.34175	-44.75185	-16.2734	19.52808	329.53635	-107.40444	-35.80148	381.61123	0
63	-39.86983	-55.32956	-15.45973	46.37919	-13.83239	-34.98781	-7.32303	34.17414	349.06443	-87.87636	-16.2734	376.72921	0
64	-39.86983	-55.32956	-15.45973	46.37919	-13.83239	-34.98781	-7.32303	39.05616	353.94645	-78.11232	-11.39138	362.08315	0
65	-25.22377	-60.21158	-34.98781	41.49717	5.69569	-49.63387	6.50936	48.8202	358.82847	-68.34828	-6.50936	347.43709	0
66	-15.45973	-60.21158	-44.75185	36.61515	15.45973	-54.51589	1.62734	39.05616	353.94645	-73.2303	-16.2734	332.79103	0
67	-15.45973	-50.44754	-34.98781	31.73313	10.57771	-44.75185	-7.32303	19.52808	339.30039	-87.87636	-40.6835	308.38093	0
68	-0.81367	-45.56552	-44.75185	21.96909	20.34175	-44.75185	-11.39138	9.76404	329.53635	-97.6404	-50.44754	313.26295	0
69	8.95037	-40.6835	-49.63387	17.08707	29.29212	-44.75185	-16.2734	4.88202	334.41837	-107.40444	-55.32956	318.14497	0
70	4.06835	-35.80148	-39.86983	12.20505	20.34175	-39.86983	-26.03744	0	334.41837	-112.28646	-60.21158	318.14497	0
71	8.95037	-35.80148	-44.75185	12.20505	25.22377	-39.86983	-26.03744	0	334.41837	-107.40444	-55.32956	332.79103	0
72	8.95037	-50.44754	-59.39791	21.96909	33.36047	-54.51589	-21.15542	14.64606	349.06443	-102.52242	-35.80148	357.20113	0
73	-0.81367	-60.21158	-59.39791	31.73313	29.29212	-59.39791	-7.32303	29.29212	358.82847	-87.87636	-21.15542	386.49325	0
74	-25.22377	-65.0936	-39.86983	41.49717	5.69569	-54.51589	-7.32303	43.93818	363.71049	-78.11232	-16.2734	401.13931	0
75	-44.75185	-69.97562	-25.22377	56.14323	-8.95037	-49.63387	6.50936	58.58424	373.47453	-58.58424	-1.62734	420.66739	0
76	-44.75185	-65.0936	-20.34175	51.26121	-13.83239	-44.75185	6.50936	58.58424	373.47453	-58.58424	-6.50936	430.43143	0
77	-30.10579	-50.44754	-20.34175	41.49717	-4.06835	-34.98781	-3.25468	43.93818	353.94645	-73.2303	-26.03744	430.43143	0
78	-10.57771	-50.44754	-39.86983	31.73313	15.45973	-44.75185	-11.39138	24.4101	349.06443	-87.87636	-40.6835	425.54941	0
79	-0.81367	-45.56552	-44.75185	21.96909	20.34175	-44.75185	-16.2734	19.52808	344.18241	-92.75838	-45.56552	430.43143	0
80	-0.81367	-40.6835	-39.86983	21.96909	20.34175	-39.86983	-21.15542	9.76404	339.30039	-102.52242	-55.32956	430.43143	0
81	-5.69569	-35.80148	-30.10579	17.08707	10.57771	-34.98781	-21.15542	19.52808	349.06443	-97.6404	-45.56552	440.19547	0
82	-20.34175	-55.32956	-34.98781	36.61515	5.69569	-44.75185	-7.32303	39.05616	363.71049	-78.11232	-26.03744	464.60557	0
83	-30.10579	-60.21158	-30.10579	46.37919	0.81367	-44.75185	-7.32303	43.93818	373.47453	-68.34828	-16.2734	479.25163	0
84	-34.98781	-65.0936	-30.10579	46.37919	-4.06835	-49.63387	-7.32303	48.8202	368.59251	-68.34828	-21.15542	489.01567	0
85	-39.86983	-74.85764	-34.98781	56.14323	-4.06835	-54.51589	-3.25468	53.70222	368.59251	-68.34828	-21.15542	498.77971	0
86	-49.63387	-69.97562	-20.34175	61.02525	-13.83239	-44.75185	1.62734	58.58424	373.47453	-63.46626	-26.03744	523.18981	0
87	-44.75185	-55.32956	-11.39138	46.37919	-18.71441	-34.98781	-7.32303	39.05616	349.06443	-82.99434	-45.56552	532.95385	0
88	-25.22377	-45.56552	-20.34175	31.73313	-4.06835	-34.98781	-11.39138	29.29212	339.30039	-87.87636	-55.32956	557.36395	0
89	-25.22377	-30.91946	-7.32303	26.85111	-8.95037	-20.34175	-11.39138	29.29212	344.18241	-87.87636	-50.44754	601.30213	0
90	-20.34175	-16.2734	2.44101	17.08707	-13.83239	-5.69569	-11.39138	19.52808	344.18241	-87.87636	-55.32956	630.59425	0
91	-25.22377	-6.50936	17.08707	12.20505	-23.59643	4.06835	-3.25468	29.29212	353.94645	-82.99434	-45.56552	669.65041	0
92	-30.10579	-16.2734	12.20505	21.96909	-23.59643	-0.81367	16.2734	53.70222	373.47453	-63.46626	-21.15542	703.82455	0
93	-25.22377	-21.15542	2.44101	21.96909	-13.83239	-10.57771	21.15542	58.58424	388.12059	-58.58424	-11.39138	718.47061	0
94	-5.69569	-21.15542	-15.45973	12.20505	5.69569	-20.34175	11.39138	48.8202	378.35655	-68.34828	-16.2734	713.58859	0
95	-20.34175	-21.15542	-2.44101	21.96909	-8.95037	-10.57771	11.39138	58.58424	383.23857	-58.58424	-11.39138	723.35263	0
96	-34.98781	-16.2734	17.08707	21.96909	-28.47845	-0.81367	16.2734	63.46626	383.23857	-58.58424	-16.2734	728.23465	0
97	-15.45973	3.25468	17.08707	2.44101	-18.71441	8.95037	-3.25468	34.17414	363.71049	-82.99434	-40.6835	703.82455	0
98	13.83239	13.01872	-2.44101	-17.08707	5.69569	4.06835	-16.2734	19.52808	353.94645	-92.75838	-65.0936	684.29647	0
99	-15.45973	17.90074	31.73313	-2.44101	-23.59643	21.96909	-11.39138	24.4101	349.06443	-92.75838	-60.21158	679.41445	0
100	-20.34175	27.66478	46.37919	-2.44101	-33.36047	36.61515	-11.39138	24.4101	339.30039	-97.6404	-65.0936	664.76839	1000	P+0
101	-15.45973	32.5468	46.37919	-12.20505	-33.36047	36.61515	-11.39138	24.4101	334.41837	-102.52242	-60.21158	674.53243	0
102	-20.34175	17.90074	36.61515	2.44101	-28.47845	26.85111	-3.25468	43.93818	344.18241	-87.87636	-40.6835	723.35263	0
103	-39.86983	8.1367	46.37919	17.08707	-43.12451	26.85111	11.39138	48.8202	349.06443	-78.11232	-26.03744	767.29081	0
104	-54.51589	3.25468	56.14323	21.96909	-57.77057	26.85111	11.39138	43.93818	344.18241	-78.11232	-30.91946	786.81889	0
105	-59.39791	-11.39138	46.37919	36.61515	-52.88855	17.08707	21.15542	48.8202	344.18241	-78.11232	-35.80148	811.22899	0
106	-54.51589	-6.50936	46.37919	26.85111	-52.88855	17.08707	21.15542	39.05616	344.18241	-73.2303	-40.6835	840.52111	0
107	-64.27993	3.25468	65.90727	26.85111	-67.53461	31.73313	6.50936	19.52808	319.77231	-92.75838	-69.97562	855.16717	0
108	-54.51589	3.25468	56.14323	21.96909	-57.77057	26.85111	-7.32303	4.88202	305.12625	-107.40444	-84.62168	855.16717	0
109	-39.86983	8.1367	46.37919	17.08707	-43.12451	26.85111	-11.39138	-4.88202	290.48019	-117.16848	-94.38572	850.28515	0
110	-20.34175	17.90074	36.61515	2.44101	-28.47845	26.85111	-30.91946	-8.95037	270.95211	-136.69656	-109.03178	825.87505	0
111	-10.57771	17.90074	26.85111	-2.44101	-18.71441	21.96909	-30.91946	-8.95037	261.18807	-136.69656	-109.03178	786.81889	0
112	-15.45973	8.1367	21.96909	2.44101	-18.71441	13.01872	-16.2734	4.88202	275.83413	-122.0505	-84.62168	762.40879	0
113	-44.75185	-1.62734	41.49717	21.96909	-43.12451	17.08707	-7.32303	9.76404	275.83413	-107.40444	-69.97562	718.47061	0
114	-44.75185	3.25468	46.37919	17.08707	-48.00653	21.96909	-7.32303	9.76404	275.83413	-107.40444	-69.97562	674.53243	0
115	-49.63387	-1.62734	46.37919	26.85111	-48.00653	21.96909	-3.25468	14.64606	280.71615	-97.6404	-69.97562	635.47627	0
116	-64.27993	3.25468	65.90727	26.85111	-67.53461	31.73313	-3.25468	9.76404	280.71615	-102.52242	-74.85764	591.53809	0
117	-64.27993	22.78276	85.43535	17.08707	-77.29865	51.26121	-7.32303	-8.95037	270.95211	-117.16848	-89.5037	528.07183	0
118	-54.51589	22.78276	75.67131	12.20505	-67.53461	46.37919	-16.2734	-13.01872	256.30605	-126.93252	-99.26774	469.48759	0
119	-34.98781	22.78276	56.14323	2.44101	-48.00653	36.61515	-26.03744	-22.78276	246.54201	-141.57858	-109.03178	396.25729	0
120	-20.34175	32.5468	51.26121	-7.32303	-38.24249	41.49717	-40.6835	-27.66478	236.77797	-151.34262	-118.79582	313.26295	0
121	-25.22377	27.66478	51.26121	-2.44101	-38.24249	36.61515	-40.6835	-32.5468	236.77797	-151.34262	-118.79582	240.03265	0
122	-39.86983	17.90074	56.14323	12.20505	-48.00653	36.61515	-21.15542	-8.95037	246.54201	-136.69656	-94.38572	186.33043	0
123	-64.27993	8.1367	70.78929	26.85111	-67.53461	36.61515	-7.32303	-8.95037	251.42403	-126.93252	-84.62168	137.51023	0
124	-78.92599	8.1367	85.43535	36.61515	-82.18067	46.37919	-7.32303	-4.88202	251.42403	-126.93252	-84.62168	98.45407	0
125	-78.92599	3.25468	80.55333	36.61515	-82.18067	41.49717	-7.32303	-4.88202	251.42403	-117.16848	-79.73966	88.69003	0
126	-69.16195	8.1367	75.67131	31.73313	-72.41663	41.49717	-7.32303	-8.95037	246.54201	-122.0505	-84.62168	103.33609	0
127	-64.27993	27.66478	90.31737	17.08707	-77.29865	56.14323	-21.15542	-22.78276	227.01393	-136.69656	-104.14976	122.86417	0
128	-59.39791	32.5468	90.31737	12.20505	-77.29865	61.02525	-35.80148	-37.42882	227.01393	-146.4606	-113.9138	147.27427	0
129	-49.63387	36.61515	85.43535	7.32303	-67.53461	61.02525	-45.56552	-42.31084	212.36787	-156.22464	-113.9138	157.03831	0
130	-44.75185	45.56552	90.31737	-2.44101	-67.53461	65.90727	-55.32956	-47.19286	212.36787	-165.98868	-118.79582	157.03831	0
131	-39.86983	45.56552	85.43535	-2.44101	-62.65259	65.90727	-60.21158	-52.07488	202.60383	-170.8707	-118.79582	152.15629	0
132	-44.75185	40.6835	85.43535	2.44101	-62.65259	61.02525	-35.80148	-32.5468	227.01393	-146.4606	-99.26774	147.27427	0
133	-59.39791	36.61515	95.19939	12.20505	-77.29865	65.90727	-26.03744	-22.78276	236.77797	-136.69656	-84.62168	122.86417	0
134	-54.51589	40.6835	95.19939	7.32303	-72.41663	65.90727	-30.91946	-17.90074	236.77797	-136.69656	-84.62168	74.04397	0
135	-49.63387	40.6835	90.31737	7.32303	-67.53461	65.90727	-21.15542	-17.90074	241.65999	-126.93252	-84.62168	30.10579	0
136	-49.63387	50.44754	100.08141	2.44101	-72.41663	75.67131	-30.91946	-22.78276	241.65999	-126.93252	-89.5037	-13.83239	0
137	-49.63387	79.73966	129.37353	-12.20505	-87.06269	104.96343	-40.6835	-32.5468	231.89595	-136.69656	-104.14976	-36.61515	0
138	-34.98781	109.03178	144.01959	-36.61515	-87.06269	124.49151	-45.56552	-37.42882	236.77797	-136.69656	-104.14976	-51.26121	0
139	-25.22377	128.55986	153.78363	-49.63387	-87.06269	139.13757	-45.56552	-37.42882	236.77797	-136.69656	-99.26774	-65.90727	0
140	-15.45973	152.96996	168.42969	-69.16195	-91.94471	158.66565	-55.32956	-52.07488	227.01393	-151.34262	-109.03178	-90.31737	0
141	-15.45973	162.734	178.19373	-74.04397	-96.82673	168.42969	-55.32956	-52.07488	222.13191	-161.10666	-109.03178	-109.84545	0
142	-30.10579	167.61602	197.72181	-64.27993	-111.47279	183.07575	-45.56552	-37.42882	236.77797	-146.4606	-89.5037	-104.96343	0
143	-30.10579	192.02612	222.13191	-78.92599	-126.11885	207.48585	-40.6835	-37.42882	241.65999	-141.57858	-89.5037	-114.72747	0
144	-5.69569	221.31824	227.01393	-108.21811	-116.35481	222.13191	-50.44754	-47.19286	231.89595	-151.34262	-99.26774	-134.25555	0
145	28.47845	245.72834	217.24989	-132.62821	-91.94471	231.89595	-60.21158	-52.07488	222.13191	-151.34262	-104.14976	-139.13757	0
146	33.36047	260.3744	227.01393	-147.27427	-96.82673	241.65999	-65.0936	-56.9569	222.13191	-151.34262	-104.14976	-134.25555	0
147	8.95037	279.90248	270.95211	-142.39225	-131.00087	275.83413	-60.21158	-56.9569	227.01393	-141.57858	-94.38572	-114.72747	0
148	4.06835	294.54854	290.48019	-147.27427	-140.76491	290.48019	-60.21158	-52.07488	227.01393	-136.69656	-89.5037	-100.08141	0
149	4.06835	299.43056	295.36221	-152.15629	-145.64693	295.36221	-55.32956	-56.9569	227.01393	-136.69656	-84.62168	-90.31737	0
150	4.06835	309.1946	305.12625	-157.03831	-150.52895	305.12625	-55.32956	-56.9569	217.24989	-141.57858	-84.62168	-85.43535	0
151	4.06835	309.1946	305.12625	-157.03831	-150.52895	305.12625	-69.97562	-56.9569	212.36787	-146.4606	-89.5037	-85.43535	0
152	-0.81367	289.66652	290.48019	-142.39225	-145.64693	290.48019	-60.21158	-37.42882	227.01393	-131.81454	-79.73966	-75.67131	0
153	4.06835	289.66652	285.59817	-147.27427	-140.76491	285.59817	-69.97562	-32.5468	231.89595	-122.0505	-69.97562	-61.02525	0
154	8.95037	289.66652	280.71615	-147.27427	-135.88289	285.59817	-84.62168	-27.66478	236.77797	-112.28646	-60.21158	-51.26121	0
155	18.71441	289.66652	270.95211	-152.15629	-126.11885	280.71615	-94.38572	-17.90074	241.65999	-102.52242	-55.32956	-41.49717	0
156	38.24249	294.54854	256.30605	-161.92033	-106.59077	275.83413	-104.14976	-27.66478	236.77797	-102.52242	-60.21158	-27.66478	0
157	51.26121	309.1946	256.30605	-176.56639	-101.70875	285.59817	-143.20592	-42.31084	212.36787	-117.16848	-79.73966	-27.66478	0
158	38.24249	299.43056	261.18807	-166.80235	-111.47279	280.71615	-148.08794	-47.19286	202.60383	-122.0505	-79.73966	-13.83239	0
159	38.24249	289.66652	251.42403	-161.92033	-106.59077	270.95211	-152.96996	-42.31084	197.72181	-122.0505	-74.85764	10.57771	0
160	47.19286	284.7845	236.77797	-161.92033	-91.94471	261.18807	-167.61602	-52.07488	183.07575	-126.93252	-79.73966	25.22377	0
161	56.14323	270.13844	212.36787	-161.92033	-77.29865	241.65999	-167.61602	-52.07488	178.19373	-126.93252	-69.97562	44.75185	0
162	65.90727	240.84632	173.31171	-152.15629	-52.88855	207.48585	-162.734	-42.31084	192.83979	-117.16848	-50.44754	69.16195	0
163	56.14323	221.31824	163.54767	-137.51023	-52.88855	192.83979	-152.96996	-27.66478	217.24989	-102.52242	-30.91946	93.57205	0
164	56.14323	201.79016	144.01959	-127.74619	-43.12451	173.31171	-148.08794	-22.78276	236.77797	-97.6404	-21.15542	103.33609	0
165	65.90727	182.26208	114.72747	-122.86417	-23.59643	148.90161	-143.20592	-22.78276	246.54201	-92.75838	-16.2734	113.10013	0
166	85.43535	167.61602	80.55333	-122.86417	5.69569	124.49151	-152.96996	-27.66478	246.54201	-97.6404	-26.03744	108.21811	0
167	85.43535	162.734	75.67131	-122.86417	5.69569	119.60949	-162.734	-42.31084	231.89595	-107.40444	-40.6835	103.33609	0
168	70.78929	152.96996	80.55333	-108.21811	-4.06835	119.60949	-148.08794	-27.66478	236.77797	-102.52242	-40.6835	117.98215	0
169	56.14323	133.44188	75.67131	-93.57205	-8.95037	104.96343	-148.08794	-27.66478	227.01393	-102.52242	-45.56552	122.86417	0
170	65.90727	123.67784	56.14323	-93.57205	5.69569	90.31737	-148.08794	-32.5468	217.24989	-112.28646	-60.21158	117.98215	0
171	80.55333	109.03178	26.85111	-88.69003	29.29212	70.78929	-148.08794	-37.42882	212.36787	-117.16848	-65.0936	113.10013	0
172	61.02525	79.73966	17.08707	-64.27993	25.22377	51.26121	-128.55986	-17.90074	231.89595	-102.52242	-50.44754	122.86417	0
173	28.47845	65.0936	36.61515	-44.75185	-4.06835	51.26121	-109.03178	-8.95037	251.42403	-92.75838	-30.91946	137.51023	0
174	8.95037	55.32956	46.37919	-31.73313	-18.71441	51.26121	-99.26774	-4.88202	261.18807	-87.87636	-21.15542	137.51023	0
175	4.06835	50.44754	46.37919	-26.85111	-18.71441	46.37919	-84.62168	4.88202	275.83413	-82.99434	-11.39138	137.51023	0
176	4.06835	55.32956	51.26121	-31.73313	-23.59643	51.26121	-79.73966	-4.88202	270.95211	-87.87636	-16.2734	127.74619	0
177	-5.69569	60.21158	65.90727	-26.85111	-33.36047	61.02525	-94.38572	-17.90074	246.54201	-112.28646	-40.6835	108.21811	0
178	-15.45973	50.44754	65.90727	-17.08707	-38.24249	56.14323	-89.5037	-37.42882	227.01393	-122.0505	-55.32956	108.21811	0
179	-20.34175	40.6835	61.02525	-7.32303	-38.24249	51.26121	-89.5037	-42.31084	217.24989	-131.81454	-74.85764	103.33609	0
180	-20.34175	36.61515	56.14323	-7.32303	-38.24249	46.37919	-104.14976	-56.9569	197.72181	-146.4606	-99.26774	83.80801	0
181	-10.57771	32.5468	41.49717	-12.20505	-28.47845	36.61515	-104.14976	-56.9569	187.95777	-151.34262	-104.14976	78.92599	0
182	-5.69569	8.1367	12.20505	-2.44101	-8.95037	8.95037	-94.38572	-47.19286	192.83979	-141.57858	-94.38572	83.80801	0
183	-10.57771	-1.62734	7.32303	7.32303	-8.95037	4.06835	-94.38572	-47.19286	192.83979	-141.57858	-84.62168	93.57205	0
184	-25.22377	-6.50936	17.08707	12.20505	-23.59643	4.06835	-84.62168	-42.31084	192.83979	-136.69656	-74.85764	103.33609	0
185	-25.22377	-21.15542	2.44101	21.96909	-13.83239	-10.57771	-79.73966	-47.19286	197.72181	-136.69656	-69.97562	113.10013	0
186	-15.45973	-21.15542	-7.32303	17.08707	-4.06835	-15.45973	-84.62168	-52.07488	197.72181	-141.57858	-74.85764	122.86417	0
187	-15.45973	-16.2734	-2.44101	12.20505	-8.95037	-10.57771	-99.26774	-71.60296	178.19373	-156.22464	-94.38572	122.86417	0
188	-39.86983	-21.15542	17.08707	31.73313	-28.47845	-0.81367	-94.38572	-66.72094	173.31171	-151.34262	-89.5037	142.39225	0
189	-30.10579	-30.91946	-2.44101	31.73313	-13.83239	-15.45973	-104.14976	-71.60296	158.66565	-151.34262	-94.38572	157.03831	0
190	-20.34175	-30.91946	-11.39138	26.85111	-4.06835	-20.34175	-104.14976	-71.60296	148.90161	-156.22464	-99.26774	161.92033	0
191	-25.22377	-35.80148	-11.39138	26.85111	-8.95037	-25.22377	-94.38572	-61.83892	148.90161	-146.4606	-94.38572	176.56639	0
192	-20.34175	-40.6835	-20.34175	31.73313	0.81367	-30.10579	-65.0936	-37.42882	168.42969	-122.0505	-69.97562	210.74053	0
193	-15.45973	-50.44754	-34.98781	31.73313	10.57771	-44.75185	-50.44754	-27.66478	178.19373	-107.40444	-55.32956	225.38659	0
194	-10.57771	-55.32956	-44.75185	31.73313	15.45973	-49.63387	-50.44754	-27.66478	183.07575	-102.52242	-50.44754	235.15063	0
195	-10.57771	-55.32956	-44.75185	31.73313	15.45973	-49.63387	-30.91946	-13.01872	197.72181	-92.75838	-35.80148	254.67871	0
196	-20.34175	-60.21158	-39.86983	41.49717	10.57771	-49.63387	-26.03744	-22.78276	202.60383	-92.75838	-40.6835	254.67871	0
197	-10.57771	-45.56552	-34.98781	26.85111	10.57771	-39.86983	-40.6835	-37.42882	187.95777	-112.28646	-60.21158	254.67871	0
198	-0.81367	-45.56552	-44.75185	21.96909	20.34175	-44.75185	-45.56552	-47.19286	183.07575	-126.93252	-65.0936	254.67871	0
199	8.95037	-45.56552	-54.51589	17.08707	29.29212	-49.63387	-50.44754	-52.07488	178.19373	-126.93252	-74.85764	249.79669	0
200	18.71441	-40.6835	-59.39791	12.20505	38.24249	-49.63387	-60.21158	-56.9569	158.66565	-136.69656	-84.62168	235.15063	0
201	8.95037	-50.44754	-59.39791	21.96909	33.36047	-54.51589	-60.21158	-56.9569	153.78363	-131.81454	-79.73966	235.15063	0
202	-10.57771	-65.0936	-54.51589	36.61515	20.34175	-59.39791	-40.6835	-42.31084	168.42969	-112.28646	-60.21158	254.67871	0
203	-15.45973	-65.0936	-49.63387	36.61515	15.45973	-59.39791	-30.91946	-37.42882	168.42969	-102.52242	-45.56552	274.20679	0
204	-25.22377	-69.97562	-44.75185	46.37919	10.57771	-59.39791	-26.03744	-37.42882	163.54767	-107.40444	-50.44754	279.08881	0
205	-39.86983	-79.73966	-39.86983	61.02525	0.81367	-59.39791	-16.2734	-37.42882	158.66565	-102.52242	-50.44754	279.08881	0
206	-44.75185	-79.73966	-34.98781	61.02525	-4.06835	-59.39791	-21.15542	-42.31084	148.90161	-112.28646	-55.32956	269.32477	0
207	-44.75185	-60.21158	-15.45973	51.26121	-13.83239	-39.86983	-30.91946	-66.72094	124.49151	-131.81454	-69.97562	254.67871	0
208	-34.98781	-60.21158	-25.22377	46.37919	-4.06835	-44.75185	-40.6835	-76.48498	109.84545	-146.4606	-74.85764	240.03265	0
209	4.06835	-55.32956	-59.39791	21.96909	29.29212	-59.39791	-50.44754	-91.13104	95.19939	-161.10666	-84.62168	215.62255	0
210	13.83239	-55.32956	-69.16195	17.08707	38.24249	-64.27993	-55.32956	-100.89508	70.78929	-185.51676	-104.14976	186.33043	0
211	8.95037	-69.97562	-78.92599	31.73313	43.12451	-74.04397	-55.32956	-110.65912	51.26121	-200.16282	-118.79582	157.03831	0
212	-10.57771	-99.26774	-88.69003	56.14323	38.24249	-93.57205	-35.80148	-110.65912	41.49717	-200.16282	-123.67784	137.51023	0
213	-30.10579	-128.55986	-98.45407	80.55333	33.36047	-113.10013	-26.03744	-115.54114	17.08707	-214.80888	-138.3239	108.21811	0
214	-49.63387	-152.96996	-103.33609	100.08141	25.22377	-127.74619	-26.03744	-139.95124	-12.20505	-244.101	-162.734	64.27993	0
215	-64.27993	-192.02612	-127.74619	124.49151	29.29212	-161.92033	-16.2734	-149.71528	-39.86983	-278.27514	-196.90814	15.45973	0
216	-78.92599	-231.08228	-152.15629	153.78363	33.36047	-191.21245	-7.32303	-154.5973	-74.04397	-317.3313	-235.9643	-31.73313	0
217	-88.69003	-255.49238	-166.80235	173.31171	38.24249	-210.74053	-3.25468	-144.83326	-103.33609	-366.1515	-284.7845	-95.19939	0
218	-83.80801	-294.54854	-210.74053	187.95777	62.65259	-254.67871	35.80148	-100.89508	-108.21811	-385.67958	-304.31258	-148.90161	0
219	-69.16195	-328.72268	-259.56073	197.72181	91.94471	-293.73487	89.5037	-27.66478	-83.80801	-385.67958	-314.07662	-192.83979	0
220	-44.75185	-348.25076	-303.49891	192.83979	126.11885	-327.90901	113.9138	29.29212	-44.75185	-371.03352	-309.1946	-231.89595	0
221	-10.57771	-367.77884	-357.20113	187.95777	170.05703	-362.08315	123.67784	58.58424	-30.10579	-361.26948	-304.31258	-266.07009	0
222	28.47845	-382.4249	-410.90335	178.19373	218.87723	-396.25729	113.9138	39.05616	-34.98781	-351.50544	-294.54854	-285.59817	0
223	70.78929	-377.54288	-449.95951	153.78363	257.93339	-410.90335	35.80148	-37.42882	-64.27993	-356.38746	-284.7845	-290.48019	0
224	114.72747	-358.0148	-474.36961	119.60949	292.10753	-415.78537	-65.0936	-149.71528	-108.21811	-361.26948	-270.13844	-295.36221	0
225	158.66565	-328.72268	-489.01567	85.43535	321.39965	-406.02133	-182.26208	-286.41184	-157.03831	-371.03352	-240.84632	-290.48019	0
226	202.60383	-279.90248	-484.13365	36.61515	340.92773	-381.61123	-314.07662	-486.57466	-235.15063	-400.32564	-221.31824	-275.83413	0
227	256.30605	-196.90814	-454.84153	-26.85111	355.57379	-323.02699	-475.18328	-750.20374	-362.08315	-468.67392	-226.20026	-280.71615	0
228	329.53635	-118.79582	-449.95951	-103.33609	389.74793	-283.97083	-660.70004	-1038.24292	-498.77971	-532.14018	-216.43622	-280.71615	0
229	417.41271	-74.85764	-493.89769	-171.68437	453.21419	-283.97083	-860.86286	-1301.872	-596.42011	-571.19634	-192.02612	-270.95211	0
230	500.40705	-65.0936	-567.12799	-215.62255	531.32651	-313.26295	-1065.9077	-1506.91684	-650.12233	-571.19634	-133.44188	-246.54201	0
231	519.93513	-69.97562	-591.53809	-220.50457	555.73661	-327.90901	-1217.25032	-1638.73138	-635.47627	-502.84806	-26.03744	-183.07575	0
232	519.93513	-30.91946	-552.48193	-240.03265	536.20853	-288.85285	-1285.5986	-1648.49542	-532.95385	-346.62342	138.3239	-61.02525	0
233	539.46321	79.73966	-459.72355	-303.49891	502.03439	-186.33043	-1285.5986	-1560.61906	-342.55507	-122.0505	353.13278	83.80801	0
234	539.46321	206.67218	-332.79103	-366.96517	438.56813	-59.39791	-1231.89638	-1404.39442	-103.33609	125.30518	577.7057	240.03265	0
235	529.69917	299.43056	-230.26861	-410.90335	379.98389	36.61515	-1148.90204	-1218.87766	144.01959	374.2882	787.63256	381.61123	0
236	519.93513	353.13278	-166.80235	-430.43143	345.80975	95.19939	-1056.14366	-1033.3609	378.35655	603.74314	968.2673	493.89769	0
237	505.28907	382.4249	-122.86417	-440.19547	316.51763	129.37353	-973.14932	-867.37222	573.63735	789.2599	1104.96386	576.89203	0
238	471.11493	392.18894	-78.92599	-425.54941	277.46147	158.66565	-865.74488	-686.73748	759.15411	955.24858	1227.01436	674.53243	0
239	422.29473	387.30692	-34.98781	-401.13931	228.64127	178.19373	-733.93034	-515.86678	905.61471	1087.06312	1319.77274	757.52677	0
240	368.59251	382.4249	12.20505	-371.84719	179.82107	197.72181	-616.76186	-388.93426	978.84501	1140.76534	1339.30082	781.93687	0
241	329.53635	348.25076	17.08707	-337.67305	155.41097	183.07575	-494.71136	-271.76578	1017.90117	1140.76534	1305.12668	762.40879	0
242	290.48019	294.54854	2.44101	-288.85285	145.64693	148.90161	-377.54288	-154.5973	1032.54723	1111.47322	1236.7784	718.47061	0
243	231.89595	235.9643	2.44101	-230.26861	116.35481	119.60949	-275.02046	-56.9569	1003.25511	1028.47888	1119.60992	659.88637	0
244	178.19373	182.26208	2.44101	-176.56639	87.06269	95.19939	-187.1441	4.88202	949.55289	921.07444	973.14932	572.01001	0
245	119.60949	109.03178	-11.39138	-108.21811	67.53461	51.26121	-113.9138	68.34828	895.85067	808.78798	812.04266	454.84153	0
246	70.78929	36.61515	-34.98781	-49.63387	52.88855	4.06835	-60.21158	102.52242	822.62037	681.85546	646.05398	323.02699	0
247	43.12451	-11.39138	-54.51589	-17.08707	48.00653	-34.98781	-35.80148	102.52242	724.97997	540.27688	484.94732	191.21245	0
248	28.47845	-60.21158	-88.69003	17.08707	57.77057	-74.04397	-16.2734	92.75838	632.22159	418.22638	362.89682	83.80801	0
249	-5.69569	-89.5037	-83.80801	46.37919	38.24249	-88.69003	11.39138	97.6404	554.10927	320.58598	270.13844	5.69569	0
250	-30.10579	-99.26774	-69.16195	65.90727	20.34175	-83.80801	40.6835	97.6404	485.76099	232.70962	196.90814	-51.26121	0
251	-34.98781	-104.14976	-69.16195	65.90727	15.45973	-88.69003	65.0936	97.6404	422.29473	169.24336	143.20592	-100.08141	0
252	-25.22377	-113.9138	-88.69003	65.90727	29.29212	-103.33609	94.38572	102.52242	388.12059	130.1872	109.03178	-119.60949	0
253	-34.98781	-123.67784	-88.69003	75.67131	25.22377	-108.21811	109.03178	102.52242	358.82847	96.01306	74.85764	-139.13757	0
254	-44.75185	-123.67784	-78.92599	80.55333	15.45973	-103.33609	113.9138	102.52242	339.30039	71.60296	45.56552	-158.66565	0
255	-34.98781	-123.67784	-88.69003	75.67131	25.22377	-108.21811	118.79582	107.40444	339.30039	61.83892	26.03744	-168.42969	0
256	-34.98781	-118.79582	-83.80801	75.67131	25.22377	-103.33609	109.03178	102.52242	334.41837	47.19286	8.1367	-178.19373	0
257	-44.75185	-113.9138	-69.16195	75.67131	10.57771	-93.57205	94.38572	97.6404	319.77231	27.66478	-6.50936	-192.83979	0
258	-54.51589	-118.79582	-64.27993	85.43535	5.69569	-93.57205	79.73966	87.87636	310.00827	22.78276	-11.39138	-192.83979	1500	QRS+0
259	-54.51589	-128.55986	-74.04397	90.31737	10.57771	-103.33609	74.85764	82.99434	295.36221	13.83239	-11.39138	-192.83979	0
260	-54.51589	-128.55986	-74.04397	90.31737	10.57771	-103.33609	74.85764	73.2303	266.07009	-4.88202	-21.15542	-192.83979	0
261	-49.63387	-123.67784	-74.04397	85.43535	10.57771	-98.45407	79.73966	78.11232	246.54201	-14.64606	-26.03744	-187.95777	0
262	-49.63387	-133.44188	-83.80801	90.31737	15.45973	-108.21811	104.14976	92.75838	251.42403	-4.88202	-11.39138	-168.42969	0
263	-64.27993	-133.44188	-69.16195	95.19939	0.81367	-103.33609	123.67784	102.52242	256.30605	0	-11.39138	-148.90161	0
264	-64.27993	-123.67784	-59.39791	90.31737	-4.06835	-93.57205	128.55986	112.28646	275.83413	9.76404	-11.39138	-134.25555	0
265	-69.16195	-128.55986	-59.39791	100.08141	-4.06835	-93.57205	138.3239	117.16848	295.36221	13.83239	-6.50936	-114.72747	0
266	-69.16195	-123.67784	-54.51589	95.19939	-8.95037	-88.69003	138.3239	117.16848	314.89029	13.83239	-11.39138	-90.31737	0
267	-49.63387	-113.9138	-64.27993	80.55333	5.69569	-88.69003	118.79582	97.6404	310.00827	9.76404	-30.91946	-90.31737	0
268	-39.86983	-118.79582	-78.92599	80.55333	20.34175	-98.45407	109.03178	92.75838	310.00827	0	-35.80148	-75.67131	0
269	-34.98781	-123.67784	-88.69003	75.67131	25.22377	-108.21811	99.26774	87.87636	295.36221	-9.76404	-35.80148	-56.14323	0
270	-34.98781	-113.9138	-78.92599	70.78929	20.34175	-98.45407	99.26774	87.87636	290.48019	-14.64606	-30.91946	-36.61515	0
271	-54.51589	-113.9138	-59.39791	80.55333	0.81367	-88.69003	109.03178	97.6404	295.36221	-9.76404	-21.15542	-18.71441	0
272	-69.16195	-113.9138	-44.75185	90.31737	-13.83239	-78.92599	133.44188	117.16848	314.89029	13.83239	3.25468	20.34175	0
273	-74.04397	-109.03178	-34.98781	90.31737	-18.71441	-74.04397	143.20592	126.93252	319.77231	13.83239	8.1367	44.75185	0
274	-74.04397	-99.26774	-25.22377	85.43535	-23.59643	-64.27993	148.08794	131.81454	329.53635	22.78276	3.25468	59.39791	0
275	-69.16195	-99.26774	-30.10579	85.43535	-18.71441	-64.27993	148.08794	136.69656	344.18241	27.66478	3.25468	74.04397	0
276	-74.04397	-94.38572	-20.34175	80.55333	-28.47845	-59.39791	143.20592	131.81454	344.18241	27.66478	-1.62734	83.80801	0
277	-74.04397	-79.73966	-7.32303	75.67131	-33.36047	-44.75185	128.55986	122.0505	329.53635	13.83239	-16.2734	78.92599	0
278	-64.27993	-69.97562	-7.32303	65.90727	-28.47845	-39.86983	123.67784	126.93252	319.77231	13.83239	-21.15542	83.80801	0
279	-49.63387	-69.97562	-20.34175	61.02525	-13.83239	-44.75185	123.67784	122.0505	310.00827	0	-26.03744	78.92599	0
280	-54.51589	-55.32956	-2.44101	51.26121	-28.47845	-30.10579	123.67784	117.16848	300.24423	-4.88202	-30.91946	78.92599	0
281	-78.92599	-50.44754	26.85111	65.90727	-52.88855	-10.57771	128.55986	126.93252	305.12625	0	-26.03744	83.80801	0
282	-83.80801	-60.21158	21.96909	70.78929	-52.88855	-20.34175	143.20592	146.4606	319.77231	17.90074	-1.62734	103.33609	0
283	-74.04397	-65.0936	7.32303	65.90727	-43.12451	-30.10579	138.3239	151.34262	319.77231	22.78276	-1.62734	108.21811	0
284	-54.51589	-55.32956	-2.44101	51.26121	-28.47845	-30.10579	138.3239	146.4606	324.65433	27.66478	-1.62734	103.33609	0
285	-39.86983	-55.32956	-15.45973	46.37919	-13.83239	-34.98781	138.3239	151.34262	324.65433	27.66478	-1.62734	93.57205	0
286	-39.86983	-55.32956	-15.45973	46.37919	-13.83239	-34.98781	133.44188	151.34262	319.77231	27.66478	-1.62734	88.69003	0
287	-78.92599	-40.6835	36.61515	61.02525	-57.77057	-0.81367	138.3239	156.22464	310.00827	27.66478	-6.50936	78.92599	0
288	-93.57205	-35.80148	56.14323	61.02525	-77.29865	8.95037	143.20592	161.10666	305.12625	22.78276	-11.39138	69.16195	0
289	-88.69003	-30.91946	56.14323	61.02525	-72.41663	13.01872	148.08794	161.10666	300.24423	13.83239	-11.39138	64.27993	0
290	-64.27993	-16.2734	46.37919	36.61515	-57.77057	13.01872	148.08794	156.22464	295.36221	13.83239	-21.15542	49.63387	0
291	-54.51589	-16.2734	36.61515	31.73313	-48.00653	8.95037	148.08794	156.22464	295.36221	13.83239	-16.2734	34.98781	0
292	-54.51589	-26.03744	26.85111	36.61515	-43.12451	-0.81367	157.85198	161.10666	300.24423	22.78276	-1.62734	39.86983	0
293	-49.63387	-30.91946	17.08707	41.49717	-33.36047	-5.69569	157.85198	165.98868	310.00827	27.66478	-1.62734	30.10579	0
294	-54.51589	-26.03744	26.85111	36.61515	-43.12451	-0.81367	152.96996	170.8707	314.89029	32.5468	-1.62734	20.34175	0
295	-59.39791	-26.03744	31.73313	41.49717	-48.00653	4.06835	157.85198	175.75272	319.77231	42.31084	-1.62734	5.69569	0
296	-64.27993	-21.15542	41.49717	41.49717	-52.88855	8.95037	157.85198	185.51676	324.65433	42.31084	-6.50936	-4.06835	0
297	-69.16195	-1.62734	65.90727	36.61515	-67.53461	31.73313	148.08794	180.63474	324.65433	32.5468	-16.2734	-18.71441	0
298	-64.27993	13.01872	75.67131	21.96909	-72.41663	41.49717	152.96996	190.39878	319.77231	27.66478	-16.2734	-27.66478	0
299	-59.39791	22.78276	80.55333	17.08707	-72.41663	51.26121	157.85198	195.2808	324.65433	27.66478	-16.2734	-27.66478	0
300	-54.51589	32.5468	85.43535	7.32303	-72.41663	56.14323	152.96996	185.51676	314.89029	17.90074	-21.15542	-41.49717	0
301	-54.51589	36.61515	90.31737	7.32303	-72.41663	61.02525	157.85198	190.39878	319.77231	22.78276	-16.2734	-31.73313	0
302	-69.16195	32.5468	100.08141	17.08707	-87.06269	65.90727	172.49804	205.04484	334.41837	42.31084	3.25468	15.45973	0
303	-93.57205	22.78276	114.72747	31.73313	-106.59077	65.90727	167.61602	214.80888	339.30039	47.19286	3.25468	74.04397	0
304	-88.69003	22.78276	109.84545	31.73313	-101.70875	65.90727	167.61602	209.92686	334.41837	47.19286	-1.62734	132.62821	0
305	-78.92599	22.78276	100.08141	26.85111	-91.94471	61.02525	162.734	214.80888	339.30039	47.19286	-1.62734	196.09447	0
306	-83.80801	36.61515	119.60949	21.96909	-101.70875	75.67131	167.61602	224.57292	349.06443	47.19286	-1.62734	264.44275	0
307	-69.16195	55.32956	124.49151	7.32303	-96.82673	90.31737	157.85198	224.57292	339.30039	32.5468	-16.2734	337.67305	0
308	-54.51589	74.85764	129.37353	-12.20505	-91.94471	100.08141	157.85198	234.33696	339.30039	27.66478	-21.15542	440.19547	0
309	-54.51589	84.62168	139.13757	-17.08707	-96.82673	109.84545	167.61602	244.101	344.18241	32.5468	-16.2734	532.95385	0
310	-59.39791	94.38572	153.78363	-17.08707	-106.59077	124.49151	162.734	248.98302	334.41837	37.42882	-16.2734	606.18415	0
311	-64.27993	99.26774	163.54767	-17.08707	-111.47279	129.37353	152.96996	253.86504	339.30039	37.42882	-6.50936	645.24031	0
312	-64.27993	84.62168	148.90161	-12.20505	-106.59077	114.72747	157.85198	268.5111	353.94645	52.07488	8.1367	630.59425	0
313	-64.27993	89.5037	153.78363	-12.20505	-106.59077	119.60949	157.85198	268.5111	358.82847	56.9569	8.1367	567.12799	0
314	-69.16195	94.38572	163.54767	-12.20505	-116.35481	129.37353	148.08794	273.39312	363.71049	56.9569	3.25468	454.84153	0
315	-78.92599	99.26774	178.19373	-7.32303	-126.11885	139.13757	152.96996	288.03918	373.47453	61.83892	3.25468	352.31911	0
316	-64.27993	109.03178	173.31171	-21.96909	-116.35481	139.13757	143.20592	288.03918	373.47453	52.07488	-6.50936	274.20679	0
317	-49.63387	143.20592	192.83979	-44.75185	-121.23683	168.42969	128.55986	283.15716	358.82847	42.31084	-21.15542	254.67871	0
318	-44.75185	167.61602	212.36787	-59.39791	-126.11885	187.95777	128.55986	288.03918	353.94645	42.31084	-21.15542	240.03265	0
319	-20.34175	192.02612	212.36787	-83.80801	-116.35481	202.60383	128.55986	297.80322	349.06443	37.42882	-21.15542	176.56639	0
320	-30.10579	221.31824	251.42403	-93.57205	-140.76491	236.77797	123.67784	297.80322	339.30039	37.42882	-26.03744	69.16195	0
321	-44.75185	240.84632	285.59817	-98.45407	-165.17501	261.18807	118.79582	302.68524	339.30039	37.42882	-26.03744	-41.49717	0
322	-44.75185	250.61036	295.36221	-103.33609	-170.05703	270.95211	123.67784	312.44928	353.94645	52.07488	-21.15542	-144.01959	0
323	-49.63387	265.25642	314.89029	-103.33609	-179.82107	290.48019	113.9138	307.56726	349.06443	37.42882	-30.91946	-261.18807	0
324	-34.98781	275.02046	310.00827	-117.98215	-170.05703	290.48019	109.03178	307.56726	344.18241	32.5468	-40.6835	-383.23857	0
325	-25.22377	270.13844	295.36221	-122.86417	-160.29299	280.71615	109.03178	317.3313	349.06443	37.42882	-40.6835	-495.52503	0
326	-34.98781	275.02046	310.00827	-117.98215	-170.05703	290.48019	118.79582	331.97736	353.94645	42.31084	-35.80148	-598.04745	0
327	-39.86983	299.43056	339.30039	-127.74619	-189.58511	319.77231	109.03178	331.97736	349.06443	32.5468	-40.6835	-700.56987	0
328	-34.98781	314.07662	349.06443	-137.51023	-189.58511	329.53635	109.03178	346.62342	358.82847	42.31084	-35.80148	-793.32825	0
329	-49.63387	318.95864	368.59251	-132.62821	-209.11319	344.18241	113.9138	361.26948	363.71049	56.9569	-21.15542	-871.44057	0
330	-64.27993	323.84066	388.12059	-127.74619	-223.75925	353.94645	123.67784	375.91554	368.59251	66.72094	-11.39138	-939.78885	0
331	-54.51589	318.95864	373.47453	-132.62821	-213.99521	344.18241	123.67784	385.67958	368.59251	71.60296	-6.50936	-1003.25511	0
332	-39.86983	289.66652	329.53635	-122.86417	-184.70309	310.00827	128.55986	390.5616	378.35655	81.367	3.25468	-1047.19329	0
333	-25.22377	270.13844	295.36221	-122.86417	-160.29299	280.71615	128.55986	395.44362	373.47453	76.48498	-1.62734	-1105.77753	0
334	8.95037	255.49238	246.54201	-127.74619	-116.35481	251.42403	118.79582	390.5616	358.82847	66.72094	-11.39138	-1159.47975	0
335	28.47845	250.61036	222.13191	-137.51023	-96.82673	236.77797	123.67784	400.32564	358.82847	66.72094	-6.50936	-1193.65389	0
336	4.06835	245.72834	241.65999	-122.86417	-116.35481	241.65999	133.44188	419.85372	368.59251	81.367	8.1367	-1208.29995	0
337	-5.69569	260.3744	266.07009	-127.74619	-135.88289	261.18807	133.44188	424.73574	358.82847	81.367	8.1367	-1232.71005	0
338	-0.81367	255.49238	256.30605	-122.86417	-126.11885	256.30605	133.44188	429.61776	349.06443	86.24902	12.20505	-1247.35611	0
339	4.06835	250.61036	246.54201	-127.74619	-121.23683	246.54201	133.44188	434.49978	344.18241	86.24902	12.20505	-1262.00217	0
340	-0.81367	240.84632	241.65999	-117.98215	-121.23683	241.65999	128.55986	434.49978	334.41837	86.24902	16.2734	-1276.64823	0
341	-5.69569	226.20026	231.89595	-108.21811	-116.35481	227.01393	128.55986	434.49978	334.41837	86.24902	21.15542	-1291.29429	0
342	-5.69569	196.90814	202.60383	-93.57205	-101.70875	197.72181	128.55986	439.3818	339.30039	96.01306	21.15542	-1291.29429	0
343	8.95037	182.26208	173.31171	-93.57205	-82.18067	178.19373	133.44188	439.3818	334.41837	96.01306	26.03744	-1281.53025	0
344	13.83239	177.38006	163.54767	-93.57205	-72.41663	168.42969	133.44188	434.49978	329.53635	96.01306	26.03744	-1262.00217	0
345	-0.81367	167.61602	168.42969	-78.92599	-82.18067	168.42969	138.3239	439.3818	329.53635	100.89508	40.6835	-1237.59207	0
346	-0.81367	167.61602	168.42969	-78.92599	-82.18067	168.42969	138.3239	444.26382	319.77231	96.01306	45.56552	-1213.18197	0
347	4.06835	177.38006	173.31171	-88.69003	-82.18067	173.31171	128.55986	429.61776	295.36221	81.367	35.80148	-1198.53591	0
348	23.59643	182.26208	158.66565	-103.33609	-67.53461	168.42969	109.03178	414.9717	275.83413	66.72094	26.03744	-1188.77187	0
349	38.24249	182.26208	144.01959	-108.21811	-52.88855	163.54767	104.14976	410.08968	261.18807	56.9569	21.15542	-1174.12581	0
350	43.12451	177.38006	134.25555	-108.21811	-43.12451	153.78363	89.5037	385.67958	241.65999	42.31084	12.20505	-1164.36177	0
351	38.24249	167.61602	129.37353	-98.45407	-43.12451	148.90161	79.73966	366.1515	227.01393	32.5468	12.20505	-1159.47975	0
352	28.47845	152.96996	124.49151	-88.69003	-48.00653	139.13757	94.38572	361.26948	231.89595	42.31084	21.15542	-1135.06965	0
353	23.59643	143.20592	119.60949	-83.80801	-48.00653	129.37353	99.26774	351.50544	227.01393	37.42882	21.15542	-1125.30561	0
354	23.59643	143.20592	119.60949	-83.80801	-48.00653	129.37353	94.38572	331.97736	212.36787	32.5468	16.2734	-1125.30561	0
355	33.36047	143.20592	109.84545	-88.69003	-38.24249	124.49151	89.5037	307.56726	197.72181	22.78276	16.2734	-1120.42359	0
356	28.47845	148.08794	119.60949	-83.80801	-43.12451	134.25555	89.5037	292.9212	183.07575	17.90074	12.20505	-1115.54157	-1500	QRS-0
357	18.71441	157.85198	139.13757	-83.80801	-57.77057	148.90161	69.97562	263.62908	158.66565	4.88202	3.25468	-1125.30561	0
358	43.12451	152.96996	109.84545	-98.45407	-33.36047	129.37353	55.32956	234.33696	129.37353	-14.64606	-6.50936	-1130.18763	0
359	61.02525	133.44188	70.78929	-93.57205	-4.06835	104.96343	35.80148	209.92686	100.08141	-39.05616	-26.03744	-1139.95167	0
360	70.78929	123.67784	51.26121	-93.57205	10.57771	90.31737	26.03744	185.51676	75.67131	-58.58424	-35.80148	-1154.59773	0
361	61.02525	109.03178	46.37919	-78.92599	10.57771	80.55333	26.03744	175.75272	61.02525	-63.46626	-35.80148	-1159.47975	0
362	56.14323	84.62168	26.85111	-69.16195	15.45973	56.14323	30.91946	175.75272	61.02525	-58.58424	-21.15542	-1144.83369	0
363	56.14323	65.0936	7.32303	-59.39791	25.22377	36.61515	35.80148	161.10666	51.26121	-58.58424	-21.15542	-1139.95167	0
364	47.19286	45.56552	-2.44101	-44.75185	25.22377	21.96909	35.80148	141.57858	41.49717	-63.46626	-30.91946	-1144.83369	0
365	47.19286	27.66478	-20.34175	-36.61515	33.36047	4.06835	30.91946	131.81454	36.61515	-58.58424	-26.03744	-1149.71571	0
366	33.36047	13.01872	-20.34175	-26.85111	25.22377	-5.69569	30.91946	117.16848	26.85111	-58.58424	-26.03744	-1154.59773	0
367	8.95037	13.01872	2.44101	-12.20505	0.81367	8.95037	21.15542	97.6404	17.08707	-73.2303	-30.91946	-1169.24379	0
368	8.95037	17.90074	7.32303	-12.20505	0.81367	13.01872	21.15542	92.75838	21.96909	-78.11232	-30.91946	-1169.24379	0
369	13.83239	8.1367	-7.32303	-12.20505	10.57771	-0.81367	21.15542	82.99434	21.96909	-78.11232	-26.03744	-1169.24379	0
370	13.83239	8.1367	-7.32303	-12.20505	10.57771	-0.81367	21.15542	78.11232	21.96909	-82.99434	-30.91946	-1174.12581	0
371	13.83239	8.1367	-7.32303	-12.20505	10.57771	-0.81367	16.2734	73.2303	21.96909	-78.11232	-26.03744	-1179.00783	0
372	8.95037	-11.39138	-20.34175	2.44101	15.45973	-15.45973	30.91946	82.99434	36.61515	-63.46626	-6.50936	-1164.36177	0
373	13.83239	-16.2734	-30.10579	-2.44101	20.34175	-25.22377	30.91946	78.11232	36.61515	-53.70222	-1.62734	-1169.24379	0
374	13.83239	-16.2734	-30.10579	-2.44101	20.34175	-25.22377	30.91946	68.34828	41.49717	-48.8202	-1.62734	-1174.12581	0
375	8.95037	-16.2734	-25.22377	2.44101	15.45973	-20.34175	35.80148	68.34828	41.49717	-39.05616	8.1367	-1174.12581	0
376	8.95037	-11.39138	-20.34175	2.44101	15.45973	-15.45973	35.80148	58.58424	41.49717	-39.05616	3.25468	-1188.77187	0
377	13.83239	3.25468	-11.39138	-12.20505	10.57771	-5.69569	16.2734	34.17414	17.08707	-58.58424	-21.15542	-1213.18197	0
378	8.95037	3.25468	-7.32303	-7.32303	5.69569	-0.81367	16.2734	29.29212	17.08707	-63.46626	-26.03744	-1227.82803	0
379	4.06835	3.25468	-2.44101	-7.32303	0.81367	-0.81367	16.2734	29.29212	7.32303	-68.34828	-26.03744	-1237.59207	0
380	-5.69569	-1.62734	2.44101	2.44101	-4.06835	-0.81367	1.62734	14.64606	-2.44101	-82.99434	-30.91946	-1257.12015	0
381	-5.69569	-6.50936	-2.44101	2.44101	-4.06835	-5.69569	-3.25468	14.64606	-2.44101	-82.99434	-30.91946	-1266.88419	0
382	-20.34175	-26.03744	-7.32303	21.96909	-8.95037	-15.45973	11.39138	29.29212	7.32303	-68.34828	-16.2734	-1257.12015	0
383	-10.57771	-30.91946	-20.34175	21.96909	5.69569	-25.22377	1.62734	24.4101	7.32303	-63.46626	-16.2734	-1262.00217	0
384	-30.10579	-21.15542	7.32303	26.85111	-18.71441	-5.69569	16.2734	39.05616	21.96909	-43.93818	-1.62734	-1257.12015	0
385	-49.63387	-16.2734	31.73313	31.73313	-43.12451	8.95037	35.80148	53.70222	31.73313	-24.4101	12.20505	-1252.23813	0
386	-44.75185	-11.39138	31.73313	26.85111	-38.24249	8.95037	26.03744	43.93818	26.85111	-24.4101	3.25468	-1262.00217	0
387	-15.45973	8.1367	21.96909	2.44101	-18.71441	13.01872	6.50936	19.52808	7.32303	-43.93818	-16.2734	-1286.41227	0
388	18.71441	13.01872	-7.32303	-17.08707	10.57771	4.06835	-7.32303	4.88202	-12.20505	-63.46626	-30.91946	-1305.94035	0
389	28.47845	13.01872	-15.45973	-21.96909	20.34175	-0.81367	-7.32303	0	-21.96909	-73.2303	-35.80148	-1320.58641	0
390	4.06835	17.90074	12.20505	-12.20505	-4.06835	13.01872	-7.32303	4.88202	-26.03744	-68.34828	-35.80148	-1330.35045	0
391	-34.98781	13.01872	46.37919	7.32303	-43.12451	26.85111	-3.25468	19.52808	-12.20505	-53.70222	-26.03744	-1325.46843	0
392	-44.75185	-6.50936	36.61515	21.96909	-43.12451	13.01872	1.62734	34.17414	2.44101	-29.29212	-6.50936	-1320.58641	0
393	-39.86983	-16.2734	21.96909	26.85111	-33.36047	4.06835	6.50936	39.05616	7.32303	-19.52808	-1.62734	-1320.58641	0
394	-39.86983	-26.03744	12.20505	31.73313	-28.47845	-5.69569	16.2734	48.8202	7.32303	-9.76404	3.25468	-1335.23247	0
395	-30.10579	-30.91946	-2.44101	31.73313	-13.83239	-15.45973	26.03744	58.58424	12.20505	0	8.1367	-1344.99651	0
396	-25.22377	-26.03744	-2.44101	21.96909	-13.83239	-15.45973	30.91946	58.58424	7.32303	0	12.20505	-1354.76055	0
397	-15.45973	-11.39138	2.44101	12.20505	-8.95037	-5.69569	21.15542	48.8202	-7.32303	-14.64606	-1.62734	-1374.28863	0
398	-10.57771	-11.39138	-2.44101	12.20505	-4.06835	-5.69569	16.2734	43.93818	-17.08707	-24.4101	-11.39138	-1384.05267	0
399	-0.81367	-16.2734	-15.45973	7.32303	5.69569	-15.45973	16.2734	39.05616	-21.96909	-29.29212	-16.2734	-1393.81671	0
400	8.95037	-21.15542	-30.10579	7.32303	20.34175	-25.22377	6.50936	34.17414	-34.98781	-43.93818	-26.03744	-1413.34479	0
401	-0.81367	-26.03744	-25.22377	12.20505	10.57771	-25.22377	11.39138	39.05616	-26.03744	-29.29212	-16.2734	-1413.34479	0
402	-25.22377	-50.44754	-25.22377	36.61515	0.81367	-39.86983	26.03744	63.46626	-17.08707	-4.88202	3.25468	-1398.69873	0
403	-39.86983	-60.21158	-20.34175	51.26121	-8.95037	-39.86983	40.6835	73.2303	-7.32303	9.76404	12.20505	-1398.69873	0
404	-44.75185	-65.0936	-20.34175	51.26121	-13.83239	-44.75185	45.56552	82.99434	-2.44101	13.83239	12.20505	-1398.69873	0
405	-34.98781	-69.97562	-34.98781	51.26121	0.81367	-54.51589	50.44754	82.99434	-2.44101	17.90074	21.15542	-1413.34479	0
406	-20.34175	-69.97562	-49.63387	46.37919	15.45973	-59.39791	55.32956	82.99434	-7.32303	13.83239	21.15542	-1427.99085	0
407	-5.69569	-60.21158	-54.51589	31.73313	25.22377	-59.39791	40.6835	68.34828	-26.03744	4.88202	12.20505	-1452.40095	0
408	4.06835	-60.21158	-64.27993	26.85111	33.36047	-64.27993	35.80148	53.70222	-26.03744	0	8.1367	-1462.16499	0
409	4.06835	-69.97562	-74.04397	31.73313	38.24249	-74.04397	30.91946	43.93818	-26.03744	-9.76404	-6.50936	-1481.69307	0
410	-5.69569	-74.85764	-69.16195	36.61515	29.29212	-74.04397	26.03744	43.93818	-26.03744	-14.64606	-11.39138	-1496.33913	0
411	-34.98781	-84.62168	-49.63387	56.14323	5.69569	-69.16195	35.80148	48.8202	-12.20505	-4.88202	-6.50936	-1491.45711	0
412	-49.63387	-104.14976	-54.51589	75.67131	0.81367	-78.92599	50.44754	63.46626	7.32303	9.76404	8.1367	-1481.69307	0
413	-49.63387	-113.9138	-64.27993	80.55333	5.69569	-88.69003	60.21158	73.2303	12.20505	13.83239	12.20505	-1476.81105	0
414	-44.75185	-118.79582	-74.04397	80.55333	15.45973	-98.45407	60.21158	78.11232	12.20505	13.83239	8.1367	-1486.57509	0
415	-49.63387	-123.67784	-74.04397	85.43535	10.57771	-98.45407	69.97562	73.2303	12.20505	13.83239	12.20505	-1491.45711	0
416	-39.86983	-113.9138	-74.04397	75.67131	15.45973	-93.57205	79.73966	78.11232	17.08707	17.90074	16.2734	-1486.57509	0
417	-39.86983	-94.38572	-54.51589	65.90727	5.69569	-74.04397	65.0936	63.46626	2.44101	9.76404	12.20505	-1506.10317	0
418	-25.22377	-84.62168	-59.39791	51.26121	15.45973	-74.04397	60.21158	58.58424	-2.44101	0	8.1367	-1510.98519	0
419	-34.98781	-84.62168	-49.63387	56.14323	5.69569	-69.16195	60.21158	58.58424	-2.44101	4.88202	8.1367	-1510.98519	0
420	-59.39791	-89.5037	-30.10579	75.67131	-13.83239	-59.39791	55.32956	58.58424	-2.44101	4.88202	3.25468	-1510.98519	0
421	-64.27993	-94.38572	-30.10579	75.67131	-18.71441	-64.27993	55.32956	58.58424	-2.44101	0	-1.62734	-1501.22115	0
422	-64.27993	-109.03178	-44.75185	85.43535	-8.95037	-78.92599	74.85764	73.2303	7.32303	13.83239	12.20505	-1481.69307	0
423	-59.39791	-113.9138	-54.51589	85.43535	-4.06835	-83.80801	74.85764	78.11232	2.44101	13.83239	12.20505	-1467.04701	0
424	-39.86983	-113.9138	-74.04397	75.67131	15.45973	-93.57205	74.85764	73.2303	-2.44101	13.83239	12.20505	-1467.04701	0
425	-59.39791	-118.79582	-59.39791	90.31737	0.81367	-88.69003	94.38572	82.99434	2.44101	17.90074	21.15542	-1462.16499	0
426	-78.92599	-123.67784	-44.75185	100.08141	-18.71441	-83.80801	94.38572	82.99434	-2.44101	17.90074	26.03744	-1462.16499	0
427	-74.04397	-113.9138	-39.86983	90.31737	-18.71441	-78.92599	74.85764	68.34828	-21.96909	4.88202	12.20505	-1486.57509	0
428	-74.04397	-113.9138	-39.86983	90.31737	-18.71441	-78.92599	69.97562	53.70222	-26.03744	-4.88202	8.1367	-1496.33913	0
429	-59.39791	-109.03178	-49.63387	85.43535	-4.06835	-78.92599	60.21158	43.93818	-34.98781	-9.76404	-1.62734	-1501.22115	0
430	-49.63387	-99.26774	-49.63387	75.67131	0.81367	-74.04397	55.32956	34.17414	-49.63387	-19.52808	-11.39138	-1510.98519	0
431	-49.63387	-99.26774	-49.63387	75.67131	0.81367	-74.04397	50.44754	34.17414	-59.39791	-24.4101	-21.15542	-1520.74923	0
432	-59.39791	-113.9138	-54.51589	85.43535	-4.06835	-83.80801	65.0936	43.93818	-49.63387	-4.88202	-11.39138	-1510.98519	0
433	-83.80801	-123.67784	-39.86983	100.08141	-23.59643	-83.80801	74.85764	48.8202	-54.51589	4.88202	-1.62734	-1506.10317	0
434	-103.33609	-123.67784	-20.34175	109.84545	-43.12451	-74.04397	84.62168	58.58424	-54.51589	9.76404	3.25468	-1506.10317	0
435	-103.33609	-128.55986	-25.22377	114.72747	-38.24249	-78.92599	99.26774	68.34828	-44.75185	13.83239	12.20505	-1510.98519	0
436	-88.69003	-128.55986	-39.86983	109.84545	-23.59643	-83.80801	94.38572	63.46626	-49.63387	13.83239	12.20505	-1530.51327	0
437	-59.39791	-113.9138	-54.51589	85.43535	-4.06835	-83.80801	74.85764	39.05616	-74.04397	-4.88202	-1.62734	-1554.92337	0
438	-30.10579	-109.03178	-78.92599	70.78929	25.22377	-93.57205	60.21158	29.29212	-83.80801	-24.4101	-16.2734	-1579.33347	0
439	-25.22377	-109.03178	-83.80801	65.90727	29.29212	-98.45407	60.21158	29.29212	-83.80801	-24.4101	-16.2734	-1584.21549	0
440	-30.10579	-99.26774	-69.16195	65.90727	20.34175	-83.80801	60.21158	24.4101	-88.69003	-29.29212	-21.15542	-1589.09751	0
441	-30.10579	-99.26774	-69.16195	65.90727	20.34175	-83.80801	69.97562	29.29212	-88.69003	-24.4101	-21.15542	-1589.09751	0
442	-30.10579	-118.79582	-88.69003	75.67131	29.29212	-103.33609	79.73966	43.93818	-74.04397	-9.76404	-6.50936	-1579.33347	0
443	-54.51589	-128.55986	-74.04397	90.31737	10.57771	-103.33609	94.38572	53.70222	-74.04397	0	8.1367	-1574.45145	0
444	-78.92599	-133.44188	-54.51589	104.96343	-13.83239	-93.57205	104.14976	58.58424	-74.04397	9.76404	12.20505	-1574.45145	0
445	-83.80801	-148.08794	-64.27993	114.72747	-8.95037	-108.21811	104.14976	58.58424	-78.92599	9.76404	12.20505	-1579.33347	0
446	-74.04397	-152.96996	-78.92599	109.84545	0.81367	-117.98215	94.38572	48.8202	-83.80801	4.88202	12.20505	-1593.97953	0
447	-54.51589	-143.20592	-88.69003	95.19939	15.45973	-117.98215	74.85764	29.29212	-103.33609	-14.64606	-6.50936	-1623.27165	0
448	-44.75185	-148.08794	-103.33609	95.19939	29.29212	-127.74619	65.0936	14.64606	-103.33609	-19.52808	-16.2734	-1633.03569	0
449	-44.75185	-148.08794	-103.33609	95.19939	29.29212	-127.74619	65.0936	14.64606	-98.45407	-19.52808	-11.39138	-1637.91771	0
450	-54.51589	-143.20592	-88.69003	95.19939	15.45973	-117.98215	60.21158	14.64606	-103.33609	-34.17414	-16.2734	-1647.68175	0
451	-59.39791	-143.20592	-83.80801	100.08141	10.57771	-113.10013	69.97562	24.4101	-98.45407	-34.17414	-11.39138	-1642.79973	0
452	-59.39791	-157.85198	-98.45407	109.84545	20.34175	-127.74619	79.73966	39.05616	-83.80801	-19.52808	3.25468	-1633.03569	0
453	-59.39791	-167.61602	-108.21811	114.72747	25.22377	-137.51023	84.62168	48.8202	-83.80801	-14.64606	8.1367	-1628.15367	0
454	-59.39791	-167.61602	-108.21811	114.72747	25.22377	-137.51023	84.62168	48.8202	-83.80801	-9.76404	12.20505	-1628.15367	0
455	-59.39791	-167.61602	-108.21811	114.72747	25.22377	-137.51023	89.5037	53.70222	-78.92599	4.88202	12.20505	-1628.15367	0
456	-64.27993	-162.734	-98.45407	109.84545	15.45973	-132.62821	94.38572	48.8202	-78.92599	9.76404	21.15542	-1633.03569	0
457	-69.16195	-143.20592	-74.04397	104.96343	0.81367	-108.21811	89.5037	34.17414	-93.57205	4.88202	12.20505	-1647.68175	0
458	-59.39791	-128.55986	-69.16195	95.19939	5.69569	-98.45407	89.5037	39.05616	-93.57205	0	12.20505	-1652.56377	0
459	-39.86983	-118.79582	-78.92599	80.55333	20.34175	-98.45407	84.62168	39.05616	-103.33609	-4.88202	12.20505	-1662.32781	0
460	-30.10579	-104.14976	-74.04397	65.90727	20.34175	-88.69003	84.62168	39.05616	-113.10013	-14.64606	8.1367	-1672.09185	0
461	-30.10579	-94.38572	-64.27993	61.02525	15.45973	-78.92599	89.5037	48.8202	-113.10013	-9.76404	8.1367	-1676.97387	0
462	-39.86983	-99.26774	-59.39791	70.78929	10.57771	-78.92599	104.14976	73.2303	-98.45407	17.90074	21.15542	-1657.44579	0
463	-44.75185	-89.5037	-44.75185	65.90727	0.81367	-69.16195	118.79582	82.99434	-78.92599	37.42882	35.80148	-1647.68175	0
464	-54.51589	-74.85764	-20.34175	61.02525	-18.71441	-49.63387	133.44188	87.87636	-64.27993	56.9569	50.44754	-1637.91771	0
465	-54.51589	-74.85764	-20.34175	61.02525	-18.71441	-49.63387	138.3239	92.75838	-59.39791	66.72094	60.21158	-1642.79973	0
466	-34.98781	-65.0936	-30.10579	46.37919	-4.06835	-49.63387	133.44188	82.99434	-64.27993	66.72094	60.21158	-1647.68175	0
467	-49.63387	-40.6835	7.32303	46.37919	-28.47845	-15.45973	128.55986	73.2303	-69.16195	56.9569	50.44754	-1662.32781	0
468	-54.51589	-30.91946	21.96909	41.49717	-38.24249	-5.69569	113.9138	63.46626	-78.92599	52.07488	40.6835	-1667.20983	0
469	-44.75185	-21.15542	21.96909	31.73313	-33.36047	-0.81367	113.9138	68.34828	-78.92599	52.07488	40.6835	-1667.20983	0
470	-30.10579	-6.50936	21.96909	17.08707	-28.47845	8.95037	113.9138	63.46626	-88.69003	56.9569	35.80148	-1672.09185	0
471	-20.34175	3.25468	21.96909	7.32303	-23.59643	13.01872	104.14976	63.46626	-93.57205	52.07488	30.91946	-1676.97387	0
472	-10.57771	3.25468	12.20505	2.44101	-13.83239	8.95037	113.9138	68.34828	-83.80801	71.60296	45.56552	-1662.32781	0
473	-10.57771	8.1367	17.08707	2.44101	-13.83239	13.01872	104.14976	68.34828	-93.57205	76.48498	55.32956	-1657.44579	0
474	8.95037	17.90074	7.32303	-12.20505	0.81367	13.01872	79.73966	58.58424	-103.33609	66.72094	45.56552	-1662.32781	0
475	28.47845	22.78276	-7.32303	-26.85111	15.45973	8.95037	60.21158	53.70222	-108.21811	66.72094	50.44754	-1667.20983	0
476	13.83239	32.5468	17.08707	-26.85111	-4.06835	21.96909	50.44754	53.70222	-108.21811	61.83892	60.21158	-1667.20983	0
477	-20.34175	55.32956	75.67131	-17.08707	-48.00653	65.90727	35.80148	43.93818	-103.33609	61.83892	60.21158	-1662.32781	0
478	-20.34175	79.73966	100.08141	-26.85111	-57.77057	90.31737	16.2734	39.05616	-103.33609	56.9569	60.21158	-1657.44579	0
479	4.06835	89.5037	85.43535	-44.75185	-38.24249	85.43535	-3.25468	29.29212	-122.86417	47.19286	50.44754	-1662.32781	0
480	8.95037	104.14976	95.19939	-54.51589	-43.12451	100.08141	-21.15542	19.52808	-132.62821	42.31084	40.6835	-1667.20983	0
481	8.95037	104.14976	95.19939	-54.51589	-43.12451	100.08141	-35.80148	14.64606	-142.39225	42.31084	35.80148	-1676.97387	0
482	23.59643	99.26774	75.67131	-59.39791	-23.59643	85.43535	-35.80148	24.4101	-137.51023	47.19286	45.56552	-1667.20983	0
483	38.24249	94.38572	56.14323	-64.27993	-8.95037	75.67131	-50.44754	14.64606	-142.39225	37.42882	40.6835	-1672.09185	0
484	47.19286	99.26774	51.26121	-69.16195	0.81367	75.67131	-60.21158	9.76404	-147.27427	32.5468	35.80148	-1676.97387	0
485	38.24249	94.38572	56.14323	-64.27993	-8.95037	75.67131	-55.32956	9.76404	-142.39225	37.42882	40.6835	-1672.09185	0
486	8.95037	94.38572	85.43535	-49.63387	-38.24249	90.31737	-50.44754	9.76404	-132.62821	42.31084	40.6835	-1672.09185	0
487	-0.81367	109.03178	109.84545	-49.63387	-52.88855	109.84545	-65.0936	-4.88202	-147.27427	17.90074	21.15542	-1686.73791	0
488	23.59643	123.67784	100.08141	-74.04397	-38.24249	109.84545	-79.73966	-17.90074	-161.92033	13.83239	12.20505	-1701.38397	0
489	43.12451	138.3239	95.19939	-88.69003	-23.59643	114.72747	-89.5037	-22.78276	-171.68437	0	3.25468	-1711.14801	0
490	47.19286	157.85198	109.84545	-98.45407	-28.47845	134.25555	-99.26774	-32.5468	-181.44841	-9.76404	-11.39138	-1720.91205	0
491	61.02525	172.49804	109.84545	-113.10013	-23.59643	144.01959	-104.14976	-27.66478	-191.21245	-14.64606	-16.2734	-1720.91205	0
492	61.02525	172.49804	109.84545	-113.10013	-23.59643	144.01959	-104.14976	-22.78276	-191.21245	-9.76404	-11.39138	-1720.91205	0
493	47.19286	182.26208	134.25555	-113.10013	-43.12451	158.66565	-99.26774	-32.5468	-196.09447	-19.52808	-26.03744	-1720.91205	0
494	33.36047	206.67218	173.31171	-117.98215	-67.53461	187.95777	-104.14976	-42.31084	-205.85851	-39.05616	-40.6835	-1725.79407	0
495	33.36047	221.31824	187.95777	-127.74619	-77.29865	202.60383	-99.26774	-42.31084	-210.74053	-43.93818	-50.44754	-1725.79407	0
496	38.24249	221.31824	183.07575	-127.74619	-72.41663	202.60383	-94.38572	-47.19286	-215.62255	-53.70222	-60.21158	-1730.67609	0
497	43.12451	235.9643	192.83979	-137.51023	-72.41663	212.36787	-99.26774	-61.83892	-225.38659	-68.34828	-74.85764	-1740.44013	0
498	23.59643	231.08228	207.48585	-127.74619	-91.94471	217.24989	-99.26774	-71.60296	-225.38659	-73.2303	-79.73966	-1740.44013	0
499	-0.81367	221.31824	222.13191	-108.21811	-111.47279	222.13191	-89.5037	-71.60296	-225.38659	-73.2303	-79.73966	-1730.67609	0
500	-15.45973	216.43622	231.89595	-98.45407	-121.23683	222.13191	-89.5037	-76.48498	-235.15063	-82.99434	-89.5037	-1730.67609	0
501	-25.22377	196.90814	222.13191	-83.80801	-121.23683	207.48585	-94.38572	-76.48498	-230.26861	-82.99434	-84.62168	-1716.03003	0
502	-39.86983	162.734	202.60383	-59.39791	-121.23683	183.07575	-79.73966	-66.72094	-215.62255	-73.2303	-69.97562	-1686.73791	0
503	-39.86983	138.3239	178.19373	-44.75185	-106.59077	158.66565	-79.73966	-61.83892	-205.85851	-78.11232	-65.0936	-1662.32781	0
504	-39.86983	118.79582	158.66565	-36.61515	-96.82673	139.13757	-79.73966	-61.83892	-200.97649	-78.11232	-65.0936	-1637.91771	0
505	-44.75185	94.38572	139.13757	-26.85111	-91.94471	114.72747	-69.97562	-56.9569	-191.21245	-73.2303	-60.21158	-1603.74357	0
506	-44.75185	89.5037	134.25555	-21.96909	-87.06269	109.84545	-55.32956	-56.9569	-181.44841	-68.34828	-60.21158	-1564.68741	0
507	-44.75185	89.5037	134.25555	-21.96909	-87.06269	109.84545	-60.21158	-66.72094	-191.21245	-82.99434	-74.85764	-1545.15933	0
508	-39.86983	84.62168	124.49151	-21.96909	-82.18067	104.96343	-60.21158	-66.72094	-186.33043	-82.99434	-74.85764	-1510.98519	0
509	-39.86983	69.97562	109.84545	-12.20505	-72.41663	90.31737	-50.44754	-61.83892	-176.56639	-82.99434	-79.73966	-1467.04701	0
510	-54.51589	55.32956	109.84545	-2.44101	-82.18067	80.55333	-45.56552	-52.07488	-171.68437	-78.11232	-79.73966	-1427.99085	0
511	-44.75185	40.6835	85.43535	2.44101	-62.65259	61.02525	-45.56552	-47.19286	-166.80235	-73.2303	-74.85764	-1384.05267	0
512	-20.34175	22.78276	41.49717	-2.44101	-33.36047	31.73313	-30.91946	-27.66478	-147.27427	-53.70222	-55.32956	-1325.46843	0
513	-20.34175	-1.62734	17.08707	12.20505	-18.71441	8.95037	-26.03744	-22.78276	-137.51023	-43.93818	-45.56552	-1271.76621	0
514	-30.10579	-26.03744	2.44101	26.85111	-18.71441	-10.57771	-21.15542	-13.01872	-127.74619	-39.05616	-40.6835	-1213.18197	0
515	-39.86983	-45.56552	-7.32303	41.49717	-18.71441	-25.22377	-7.32303	-8.95037	-113.10013	-24.4101	-26.03744	-1154.59773	0
516	-44.75185	-55.32956	-11.39138	46.37919	-18.71441	-34.98781	-7.32303	-8.95037	-108.21811	-24.4101	-26.03744	-1100.89551	0
517	-34.98781	-55.32956	-20.34175	41.49717	-8.95037	-39.86983	-11.39138	-17.90074	-127.74619	-43.93818	-45.56552	-1061.83935	0
518	-30.10579	-65.0936	-34.98781	46.37919	0.81367	-49.63387	-7.32303	-13.01872	-127.74619	-43.93818	-45.56552	-1013.01915	0
519	-25.22377	-74.85764	-49.63387	46.37919	10.57771	-64.27993	-7.32303	-13.01872	-132.62821	-43.93818	-45.56552	-969.08097	0
520	-25.22377	-69.97562	-44.75185	46.37919	10.57771	-59.39791	-7.32303	-17.90074	-137.51023	-48.8202	-45.56552	-934.90683	0
521	-20.34175	-79.73966	-59.39791	51.26121	20.34175	-69.16195	-7.32303	-17.90074	-137.51023	-43.93818	-40.6835	-900.73269	0
522	-44.75185	-94.38572	-49.63387	65.90727	0.81367	-74.04397	1.62734	-4.88202	-113.10013	-29.29212	-21.15542	-842.14845	0
523	-69.16195	-104.14976	-34.98781	85.43535	-18.71441	-69.16195	16.2734	9.76404	-103.33609	-14.64606	-6.50936	-793.32825	0
524	-64.27993	-99.26774	-34.98781	80.55333	-13.83239	-69.16195	16.2734	9.76404	-98.45407	-9.76404	-1.62734	-749.39007	0
525	-49.63387	-109.03178	-59.39791	80.55333	5.69569	-83.80801	21.15542	14.64606	-93.57205	-9.76404	-1.62734	-715.21593	0
526	-49.63387	-118.79582	-69.16195	85.43535	10.57771	-93.57205	21.15542	9.76404	-98.45407	-9.76404	-1.62734	-681.04179	0
527	-64.27993	-113.9138	-49.63387	85.43535	-8.95037	-83.80801	16.2734	0	-103.33609	-19.52808	-11.39138	-646.86765	0
528	-69.16195	-118.79582	-49.63387	95.19939	-8.95037	-83.80801	16.2734	-4.88202	-108.21811	-34.17414	-21.15542	-617.57553	0
529	-64.27993	-128.55986	-64.27993	95.19939	0.81367	-98.45407	21.15542	-8.95037	-113.10013	-39.05616	-21.15542	-578.51937	0
530	-44.75185	-123.67784	-78.92599	80.55333	15.45973	-103.33609	16.2734	-13.01872	-122.86417	-43.93818	-26.03744	-558.99129	0
531	-39.86983	-133.44188	-93.57205	85.43535	25.22377	-113.10013	16.2734	-13.01872	-127.74619	-48.8202	-21.15542	-539.46321	0
532	-44.75185	-157.85198	-113.10013	100.08141	33.36047	-137.51023	26.03744	-8.95037	-122.86417	-39.05616	-6.50936	-515.05311	0
533	-64.27993	-172.49804	-108.21811	114.72747	20.34175	-142.39225	35.80148	-4.88202	-127.74619	-34.17414	-6.50936	-495.52503	0
534	-74.04397	-187.1441	-113.10013	129.37353	20.34175	-152.15629	30.91946	-13.01872	-147.27427	-48.8202	-26.03744	-490.64301	0
535	-69.16195	-206.67218	-137.51023	139.13757	33.36047	-171.68437	30.91946	-27.66478	-176.56639	-73.2303	-50.44754	-495.52503	0
536	-69.16195	-221.31824	-152.15629	144.01959	38.24249	-186.33043	30.91946	-52.07488	-215.62255	-112.28646	-84.62168	-500.40705	0
537	-69.16195	-240.84632	-171.68437	153.78363	48.00653	-205.85851	11.39138	-86.24902	-279.08881	-175.75272	-143.20592	-529.69917	0
538	-69.16195	-265.25642	-196.09447	168.42969	62.65259	-230.26861	21.15542	-105.7771	-332.79103	-229.45494	-201.79016	-558.99129	0
539	-88.69003	-294.54854	-205.85851	192.83979	57.77057	-249.79669	50.44754	-86.24902	-347.43709	-258.74706	-231.08228	-578.51937	0
540	-113.10013	-318.95864	-205.85851	212.36787	43.12451	-264.44275	89.5037	-37.42882	-342.55507	-273.39312	-250.61036	-602.92947	0
541	-103.33609	-348.25076	-244.91467	222.13191	67.53461	-298.61689	143.20592	29.29212	-313.26295	-268.5111	-255.49238	-622.45755	0
542	-78.92599	-372.66086	-293.73487	227.01393	106.59077	-332.79103	187.1441	117.16848	-264.44275	-234.33696	-240.84632	-617.57553	0
543	-54.51589	-392.18894	-337.67305	222.13191	140.76491	-366.96517	187.1441	146.4606	-240.03265	-229.45494	-231.08228	-617.57553	0
544	-20.34175	-387.30692	-366.96517	202.60383	170.05703	-376.72921	157.85198	117.16848	-244.91467	-239.21898	-240.84632	-627.33957	0
545	23.59643	-382.4249	-406.02133	178.19373	213.99521	-396.25729	84.62168	24.4101	-269.32477	-263.62908	-235.9643	-627.33957	0
546	80.55333	-362.89682	-445.07749	144.01959	262.81541	-401.13931	-26.03744	-100.89508	-323.02699	-297.80322	-240.84632	-622.45755	0
547	148.90161	-323.84066	-474.36961	90.31737	311.63561	-396.25729	-162.734	-276.6478	-401.13931	-346.62342	-250.61036	-622.45755	0
548	212.36787	-265.25642	-479.25163	26.85111	345.80975	-371.84719	-289.66652	-481.69264	-484.13365	-385.67958	-240.84632	-588.28341	0
549	270.95211	-192.02612	-464.60557	-40.6835	365.33783	-327.90901	-431.2451	-730.67566	-596.42011	-434.49978	-235.9643	-554.10927	0
550	324.65433	-104.14976	-430.43143	-108.21811	375.10187	-264.44275	-616.76186	-1018.71484	-737.99869	-493.08402	-231.08228	-529.69917	0
551	402.76665	-45.56552	-449.95951	-176.56639	423.92207	-244.91467	-816.92468	-1277.4619	-855.16717	-527.25816	-206.67218	-490.64301	0
552	475.99695	-55.32956	-532.95385	-210.74053	502.03439	-293.73487	-1012.20548	-1472.7427	-908.86939	-522.37614	-148.08794	-432.05877	0
553	539.46321	-65.0936	-606.18415	-235.15063	570.38267	-332.79103	-1187.9582	-1624.08532	-933.27949	-497.96604	-69.97562	-373.47453	0
554	573.63735	-40.6835	-615.94819	-264.44275	594.79277	-327.90901	-1290.48062	-1677.78754	-889.34131	-414.9717	35.80148	-290.48019	0
555	598.04745	55.32956	-542.71789	-323.02699	570.38267	-240.03265	-1295.36264	-1594.7932	-718.47061	-224.57292	226.20026	-144.01959	0
556	593.16543	167.61602	-425.54941	-376.72921	511.79843	-127.74619	-1241.66042	-1428.80452	-479.25163	17.90074	450.77318	20.34175	0
557	563.87331	270.13844	-293.73487	-415.78537	428.80409	-10.57771	-1158.66608	-1238.40574	-230.26861	252.2377	650.936	171.68437	0
558	539.46321	328.72268	-210.74053	-430.43143	375.10187	61.02525	-1056.14366	-1043.12494	2.44101	481.69264	836.45276	308.38093	0
559	524.81715	362.89682	-161.92033	-440.19547	345.80975	100.08141	-948.73922	-847.84414	227.01393	686.73748	992.6774	420.66739	0
560	500.40705	387.30692	-113.10013	-440.19547	306.75359	139.13757	-846.2168	-667.2094	417.41271	852.72616	1109.84588	489.01567	0
561	471.11493	411.71702	-59.39791	-435.31345	267.69743	178.19373	-729.04832	-491.45668	583.40139	994.30474	1207.48628	542.71789	0
562	441.82281	406.835	-34.98781	-420.66739	238.40531	187.95777	-602.1158	-340.11406	690.80583	1082.1811	1256.30648	572.01001	0
563	388.12059	382.4249	-7.32303	-381.61123	199.34915	187.95777	-489.82934	-213.18154	749.39007	1106.5912	1251.42446	552.48193	0
564	324.65433	348.25076	21.96909	-332.79103	150.52895	187.95777	-377.54288	-96.01306	764.03613	1072.41706	1187.9582	479.25163	0
565	266.07009	289.66652	21.96909	-274.20679	121.23683	158.66565	-270.13844	9.76404	754.27209	1018.71484	1104.96386	386.49325	0
566	197.72181	211.5542	12.20505	-200.97649	91.94471	114.72747	-187.1441	78.11232	705.45189	921.07444	973.14932	254.67871	0
567	129.37353	143.20592	12.20505	-132.62821	57.77057	80.55333	-113.9138	117.16848	641.98563	799.02394	812.04266	93.57205	0
568	85.43535	69.97562	-15.45973	-74.04397	52.88855	26.85111	-55.32956	151.34262	578.51937	681.85546	655.81802	-61.02525	0
569	65.90727	13.01872	-54.51589	-40.6835	57.77057	-20.34175	-21.15542	165.98868	510.17109	564.68698	514.23944	-202.60383	0
570	51.26121	-30.91946	-83.80801	-7.32303	67.53461	-54.51589	-11.39138	165.98868	422.29473	442.63648	377.54288	-324.65433	0
571	13.83239	-60.21158	-74.04397	21.96909	43.12451	-69.16195	11.39138	165.98868	349.06443	340.11406	275.02046	-412.53069	0
572	-34.98781	-89.5037	-54.51589	61.02525	10.57771	-74.04397	60.21158	190.39878	314.89029	281.52982	216.43622	-461.35089	0
573	-49.63387	-104.14976	-54.51589	75.67131	0.81367	-78.92599	84.62168	200.16282	261.18807	222.94558	162.734	-510.17109	0
574	-64.27993	-109.03178	-44.75185	85.43535	-8.95037	-78.92599	109.03178	205.04484	217.24989	174.12538	123.67784	-554.10927	0
575	-69.16195	-123.67784	-54.51589	95.19939	-8.95037	-88.69003	133.44188	214.80888	187.95777	144.83326	104.14976	-588.28341	0
576	-74.04397	-133.44188	-59.39791	100.08141	-8.95037	-98.45407	152.96996	224.57292	178.19373	135.06922	94.38572	-612.69351	0
577	-78.92599	-128.55986	-49.63387	104.96343	-13.83239	-88.69003	157.85198	214.80888	163.54767	120.42316	69.97562	-646.86765	0
578	-74.04397	-133.44188	-59.39791	100.08141	-8.95037	-98.45407	162.734	209.92686	158.66565	110.65912	60.21158	-666.39573	0
579	-69.16195	-143.20592	-74.04397	104.96343	0.81367	-108.21811	152.96996	209.92686	153.78363	100.89508	50.44754	-681.04179	0
580	-74.04397	-148.08794	-74.04397	109.84545	0.81367	-113.10013	148.08794	200.16282	144.01959	81.367	35.80148	-685.92381	0
581	-74.04397	-148.08794	-74.04397	109.84545	0.81367	-113.10013	143.20592	195.2808	129.37353	61.83892	26.03744	-681.04179	0
582	-69.16195	-162.734	-93.57205	114.72747	10.57771	-127.74619	143.20592	205.04484	129.37353	56.9569	26.03744	-661.51371	0
583	-44.75185	-162.734	-117.98215	100.08141	33.36047	-142.39225	143.20592	205.04484	114.72747	47.19286	16.2734	-646.86765	0
584	-44.75185	-162.734	-117.98215	100.08141	33.36047	-142.39225	148.08794	214.80888	109.84545	47.19286	16.2734	-622.45755	0
585	-59.39791	-162.734	-103.33609	109.84545	20.34175	-132.62821	157.85198	234.33696	114.72747	56.9569	26.03744	-598.04745	0
586	-83.80801	-167.61602	-83.80801	124.49151	0.81367	-127.74619	177.38006	253.86504	129.37353	66.72094	35.80148	-563.87331	0
587	-88.69003	-157.85198	-69.16195	124.49151	-8.95037	-113.10013	172.49804	244.101	134.25555	61.83892	21.15542	-544.34523	0
588	-74.04397	-157.85198	-83.80801	114.72747	5.69569	-122.86417	162.734	244.101	134.25555	66.72094	12.20505	-510.17109	0
589	-59.39791	-152.96996	-93.57205	104.96343	15.45973	-122.86417	152.96996	234.33696	139.13757	66.72094	12.20505	-461.35089	0
590	-49.63387	-148.08794	-98.45407	100.08141	25.22377	-122.86417	138.3239	224.57292	129.37353	52.07488	8.1367	-417.41271	0
591	-54.51589	-143.20592	-88.69003	95.19939	15.45973	-117.98215	143.20592	224.57292	124.49151	52.07488	8.1367	-349.06443	0
592	-64.27993	-157.85198	-93.57205	109.84545	15.45973	-127.74619	152.96996	234.33696	134.25555	61.83892	16.2734	-275.83413	0
593	-64.27993	-162.734	-98.45407	109.84545	15.45973	-132.62821	157.85198	248.98302	129.37353	61.83892	26.03744	-207.48585	0
594	-64.27993	-162.734	-98.45407	109.84545	15.45973	-132.62821	157.85198	253.86504	129.37353	61.83892	26.03744	-158.66565	0
595	-83.80801	-162.734	-78.92599	119.60949	-4.06835	-122.86417	172.49804	278.27514	139.13757	76.48498	40.6835	-104.96343	0
596	-83.80801	-162.734	-78.92599	119.60949	-4.06835	-122.86417	177.38006	288.03918	148.90161	86.24902	45.56552	-65.90727	0
597	-78.92599	-148.08794	-69.16195	114.72747	-4.06835	-108.21811	167.61602	273.39312	134.25555	71.60296	35.80148	-51.26121	0
598	-69.16195	-143.20592	-74.04397	104.96343	0.81367	-108.21811	162.734	273.39312	134.25555	71.60296	26.03744	-27.66478	0
599	-74.04397	-138.3239	-64.27993	104.96343	-4.06835	-103.33609	162.734	273.39312	129.37353	71.60296	21.15542	-8.95037	0
600	-64.27993	-123.67784	-59.39791	90.31737	-4.06835	-93.57205	157.85198	268.5111	124.49151	61.83892	16.2734	0.81367	0
601	-64.27993	-118.79582	-54.51589	90.31737	-4.06835	-88.69003	152.96996	268.5111	119.60949	61.83892	12.20505	15.45973	0
602	-64.27993	-133.44188	-69.16195	95.19939	0.81367	-103.33609	162.734	288.03918	129.37353	76.48498	21.15542	44.75185	0
603	-59.39791	-133.44188	-74.04397	95.19939	5.69569	-103.33609	162.734	288.03918	124.49151	66.72094	16.2734	54.51589	0
604	-64.27993	-128.55986	-64.27993	95.19939	0.81367	-98.45407	162.734	288.03918	129.37353	61.83892	16.2734	59.39791	-1250	T-0
605	-74.04397	-128.55986	-54.51589	100.08141	-8.95037	-93.57205	172.49804	302.68524	144.01959	76.48498	30.91946	74.04397	0
606	-74.04397	-123.67784	-49.63387	95.19939	-13.83239	-88.69003	177.38006	302.68524	153.78363	86.24902	40.6835	78.92599	0
607	-49.63387	-104.14976	-54.51589	75.67131	0.81367	-78.92599	162.734	288.03918	144.01959	81.367	26.03744	74.04397	0
608	-30.10579	-99.26774	-69.16195	65.90727	20.34175	-83.80801	148.08794	278.27514	139.13757	71.60296	16.2734	64.27993	0
609	-39.86983	-94.38572	-54.51589	65.90727	5.69569	-74.04397	157.85198	288.03918	144.01959	81.367	16.2734	74.04397	0
610	-59.39791	-84.62168	-25.22377	70.78929	-18.71441	-54.51589	157.85198	302.68524	139.13757	86.24902	16.2734	69.16195	0
611	-64.27993	-84.62168	-20.34175	70.78929	-23.59643	-54.51589	157.85198	307.56726	139.13757	91.13104	12.20505	59.39791	0
612	-69.16195	-99.26774	-30.10579	85.43535	-18.71441	-64.27993	167.61602	327.09534	148.90161	100.89508	21.15542	59.39791	0
613	-83.80801	-104.14976	-20.34175	90.31737	-33.36047	-64.27993	177.38006	341.7414	158.66565	105.7771	30.91946	44.75185	0
614	-83.80801	-94.38572	-11.39138	85.43535	-38.24249	-54.51589	182.26208	346.62342	163.54767	105.7771	30.91946	30.10579	0
615	-78.92599	-94.38572	-15.45973	85.43535	-33.36047	-54.51589	187.1441	351.50544	173.31171	110.65912	40.6835	10.57771	0
616	-78.92599	-99.26774	-20.34175	90.31737	-28.47845	-59.39791	182.26208	351.50544	168.42969	110.65912	40.6835	-8.95037	0
617	-78.92599	-84.62168	-7.32303	80.55333	-38.24249	-44.75185	172.49804	341.7414	153.78363	96.01306	21.15542	-31.73313	0
618	-74.04397	-69.97562	2.44101	70.78929	-38.24249	-34.98781	177.38006	346.62342	153.78363	100.89508	16.2734	-46.37919	0
619	-74.04397	-69.97562	2.44101	70.78929	-38.24249	-34.98781	172.49804	351.50544	148.90161	100.89508	12.20505	-65.90727	0
620	-64.27993	-60.21158	2.44101	61.02525	-33.36047	-30.10579	172.49804	356.38746	148.90161	105.7771	12.20505	-85.43535	0
621	-49.63387	-55.32956	-7.32303	51.26121	-23.59643	-30.10579	172.49804	361.26948	148.90161	105.7771	12.20505	-104.96343	0
622	-49.63387	-74.85764	-25.22377	61.02525	-13.83239	-49.63387	187.1441	380.79756	168.42969	125.30518	26.03744	-109.84545	0
623	-54.51589	-79.73966	-25.22377	65.90727	-13.83239	-54.51589	192.02612	390.5616	178.19373	135.06922	35.80148	-119.60949	0
624	-54.51589	-79.73966	-25.22377	65.90727	-13.83239	-54.51589	196.90814	395.44362	178.19373	130.1872	35.80148	-148.90161	0
625	-49.63387	-79.73966	-30.10579	65.90727	-8.95037	-54.51589	201.79016	400.32564	178.19373	130.1872	40.6835	-173.31171	0
626	-44.75185	-69.97562	-25.22377	56.14323	-8.95037	-49.63387	196.90814	405.20766	183.07575	130.1872	45.56552	-197.72181	0
627	-44.75185	-50.44754	-7.32303	46.37919	-18.71441	-30.10579	182.26208	390.5616	173.31171	115.54114	26.03744	-231.89595	0
628	-64.27993	-35.80148	26.85111	46.37919	-48.00653	-5.69569	187.1441	400.32564	183.07575	120.42316	26.03744	-246.54201	0
629	-54.51589	-30.91946	21.96909	41.49717	-38.24249	-5.69569	187.1441	410.08968	178.19373	120.42316	21.15542	-270.95211	0
630	-44.75185	-21.15542	21.96909	31.73313	-33.36047	-0.81367	177.38006	410.08968	168.42969	120.42316	12.20505	-300.24423	0
631	-39.86983	-16.2734	21.96909	26.85111	-33.36047	4.06835	177.38006	414.9717	173.31171	125.30518	12.20505	-314.89029	0
632	-44.75185	-30.91946	12.20505	36.61515	-28.47845	-10.57771	192.02612	434.49978	183.07575	135.06922	26.03744	-324.65433	0
633	-54.51589	-35.80148	17.08707	41.49717	-38.24249	-10.57771	201.79016	449.14584	197.72181	144.83326	40.6835	-334.41837	0
634	-59.39791	-30.91946	26.85111	46.37919	-43.12451	-0.81367	201.79016	449.14584	197.72181	144.83326	35.80148	-358.82847	0
635	-59.39791	-26.03744	31.73313	41.49717	-48.00653	4.06835	211.5542	458.90988	202.60383	149.71528	45.56552	-383.23857	0
636	-64.27993	-6.50936	56.14323	31.73313	-62.65259	21.96909	211.5542	468.67392	217.24989	154.5973	55.32956	-397.88463	0
637	-64.27993	17.90074	80.55333	21.96909	-72.41663	46.37919	192.02612	458.90988	207.48585	144.83326	45.56552	-427.17675	0
638	-64.27993	32.5468	95.19939	12.20505	-82.18067	61.02525	187.1441	463.7919	202.60383	139.95124	30.91946	-451.58685	0
639	-54.51589	36.61515	90.31737	7.32303	-72.41663	61.02525	187.1441	473.55594	202.60383	139.95124	26.03744	-461.35089	0
640	-54.51589	55.32956	109.84545	-2.44101	-82.18067	80.55333	177.38006	473.55594	197.72181	139.95124	26.03744	-475.99695	0
641	-59.39791	60.21158	119.60949	2.44101	-87.06269	90.31737	182.26208	483.31998	207.48585	149.71528	30.91946	-490.64301	0
642	-49.63387	50.44754	100.08141	2.44101	-72.41663	75.67131	192.02612	497.96604	227.01393	164.36134	45.56552	-495.52503	0
643	-44.75185	55.32956	100.08141	-7.32303	-72.41663	75.67131	196.90814	507.73008	246.54201	174.12538	55.32956	-510.17109	0
644	-44.75185	60.21158	104.96343	-7.32303	-72.41663	80.55333	196.90814	517.49412	251.42403	174.12538	65.0936	-529.69917	0
645	-39.86983	65.0936	104.96343	-12.20505	-72.41663	85.43535	196.90814	527.25816	256.30605	179.0074	69.97562	-549.22725	0
646	-44.75185	65.0936	109.84545	-12.20505	-77.29865	85.43535	196.90814	537.0222	261.18807	183.88942	74.85764	-568.75533	0
647	-44.75185	84.62168	129.37353	-21.96909	-87.06269	104.96343	182.26208	532.14018	246.54201	164.36134	55.32956	-602.92947	0
648	-34.98781	89.5037	124.49151	-26.85111	-77.29865	104.96343	167.61602	527.25816	241.65999	154.5973	40.6835	-627.33957	0
649	-39.86983	89.5037	129.37353	-21.96909	-82.18067	109.84545	167.61602	537.0222	246.54201	154.5973	26.03744	-656.63169	0
650	-25.22377	113.9138	139.13757	-44.75185	-82.18067	124.49151	172.49804	532.14018	246.54201	149.71528	16.2734	-685.92381	0
651	-10.57771	123.67784	134.25555	-54.51589	-72.41663	129.37353	162.734	532.14018	241.65999	149.71528	12.20505	-715.21593	0
652	-10.57771	128.55986	139.13757	-54.51589	-72.41663	134.25555	172.49804	546.78624	256.30605	169.24336	26.03744	-729.86199	0
653	-15.45973	133.44188	148.90161	-59.39791	-82.18067	139.13757	177.38006	561.4323	266.07009	179.0074	35.80148	-739.62603	0
654	-20.34175	148.08794	168.42969	-59.39791	-91.94471	158.66565	177.38006	571.19634	256.30605	174.12538	35.80148	-754.27209	0
655	-15.45973	157.85198	173.31171	-69.16195	-91.94471	163.54767	177.38006	585.8424	251.42403	174.12538	45.56552	-764.03613	0
656	-0.81367	167.61602	168.42969	-78.92599	-82.18067	168.42969	172.49804	585.8424	241.65999	159.47932	35.80148	-783.56421	0
657	18.71441	192.02612	173.31171	-103.33609	-77.29865	183.07575	152.96996	576.07836	222.13191	139.95124	12.20505	-817.73835	0
658	13.83239	206.67218	192.83979	-108.21811	-87.06269	197.72181	148.08794	580.96038	217.24989	135.06922	12.20505	-832.38441	0
659	4.06835	206.67218	202.60383	-103.33609	-96.82673	202.60383	148.08794	580.96038	227.01393	139.95124	16.2734	-842.14845	0
660	8.95037	216.43622	207.48585	-108.21811	-96.82673	212.36787	143.20592	576.07836	227.01393	139.95124	16.2734	-861.67653	0
661	4.06835	221.31824	217.24989	-113.10013	-106.59077	217.24989	138.3239	571.19634	231.89595	144.83326	21.15542	-876.32259	0
662	-0.81367	211.5542	212.36787	-103.33609	-106.59077	212.36787	152.96996	590.72442	251.42403	164.36134	45.56552	-871.44057	0
663	4.06835	206.67218	202.60383	-103.33609	-96.82673	202.60383	143.20592	585.8424	256.30605	164.36134	55.32956	-876.32259	0
664	28.47845	221.31824	192.83979	-122.86417	-82.18067	207.48585	138.3239	580.96038	246.54201	154.5973	50.44754	-895.85067	0
665	38.24249	226.20026	187.95777	-127.74619	-72.41663	207.48585	138.3239	580.96038	236.77797	149.71528	45.56552	-905.61471	0
666	43.12451	235.9643	192.83979	-137.51023	-72.41663	212.36787	123.67784	571.19634	227.01393	135.06922	35.80148	-925.14279	0
667	43.12451	255.49238	212.36787	-147.27427	-82.18067	231.89595	99.26774	551.66826	202.60383	105.7771	12.20505	-954.43491	0
668	38.24249	265.25642	227.01393	-147.27427	-91.94471	246.54201	84.62168	537.0222	183.07575	91.13104	-1.62734	-983.72703	0
669	38.24249	270.13844	231.89595	-152.15629	-96.82673	251.42403	74.85764	522.37614	178.19373	81.367	-16.2734	-1003.25511	0
670	33.36047	279.90248	246.54201	-157.03831	-106.59077	261.18807	65.0936	507.73008	158.66565	66.72094	-21.15542	-1027.66521	0
671	23.59643	284.7845	261.18807	-152.15629	-116.35481	270.95211	65.0936	497.96604	148.90161	61.83892	-26.03744	-1047.19329	0
672	43.12451	279.90248	236.77797	-161.92033	-96.82673	256.30605	69.97562	493.08402	139.13757	61.83892	-16.2734	-1056.95733	0
673	70.78929	279.90248	207.48585	-171.68437	-67.53461	246.54201	55.32956	473.55594	124.49151	56.9569	-21.15542	-1071.60339	0
674	75.67131	289.66652	212.36787	-181.44841	-67.53461	251.42403	40.6835	454.02786	109.84545	42.31084	-35.80148	-1096.01349	0
675	47.19286	289.66652	241.65999	-166.80235	-96.82673	266.07009	50.44754	454.02786	119.60949	47.19286	-21.15542	-1100.89551	0
676	28.47845	289.66652	261.18807	-157.03831	-116.35481	275.83413	45.56552	444.26382	109.84545	32.5468	-30.91946	-1115.54157	0
677	13.83239	309.1946	295.36221	-161.92033	-140.76491	300.24423	21.15542	405.20766	70.78929	0	-55.32956	-1149.71571	0
678	23.59643	318.95864	295.36221	-171.68437	-135.88289	305.12625	-3.25468	375.91554	36.61515	-29.29212	-79.73966	-1169.24379	0
679	23.59643	328.72268	305.12625	-176.56639	-140.76491	314.89029	-7.32303	351.50544	12.20505	-53.70222	-89.5037	-1188.77187	0
680	28.47845	348.25076	319.77231	-186.33043	-145.64693	334.41837	-21.15542	312.44928	-21.96909	-73.2303	-104.14976	-1218.06399	0
681	43.12451	362.89682	319.77231	-200.97649	-135.88289	339.30039	-35.80148	283.15716	-39.86983	-82.99434	-113.9138	-1242.47409	0
682	47.19286	358.0148	310.00827	-200.97649	-131.00087	334.41837	-40.6835	263.62908	-59.39791	-92.75838	-118.79582	-1262.00217	0
683	43.12451	358.0148	314.89029	-200.97649	-135.88289	334.41837	-40.6835	248.98302	-74.04397	-97.6404	-118.79582	-1266.88419	0
684	18.71441	353.13278	334.41837	-181.44841	-155.41097	344.18241	-40.6835	229.45494	-88.69003	-112.28646	-123.67784	-1281.53025	0
685	13.83239	343.36874	329.53635	-176.56639	-155.41097	334.41837	-45.56552	214.80888	-98.45407	-122.0505	-128.55986	-1286.41227	0
686	33.36047	338.48672	305.12625	-186.33043	-135.88289	319.77231	-55.32956	195.2808	-108.21811	-131.81454	-138.3239	-1301.05833	0
687	43.12451	348.25076	305.12625	-196.09447	-131.00087	324.65433	-69.97562	161.10666	-122.86417	-156.22464	-162.734	-1325.46843	0
688	43.12451	343.36874	300.24423	-191.21245	-126.11885	319.77231	-74.85764	146.4606	-127.74619	-165.98868	-172.49804	-1344.99651	0
689	47.19286	333.6047	285.59817	-186.33043	-116.35481	310.00827	-79.73966	131.81454	-132.62821	-165.98868	-177.38006	-1359.64257	0
690	47.19286	323.84066	275.83413	-181.44841	-111.47279	300.24423	-84.62168	122.0505	-137.51023	-165.98868	-172.49804	-1374.28863	0
691	43.12451	309.1946	266.07009	-176.56639	-111.47279	285.59817	-79.73966	122.0505	-132.62821	-156.22464	-157.85198	-1384.05267	0
692	51.26121	279.90248	227.01393	-161.92033	-87.06269	256.30605	-65.0936	126.93252	-122.86417	-131.81454	-128.55986	-1369.40661	0
693	65.90727	260.3744	192.83979	-161.92033	-62.65259	227.01393	-65.0936	117.16848	-117.98215	-122.0505	-118.79582	-1369.40661	0
694	51.26121	235.9643	183.07575	-137.51023	-62.65259	212.36787	-60.21158	107.40444	-113.10013	-122.0505	-118.79582	-1374.28863	0
695	28.47845	211.5542	183.07575	-117.98215	-77.29865	197.72181	-50.44754	107.40444	-103.33609	-112.28646	-109.03178	-1374.28863	0
696	13.83239	192.02612	178.19373	-103.33609	-82.18067	183.07575	-50.44754	107.40444	-93.57205	-112.28646	-104.14976	-1374.28863	0
697	-5.69569	192.02612	197.72181	-93.57205	-101.70875	192.83979	-65.0936	92.75838	-103.33609	-122.0505	-113.9138	-1393.81671	0
698	-5.69569	182.26208	187.95777	-88.69003	-96.82673	183.07575	-65.0936	82.99434	-103.33609	-126.93252	-118.79582	-1398.69873	0
699	-0.81367	172.49804	173.31171	-83.80801	-87.06269	173.31171	-60.21158	87.87636	-93.57205	-112.28646	-109.03178	-1398.69873	0
700	-0.81367	172.49804	173.31171	-83.80801	-87.06269	173.31171	-60.21158	87.87636	-88.69003	-107.40444	-99.26774	-1403.58075	0
701	4.06835	157.85198	153.78363	-78.92599	-72.41663	153.78363	-55.32956	92.75838	-78.92599	-107.40444	-89.5037	-1408.46277	0
702	18.71441	133.44188	114.72747	-74.04397	-48.00653	124.49151	-40.6835	102.52242	-54.51589	-87.87636	-74.85764	-1403.58075	0
703	23.59643	113.9138	90.31737	-69.16195	-33.36047	100.08141	-30.91946	112.28646	-34.98781	-78.11232	-65.0936	-1403.58075	0
704	28.47845	99.26774	70.78929	-59.39791	-18.71441	85.43535	-35.80148	107.40444	-30.10579	-82.99434	-69.97562	-1423.10883	0
705	33.36047	89.5037	56.14323	-59.39791	-8.95037	70.78929	-35.80148	107.40444	-21.96909	-78.11232	-60.21158	-1427.99085	0
706	23.59643	84.62168	61.02525	-54.51589	-18.71441	70.78929	-30.91946	112.28646	-12.20505	-68.34828	-60.21158	-1432.87287	0
707	18.71441	79.73966	61.02525	-44.75185	-18.71441	70.78929	-40.6835	92.75838	-17.08707	-82.99434	-74.85764	-1452.40095	0
708	4.06835	69.97562	65.90727	-36.61515	-28.47845	65.90727	-45.56552	97.6404	-7.32303	-78.11232	-79.73966	-1452.40095	0
709	4.06835	55.32956	51.26121	-31.73313	-23.59643	51.26121	-35.80148	102.52242	2.44101	-73.2303	-74.85764	-1452.40095	0
710	13.83239	55.32956	41.49717	-36.61515	-13.83239	46.37919	-30.91946	102.52242	7.32303	-73.2303	-69.97562	-1457.28297	0
711	8.95037	45.56552	36.61515	-26.85111	-13.83239	41.49717	-21.15542	117.16848	17.08707	-63.46626	-60.21158	-1457.28297	0
712	8.95037	27.66478	17.08707	-17.08707	-4.06835	21.96909	-11.39138	131.81454	36.61515	-39.05616	-35.80148	-1442.63691	0
713	13.83239	13.01872	-2.44101	-17.08707	5.69569	4.06835	-7.32303	131.81454	36.61515	-34.17414	-30.91946	-1447.51893	0
714	28.47845	-1.62734	-30.10579	-12.20505	29.29212	-15.45973	-7.32303	122.0505	31.73313	-43.93818	-40.6835	-1471.92903	0
715	33.36047	-6.50936	-39.86983	-17.08707	33.36047	-25.22377	-3.25468	122.0505	36.61515	-43.93818	-40.6835	-1481.69307	0
716	13.83239	-6.50936	-20.34175	-7.32303	15.45973	-15.45973	-3.25468	122.0505	41.49717	-39.05616	-35.80148	-1491.45711	0
717	4.06835	8.1367	2.44101	-7.32303	0.81367	4.06835	-7.32303	112.28646	36.61515	-43.93818	-45.56552	-1506.10317	0
718	-5.69569	17.90074	21.96909	-7.32303	-13.83239	17.08707	-7.32303	112.28646	36.61515	-43.93818	-45.56552	-1506.10317	0
719	-15.45973	13.01872	26.85111	-2.44101	-23.59643	17.08707	-11.39138	117.16848	46.37919	-43.93818	-45.56552	-1510.98519	0
720	-10.57771	17.90074	26.85111	-2.44101	-18.71441	21.96909	-16.2734	112.28646	41.49717	-48.8202	-45.56552	-1520.74923	0
721	-5.69569	17.90074	21.96909	-7.32303	-13.83239	17.08707	-11.39138	112.28646	41.49717	-58.58424	-50.44754	-1525.63125	0
722	-5.69569	-1.62734	2.44101	2.44101	-4.06835	-0.81367	-3.25468	126.93252	51.26121	-43.93818	-40.6835	-1510.98519	0
723	-0.81367	-11.39138	-11.39138	7.32303	5.69569	-10.57771	6.50936	126.93252	56.14323	-39.05616	-40.6835	-1515.86721	0
724	4.06835	-6.50936	-11.39138	-2.44101	5.69569	-10.57771	1.62734	126.93252	51.26121	-43.93818	-45.56552	-1525.63125	0
725	23.59643	-6.50936	-30.10579	-12.20505	25.22377	-20.34175	6.50936	122.0505	51.26121	-48.8202	-45.56552	-1530.51327	0
726	28.47845	-1.62734	-30.10579	-12.20505	29.29212	-15.45973	1.62734	117.16848	56.14323	-43.93818	-45.56552	-1525.63125	0
727	28.47845	8.1367	-20.34175	-17.08707	25.22377	-5.69569	-7.32303	102.52242	46.37919	-53.70222	-55.32956	-1535.39529	0
728	18.71441	13.01872	-7.32303	-17.08707	10.57771	4.06835	-7.32303	97.6404	61.02525	-53.70222	-65.0936	-1535.39529	0
729	-5.69569	22.78276	26.85111	-12.20505	-18.71441	21.96909	-7.32303	102.52242	65.90727	-53.70222	-65.0936	-1535.39529	0
730	-10.57771	32.5468	41.49717	-12.20505	-28.47845	36.61515	-7.32303	102.52242	65.90727	-63.46626	-74.85764	-1530.51327	0
731	-0.81367	36.61515	36.61515	-17.08707	-18.71441	36.61515	-7.32303	102.52242	65.90727	-73.2303	-74.85764	-1530.51327	0
732	-0.81367	22.78276	21.96909	-12.20505	-13.83239	21.96909	-3.25468	107.40444	70.78929	-63.46626	-60.21158	-1506.10317	0
733	-20.34175	17.90074	36.61515	2.44101	-28.47845	26.85111	6.50936	117.16848	80.55333	-48.8202	-40.6835	-1481.69307	0
734	-39.86983	13.01872	51.26121	12.20505	-48.00653	31.73313	16.2734	122.0505	85.43535	-43.93818	-30.91946	-1471.92903	0
735	-44.75185	8.1367	51.26121	17.08707	-48.00653	26.85111	21.15542	117.16848	90.31737	-39.05616	-26.03744	-1462.16499	0
736	-44.75185	8.1367	51.26121	17.08707	-48.00653	26.85111	21.15542	112.28646	85.43535	-34.17414	-26.03744	-1452.40095	0
737	-30.10579	17.90074	46.37919	7.32303	-38.24249	31.73313	1.62734	97.6404	65.90727	-48.8202	-55.32956	-1471.92903	0
738	-5.69569	22.78276	26.85111	-12.20505	-18.71441	21.96909	-7.32303	87.87636	56.14323	-58.58424	-69.97562	-1476.81105	0
739	8.95037	17.90074	7.32303	-12.20505	0.81367	13.01872	-11.39138	78.11232	51.26121	-63.46626	-79.73966	-1476.81105	0
740	-0.81367	17.90074	17.08707	-7.32303	-8.95037	17.08707	-11.39138	73.2303	46.37919	-68.34828	-84.62168	-1467.04701	0
741	-15.45973	17.90074	31.73313	-2.44101	-23.59643	21.96909	-7.32303	82.99434	46.37919	-68.34828	-79.73966	-1447.51893	0
742	-30.10579	3.25468	31.73313	12.20505	-33.36047	17.08707	11.39138	97.6404	70.78929	-53.70222	-60.21158	-1408.46277	0
743	-44.75185	-6.50936	36.61515	21.96909	-43.12451	13.01872	21.15542	97.6404	70.78929	-43.93818	-55.32956	-1384.05267	0
744	-54.51589	-6.50936	46.37919	26.85111	-52.88855	17.08707	21.15542	92.75838	61.02525	-48.8202	-60.21158	-1369.40661	0
745	-54.51589	-11.39138	41.49717	31.73313	-48.00653	13.01872	30.91946	92.75838	61.02525	-48.8202	-55.32956	-1354.76055	0
746	-44.75185	-16.2734	26.85111	26.85111	-38.24249	4.06835	35.80148	82.99434	56.14323	-48.8202	-55.32956	-1340.11449	0
747	-44.75185	-11.39138	31.73313	26.85111	-38.24249	8.95037	21.15542	68.34828	41.49717	-58.58424	-69.97562	-1335.23247	0
748	-49.63387	-11.39138	36.61515	31.73313	-43.12451	13.01872	21.15542	73.2303	46.37919	-58.58424	-69.97562	-1305.94035	0
749	-34.98781	-16.2734	17.08707	21.96909	-28.47845	-0.81367	21.15542	73.2303	46.37919	-58.58424	-65.0936	-1276.64823	0
750	-15.45973	-11.39138	2.44101	12.20505	-8.95037	-5.69569	16.2734	63.46626	41.49717	-68.34828	-69.97562	-1266.88419	0
751	-10.57771	-11.39138	-2.44101	12.20505	-4.06835	-5.69569	16.2734	68.34828	46.37919	-63.46626	-74.85764	-1257.12015	0
752	-15.45973	-26.03744	-11.39138	17.08707	-4.06835	-20.34175	21.15542	73.2303	56.14323	-48.8202	-69.97562	-1232.71005	0
753	-20.34175	-35.80148	-15.45973	26.85111	-4.06835	-25.22377	30.91946	73.2303	61.02525	-48.8202	-69.97562	-1218.06399	0
754	-30.10579	-35.80148	-7.32303	31.73313	-13.83239	-20.34175	35.80148	73.2303	56.14323	-58.58424	-69.97562	-1198.53591	0
755	-25.22377	-40.6835	-15.45973	31.73313	-4.06835	-30.10579	30.91946	63.46626	56.14323	-58.58424	-69.97562	-1183.88985	0
756	-25.22377	-50.44754	-25.22377	36.61515	0.81367	-39.86983	30.91946	58.58424	56.14323	-53.70222	-69.97562	-1154.59773	0
757	-25.22377	-40.6835	-15.45973	31.73313	-4.06835	-30.10579	30.91946	48.8202	56.14323	-58.58424	-74.85764	-1135.06965	0
758	-30.10579	-55.32956	-25.22377	41.49717	-4.06835	-39.86983	30.91946	43.93818	61.02525	-63.46626	-79.73966	-1110.65955	0
759	-34.98781	-74.85764	-39.86983	51.26121	0.81367	-59.39791	40.6835	53.70222	70.78929	-63.46626	-79.73966	-1081.36743	0
760	-34.98781	-79.73966	-44.75185	56.14323	5.69569	-64.27993	30.91946	43.93818	61.02525	-87.87636	-94.38572	-1066.72137	0
761	-39.86983	-84.62168	-44.75185	61.02525	0.81367	-64.27993	30.91946	48.8202	65.90727	-92.75838	-94.38572	-1047.19329	0
762	-44.75185	-99.26774	-54.51589	70.78929	5.69569	-78.92599	45.56552	58.58424	75.67131	-82.99434	-74.85764	-1017.90117	0
763	-49.63387	-109.03178	-59.39791	80.55333	5.69569	-83.80801	60.21158	63.46626	80.55333	-73.2303	-60.21158	-993.49107	0
764	-54.51589	-123.67784	-69.16195	85.43535	5.69569	-98.45407	55.32956	63.46626	70.78929	-63.46626	-60.21158	-978.84501	0
765	-49.63387	-133.44188	-83.80801	90.31737	15.45973	-108.21811	60.21158	63.46626	75.67131	-53.70222	-55.32956	-969.08097	0
766	-30.10579	-143.20592	-113.10013	85.43535	38.24249	-127.74619	55.32956	48.8202	70.78929	-53.70222	-60.21158	-954.43491	0
767	-20.34175	-133.44188	-113.10013	75.67131	43.12451	-122.86417	35.80148	29.29212	51.26121	-68.34828	-84.62168	-944.67087	0
768	-34.98781	-133.44188	-98.45407	80.55333	29.29212	-117.98215	30.91946	24.4101	56.14323	-68.34828	-89.5037	-915.37875	0
769	-69.16195	-138.3239	-69.16195	104.96343	0.81367	-103.33609	45.56552	39.05616	61.02525	-68.34828	-84.62168	-881.20461	0
770	-64.27993	-133.44188	-69.16195	95.19939	0.81367	-103.33609	55.32956	39.05616	56.14323	-68.34828	-84.62168	-856.79451	0
771	-54.51589	-133.44188	-78.92599	90.31737	10.57771	-108.21811	50.44754	39.05616	51.26121	-78.11232	-84.62168	-842.14845	0
772	-25.22377	-148.08794	-122.86417	85.43535	48.00653	-137.51023	50.44754	39.05616	51.26121	-73.2303	-69.97562	-817.73835	0
773	-10.57771	-157.85198	-147.27427	85.43535	67.53461	-152.15629	50.44754	39.05616	51.26121	-63.46626	-60.21158	-793.32825	0
774	-30.10579	-167.61602	-137.51023	100.08141	52.88855	-152.15629	50.44754	43.93818	61.02525	-53.70222	-55.32956	-773.80017	0
775	-44.75185	-177.38006	-132.62821	109.84545	43.12451	-157.03831	60.21158	48.8202	65.90727	-43.93818	-50.44754	-749.39007	0
776	-34.98781	-182.26208	-147.27427	104.96343	52.88855	-166.80235	55.32956	43.93818	56.14323	-48.8202	-55.32956	-744.50805	0
777	-30.10579	-172.49804	-142.39225	100.08141	52.88855	-157.03831	35.80148	24.4101	31.73313	-73.2303	-79.73966	-744.50805	0
778	-20.34175	-167.61602	-147.27427	95.19939	62.65259	-157.03831	30.91946	19.52808	26.85111	-78.11232	-79.73966	-724.97997	0
779	-25.22377	-162.734	-137.51023	90.31737	52.88855	-152.15629	35.80148	24.4101	31.73313	-63.46626	-65.0936	-690.80583	0
780	-39.86983	-152.96996	-113.10013	95.19939	33.36047	-132.62821	40.6835	24.4101	41.49717	-58.58424	-55.32956	-661.51371	0
781	-34.98781	-148.08794	-113.10013	90.31737	38.24249	-132.62821	35.80148	19.52808	46.37919	-58.58424	-50.44754	-641.98563	0
782	-25.22377	-162.734	-137.51023	90.31737	52.88855	-152.15629	50.44754	29.29212	61.02525	-53.70222	-45.56552	-617.57553	0
783	-34.98781	-162.734	-127.74619	95.19939	43.12451	-147.27427	65.0936	39.05616	65.90727	-53.70222	-40.6835	-598.04745	0
784	-39.86983	-148.08794	-108.21811	95.19939	33.36047	-127.74619	69.97562	43.93818	70.78929	-43.93818	-35.80148	-578.51937	0
785	-44.75185	-143.20592	-98.45407	90.31737	25.22377	-122.86417	79.73966	53.70222	80.55333	-34.17414	-30.91946	-558.99129	0
786	-49.63387	-143.20592	-93.57205	95.19939	20.34175	-117.98215	79.73966	58.58424	80.55333	-24.4101	-30.91946	-534.58119	0
787	-44.75185	-128.55986	-83.80801	85.43535	20.34175	-108.21811	65.0936	48.8202	65.90727	-34.17414	-40.6835	-524.81715	0
788	-25.22377	-118.79582	-93.57205	70.78929	33.36047	-108.21811	60.21158	39.05616	56.14323	-39.05616	-50.44754	-505.28907	0
789	-15.45973	-113.9138	-98.45407	61.02525	38.24249	-108.21811	55.32956	39.05616	56.14323	-43.93818	-50.44754	-480.87897	0
790	-15.45973	-99.26774	-83.80801	56.14323	33.36047	-93.57205	55.32956	34.17414	61.02525	-34.17414	-40.6835	-456.46887	0
791	-15.45973	-89.5037	-74.04397	51.26121	29.29212	-83.80801	65.0936	39.05616	75.67131	-24.4101	-30.91946	-427.17675	0
792	-5.69569	-94.38572	-88.69003	46.37919	38.24249	-93.57205	79.73966	48.8202	95.19939	-9.76404	-11.39138	-388.12059	0
793	-0.81367	-94.38572	-93.57205	46.37919	43.12451	-93.57205	94.38572	58.58424	104.96343	-4.88202	-1.62734	-349.06443	0
794	-20.34175	-99.26774	-78.92599	61.02525	29.29212	-88.69003	99.26774	63.46626	119.60949	4.88202	8.1367	-314.89029	0
795	-20.34175	-99.26774	-78.92599	61.02525	29.29212	-88.69003	109.03178	73.2303	129.37353	17.90074	12.20505	-285.59817	0
796	-5.69569	-104.14976	-98.45407	51.26121	43.12451	-103.33609	99.26774	63.46626	129.37353	17.90074	8.1367	-266.07009	0
797	-5.69569	-89.5037	-83.80801	46.37919	38.24249	-88.69003	79.73966	43.93818	104.96343	4.88202	-6.50936	-256.30605	0
798	-15.45973	-79.73966	-64.27993	46.37919	25.22377	-74.04397	74.85764	43.93818	95.19939	0	-11.39138	-222.13191	0
799	-34.98781	-79.73966	-44.75185	56.14323	5.69569	-64.27993	69.97562	39.05616	90.31737	4.88202	-1.62734	-183.07575	0
800	-39.86983	-69.97562	-30.10579	56.14323	-4.06835	-49.63387	55.32956	29.29212	85.43535	4.88202	-1.62734	-148.90161	0
801	-15.45973	-65.0936	-49.63387	36.61515	15.45973	-59.39791	45.56552	29.29212	85.43535	13.83239	8.1367	-114.72747	0
802	8.95037	-69.97562	-78.92599	31.73313	43.12451	-74.04397	40.6835	39.05616	95.19939	17.90074	21.15542	-70.78929	0
803	18.71441	-65.0936	-83.80801	21.96909	48.00653	-74.04397	30.91946	43.93818	104.96343	27.66478	35.80148	-27.66478	0
804	28.47845	-55.32956	-83.80801	12.20505	52.88855	-69.16195	16.2734	34.17414	90.31737	32.5468	40.6835	5.69569	0
805	38.24249	-55.32956	-93.57205	7.32303	62.65259	-74.04397	1.62734	24.4101	80.55333	37.42882	40.6835	34.98781	0
806	23.59643	-65.0936	-88.69003	17.08707	52.88855	-78.92599	-7.32303	19.52808	75.67131	32.5468	40.6835	74.04397	0
807	18.71441	-60.21158	-78.92599	21.96909	48.00653	-69.16195	-26.03744	-4.88202	56.14323	22.78276	30.91946	103.33609	0
808	23.59643	-60.21158	-83.80801	17.08707	52.88855	-74.04397	-45.56552	-8.95037	41.49717	17.90074	21.15542	137.51023	0
809	43.12451	-60.21158	-103.33609	7.32303	72.41663	-83.80801	-55.32956	-13.01872	31.73313	13.83239	12.20505	166.80235	0
810	70.78929	-55.32956	-127.74619	-7.32303	96.82673	-88.69003	-65.0936	-27.66478	7.32303	-4.88202	-1.62734	191.21245	0
811	90.31737	-55.32956	-147.27427	-17.08707	116.35481	-98.45407	-69.97562	-32.5468	-7.32303	-19.52808	-11.39138	215.62255	0
812	109.84545	-69.97562	-181.44841	-17.08707	145.64693	-122.86417	-65.0936	-17.90074	-2.44101	-4.88202	-1.62734	269.32477	0
813	95.19939	-84.62168	-181.44841	-7.32303	135.88289	-132.62821	-65.0936	-17.90074	2.44101	0	3.25468	313.26295	0
814	80.55333	-84.62168	-166.80235	2.44101	121.23683	-122.86417	-55.32956	-13.01872	7.32303	9.76404	12.20505	352.31911	0
815	80.55333	-84.62168	-166.80235	2.44101	121.23683	-122.86417	-50.44754	-13.01872	2.44101	13.83239	12.20505	381.61123	0
816	80.55333	-89.5037	-171.68437	7.32303	126.11885	-127.74619	-50.44754	-27.66478	-7.32303	9.76404	12.20505	415.78537	0
817	75.67131	-89.5037	-166.80235	7.32303	121.23683	-127.74619	-65.0936	-47.19286	-26.03744	-9.76404	-1.62734	430.43143	0
818	65.90727	-94.38572	-161.92033	12.20505	111.47279	-127.74619	-60.21158	-52.07488	-34.98781	-14.64606	-6.50936	459.72355	0
819	47.19286	-99.26774	-147.27427	26.85111	96.82673	-122.86417	-45.56552	-47.19286	-34.98781	-9.76404	-11.39138	493.89769	0
820	56.14323	-84.62168	-142.39225	12.20505	96.82673	-113.10013	-45.56552	-47.19286	-44.75185	-24.4101	-26.03744	508.54375	0
821	43.12451	-84.62168	-127.74619	17.08707	82.18067	-108.21811	-45.56552	-47.19286	-44.75185	-24.4101	-30.91946	537.83587	0
822	23.59643	-84.62168	-108.21811	26.85111	62.65259	-98.45407	-21.15542	-37.42882	-30.10579	-9.76404	-16.2734	576.89203	0
823	13.83239	-89.5037	-103.33609	36.61515	57.77057	-98.45407	-16.2734	-37.42882	-30.10579	-4.88202	-6.50936	611.06617	0
824	4.06835	-84.62168	-88.69003	36.61515	43.12451	-88.69003	-26.03744	-52.07488	-44.75185	-19.52808	-26.03744	615.94819	0
825	-5.69569	-89.5037	-83.80801	46.37919	38.24249	-88.69003	-26.03744	-61.83892	-59.39791	-34.17414	-40.6835	625.71223	0
826	-5.69569	-89.5037	-83.80801	46.37919	38.24249	-88.69003	-26.03744	-81.367	-78.92599	-53.70222	-55.32956	635.47627	0
827	-20.34175	-79.73966	-59.39791	51.26121	20.34175	-69.16195	-30.91946	-96.01306	-98.45407	-68.34828	-74.85764	645.24031	0
828	-25.22377	-69.97562	-44.75185	46.37919	10.57771	-59.39791	-35.80148	-105.7771	-108.21811	-82.99434	-84.62168	659.88637	0
829	-25.22377	-69.97562	-44.75185	46.37919	10.57771	-59.39791	-35.80148	-115.54114	-117.98215	-92.75838	-99.26774	669.65041	0
830	-20.34175	-60.21158	-39.86983	41.49717	10.57771	-49.63387	-45.56552	-125.30518	-122.86417	-102.52242	-104.14976	684.29647	0
831	-15.45973	-60.21158	-44.75185	36.61515	15.45973	-54.51589	-55.32956	-125.30518	-122.86417	-107.40444	-104.14976	708.70657	0
832	-5.69569	-69.97562	-64.27993	36.61515	29.29212	-69.16195	-45.56552	-115.54114	-98.45407	-87.87636	-89.5037	752.64475	0
833	-5.69569	-74.85764	-69.16195	36.61515	29.29212	-74.04397	-45.56552	-115.54114	-98.45407	-87.87636	-79.73966	786.81889	0
834	-15.45973	-74.85764	-59.39791	41.49717	20.34175	-69.16195	-45.56552	-125.30518	-93.57205	-87.87636	-74.85764	816.11101	0
835	-15.45973	-79.73966	-64.27993	46.37919	25.22377	-74.04397	-40.6835	-130.1872	-93.57205	-87.87636	-74.85764	840.52111	0
836	-5.69569	-79.73966	-74.04397	41.49717	33.36047	-78.92599	-45.56552	-139.95124	-98.45407	-87.87636	-79.73966	855.16717	0
837	-5.69569	-69.97562	-64.27993	36.61515	29.29212	-69.16195	-60.21158	-159.47932	-113.10013	-102.52242	-104.14976	869.81323	0
838	-25.22377	-60.21158	-34.98781	41.49717	5.69569	-49.63387	-60.21158	-169.24336	-117.98215	-112.28646	-113.9138	894.22333	0
839	-34.98781	-55.32956	-20.34175	41.49717	-8.95037	-39.86983	-60.21158	-174.12538	-117.98215	-117.16848	-118.79582	923.51545	0
840	-30.10579	-40.6835	-11.39138	36.61515	-8.95037	-25.22377	-60.21158	-179.0074	-127.74619	-126.93252	-128.55986	933.27949	0
841	-10.57771	-35.80148	-25.22377	21.96909	5.69569	-30.10579	-65.0936	-179.0074	-137.51023	-141.57858	-143.20592	943.04353	0
842	-5.69569	-40.6835	-34.98781	21.96909	15.45973	-39.86983	-60.21158	-174.12538	-132.62821	-131.81454	-138.3239	967.45363	0
843	-5.69569	-30.91946	-25.22377	17.08707	10.57771	-30.10579	-55.32956	-174.12538	-132.62821	-131.81454	-133.44188	1006.50979	0
844	-10.57771	-30.91946	-20.34175	21.96909	5.69569	-25.22377	-50.44754	-179.0074	-137.51023	-126.93252	-128.55986	1040.68393	0
845	-0.81367	-30.91946	-30.10579	17.08707	15.45973	-30.10579	-45.56552	-183.88942	-147.27427	-126.93252	-123.67784	1069.97605	0
846	-15.45973	-30.91946	-15.45973	21.96909	0.81367	-25.22377	-40.6835	-188.77144	-161.92033	-122.0505	-118.79582	1089.50413	0
847	-34.98781	-21.15542	12.20505	26.85111	-23.59643	-5.69569	-50.44754	-193.65346	-171.68437	-131.81454	-128.55986	1104.15019	0
848	-39.86983	-16.2734	21.96909	26.85111	-33.36047	4.06835	-60.21158	-203.4175	-181.44841	-131.81454	-133.44188	1118.79625	0
849	-49.63387	-6.50936	41.49717	26.85111	-48.00653	17.08707	-60.21158	-208.29952	-181.44841	-131.81454	-138.3239	1138.32433	0
850	-59.39791	8.1367	65.90727	26.85111	-62.65259	36.61515	-60.21158	-208.29952	-186.33043	-126.93252	-133.44188	1148.08837	0
851	-54.51589	17.90074	70.78929	17.08707	-62.65259	41.49717	-60.21158	-208.29952	-191.21245	-122.0505	-128.55986	1162.73443	0
852	-44.75185	3.25468	46.37919	17.08707	-48.00653	21.96909	-50.44754	-198.53548	-186.33043	-112.28646	-118.79582	1182.26251	0
853	-44.75185	-6.50936	36.61515	21.96909	-43.12451	13.01872	-40.6835	-203.4175	-186.33043	-122.0505	-113.9138	1196.90857	0
854	-39.86983	-6.50936	31.73313	21.96909	-38.24249	13.01872	-40.6835	-218.06356	-196.09447	-131.81454	-133.44188	1201.79059	0
855	-39.86983	-6.50936	31.73313	21.96909	-38.24249	13.01872	-40.6835	-222.94558	-200.97649	-136.69656	-143.20592	1206.67261	0
856	-39.86983	-1.62734	36.61515	21.96909	-38.24249	17.08707	-50.44754	-237.59164	-205.85851	-151.34262	-157.85198	1211.55463	0
857	-44.75185	13.01872	56.14323	12.20505	-52.88855	31.73313	-65.0936	-266.88376	-240.03265	-185.51676	-187.1441	1216.43665	0
858	-54.51589	17.90074	70.78929	17.08707	-62.65259	41.49717	-74.85764	-281.52982	-269.32477	-214.80888	-206.67218	1226.20069	0
859	-49.63387	17.90074	65.90727	17.08707	-57.77057	41.49717	-69.97562	-291.29386	-288.85285	-234.33696	-221.31824	1240.84675	0
860	-49.63387	3.25468	51.26121	21.96909	-52.88855	26.85111	-74.85764	-305.93992	-308.38093	-263.62908	-245.72834	1245.72877	0
861	-54.51589	-16.2734	36.61515	31.73313	-48.00653	8.95037	-74.85764	-325.468	-323.02699	-292.9212	-275.02046	1245.72877	0
862	-49.63387	-60.21158	-11.39138	56.14323	-18.71441	-34.98781	-60.21158	-344.99608	-337.67305	-322.21332	-294.54854	1255.49281	0
863	-39.86983	-89.5037	-49.63387	65.90727	5.69569	-69.16195	-60.21158	-359.64214	-362.08315	-366.1515	-333.6047	1250.61079	0
864	-39.86983	-118.79582	-78.92599	80.55333	20.34175	-98.45407	-55.32956	-364.52416	-381.61123	-405.20766	-372.66086	1240.84675	0
865	-39.86983	-138.3239	-98.45407	90.31737	29.29212	-117.98215	-35.80148	-340.11406	-381.61123	-434.49978	-401.95298	1235.96473	0
866	-54.51589	-162.734	-108.21811	104.96343	25.22377	-137.51023	1.62734	-276.6478	-352.31911	-429.61776	-411.71702	1255.49281	0
867	-69.16195	-162.734	-93.57205	114.72747	10.57771	-127.74619	40.6835	-198.53548	-298.61689	-410.08968	-411.71702	1279.90291	0
868	-39.86983	-162.734	-122.86417	100.08141	38.24249	-142.39225	55.32956	-130.1872	-259.56073	-395.44362	-406.835	1314.07705	0
869	4.06835	-157.85198	-161.92033	75.67131	82.18067	-161.92033	50.44754	-110.65912	-244.91467	-390.5616	-406.835	1343.36917	0
870	47.19286	-128.55986	-176.56639	41.49717	111.47279	-152.15629	6.50936	-169.24336	-269.32477	-400.32564	-406.835	1372.66129	0
871	95.19939	-99.26774	-196.09447	2.44101	145.64693	-147.27427	-69.97562	-276.6478	-303.49891	-405.20766	-392.18894	1411.71745	0
872	153.78363	-74.85764	-230.26861	-40.6835	189.58511	-152.15629	-157.85198	-388.93426	-337.67305	-395.44362	-348.25076	1475.18371	0
873	202.60383	-35.80148	-240.03265	-83.80801	218.87723	-137.51023	-255.49238	-545.1589	-410.90335	-405.20766	-318.95864	1533.76795	0
874	251.42403	32.5468	-220.50457	-142.39225	233.52329	-93.57205	-382.4249	-764.8498	-523.18981	-444.26382	-304.31258	1577.70613	0
875	300.24423	118.79582	-181.44841	-205.85851	243.28733	-30.10579	-524.00348	-1023.59686	-664.76839	-497.96604	-299.43056	1631.40835	0
876	363.71049	231.08228	-132.62821	-293.73487	248.16935	51.26121	-704.63822	-1311.63604	-806.34697	-551.66826	-279.90248	1699.75663	0
877	427.17675	309.1946	-117.98215	-366.96517	272.57945	95.19939	-919.4471	-1570.3831	-903.98737	-576.07836	-231.08228	1782.75097	0
878	475.99695	353.13278	-122.86417	-410.90335	301.87157	114.72747	-1124.49194	-1775.42794	-947.92555	-546.78624	-152.96996	1890.15541	0
879	510.17109	392.18894	-117.98215	-445.07749	316.51763	139.13757	-1275.83456	-1907.24248	-933.27949	-463.7919	-40.6835	2006.51022	0
880	534.58119	480.0653	-54.51589	-503.66173	296.98955	212.36787	-1344.18284	-1912.1245	-820.99303	-297.80322	123.67784	2157.85284	0
881	534.58119	602.1158	65.90727	-567.12799	233.52329	334.41837	-1319.77274	-1809.60208	-611.06617	-53.70222	353.13278	2338.48758	0
882	510.17109	689.99216	178.19373	-596.42011	165.17501	436.94079	-1236.7784	-1643.6134	-366.96517	208.29952	602.1158	2524.00434	0
883	471.11493	743.69438	270.95211	-601.30213	101.70875	510.17109	-1134.25598	-1462.97866	-132.62821	462.16456	836.45276	2689.99302	0
884	441.82281	768.10448	324.65433	-601.30213	57.77057	549.22725	-1026.85154	-1287.22594	65.90727	681.85546	1026.85154	2812.04352	0
885	407.64867	748.5764	339.30039	-576.89203	33.36047	544.34523	-914.56508	-1116.35524	251.42403	872.25424	1173.31214	2895.03786	0
886	378.35655	729.04832	349.06443	-552.48193	15.45973	539.46321	-807.16064	-945.48454	422.29473	1023.59686	1275.83456	2948.74008	0
887	349.06443	719.28428	368.59251	-532.95385	-8.95037	544.34523	-719.28428	-813.67	519.93513	1101.70918	1305.12668	2953.6221	0
888	300.24423	680.22812	378.35655	-489.01567	-38.24249	529.69917	-611.87984	-691.6195	563.87331	1121.23726	1275.83456	2924.32998	0
889	256.30605	621.64388	363.71049	-435.31345	-52.88855	495.52503	-494.71136	-569.569	578.51937	1096.82716	1192.84022	2860.86372	0
890	212.36787	553.2956	339.30039	-381.61123	-62.65259	446.70483	-397.07096	-476.81062	549.22725	1013.83282	1065.9077	2743.69524	0
891	173.31171	480.0653	305.12625	-323.02699	-62.65259	393.00261	-314.07662	-398.6983	500.40705	906.42838	924.32912	2606.99868	0
892	129.37353	387.30692	256.30605	-254.67871	-62.65259	324.65433	-216.43622	-320.58598	461.35089	808.78798	777.86852	2475.18414	0
893	85.43535	299.43056	212.36787	-191.21245	-62.65259	256.30605	-138.3239	-257.11972	417.41271	696.50152	626.5259	2333.60556	0
894	56.14323	231.08228	173.31171	-142.39225	-57.77057	202.60383	-94.38572	-222.94558	353.94645	579.33304	475.18328	2187.14496	0
895	38.24249	172.49804	134.25555	-103.33609	-48.00653	153.78363	-60.21158	-203.4175	290.48019	462.16456	348.25076	2069.97648	0
896	18.71441	133.44188	114.72747	-74.04397	-48.00653	124.49151	-35.80148	-193.65346	227.01393	354.76012	231.08228	1972.33608	0
897	4.06835	113.9138	109.84545	-59.39791	-52.88855	109.84545	-16.2734	-193.65346	163.54767	252.2377	123.67784	1895.03743	0
898	-5.69569	94.38572	100.08141	-44.75185	-52.88855	95.19939	-3.25468	-188.77144	109.84545	169.24336	35.80148	1831.57117	0
899	-20.34175	79.73966	100.08141	-26.85111	-57.77057	90.31737	21.15542	-179.0074	65.90727	110.65912	-11.39138	1777.86895	0
900	-34.98781	60.21158	95.19939	-12.20505	-62.65259	75.67131	40.6835	-188.77144	21.96909	61.83892	-60.21158	1729.04875	0
901	-34.98781	55.32956	90.31737	-12.20505	-62.65259	70.78929	50.44754	-193.65346	-12.20505	22.78276	-94.38572	1689.99259	0
902	-49.63387	36.61515	85.43535	7.32303	-67.53461	61.02525	69.97562	-183.88942	-26.03744	13.83239	-89.5037	1675.34653	0
903	-59.39791	17.90074	75.67131	21.96909	-67.53461	46.37919	79.73966	-183.88942	-26.03744	9.76404	-94.38572	1660.70047	0
904	-69.16195	3.25468	70.78929	31.73313	-72.41663	36.61515	74.85764	-188.77144	-44.75185	-14.64606	-94.38572	1641.17239	0
905	-59.39791	-1.62734	56.14323	31.73313	-57.77057	26.85111	79.73966	-193.65346	-54.51589	-29.29212	-94.38572	1626.52633	0
906	-59.39791	-1.62734	56.14323	31.73313	-57.77057	26.85111	74.85764	-193.65346	-59.39791	-39.05616	-99.26774	1616.76229	0
907	-69.16195	3.25468	70.78929	31.73313	-72.41663	36.61515	65.0936	-208.29952	-64.27993	-53.70222	-113.9138	1606.99825	0
908	-69.16195	3.25468	70.78929	31.73313	-72.41663	36.61515	69.97562	-213.18154	-64.27993	-63.46626	-128.55986	1592.35219	0
909	-49.63387	-6.50936	41.49717	26.85111	-48.00653	17.08707	69.97562	-213.18154	-69.16195	-73.2303	-148.08794	1572.82411	0
910	-49.63387	-6.50936	41.49717	26.85111	-48.00653	17.08707	69.97562	-213.18154	-64.27993	-73.2303	-152.96996	1563.06007	0
911	-44.75185	-16.2734	26.85111	26.85111	-38.24249	4.06835	74.85764	-208.29952	-49.63387	-63.46626	-148.08794	1558.17805	0
912	-34.98781	-40.6835	-7.32303	36.61515	-13.83239	-25.22377	89.5037	-193.65346	-30.10579	-34.17414	-118.79582	1563.06007	0
913	-25.22377	-55.32956	-30.10579	36.61515	0.81367	-44.75185	104.14976	-183.88942	-21.96909	-19.52808	-104.14976	1572.82411	0
914	-69.16195	-69.97562	-2.44101	70.78929	-33.36047	-34.98781	118.79582	-169.24336	-2.44101	0	-84.62168	1592.35219	0
915	-83.80801	-74.85764	7.32303	75.67131	-48.00653	-34.98781	128.55986	-164.36134	7.32303	9.76404	-74.85764	1611.88027	0
916	-78.92599	-89.5037	-11.39138	85.43535	-33.36047	-49.63387	128.55986	-169.24336	-7.32303	0	-79.73966	1616.76229	0
917	-64.27993	-89.5037	-25.22377	75.67131	-18.71441	-59.39791	113.9138	-183.88942	-26.03744	-19.52808	-104.14976	1611.88027	0
918	-59.39791	-89.5037	-30.10579	75.67131	-13.83239	-59.39791	118.79582	-183.88942	-26.03744	-14.64606	-104.14976	1631.40835	0
919	-44.75185	-89.5037	-44.75185	65.90727	0.81367	-69.16195	118.79582	-183.88942	-26.03744	-9.76404	-104.14976	1655.81845	0
920	-25.22377	-84.62168	-59.39791	51.26121	15.45973	-74.04397	123.67784	-188.77144	-34.98781	-9.76404	-109.03178	1670.46451	0
921	-30.10579	-79.73966	-49.63387	56.14323	10.57771	-64.27993	133.44188	-188.77144	-39.86983	0	-104.14976	1694.87461	0
922	-34.98781	-89.5037	-54.51589	61.02525	10.57771	-74.04397	143.20592	-183.88942	-30.10579	13.83239	-89.5037	1733.93077	0
923	-59.39791	-99.26774	-39.86983	80.55333	-8.95037	-69.16195	152.96996	-174.12538	-26.03744	22.78276	-79.73966	1763.22289	0
924	-69.16195	-104.14976	-34.98781	85.43535	-18.71441	-69.16195	152.96996	-169.24336	-30.10579	22.78276	-74.85764	1787.63299	0
925	-59.39791	-104.14976	-44.75185	80.55333	-8.95037	-74.04397	162.734	-159.47932	-26.03744	32.5468	-65.0936	1812.04309	0
926	-59.39791	-104.14976	-44.75185	80.55333	-8.95037	-74.04397	157.85198	-149.71528	-26.03744	42.31084	-65.0936	1851.09925	0
927	-49.63387	-94.38572	-44.75185	70.78929	-4.06835	-69.16195	143.20592	-159.47932	-44.75185	27.66478	-84.62168	1865.74531	0
928	-30.10579	-89.5037	-59.39791	61.02525	15.45973	-74.04397	138.3239	-154.5973	-54.51589	22.78276	-99.26774	1895.03743	0
929	-20.34175	-84.62168	-64.27993	51.26121	20.34175	-74.04397	138.3239	-149.71528	-64.27993	22.78276	-104.14976	1934.09359	0
930	-34.98781	-79.73966	-44.75185	56.14323	5.69569	-64.27993	138.3239	-135.06922	-78.92599	13.83239	-113.9138	1962.57204	0
931	-59.39791	-79.73966	-20.34175	70.78929	-18.71441	-49.63387	148.08794	-115.54114	-83.80801	17.90074	-109.03178	2006.51022	0
932	-64.27993	-99.26774	-34.98781	80.55333	-13.83239	-69.16195	162.734	-91.13104	-74.04397	32.5468	-89.5037	2055.33042	0
933	-64.27993	-113.9138	-49.63387	85.43535	-8.95037	-83.80801	172.49804	-71.60296	-69.16195	47.19286	-69.97562	2104.15062	0
934	-64.27993	-118.79582	-54.51589	90.31737	-4.06835	-88.69003	167.61602	-61.83892	-69.16195	56.9569	-60.21158	2138.32476	0
935	-64.27993	-123.67784	-59.39791	90.31737	-4.06835	-93.57205	172.49804	-47.19286	-64.27993	71.60296	-45.56552	2182.26294	0
936	-59.39791	-123.67784	-64.27993	90.31737	0.81367	-93.57205	172.49804	-37.42882	-64.27993	76.48498	-45.56552	2201.79102	0
937	-54.51589	-104.14976	-49.63387	75.67131	-4.06835	-78.92599	167.61602	-37.42882	-69.16195	71.60296	-50.44754	2216.43708	0
938	-39.86983	-94.38572	-54.51589	65.90727	5.69569	-74.04397	157.85198	-37.42882	-83.80801	66.72094	-60.21158	2216.43708	0
939	-44.75185	-94.38572	-49.63387	65.90727	0.81367	-74.04397	157.85198	-32.5468	-83.80801	66.72094	-60.21158	2226.20112	0
940	-59.39791	-84.62168	-25.22377	70.78929	-18.71441	-54.51589	157.85198	-27.66478	-83.80801	71.60296	-55.32956	2226.20112	0
941	-78.92599	-84.62168	-7.32303	80.55333	-38.24249	-44.75185	162.734	-22.78276	-88.69003	66.72094	-60.21158	2216.43708	0
942	-83.80801	-99.26774	-15.45973	90.31737	-33.36047	-59.39791	177.38006	-17.90074	-74.04397	81.367	-50.44754	2216.43708	0
943	-88.69003	-104.14976	-15.45973	95.19939	-38.24249	-59.39791	182.26208	-8.95037	-69.16195	86.24902	-40.6835	2206.67304	0
944	-83.80801	-104.14976	-20.34175	90.31737	-33.36047	-64.27993	182.26208	-13.01872	-64.27993	81.367	-50.44754	2172.4989	0
945	-69.16195	-104.14976	-34.98781	85.43535	-18.71441	-69.16195	182.26208	-17.90074	-64.27993	81.367	-50.44754	2143.20678	0
946	-54.51589	-104.14976	-49.63387	75.67131	-4.06835	-78.92599	177.38006	-17.90074	-69.16195	76.48498	-50.44754	2104.15062	0
947	-49.63387	-89.5037	-39.86983	70.78929	-4.06835	-64.27993	162.734	-27.66478	-78.92599	71.60296	-55.32956	2065.09446	0
948	-59.39791	-84.62168	-25.22377	70.78929	-18.71441	-54.51589	167.61602	-17.90074	-74.04397	76.48498	-50.44754	2035.80234	0
949	-64.27993	-89.5037	-25.22377	75.67131	-18.71441	-59.39791	177.38006	-13.01872	-69.16195	81.367	-50.44754	2001.6282	0
950	-59.39791	-74.85764	-15.45973	65.90727	-23.59643	-44.75185	177.38006	-8.95037	-69.16195	81.367	-55.32956	1962.57204	0
951	-59.39791	-69.97562	-11.39138	65.90727	-23.59643	-39.86983	182.26208	-4.88202	-64.27993	86.24902	-55.32956	1929.21157	0
952	-59.39791	-84.62168	-25.22377	70.78929	-18.71441	-54.51589	196.90814	14.64606	-44.75185	110.65912	-35.80148	1919.44753	0
953	-54.51589	-94.38572	-39.86983	70.78929	-8.95037	-69.16195	201.79016	19.52808	-39.86983	115.54114	-30.91946	1885.27339	0
954	-54.51589	-99.26774	-44.75185	75.67131	-4.06835	-74.04397	192.02612	19.52808	-39.86983	115.54114	-26.03744	1851.09925	0
955	-59.39791	-104.14976	-44.75185	80.55333	-8.95037	-74.04397	196.90814	24.4101	-34.98781	125.30518	-11.39138	1812.04309	0
956	-64.27993	-113.9138	-49.63387	85.43535	-8.95037	-83.80801	201.79016	29.29212	-30.10579	130.1872	-1.62734	1768.10491	0
957	-64.27993	-104.14976	-39.86983	80.55333	-13.83239	-74.04397	196.90814	24.4101	-49.63387	110.65912	-16.2734	1704.63865	0
958	-49.63387	-99.26774	-49.63387	75.67131	0.81367	-74.04397	192.02612	24.4101	-54.51589	105.7771	-26.03744	1646.05441	0
959	-54.51589	-99.26774	-44.75185	75.67131	-4.06835	-74.04397	192.02612	34.17414	-49.63387	110.65912	-26.03744	1597.23421	0
960	-69.16195	-84.62168	-15.45973	75.67131	-28.47845	-49.63387	201.79016	43.93818	-39.86983	125.30518	-26.03744	1543.53199	0
961	-74.04397	-79.73966	-7.32303	75.67131	-33.36047	-44.75185	201.79016	53.70222	-34.98781	135.06922	-26.03744	1494.71179	0
962	-54.51589	-84.62168	-30.10579	65.90727	-13.83239	-59.39791	216.43622	68.34828	-26.03744	149.71528	-11.39138	1455.65563	0
963	-25.22377	-94.38572	-69.16195	56.14323	20.34175	-83.80801	206.67218	73.2303	-21.96909	149.71528	-16.2734	1406.83543	0
964	-20.34175	-104.14976	-83.80801	61.02525	29.29212	-93.57205	201.79016	73.2303	-26.03744	144.83326	-11.39138	1358.01523	0
965	-20.34175	-104.14976	-83.80801	61.02525	29.29212	-93.57205	211.5542	82.99434	-26.03744	159.47932	8.1367	1318.95907	0
966	-25.22377	-109.03178	-83.80801	65.90727	29.29212	-98.45407	216.43622	92.75838	-17.08707	164.36134	16.2734	1279.90291	0
967	-34.98781	-99.26774	-64.27993	65.90727	15.45973	-83.80801	211.5542	97.6404	-17.08707	169.24336	21.15542	1226.20069	0
968	-30.10579	-99.26774	-69.16195	65.90727	20.34175	-83.80801	211.5542	102.52242	-7.32303	164.36134	16.2734	1167.61645	0
969	-20.34175	-94.38572	-74.04397	56.14323	25.22377	-83.80801	216.43622	102.52242	-7.32303	159.47932	8.1367	1099.26817	0
970	-10.57771	-74.85764	-64.27993	41.49717	25.22377	-69.16195	211.5542	107.40444	-2.44101	154.5973	-6.50936	1040.68393	0
971	-10.57771	-69.97562	-59.39791	41.49717	25.22377	-64.27993	206.67218	117.16848	2.44101	154.5973	-11.39138	986.98171	0
972	4.06835	-84.62168	-88.69003	36.61515	43.12451	-88.69003	221.31824	141.57858	21.96909	179.0074	8.1367	957.68959	0
973	18.71441	-89.5037	-108.21811	36.61515	62.65259	-98.45407	221.31824	151.34262	36.61515	188.77144	12.20505	923.51545	0
974	38.24249	-94.38572	-132.62821	26.85111	82.18067	-113.10013	216.43622	141.57858	31.73313	179.0074	12.20505	869.81323	0
