samplenr	I	II	III	aVR	aVL	aVF	V1	V2	V3	V4	V5	V6	measurement
0	-65.90727	-142.39225	-77.29865	102.52242	4.88202	-110.65912	63.46626	-129.37353	-204.23117	-227.01393	-207.48585	-138.3239	0
1	-65.90727	-144.83326	-79.73966	104.96343	4.88202	-113.10013	63.46626	-131.81454	-201.79016	-224.57292	-205.04484	-138.3239	0
2	-63.46626	-144.83326	-82.18067	102.52242	7.32303	-113.10013	68.34828	-134.25555	-201.79016	-222.13191	-202.60383	-138.3239	0
3	-65.90727	-144.83326	-79.73966	104.96343	4.88202	-113.10013	73.2303	-131.81454	-199.34915	-222.13191	-200.16282	-135.88289	0
4	-65.90727	-144.83326	-79.73966	104.96343	4.88202	-113.10013	75.67131	-126.93252	-199.34915	-222.13191	-200.16282	-138.3239	0
5	-63.46626	-142.39225	-79.73966	102.52242	7.32303	-110.65912	75.67131	-119.60949	-201.79016	-222.13191	-200.16282	-138.3239	0
6	-63.46626	-139.95124	-77.29865	100.08141	4.88202	-108.21811	75.67131	-117.16848	-204.23117	-219.6909	-200.16282	-138.3239	0
7	-61.02525	-135.06922	-74.85764	97.6404	4.88202	-105.7771	75.67131	-112.28646	-206.67218	-219.6909	-197.72181	-135.88289	0
8	-56.14323	-127.74619	-72.41663	90.31737	7.32303	-100.89508	75.67131	-112.28646	-206.67218	-222.13191	-197.72181	-133.44188	0
9	-58.58424	-122.86417	-65.0936	90.31737	2.44101	-93.57205	73.2303	-114.72747	-209.11319	-224.57292	-200.16282	-131.00087	0
10	-58.58424	-120.42316	-62.65259	87.87636	0	-91.13104	70.78929	-119.60949	-209.11319	-224.57292	-200.16282	-131.00087	0
11	-56.14323	-120.42316	-65.0936	87.87636	2.44101	-93.57205	68.34828	-126.93252	-206.67218	-224.57292	-200.16282	-128.55986	0
12	-56.14323	-117.98215	-62.65259	85.43535	2.44101	-91.13104	68.34828	-131.81454	-201.79016	-222.13191	-197.72181	-126.11885	0
13	-53.70222	-108.21811	-55.32956	80.55333	0	-81.367	75.67131	-124.49151	-196.90814	-217.24989	-195.2808	-123.67784	0
14	-48.8202	-103.33609	-55.32956	75.67131	2.44101	-78.92599	80.55333	-117.16848	-194.46713	-214.80888	-190.39878	-121.23683	0
15	-51.26121	-100.89508	-50.44754	75.67131	-2.44101	-76.48498	82.99434	-109.84545	-194.46713	-212.36787	-190.39878	-118.79582	0
16	-48.8202	-93.57205	-45.56552	70.78929	-2.44101	-69.16195	85.43535	-104.96343	-192.02612	-207.48585	-187.95777	-116.35481	0
17	-43.93818	-81.367	-38.24249	61.02525	-4.88202	-59.39791	90.31737	-95.19939	-189.58511	-205.04484	-183.07575	-111.47279	0
18	-36.61515	-69.16195	-33.36047	51.26121	-2.44101	-52.07488	97.6404	-87.87636	-184.70309	-200.16282	-175.75272	-106.59077	0
19	-34.17414	-66.72094	-33.36047	48.8202	-2.44101	-49.63387	100.08141	-87.87636	-182.26208	-197.72181	-175.75272	-104.14976	0
20	-41.49717	-66.72094	-26.03744	53.70222	-9.76404	-47.19286	100.08141	-92.75838	-179.82107	-197.72181	-173.31171	-104.14976	0
21	-43.93818	-66.72094	-23.59643	53.70222	-12.20505	-44.75185	97.6404	-97.6404	-174.93905	-192.83979	-168.42969	-101.70875	0
22	-41.49717	-64.27993	-23.59643	51.26121	-9.76404	-44.75185	97.6404	-102.52242	-172.49804	-187.95777	-163.54767	-99.26774	0
23	-41.49717	-61.83892	-21.15542	51.26121	-12.20505	-42.31084	97.6404	-100.08141	-167.61602	-185.51676	-158.66565	-96.82673	0
24	-48.8202	-64.27993	-15.45973	56.14323	-17.08707	-39.86983	95.19939	-97.6404	-170.05703	-185.51676	-158.66565	-96.82673	0
25	-51.26121	-66.72094	-15.45973	58.58424	-19.52808	-42.31084	90.31737	-95.19939	-174.93905	-187.95777	-163.54767	-96.82673	0
26	-53.70222	-61.83892	-8.1367	56.14323	-24.4101	-34.98781	87.87636	-97.6404	-182.26208	-192.83979	-168.42969	-99.26774	0
27	-51.26121	-54.51589	-3.25468	51.26121	-24.4101	-30.10579	85.43535	-97.6404	-187.1441	-197.72181	-170.8707	-99.26774	0
28	-46.37919	-47.19286	-0.81367	46.37919	-24.4101	-25.22377	82.99434	-97.6404	-189.58511	-200.16282	-173.31171	-101.70875	0
29	-43.93818	-44.75185	-0.81367	43.93818	-21.96909	-22.78276	80.55333	-100.08141	-189.58511	-202.60383	-175.75272	-101.70875	0
30	-39.05616	-42.31084	-3.25468	39.05616	-19.52808	-22.78276	75.67131	-104.96343	-187.1441	-202.60383	-173.31171	-101.70875	0
31	-36.61515	-47.19286	-10.57771	41.49717	-14.64606	-30.10579	68.34828	-112.28646	-179.82107	-197.72181	-170.8707	-101.70875	0
32	-34.17414	-54.51589	-21.15542	43.93818	-7.32303	-37.42882	58.58424	-114.72747	-174.93905	-192.83979	-165.98868	-99.26774	0
33	-26.85111	-54.51589	-28.47845	39.05616	0	-42.31084	51.26121	-114.72747	-170.05703	-185.51676	-158.66565	-94.38572	0
34	-14.64606	-49.63387	-35.80148	31.73313	9.76404	-42.31084	43.93818	-109.84545	-167.61602	-180.63474	-148.90161	-87.06269	0
35	-9.76404	-49.63387	-40.6835	29.29212	15.45973	-44.75185	34.17414	-107.40444	-170.05703	-178.19373	-148.90161	-82.18067	0
36	-9.76404	-49.63387	-40.6835	29.29212	15.45973	-44.75185	21.96909	-112.28646	-174.93905	-180.63474	-151.34262	-82.18067	0
37	-4.88202	-47.19286	-43.12451	24.4101	17.90074	-44.75185	17.08707	-114.72747	-179.82107	-183.07575	-151.34262	-82.18067	0
38	0	-42.31084	-43.12451	19.52808	20.34175	-42.31084	17.08707	-114.72747	-182.26208	-185.51676	-151.34262	-79.73966	0
39	3.25468	-37.42882	-40.6835	17.08707	20.34175	-37.42882	21.96909	-114.72747	-179.82107	-185.51676	-151.34262	-77.29865	0
40	-2.44101	-47.19286	-45.56552	24.4101	20.34175	-47.19286	21.96909	-117.16848	-179.82107	-185.51676	-151.34262	-79.73966	0
41	-2.44101	-56.9569	-55.32956	29.29212	25.22377	-56.9569	24.4101	-122.0505	-174.93905	-185.51676	-153.78363	-84.62168	0
42	-2.44101	-66.72094	-65.0936	34.17414	30.10579	-66.72094	26.85111	-122.0505	-172.49804	-185.51676	-153.78363	-89.5037	0
43	-2.44101	-71.60296	-69.97562	36.61515	32.5468	-71.60296	29.29212	-117.16848	-170.05703	-185.51676	-153.78363	-89.5037	0
44	-4.88202	-76.48498	-72.41663	39.05616	32.5468	-74.04397	31.73313	-112.28646	-170.05703	-183.07575	-148.90161	-89.5037	0
45	-7.32303	-78.92599	-72.41663	41.49717	32.5468	-76.48498	29.29212	-107.40444	-172.49804	-180.63474	-148.90161	-87.06269	0
46	-4.88202	-76.48498	-72.41663	39.05616	32.5468	-74.04397	29.29212	-107.40444	-177.38006	-183.07575	-151.34262	-84.62168	0
47	-4.88202	-71.60296	-67.53461	36.61515	30.10579	-69.16195	29.29212	-107.40444	-184.70309	-187.95777	-153.78363	-84.62168	0
48	-7.32303	-71.60296	-65.0936	39.05616	27.66478	-69.16195	26.85111	-112.28646	-189.58511	-192.83979	-156.22464	-84.62168	0
49	-9.76404	-69.16195	-60.21158	39.05616	25.22377	-64.27993	26.85111	-117.16848	-189.58511	-195.2808	-158.66565	-84.62168	0
50	-12.20505	-69.16195	-57.77057	39.05616	22.78276	-64.27993	29.29212	-122.0505	-187.1441	-195.2808	-158.66565	-87.06269	0
51	-9.76404	-74.04397	-65.0936	41.49717	27.66478	-69.16195	29.29212	-129.37353	-179.82107	-195.2808	-161.10666	-91.94471	0
52	-9.76404	-78.92599	-69.97562	43.93818	30.10579	-74.04397	31.73313	-129.37353	-174.93905	-192.83979	-158.66565	-96.82673	0
53	-17.08707	-86.24902	-69.97562	51.26121	25.22377	-78.92599	31.73313	-124.49151	-170.05703	-190.39878	-156.22464	-96.82673	0
54	-19.52808	-83.80801	-65.0936	51.26121	22.78276	-74.04397	36.61515	-114.72747	-167.61602	-187.95777	-153.78363	-96.82673	0
55	-19.52808	-81.367	-62.65259	48.8202	20.34175	-71.60296	36.61515	-107.40444	-167.61602	-185.51676	-156.22464	-94.38572	0
56	-29.29212	-88.69003	-60.21158	58.58424	15.45973	-74.04397	36.61515	-109.84545	-172.49804	-190.39878	-158.66565	-96.82673	0
57	-34.17414	-88.69003	-55.32956	61.02525	9.76404	-71.60296	36.61515	-109.84545	-177.38006	-195.2808	-161.10666	-96.82673	0
58	-46.37919	-93.57205	-48.00653	68.34828	0	-71.60296	36.61515	-117.16848	-187.1441	-205.04484	-168.42969	-101.70875	0
59	-58.58424	-100.89508	-43.12451	78.11232	-9.76404	-71.60296	36.61515	-126.93252	-192.02612	-214.80888	-175.75272	-109.03178	0
60	-65.90727	-105.7771	-40.6835	85.43535	-14.64606	-74.04397	36.61515	-139.13757	-196.90814	-222.13191	-183.07575	-113.9138	0
61	-70.78929	-113.10013	-43.12451	90.31737	-14.64606	-78.92599	34.17414	-151.34262	-194.46713	-227.01393	-187.95777	-123.67784	0
62	-75.67131	-122.86417	-48.00653	97.6404	-14.64606	-86.24902	31.73313	-156.22464	-192.02612	-229.45494	-190.39878	-131.00087	0
63	-75.67131	-127.74619	-52.88855	100.08141	-12.20505	-91.13104	26.85111	-158.66565	-192.02612	-231.89595	-192.83979	-135.88289	0
64	-78.11232	-130.1872	-52.88855	102.52242	-14.64606	-91.13104	26.85111	-158.66565	-194.46713	-234.33696	-195.2808	-138.3239	0
65	-73.2303	-130.1872	-57.77057	100.08141	-9.76404	-93.57205	21.96909	-158.66565	-196.90814	-234.33696	-200.16282	-138.3239	0
66	-73.2303	-132.62821	-60.21158	102.52242	-7.32303	-96.01306	19.52808	-161.10666	-201.79016	-239.21898	-202.60383	-140.76491	0
67	-78.11232	-137.51023	-60.21158	107.40444	-9.76404	-98.45407	17.08707	-158.66565	-206.67218	-244.101	-207.48585	-140.76491	0
68	-78.11232	-137.51023	-60.21158	107.40444	-9.76404	-98.45407	17.08707	-153.78363	-209.11319	-246.54201	-209.92686	-140.76491	0
69	-78.11232	-137.51023	-60.21158	107.40444	-9.76404	-98.45407	19.52808	-151.34262	-209.11319	-248.98302	-209.92686	-140.76491	0
70	-80.55333	-137.51023	-57.77057	107.40444	-12.20505	-98.45407	21.96909	-148.90161	-204.23117	-246.54201	-209.92686	-140.76491	0
71	-78.11232	-142.39225	-65.0936	109.84545	-7.32303	-103.33609	21.96909	-151.34262	-196.90814	-244.101	-209.92686	-143.20592	0
72	-82.99434	-147.27427	-65.0936	114.72747	-9.76404	-105.7771	21.96909	-156.22464	-192.02612	-241.65999	-207.48585	-143.20592	0
73	-80.55333	-149.71528	-69.97562	114.72747	-7.32303	-110.65912	21.96909	-158.66565	-187.1441	-239.21898	-202.60383	-143.20592	0
74	-75.67131	-147.27427	-72.41663	109.84545	-2.44101	-110.65912	19.52808	-161.10666	-187.1441	-236.77797	-200.16282	-140.76491	0
75	-75.67131	-144.83326	-69.97562	109.84545	-4.88202	-108.21811	19.52808	-161.10666	-187.1441	-236.77797	-202.60383	-138.3239	0
76	-78.11232	-144.83326	-67.53461	109.84545	-7.32303	-105.7771	13.83239	-165.98868	-194.46713	-239.21898	-205.04484	-138.3239	0
77	-78.11232	-139.95124	-62.65259	107.40444	-9.76404	-100.89508	13.83239	-161.10666	-199.34915	-244.101	-205.04484	-140.76491	0
78	-78.11232	-135.06922	-57.77057	104.96343	-12.20505	-96.01306	13.83239	-151.34262	-201.79016	-244.101	-207.48585	-140.76491	0
79	-80.55333	-132.62821	-52.88855	104.96343	-14.64606	-93.57205	17.08707	-144.01959	-201.79016	-246.54201	-207.48585	-140.76491	0
80	-87.87636	-132.62821	-45.56552	109.84545	-21.96909	-88.69003	17.08707	-141.57858	-199.34915	-246.54201	-207.48585	-140.76491	0
81	-90.31737	-137.51023	-48.00653	112.28646	-21.96909	-93.57205	17.08707	-146.4606	-194.46713	-246.54201	-207.48585	-143.20592	0
82	-90.31737	-144.83326	-55.32956	117.16848	-19.52808	-100.89508	17.08707	-148.90161	-192.02612	-244.101	-205.04484	-145.64693	0
83	-90.31737	-144.83326	-55.32956	117.16848	-19.52808	-100.89508	17.08707	-153.78363	-184.70309	-239.21898	-202.60383	-143.20592	0
84	-87.87636	-144.83326	-57.77057	114.72747	-17.08707	-100.89508	19.52808	-153.78363	-184.70309	-236.77797	-197.72181	-143.20592	0
85	-85.43535	-144.83326	-60.21158	114.72747	-14.64606	-103.33609	19.52808	-153.78363	-184.70309	-234.33696	-197.72181	-140.76491	0
86	-80.55333	-142.39225	-62.65259	109.84545	-9.76404	-103.33609	19.52808	-153.78363	-187.1441	-234.33696	-200.16282	-138.3239	0
87	-80.55333	-142.39225	-62.65259	109.84545	-9.76404	-103.33609	19.52808	-144.01959	-189.58511	-236.77797	-202.60383	-138.3239	0
88	-82.99434	-142.39225	-60.21158	112.28646	-12.20505	-100.89508	26.85111	-126.93252	-187.1441	-239.21898	-205.04484	-138.3239	0
89	-85.43535	-147.27427	-62.65259	114.72747	-12.20505	-105.7771	41.49717	-102.52242	-177.38006	-236.77797	-205.04484	-140.76491	0
90	-85.43535	-154.5973	-69.97562	119.60949	-9.76404	-113.10013	58.58424	-68.34828	-160.29299	-234.33696	-205.04484	-145.64693	0
91	-87.87636	-164.36134	-77.29865	124.49151	-7.32303	-120.42316	82.99434	-31.73313	-133.44188	-227.01393	-207.48585	-150.52895	0
92	-85.43535	-171.68437	-87.06269	126.93252	0	-130.1872	109.84545	9.76404	-104.14976	-214.80888	-202.60383	-155.41097	0
93	-85.43535	-174.12538	-89.5037	129.37353	0	-132.62821	136.69656	64.27993	-65.0936	-195.2808	-192.83979	-152.96996	0
94	-73.2303	-161.92033	-89.5037	117.16848	7.32303	-125.30518	163.54767	132.62821	-10.57771	-156.22464	-163.54767	-135.88289	0
95	-48.8202	-135.06922	-87.06269	90.31737	17.90074	-110.65912	185.51676	215.62255	62.65259	-97.6404	-117.16848	-99.26774	0
96	-21.96909	-100.89508	-79.73966	61.02525	27.66478	-91.13104	202.60383	308.38093	150.52895	-18.71441	-51.26121	-45.56552	0
97	3.25468	-61.83892	-65.0936	29.29212	32.5468	-61.83892	222.13191	427.99042	272.57945	93.57205	44.75185	33.36047	0
98	39.86983	-7.32303	-48.00653	-15.45973	44.75185	-27.66478	239.21898	567.12799	431.2451	249.79669	186.33043	148.08794	0
99	100.89508	70.78929	-30.91946	-86.24902	66.72094	21.96909	248.98302	698.94253	614.32085	440.19547	362.08315	296.98955	0
100	166.80235	161.10666	-5.69569	-164.36134	86.24902	78.11232	251.42403	808.78798	804.71963	652.56334	564.68698	467.86025	1000	P+0
101	222.94558	248.98302	26.03744	-235.15063	98.45407	139.13757	239.21898	860.04919	975.59033	862.4902	767.29081	641.17196	0
102	279.08881	346.62342	67.53461	-313.26295	105.7771	207.48585	205.04484	847.84414	1114.7279	1065.09403	974.77666	821.8067	0
103	332.79103	456.46887	123.67784	-393.81628	105.7771	290.48019	141.57858	752.64475	1202.60426	1240.84675	1165.17544	1000.00043	0
104	374.2882	578.51937	204.23117	-476.81062	86.24902	393.00261	58.58424	572.01001	1224.57335	1379.98432	1331.16412	1165.98911	0
105	391.37527	693.24684	301.87157	-542.71789	44.75185	497.96604	-25.22377	330.35002	1185.51719	1472.7427	1455.65563	1302.68567	0
106	381.61123	788.44623	406.835	-584.21506	-12.20505	598.04745	-105.7771	37.42882	1078.11275	1506.91684	1528.88593	1400.32607	0
107	357.20113	871.44057	514.23944	-613.50718	-78.11232	693.24684	-186.33043	-270.95211	921.88811	1492.27078	1555.73704	1458.91031	0
108	310.82194	930.02481	619.20287	-620.83021	-153.78363	776.24118	-266.88376	-578.51937	741.25337	1433.68654	1538.64997	1475.99738	0
109	252.2377	961.75794	709.52024	-606.18415	-229.45494	837.26643	-337.67305	-871.44057	536.20853	1326.2821	1467.86068	1444.26425	0
110	176.56639	949.55289	772.9865	-562.24597	-297.80322	861.67653	-410.90335	-1144.83369	299.43056	1155.4114	1326.2821	1346.62385	0
111	96.01306	886.08663	790.07357	-491.45668	-346.62342	839.70744	-484.13365	-1381.61166	38.24249	913.75141	1111.47322	1178.19416	0
112	15.45973	786.00522	770.54549	-401.13931	-378.35655	778.68219	-559.80496	-1586.6565	-255.49238	601.30213	825.87505	948.73922	0
113	-65.90727	654.19068	719.28428	-293.73487	-393.00261	685.92381	-628.15324	-1759.96821	-567.94166	240.03265	491.45668	670.46408	0
114	-144.01959	505.28907	648.49499	-181.44841	-395.44362	576.07836	-681.85546	-1894.22376	-868.18589	-129.37353	139.95124	377.54288	0
115	-212.36787	339.30039	550.85459	-64.27993	-380.79756	444.26382	-723.35263	-1972.33608	-1131.81497	-473.55594	-192.83979	89.5037	0
116	-261.18807	175.75272	436.12712	41.49717	-349.06443	305.12625	-750.20374	-1989.42315	-1329.53678	-759.15411	-475.99695	-160.29299	0
117	-290.48019	36.61515	326.28167	126.93252	-307.56726	180.63474	-755.08576	-1947.92598	-1454.02829	-961.75794	-683.4828	-355.57379	0
118	-305.12625	-61.83892	243.28733	183.07575	-275.83413	90.31737	-747.76273	-1862.49063	-1488.20243	-1066.72137	-800.65128	-477.62429	0
119	-302.68524	-120.42316	182.26208	209.92686	-244.101	31.73313	-725.79364	-1718.47104	-1419.85415	-1061.83935	-820.17936	-521.56247	0
120	-283.15716	-142.39225	140.76491	212.36787	-212.36787	0	-691.6195	-1528.07226	-1278.27557	-976.404	-766.47714	-506.91641	0
121	-258.74706	-137.51023	121.23683	197.72181	-190.39878	-7.32303	-640.35829	-1323.02742	-1104.96386	-856.79451	-681.04179	-458.09621	0
122	-227.01393	-103.33609	123.67784	163.54767	-175.75272	9.76404	-576.89203	-1120.42359	-929.21114	-724.97997	-576.07836	-387.30692	0
123	-200.16282	-56.9569	143.20592	126.93252	-173.31171	43.93818	-506.10274	-932.46582	-765.66347	-598.04745	-471.11493	-309.1946	0
124	-178.19373	-17.08707	160.29299	97.6404	-168.42969	70.78929	-437.75446	-761.59512	-621.64388	-483.31998	-375.91554	-238.40531	0
125	-146.4606	21.96909	167.61602	61.02525	-156.22464	95.19939	-374.2882	-617.57553	-504.4754	-390.5616	-302.68524	-177.38006	0
126	-124.49151	46.37919	170.05703	39.05616	-146.4606	107.40444	-323.02699	-505.28907	-419.04005	-322.21332	-246.54201	-131.00087	0
127	-107.40444	63.46626	170.05703	21.96909	-139.13757	117.16848	-281.52982	-414.9717	-355.57379	-273.39312	-207.48585	-96.82673	0
128	-92.75838	70.78929	162.734	8.95037	-126.93252	117.16848	-247.35568	-339.30039	-306.75359	-236.77797	-175.75272	-72.41663	0
129	-78.11232	70.78929	148.08794	4.06835	-112.28646	109.84545	-213.18154	-275.83413	-265.25642	-207.48585	-151.34262	-52.88855	0
130	-61.02525	73.2303	133.44188	-5.69569	-97.6404	102.52242	-181.44841	-222.13191	-226.20026	-180.63474	-131.81454	-40.6835	0
131	-53.70222	58.58424	111.47279	-3.25468	-82.99434	85.43535	-154.5973	-180.63474	-189.58511	-161.10666	-117.16848	-32.5468	0
132	-46.37919	41.49717	87.06269	1.62734	-65.90727	63.46626	-130.1872	-146.4606	-160.29299	-139.13757	-102.52242	-25.22377	0
133	-36.61515	31.73313	67.53461	1.62734	-51.26121	48.8202	-108.21811	-114.72747	-131.00087	-119.60949	-87.87636	-20.34175	0
134	-31.73313	21.96909	52.88855	4.06835	-41.49717	36.61515	-91.13104	-95.19939	-111.47279	-107.40444	-78.11232	-15.45973	0
135	-26.85111	19.52808	45.56552	4.06835	-36.61515	31.73313	-78.92599	-73.2303	-91.94471	-92.75838	-68.34828	-8.1367	0
136	-24.4101	14.64606	38.24249	4.06835	-31.73313	26.85111	-71.60296	-61.02525	-82.18067	-85.43535	-63.46626	-3.25468	0
137	-26.85111	12.20505	38.24249	6.50936	-31.73313	24.4101	-64.27993	-41.49717	-77.29865	-78.11232	-58.58424	4.06835	0
138	-24.4101	19.52808	43.12451	1.62734	-34.17414	31.73313	-54.51589	-19.52808	-67.53461	-70.78929	-53.70222	8.95037	0
139	-26.85111	21.96909	48.00653	1.62734	-36.61515	34.17414	-47.19286	-4.88202	-60.21158	-63.46626	-48.8202	13.83239	0
140	-24.4101	26.85111	50.44754	-0.81367	-36.61515	39.05616	-42.31084	7.32303	-50.44754	-58.58424	-43.93818	18.71441	0
141	-24.4101	24.4101	48.00653	-0.81367	-36.61515	36.61515	-39.86983	12.20505	-38.24249	-48.8202	-39.05616	18.71441	0
142	-24.4101	19.52808	43.12451	1.62734	-34.17414	31.73313	-39.86983	14.64606	-30.91946	-41.49717	-34.17414	18.71441	0
143	-17.08707	29.29212	45.56552	-5.69569	-31.73313	36.61515	-37.42882	19.52808	-17.90074	-34.17414	-26.03744	23.59643	0
144	-14.64606	31.73313	45.56552	-8.1367	-29.29212	39.05616	-37.42882	17.08707	-13.01872	-29.29212	-21.15542	23.59643	0
145	-19.52808	26.85111	45.56552	-3.25468	-31.73313	36.61515	-39.86983	17.08707	-10.57771	-26.85111	-21.15542	26.03744	0
146	-17.08707	29.29212	45.56552	-5.69569	-31.73313	36.61515	-42.31084	21.96909	-5.69569	-24.4101	-16.2734	30.91946	0
147	-14.64606	31.73313	45.56552	-8.1367	-29.29212	39.05616	-42.31084	30.10579	-5.69569	-21.96909	-13.83239	35.80148	0
148	-14.64606	36.61515	50.44754	-10.57771	-31.73313	43.93818	-39.86983	42.31084	-3.25468	-21.96909	-11.39138	38.24249	0
149	-14.64606	34.17414	48.00653	-10.57771	-31.73313	41.49717	-37.42882	52.07488	1.62734	-21.96909	-8.95037	40.6835	0
150	-14.64606	31.73313	45.56552	-8.1367	-29.29212	39.05616	-37.42882	59.39791	6.50936	-16.2734	-6.50936	43.12451	0
151	-7.32303	36.61515	43.12451	-15.45973	-24.4101	39.05616	-34.98781	64.27993	18.71441	-8.95037	0.81367	45.56552	0
152	-2.44101	41.49717	43.12451	-20.34175	-21.96909	41.49717	-34.98781	66.72094	28.47845	-1.62734	5.69569	45.56552	0
153	-2.44101	41.49717	43.12451	-20.34175	-21.96909	41.49717	-34.98781	69.16195	35.80148	3.25468	13.01872	50.44754	0
154	0	48.8202	48.00653	-25.22377	-24.4101	48.8202	-34.98781	71.60296	45.56552	13.01872	20.34175	55.32956	0
155	5.69569	56.14323	50.44754	-30.10579	-21.96909	53.70222	-39.86983	74.04397	50.44754	17.90074	25.22377	60.21158	0
156	8.1367	61.02525	52.88855	-34.98781	-21.96909	58.58424	-42.31084	74.04397	52.88855	20.34175	25.22377	65.0936	0
157	5.69569	63.46626	57.77057	-34.98781	-26.85111	61.02525	-42.31084	86.24902	52.88855	22.78276	30.10579	67.53461	0
158	5.69569	68.34828	62.65259	-37.42882	-29.29212	65.90727	-42.31084	98.45407	55.32956	27.66478	32.5468	72.41663	0
159	5.69569	73.2303	67.53461	-39.86983	-31.73313	70.78929	-39.86983	110.65912	60.21158	34.98781	37.42882	77.29865	0
160	8.1367	78.11232	69.97562	-42.31084	-31.73313	75.67131	-37.42882	117.98215	65.0936	39.86983	42.31084	79.73966	0
161	8.1367	78.11232	69.97562	-42.31084	-31.73313	75.67131	-37.42882	122.86417	74.85764	47.19286	47.19286	79.73966	0
162	5.69569	75.67131	69.97562	-39.86983	-31.73313	73.2303	-37.42882	130.1872	84.62168	56.9569	54.51589	84.62168	0
163	10.57771	78.11232	67.53461	-44.75185	-29.29212	73.2303	-37.42882	135.06922	96.82673	66.72094	61.83892	87.06269	0
164	15.45973	82.99434	67.53461	-49.63387	-26.85111	75.67131	-34.98781	139.95124	106.59077	76.48498	71.60296	94.38572	0
165	20.34175	87.87636	67.53461	-54.51589	-24.4101	78.11232	-37.42882	144.83326	116.35481	81.367	74.04397	99.26774	0
166	27.66478	92.75838	65.0936	-59.39791	-19.52808	80.55333	-39.86983	152.15629	123.67784	88.69003	81.367	106.59077	0
167	32.5468	97.6404	65.0936	-64.27993	-17.08707	82.99434	-39.86983	164.36134	128.55986	93.57205	86.24902	113.9138	0
168	37.42882	102.52242	65.0936	-69.16195	-14.64606	85.43535	-37.42882	179.0074	138.3239	100.89508	96.01306	118.79582	0
169	37.42882	104.96343	67.53461	-71.60296	-14.64606	87.87636	-37.42882	191.21245	148.08794	108.21811	103.33609	126.11885	0
170	42.31084	104.96343	62.65259	-74.04397	-9.76404	85.43535	-37.42882	200.97649	162.734	117.98215	113.10013	133.44188	0
171	44.75185	104.96343	60.21158	-74.04397	-7.32303	82.99434	-39.86983	210.74053	177.38006	127.74619	120.42316	138.3239	0
172	42.31084	102.52242	60.21158	-71.60296	-9.76404	82.99434	-42.31084	220.50457	192.02612	139.95124	130.1872	143.20592	0
173	42.31084	102.52242	60.21158	-71.60296	-9.76404	82.99434	-42.31084	232.70962	209.11319	149.71528	139.95124	150.52895	0
174	42.31084	107.40444	65.0936	-74.04397	-12.20505	87.87636	-42.31084	242.47366	221.31824	159.47932	149.71528	157.85198	0
175	47.19286	114.72747	67.53461	-81.367	-9.76404	92.75838	-44.75185	252.2377	233.52329	166.80235	154.5973	165.17501	0
176	54.51589	124.49151	69.97562	-88.69003	-7.32303	97.6404	-44.75185	262.00174	243.28733	176.56639	159.47932	172.49804	0
177	52.07488	129.37353	77.29865	-91.13104	-12.20505	104.96343	-44.75185	274.20679	250.61036	181.44841	166.80235	179.82107	0
178	54.51589	136.69656	82.18067	-96.01306	-14.64606	109.84545	-44.75185	288.85285	262.81541	191.21245	176.56639	189.58511	0
179	54.51589	139.13757	84.62168	-96.01306	-14.64606	112.28646	-44.75185	298.61689	275.02046	203.4175	186.33043	196.90814	0
180	59.39791	141.57858	82.18067	-100.89508	-12.20505	112.28646	-47.19286	308.38093	289.66652	213.18154	196.09447	204.23117	0
181	66.72094	146.4606	79.73966	-105.7771	-7.32303	114.72747	-49.63387	323.02699	311.63561	227.8276	205.85851	211.5542	0
182	64.27993	144.01959	79.73966	-103.33609	-7.32303	112.28646	-54.51589	335.23204	326.28167	242.47366	215.62255	216.43622	0
183	64.27993	144.01959	79.73966	-103.33609	-7.32303	112.28646	-59.39791	349.8781	345.80975	254.67871	225.38659	223.75925	0
184	76.48498	156.22464	79.73966	-115.54114	-2.44101	119.60949	-61.83892	364.52416	365.33783	269.32477	237.59164	233.52329	0
185	83.80801	163.54767	79.73966	-122.86417	2.44101	122.0505	-64.27993	379.17022	382.4249	283.97083	247.35568	240.84632	0
186	88.69003	165.98868	77.29865	-127.74619	4.88202	122.0505	-69.16195	388.93426	397.07096	293.73487	254.67871	248.16935	0
187	91.13104	168.42969	77.29865	-130.1872	7.32303	124.49151	-71.60296	401.13931	409.27601	305.93992	264.44275	255.49238	0
188	98.45407	175.75272	77.29865	-137.51023	9.76404	126.93252	-69.16195	420.66739	426.36308	323.02699	279.08881	267.69743	0
189	110.65912	187.95777	77.29865	-149.71528	17.90074	134.25555	-61.83892	437.75446	448.33217	342.55507	296.17588	282.34349	0
190	115.54114	190.39878	74.85764	-152.15629	20.34175	134.25555	-59.39791	457.28254	470.30126	359.64214	310.82194	294.54854	0
191	113.10013	187.95777	74.85764	-149.71528	20.34175	131.81454	-59.39791	474.36961	492.27035	376.72921	323.02699	301.87157	0
192	115.54114	187.95777	72.41663	-152.15629	22.78276	131.81454	-59.39791	493.89769	511.79843	393.81628	337.67305	311.63561	0
193	117.98215	195.2808	77.29865	-157.03831	20.34175	136.69656	-59.39791	518.30779	538.64954	413.34436	352.31911	321.39965	0
194	120.42316	200.16282	79.73966	-159.47932	20.34175	141.57858	-59.39791	540.27688	558.17762	427.99042	364.52416	331.16369	0
195	120.42316	200.16282	79.73966	-159.47932	20.34175	141.57858	-66.72094	559.80496	572.82368	437.75446	371.84719	336.04571	0
196	120.42316	200.16282	79.73966	-159.47932	20.34175	141.57858	-74.04397	564.68698	585.02873	449.95951	379.17022	340.92773	0
197	125.30518	207.48585	82.18067	-166.80235	22.78276	146.4606	-76.48498	576.89203	599.67479	462.16456	391.37527	350.69177	0
198	132.62821	214.80888	82.18067	-174.12538	25.22377	148.90161	-76.48498	593.9791	616.76186	476.81062	406.02133	358.0148	0
199	139.95124	219.6909	79.73966	-179.0074	30.10579	151.34262	-74.04397	606.18415	636.28994	491.45668	418.22638	365.33783	0
200	147.27427	224.57292	77.29865	-186.33043	34.98781	151.34262	-74.04397	615.94819	655.81802	506.10274	430.43143	375.10187	0
201	152.15629	224.57292	72.41663	-188.77144	39.86983	148.90161	-74.04397	623.27122	675.3461	520.7488	442.63648	379.98389	0
202	159.47932	227.01393	67.53461	-193.65346	47.19286	148.90161	-74.04397	640.35829	697.31519	537.83587	454.84153	384.86591	0
203	169.24336	231.89595	62.65259	-200.97649	54.51589	148.90161	-71.60296	667.2094	721.72529	552.48193	467.04658	389.74793	0
204	169.24336	231.89595	62.65259	-200.97649	54.51589	148.90161	-71.60296	684.29647	738.81236	562.24597	474.36961	394.62995	0
205	176.56639	229.45494	52.88855	-203.4175	61.83892	141.57858	-71.60296	701.38354	758.34044	574.45102	479.25163	399.51197	0
206	179.0074	224.57292	45.56552	-200.97649	66.72094	136.69656	-76.48498	713.58859	770.54549	581.77405	486.57466	404.39399	0
207	179.0074	222.13191	43.12451	-200.97649	69.16195	134.25555	-76.48498	723.35263	780.30953	591.53809	493.89769	409.27601	0
208	179.0074	219.6909	40.6835	-198.53548	69.16195	131.81454	-74.04397	730.67566	792.51458	598.86112	498.77971	416.59904	0
209	179.0074	219.6909	40.6835	-198.53548	69.16195	131.81454	-74.04397	733.11667	802.27862	606.18415	503.66173	421.48106	0
210	183.88942	222.13191	38.24249	-203.4175	74.04397	131.81454	-74.04397	737.99869	812.04266	613.50718	510.98476	426.36308	0
211	191.21245	224.57292	33.36047	-208.29952	78.92599	129.37353	-76.48498	740.4397	821.8067	620.83021	513.42577	426.36308	0
212	193.65346	222.13191	28.47845	-208.29952	83.80801	126.93252	-78.92599	742.88071	829.12973	628.15324	518.30779	423.92207	0
213	198.53548	227.01393	28.47845	-213.18154	86.24902	129.37353	-78.92599	750.20374	838.89377	635.47627	520.7488	426.36308	0
214	205.85851	227.01393	21.15542	-215.62255	93.57205	124.49151	-78.92599	755.08576	843.77579	637.91728	523.18981	426.36308	0
215	208.29952	224.57292	16.2734	-215.62255	96.01306	122.0505	-78.92599	759.96778	848.65781	640.35829	525.63082	428.80409	0
216	210.74053	217.24989	6.50936	-213.18154	103.33609	112.28646	-81.367	755.08576	848.65781	642.7993	525.63082	428.80409	0
217	208.29952	207.48585	-0.81367	-208.29952	105.7771	104.96343	-78.92599	752.64475	843.77579	642.7993	525.63082	431.2451	0
218	203.4175	202.60383	-0.81367	-203.4175	103.33609	102.52242	-76.48498	752.64475	836.45276	635.47627	520.7488	428.80409	0
219	198.53548	195.2808	-3.25468	-196.09447	100.89508	97.6404	-69.16195	745.32172	824.24771	625.71223	513.42577	426.36308	0
220	193.65346	187.95777	-5.69569	-191.21245	100.89508	92.75838	-66.72094	730.67566	807.16064	608.62516	501.22072	416.59904	0
221	186.33043	178.19373	-8.1367	-181.44841	98.45407	85.43535	-64.27993	713.58859	787.63256	591.53809	484.13365	401.95298	0
222	179.0074	168.42969	-10.57771	-174.12538	96.01306	80.55333	-66.72094	689.17849	758.34044	569.569	467.04658	382.4249	0
223	174.12538	163.54767	-10.57771	-169.24336	93.57205	78.11232	-66.72094	662.32738	729.04832	542.71789	445.07749	367.77884	0
224	166.80235	156.22464	-10.57771	-161.92033	88.69003	73.2303	-66.72094	633.03526	697.31519	513.42577	423.1084	350.69177	0
225	161.92033	146.4606	-15.45973	-154.5973	88.69003	65.90727	-66.72094	601.30213	660.70004	484.13365	398.6983	336.04571	0
226	157.03831	139.13757	-17.90074	-147.27427	88.69003	61.02525	-66.72094	567.12799	621.64388	457.28254	374.2882	318.95864	0
227	149.71528	131.81454	-17.90074	-139.95124	83.80801	58.58424	-66.72094	540.27688	582.58772	430.43143	352.31911	304.31258	0
228	139.95124	119.60949	-21.15542	-130.1872	81.367	51.26121	-59.39791	513.42577	543.53156	401.13931	330.35002	289.66652	0
229	127.74619	109.84545	-17.90074	-117.98215	74.04397	46.37919	-52.07488	484.13365	506.91641	374.2882	308.38093	275.02046	0
230	115.54114	102.52242	-13.01872	-108.21811	64.27993	46.37919	-47.19286	454.84153	470.30126	344.99608	286.41184	257.93339	0
231	110.65912	95.19939	-15.45973	-103.33609	64.27993	41.49717	-39.86983	425.54941	436.12712	318.14497	259.56073	235.9643	0
232	98.45407	82.99434	-15.45973	-91.13104	56.9569	34.17414	-37.42882	391.37527	397.07096	286.41184	235.15063	216.43622	0
233	86.24902	73.2303	-13.01872	-78.92599	49.63387	31.73313	-32.5468	357.20113	362.89682	254.67871	208.29952	194.46713	0
234	76.48498	63.46626	-13.01872	-69.16195	44.75185	26.85111	-25.22377	325.468	328.72268	225.38659	183.88942	174.93905	0
235	71.60296	58.58424	-13.01872	-64.27993	42.31084	24.4101	-22.78276	296.17588	299.43056	196.09447	157.03831	155.41097	0
236	71.60296	53.70222	-17.90074	-61.83892	44.75185	19.52808	-17.90074	266.88376	265.25642	166.80235	130.1872	131.00087	0
237	59.39791	39.05616	-21.15542	-49.63387	39.86983	9.76404	-17.90074	240.03265	228.64127	137.51023	103.33609	109.03178	0
238	47.19286	26.85111	-21.15542	-37.42882	34.98781	4.88202	-13.01872	218.06356	199.34915	110.65912	81.367	89.5037	0
239	32.5468	9.76404	-23.59643	-20.34175	27.66478	-4.88202	-5.69569	196.09447	172.49804	88.69003	61.83892	72.41663	0
240	22.78276	-2.44101	-26.03744	-10.57771	25.22377	-12.20505	1.62734	174.12538	148.08794	66.72094	44.75185	55.32956	0
241	20.34175	-9.76404	-30.91946	-5.69569	25.22377	-20.34175	6.50936	152.15629	126.11885	49.63387	27.66478	40.6835	0
242	8.1367	-22.78276	-30.91946	6.50936	17.90074	-25.22377	8.95037	127.74619	104.14976	32.5468	13.01872	26.03744	0
243	-4.88202	-37.42882	-33.36047	19.52808	13.01872	-34.98781	11.39138	105.7771	82.18067	15.45973	-1.62734	13.83239	0
244	-4.88202	-39.86983	-35.80148	21.96909	15.45973	-37.42882	17.08707	86.24902	65.0936	-1.62734	-11.39138	6.50936	0
245	-9.76404	-47.19286	-38.24249	26.85111	13.01872	-42.31084	17.08707	66.72094	48.00653	-16.2734	-26.03744	-3.25468	0
246	-12.20505	-49.63387	-38.24249	29.29212	13.01872	-44.75185	21.96909	52.07488	30.91946	-29.29212	-36.61515	-15.45973	0
247	-19.52808	-59.39791	-40.6835	39.05616	9.76404	-49.63387	24.4101	42.31084	11.39138	-41.49717	-48.8202	-25.22377	0
248	-26.85111	-66.72094	-40.6835	46.37919	4.88202	-54.51589	29.29212	34.98781	-3.25468	-56.14323	-58.58424	-34.98781	0
249	-34.17414	-69.16195	-35.80148	51.26121	0	-52.07488	36.61515	24.4101	-13.01872	-63.46626	-63.46626	-40.6835	0
250	-39.05616	-76.48498	-38.24249	56.14323	-2.44101	-56.9569	39.05616	19.52808	-25.22377	-73.2303	-73.2303	-48.00653	0
251	-48.8202	-83.80801	-35.80148	65.90727	-7.32303	-59.39791	43.93818	9.76404	-33.36047	-78.11232	-80.55333	-57.77057	0
252	-48.8202	-86.24902	-38.24249	65.90727	-7.32303	-61.83892	43.93818	0	-43.12451	-85.43535	-85.43535	-65.0936	0
253	-51.26121	-91.13104	-40.6835	70.78929	-7.32303	-66.72094	43.93818	-9.76404	-50.44754	-95.19939	-95.19939	-69.97562	0
254	-58.58424	-93.57205	-35.80148	75.67131	-12.20505	-64.27993	48.8202	-24.4101	-60.21158	-104.96343	-100.08141	-72.41663	0
255	-61.02525	-98.45407	-38.24249	78.11232	-12.20505	-69.16195	46.37919	-36.61515	-69.97562	-112.28646	-107.40444	-77.29865	0
256	-58.58424	-100.89508	-43.12451	78.11232	-9.76404	-71.60296	43.93818	-48.8202	-79.73966	-119.60949	-114.72747	-84.62168	0
257	-58.58424	-100.89508	-43.12451	78.11232	-9.76404	-71.60296	46.37919	-51.26121	-89.5037	-126.93252	-122.0505	-87.06269	0
258	-56.14323	-100.89508	-45.56552	78.11232	-7.32303	-74.04397	48.8202	-51.26121	-94.38572	-131.81454	-126.93252	-91.94471	0
259	-61.02525	-105.7771	-45.56552	82.99434	-9.76404	-76.48498	56.14323	-53.70222	-99.26774	-134.25555	-129.37353	-94.38572	0
260	-61.02525	-108.21811	-48.00653	82.99434	-7.32303	-78.92599	58.58424	-58.58424	-104.14976	-136.69656	-134.25555	-101.70875	0
261	-61.02525	-115.54114	-55.32956	87.87636	-4.88202	-86.24902	58.58424	-61.02525	-109.03178	-139.13757	-141.57858	-111.47279	0
262	-65.90727	-120.42316	-55.32956	92.75838	-7.32303	-88.69003	58.58424	-65.90727	-111.47279	-141.57858	-144.01959	-116.35481	0
263	-65.90727	-120.42316	-55.32956	92.75838	-7.32303	-88.69003	61.02525	-68.34828	-111.47279	-146.4606	-146.4606	-118.79582	0
264	-68.34828	-125.30518	-57.77057	95.19939	-7.32303	-91.13104	63.46626	-75.67131	-116.35481	-148.90161	-148.90161	-118.79582	0
265	-68.34828	-125.30518	-57.77057	95.19939	-7.32303	-91.13104	63.46626	-80.55333	-116.35481	-153.78363	-151.34262	-121.23683	0
266	-65.90727	-130.1872	-65.0936	97.6404	-2.44101	-98.45407	58.58424	-87.87636	-123.67784	-153.78363	-156.22464	-123.67784	0
267	-68.34828	-132.62821	-65.0936	100.08141	-2.44101	-98.45407	58.58424	-87.87636	-128.55986	-156.22464	-156.22464	-123.67784	0
268	-68.34828	-132.62821	-65.0936	100.08141	-2.44101	-98.45407	63.46626	-82.99434	-128.55986	-156.22464	-153.78363	-121.23683	1500	QRS+0
269	-68.34828	-130.1872	-62.65259	97.6404	-4.88202	-96.01306	65.90727	-80.55333	-128.55986	-153.78363	-151.34262	-116.35481	0
270	-68.34828	-132.62821	-65.0936	100.08141	-2.44101	-98.45407	68.34828	-78.11232	-131.00087	-153.78363	-148.90161	-116.35481	0
271	-68.34828	-135.06922	-67.53461	100.08141	-2.44101	-100.89508	68.34828	-78.11232	-131.00087	-151.34262	-148.90161	-118.79582	0
272	-73.2303	-137.51023	-65.0936	104.96343	-4.88202	-100.89508	68.34828	-80.55333	-133.44188	-151.34262	-146.4606	-118.79582	0
273	-70.78929	-130.1872	-60.21158	100.08141	-7.32303	-96.01306	68.34828	-78.11232	-131.00087	-151.34262	-146.4606	-118.79582	0
274	-63.46626	-122.86417	-60.21158	92.75838	-2.44101	-91.13104	68.34828	-78.11232	-131.00087	-156.22464	-146.4606	-118.79582	0
275	-65.90727	-127.74619	-62.65259	95.19939	-2.44101	-96.01306	61.02525	-85.43535	-135.88289	-161.10666	-156.22464	-123.67784	0
276	-73.2303	-135.06922	-62.65259	102.52242	-7.32303	-98.45407	61.02525	-85.43535	-140.76491	-163.54767	-158.66565	-128.55986	0
277	-73.2303	-137.51023	-65.0936	104.96343	-4.88202	-100.89508	61.02525	-82.99434	-143.20592	-163.54767	-158.66565	-128.55986	0
278	-75.67131	-139.95124	-65.0936	107.40444	-7.32303	-103.33609	63.46626	-80.55333	-143.20592	-163.54767	-156.22464	-128.55986	0
279	-75.67131	-135.06922	-60.21158	104.96343	-9.76404	-98.45407	68.34828	-75.67131	-138.3239	-158.66565	-151.34262	-121.23683	0
280	-80.55333	-142.39225	-62.65259	109.84545	-9.76404	-103.33609	68.34828	-73.2303	-138.3239	-156.22464	-151.34262	-121.23683	0
281	-87.87636	-144.83326	-57.77057	114.72747	-17.08707	-100.89508	70.78929	-73.2303	-133.44188	-151.34262	-146.4606	-121.23683	0
282	-78.11232	-139.95124	-62.65259	107.40444	-9.76404	-100.89508	70.78929	-75.67131	-131.00087	-148.90161	-146.4606	-118.79582	0
283	-73.2303	-132.62821	-60.21158	102.52242	-7.32303	-96.01306	70.78929	-75.67131	-131.00087	-151.34262	-146.4606	-118.79582	0
284	-73.2303	-132.62821	-60.21158	102.52242	-7.32303	-96.01306	70.78929	-80.55333	-133.44188	-156.22464	-151.34262	-121.23683	0
285	-75.67131	-135.06922	-60.21158	104.96343	-9.76404	-98.45407	68.34828	-82.99434	-133.44188	-158.66565	-156.22464	-123.67784	0
286	-70.78929	-132.62821	-62.65259	100.08141	-4.88202	-98.45407	68.34828	-85.43535	-135.88289	-158.66565	-156.22464	-126.11885	0
287	-58.58424	-122.86417	-65.0936	90.31737	2.44101	-93.57205	68.34828	-78.11232	-135.88289	-158.66565	-156.22464	-123.67784	0
288	-56.14323	-120.42316	-65.0936	87.87636	2.44101	-93.57205	70.78929	-70.78929	-135.88289	-161.10666	-156.22464	-123.67784	0
289	-65.90727	-127.74619	-62.65259	95.19939	-2.44101	-96.01306	70.78929	-68.34828	-138.3239	-163.54767	-158.66565	-123.67784	0
290	-70.78929	-132.62821	-62.65259	100.08141	-4.88202	-98.45407	70.78929	-70.78929	-140.76491	-165.98868	-161.10666	-126.11885	0
291	-70.78929	-137.51023	-67.53461	102.52242	-2.44101	-103.33609	70.78929	-73.2303	-140.76491	-165.98868	-163.54767	-131.00087	0
292	-70.78929	-142.39225	-72.41663	104.96343	0	-108.21811	68.34828	-78.11232	-143.20592	-168.42969	-165.98868	-133.44188	0
293	-80.55333	-149.71528	-69.97562	114.72747	-7.32303	-110.65912	68.34828	-82.99434	-145.64693	-173.31171	-170.8707	-135.88289	0
294	-87.87636	-154.5973	-67.53461	119.60949	-12.20505	-110.65912	65.90727	-90.31737	-150.52895	-178.19373	-170.8707	-138.3239	0
295	-87.87636	-152.15629	-65.0936	119.60949	-12.20505	-108.21811	65.90727	-90.31737	-150.52895	-178.19373	-170.8707	-135.88289	0
296	-80.55333	-147.27427	-67.53461	112.28646	-7.32303	-108.21811	65.90727	-90.31737	-152.96996	-173.31171	-170.8707	-133.44188	0
297	-73.2303	-139.95124	-67.53461	104.96343	-4.88202	-103.33609	68.34828	-82.99434	-150.52895	-168.42969	-163.54767	-123.67784	0
298	-78.11232	-139.95124	-62.65259	107.40444	-9.76404	-100.89508	73.2303	-75.67131	-148.08794	-168.42969	-161.10666	-123.67784	0
299	-73.2303	-139.95124	-67.53461	104.96343	-4.88202	-103.33609	78.11232	-70.78929	-148.08794	-165.98868	-158.66565	-121.23683	0
300	-73.2303	-142.39225	-69.97562	107.40444	-2.44101	-105.7771	78.11232	-68.34828	-143.20592	-168.42969	-158.66565	-123.67784	0
301	-73.2303	-142.39225	-69.97562	107.40444	-2.44101	-105.7771	78.11232	-70.78929	-138.3239	-165.98868	-161.10666	-128.55986	0
302	-73.2303	-144.83326	-72.41663	107.40444	-2.44101	-108.21811	75.67131	-75.67131	-138.3239	-165.98868	-161.10666	-133.44188	0
303	-70.78929	-142.39225	-72.41663	104.96343	0	-108.21811	73.2303	-80.55333	-138.3239	-168.42969	-163.54767	-138.3239	0
304	-65.90727	-135.06922	-69.97562	100.08141	0	-103.33609	73.2303	-80.55333	-138.3239	-168.42969	-161.10666	-138.3239	0
305	-65.90727	-135.06922	-69.97562	100.08141	0	-103.33609	70.78929	-80.55333	-135.88289	-168.42969	-161.10666	-135.88289	0
306	-65.90727	-135.06922	-69.97562	100.08141	0	-103.33609	68.34828	-82.99434	-143.20592	-168.42969	-161.10666	-138.3239	0
307	-68.34828	-135.06922	-67.53461	100.08141	-2.44101	-100.89508	65.90727	-78.11232	-145.64693	-170.8707	-161.10666	-138.3239	0
308	-65.90727	-132.62821	-67.53461	97.6404	0	-100.89508	68.34828	-70.78929	-148.08794	-173.31171	-163.54767	-135.88289	0
309	-68.34828	-132.62821	-65.0936	100.08141	-2.44101	-98.45407	73.2303	-63.46626	-145.64693	-170.8707	-163.54767	-133.44188	0
310	-73.2303	-135.06922	-62.65259	102.52242	-7.32303	-98.45407	73.2303	-61.02525	-145.64693	-170.8707	-163.54767	-135.88289	0
311	-73.2303	-142.39225	-69.97562	107.40444	-2.44101	-105.7771	73.2303	-68.34828	-148.08794	-173.31171	-168.42969	-140.76491	0
312	-73.2303	-142.39225	-69.97562	107.40444	-2.44101	-105.7771	73.2303	-70.78929	-145.64693	-173.31171	-168.42969	-143.20592	0
313	-70.78929	-135.06922	-65.0936	102.52242	-4.88202	-100.89508	73.2303	-75.67131	-143.20592	-173.31171	-168.42969	-140.76491	0
314	-70.78929	-132.62821	-62.65259	100.08141	-4.88202	-98.45407	73.2303	-80.55333	-143.20592	-175.75272	-165.98868	-140.76491	0
315	-68.34828	-132.62821	-65.0936	100.08141	-2.44101	-98.45407	73.2303	-82.99434	-143.20592	-175.75272	-168.42969	-138.3239	0
316	-68.34828	-135.06922	-67.53461	100.08141	-2.44101	-100.89508	73.2303	-87.87636	-143.20592	-178.19373	-168.42969	-138.3239	0
317	-63.46626	-135.06922	-72.41663	97.6404	2.44101	-103.33609	73.2303	-82.99434	-145.64693	-178.19373	-168.42969	-135.88289	0
318	-58.58424	-127.74619	-69.97562	92.75838	4.88202	-98.45407	75.67131	-73.2303	-143.20592	-180.63474	-168.42969	-135.88289	0
319	-58.58424	-127.74619	-69.97562	92.75838	4.88202	-98.45407	78.11232	-68.34828	-143.20592	-178.19373	-168.42969	-133.44188	0
320	-63.46626	-135.06922	-72.41663	97.6404	2.44101	-103.33609	78.11232	-68.34828	-143.20592	-175.75272	-168.42969	-133.44188	0
321	-58.58424	-135.06922	-77.29865	95.19939	7.32303	-105.7771	78.11232	-68.34828	-140.76491	-170.8707	-168.42969	-133.44188	0
322	-58.58424	-135.06922	-77.29865	95.19939	7.32303	-105.7771	70.78929	-73.2303	-140.76491	-173.31171	-168.42969	-135.88289	0
323	-58.58424	-135.06922	-77.29865	95.19939	7.32303	-105.7771	70.78929	-78.11232	-140.76491	-175.75272	-173.31171	-135.88289	0
324	-61.02525	-137.51023	-77.29865	97.6404	7.32303	-108.21811	70.78929	-85.43535	-145.64693	-180.63474	-173.31171	-135.88289	0
325	-68.34828	-144.83326	-77.29865	104.96343	2.44101	-110.65912	65.90727	-87.87636	-145.64693	-183.07575	-175.75272	-135.88289	0
326	-61.02525	-137.51023	-77.29865	97.6404	7.32303	-108.21811	65.90727	-90.31737	-148.08794	-183.07575	-175.75272	-135.88289	0
327	-56.14323	-130.1872	-74.85764	92.75838	7.32303	-103.33609	65.90727	-85.43535	-148.08794	-183.07575	-173.31171	-131.00087	0
328	-65.90727	-137.51023	-72.41663	100.08141	2.44101	-105.7771	65.90727	-80.55333	-150.52895	-185.51676	-175.75272	-133.44188	0
329	-65.90727	-137.51023	-72.41663	100.08141	2.44101	-105.7771	68.34828	-73.2303	-150.52895	-183.07575	-175.75272	-133.44188	0
330	-65.90727	-137.51023	-72.41663	100.08141	2.44101	-105.7771	68.34828	-70.78929	-150.52895	-180.63474	-175.75272	-133.44188	0
331	-65.90727	-137.51023	-72.41663	100.08141	2.44101	-105.7771	65.90727	-75.67131	-152.96996	-180.63474	-178.19373	-140.76491	0
332	-65.90727	-137.51023	-72.41663	100.08141	2.44101	-105.7771	65.90727	-80.55333	-155.41097	-185.51676	-178.19373	-143.20592	0
333	-73.2303	-142.39225	-69.97562	107.40444	-2.44101	-105.7771	63.46626	-90.31737	-157.85198	-190.39878	-183.07575	-145.64693	0
334	-73.2303	-137.51023	-65.0936	104.96343	-4.88202	-100.89508	63.46626	-97.6404	-157.85198	-192.83979	-183.07575	-143.20592	0
335	-70.78929	-135.06922	-65.0936	102.52242	-4.88202	-100.89508	61.02525	-102.52242	-160.29299	-197.72181	-183.07575	-140.76491	0
336	-75.67131	-137.51023	-62.65259	104.96343	-7.32303	-100.89508	56.14323	-109.84545	-167.61602	-205.04484	-190.39878	-148.08794	0
337	-75.67131	-137.51023	-62.65259	104.96343	-7.32303	-100.89508	56.14323	-107.40444	-172.49804	-207.48585	-190.39878	-148.08794	0
338	-78.11232	-137.51023	-60.21158	107.40444	-9.76404	-98.45407	61.02525	-100.08141	-167.61602	-205.04484	-190.39878	-148.08794	0
339	-78.11232	-137.51023	-60.21158	107.40444	-9.76404	-98.45407	65.90727	-95.19939	-167.61602	-205.04484	-190.39878	-150.52895	0
340	-82.99434	-142.39225	-60.21158	112.28646	-12.20505	-100.89508	65.90727	-92.75838	-170.05703	-205.04484	-195.2808	-155.41097	0
341	-85.43535	-147.27427	-62.65259	114.72747	-12.20505	-105.7771	68.34828	-95.19939	-170.05703	-207.48585	-200.16282	-165.17501	0
342	-82.99434	-147.27427	-65.0936	114.72747	-9.76404	-105.7771	68.34828	-97.6404	-170.05703	-207.48585	-200.16282	-167.61602	0
343	-80.55333	-147.27427	-67.53461	112.28646	-7.32303	-108.21811	70.78929	-102.52242	-167.61602	-207.48585	-197.72181	-165.17501	0
344	-78.11232	-144.83326	-67.53461	109.84545	-7.32303	-105.7771	70.78929	-107.40444	-167.61602	-207.48585	-197.72181	-165.17501	0
345	-73.2303	-142.39225	-69.97562	107.40444	-2.44101	-105.7771	70.78929	-109.84545	-170.05703	-212.36787	-197.72181	-162.734	0
346	-73.2303	-142.39225	-69.97562	107.40444	-2.44101	-105.7771	70.78929	-114.72747	-170.05703	-214.80888	-200.16282	-162.734	0
347	-73.2303	-142.39225	-69.97562	107.40444	-2.44101	-105.7771	70.78929	-117.16848	-174.93905	-214.80888	-197.72181	-157.85198	0
348	-68.34828	-132.62821	-65.0936	100.08141	-2.44101	-98.45407	73.2303	-114.72747	-172.49804	-212.36787	-192.83979	-150.52895	0
349	-63.46626	-127.74619	-65.0936	95.19939	0	-96.01306	75.67131	-114.72747	-172.49804	-207.48585	-190.39878	-148.08794	0
350	-63.46626	-125.30518	-62.65259	92.75838	-2.44101	-93.57205	78.11232	-117.16848	-174.93905	-209.92686	-192.83979	-148.08794	0
351	-65.90727	-125.30518	-60.21158	95.19939	-4.88202	-93.57205	82.99434	-117.16848	-174.93905	-209.92686	-197.72181	-155.41097	0
352	-65.90727	-122.86417	-57.77057	92.75838	-4.88202	-91.13104	78.11232	-114.72747	-177.38006	-209.92686	-197.72181	-160.29299	0
353	-63.46626	-120.42316	-57.77057	90.31737	-4.88202	-88.69003	78.11232	-109.84545	-179.82107	-214.80888	-200.16282	-160.29299	0
354	-61.02525	-117.98215	-57.77057	87.87636	-2.44101	-88.69003	78.11232	-102.52242	-179.82107	-214.80888	-197.72181	-160.29299	0
355	-63.46626	-125.30518	-62.65259	92.75838	-2.44101	-93.57205	75.67131	-97.6404	-179.82107	-212.36787	-195.2808	-157.85198	0
356	-63.46626	-127.74619	-65.0936	95.19939	0	-96.01306	73.2303	-92.75838	-174.93905	-207.48585	-190.39878	-155.41097	0
357	-58.58424	-125.30518	-67.53461	90.31737	2.44101	-96.01306	73.2303	-90.31737	-174.93905	-200.16282	-183.07575	-150.52895	0
358	-56.14323	-120.42316	-65.0936	87.87636	2.44101	-93.57205	73.2303	-90.31737	-172.49804	-197.72181	-178.19373	-143.20592	0
359	-51.26121	-110.65912	-60.21158	80.55333	2.44101	-86.24902	80.55333	-85.43535	-167.61602	-190.39878	-175.75272	-138.3239	0
360	-48.8202	-100.89508	-52.88855	73.2303	0	-76.48498	85.43535	-82.99434	-167.61602	-187.95777	-173.31171	-135.88289	0
361	-48.8202	-91.13104	-43.12451	68.34828	-4.88202	-66.72094	90.31737	-80.55333	-167.61602	-187.95777	-175.75272	-140.76491	0
362	-46.37919	-81.367	-35.80148	63.46626	-7.32303	-59.39791	90.31737	-75.67131	-167.61602	-187.95777	-175.75272	-140.76491	0
363	-46.37919	-76.48498	-30.91946	61.02525	-9.76404	-54.51589	92.75838	-68.34828	-167.61602	-190.39878	-175.75272	-140.76491	0
364	-43.93818	-66.72094	-23.59643	53.70222	-12.20505	-44.75185	100.08141	-56.14323	-162.734	-183.07575	-170.8707	-138.3239	0
365	-43.93818	-61.83892	-17.90074	51.26121	-14.64606	-39.86983	97.6404	-48.8202	-160.29299	-183.07575	-168.42969	-135.88289	0
366	-46.37919	-61.83892	-15.45973	53.70222	-17.08707	-39.86983	97.6404	-53.70222	-157.85198	-180.63474	-165.98868	-138.3239	-1500	QRS-0
367	-48.8202	-61.83892	-13.01872	53.70222	-19.52808	-37.42882	95.19939	-56.14323	-157.85198	-178.19373	-163.54767	-135.88289	0
368	-53.70222	-66.72094	-13.01872	58.58424	-21.96909	-39.86983	95.19939	-61.02525	-160.29299	-178.19373	-163.54767	-135.88289	0
369	-53.70222	-61.83892	-8.1367	56.14323	-24.4101	-34.98781	97.6404	-65.90727	-160.29299	-173.31171	-163.54767	-133.44188	0
370	-51.26121	-56.9569	-5.69569	53.70222	-24.4101	-32.5468	97.6404	-75.67131	-165.17501	-175.75272	-165.98868	-135.88289	0
371	-48.8202	-56.9569	-8.1367	51.26121	-21.96909	-32.5468	95.19939	-80.55333	-167.61602	-178.19373	-170.8707	-138.3239	0
372	-39.05616	-47.19286	-8.1367	41.49717	-17.08707	-27.66478	95.19939	-82.99434	-170.05703	-180.63474	-168.42969	-138.3239	0
373	-41.49717	-47.19286	-5.69569	43.93818	-19.52808	-27.66478	87.87636	-82.99434	-174.93905	-187.95777	-173.31171	-140.76491	0
374	-39.05616	-42.31084	-3.25468	39.05616	-19.52808	-22.78276	82.99434	-80.55333	-177.38006	-190.39878	-175.75272	-143.20592	0
375	-34.17414	-37.42882	-3.25468	34.17414	-17.08707	-20.34175	75.67131	-78.11232	-177.38006	-195.2808	-175.75272	-143.20592	0
376	-34.17414	-39.86983	-5.69569	36.61515	-14.64606	-22.78276	65.90727	-80.55333	-179.82107	-195.2808	-173.31171	-145.64693	0
377	-31.73313	-42.31084	-10.57771	36.61515	-12.20505	-27.66478	56.14323	-85.43535	-179.82107	-192.83979	-170.8707	-143.20592	0
378	-31.73313	-49.63387	-17.90074	39.05616	-7.32303	-34.98781	43.93818	-92.75838	-179.82107	-190.39878	-165.98868	-140.76491	0
379	-31.73313	-52.07488	-21.15542	41.49717	-7.32303	-37.42882	34.17414	-100.08141	-179.82107	-185.51676	-163.54767	-135.88289	0
380	-19.52808	-44.75185	-26.03744	31.73313	2.44101	-34.98781	26.85111	-107.40444	-179.82107	-178.19373	-158.66565	-131.00087	0
381	-12.20505	-42.31084	-30.91946	26.85111	7.32303	-37.42882	19.52808	-114.72747	-179.82107	-175.75272	-158.66565	-131.00087	0
382	-7.32303	-39.86983	-33.36047	21.96909	13.01872	-37.42882	13.83239	-117.16848	-182.26208	-175.75272	-156.22464	-128.55986	0
383	-4.88202	-39.86983	-35.80148	21.96909	15.45973	-37.42882	11.39138	-112.28646	-184.70309	-180.63474	-156.22464	-128.55986	0
384	-2.44101	-39.86983	-38.24249	19.52808	17.90074	-39.86983	8.95037	-104.96343	-184.70309	-185.51676	-161.10666	-131.00087	0
385	-2.44101	-42.31084	-40.6835	21.96909	17.90074	-42.31084	8.95037	-100.08141	-187.1441	-190.39878	-163.54767	-135.88289	0
386	-7.32303	-52.07488	-45.56552	29.29212	17.90074	-49.63387	8.95037	-97.6404	-187.1441	-192.83979	-163.54767	-138.3239	0
387	-2.44101	-56.9569	-55.32956	29.29212	25.22377	-56.9569	13.83239	-95.19939	-184.70309	-192.83979	-163.54767	-140.76491	0
388	0	-59.39791	-60.21158	29.29212	30.10579	-59.39791	17.08707	-95.19939	-182.26208	-192.83979	-163.54767	-140.76491	0
389	0	-66.72094	-67.53461	31.73313	32.5468	-66.72094	19.52808	-100.08141	-182.26208	-190.39878	-163.54767	-140.76491	0
390	5.69569	-66.72094	-72.41663	29.29212	37.42882	-69.16195	17.08707	-107.40444	-182.26208	-185.51676	-161.10666	-140.76491	0
391	10.57771	-64.27993	-74.85764	26.85111	42.31084	-69.16195	19.52808	-107.40444	-179.82107	-183.07575	-161.10666	-138.3239	0
392	13.01872	-61.83892	-74.85764	24.4101	42.31084	-66.72094	19.52808	-107.40444	-182.26208	-185.51676	-161.10666	-138.3239	0
393	13.01872	-59.39791	-72.41663	21.96909	42.31084	-64.27993	19.52808	-104.96343	-182.26208	-187.95777	-163.54767	-138.3239	0
394	5.69569	-61.83892	-67.53461	26.85111	34.98781	-64.27993	19.52808	-100.08141	-182.26208	-190.39878	-163.54767	-140.76491	0
395	5.69569	-64.27993	-69.97562	29.29212	37.42882	-66.72094	19.52808	-92.75838	-179.82107	-190.39878	-158.66565	-135.88289	0
396	0	-69.16195	-69.97562	34.17414	34.98781	-69.16195	21.96909	-87.87636	-177.38006	-190.39878	-153.78363	-135.88289	0
397	-7.32303	-74.04397	-67.53461	39.05616	30.10579	-71.60296	26.85111	-85.43535	-172.49804	-187.95777	-151.34262	-135.88289	0
398	-9.76404	-76.48498	-67.53461	41.49717	27.66478	-71.60296	26.85111	-82.99434	-170.05703	-185.51676	-148.90161	-135.88289	0
399	-9.76404	-71.60296	-62.65259	39.05616	25.22377	-66.72094	34.17414	-85.43535	-167.61602	-180.63474	-148.90161	-133.44188	0
400	-7.32303	-66.72094	-60.21158	36.61515	25.22377	-64.27993	36.61515	-90.31737	-167.61602	-175.75272	-146.4606	-131.00087	0
401	-14.64606	-69.16195	-55.32956	41.49717	20.34175	-61.83892	39.05616	-95.19939	-170.05703	-178.19373	-151.34262	-138.3239	0
402	-17.08707	-66.72094	-50.44754	41.49717	15.45973	-59.39791	36.61515	-97.6404	-177.38006	-180.63474	-153.78363	-140.76491	0
403	-21.96909	-69.16195	-48.00653	43.93818	13.01872	-59.39791	36.61515	-97.6404	-184.70309	-187.95777	-161.10666	-148.08794	0
404	-29.29212	-76.48498	-48.00653	51.26121	7.32303	-61.83892	36.61515	-97.6404	-192.02612	-195.2808	-165.98868	-155.41097	0
405	-39.05616	-86.24902	-48.00653	61.02525	2.44101	-66.72094	31.73313	-97.6404	-194.46713	-202.60383	-168.42969	-162.734	0
406	-48.8202	-100.89508	-52.88855	73.2303	0	-76.48498	29.29212	-100.08141	-201.79016	-209.92686	-175.75272	-170.05703	0
407	-56.14323	-110.65912	-55.32956	82.99434	-2.44101	-83.80801	26.85111	-102.52242	-206.67218	-212.36787	-180.63474	-174.93905	0
408	-56.14323	-113.10013	-57.77057	82.99434	0	-86.24902	24.4101	-104.96343	-209.11319	-217.24989	-185.51676	-174.93905	0
409	-63.46626	-120.42316	-57.77057	90.31737	-4.88202	-88.69003	19.52808	-112.28646	-216.43622	-219.6909	-192.83979	-179.82107	0
410	-61.02525	-117.98215	-57.77057	87.87636	-2.44101	-88.69003	17.08707	-119.60949	-221.31824	-222.13191	-197.72181	-182.26208	0
411	-61.02525	-120.42316	-60.21158	90.31737	-2.44101	-91.13104	13.83239	-129.37353	-228.64127	-227.01393	-207.48585	-187.1441	0
412	-58.58424	-117.98215	-60.21158	87.87636	0	-88.69003	8.95037	-131.81454	-233.52329	-229.45494	-207.48585	-187.1441	0
413	-58.58424	-117.98215	-60.21158	87.87636	0	-88.69003	8.95037	-134.25555	-235.9643	-231.89595	-207.48585	-187.1441	0
414	-53.70222	-115.54114	-62.65259	82.99434	2.44101	-88.69003	6.50936	-131.81454	-235.9643	-234.33696	-209.92686	-189.58511	0
415	-48.8202	-113.10013	-65.0936	80.55333	7.32303	-88.69003	8.95037	-129.37353	-235.9643	-236.77797	-209.92686	-189.58511	0
416	-48.8202	-115.54114	-67.53461	80.55333	7.32303	-91.13104	11.39138	-129.37353	-233.52329	-239.21898	-209.92686	-192.02612	0
417	-53.70222	-125.30518	-72.41663	87.87636	7.32303	-98.45407	11.39138	-126.93252	-233.52329	-236.77797	-209.92686	-192.02612	0
418	-56.14323	-130.1872	-74.85764	92.75838	7.32303	-103.33609	13.83239	-122.0505	-231.08228	-236.77797	-209.92686	-192.02612	0
419	-51.26121	-125.30518	-74.85764	87.87636	9.76404	-100.89508	17.08707	-117.16848	-231.08228	-231.89595	-209.92686	-189.58511	0
420	-53.70222	-125.30518	-72.41663	87.87636	7.32303	-98.45407	19.52808	-114.72747	-228.64127	-229.45494	-209.92686	-189.58511	0
421	-61.02525	-132.62821	-72.41663	95.19939	4.88202	-103.33609	21.96909	-119.60949	-231.08228	-229.45494	-214.80888	-194.46713	0
422	-61.02525	-135.06922	-74.85764	97.6404	4.88202	-105.7771	19.52808	-122.0505	-233.52329	-231.89595	-217.24989	-199.34915	0
423	-53.70222	-125.30518	-72.41663	87.87636	7.32303	-98.45407	19.52808	-119.60949	-233.52329	-234.33696	-217.24989	-199.34915	0
424	-46.37919	-120.42316	-74.85764	82.99434	13.01872	-98.45407	17.08707	-124.49151	-233.52329	-236.77797	-217.24989	-199.34915	0
425	-51.26121	-125.30518	-74.85764	87.87636	9.76404	-100.89508	17.08707	-129.37353	-231.08228	-239.21898	-217.24989	-201.79016	0
426	-51.26121	-132.62821	-82.18067	90.31737	15.45973	-108.21811	13.83239	-131.81454	-231.08228	-241.65999	-217.24989	-206.67218	0
427	-46.37919	-132.62821	-87.06269	87.87636	20.34175	-110.65912	11.39138	-131.81454	-231.08228	-239.21898	-217.24989	-206.67218	0
428	-41.49717	-132.62821	-91.94471	85.43535	25.22377	-113.10013	11.39138	-129.37353	-226.20026	-234.33696	-212.36787	-199.34915	0
429	-41.49717	-135.06922	-94.38572	87.87636	25.22377	-115.54114	11.39138	-126.93252	-226.20026	-227.01393	-209.92686	-194.46713	0
430	-39.05616	-135.06922	-96.82673	85.43535	27.66478	-115.54114	11.39138	-124.49151	-226.20026	-224.57292	-209.92686	-194.46713	0
431	-34.17414	-130.1872	-96.82673	80.55333	30.10579	-113.10013	13.83239	-119.60949	-226.20026	-219.6909	-209.92686	-194.46713	0
432	-29.29212	-125.30518	-96.82673	75.67131	32.5468	-110.65912	13.83239	-117.16848	-226.20026	-219.6909	-209.92686	-196.90814	0
433	-29.29212	-125.30518	-96.82673	75.67131	32.5468	-110.65912	17.08707	-109.84545	-228.64127	-224.57292	-212.36787	-201.79016	0
434	-24.4101	-125.30518	-101.70875	73.2303	37.42882	-113.10013	26.85111	-92.75838	-218.87723	-224.57292	-214.80888	-206.67218	0
435	-24.4101	-130.1872	-106.59077	75.67131	39.86983	-117.98215	41.49717	-65.90727	-204.23117	-222.13191	-212.36787	-213.99521	0
436	-24.4101	-144.83326	-121.23683	82.99434	47.19286	-132.62821	61.02525	-26.85111	-179.82107	-214.80888	-212.36787	-221.31824	0
437	-29.29212	-159.47932	-131.00087	92.75838	49.63387	-144.83326	85.43535	19.52808	-152.96996	-207.48585	-212.36787	-228.64127	0
438	-34.17414	-169.24336	-135.88289	100.08141	49.63387	-152.15629	112.28646	71.60296	-116.35481	-195.2808	-209.92686	-231.08228	0
439	-24.4101	-161.92033	-138.3239	92.75838	56.9569	-149.71528	141.57858	137.51023	-65.0936	-158.66565	-187.95777	-213.99521	0
440	-7.32303	-142.39225	-135.88289	73.2303	64.27993	-139.95124	165.98868	213.18154	1.62734	-102.52242	-144.01959	-179.82107	0
441	5.69569	-120.42316	-126.11885	56.14323	64.27993	-122.86417	185.51676	293.73487	82.18067	-31.73313	-87.87636	-133.44188	0
442	32.5468	-76.48498	-109.03178	21.96909	69.16195	-91.13104	200.16282	388.93426	187.1441	61.83892	-4.06835	-65.0936	0
443	74.04397	-17.08707	-91.94471	-27.66478	83.80801	-54.51589	214.80888	503.66173	328.72268	198.53548	122.86417	40.6835	0
444	130.1872	61.02525	-69.97562	-96.01306	100.89508	-2.44101	224.57292	620.83021	499.59338	379.17022	288.85285	179.82107	0
445	198.53548	153.78363	-45.56552	-176.56639	122.86417	56.14323	227.01393	723.35263	682.66913	581.77405	486.57466	348.25076	0
446	252.2377	234.33696	-17.90074	-242.47366	135.06922	109.84545	219.6909	794.14192	843.77579	781.93687	684.29647	519.12146	0
447	305.93992	319.77231	13.83239	-313.26295	147.27427	168.42969	200.16282	820.99303	985.35437	979.65868	882.01828	697.31519	0
448	352.31911	417.41271	65.0936	-384.05224	144.83326	241.65999	163.54767	786.81889	1085.43578	1157.85241	1072.41706	877.94993	0
449	388.93426	527.25816	138.3239	-457.28254	125.30518	334.41837	102.52242	672.09142	1124.49194	1304.31301	1238.40574	1043.93861	0
450	403.58032	637.10361	233.52329	-520.7488	86.24902	436.94079	31.73313	479.25163	1092.75881	1397.07139	1365.33826	1183.07618	0
451	391.37527	722.53896	331.16369	-557.36395	30.10579	527.25816	-27.66478	244.91467	1004.88245	1438.56856	1443.45058	1280.71658	0
452	359.64214	793.32825	433.68611	-576.89203	-36.61515	615.13452	-81.367	-24.4101	858.42185	1426.36351	1477.62472	1339.30082	0
453	320.58598	859.23552	538.64954	-589.09708	-109.84545	700.56987	-135.06922	-305.12625	682.66913	1372.66129	1467.86068	1366.15193	0
454	269.32477	893.40966	624.08489	-581.77405	-178.19373	759.15411	-191.21245	-590.72442	482.50631	1270.13887	1409.27644	1341.74183	0
455	208.29952	890.96865	682.66913	-550.04092	-236.77797	788.44623	-244.91467	-864.11754	248.16935	1106.5912	1284.78493	1253.86547	0
456	135.06922	832.38441	697.31519	-484.13365	-280.71615	766.47714	-298.61689	-1115.54157	-15.45973	874.69525	1079.74009	1095.19982	0
457	61.83892	739.62603	677.78711	-401.13931	-307.56726	710.33391	-359.64214	-1330.35045	-299.43056	576.89203	806.34697	873.06791	0
458	0	627.33957	626.5259	-313.26295	-312.44928	627.33957	-425.54941	-1518.30822	-602.1158	225.38659	476.81062	604.55681	0
459	-75.67131	488.202	563.05964	-205.85851	-319.77231	524.81715	-491.45668	-1679.41488	-904.80104	-144.01959	117.98215	306.75359	0
460	-144.01959	334.41837	477.62429	-96.01306	-310.00827	405.20766	-550.04092	-1799.02437	-1175.75315	-502.84806	-229.45494	1.62734	0
461	-197.72181	178.19373	375.10187	8.95037	-285.59817	275.83413	-596.42011	-1862.49063	-1388.12102	-803.09229	-532.14018	-267.69743	0
462	-236.77797	34.17414	270.13844	100.08141	-253.86504	151.34262	-630.59425	-1867.37265	-1522.37657	-1025.2242	-756.7131	-477.62429	0
463	-256.30605	-66.72094	189.58511	161.10666	-224.57292	61.02525	-647.68132	-1825.87548	-1576.07879	-1149.71571	-893.40966	-611.87984	0
464	-261.18807	-135.06922	126.11885	197.72181	-195.2808	-4.88202	-650.12233	-1735.55811	-1539.46364	-1176.56682	-939.78885	-675.3461	0
465	-246.54201	-161.92033	84.62168	202.60383	-165.98868	-39.86983	-640.35829	-1584.21549	-1417.41314	-1108.21854	-900.73269	-668.02307	0
466	-214.80888	-159.47932	55.32956	185.51676	-136.69656	-52.07488	-613.50718	-1401.13974	-1256.30648	-991.05006	-815.29734	-616.76186	0
467	-180.63474	-127.74619	52.88855	153.78363	-117.16848	-37.42882	-569.569	-1203.41793	-1075.67174	-849.47148	-703.01088	-538.64954	0
468	-148.90161	-76.48498	72.41663	112.28646	-112.28646	-2.44101	-513.42577	-1005.69612	-902.36003	-707.8929	-585.8424	-450.77318	0
469	-119.60949	-22.78276	96.82673	70.78929	-109.84545	36.61515	-454.84153	-817.73835	-738.81236	-576.07836	-475.99695	-365.33783	0
470	-95.19939	17.08707	111.47279	39.05616	-102.52242	63.46626	-396.25729	-646.86765	-602.1158	-463.7919	-380.79756	-294.54854	0
471	-75.67131	48.8202	123.67784	12.20505	-100.08141	85.43535	-344.99608	-510.17109	-494.71136	-373.47453	-310.00827	-243.28733	0
472	-56.14323	68.34828	123.67784	-5.69569	-90.31737	95.19939	-305.93992	-410.08968	-411.71702	-310.00827	-256.30605	-204.23117	0
473	-36.61515	82.99434	118.79582	-22.78276	-78.11232	100.08141	-274.20679	-331.97736	-350.69177	-263.62908	-217.24989	-174.93905	0
474	-31.73313	78.11232	109.03178	-22.78276	-70.78929	92.75838	-244.91467	-268.5111	-301.87157	-229.45494	-190.39878	-155.41097	0
475	-26.85111	70.78929	96.82673	-22.78276	-61.02525	82.99434	-213.18154	-214.80888	-257.93339	-200.16282	-168.42969	-140.76491	0
476	-17.08707	68.34828	84.62168	-25.22377	-51.26121	75.67131	-183.88942	-170.8707	-221.31824	-173.31171	-146.4606	-128.55986	0
477	-17.08707	53.70222	69.97562	-17.90074	-43.93818	61.02525	-157.03831	-131.81454	-187.1441	-148.90161	-124.49151	-113.9138	0
478	-24.4101	41.49717	65.0936	-8.1367	-43.93818	53.70222	-132.62821	-92.75838	-155.41097	-126.93252	-104.96343	-101.70875	0
479	-29.29212	31.73313	60.21158	-0.81367	-43.93818	46.37919	-105.7771	-53.70222	-126.11885	-100.08141	-82.99434	-87.06269	0
480	-34.17414	29.29212	62.65259	1.62734	-48.8202	46.37919	-86.24902	-19.52808	-106.59077	-80.55333	-68.34828	-77.29865	0
481	-34.17414	26.85111	60.21158	4.06835	-46.37919	43.93818	-71.60296	4.88202	-91.94471	-68.34828	-58.58424	-72.41663	0
482	-34.17414	26.85111	60.21158	4.06835	-46.37919	43.93818	-61.83892	24.4101	-82.18067	-61.02525	-51.26121	-65.0936	0
483	-39.05616	24.4101	62.65259	6.50936	-51.26121	43.93818	-56.9569	39.86983	-74.85764	-56.14323	-51.26121	-62.65259	0
484	-31.73313	34.17414	65.0936	-0.81367	-48.8202	48.8202	-47.19286	52.07488	-65.0936	-48.8202	-43.93818	-55.32956	0
485	-31.73313	36.61515	67.53461	-3.25468	-48.8202	51.26121	-44.75185	61.83892	-57.77057	-41.49717	-39.05616	-50.44754	0
486	-36.61515	29.29212	65.0936	4.06835	-51.26121	46.37919	-42.31084	69.16195	-50.44754	-36.61515	-31.73313	-45.56552	0
487	-36.61515	26.85111	62.65259	4.06835	-48.8202	43.93818	-42.31084	69.16195	-40.6835	-29.29212	-28.47845	-40.6835	0
488	-34.17414	26.85111	60.21158	4.06835	-46.37919	43.93818	-39.86983	71.60296	-33.36047	-24.4101	-23.59643	-34.98781	0
489	-34.17414	26.85111	60.21158	4.06835	-46.37919	43.93818	-39.86983	74.04397	-27.66478	-16.2734	-16.2734	-30.10579	0
490	-36.61515	24.4101	60.21158	6.50936	-48.8202	41.49717	-39.86983	76.48498	-20.34175	-8.95037	-8.95037	-27.66478	0
491	-34.17414	26.85111	60.21158	4.06835	-46.37919	43.93818	-37.42882	81.367	-17.90074	-4.06835	-8.95037	-25.22377	0
492	-21.96909	39.05616	60.21158	-8.1367	-41.49717	48.8202	-34.98781	91.13104	-13.01872	-1.62734	-1.62734	-22.78276	0
493	-19.52808	46.37919	65.0936	-13.01872	-41.49717	56.14323	-32.5468	100.89508	-5.69569	3.25468	-1.62734	-17.90074	0
494	-19.52808	46.37919	65.0936	-13.01872	-41.49717	56.14323	-30.10579	110.65912	1.62734	8.1367	5.69569	-15.45973	0
495	-24.4101	43.93818	67.53461	-10.57771	-46.37919	56.14323	-30.10579	117.98215	6.50936	10.57771	8.1367	-10.57771	0
496	-26.85111	41.49717	67.53461	-8.1367	-46.37919	53.70222	-30.10579	125.30518	11.39138	10.57771	10.57771	-8.1367	0
497	-26.85111	39.05616	65.0936	-5.69569	-46.37919	51.26121	-32.5468	127.74619	21.15542	17.90074	15.45973	-5.69569	0
498	-29.29212	34.17414	62.65259	-3.25468	-46.37919	48.8202	-34.98781	130.1872	28.47845	25.22377	22.78276	-0.81367	0
499	-29.29212	31.73313	60.21158	-0.81367	-43.93818	46.37919	-37.42882	132.62821	35.80148	34.98781	27.66478	4.06835	0
500	-21.96909	41.49717	62.65259	-10.57771	-41.49717	51.26121	-37.42882	137.51023	43.12451	42.31084	34.98781	6.50936	0
501	-17.08707	48.8202	65.0936	-15.45973	-41.49717	56.14323	-37.42882	142.39225	45.56552	44.75185	34.98781	6.50936	0
502	-9.76404	53.70222	62.65259	-22.78276	-36.61515	58.58424	-37.42882	149.71528	50.44754	49.63387	37.42882	8.95037	0
503	-9.76404	58.58424	67.53461	-25.22377	-39.05616	63.46626	-37.42882	159.47932	57.77057	54.51589	42.31084	13.83239	0
504	-4.88202	63.46626	67.53461	-30.10579	-36.61515	65.90727	-34.98781	171.68437	67.53461	61.83892	44.75185	18.71441	0
505	-7.32303	65.90727	72.41663	-30.10579	-39.05616	68.34828	-34.98781	179.0074	74.85764	66.72094	49.63387	26.03744	0
506	-12.20505	68.34828	79.73966	-27.66478	-46.37919	73.2303	-32.5468	179.0074	82.18067	69.16195	52.07488	28.47845	0
507	-17.08707	65.90727	82.18067	-25.22377	-48.8202	73.2303	-32.5468	174.12538	91.94471	76.48498	59.39791	33.36047	0
508	-19.52808	63.46626	82.18067	-22.78276	-51.26121	73.2303	-32.5468	164.36134	104.14976	88.69003	69.16195	40.6835	0
509	-14.64606	70.78929	84.62168	-27.66478	-48.8202	78.11232	-30.10579	157.03831	116.35481	100.89508	78.92599	52.88855	0
510	-12.20505	73.2303	84.62168	-30.10579	-48.8202	78.11232	-30.10579	144.83326	123.67784	108.21811	86.24902	60.21158	0
511	-12.20505	78.11232	89.5037	-32.5468	-51.26121	82.99434	-32.5468	137.51023	128.55986	115.54114	91.13104	62.65259	0
512	-4.88202	82.99434	87.06269	-39.86983	-46.37919	85.43535	-34.98781	137.51023	135.88289	125.30518	96.01306	67.53461	0
513	0	87.87636	87.06269	-44.75185	-43.93818	87.87636	-42.31084	139.95124	140.76491	130.1872	98.45407	74.85764	0
514	3.25468	97.6404	94.38572	-49.63387	-46.37919	97.6404	-42.31084	152.15629	150.52895	139.95124	105.7771	82.18067	0
515	10.57771	104.96343	94.38572	-56.9569	-41.49717	100.08141	-44.75185	161.92033	160.29299	149.71528	117.98215	91.94471	0
516	15.45973	107.40444	91.94471	-61.83892	-39.05616	100.08141	-49.63387	171.68437	170.05703	154.5973	122.86417	96.82673	0
517	15.45973	109.84545	94.38572	-61.83892	-39.05616	102.52242	-52.07488	176.56639	177.38006	161.92033	130.1872	101.70875	0
518	22.78276	112.28646	89.5037	-66.72094	-34.17414	102.52242	-52.07488	181.44841	189.58511	171.68437	139.95124	106.59077	0
519	27.66478	114.72747	87.06269	-71.60296	-29.29212	102.52242	-52.07488	188.77144	204.23117	183.88942	149.71528	113.9138	0
520	30.10579	114.72747	84.62168	-71.60296	-26.85111	100.08141	-52.07488	196.09447	213.99521	196.09447	161.92033	118.79582	0
521	34.98781	114.72747	79.73966	-74.04397	-21.96909	97.6404	-52.07488	203.4175	223.75925	203.4175	166.80235	118.79582	0
522	37.42882	119.60949	82.18067	-78.92599	-21.96909	102.52242	-52.07488	213.18154	231.08228	213.18154	174.12538	121.23683	0
523	39.86983	124.49151	84.62168	-81.367	-21.96909	104.96343	-52.07488	225.38659	243.28733	222.94558	181.44841	131.00087	0
524	47.19286	136.69656	89.5037	-91.13104	-21.96909	114.72747	-52.07488	242.47366	257.93339	235.15063	193.65346	143.20592	0
525	44.75185	139.13757	94.38572	-91.13104	-24.4101	117.16848	-49.63387	254.67871	270.13844	247.35568	208.29952	155.41097	0
526	44.75185	144.01959	99.26774	-93.57205	-26.85111	122.0505	-49.63387	269.32477	284.7845	259.56073	220.50457	162.734	0
527	44.75185	144.01959	99.26774	-93.57205	-26.85111	122.0505	-49.63387	281.52982	299.43056	271.76578	232.70962	172.49804	0
528	44.75185	144.01959	99.26774	-93.57205	-26.85111	122.0505	-52.07488	288.85285	316.51763	286.41184	247.35568	184.70309	0
529	52.07488	151.34262	99.26774	-100.89508	-24.4101	126.93252	-52.07488	298.61689	336.04571	301.0579	259.56073	194.46713	0
530	54.51589	153.78363	99.26774	-103.33609	-21.96909	126.93252	-52.07488	310.82194	350.69177	318.14497	274.20679	199.34915	0
531	61.83892	158.66565	96.82673	-110.65912	-17.08707	129.37353	-52.07488	320.58598	362.89682	332.79103	283.97083	206.67218	0
532	74.04397	168.42969	94.38572	-120.42316	-9.76404	131.81454	-56.9569	332.79103	375.10187	344.99608	293.73487	211.5542	0
533	83.80801	173.31171	89.5037	-127.74619	-2.44101	131.81454	-59.39791	344.99608	387.30692	357.20113	303.49891	218.87723	0
534	88.69003	180.63474	91.94471	-135.06922	-2.44101	136.69656	-56.9569	366.96517	406.835	374.2882	313.26295	231.08228	0
535	93.57205	187.95777	94.38572	-139.95124	0	141.57858	-54.51589	386.49325	426.36308	391.37527	330.35002	243.28733	0
536	93.57205	187.95777	94.38572	-139.95124	0	141.57858	-54.51589	403.58032	441.00914	406.02133	340.11406	250.61036	0
537	98.45407	187.95777	89.5037	-142.39225	4.88202	139.13757	-56.9569	415.78537	458.09621	418.22638	352.31911	257.93339	0
538	100.89508	185.51676	84.62168	-142.39225	7.32303	136.69656	-59.39791	427.99042	475.18328	432.87244	366.96517	265.25642	0
539	105.7771	197.72181	91.94471	-152.15629	7.32303	146.4606	-56.9569	445.07749	499.59338	452.40052	386.49325	279.90248	0
540	110.65912	202.60383	91.94471	-157.03831	9.76404	148.90161	-59.39791	459.72355	521.56247	474.36961	403.58032	289.66652	0
541	110.65912	202.60383	91.94471	-157.03831	9.76404	148.90161	-69.16195	469.48759	533.76752	486.57466	410.90335	296.98955	0
542	115.54114	205.04484	89.5037	-159.47932	13.01872	148.90161	-74.04397	481.69264	548.41358	501.22072	420.66739	304.31258	0
543	117.98215	209.92686	91.94471	-164.36134	13.01872	151.34262	-78.92599	493.89769	567.94166	515.86678	432.87244	316.51763	0
544	122.86417	212.36787	89.5037	-166.80235	17.90074	151.34262	-78.92599	513.42577	587.46974	532.95385	442.63648	328.72268	0
545	125.30518	212.36787	87.06269	-169.24336	20.34175	151.34262	-81.367	528.07183	606.99782	545.1589	452.40052	338.48672	0
546	120.42316	205.04484	84.62168	-161.92033	17.90074	146.4606	-81.367	540.27688	624.08489	554.92294	459.72355	340.92773	0
547	132.62821	209.92686	77.29865	-171.68437	27.66478	144.01959	-78.92599	559.80496	643.61297	572.01001	474.36961	350.69177	0
548	142.39225	212.36787	69.97562	-176.56639	37.42882	141.57858	-78.92599	574.45102	668.02307	591.53809	493.89769	362.89682	0
549	147.27427	214.80888	67.53461	-181.44841	39.86983	141.57858	-76.48498	591.53809	689.99216	608.62516	506.10274	370.21985	0
550	152.15629	217.24989	65.0936	-183.88942	44.75185	141.57858	-76.48498	606.18415	707.07923	623.27122	518.30779	372.66086	0
551	159.47932	219.6909	60.21158	-188.77144	49.63387	141.57858	-76.48498	618.3892	721.72529	633.03526	528.07183	379.98389	0
552	166.80235	219.6909	52.88855	-193.65346	56.9569	136.69656	-76.48498	630.59425	733.93034	647.68132	535.39486	384.86591	0
553	169.24336	219.6909	50.44754	-193.65346	59.39791	136.69656	-76.48498	637.91728	748.5764	657.44536	540.27688	389.74793	0
554	169.24336	217.24989	48.00653	-193.65346	61.83892	134.25555	-76.48498	650.12233	760.78145	664.76839	542.71789	392.18894	0
555	171.68437	214.80888	43.12451	-193.65346	64.27993	129.37353	-74.04397	659.88637	770.54549	672.09142	545.1589	397.07096	0
556	181.44841	214.80888	33.36047	-198.53548	74.04397	124.49151	-71.60296	669.65041	782.75054	679.41445	552.48193	401.95298	0
557	183.88942	209.92686	26.03744	-196.09447	78.92599	119.60949	-74.04397	676.97344	792.51458	689.17849	559.80496	404.39399	0
558	179.0074	202.60383	23.59643	-191.21245	78.92599	114.72747	-74.04397	676.97344	799.83761	694.06051	567.12799	404.39399	0
559	179.0074	202.60383	23.59643	-191.21245	78.92599	114.72747	-71.60296	684.29647	809.60165	698.94253	569.569	406.835	0
560	181.44841	202.60383	21.15542	-191.21245	81.367	112.28646	-71.60296	686.73748	816.92468	706.26556	576.89203	406.835	0
561	186.33043	200.16282	13.83239	-193.65346	86.24902	107.40444	-71.60296	689.17849	819.36569	711.14758	579.33304	409.27601	0
562	183.88942	192.83979	8.95037	-188.77144	88.69003	102.52242	-71.60296	686.73748	814.48367	706.26556	572.01001	399.51197	0
563	181.44841	187.95777	6.50936	-183.88942	88.69003	97.6404	-66.72094	681.85546	809.60165	698.94253	564.68698	394.62995	0
564	186.33043	180.63474	-5.69569	-183.88942	96.01306	87.87636	-64.27993	679.41445	804.71963	691.6195	554.92294	392.18894	0
565	186.33043	173.31171	-13.01872	-179.0074	100.89508	80.55333	-61.83892	672.09142	792.51458	681.85546	547.59991	389.74793	0
566	183.88942	163.54767	-21.15542	-174.12538	103.33609	73.2303	-59.39791	659.88637	772.9865	662.32738	532.95385	375.10187	0
567	188.77144	158.66565	-30.91946	-174.12538	110.65912	65.90727	-59.39791	642.7993	748.5764	642.7993	513.42577	362.89682	0
568	183.88942	148.90161	-35.80148	-166.80235	110.65912	58.58424	-61.83892	620.83021	721.72529	620.83021	498.77971	348.25076	0
569	176.56639	139.13757	-38.24249	-157.03831	108.21811	51.26121	-59.39791	596.42011	694.87418	601.30213	481.69264	338.48672	0
570	166.80235	131.81454	-35.80148	-149.71528	100.89508	48.8202	-54.51589	572.01001	660.70004	576.89203	467.04658	321.39965	0
571	159.47932	122.0505	-38.24249	-139.95124	98.45407	43.93818	-54.51589	545.1589	624.08489	545.1589	440.19547	301.87157	0
572	149.71528	104.96343	-45.56552	-127.74619	98.45407	31.73313	-52.07488	513.42577	587.46974	518.30779	413.34436	277.46147	0
573	135.06922	90.31737	-45.56552	-113.10013	91.13104	24.4101	-49.63387	484.13365	550.85459	484.13365	386.49325	255.49238	0
574	125.30518	82.99434	-43.12451	-103.33609	83.80801	21.96909	-42.31084	459.72355	516.68045	452.40052	357.20113	235.9643	0
575	115.54114	78.11232	-38.24249	-96.01306	76.48498	21.96909	-34.98781	432.87244	482.50631	423.1084	330.35002	216.43622	0
576	108.21811	70.78929	-38.24249	-88.69003	74.04397	17.08707	-30.10579	406.02133	448.33217	391.37527	303.49891	194.46713	0
577	100.89508	61.02525	-40.6835	-81.367	71.60296	12.20505	-27.66478	381.61123	411.71702	359.64214	274.20679	172.49804	0
578	93.57205	53.70222	-40.6835	-74.04397	66.72094	7.32303	-22.78276	352.31911	377.54288	327.90901	249.79669	150.52895	0
579	88.69003	51.26121	-38.24249	-69.16195	64.27993	7.32303	-15.45973	325.468	343.36874	298.61689	222.94558	131.00087	0
580	78.92599	39.05616	-40.6835	-59.39791	59.39791	0	-10.57771	301.0579	311.63561	269.32477	198.53548	111.47279	0
581	74.04397	29.29212	-45.56552	-52.07488	59.39791	-7.32303	-3.25468	276.6478	277.46147	242.47366	174.12538	91.94471	0
582	66.72094	19.52808	-48.00653	-42.31084	56.9569	-12.20505	1.62734	249.79669	245.72834	215.62255	149.71528	67.53461	0
583	56.9569	4.88202	-52.88855	-30.10579	54.51589	-22.78276	4.06835	222.94558	213.99521	188.77144	125.30518	50.44754	0
584	52.07488	-2.44101	-55.32956	-25.22377	54.51589	-27.66478	13.83239	203.4175	192.02612	169.24336	105.7771	38.24249	0
585	44.75185	-12.20505	-57.77057	-15.45973	52.07488	-34.98781	21.96909	186.33043	170.05703	152.15629	91.13104	30.91946	0
586	34.98781	-22.78276	-57.77057	-5.69569	44.75185	-39.86983	26.85111	166.80235	145.64693	132.62821	76.48498	18.71441	0
587	27.66478	-34.98781	-62.65259	4.06835	44.75185	-47.19286	26.85111	147.27427	123.67784	115.54114	59.39791	6.50936	0
588	20.34175	-47.19286	-67.53461	12.20505	42.31084	-56.9569	29.29212	127.74619	104.14976	98.45407	49.63387	-5.69569	0
589	15.45973	-49.63387	-65.0936	17.08707	39.86983	-56.9569	39.05616	110.65912	89.5037	83.80801	37.42882	-13.01872	0
590	5.69569	-54.51589	-60.21158	24.4101	32.5468	-56.9569	43.93818	96.01306	72.41663	69.16195	27.66478	-25.22377	0
591	-2.44101	-59.39791	-57.77057	29.29212	27.66478	-59.39791	51.26121	78.92599	55.32956	52.07488	10.57771	-37.42882	0
592	-2.44101	-59.39791	-57.77057	29.29212	27.66478	-59.39791	56.14323	64.27993	40.6835	39.86983	-1.62734	-50.44754	0
593	-7.32303	-61.83892	-55.32956	34.17414	22.78276	-59.39791	61.02525	52.07488	28.47845	27.66478	-13.83239	-60.21158	0
594	-19.52808	-71.60296	-52.88855	43.93818	15.45973	-61.83892	65.90727	42.31084	18.71441	13.01872	-28.47845	-67.53461	0
595	-24.4101	-78.92599	-55.32956	51.26121	15.45973	-66.72094	70.78929	32.5468	8.95037	3.25468	-36.61515	-74.85764	0
596	-24.4101	-83.80801	-60.21158	53.70222	17.90074	-71.60296	75.67131	24.4101	1.62734	-6.50936	-43.93818	-79.73966	0
597	-24.4101	-91.13104	-67.53461	56.14323	20.34175	-78.92599	75.67131	19.52808	-8.1367	-13.83239	-51.26121	-87.06269	0
598	-24.4101	-98.45407	-74.85764	61.02525	25.22377	-86.24902	73.2303	9.76404	-15.45973	-18.71441	-53.70222	-89.5037	0
599	-31.73313	-103.33609	-72.41663	65.90727	20.34175	-88.69003	75.67131	2.44101	-22.78276	-21.96909	-56.14323	-91.94471	0
600	-31.73313	-105.7771	-74.85764	68.34828	20.34175	-91.13104	80.55333	-2.44101	-27.66478	-26.85111	-56.14323	-96.82673	0
601	-31.73313	-108.21811	-77.29865	68.34828	22.78276	-93.57205	85.43535	-7.32303	-33.36047	-31.73313	-63.46626	-101.70875	0
602	-36.61515	-115.54114	-79.73966	75.67131	20.34175	-98.45407	85.43535	-17.08707	-43.12451	-39.05616	-68.34828	-111.47279	0
603	-39.05616	-117.98215	-79.73966	78.11232	20.34175	-98.45407	87.87636	-21.96909	-48.00653	-43.93818	-73.2303	-113.9138	0
604	-41.49717	-120.42316	-79.73966	80.55333	17.90074	-100.89508	95.19939	-24.4101	-52.88855	-51.26121	-78.11232	-118.79582	0
605	-41.49717	-120.42316	-79.73966	80.55333	17.90074	-100.89508	100.08141	-24.4101	-55.32956	-56.14323	-82.99434	-121.23683	0
606	-36.61515	-120.42316	-84.62168	78.11232	22.78276	-103.33609	102.52242	-26.85111	-60.21158	-61.02525	-87.87636	-126.11885	0
607	-31.73313	-117.98215	-87.06269	73.2303	27.66478	-103.33609	102.52242	-29.29212	-65.0936	-63.46626	-92.75838	-131.00087	0
608	-26.85111	-117.98215	-91.94471	70.78929	32.5468	-105.7771	102.52242	-34.17414	-67.53461	-63.46626	-92.75838	-133.44188	0
609	-26.85111	-120.42316	-94.38572	73.2303	32.5468	-108.21811	102.52242	-36.61515	-69.97562	-65.90727	-95.19939	-135.88289	0
610	-31.73313	-122.86417	-91.94471	75.67131	30.10579	-108.21811	102.52242	-39.05616	-72.41663	-65.90727	-95.19939	-140.76491	0
611	-34.17414	-127.74619	-94.38572	80.55333	30.10579	-110.65912	104.96343	-39.05616	-74.85764	-70.78929	-97.6404	-143.20592	0
612	-34.17414	-132.62821	-99.26774	82.99434	32.5468	-115.54114	107.40444	-43.93818	-79.73966	-73.2303	-97.6404	-150.52895	-1250	T-0
613	-39.05616	-135.06922	-96.82673	85.43535	27.66478	-115.54114	104.96343	-53.70222	-82.18067	-75.67131	-100.08141	-150.52895	0
614	-43.93818	-142.39225	-99.26774	92.75838	27.66478	-120.42316	104.96343	-63.46626	-84.62168	-82.99434	-107.40444	-155.41097	0
615	-48.8202	-142.39225	-94.38572	95.19939	22.78276	-117.98215	107.40444	-70.78929	-82.18067	-85.43535	-107.40444	-155.41097	0
616	-48.8202	-142.39225	-94.38572	95.19939	22.78276	-117.98215	107.40444	-73.2303	-82.18067	-90.31737	-109.84545	-155.41097	0
617	-48.8202	-144.83326	-96.82673	95.19939	22.78276	-120.42316	104.96343	-78.11232	-84.62168	-90.31737	-109.84545	-157.85198	0
618	-53.70222	-152.15629	-99.26774	102.52242	22.78276	-125.30518	100.08141	-80.55333	-87.06269	-90.31737	-109.84545	-157.85198	0
619	-53.70222	-152.15629	-99.26774	102.52242	22.78276	-125.30518	104.96343	-73.2303	-84.62168	-87.87636	-107.40444	-155.41097	0
620	-48.8202	-144.83326	-96.82673	95.19939	22.78276	-120.42316	112.28646	-61.02525	-82.18067	-82.99434	-100.08141	-152.96996	0
621	-41.49717	-142.39225	-101.70875	90.31737	30.10579	-122.86417	119.60949	-53.70222	-82.18067	-82.99434	-100.08141	-152.96996	0
622	-39.05616	-142.39225	-104.14976	90.31737	32.5468	-122.86417	122.0505	-53.70222	-87.06269	-82.99434	-102.52242	-157.85198	0
623	-36.61515	-142.39225	-106.59077	87.87636	34.98781	-125.30518	124.49151	-61.02525	-87.06269	-87.87636	-104.96343	-157.85198	0
624	-34.17414	-137.51023	-104.14976	85.43535	34.98781	-120.42316	129.37353	-68.34828	-84.62168	-90.31737	-107.40444	-157.85198	0
625	-29.29212	-132.62821	-104.14976	80.55333	37.42882	-117.98215	134.25555	-75.67131	-82.18067	-90.31737	-109.84545	-155.41097	0
626	-31.73313	-137.51023	-106.59077	82.99434	37.42882	-122.86417	131.81454	-82.99434	-84.62168	-95.19939	-112.28646	-157.85198	0
627	-36.61515	-144.83326	-109.03178	90.31737	34.98781	-127.74619	126.93252	-85.43535	-89.5037	-97.6404	-117.16848	-160.29299	0
628	-34.17414	-144.83326	-111.47279	87.87636	37.42882	-127.74619	126.93252	-82.99434	-89.5037	-100.08141	-117.16848	-160.29299	0
629	-29.29212	-142.39225	-113.9138	85.43535	42.31084	-127.74619	126.93252	-73.2303	-89.5037	-100.08141	-117.16848	-157.85198	0
630	-26.85111	-137.51023	-111.47279	80.55333	42.31084	-125.30518	131.81454	-58.58424	-87.06269	-95.19939	-112.28646	-157.85198	0
631	-24.4101	-139.95124	-116.35481	80.55333	44.75185	-127.74619	134.25555	-51.26121	-87.06269	-92.75838	-109.84545	-157.85198	0
632	-24.4101	-142.39225	-118.79582	82.99434	47.19286	-130.1872	134.25555	-51.26121	-89.5037	-92.75838	-112.28646	-162.734	0
633	-21.96909	-139.95124	-118.79582	80.55333	47.19286	-130.1872	134.25555	-58.58424	-89.5037	-92.75838	-114.72747	-162.734	0
634	-26.85111	-144.83326	-118.79582	85.43535	44.75185	-132.62821	134.25555	-65.90727	-89.5037	-95.19939	-119.60949	-162.734	0
635	-31.73313	-147.27427	-116.35481	87.87636	42.31084	-132.62821	136.69656	-78.11232	-91.94471	-97.6404	-119.60949	-162.734	0
636	-29.29212	-147.27427	-118.79582	87.87636	44.75185	-132.62821	136.69656	-82.99434	-94.38572	-100.08141	-122.0505	-165.17501	0
637	-29.29212	-152.15629	-123.67784	90.31737	47.19286	-137.51023	129.37353	-85.43535	-99.26774	-104.96343	-126.93252	-170.05703	0
638	-26.85111	-147.27427	-121.23683	85.43535	47.19286	-135.06922	126.93252	-82.99434	-101.70875	-104.96343	-126.93252	-172.49804	0
639	-34.17414	-149.71528	-116.35481	90.31737	39.86983	-132.62821	126.93252	-75.67131	-104.14976	-107.40444	-126.93252	-172.49804	0
640	-34.17414	-149.71528	-116.35481	90.31737	39.86983	-132.62821	126.93252	-68.34828	-104.14976	-104.96343	-126.93252	-172.49804	0
641	-29.29212	-147.27427	-118.79582	87.87636	44.75185	-132.62821	126.93252	-61.02525	-104.14976	-107.40444	-126.93252	-174.93905	0
642	-26.85111	-147.27427	-121.23683	85.43535	47.19286	-135.06922	124.49151	-56.14323	-104.14976	-107.40444	-126.93252	-177.38006	0
643	-24.4101	-139.95124	-116.35481	80.55333	44.75185	-127.74619	126.93252	-56.14323	-99.26774	-104.96343	-122.0505	-172.49804	0
644	-19.52808	-135.06922	-116.35481	75.67131	47.19286	-125.30518	129.37353	-53.70222	-94.38572	-102.52242	-119.60949	-167.61602	0
645	-19.52808	-139.95124	-121.23683	78.11232	49.63387	-130.1872	129.37353	-58.58424	-94.38572	-107.40444	-122.0505	-167.61602	0
646	-14.64606	-139.95124	-126.11885	75.67131	54.51589	-132.62821	126.93252	-61.02525	-91.94471	-109.84545	-122.0505	-172.49804	0
647	-14.64606	-139.95124	-126.11885	75.67131	54.51589	-132.62821	126.93252	-58.58424	-91.94471	-109.84545	-122.0505	-172.49804	0
648	-14.64606	-139.95124	-126.11885	75.67131	54.51589	-132.62821	124.49151	-63.46626	-91.94471	-107.40444	-117.16848	-172.49804	0
649	-19.52808	-142.39225	-123.67784	80.55333	52.07488	-132.62821	122.0505	-65.90727	-94.38572	-109.84545	-119.60949	-172.49804	0
650	-26.85111	-147.27427	-121.23683	85.43535	47.19286	-135.06922	119.60949	-70.78929	-99.26774	-114.72747	-122.0505	-177.38006	0
651	-26.85111	-142.39225	-116.35481	82.99434	44.75185	-130.1872	119.60949	-73.2303	-101.70875	-114.72747	-124.49151	-182.26208	0
652	-29.29212	-137.51023	-109.03178	82.99434	39.86983	-122.86417	122.0505	-73.2303	-101.70875	-114.72747	-124.49151	-184.70309	0
653	-24.4101	-132.62821	-109.03178	78.11232	42.31084	-120.42316	122.0505	-70.78929	-99.26774	-112.28646	-122.0505	-182.26208	0
654	-24.4101	-132.62821	-109.03178	78.11232	42.31084	-120.42316	122.0505	-68.34828	-99.26774	-114.72747	-124.49151	-182.26208	0
655	-24.4101	-132.62821	-109.03178	78.11232	42.31084	-120.42316	124.49151	-65.90727	-96.82673	-114.72747	-126.93252	-179.82107	0
656	-21.96909	-135.06922	-113.9138	78.11232	44.75185	-125.30518	124.49151	-65.90727	-94.38572	-117.16848	-124.49151	-179.82107	0
657	-21.96909	-139.95124	-118.79582	80.55333	47.19286	-130.1872	122.0505	-63.46626	-91.94471	-114.72747	-126.93252	-179.82107	0
658	-17.08707	-139.95124	-123.67784	78.11232	52.07488	-132.62821	122.0505	-63.46626	-91.94471	-114.72747	-124.49151	-179.82107	0
659	-17.08707	-142.39225	-126.11885	78.11232	54.51589	-135.06922	119.60949	-63.46626	-94.38572	-114.72747	-126.93252	-179.82107	0
660	-21.96909	-142.39225	-121.23683	80.55333	49.63387	-132.62821	119.60949	-65.90727	-99.26774	-117.16848	-126.93252	-182.26208	0
661	-19.52808	-142.39225	-123.67784	80.55333	52.07488	-132.62821	119.60949	-65.90727	-99.26774	-117.16848	-126.93252	-182.26208	0
662	-21.96909	-142.39225	-121.23683	80.55333	49.63387	-132.62821	117.16848	-68.34828	-101.70875	-119.60949	-129.37353	-187.1441	0
663	-21.96909	-142.39225	-121.23683	80.55333	49.63387	-132.62821	114.72747	-70.78929	-101.70875	-124.49151	-129.37353	-189.58511	0
664	-19.52808	-135.06922	-116.35481	75.67131	47.19286	-125.30518	119.60949	-65.90727	-101.70875	-124.49151	-129.37353	-187.1441	0
665	-14.64606	-132.62821	-118.79582	73.2303	52.07488	-125.30518	122.0505	-68.34828	-101.70875	-124.49151	-126.93252	-184.70309	0
666	-14.64606	-132.62821	-118.79582	73.2303	52.07488	-125.30518	122.0505	-75.67131	-101.70875	-129.37353	-126.93252	-184.70309	0
667	-12.20505	-135.06922	-123.67784	73.2303	54.51589	-130.1872	119.60949	-75.67131	-104.14976	-131.81454	-131.81454	-187.1441	0
668	-12.20505	-139.95124	-128.55986	75.67131	56.9569	-135.06922	117.16848	-78.11232	-111.47279	-134.25555	-131.81454	-189.58511	0
669	-4.88202	-132.62821	-128.55986	68.34828	61.83892	-130.1872	122.0505	-75.67131	-109.03178	-131.81454	-131.81454	-182.26208	0
670	-4.88202	-132.62821	-128.55986	68.34828	61.83892	-130.1872	122.0505	-70.78929	-109.03178	-131.81454	-129.37353	-182.26208	0
671	-12.20505	-142.39225	-131.00087	75.67131	59.39791	-137.51023	119.60949	-70.78929	-111.47279	-136.69656	-131.81454	-187.1441	0
672	-12.20505	-144.83326	-133.44188	78.11232	59.39791	-139.95124	119.60949	-63.46626	-111.47279	-136.69656	-134.25555	-192.02612	0
673	-12.20505	-144.83326	-133.44188	78.11232	59.39791	-139.95124	119.60949	-61.02525	-111.47279	-136.69656	-134.25555	-189.58511	0
674	-9.76404	-142.39225	-133.44188	75.67131	61.83892	-137.51023	122.0505	-68.34828	-111.47279	-139.13757	-136.69656	-189.58511	0
675	-7.32303	-142.39225	-135.88289	73.2303	64.27993	-139.95124	122.0505	-73.2303	-111.47279	-141.57858	-136.69656	-189.58511	0
676	-7.32303	-144.83326	-138.3239	75.67131	64.27993	-142.39225	122.0505	-78.11232	-113.9138	-141.57858	-136.69656	-189.58511	0
677	-7.32303	-144.83326	-138.3239	75.67131	64.27993	-142.39225	119.60949	-82.99434	-116.35481	-141.57858	-139.13757	-189.58511	0
678	-4.88202	-142.39225	-138.3239	73.2303	66.72094	-139.95124	119.60949	-87.87636	-121.23683	-141.57858	-136.69656	-189.58511	0
679	-2.44101	-137.51023	-135.88289	68.34828	66.72094	-137.51023	122.0505	-90.31737	-123.67784	-139.13757	-134.25555	-187.1441	0
680	-7.32303	-137.51023	-131.00087	70.78929	61.83892	-135.06922	122.0505	-90.31737	-128.55986	-141.57858	-134.25555	-189.58511	0
681	-12.20505	-137.51023	-126.11885	73.2303	56.9569	-132.62821	119.60949	-90.31737	-133.44188	-144.01959	-136.69656	-192.02612	0
682	-14.64606	-142.39225	-128.55986	78.11232	56.9569	-135.06922	117.16848	-90.31737	-135.88289	-146.4606	-139.13757	-199.34915	0
683	-14.64606	-142.39225	-128.55986	78.11232	56.9569	-135.06922	114.72747	-92.75838	-140.76491	-148.90161	-144.01959	-201.79016	0
684	-17.08707	-142.39225	-126.11885	78.11232	54.51589	-135.06922	117.16848	-92.75838	-140.76491	-151.34262	-146.4606	-201.79016	0
685	-24.4101	-152.15629	-128.55986	87.87636	52.07488	-139.95124	114.72747	-97.6404	-145.64693	-156.22464	-151.34262	-201.79016	0
686	-21.96909	-152.15629	-131.00087	85.43535	54.51589	-142.39225	117.16848	-97.6404	-145.64693	-158.66565	-153.78363	-204.23117	0
687	-21.96909	-154.5973	-133.44188	87.87636	54.51589	-144.83326	117.16848	-97.6404	-145.64693	-158.66565	-153.78363	-204.23117	0
688	-19.52808	-154.5973	-135.88289	85.43535	56.9569	-144.83326	117.16848	-100.08141	-152.96996	-158.66565	-151.34262	-206.67218	0
689	-26.85111	-157.03831	-131.00087	90.31737	52.07488	-144.83326	117.16848	-104.96343	-155.41097	-163.54767	-153.78363	-209.11319	0
690	-29.29212	-157.03831	-128.55986	92.75838	49.63387	-142.39225	117.16848	-104.96343	-157.85198	-165.98868	-153.78363	-213.99521	0
691	-29.29212	-157.03831	-128.55986	92.75838	49.63387	-142.39225	117.16848	-104.96343	-157.85198	-165.98868	-156.22464	-213.99521	0
692	-24.4101	-157.03831	-133.44188	90.31737	54.51589	-144.83326	119.60949	-104.96343	-157.85198	-165.98868	-158.66565	-218.87723	0
693	-24.4101	-154.5973	-131.00087	87.87636	52.07488	-142.39225	117.16848	-107.40444	-157.85198	-168.42969	-161.10666	-218.87723	0
694	-26.85111	-157.03831	-131.00087	90.31737	52.07488	-144.83326	117.16848	-109.84545	-160.29299	-173.31171	-165.98868	-221.31824	0
695	-26.85111	-157.03831	-131.00087	90.31737	52.07488	-144.83326	117.16848	-112.28646	-160.29299	-173.31171	-168.42969	-218.87723	0
696	-21.96909	-154.5973	-133.44188	87.87636	54.51589	-144.83326	117.16848	-109.84545	-160.29299	-175.75272	-168.42969	-218.87723	0
697	-19.52808	-152.15629	-133.44188	85.43535	56.9569	-142.39225	117.16848	-109.84545	-162.734	-175.75272	-170.8707	-218.87723	0
698	-17.08707	-149.71528	-133.44188	82.99434	56.9569	-142.39225	114.72747	-112.28646	-167.61602	-175.75272	-168.42969	-218.87723	0
699	-21.96909	-152.15629	-131.00087	85.43535	54.51589	-142.39225	114.72747	-114.72747	-170.05703	-178.19373	-168.42969	-218.87723	0
700	-19.52808	-147.27427	-128.55986	82.99434	54.51589	-137.51023	117.16848	-112.28646	-170.05703	-178.19373	-168.42969	-218.87723	0
701	-14.64606	-144.83326	-131.00087	78.11232	56.9569	-137.51023	117.16848	-109.84545	-170.05703	-178.19373	-168.42969	-221.31824	0
702	-14.64606	-144.83326	-131.00087	78.11232	56.9569	-137.51023	119.60949	-109.84545	-170.05703	-178.19373	-170.8707	-226.20026	0
703	-17.08707	-144.83326	-128.55986	80.55333	54.51589	-137.51023	119.60949	-109.84545	-167.61602	-175.75272	-173.31171	-223.75925	0
704	-17.08707	-142.39225	-126.11885	78.11232	54.51589	-135.06922	122.0505	-109.84545	-162.734	-175.75272	-173.31171	-221.31824	0
705	-17.08707	-137.51023	-121.23683	75.67131	52.07488	-130.1872	126.93252	-109.84545	-160.29299	-173.31171	-170.8707	-218.87723	0
706	-17.08707	-130.1872	-113.9138	73.2303	47.19286	-122.86417	129.37353	-109.84545	-157.85198	-170.8707	-168.42969	-216.43622	0
707	-17.08707	-125.30518	-109.03178	70.78929	44.75185	-117.98215	129.37353	-104.96343	-155.41097	-168.42969	-165.98868	-213.99521	0
708	-17.08707	-113.10013	-96.82673	63.46626	39.86983	-105.7771	129.37353	-100.08141	-155.41097	-163.54767	-158.66565	-206.67218	0
709	-14.64606	-105.7771	-91.94471	58.58424	37.42882	-98.45407	129.37353	-100.08141	-152.96996	-158.66565	-151.34262	-201.79016	0
710	-12.20505	-93.57205	-82.18067	51.26121	34.98781	-88.69003	129.37353	-95.19939	-150.52895	-153.78363	-146.4606	-201.79016	0
711	-7.32303	-86.24902	-79.73966	46.37919	34.98781	-83.80801	126.93252	-95.19939	-145.64693	-148.90161	-144.01959	-199.34915	0
712	-2.44101	-83.80801	-82.18067	41.49717	39.86983	-83.80801	124.49151	-90.31737	-138.3239	-146.4606	-141.57858	-199.34915	0
713	-4.88202	-83.80801	-79.73966	43.93818	37.42882	-81.367	122.0505	-92.75838	-138.3239	-146.4606	-146.4606	-199.34915	0
714	-9.76404	-88.69003	-79.73966	48.8202	34.98781	-83.80801	122.0505	-97.6404	-138.3239	-148.90161	-151.34262	-201.79016	0
715	-2.44101	-83.80801	-82.18067	41.49717	39.86983	-83.80801	124.49151	-97.6404	-138.3239	-148.90161	-153.78363	-201.79016	0
716	0	-78.92599	-79.73966	39.05616	39.86983	-78.92599	124.49151	-97.6404	-140.76491	-153.78363	-156.22464	-204.23117	0
717	0	-76.48498	-77.29865	36.61515	37.42882	-76.48498	122.0505	-97.6404	-148.08794	-161.10666	-163.54767	-209.11319	0
718	-4.88202	-76.48498	-72.41663	39.05616	32.5468	-74.04397	117.16848	-104.96343	-160.29299	-168.42969	-165.98868	-213.99521	0
719	-2.44101	-69.16195	-67.53461	34.17414	32.5468	-69.16195	117.16848	-107.40444	-165.17501	-170.8707	-168.42969	-213.99521	0
720	0	-61.83892	-62.65259	29.29212	30.10579	-61.83892	117.16848	-107.40444	-165.17501	-170.8707	-165.98868	-213.99521	0
721	3.25468	-56.9569	-60.21158	26.85111	30.10579	-56.9569	112.28646	-109.84545	-165.17501	-168.42969	-161.10666	-213.99521	0
722	0	-61.83892	-62.65259	29.29212	30.10579	-61.83892	104.96343	-112.28646	-162.734	-168.42969	-158.66565	-213.99521	0
723	0	-64.27993	-65.0936	31.73313	32.5468	-64.27993	97.6404	-117.16848	-160.29299	-163.54767	-158.66565	-211.5542	0
724	10.57771	-61.83892	-72.41663	24.4101	39.86983	-66.72094	92.75838	-119.60949	-157.85198	-158.66565	-153.78363	-206.67218	0
725	17.90074	-56.9569	-74.85764	19.52808	44.75185	-64.27993	87.87636	-119.60949	-155.41097	-153.78363	-148.90161	-199.34915	0
726	22.78276	-59.39791	-82.18067	17.08707	52.07488	-69.16195	75.67131	-119.60949	-160.29299	-156.22464	-148.90161	-199.34915	0
727	25.22377	-61.83892	-87.06269	17.08707	54.51589	-74.04397	63.46626	-124.49151	-165.17501	-161.10666	-153.78363	-199.34915	0
728	30.10579	-59.39791	-89.5037	14.64606	59.39791	-74.04397	53.70222	-126.93252	-172.49804	-161.10666	-156.22464	-199.34915	0
729	32.5468	-59.39791	-91.94471	12.20505	61.83892	-74.04397	46.37919	-129.37353	-179.82107	-165.98868	-161.10666	-201.79016	0
730	32.5468	-64.27993	-96.82673	14.64606	64.27993	-78.92599	41.49717	-129.37353	-182.26208	-168.42969	-163.54767	-204.23117	0
731	27.66478	-69.16195	-96.82673	19.52808	61.83892	-81.367	41.49717	-129.37353	-182.26208	-168.42969	-165.98868	-206.67218	0
732	25.22377	-76.48498	-101.70875	24.4101	61.83892	-88.69003	43.93818	-122.0505	-174.93905	-165.98868	-165.98868	-206.67218	0
733	25.22377	-81.367	-106.59077	26.85111	64.27993	-93.57205	48.8202	-119.60949	-170.05703	-161.10666	-161.10666	-204.23117	0
734	25.22377	-86.24902	-111.47279	29.29212	66.72094	-98.45407	56.14323	-114.72747	-165.17501	-156.22464	-156.22464	-204.23117	0
735	17.90074	-96.01306	-113.9138	39.05616	64.27993	-103.33609	58.58424	-114.72747	-165.17501	-156.22464	-156.22464	-204.23117	0
736	17.90074	-98.45407	-116.35481	39.05616	66.72094	-105.7771	61.02525	-112.28646	-165.17501	-158.66565	-153.78363	-201.79016	0
737	15.45973	-100.89508	-116.35481	41.49717	64.27993	-108.21811	61.02525	-109.84545	-167.61602	-161.10666	-156.22464	-204.23117	0
738	17.90074	-98.45407	-116.35481	39.05616	66.72094	-105.7771	56.14323	-114.72747	-174.93905	-165.98868	-158.66565	-206.67218	0
739	17.90074	-98.45407	-116.35481	39.05616	66.72094	-105.7771	51.26121	-119.60949	-179.82107	-170.8707	-165.98868	-209.11319	0
740	13.01872	-98.45407	-111.47279	41.49717	61.83892	-103.33609	51.26121	-119.60949	-184.70309	-170.8707	-168.42969	-209.11319	0
741	13.01872	-96.01306	-109.03178	41.49717	59.39791	-100.89508	51.26121	-119.60949	-179.82107	-170.8707	-168.42969	-209.11319	0
742	15.45973	-98.45407	-113.9138	41.49717	64.27993	-105.7771	51.26121	-119.60949	-174.93905	-165.98868	-168.42969	-209.11319	0
743	15.45973	-98.45407	-113.9138	41.49717	64.27993	-105.7771	51.26121	-119.60949	-172.49804	-161.10666	-163.54767	-206.67218	0
744	10.57771	-98.45407	-109.03178	43.93818	59.39791	-103.33609	56.14323	-117.16848	-167.61602	-156.22464	-158.66565	-204.23117	0
745	3.25468	-100.89508	-104.14976	48.8202	52.07488	-100.89508	61.02525	-117.16848	-165.17501	-156.22464	-158.66565	-201.79016	0
746	-2.44101	-103.33609	-101.70875	51.26121	49.63387	-103.33609	61.02525	-114.72747	-165.17501	-158.66565	-158.66565	-201.79016	0
747	-7.32303	-103.33609	-96.82673	53.70222	44.75185	-100.89508	61.02525	-112.28646	-167.61602	-161.10666	-161.10666	-204.23117	0
748	-12.20505	-100.89508	-89.5037	56.14323	37.42882	-96.01306	61.02525	-112.28646	-174.93905	-168.42969	-168.42969	-209.11319	0
749	-17.08707	-98.45407	-82.18067	56.14323	32.5468	-91.13104	61.02525	-114.72747	-182.26208	-173.31171	-175.75272	-211.5542	0
750	-21.96909	-98.45407	-77.29865	58.58424	27.66478	-88.69003	63.46626	-117.16848	-189.58511	-180.63474	-180.63474	-218.87723	0
751	-29.29212	-105.7771	-77.29865	65.90727	22.78276	-91.13104	63.46626	-122.0505	-194.46713	-187.95777	-187.95777	-226.20026	0
752	-31.73313	-115.54114	-84.62168	73.2303	25.22377	-100.89508	63.46626	-124.49151	-194.46713	-192.83979	-192.83979	-233.52329	0
753	-31.73313	-122.86417	-91.94471	75.67131	30.10579	-108.21811	61.02525	-129.37353	-196.90814	-195.2808	-192.83979	-235.9643	0
754	-31.73313	-127.74619	-96.82673	78.11232	32.5468	-113.10013	63.46626	-131.81454	-196.90814	-197.72181	-195.2808	-238.40531	0
755	-29.29212	-127.74619	-99.26774	78.11232	34.98781	-113.10013	65.90727	-134.25555	-199.34915	-197.72181	-195.2808	-235.9643	0
756	-34.17414	-135.06922	-101.70875	82.99434	32.5468	-117.98215	63.46626	-136.69656	-204.23117	-207.48585	-197.72181	-240.84632	0
757	-34.17414	-137.51023	-104.14976	85.43535	34.98781	-120.42316	58.58424	-139.13757	-209.11319	-212.36787	-202.60383	-240.84632	0
758	-29.29212	-135.06922	-106.59077	80.55333	37.42882	-120.42316	53.70222	-141.57858	-218.87723	-214.80888	-205.04484	-240.84632	0
759	-36.61515	-137.51023	-101.70875	85.43535	32.5468	-120.42316	48.8202	-146.4606	-223.75925	-219.6909	-212.36787	-243.28733	0
760	-41.49717	-139.95124	-99.26774	90.31737	27.66478	-120.42316	46.37919	-146.4606	-228.64127	-222.13191	-217.24989	-248.16935	0
761	-51.26121	-149.71528	-99.26774	100.08141	22.78276	-125.30518	41.49717	-148.90161	-228.64127	-224.57292	-224.57292	-250.61036	0
762	-56.14323	-157.03831	-101.70875	104.96343	22.78276	-130.1872	39.05616	-148.90161	-228.64127	-227.01393	-224.57292	-255.49238	0
763	-56.14323	-159.47932	-104.14976	107.40444	22.78276	-132.62821	36.61515	-151.34262	-223.75925	-222.13191	-222.13191	-253.05137	0
764	-63.46626	-164.36134	-101.70875	112.28646	17.90074	-132.62821	39.05616	-148.90161	-218.87723	-219.6909	-219.6909	-250.61036	0
765	-58.58424	-161.92033	-104.14976	109.84545	22.78276	-132.62821	43.93818	-146.4606	-213.99521	-214.80888	-214.80888	-245.72834	0
766	-53.70222	-157.03831	-104.14976	104.96343	25.22377	-130.1872	46.37919	-144.01959	-211.5542	-214.80888	-209.92686	-245.72834	0
767	-51.26121	-157.03831	-106.59077	102.52242	27.66478	-132.62821	43.93818	-141.57858	-211.5542	-217.24989	-212.36787	-245.72834	0
768	-48.8202	-149.71528	-101.70875	97.6404	25.22377	-125.30518	43.93818	-141.57858	-218.87723	-219.6909	-212.36787	-245.72834	0
769	-46.37919	-142.39225	-96.82673	92.75838	25.22377	-120.42316	43.93818	-141.57858	-218.87723	-219.6909	-214.80888	-243.28733	0
770	-39.05616	-132.62821	-94.38572	85.43535	27.66478	-113.10013	48.8202	-139.13757	-216.43622	-217.24989	-214.80888	-243.28733	0
771	-39.05616	-132.62821	-94.38572	85.43535	27.66478	-113.10013	51.26121	-136.69656	-211.5542	-217.24989	-214.80888	-243.28733	0
772	-39.05616	-135.06922	-96.82673	85.43535	27.66478	-115.54114	51.26121	-134.25555	-209.11319	-217.24989	-214.80888	-245.72834	0
773	-39.05616	-137.51023	-99.26774	87.87636	30.10579	-117.98215	51.26121	-134.25555	-206.67218	-214.80888	-212.36787	-245.72834	0
774	-36.61515	-137.51023	-101.70875	85.43535	32.5468	-120.42316	56.14323	-131.81454	-201.79016	-212.36787	-207.48585	-240.84632	0
775	-34.17414	-132.62821	-99.26774	82.99434	32.5468	-115.54114	61.02525	-129.37353	-196.90814	-207.48585	-202.60383	-235.9643	0
776	-34.17414	-132.62821	-99.26774	82.99434	32.5468	-115.54114	61.02525	-126.93252	-196.90814	-207.48585	-200.16282	-233.52329	0
777	-34.17414	-132.62821	-99.26774	82.99434	32.5468	-115.54114	56.14323	-126.93252	-196.90814	-207.48585	-200.16282	-233.52329	0
778	-34.17414	-127.74619	-94.38572	80.55333	30.10579	-110.65912	53.70222	-126.93252	-201.79016	-209.92686	-200.16282	-233.52329	0
779	-34.17414	-125.30518	-91.94471	78.11232	27.66478	-108.21811	56.14323	-119.60949	-199.34915	-207.48585	-202.60383	-231.08228	0
780	-36.61515	-125.30518	-89.5037	80.55333	25.22377	-108.21811	65.90727	-104.96343	-189.58511	-202.60383	-202.60383	-231.08228	0
781	-43.93818	-137.51023	-94.38572	90.31737	25.22377	-115.54114	78.11232	-80.55333	-172.49804	-197.72181	-205.04484	-235.9643	0
782	-48.8202	-152.15629	-104.14976	100.08141	27.66478	-127.74619	100.08141	-43.93818	-148.08794	-190.39878	-205.04484	-245.72834	0
783	-53.70222	-166.80235	-113.9138	109.84545	30.10579	-139.95124	124.49151	-2.44101	-121.23683	-180.63474	-202.60383	-250.61036	0
784	-53.70222	-174.12538	-121.23683	112.28646	32.5468	-147.27427	153.78363	47.19286	-84.62168	-165.98868	-192.83979	-250.61036	0
785	-51.26121	-171.68437	-121.23683	109.84545	34.98781	-147.27427	187.95777	113.10013	-35.80148	-134.25555	-173.31171	-240.84632	0
786	-41.49717	-152.15629	-111.47279	95.19939	34.98781	-132.62821	217.24989	193.65346	30.91946	-90.31737	-134.25555	-213.99521	0
787	-21.96909	-125.30518	-104.14976	73.2303	39.86983	-115.54114	239.21898	279.08881	111.47279	-21.96909	-78.11232	-170.05703	0
788	0	-83.80801	-84.62168	41.49717	42.31084	-83.80801	258.74706	374.2882	211.5542	69.16195	0.81367	-106.59077	0
789	37.42882	-22.78276	-60.21158	-8.1367	47.19286	-39.86983	275.83413	491.45668	350.69177	203.4175	117.98215	-5.69569	0
790	83.80801	53.70222	-30.91946	-69.16195	56.9569	12.20505	290.48019	618.3892	519.12146	376.72921	274.20679	126.11885	0
791	137.51023	136.69656	-0.81367	-137.51023	69.16195	68.34828	292.9212	725.79364	699.7562	574.45102	462.16456	287.22551	0
792	193.65346	219.6909	26.03744	-205.85851	83.80801	124.49151	283.15716	803.90596	868.18589	779.49586	657.44536	458.09621	0
793	247.35568	310.00827	62.65259	-279.08881	93.57205	187.95777	263.62908	830.75707	1012.20548	977.21767	857.60818	636.28994	0
794	298.61689	410.08968	111.47279	-354.76012	93.57205	261.18807	224.57292	794.14192	1122.05093	1162.73443	1055.32999	819.36569	0
795	337.67305	515.05311	177.38006	-425.54941	81.367	346.62342	161.10666	679.41445	1175.75315	1316.51806	1228.6417	990.23639	0
796	357.20113	620.01654	262.81541	-489.01567	47.19286	441.82281	82.99434	484.13365	1156.22507	1419.04048	1367.77927	1134.25598	0
797	359.64214	717.65694	358.0148	-537.83587	0	539.46321	11.39138	247.35568	1082.99477	1472.7427	1460.53765	1248.98345	0
798	344.99608	807.97431	462.97823	-576.89203	-58.58424	637.10361	-47.19286	-26.85111	943.8572	1475.18371	1506.91684	1322.21375	0
799	310.82194	871.44057	560.61863	-591.53809	-124.49151	717.65694	-115.54114	-317.3313	768.10448	1426.36351	1502.03482	1353.94688	0
800	257.11972	905.61471	648.49499	-581.77405	-195.2808	778.68219	-181.44841	-602.92947	565.50065	1331.16412	1448.3326	1336.85981	0
801	191.21245	908.05572	716.84327	-550.04092	-263.62908	812.85633	-242.47366	-873.88158	338.48672	1182.26251	1333.60513	1263.62951	0
802	115.54114	861.67653	746.13539	-489.01567	-314.89029	805.5333	-305.93992	-1120.42359	79.73966	965.01262	1145.64736	1119.60992	0
803	39.86983	773.80017	733.93034	-406.02133	-346.62342	754.27209	-374.2882	-1337.67348	-196.90814	684.29647	889.34131	914.56508	0
804	-39.05616	649.30866	687.55115	-305.93992	-363.71049	668.83674	-452.40052	-1530.51327	-499.59338	344.99608	574.45102	653.37701	0
805	-114.72747	510.17109	624.08489	-198.53548	-368.59251	566.31432	-520.7488	-1696.50195	-799.83761	-18.71441	227.8276	362.89682	0
806	-180.63474	361.26948	541.09055	-91.13104	-361.26948	451.58685	-576.89203	-1816.11144	-1068.34871	-371.03352	-107.40444	69.97562	0
807	-236.77797	205.04484	441.00914	14.64606	-339.30039	322.21332	-628.15324	-1882.01871	-1292.92163	-683.4828	-417.41271	-204.23117	0
808	-273.39312	61.02525	333.6047	104.96343	-302.68524	197.72181	-659.88637	-1889.34174	-1444.26425	-922.70178	-656.63169	-426.36308	0
809	-295.36221	-49.63387	245.72834	170.8707	-270.95211	97.6404	-674.53243	-1850.28558	-1515.05354	-1071.60339	-817.73835	-582.58772	0
810	-302.68524	-120.42316	182.26208	209.92686	-244.101	31.73313	-674.53243	-1757.5272	-1497.96647	-1120.42359	-883.64562	-663.14105	0
811	-295.36221	-154.5973	140.76491	224.57292	-219.6909	-7.32303	-657.44536	-1603.74357	-1388.12102	-1069.16238	-861.67653	-668.02307	0
812	-273.39312	-157.03831	116.35481	214.80888	-195.2808	-20.34175	-623.27122	-1413.34479	-1227.01436	-956.87592	-783.56421	-626.5259	0
813	-246.54201	-130.1872	116.35481	187.95777	-183.07575	-7.32303	-572.01001	-1208.29995	-1051.26164	-822.62037	-678.60078	-555.73661	0
814	-219.6909	-86.24902	133.44188	151.34262	-178.19373	24.4101	-503.66173	-1010.57814	-875.50892	-683.4828	-561.4323	-467.86025	0
815	-195.2808	-34.98781	160.29299	114.72747	-178.19373	63.46626	-430.43143	-825.06138	-714.40226	-551.66826	-451.58685	-382.4249	0
816	-165.98868	14.64606	179.82107	75.67131	-173.31171	97.6404	-359.64214	-656.63169	-572.82368	-436.94079	-356.38746	-306.75359	0
817	-136.69656	48.8202	184.70309	43.93818	-161.10666	117.16848	-301.0579	-519.93513	-462.97823	-346.62342	-283.15716	-250.61036	0
818	-124.49151	65.90727	189.58511	29.29212	-156.22464	126.93252	-257.11972	-419.85372	-387.30692	-285.59817	-231.89595	-211.5542	0
819	-109.84545	78.11232	187.1441	14.64606	-148.90161	131.81454	-218.06356	-339.30039	-326.28167	-239.21898	-195.2808	-179.82107	0
820	-90.31737	85.43535	174.93905	1.62734	-131.81454	129.37353	-186.33043	-275.83413	-277.46147	-205.04484	-168.42969	-157.85198	0
821	-75.67131	80.55333	155.41097	-3.25468	-114.72747	117.16848	-157.03831	-222.13191	-235.9643	-178.19373	-146.4606	-143.20592	0
822	-68.34828	61.02525	128.55986	4.06835	-97.6404	95.19939	-130.1872	-175.75272	-199.34915	-156.22464	-129.37353	-135.88289	0
823	-65.90727	43.93818	109.03178	8.95037	-87.87636	75.67131	-105.7771	-136.69656	-170.05703	-134.25555	-114.72747	-123.67784	0
824	-56.14323	36.61515	91.94471	8.95037	-73.2303	63.46626	-76.48498	-97.6404	-138.3239	-112.28646	-97.6404	-111.47279	0
825	-43.93818	31.73313	74.85764	6.50936	-58.58424	53.70222	-52.07488	-65.90727	-113.9138	-95.19939	-82.99434	-99.26774	0
826	-36.61515	29.29212	65.0936	4.06835	-51.26121	46.37919	-32.5468	-36.61515	-91.94471	-80.55333	-68.34828	-91.94471	0
827	-29.29212	29.29212	57.77057	-0.81367	-43.93818	43.93818	-20.34175	-12.20505	-77.29865	-65.90727	-61.02525	-84.62168	0
828	-24.4101	31.73313	55.32956	-3.25468	-39.05616	43.93818	-13.01872	2.44101	-69.97562	-58.58424	-53.70222	-79.73966	0
829	-24.4101	31.73313	55.32956	-3.25468	-39.05616	43.93818	-8.1367	14.64606	-62.65259	-56.14323	-53.70222	-77.29865	0
830	-26.85111	31.73313	57.77057	-3.25468	-41.49717	43.93818	-5.69569	21.96909	-57.77057	-53.70222	-51.26121	-77.29865	0
831	-26.85111	34.17414	60.21158	-3.25468	-43.93818	46.37919	-3.25468	27.66478	-48.00653	-48.8202	-48.8202	-72.41663	0
832	-26.85111	31.73313	57.77057	-3.25468	-41.49717	43.93818	-3.25468	34.98781	-38.24249	-41.49717	-43.93818	-72.41663	0
833	-34.17414	19.52808	52.88855	6.50936	-43.93818	36.61515	-3.25468	37.42882	-33.36047	-36.61515	-41.49717	-72.41663	0
834	-36.61515	14.64606	50.44754	8.95037	-43.93818	31.73313	-3.25468	42.31084	-25.22377	-31.73313	-34.17414	-67.53461	0
835	-29.29212	21.96909	50.44754	4.06835	-39.05616	36.61515	4.06835	49.63387	-17.90074	-24.4101	-28.47845	-60.21158	0
836	-19.52808	31.73313	50.44754	-5.69569	-34.17414	41.49717	4.06835	59.39791	-10.57771	-18.71441	-21.15542	-55.32956	0
837	-14.64606	36.61515	50.44754	-10.57771	-31.73313	43.93818	4.06835	66.72094	-8.1367	-16.2734	-21.15542	-52.88855	0
838	-14.64606	41.49717	55.32956	-13.01872	-34.17414	48.8202	-0.81367	69.16195	-10.57771	-13.83239	-18.71441	-50.44754	0
839	-14.64606	46.37919	60.21158	-15.45973	-36.61515	53.70222	-0.81367	74.04397	-10.57771	-13.83239	-18.71441	-50.44754	0
840	-12.20505	51.26121	62.65259	-20.34175	-36.61515	56.14323	-0.81367	78.92599	-5.69569	-13.83239	-18.71441	-50.44754	0
841	-9.76404	53.70222	62.65259	-22.78276	-36.61515	58.58424	-0.81367	83.80801	1.62734	-8.95037	-16.2734	-45.56552	0
842	-7.32303	51.26121	57.77057	-22.78276	-31.73313	53.70222	-0.81367	88.69003	8.95037	-4.06835	-11.39138	-45.56552	0
843	-7.32303	48.8202	55.32956	-20.34175	-31.73313	51.26121	1.62734	96.01306	16.2734	5.69569	-6.50936	-40.6835	0
844	-4.88202	48.8202	52.88855	-22.78276	-29.29212	51.26121	6.50936	103.33609	28.47845	15.45973	5.69569	-34.98781	0
845	0	53.70222	52.88855	-27.66478	-26.85111	53.70222	11.39138	110.65912	40.6835	25.22377	15.45973	-27.66478	0
846	3.25468	56.14323	52.88855	-30.10579	-24.4101	56.14323	11.39138	117.98215	48.00653	30.10579	20.34175	-22.78276	0
847	5.69569	61.02525	55.32956	-32.5468	-24.4101	58.58424	8.95037	125.30518	50.44754	37.42882	22.78276	-17.90074	0
848	5.69569	65.90727	60.21158	-34.98781	-26.85111	63.46626	6.50936	130.1872	50.44754	42.31084	27.66478	-13.01872	0
849	10.57771	75.67131	65.0936	-42.31084	-26.85111	70.78929	6.50936	137.51023	57.77057	47.19286	32.5468	-5.69569	0
850	13.01872	82.99434	69.97562	-47.19286	-29.29212	78.11232	6.50936	144.83326	65.0936	47.19286	34.98781	-3.25468	0
851	10.57771	80.55333	69.97562	-44.75185	-29.29212	75.67131	4.06835	147.27427	69.97562	49.63387	34.98781	-0.81367	0
852	10.57771	82.99434	72.41663	-47.19286	-31.73313	78.11232	4.06835	157.03831	82.18067	59.39791	42.31084	4.06835	0
853	13.01872	82.99434	69.97562	-47.19286	-29.29212	78.11232	4.06835	164.36134	91.94471	66.72094	49.63387	8.95037	0
854	13.01872	78.11232	65.0936	-44.75185	-26.85111	73.2303	4.06835	171.68437	101.70875	74.04397	54.51589	11.39138	0
855	10.57771	78.11232	67.53461	-44.75185	-29.29212	73.2303	6.50936	179.0074	109.03178	81.367	61.83892	18.71441	0
856	8.1367	75.67131	67.53461	-42.31084	-29.29212	73.2303	6.50936	186.33043	118.79582	88.69003	66.72094	23.59643	0
857	15.45973	85.43535	69.97562	-49.63387	-26.85111	78.11232	6.50936	198.53548	128.55986	98.45407	71.60296	28.47845	0
858	15.45973	87.87636	72.41663	-52.07488	-29.29212	80.55333	4.06835	205.85851	128.55986	100.89508	76.48498	30.91946	0
859	15.45973	95.19939	79.73966	-54.51589	-31.73313	87.87636	4.06835	215.62255	135.88289	108.21811	81.367	35.80148	0
860	20.34175	104.96343	84.62168	-61.83892	-31.73313	95.19939	6.50936	225.38659	148.08794	113.10013	88.69003	43.12451	0
861	22.78276	112.28646	89.5037	-66.72094	-34.17414	102.52242	6.50936	235.15063	160.29299	122.86417	93.57205	48.00653	0
862	27.66478	114.72747	87.06269	-71.60296	-29.29212	102.52242	6.50936	247.35568	174.93905	132.62821	103.33609	52.88855	0
863	27.66478	114.72747	87.06269	-71.60296	-29.29212	102.52242	4.06835	254.67871	187.1441	144.83326	113.10013	60.21158	0
864	32.5468	119.60949	87.06269	-76.48498	-26.85111	104.96343	4.06835	266.88376	201.79016	159.47932	125.30518	69.97562	0
865	30.10579	117.16848	87.06269	-74.04397	-29.29212	102.52242	4.06835	276.6478	213.99521	169.24336	135.06922	79.73966	0
866	32.5468	122.0505	89.5037	-76.48498	-29.29212	107.40444	4.06835	291.29386	226.20026	181.44841	144.83326	87.06269	0
867	34.98781	126.93252	91.94471	-81.367	-29.29212	109.84545	4.06835	305.93992	238.40531	193.65346	152.15629	96.82673	0
868	34.98781	131.81454	96.82673	-83.80801	-31.73313	114.72747	1.62734	315.70396	248.16935	200.97649	161.92033	101.70875	0
869	39.86983	139.13757	99.26774	-88.69003	-29.29212	119.60949	-0.81367	325.468	260.3744	210.74053	166.80235	109.03178	0
870	39.86983	141.57858	101.70875	-91.13104	-31.73313	122.0505	-0.81367	337.67305	272.57945	218.06356	174.12538	113.9138	0
871	47.19286	148.90161	101.70875	-98.45407	-26.85111	126.93252	1.62734	349.8781	289.66652	230.26861	183.88942	123.67784	0
872	61.83892	156.22464	94.38572	-108.21811	-17.08707	126.93252	1.62734	366.96517	311.63561	247.35568	196.09447	128.55986	0
873	69.16195	156.22464	87.06269	-113.10013	-9.76404	122.0505	1.62734	379.17022	326.28167	259.56073	208.29952	138.3239	0
874	74.04397	156.22464	82.18067	-115.54114	-4.88202	119.60949	4.06835	393.81628	345.80975	276.6478	220.50457	148.08794	0
875	78.92599	158.66565	79.73966	-117.98215	0	119.60949	4.06835	408.46234	362.89682	291.29386	232.70962	160.29299	0
876	78.92599	158.66565	79.73966	-117.98215	0	119.60949	1.62734	425.54941	377.54288	303.49891	244.91467	167.61602	0
877	86.24902	163.54767	77.29865	-125.30518	4.88202	122.0505	-0.81367	442.63648	392.18894	315.70396	252.2377	174.93905	0
878	88.69003	168.42969	79.73966	-127.74619	4.88202	124.49151	-5.69569	457.28254	404.39399	327.90901	262.00174	182.26208	0
879	88.69003	173.31171	84.62168	-130.1872	2.44101	129.37353	-5.69569	471.9286	421.48106	340.11406	271.76578	192.02612	0
880	98.45407	183.07575	84.62168	-139.95124	7.32303	134.25555	-5.69569	489.01567	438.56813	349.8781	283.97083	199.34915	0
881	105.7771	187.95777	82.18067	-147.27427	13.01872	136.69656	-5.69569	506.10274	455.6552	362.08315	293.73487	206.67218	0
882	115.54114	195.2808	79.73966	-154.5973	17.90074	139.13757	-5.69569	525.63082	480.0653	379.17022	305.93992	213.99521	0
883	125.30518	200.16282	74.85764	-161.92033	25.22377	139.13757	-5.69569	542.71789	502.03439	401.13931	320.58598	226.20026	0
884	130.1872	202.60383	72.41663	-166.80235	30.10579	139.13757	-5.69569	562.24597	526.44449	420.66739	340.11406	238.40531	0
885	132.62821	202.60383	69.97562	-166.80235	32.5468	136.69656	-5.69569	579.33304	548.41358	437.75446	354.76012	253.05137	0
886	135.06922	205.04484	69.97562	-169.24336	32.5468	139.13757	-5.69569	598.86112	567.94166	454.84153	369.40618	262.81541	0
887	135.06922	209.92686	74.85764	-171.68437	30.10579	144.01959	-8.1367	618.3892	585.02873	471.9286	379.17022	272.57945	0
888	142.39225	219.6909	77.29865	-181.44841	32.5468	148.90161	-8.1367	637.91728	602.1158	489.01567	393.81628	282.34349	0
889	144.83326	227.01393	82.18067	-186.33043	32.5468	156.22464	-10.57771	655.00435	619.20287	501.22072	406.02133	292.10753	0
890	144.83326	227.01393	82.18067	-186.33043	32.5468	156.22464	-15.45973	669.65041	636.28994	510.98476	415.78537	296.98955	0
891	147.27427	229.45494	82.18067	-188.77144	32.5468	156.22464	-17.90074	684.29647	655.81802	523.18981	425.54941	304.31258	0
892	152.15629	229.45494	77.29865	-191.21245	37.42882	153.78363	-20.34175	701.38354	677.78711	537.83587	435.31345	311.63561	0
893	154.5973	227.01393	72.41663	-191.21245	42.31084	151.34262	-20.34175	716.0296	697.31519	554.92294	449.95951	318.95864	0
894	154.5973	222.13191	67.53461	-188.77144	44.75185	146.4606	-20.34175	728.23465	716.84327	569.569	462.16456	328.72268	0
895	157.03831	219.6909	62.65259	-188.77144	47.19286	141.57858	-20.34175	740.4397	733.93034	581.77405	474.36961	338.48672	0
896	159.47932	217.24989	57.77057	-188.77144	52.07488	139.13757	-20.34175	755.08576	748.5764	593.9791	481.69264	345.80975	0
897	166.80235	222.13191	55.32956	-193.65346	56.9569	139.13757	-22.78276	772.17283	763.22246	606.18415	489.01567	350.69177	0
898	169.24336	224.57292	55.32956	-196.09447	56.9569	141.57858	-25.22377	784.37788	772.9865	615.94819	496.3387	353.13278	0
899	171.68437	224.57292	52.88855	-198.53548	59.39791	139.13757	-27.66478	794.14192	782.75054	623.27122	496.3387	358.0148	0
900	181.44841	231.89595	50.44754	-205.85851	66.72094	141.57858	-27.66478	806.34697	797.3966	630.59425	503.66173	360.45581	0
901	183.88942	229.45494	45.56552	-205.85851	69.16195	139.13757	-27.66478	813.67	809.60165	637.91728	506.10274	362.89682	0
902	183.88942	224.57292	40.6835	-203.4175	71.60296	134.25555	-30.10579	823.43404	824.24771	645.24031	513.42577	362.89682	0
903	183.88942	219.6909	35.80148	-200.97649	74.04397	129.37353	-30.10579	828.31606	834.01175	655.00435	520.7488	367.77884	0
904	188.77144	217.24989	28.47845	-203.4175	81.367	124.49151	-27.66478	835.63909	846.2168	662.32738	528.07183	372.66086	0
905	191.21245	217.24989	26.03744	-203.4175	83.80801	122.0505	-22.78276	840.52111	851.09882	667.2094	532.95385	379.98389	0
906	193.65346	214.80888	21.15542	-203.4175	86.24902	119.60949	-22.78276	840.52111	851.09882	667.2094	532.95385	379.98389	0
907	188.77144	212.36787	23.59643	-200.97649	83.80801	119.60949	-25.22377	845.40313	846.2168	667.2094	528.07183	372.66086	0
908	191.21245	212.36787	21.15542	-200.97649	86.24902	117.16848	-27.66478	840.52111	836.45276	659.88637	520.7488	367.77884	0
909	191.21245	207.48585	16.2734	-198.53548	88.69003	112.28646	-32.5468	830.75707	824.24771	647.68132	510.98476	362.89682	0
910	193.65346	205.04484	11.39138	-198.53548	91.13104	109.84545	-34.98781	816.11101	812.04266	635.47627	501.22072	353.13278	0
911	188.77144	195.2808	6.50936	-191.21245	91.13104	102.52242	-37.42882	799.02394	797.3966	620.83021	489.01567	345.80975	0
912	186.33043	185.51676	-0.81367	-186.33043	93.57205	92.75838	-37.42882	779.49586	785.19155	606.18415	479.25163	333.6047	0
913	186.33043	178.19373	-8.1367	-181.44841	98.45407	85.43535	-37.42882	757.52677	763.22246	591.53809	467.04658	328.72268	0
914	181.44841	165.98868	-15.45973	-174.12538	98.45407	75.67131	-37.42882	730.67566	738.81236	569.569	452.40052	318.95864	0
915	179.0074	158.66565	-21.15542	-169.24336	100.89508	70.78929	-37.42882	703.82455	707.07923	547.59991	435.31345	309.1946	0
916	176.56639	153.78363	-23.59643	-164.36134	100.89508	65.90727	-32.5468	676.97344	672.90509	520.7488	413.34436	296.98955	0
917	166.80235	146.4606	-21.15542	-157.03831	93.57205	63.46626	-32.5468	647.68132	633.84893	491.45668	386.49325	277.46147	0
918	159.47932	139.13757	-21.15542	-149.71528	91.13104	61.02525	-30.10579	615.94819	592.35176	459.72355	362.08315	260.3744	0
919	152.15629	134.25555	-17.90074	-142.39225	86.24902	58.58424	-27.66478	584.21506	555.73661	427.99042	332.79103	243.28733	0
920	142.39225	122.0505	-21.15542	-132.62821	81.367	51.26121	-25.22377	550.04092	519.12146	396.25729	305.93992	221.31824	0
921	137.51023	114.72747	-23.59643	-125.30518	81.367	46.37919	-20.34175	518.30779	487.38833	369.40618	283.97083	204.23117	0
922	122.86417	97.6404	-26.03744	-110.65912	74.04397	36.61515	-17.90074	486.57466	458.09621	337.67305	259.56073	182.26208	0
923	110.65912	85.43535	-26.03744	-98.45407	69.16195	31.73313	-10.57771	454.84153	423.92207	310.82194	240.03265	165.17501	0
924	103.33609	78.11232	-26.03744	-91.13104	64.27993	26.85111	-3.25468	425.54941	392.18894	286.41184	220.50457	150.52895	0
925	86.24902	63.46626	-23.59643	-74.04397	54.51589	21.96909	1.62734	391.37527	358.0148	257.11972	196.09447	133.44188	0
926	74.04397	53.70222	-21.15542	-64.27993	47.19286	17.08707	8.95037	362.08315	318.95864	227.8276	171.68437	118.79582	0
927	59.39791	43.93818	-15.45973	-52.07488	37.42882	14.64606	13.83239	335.23204	284.7845	203.4175	147.27427	99.26774	0
928	47.19286	34.17414	-13.01872	-39.86983	30.10579	12.20505	17.08707	305.93992	245.72834	174.12538	122.86417	82.18067	0
929	39.86983	29.29212	-10.57771	-34.98781	25.22377	9.76404	24.4101	276.6478	216.43622	147.27427	98.45407	65.0936	0
930	25.22377	14.64606	-10.57771	-20.34175	17.90074	2.44101	24.4101	244.91467	189.58511	120.42316	74.04397	45.56552	0
931	15.45973	-4.88202	-21.15542	-5.69569	17.90074	-12.20505	26.85111	215.62255	160.29299	93.57205	52.07488	26.03744	0
932	5.69569	-20.34175	-26.03744	6.50936	15.45973	-22.78276	29.29212	193.65346	143.20592	76.48498	37.42882	6.50936	0
933	-4.88202	-32.5468	-28.47845	17.08707	9.76404	-30.10579	34.17414	169.24336	118.79582	56.9569	22.78276	-5.69569	0
934	-9.76404	-37.42882	-28.47845	21.96909	7.32303	-32.5468	36.61515	152.15629	99.26774	42.31084	10.57771	-15.45973	0
935	-19.52808	-47.19286	-28.47845	31.73313	2.44101	-37.42882	41.49717	132.62821	79.73966	25.22377	-4.06835	-25.22377	0
936	-29.29212	-52.07488	-23.59643	39.05616	-4.88202	-37.42882	46.37919	117.98215	55.32956	8.1367	-16.2734	-34.98781	0
937	-36.61515	-54.51589	-17.90074	43.93818	-9.76404	-37.42882	51.26121	105.7771	38.24249	-6.50936	-31.73313	-40.6835	0
938	-39.05616	-54.51589	-15.45973	46.37919	-12.20505	-34.98781	58.58424	93.57205	16.2734	-21.96909	-41.49717	-50.44754	0
939	-41.49717	-54.51589	-13.01872	46.37919	-14.64606	-34.98781	61.02525	78.92599	1.62734	-36.61515	-56.14323	-60.21158	0
940	-43.93818	-61.83892	-17.90074	51.26121	-14.64606	-39.86983	63.46626	64.27993	-8.1367	-48.8202	-65.90727	-69.97562	0
941	-46.37919	-71.60296	-26.03744	58.58424	-12.20505	-49.63387	65.90727	52.07488	-17.90074	-58.58424	-75.67131	-79.73966	0
942	-46.37919	-81.367	-35.80148	63.46626	-7.32303	-59.39791	68.34828	39.86983	-22.78276	-65.90727	-80.55333	-89.5037	0
943	-51.26121	-91.13104	-40.6835	70.78929	-7.32303	-66.72094	70.78929	30.10579	-30.91946	-73.2303	-85.43535	-94.38572	0
944	-51.26121	-98.45407	-48.00653	73.2303	-2.44101	-74.04397	70.78929	24.4101	-35.80148	-75.67131	-87.87636	-94.38572	0
945	-51.26121	-98.45407	-48.00653	73.2303	-2.44101	-74.04397	75.67131	17.08707	-43.12451	-80.55333	-92.75838	-94.38572	0
946	-53.70222	-98.45407	-45.56552	75.67131	-4.88202	-71.60296	75.67131	12.20505	-55.32956	-90.31737	-100.08141	-99.26774	0
947	-58.58424	-98.45407	-40.6835	78.11232	-9.76404	-69.16195	75.67131	7.32303	-67.53461	-97.6404	-109.84545	-104.14976	0
948	-61.02525	-98.45407	-38.24249	78.11232	-12.20505	-69.16195	75.67131	0	-79.73966	-107.40444	-117.16848	-109.03178	0
949	-61.02525	-98.45407	-38.24249	78.11232	-12.20505	-69.16195	78.11232	-9.76404	-87.06269	-114.72747	-124.49151	-113.9138	0
950	-61.02525	-98.45407	-38.24249	78.11232	-12.20505	-69.16195	80.55333	-14.64606	-87.06269	-119.60949	-131.81454	-118.79582	0
951	-65.90727	-108.21811	-43.12451	85.43535	-12.20505	-76.48498	80.55333	-21.96909	-91.94471	-122.0505	-134.25555	-126.11885	0
952	-65.90727	-115.54114	-50.44754	90.31737	-9.76404	-83.80801	78.11232	-26.85111	-89.5037	-124.49151	-134.25555	-131.00087	0
953	-61.02525	-117.98215	-57.77057	87.87636	-2.44101	-88.69003	80.55333	-31.73313	-89.5037	-122.0505	-131.81454	-131.00087	0
954	-58.58424	-120.42316	-62.65259	87.87636	0	-91.13104	82.99434	-31.73313	-89.5037	-122.0505	-131.81454	-126.11885	0
955	-56.14323	-120.42316	-65.0936	87.87636	2.44101	-93.57205	85.43535	-34.17414	-91.94471	-122.0505	-131.81454	-126.11885	0
956	-51.26121	-115.54114	-65.0936	82.99434	4.88202	-91.13104	85.43535	-36.61515	-99.26774	-126.93252	-134.25555	-126.11885	0
957	-51.26121	-115.54114	-65.0936	82.99434	4.88202	-91.13104	85.43535	-36.61515	-106.59077	-131.81454	-141.57858	-128.55986	0
958	-53.70222	-115.54114	-62.65259	82.99434	2.44101	-88.69003	85.43535	-41.49717	-116.35481	-139.13757	-144.01959	-131.00087	0
959	-56.14323	-117.98215	-62.65259	85.43535	2.44101	-91.13104	82.99434	-46.37919	-118.79582	-144.01959	-151.34262	-135.88289	0
960	-56.14323	-120.42316	-65.0936	87.87636	2.44101	-93.57205	80.55333	-51.26121	-118.79582	-148.90161	-156.22464	-143.20592	0
