samplenr	I	II	III	aVR	aVL	aVF	V1	V2	V3	V4	V5	V6	measurement
0	-17.90074	-131.81454	-114.72747	74.85764	47.19286	-124.49151	61.83892	-8.1367	10.57771	4.88202	-1.62734	-13.83239	0
1	-17.90074	-129.37353	-112.28646	72.41663	47.19286	-122.0505	61.83892	-8.1367	10.57771	1.62734	-1.62734	-16.2734	0
2	-20.34175	-129.37353	-109.84545	74.85764	44.75185	-119.60949	59.39791	-13.01872	8.1367	-0.81367	-6.50936	-21.15542	0
3	-25.22377	-126.93252	-102.52242	74.85764	37.42882	-114.72747	59.39791	-13.01872	5.69569	-3.25468	-8.95037	-23.59643	0
4	-34.98781	-129.37353	-95.19939	82.18067	30.10579	-112.28646	59.39791	-10.57771	8.1367	-0.81367	-8.95037	-23.59643	0
5	-42.31084	-129.37353	-87.87636	84.62168	22.78276	-109.84545	64.27993	-5.69569	13.01872	1.62734	-6.50936	-18.71441	0
6	-39.86983	-129.37353	-90.31737	84.62168	25.22377	-109.84545	69.16195	-3.25468	17.90074	4.88202	-1.62734	-13.83239	0
7	-37.42882	-122.0505	-85.43535	79.73966	22.78276	-104.96343	74.04397	1.62734	25.22377	12.20505	4.06835	-6.50936	0
8	-30.10579	-114.72747	-85.43535	72.41663	27.66478	-100.08141	76.48498	6.50936	32.5468	14.64606	11.39138	-1.62734	0
9	-20.34175	-104.96343	-85.43535	62.65259	32.5468	-95.19939	76.48498	8.95037	32.5468	17.08707	13.83239	0.81367	0
10	-13.01872	-95.19939	-82.99434	52.88855	34.98781	-90.31737	76.48498	8.95037	32.5468	17.08707	13.83239	0.81367	0
11	-10.57771	-90.31737	-80.55333	50.44754	34.98781	-85.43535	74.04397	8.95037	27.66478	9.76404	8.95037	-4.06835	0
12	-10.57771	-87.87636	-78.11232	48.00653	32.5468	-82.99434	69.16195	6.50936	22.78276	1.62734	4.06835	-11.39138	0
13	-13.01872	-92.75838	-80.55333	52.88855	32.5468	-87.87636	69.16195	4.06835	17.90074	-0.81367	-1.62734	-16.2734	0
14	-13.01872	-97.6404	-85.43535	55.32956	34.98781	-92.75838	66.72094	4.06835	15.45973	-3.25468	-6.50936	-21.15542	0
15	-17.90074	-100.08141	-82.99434	57.77057	32.5468	-92.75838	66.72094	6.50936	15.45973	-3.25468	-6.50936	-21.15542	0
16	-17.90074	-102.52242	-85.43535	60.21158	32.5468	-95.19939	69.16195	8.95037	17.90074	-0.81367	-1.62734	-16.2734	0
17	-15.45973	-100.08141	-85.43535	57.77057	34.98781	-92.75838	71.60296	11.39138	20.34175	1.62734	1.62734	-11.39138	0
18	-10.57771	-90.31737	-80.55333	50.44754	34.98781	-85.43535	74.04397	11.39138	25.22377	4.88202	6.50936	-4.06835	0
19	2.44101	-80.55333	-82.99434	38.24249	42.31084	-80.55333	74.04397	11.39138	25.22377	4.88202	11.39138	-4.06835	0
20	12.20505	-70.78929	-82.99434	28.47845	47.19286	-75.67131	66.72094	11.39138	20.34175	1.62734	8.95037	-4.06835	0
21	14.64606	-63.46626	-78.11232	23.59643	44.75185	-70.78929	61.83892	6.50936	15.45973	-0.81367	6.50936	-8.95037	0
22	17.08707	-61.02525	-78.11232	21.15542	47.19286	-68.34828	54.51589	1.62734	8.1367	-5.69569	-1.62734	-16.2734	0
23	17.08707	-61.02525	-78.11232	21.15542	47.19286	-68.34828	47.19286	-3.25468	2.44101	-13.01872	-6.50936	-23.59643	0
24	17.08707	-63.46626	-80.55333	23.59643	47.19286	-70.78929	39.86983	-5.69569	-2.44101	-17.90074	-11.39138	-26.03744	0
25	17.08707	-65.90727	-82.99434	23.59643	49.63387	-73.2303	37.42882	-5.69569	-2.44101	-17.90074	-11.39138	-26.03744	0
26	14.64606	-68.34828	-82.99434	26.03744	47.19286	-75.67131	34.98781	-5.69569	-2.44101	-17.90074	-11.39138	-23.59643	0
27	21.96909	-65.90727	-87.87636	21.15542	54.51589	-75.67131	37.42882	-5.69569	-2.44101	-17.90074	-8.95037	-18.71441	0
28	29.29212	-61.02525	-90.31737	16.2734	59.39791	-75.67131	34.98781	-5.69569	-2.44101	-15.45973	-6.50936	-13.83239	0
29	36.61515	-56.14323	-92.75838	8.95037	64.27993	-73.2303	30.10579	-5.69569	-7.32303	-17.90074	-6.50936	-13.83239	0
30	43.93818	-56.14323	-100.08141	5.69569	71.60296	-78.11232	24.4101	-13.01872	-14.64606	-25.22377	-11.39138	-18.71441	0
31	43.93818	-58.58424	-102.52242	5.69569	71.60296	-80.55333	21.96909	-20.34175	-21.96909	-32.5468	-18.71441	-26.03744	0
32	41.49717	-63.46626	-104.96343	11.39138	71.60296	-82.99434	14.64606	-27.66478	-29.29212	-39.86983	-26.03744	-33.36047	0
33	39.05616	-68.34828	-107.40444	13.83239	71.60296	-87.87636	9.76404	-37.42882	-36.61515	-47.19286	-33.36047	-40.6835	0
34	36.61515	-73.2303	-109.84545	18.71441	71.60296	-90.31737	7.32303	-44.75185	-41.49717	-52.07488	-38.24249	-45.56552	0
35	34.17414	-80.55333	-114.72747	23.59643	74.04397	-97.6404	7.32303	-44.75185	-41.49717	-52.07488	-38.24249	-48.00653	0
36	34.17414	-82.99434	-117.16848	23.59643	74.04397	-100.08141	12.20505	-44.75185	-36.61515	-49.63387	-35.80148	-45.56552	0
37	36.61515	-80.55333	-117.16848	21.15542	76.48498	-97.6404	19.52808	-39.86983	-31.73313	-44.75185	-30.91946	-38.24249	0
38	36.61515	-73.2303	-109.84545	18.71441	71.60296	-90.31737	24.4101	-37.42882	-24.4101	-37.42882	-23.59643	-30.91946	0
39	36.61515	-68.34828	-104.96343	16.2734	69.16195	-85.43535	26.85111	-32.5468	-17.08707	-32.5468	-16.2734	-26.03744	0
40	36.61515	-68.34828	-104.96343	16.2734	69.16195	-85.43535	26.85111	-32.5468	-17.08707	-30.10579	-16.2734	-26.03744	0
41	34.17414	-68.34828	-102.52242	16.2734	66.72094	-85.43535	30.10579	-34.98781	-14.64606	-30.10579	-16.2734	-30.91946	0
42	21.96909	-70.78929	-92.75838	23.59643	56.9569	-80.55333	30.10579	-34.98781	-14.64606	-27.66478	-16.2734	-33.36047	0
43	9.76404	-80.55333	-90.31737	35.80148	49.63387	-85.43535	30.10579	-39.86983	-14.64606	-27.66478	-16.2734	-33.36047	0
44	-2.44101	-92.75838	-90.31737	48.00653	42.31084	-90.31737	30.10579	-42.31084	-12.20505	-25.22377	-18.71441	-35.80148	0
45	-13.01872	-104.96343	-92.75838	57.77057	39.86983	-100.08141	32.5468	-42.31084	-9.76404	-20.34175	-16.2734	-33.36047	0
46	-22.78276	-114.72747	-92.75838	67.53461	34.98781	-104.96343	37.42882	-39.86983	-4.88202	-15.45973	-11.39138	-28.47845	0
47	-32.5468	-122.0505	-90.31737	77.29865	27.66478	-107.40444	42.31084	-34.98781	0	-8.1367	-6.50936	-21.15542	0
48	-34.98781	-124.49151	-90.31737	79.73966	27.66478	-107.40444	47.19286	-32.5468	2.44101	-3.25468	-1.62734	-16.2734	0
49	-30.10579	-124.49151	-95.19939	77.29865	32.5468	-109.84545	47.19286	-30.10579	5.69569	-3.25468	1.62734	-13.83239	0
50	-25.22377	-124.49151	-100.08141	74.85764	37.42882	-112.28646	47.19286	-27.66478	5.69569	-3.25468	1.62734	-13.83239	0
51	-22.78276	-124.49151	-102.52242	72.41663	39.86983	-114.72747	44.75185	-30.10579	2.44101	-5.69569	-1.62734	-18.71441	0
52	-20.34175	-126.93252	-107.40444	72.41663	42.31084	-117.16848	39.86983	-32.5468	-2.44101	-10.57771	-6.50936	-23.59643	0
53	-22.78276	-134.25555	-112.28646	77.29865	44.75185	-124.49151	37.42882	-37.42882	-4.88202	-15.45973	-13.83239	-28.47845	0
54	-25.22377	-144.01959	-119.60949	84.62168	47.19286	-131.81454	34.98781	-39.86983	-9.76404	-20.34175	-18.71441	-33.36047	0
55	-30.10579	-153.78363	-124.49151	91.94471	47.19286	-139.13757	32.5468	-39.86983	-12.20505	-20.34175	-23.59643	-38.24249	0
56	-34.98781	-163.54767	-129.37353	99.26774	47.19286	-146.4606	32.5468	-42.31084	-12.20505	-20.34175	-23.59643	-38.24249	0
57	-39.86983	-168.42969	-129.37353	104.14976	44.75185	-148.90161	34.98781	-37.42882	-9.76404	-15.45973	-21.15542	-33.36047	0
58	-42.31084	-170.8707	-129.37353	106.59077	42.31084	-151.34262	39.86983	-37.42882	-4.88202	-13.01872	-18.71441	-26.03744	0
59	-39.86983	-168.42969	-129.37353	104.14976	44.75185	-148.90161	39.86983	-32.5468	-4.88202	-10.57771	-13.83239	-21.15542	0
60	-39.86983	-161.10666	-122.0505	99.26774	39.86983	-141.57858	42.31084	-27.66478	0	-5.69569	-6.50936	-13.83239	0
61	-42.31084	-148.90161	-107.40444	94.38572	32.5468	-129.37353	49.63387	-25.22377	2.44101	-0.81367	-1.62734	-8.95037	0
62	-39.86983	-139.13757	-100.08141	89.5037	30.10579	-119.60949	52.07488	-22.78276	8.1367	1.62734	1.62734	-4.06835	0
63	-34.98781	-129.37353	-95.19939	82.18067	30.10579	-112.28646	52.07488	-25.22377	8.1367	1.62734	1.62734	-4.06835	0
64	-27.66478	-122.0505	-95.19939	74.85764	32.5468	-109.84545	47.19286	-32.5468	2.44101	1.62734	-1.62734	-8.95037	0
65	-25.22377	-122.0505	-97.6404	72.41663	34.98781	-109.84545	44.75185	-37.42882	2.44101	-3.25468	-6.50936	-18.71441	0
66	-27.66478	-134.25555	-107.40444	79.73966	39.86983	-122.0505	39.86983	-44.75185	-2.44101	-8.1367	-16.2734	-28.47845	0
67	-37.42882	-146.4606	-109.84545	91.94471	34.98781	-129.37353	37.42882	-47.19286	-7.32303	-10.57771	-23.59643	-38.24249	0
68	-52.07488	-163.54767	-112.28646	106.59077	30.10579	-139.13757	34.98781	-49.63387	-7.32303	-13.01872	-30.91946	-43.12451	0
69	-66.72094	-180.63474	-114.72747	123.67784	22.78276	-148.90161	37.42882	-47.19286	-4.88202	-13.01872	-30.91946	-43.12451	0
70	-81.367	-192.83979	-112.28646	135.88289	15.45973	-153.78363	44.75185	-39.86983	0	-8.1367	-26.03744	-38.24249	0
71	-91.13104	-197.72181	-107.40444	143.20592	8.1367	-153.78363	54.51589	-30.10579	10.57771	1.62734	-16.2734	-26.03744	0
72	-91.13104	-190.39878	-100.08141	140.76491	3.25468	-146.4606	64.27993	-20.34175	20.34175	7.32303	-4.06835	-13.83239	0
73	-76.48498	-175.75272	-100.08141	126.11885	10.57771	-139.13757	69.16195	-15.45973	27.66478	12.20505	1.62734	-4.06835	0
74	-56.9569	-158.66565	-102.52242	106.59077	22.78276	-131.81454	69.16195	-15.45973	27.66478	14.64606	4.06835	-1.62734	0
75	-42.31084	-144.01959	-102.52242	91.94471	30.10579	-124.49151	66.72094	-17.90074	25.22377	9.76404	1.62734	-6.50936	0
76	-37.42882	-139.13757	-102.52242	87.06269	32.5468	-122.0505	61.83892	-22.78276	20.34175	1.62734	-6.50936	-16.2734	0
77	-44.75185	-146.4606	-102.52242	94.38572	27.66478	-124.49151	59.39791	-25.22377	15.45973	-0.81367	-16.2734	-26.03744	0
78	-59.39791	-163.54767	-104.96343	111.47279	22.78276	-134.25555	64.27993	-22.78276	15.45973	-3.25468	-21.15542	-33.36047	0
79	-88.69003	-185.51676	-97.6404	135.88289	3.25468	-141.57858	74.04397	-13.01872	22.78276	1.62734	-21.15542	-33.36047	0
80	-115.54114	-207.48585	-92.75838	160.29299	-12.20505	-151.34262	91.13104	4.06835	34.98781	12.20505	-11.39138	-23.59643	0
81	-135.06922	-222.13191	-87.87636	177.38006	-24.4101	-156.22464	110.65912	26.03744	52.07488	29.29212	1.62734	-8.95037	0
82	-142.39225	-224.57292	-82.99434	182.26208	-31.73313	-153.78363	125.30518	48.8202	66.72094	43.93818	18.71441	4.06835	0
83	-132.62821	-207.48585	-75.67131	170.05703	-29.29212	-141.57858	127.74619	70.78929	74.04397	51.26121	28.47845	13.83239	0
84	-105.7771	-180.63474	-75.67131	143.20592	-17.08707	-129.37353	117.98215	92.75838	66.72094	46.37919	28.47845	16.2734	0
85	-74.04397	-148.90161	-75.67131	111.47279	0.81367	-112.28646	98.45407	117.16848	52.07488	34.17414	18.71441	6.50936	0
86	-37.42882	-117.16848	-80.55333	77.29865	20.34175	-100.08141	66.72094	151.34262	25.22377	7.32303	-1.62734	-13.83239	0
87	2.44101	-85.43535	-87.87636	40.6835	44.75185	-85.43535	26.85111	190.39878	-12.20505	-27.66478	-33.36047	-43.12451	0
88	53.70222	-53.70222	-107.40444	0.81367	78.92599	-80.55333	-26.85111	234.33696	-58.58424	-71.60296	-72.41663	-74.85764	0
89	109.84545	-21.96909	-131.81454	-43.12451	120.42316	-75.67131	-82.99434	278.27514	-107.40444	-115.54114	-109.03178	-106.59077	0
90	175.75272	13.01872	-163.54767	-94.38572	169.24336	-75.67131	-146.4606	317.3313	-158.66565	-159.47932	-145.64693	-133.44188	0
91	258.74706	56.9569	-202.60383	-157.85198	230.26861	-73.2303	-214.80888	339.30039	-212.36787	-203.4175	-177.38006	-157.85198	0
92	356.38746	110.65912	-246.54201	-233.52329	301.0579	-68.34828	-290.48019	339.30039	-270.95211	-247.35568	-209.11319	-177.38006	0
93	458.90988	174.12538	-285.59817	-316.51763	371.84719	-56.14323	-371.03352	314.89029	-329.53635	-291.29386	-238.40531	-199.34915	0
94	563.87331	242.47366	-322.21332	-401.95298	442.63648	-39.05616	-456.46887	263.62908	-390.5616	-337.67305	-270.13844	-221.31824	0
95	654.19068	305.93992	-349.06443	-480.0653	501.22072	-21.96909	-541.90422	180.63474	-454.02786	-386.49325	-304.31258	-245.72834	0
96	712.77492	357.20113	-356.38746	-533.76752	535.39486	0	-624.89856	73.2303	-515.05311	-430.43143	-336.04571	-270.13844	0
97	742.06704	393.81628	-349.06443	-567.94166	545.1589	22.78276	-700.56987	-52.07488	-568.75533	-469.48759	-362.89682	-289.66652	0
98	742.06704	418.22638	-324.65433	-580.14671	532.95385	47.19286	-761.59512	-193.65346	-610.2525	-496.3387	-379.98389	-299.43056	0
99	715.21593	423.1084	-292.9212	-567.94166	503.66173	66.72094	-812.85633	-359.64214	-637.10361	-510.98476	-387.30692	-299.43056	0
100	668.83674	418.22638	-251.42403	-543.53156	459.72355	83.80801	-847.03047	-545.1589	-654.19068	-510.98476	-382.4249	-282.34349	1000	P+0
101	610.2525	401.13931	-209.92686	-504.4754	410.90335	96.01306	-864.11754	-747.76273	-656.63169	-501.22072	-362.89682	-255.49238	0
102	551.66826	381.61123	-170.8707	-465.41924	362.08315	105.7771	-876.32259	-950.36656	-649.30866	-481.69264	-338.48672	-223.75925	0
103	500.40705	354.76012	-146.4606	-426.36308	323.02699	105.7771	-878.7636	-1133.44231	-637.10361	-462.16456	-311.63561	-192.02612	0
104	456.46887	320.58598	-136.69656	-387.30692	296.17588	93.57205	-868.99956	-1275.02089	-622.45755	-440.19547	-289.66652	-167.61602	0
105	407.64867	283.97083	-124.49151	-345.80975	266.88376	81.367	-844.58946	-1358.01523	-598.04745	-418.22638	-267.69743	-150.52895	0
106	346.62342	244.91467	-102.52242	-294.54854	225.38659	71.60296	-800.65128	-1372.66129	-563.87331	-391.37527	-248.16935	-133.44188	0
107	275.83413	200.97649	-75.67131	-238.40531	176.56639	64.27993	-739.62603	-1323.84109	-519.93513	-357.20113	-226.20026	-118.79582	0
108	205.04484	157.03831	-48.8202	-179.82107	127.74619	54.51589	-661.51371	-1213.99564	-466.23291	-320.58598	-201.79016	-104.14976	0
109	134.25555	113.10013	-21.96909	-123.67784	78.92599	47.19286	-568.75533	-1062.65302	-400.32564	-274.20679	-174.93905	-87.06269	0
110	68.34828	81.367	13.01872	-74.85764	27.66478	47.19286	-471.11493	-896.66434	-329.53635	-225.38659	-140.76491	-60.21158	0
111	14.64606	61.83892	47.19286	-38.24249	-17.08707	54.51589	-371.03352	-733.11667	-256.30605	-174.12538	-101.70875	-30.91946	0
112	-13.01872	49.63387	61.83892	-18.71441	-36.61515	54.51589	-283.15716	-586.65607	-190.39878	-130.1872	-67.53461	-4.06835	0
113	-17.90074	42.31084	59.39791	-11.39138	-39.05616	49.63387	-209.92686	-464.60557	-136.69656	-93.57205	-40.6835	11.39138	0
114	-13.01872	42.31084	54.51589	-13.83239	-34.17414	47.19286	-148.90161	-359.64214	-92.75838	-64.27993	-21.15542	23.59643	0
115	-7.32303	39.86983	47.19286	-16.2734	-26.85111	44.75185	-102.52242	-276.6478	-61.02525	-44.75185	-8.95037	26.03744	0
116	0	37.42882	37.42882	-18.71441	-19.52808	37.42882	-70.78929	-215.62255	-41.49717	-32.5468	-6.50936	21.15542	0
117	-2.44101	27.66478	30.10579	-11.39138	-17.08707	30.10579	-46.37919	-174.12538	-26.85111	-27.66478	-6.50936	11.39138	0
118	-20.34175	10.57771	30.10579	5.69569	-24.4101	20.34175	-26.85111	-144.83326	-17.08707	-20.34175	-6.50936	6.50936	0
119	-44.75185	-9.76404	34.98781	26.03744	-41.49717	13.01872	-9.76404	-125.30518	-4.88202	-10.57771	-6.50936	4.06835	0
120	-69.16195	-29.29212	39.86983	48.00653	-56.14323	5.69569	4.88202	-108.21811	5.69569	-0.81367	-1.62734	11.39138	0
121	-83.80801	-39.05616	44.75185	60.21158	-65.90727	2.44101	24.4101	-91.13104	22.78276	12.20505	11.39138	23.59643	0
122	-88.69003	-41.49717	47.19286	65.0936	-68.34828	2.44101	39.86983	-74.04397	39.86983	26.85111	26.03744	38.24249	0
123	-86.24902	-31.73313	54.51589	57.77057	-70.78929	10.57771	52.07488	-61.83892	52.07488	39.05616	40.6835	50.44754	0
124	-71.60296	-17.08707	54.51589	43.12451	-63.46626	17.90074	56.9569	-54.51589	56.9569	46.37919	45.56552	55.32956	0
125	-54.51589	-2.44101	52.07488	28.47845	-53.70222	25.22377	54.51589	-52.07488	54.51589	41.49717	45.56552	50.44754	0
126	-42.31084	13.01872	54.51589	13.83239	-48.8202	32.5468	47.19286	-56.9569	44.75185	31.73313	33.36047	40.6835	0
127	-44.75185	15.45973	59.39791	13.83239	-51.26121	37.42882	39.86983	-64.27993	34.98781	19.52808	21.15542	26.03744	0
128	-59.39791	5.69569	64.27993	26.03744	-61.02525	34.98781	34.98781	-69.16195	25.22377	9.76404	6.50936	13.83239	0
129	-78.92599	-7.32303	71.60296	43.12451	-75.67131	32.5468	34.98781	-66.72094	22.78276	4.88202	1.62734	8.95037	0
130	-98.45407	-24.4101	74.04397	60.21158	-87.87636	25.22377	39.86983	-61.83892	27.66478	7.32303	1.62734	13.83239	0
131	-110.65912	-34.17414	76.48498	72.41663	-95.19939	20.34175	52.07488	-52.07488	37.42882	17.08707	13.83239	28.47845	0
132	-110.65912	-36.61515	74.04397	72.41663	-92.75838	17.90074	64.27993	-39.86983	52.07488	29.29212	28.47845	45.56552	0
133	-98.45407	-31.73313	66.72094	65.0936	-82.99434	17.90074	74.04397	-30.10579	64.27993	41.49717	43.12451	62.65259	0
134	-81.367	-21.96909	59.39791	50.44754	-70.78929	17.90074	78.92599	-25.22377	71.60296	51.26121	52.88855	72.41663	0
135	-61.83892	-9.76404	52.07488	35.80148	-58.58424	20.34175	78.92599	-25.22377	74.04397	51.26121	55.32956	69.97562	0
136	-44.75185	-2.44101	42.31084	23.59643	-43.93818	20.34175	71.60296	-34.98781	64.27993	43.93818	45.56552	57.77057	0
137	-42.31084	-2.44101	39.86983	21.15542	-41.49717	17.90074	64.27993	-42.31084	56.9569	34.17414	33.36047	43.12451	0
138	-56.9569	-7.32303	49.63387	30.91946	-53.70222	20.34175	59.39791	-44.75185	49.63387	24.4101	23.59643	33.36047	0
139	-78.92599	-17.08707	61.83892	48.00653	-70.78929	22.78276	59.39791	-44.75185	49.63387	21.96909	18.71441	28.47845	0
140	-96.01306	-26.85111	69.16195	60.21158	-82.99434	20.34175	61.83892	-42.31084	49.63387	21.96909	18.71441	28.47845	0
141	-105.7771	-29.29212	76.48498	67.53461	-92.75838	22.78276	71.60296	-32.5468	56.9569	26.85111	26.03744	38.24249	0
142	-113.10013	-21.96909	91.13104	67.53461	-102.52242	34.98781	81.367	-20.34175	69.16195	41.49717	40.6835	55.32956	0
143	-105.7771	-7.32303	98.45407	55.32956	-102.52242	44.75185	91.13104	-10.57771	78.92599	48.8202	52.88855	69.97562	0
144	-83.80801	8.1367	91.13104	38.24249	-87.87636	49.63387	91.13104	-8.1367	81.367	51.26121	57.77057	74.85764	0
145	-64.27993	25.22377	88.69003	18.71441	-75.67131	56.9569	86.24902	-8.1367	76.48498	48.8202	55.32956	72.41663	0
146	-54.51589	34.98781	88.69003	8.95037	-70.78929	61.83892	78.92599	-13.01872	69.16195	41.49717	48.00653	62.65259	0
147	-54.51589	34.98781	88.69003	8.95037	-70.78929	61.83892	71.60296	-20.34175	61.83892	31.73313	35.80148	50.44754	0
148	-66.72094	27.66478	93.57205	18.71441	-80.55333	59.39791	66.72094	-27.66478	52.07488	21.96909	26.03744	38.24249	0
149	-81.367	15.45973	96.01306	33.36047	-87.87636	54.51589	64.27993	-27.66478	49.63387	19.52808	23.59643	30.91946	0
150	-103.33609	3.25468	105.7771	50.44754	-104.96343	54.51589	69.16195	-22.78276	54.51589	24.4101	26.03744	35.80148	0
151	-110.65912	-2.44101	108.21811	55.32956	-109.84545	52.07488	78.92599	-15.45973	61.83892	31.73313	35.80148	43.12451	0
152	-110.65912	3.25468	113.10013	52.88855	-112.28646	56.9569	88.69003	-5.69569	74.04397	41.49717	48.00653	57.77057	0
153	-98.45407	17.90074	115.54114	40.6835	-107.40444	66.72094	96.01306	4.06835	81.367	51.26121	60.21158	69.97562	0
154	-76.48498	37.42882	113.10013	18.71441	-95.19939	74.04397	96.01306	6.50936	83.80801	53.70222	67.53461	77.29865	0
155	-56.9569	56.9569	113.10013	0.81367	-85.43535	83.80801	91.13104	6.50936	78.92599	51.26121	67.53461	77.29865	0
156	-42.31084	71.60296	113.10013	-13.83239	-78.11232	91.13104	83.80801	-0.81367	69.16195	43.93818	57.77057	67.53461	0
157	-39.86983	74.04397	113.10013	-16.2734	-75.67131	93.57205	74.04397	-8.1367	56.9569	31.73313	43.12451	55.32956	0
158	-49.63387	69.16195	117.98215	-8.95037	-82.99434	93.57205	66.72094	-13.01872	47.19286	21.96909	33.36047	45.56552	0
159	-66.72094	59.39791	125.30518	3.25468	-95.19939	91.13104	64.27993	-13.01872	47.19286	19.52808	28.47845	40.6835	0
160	-83.80801	49.63387	132.62821	16.2734	-107.40444	91.13104	69.16195	-10.57771	47.19286	21.96909	28.47845	43.12451	0
161	-93.57205	44.75185	137.51023	23.59643	-114.72747	91.13104	76.48498	-3.25468	54.51589	29.29212	35.80148	52.88855	0
162	-93.57205	49.63387	142.39225	21.15542	-117.16848	96.01306	83.80801	6.50936	64.27993	39.05616	48.00653	67.53461	0
163	-81.367	66.72094	147.27427	5.69569	-114.72747	105.7771	88.69003	16.2734	71.60296	48.8202	62.65259	79.73966	0
164	-64.27993	86.24902	149.71528	-11.39138	-107.40444	117.98215	88.69003	21.15542	74.04397	51.26121	67.53461	87.06269	0
165	-42.31084	108.21811	149.71528	-33.36047	-95.19939	127.74619	83.80801	21.15542	69.16195	48.8202	65.0936	84.62168	0
166	-27.66478	125.30518	152.15629	-48.00653	-90.31737	137.51023	74.04397	16.2734	56.9569	39.05616	57.77057	74.85764	0
167	-27.66478	132.62821	159.47932	-52.88855	-92.75838	144.83326	66.72094	13.83239	49.63387	29.29212	45.56552	65.0936	0
168	-34.98781	130.1872	164.36134	-48.00653	-100.08141	147.27427	59.39791	8.95037	39.86983	19.52808	35.80148	52.88855	0
169	-52.07488	120.42316	171.68437	-33.36047	-112.28646	144.83326	59.39791	8.95037	37.42882	17.08707	28.47845	50.44754	0
170	-69.16195	113.10013	181.44841	-21.15542	-124.49151	147.27427	61.83892	13.83239	39.86983	19.52808	30.91946	52.88855	0
171	-78.92599	113.10013	191.21245	-16.2734	-134.25555	152.15629	71.60296	21.15542	47.19286	26.85111	40.6835	65.0936	0
172	-78.92599	117.98215	196.09447	-18.71441	-136.69656	157.03831	78.92599	30.91946	59.39791	39.05616	52.88855	82.18067	0
173	-69.16195	132.62821	200.97649	-30.91946	-134.25555	166.80235	86.24902	36.61515	66.72094	48.8202	67.53461	96.82673	0
174	-52.07488	154.5973	205.85851	-50.44754	-129.37353	179.0074	88.69003	41.49717	71.60296	56.14323	77.29865	106.59077	0
175	-32.5468	179.0074	210.74053	-72.41663	-122.0505	193.65346	83.80801	43.93818	71.60296	56.14323	79.73966	104.14976	0
176	-15.45973	196.09447	210.74053	-89.5037	-112.28646	203.4175	78.92599	39.05616	64.27993	48.8202	72.41663	96.82673	0
177	-17.90074	203.4175	220.50457	-91.94471	-119.60949	210.74053	71.60296	36.61515	56.9569	41.49717	62.65259	84.62168	0
178	-32.5468	203.4175	235.15063	-84.62168	-134.25555	218.06356	66.72094	36.61515	49.63387	31.73313	52.88855	72.41663	0
179	-44.75185	198.53548	242.47366	-77.29865	-144.01959	220.50457	66.72094	36.61515	44.75185	26.85111	45.56552	65.0936	0
180	-54.51589	196.09447	249.79669	-69.97562	-151.34262	222.94558	66.72094	43.93818	47.19286	24.4101	43.12451	65.0936	0
181	-61.83892	193.65346	254.67871	-65.0936	-158.66565	222.94558	76.48498	51.26121	54.51589	31.73313	50.44754	77.29865	0
182	-64.27993	200.97649	264.44275	-67.53461	-163.54767	232.70962	83.80801	63.46626	64.27993	41.49717	65.0936	91.94471	0
183	-54.51589	218.06356	271.76578	-82.18067	-163.54767	244.91467	93.57205	75.67131	71.60296	51.26121	77.29865	106.59077	0
184	-32.5468	240.03265	271.76578	-104.14976	-151.34262	254.67871	93.57205	82.99434	76.48498	56.14323	84.62168	113.9138	0
185	-13.01872	262.00174	274.20679	-123.67784	-144.01959	266.88376	93.57205	85.43535	76.48498	56.14323	87.06269	113.9138	0
186	-2.44101	276.6478	279.08881	-135.88289	-141.57858	279.08881	88.69003	85.43535	71.60296	51.26121	82.18067	109.03178	0
187	-4.88202	283.97083	288.85285	-138.3239	-146.4606	286.41184	83.80801	87.87636	64.27993	41.49717	72.41663	99.26774	0
188	-13.01872	283.97083	296.17588	-135.88289	-153.78363	288.85285	81.367	90.31737	59.39791	36.61515	62.65259	89.5037	0
189	-25.22377	276.6478	301.0579	-126.11885	-163.54767	288.85285	81.367	95.19939	56.9569	34.17414	57.77057	84.62168	0
190	-37.42882	269.32477	305.93992	-116.35481	-170.8707	286.41184	83.80801	100.08141	59.39791	34.17414	57.77057	84.62168	0
191	-44.75185	269.32477	313.26295	-111.47279	-178.19373	291.29386	91.13104	112.28646	66.72094	41.49717	65.0936	94.38572	0
192	-42.31084	279.08881	320.58598	-118.79582	-180.63474	298.61689	98.45407	124.49151	76.48498	51.26121	74.85764	106.59077	0
193	-27.66478	298.61689	325.468	-135.88289	-175.75272	310.82194	103.33609	134.25555	83.80801	58.58424	84.62168	116.35481	0
194	-7.32303	323.02699	330.35002	-157.85198	-168.42969	327.90901	103.33609	141.57858	86.24902	61.02525	89.5037	121.23683	0
195	12.20505	349.8781	337.67305	-179.82107	-163.54767	344.99608	98.45407	146.4606	83.80801	58.58424	89.5037	118.79582	0
196	24.4101	366.96517	342.55507	-194.46713	-158.66565	354.76012	93.57205	148.90161	78.92599	53.70222	84.62168	111.47279	0
197	26.85111	374.2882	347.43709	-199.34915	-161.10666	362.08315	86.24902	148.90161	71.60296	43.93818	74.85764	101.70875	0
198	19.52808	371.84719	352.31911	-194.46713	-165.98868	362.08315	83.80801	156.22464	66.72094	39.05616	67.53461	94.38572	0
199	2.44101	362.08315	359.64214	-182.26208	-178.19373	362.08315	86.24902	163.54767	66.72094	39.05616	67.53461	94.38572	0
200	-10.57771	352.31911	362.08315	-170.05703	-185.51676	357.20113	91.13104	173.31171	71.60296	43.93818	72.41663	99.26774	0
201	-15.45973	347.43709	362.08315	-165.17501	-187.95777	354.76012	100.89508	187.95777	83.80801	53.70222	82.18067	111.47279	0
202	-10.57771	354.76012	364.52416	-172.49804	-187.95777	359.64214	108.21811	200.16282	93.57205	61.02525	89.5037	123.67784	0
203	4.88202	366.96517	362.08315	-184.70309	-178.19373	364.52416	115.54114	212.36787	100.89508	68.34828	96.82673	131.00087	0
204	29.29212	386.49325	357.20113	-206.67218	-163.54767	371.84719	117.98215	219.6909	103.33609	68.34828	99.26774	135.88289	0
205	51.26121	403.58032	352.31911	-226.20026	-151.34262	379.17022	113.10013	224.57292	98.45407	63.46626	96.82673	131.00087	0
206	68.34828	415.78537	347.43709	-240.84632	-139.13757	381.61123	108.21811	224.57292	91.13104	56.14323	87.06269	121.23683	0
207	70.78929	413.34436	342.55507	-240.84632	-136.69656	379.17022	103.33609	229.45494	83.80801	48.8202	77.29865	109.03178	0
208	61.02525	403.58032	342.55507	-231.08228	-141.57858	374.2882	103.33609	231.89595	78.92599	41.49717	67.53461	99.26774	0
209	48.8202	388.93426	340.11406	-218.87723	-146.4606	364.52416	105.7771	236.77797	76.48498	39.05616	65.0936	94.38572	0
210	31.73313	366.96517	335.23204	-199.34915	-151.34262	352.31911	120.42316	253.86504	93.57205	51.26121	79.73966	111.47279	0
211	36.61515	366.96517	330.35002	-201.79016	-146.4606	349.8781	127.74619	263.62908	98.45407	56.14323	84.62168	116.35481	0
212	41.49717	369.40618	327.90901	-204.23117	-144.01959	349.8781	132.62821	275.83413	108.21811	63.46626	91.94471	123.67784	0
213	51.26121	369.40618	318.14497	-209.11319	-134.25555	344.99608	139.95124	285.59817	115.54114	68.34828	99.26774	128.55986	0
214	68.34828	374.2882	305.93992	-221.31824	-119.60949	340.11406	144.83326	292.9212	120.42316	73.2303	104.14976	133.44188	0
215	85.43535	379.17022	293.73487	-231.08228	-104.96343	337.67305	147.27427	302.68524	125.30518	78.11232	109.03178	135.88289	0
216	104.96343	391.37527	286.41184	-248.16935	-90.31737	340.11406	142.39225	305.12625	120.42316	73.2303	104.14976	128.55986	0
217	109.84545	381.61123	271.76578	-245.72834	-80.55333	327.90901	137.51023	305.12625	115.54114	70.78929	99.26774	121.23683	0
218	109.84545	369.40618	259.56073	-238.40531	-75.67131	315.70396	137.51023	312.44928	115.54114	70.78929	96.82673	116.35481	0
219	112.28646	357.20113	244.91467	-233.52329	-65.90727	301.0579	135.06922	314.89029	113.10013	65.90727	91.94471	109.03178	0
220	114.72747	342.55507	227.8276	-228.64127	-56.14323	286.41184	132.62821	314.89029	108.21811	58.58424	82.18067	99.26774	0
221	109.84545	325.468	215.62255	-216.43622	-53.70222	271.76578	127.74619	314.89029	103.33609	51.26121	72.41663	89.5037	0
222	104.96343	305.93992	200.97649	-204.23117	-48.8202	254.67871	122.86417	312.44928	96.01306	43.93818	62.65259	77.29865	0
223	100.08141	281.52982	181.44841	-189.58511	-41.49717	232.70962	120.42316	305.12625	88.69003	34.17414	52.88855	67.53461	0
224	90.31737	254.67871	164.36134	-172.49804	-36.61515	210.74053	120.42316	300.24423	86.24902	31.73313	45.56552	62.65259	0
225	80.55333	230.26861	149.71528	-155.41097	-34.17414	191.21245	120.42316	300.24423	86.24902	31.73313	45.56552	62.65259	0
226	75.67131	205.85851	130.1872	-140.76491	-26.85111	169.24336	125.30518	300.24423	88.69003	36.61515	50.44754	67.53461	0
227	78.11232	191.21245	113.10013	-133.44188	-17.08707	152.15629	125.30518	300.24423	93.57205	39.05616	52.88855	69.97562	0
228	82.99434	181.44841	98.45407	-131.00087	-6.50936	139.95124	125.30518	295.36221	93.57205	41.49717	55.32956	69.97562	0
229	85.43535	174.12538	88.69003	-128.55986	-1.62734	132.62821	125.30518	290.48019	93.57205	41.49717	55.32956	67.53461	0
230	85.43535	164.36134	78.92599	-123.67784	3.25468	122.86417	122.86417	283.15716	91.13104	36.61515	50.44754	62.65259	0
231	80.55333	152.15629	71.60296	-116.35481	5.69569	113.10013	120.42316	273.39312	86.24902	31.73313	43.12451	50.44754	0
232	73.2303	135.06922	61.83892	-104.14976	5.69569	98.45407	115.54114	261.18807	78.92599	24.4101	33.36047	40.6835	0
233	63.46626	113.10013	49.63387	-87.06269	8.1367	81.367	110.65912	246.54201	74.04397	17.08707	21.15542	30.91946	0
234	51.26121	88.69003	37.42882	-69.97562	8.1367	64.27993	108.21811	236.77797	69.16195	12.20505	16.2734	26.03744	0
235	36.61515	66.72094	30.10579	-50.44754	3.25468	49.63387	110.65912	229.45494	71.60296	14.64606	16.2734	28.47845	0
236	31.73313	44.75185	13.01872	-38.24249	10.57771	30.10579	110.65912	222.13191	71.60296	17.08707	18.71441	30.91946	0
237	31.73313	27.66478	-4.88202	-28.47845	17.90074	13.01872	110.65912	217.24989	74.04397	21.96909	21.15542	38.24249	0
238	31.73313	17.90074	-14.64606	-23.59643	22.78276	2.44101	110.65912	207.48585	76.48498	26.85111	26.03744	40.6835	0
239	31.73313	15.45973	-17.08707	-23.59643	25.22377	0	108.21811	200.16282	76.48498	26.85111	28.47845	43.12451	0
240	34.17414	13.01872	-21.96909	-23.59643	27.66478	-4.88202	103.33609	187.95777	74.04397	29.29212	28.47845	43.12451	0
241	31.73313	5.69569	-26.85111	-18.71441	30.10579	-9.76404	100.89508	178.19373	71.60296	24.4101	23.59643	35.80148	0
242	19.52808	-7.32303	-26.85111	-6.50936	22.78276	-17.08707	93.57205	165.98868	66.72094	21.96909	16.2734	30.91946	0
243	7.32303	-21.96909	-29.29212	5.69569	17.90074	-24.4101	91.13104	156.22464	61.83892	17.08707	11.39138	23.59643	0
244	-4.88202	-36.61515	-31.73313	21.15542	13.01872	-34.17414	88.69003	148.90161	61.83892	14.64606	6.50936	21.15542	0
245	-10.57771	-51.26121	-41.49717	30.91946	15.45973	-46.37919	88.69003	144.01959	64.27993	14.64606	6.50936	21.15542	0
246	-15.45973	-65.90727	-51.26121	40.6835	17.90074	-58.58424	88.69003	144.01959	66.72094	19.52808	6.50936	23.59643	0
247	-17.90074	-73.2303	-56.14323	45.56552	17.90074	-65.90727	93.57205	146.4606	71.60296	24.4101	11.39138	28.47845	0
248	-15.45973	-70.78929	-56.14323	43.12451	20.34175	-63.46626	93.57205	141.57858	76.48498	29.29212	16.2734	33.36047	0
249	-10.57771	-65.90727	-56.14323	38.24249	22.78276	-61.02525	88.69003	136.69656	74.04397	31.73313	16.2734	33.36047	0
250	-10.57771	-63.46626	-53.70222	35.80148	20.34175	-58.58424	83.80801	129.37353	71.60296	31.73313	16.2734	28.47845	0
251	-10.57771	-65.90727	-56.14323	38.24249	22.78276	-61.02525	81.367	122.0505	69.16195	31.73313	16.2734	26.03744	0
252	-17.90074	-68.34828	-51.26121	43.12451	15.45973	-61.02525	78.92599	114.72747	69.16195	31.73313	13.83239	21.15542	0
253	-27.66478	-78.11232	-51.26121	52.88855	10.57771	-65.90727	78.92599	104.96343	66.72094	31.73313	11.39138	18.71441	0
254	-34.98781	-92.75838	-58.58424	62.65259	10.57771	-75.67131	78.92599	100.08141	69.16195	31.73313	11.39138	18.71441	0
255	-39.86983	-102.52242	-63.46626	69.97562	10.57771	-82.99434	81.367	97.6404	71.60296	36.61515	8.95037	21.15542	0
256	-39.86983	-109.84545	-70.78929	74.85764	15.45973	-90.31737	86.24902	97.6404	78.92599	41.49717	13.83239	26.03744	0
257	-32.5468	-107.40444	-75.67131	69.97562	20.34175	-92.75838	88.69003	97.6404	83.80801	46.37919	16.2734	28.47845	0
258	-27.66478	-100.08141	-73.2303	62.65259	22.78276	-87.87636	91.13104	97.6404	86.24902	51.26121	21.15542	33.36047	1500	QRS+0
259	-20.34175	-90.31737	-70.78929	55.32956	25.22377	-80.55333	88.69003	95.19939	86.24902	51.26121	21.15542	33.36047	0
260	-13.01872	-82.99434	-70.78929	48.00653	27.66478	-78.11232	81.367	87.87636	83.80801	48.8202	18.71441	28.47845	0
261	-10.57771	-75.67131	-65.90727	43.12451	27.66478	-70.78929	76.48498	82.99434	76.48498	43.93818	13.83239	23.59643	0
262	-15.45973	-78.11232	-63.46626	45.56552	22.78276	-70.78929	74.04397	80.55333	74.04397	41.49717	8.95037	18.71441	0
263	-30.10579	-87.87636	-58.58424	57.77057	13.01872	-73.2303	74.04397	78.11232	71.60296	39.05616	8.95037	18.71441	0
264	-37.42882	-97.6404	-61.02525	67.53461	10.57771	-80.55333	74.04397	75.67131	71.60296	36.61515	6.50936	18.71441	0
265	-42.31084	-107.40444	-65.90727	74.85764	10.57771	-87.87636	71.60296	75.67131	71.60296	36.61515	6.50936	23.59643	0
266	-44.75185	-112.28646	-68.34828	77.29865	10.57771	-90.31737	74.04397	78.11232	74.04397	39.05616	6.50936	28.47845	0
267	-42.31084	-114.72747	-73.2303	77.29865	15.45973	-95.19939	76.48498	82.99434	76.48498	41.49717	6.50936	33.36047	0
268	-37.42882	-109.84545	-73.2303	72.41663	17.90074	-92.75838	76.48498	85.43535	76.48498	41.49717	8.95037	35.80148	0
269	-25.22377	-104.96343	-80.55333	65.0936	27.66478	-92.75838	74.04397	82.99434	74.04397	36.61515	6.50936	33.36047	0
270	-17.90074	-97.6404	-80.55333	57.77057	30.10579	-90.31737	69.16195	75.67131	69.16195	31.73313	1.62734	28.47845	0
271	-22.78276	-95.19939	-73.2303	57.77057	25.22377	-85.43535	66.72094	70.78929	64.27993	29.29212	-1.62734	23.59643	0
272	-32.5468	-95.19939	-63.46626	62.65259	15.45973	-80.55333	64.27993	68.34828	61.83892	24.4101	-1.62734	18.71441	0
273	-42.31084	-100.08141	-58.58424	69.97562	8.1367	-80.55333	64.27993	65.90727	61.83892	21.96909	-1.62734	16.2734	0
274	-52.07488	-107.40444	-56.14323	79.73966	0.81367	-82.99434	64.27993	65.90727	61.83892	21.96909	-1.62734	13.83239	0
275	-59.39791	-114.72747	-56.14323	87.06269	-1.62734	-85.43535	69.16195	65.90727	66.72094	26.85111	4.06835	16.2734	0
276	-59.39791	-114.72747	-56.14323	87.06269	-1.62734	-85.43535	74.04397	73.2303	71.60296	31.73313	8.95037	21.15542	0
277	-56.9569	-117.16848	-61.02525	87.06269	0.81367	-90.31737	76.48498	80.55333	76.48498	34.17414	11.39138	28.47845	0
278	-44.75185	-114.72747	-70.78929	79.73966	13.01872	-92.75838	78.92599	82.99434	76.48498	34.17414	11.39138	28.47845	0
279	-37.42882	-109.84545	-73.2303	72.41663	17.90074	-92.75838	78.92599	85.43535	76.48498	34.17414	11.39138	30.91946	0
280	-34.98781	-104.96343	-70.78929	69.97562	17.90074	-87.87636	76.48498	82.99434	74.04397	34.17414	8.95037	28.47845	0
281	-32.5468	-102.52242	-70.78929	67.53461	17.90074	-87.87636	74.04397	78.11232	69.16195	29.29212	4.06835	23.59643	0
282	-34.98781	-104.96343	-70.78929	69.97562	17.90074	-87.87636	69.16195	75.67131	66.72094	24.4101	-1.62734	16.2734	0
283	-44.75185	-107.40444	-63.46626	74.85764	8.1367	-85.43535	66.72094	73.2303	61.83892	24.4101	-4.06835	11.39138	0
284	-54.51589	-114.72747	-61.02525	84.62168	3.25468	-87.87636	66.72094	70.78929	61.83892	21.96909	-6.50936	8.95037	0
285	-59.39791	-119.60949	-61.02525	89.5037	0.81367	-90.31737	64.27993	73.2303	61.83892	24.4101	-6.50936	11.39138	0
286	-59.39791	-124.49151	-65.90727	91.94471	3.25468	-95.19939	66.72094	75.67131	66.72094	26.85111	-1.62734	13.83239	0
287	-52.07488	-124.49151	-73.2303	87.06269	10.57771	-100.08141	66.72094	80.55333	69.16195	31.73313	1.62734	18.71441	0
288	-47.19286	-119.60949	-73.2303	82.18067	13.01872	-97.6404	66.72094	80.55333	74.04397	39.05616	8.95037	26.03744	0
289	-39.86983	-112.28646	-73.2303	74.85764	15.45973	-92.75838	66.72094	82.99434	74.04397	39.05616	13.83239	28.47845	0
290	-32.5468	-107.40444	-75.67131	69.97562	20.34175	-92.75838	61.83892	78.11232	71.60296	39.05616	11.39138	26.03744	0
291	-30.10579	-104.96343	-75.67131	67.53461	22.78276	-90.31737	56.9569	75.67131	69.16195	34.17414	6.50936	21.15542	0
292	-30.10579	-104.96343	-75.67131	67.53461	22.78276	-90.31737	52.07488	75.67131	64.27993	29.29212	4.06835	16.2734	0
293	-37.42882	-107.40444	-70.78929	72.41663	15.45973	-90.31737	49.63387	75.67131	61.83892	26.85111	1.62734	13.83239	0
294	-44.75185	-112.28646	-68.34828	77.29865	10.57771	-90.31737	47.19286	73.2303	59.39791	24.4101	-1.62734	11.39138	0
295	-47.19286	-117.16848	-70.78929	82.18067	10.57771	-95.19939	44.75185	75.67131	59.39791	21.96909	-1.62734	11.39138	0
296	-52.07488	-122.0505	-70.78929	87.06269	8.1367	-97.6404	44.75185	80.55333	64.27993	26.85111	4.06835	16.2734	0
297	-49.63387	-122.0505	-73.2303	84.62168	10.57771	-97.6404	47.19286	85.43535	69.16195	31.73313	11.39138	23.59643	0
298	-42.31084	-117.16848	-75.67131	79.73966	15.45973	-97.6404	47.19286	87.87636	71.60296	36.61515	16.2734	28.47845	0
299	-34.98781	-109.84545	-75.67131	72.41663	20.34175	-92.75838	47.19286	87.87636	71.60296	39.05616	16.2734	28.47845	0
300	-27.66478	-102.52242	-75.67131	65.0936	22.78276	-90.31737	42.31084	82.99434	69.16195	36.61515	13.83239	26.03744	0
301	-25.22377	-97.6404	-73.2303	60.21158	22.78276	-85.43535	39.86983	82.99434	64.27993	31.73313	8.95037	18.71441	0
302	-25.22377	-95.19939	-70.78929	60.21158	22.78276	-82.99434	34.98781	80.55333	61.83892	29.29212	4.06835	13.83239	0
303	-22.78276	-97.6404	-75.67131	60.21158	25.22377	-87.87636	30.10579	80.55333	56.9569	24.4101	-1.62734	8.95037	0
304	-27.66478	-102.52242	-75.67131	65.0936	22.78276	-90.31737	30.10579	82.99434	56.9569	21.96909	-1.62734	6.50936	0
305	-32.5468	-107.40444	-75.67131	69.97562	20.34175	-92.75838	30.10579	85.43535	56.9569	21.96909	-1.62734	8.95037	0
306	-30.10579	-109.84545	-80.55333	69.97562	25.22377	-95.19939	32.5468	92.75838	59.39791	26.85111	1.62734	16.2734	0
307	-22.78276	-109.84545	-87.87636	65.0936	32.5468	-100.08141	34.98781	100.08141	64.27993	31.73313	8.95037	21.15542	0
308	-17.90074	-107.40444	-90.31737	62.65259	34.98781	-100.08141	37.42882	104.96343	69.16195	36.61515	13.83239	28.47845	0
309	-13.01872	-104.96343	-92.75838	57.77057	39.86983	-100.08141	37.42882	107.40444	69.16195	36.61515	16.2734	28.47845	0
310	-13.01872	-102.52242	-90.31737	57.77057	37.42882	-97.6404	34.98781	102.52242	69.16195	36.61515	16.2734	26.03744	0
311	-15.45973	-104.96343	-90.31737	60.21158	37.42882	-97.6404	32.5468	97.6404	69.16195	36.61515	13.83239	23.59643	0
312	-20.34175	-109.84545	-90.31737	65.0936	34.98781	-100.08141	26.85111	95.19939	64.27993	34.17414	8.95037	16.2734	0
313	-34.98781	-117.16848	-82.99434	74.85764	22.78276	-100.08141	26.85111	90.31737	61.83892	31.73313	4.06835	11.39138	0
314	-44.75185	-124.49151	-80.55333	84.62168	17.90074	-102.52242	21.96909	87.87636	59.39791	29.29212	-1.62734	6.50936	0
315	-52.07488	-131.81454	-80.55333	91.94471	13.01872	-107.40444	19.52808	87.87636	59.39791	29.29212	-1.62734	6.50936	0
316	-54.51589	-134.25555	-80.55333	94.38572	13.01872	-107.40444	21.96909	92.75838	64.27993	31.73313	4.06835	11.39138	0
317	-47.19286	-134.25555	-87.87636	89.5037	20.34175	-112.28646	21.96909	95.19939	64.27993	34.17414	8.95037	16.2734	0
318	-39.86983	-129.37353	-90.31737	84.62168	25.22377	-109.84545	21.96909	97.6404	64.27993	36.61515	13.83239	21.15542	0
319	-32.5468	-126.93252	-95.19939	79.73966	30.10579	-112.28646	19.52808	100.08141	61.83892	36.61515	13.83239	23.59643	0
320	-27.66478	-122.0505	-95.19939	74.85764	32.5468	-109.84545	14.64606	92.75838	59.39791	34.17414	11.39138	21.15542	0
321	-25.22377	-119.60949	-95.19939	72.41663	34.98781	-107.40444	14.64606	87.87636	54.51589	34.17414	8.95037	16.2734	0
322	-32.5468	-124.49151	-92.75838	77.29865	30.10579	-109.84545	9.76404	85.43535	49.63387	29.29212	4.06835	11.39138	0
323	-44.75185	-131.81454	-87.87636	87.06269	20.34175	-109.84545	7.32303	80.55333	44.75185	21.96909	-4.06835	4.06835	0
324	-52.07488	-139.13757	-87.87636	94.38572	17.90074	-114.72747	4.88202	78.11232	44.75185	19.52808	-8.95037	0.81367	0
325	-56.9569	-144.01959	-87.87636	99.26774	15.45973	-117.16848	7.32303	78.11232	44.75185	19.52808	-11.39138	-1.62734	0
326	-61.83892	-148.90161	-87.87636	104.14976	13.01872	-119.60949	9.76404	80.55333	49.63387	21.96909	-6.50936	0.81367	0
327	-59.39791	-148.90161	-90.31737	104.14976	15.45973	-119.60949	14.64606	82.99434	49.63387	24.4101	-6.50936	6.50936	0
328	-54.51589	-146.4606	-92.75838	99.26774	17.90074	-119.60949	14.64606	82.99434	49.63387	24.4101	-4.06835	11.39138	0
329	-47.19286	-141.57858	-95.19939	94.38572	22.78276	-119.60949	12.20505	82.99434	49.63387	24.4101	-4.06835	11.39138	0
330	-39.86983	-136.69656	-97.6404	87.06269	27.66478	-117.16848	9.76404	75.67131	44.75185	19.52808	-8.95037	8.95037	0
331	-39.86983	-136.69656	-97.6404	87.06269	27.66478	-117.16848	7.32303	73.2303	39.86983	17.08707	-11.39138	6.50936	0
332	-44.75185	-139.13757	-95.19939	91.94471	25.22377	-117.16848	4.88202	70.78929	34.98781	14.64606	-16.2734	0.81367	0
333	-49.63387	-146.4606	-97.6404	96.82673	22.78276	-122.0505	4.88202	68.34828	32.5468	12.20505	-21.15542	-4.06835	0
334	-56.9569	-153.78363	-97.6404	104.14976	20.34175	-126.93252	4.88202	68.34828	32.5468	12.20505	-21.15542	-4.06835	0
335	-56.9569	-161.10666	-104.96343	109.03178	22.78276	-134.25555	7.32303	70.78929	34.98781	14.64606	-18.71441	-4.06835	0
336	-56.9569	-165.98868	-109.84545	111.47279	25.22377	-139.13757	12.20505	75.67131	39.86983	17.08707	-16.2734	0.81367	0
337	-52.07488	-168.42969	-117.16848	109.03178	32.5468	-144.01959	14.64606	80.55333	42.31084	21.96909	-11.39138	4.06835	0
338	-47.19286	-168.42969	-122.0505	106.59077	37.42882	-146.4606	17.08707	82.99434	44.75185	26.85111	-6.50936	11.39138	0
339	-42.31084	-163.54767	-122.0505	101.70875	39.86983	-144.01959	17.08707	82.99434	44.75185	29.29212	-4.06835	13.83239	0
340	-37.42882	-163.54767	-126.93252	99.26774	44.75185	-146.4606	17.08707	80.55333	44.75185	29.29212	-4.06835	13.83239	0
341	-37.42882	-163.54767	-126.93252	99.26774	44.75185	-146.4606	17.08707	73.2303	39.86983	29.29212	-6.50936	11.39138	0
342	-44.75185	-165.98868	-122.0505	104.14976	37.42882	-144.01959	12.20505	68.34828	37.42882	29.29212	-8.95037	11.39138	0
343	-52.07488	-168.42969	-117.16848	109.03178	32.5468	-144.01959	9.76404	63.46626	37.42882	29.29212	-8.95037	8.95037	0
344	-59.39791	-170.8707	-112.28646	113.9138	25.22377	-141.57858	9.76404	56.14323	37.42882	29.29212	-8.95037	6.50936	0
345	-64.27993	-173.31171	-109.84545	118.79582	22.78276	-141.57858	12.20505	56.14323	37.42882	31.73313	-6.50936	8.95037	0
346	-66.72094	-175.75272	-109.84545	121.23683	20.34175	-144.01959	14.64606	56.14323	39.86983	31.73313	-4.06835	11.39138	0
347	-59.39791	-173.31171	-114.72747	116.35481	27.66478	-144.01959	17.08707	58.58424	39.86983	31.73313	-4.06835	13.83239	0
348	-47.19286	-168.42969	-122.0505	106.59077	37.42882	-146.4606	19.52808	58.58424	39.86983	31.73313	-4.06835	13.83239	0
349	-39.86983	-163.54767	-124.49151	101.70875	42.31084	-144.01959	19.52808	61.02525	37.42882	29.29212	-4.06835	13.83239	0
350	-34.98781	-158.66565	-124.49151	96.82673	44.75185	-141.57858	19.52808	61.02525	30.10579	24.4101	-8.95037	8.95037	-1500	QRS-0
351	-30.10579	-153.78363	-124.49151	91.94471	47.19286	-139.13757	14.64606	56.14323	22.78276	17.08707	-16.2734	4.06835	0
352	-25.22377	-153.78363	-129.37353	89.5037	52.07488	-141.57858	7.32303	53.70222	15.45973	9.76404	-26.03744	-4.06835	0
353	-32.5468	-158.66565	-126.93252	94.38572	47.19286	-144.01959	4.88202	51.26121	13.01872	4.88202	-33.36047	-6.50936	0
354	-42.31084	-163.54767	-122.0505	101.70875	39.86983	-144.01959	4.88202	51.26121	10.57771	1.62734	-38.24249	-6.50936	0
355	-47.19286	-165.98868	-119.60949	106.59077	34.98781	-144.01959	7.32303	51.26121	10.57771	1.62734	-38.24249	-6.50936	0
356	-44.75185	-168.42969	-124.49151	106.59077	39.86983	-146.4606	7.32303	53.70222	10.57771	1.62734	-40.6835	-4.06835	0
357	-37.42882	-165.98868	-129.37353	101.70875	44.75185	-148.90161	12.20505	56.14323	15.45973	9.76404	-35.80148	0.81367	0
358	-32.5468	-161.10666	-129.37353	96.82673	47.19286	-146.4606	14.64606	61.02525	20.34175	14.64606	-28.47845	4.06835	0
359	-25.22377	-151.34262	-126.93252	87.06269	49.63387	-139.13757	17.08707	61.02525	22.78276	17.08707	-26.03744	6.50936	0
360	-15.45973	-141.57858	-126.93252	77.29865	54.51589	-134.25555	14.64606	56.14323	22.78276	17.08707	-26.03744	4.06835	0
361	-10.57771	-131.81454	-122.0505	69.97562	54.51589	-126.93252	12.20505	53.70222	20.34175	17.08707	-23.59643	0.81367	0
362	-10.57771	-129.37353	-119.60949	69.97562	54.51589	-124.49151	12.20505	48.8202	20.34175	17.08707	-23.59643	-1.62734	0
363	-17.90074	-131.81454	-114.72747	74.85764	47.19286	-124.49151	12.20505	48.8202	17.90074	17.08707	-26.03744	-4.06835	0
364	-22.78276	-136.69656	-114.72747	79.73966	44.75185	-126.93252	12.20505	46.37919	17.90074	17.08707	-26.03744	-4.06835	0
365	-27.66478	-144.01959	-117.16848	84.62168	44.75185	-131.81454	12.20505	48.8202	17.90074	19.52808	-21.15542	0.81367	0
366	-30.10579	-148.90161	-119.60949	89.5037	44.75185	-134.25555	17.08707	53.70222	25.22377	24.4101	-13.83239	6.50936	0
367	-27.66478	-153.78363	-126.93252	89.5037	49.63387	-141.57858	19.52808	58.58424	27.66478	29.29212	-8.95037	16.2734	0
368	-20.34175	-153.78363	-134.25555	87.06269	56.9569	-144.01959	21.96909	63.46626	30.10579	31.73313	-4.06835	21.15542	0
369	-15.45973	-153.78363	-139.13757	84.62168	61.83892	-146.4606	21.96909	63.46626	30.10579	31.73313	-4.06835	23.59643	0
370	-10.57771	-146.4606	-136.69656	77.29865	61.83892	-141.57858	17.08707	56.14323	27.66478	31.73313	-6.50936	21.15542	0
371	-10.57771	-139.13757	-129.37353	74.85764	59.39791	-134.25555	12.20505	51.26121	22.78276	24.4101	-11.39138	13.83239	0
372	-10.57771	-131.81454	-122.0505	69.97562	54.51589	-126.93252	4.88202	43.93818	15.45973	19.52808	-18.71441	6.50936	0
373	-15.45973	-126.93252	-112.28646	69.97562	47.19286	-119.60949	2.44101	39.05616	13.01872	14.64606	-21.15542	0.81367	0
374	-27.66478	-124.49151	-97.6404	74.85764	34.98781	-112.28646	2.44101	39.05616	13.01872	17.08707	-21.15542	0.81367	0
375	-37.42882	-124.49151	-87.87636	79.73966	25.22377	-107.40444	2.44101	36.61515	17.90074	19.52808	-16.2734	0.81367	0
376	-39.86983	-119.60949	-80.55333	79.73966	20.34175	-100.08141	4.88202	41.49717	20.34175	24.4101	-8.95037	8.95037	0
377	-39.86983	-119.60949	-80.55333	79.73966	20.34175	-100.08141	9.76404	48.8202	27.66478	31.73313	-1.62734	13.83239	0
378	-37.42882	-117.16848	-80.55333	77.29865	20.34175	-100.08141	12.20505	56.14323	30.10579	34.17414	1.62734	21.15542	0
379	-32.5468	-117.16848	-85.43535	74.85764	25.22377	-102.52242	14.64606	58.58424	30.10579	36.61515	1.62734	21.15542	0
380	-25.22377	-114.72747	-90.31737	69.97562	32.5468	-102.52242	12.20505	58.58424	27.66478	31.73313	-1.62734	18.71441	0
381	-20.34175	-109.84545	-90.31737	65.0936	34.98781	-100.08141	9.76404	56.14323	20.34175	26.85111	-6.50936	16.2734	0
382	-17.90074	-109.84545	-92.75838	62.65259	37.42882	-102.52242	4.88202	53.70222	15.45973	19.52808	-13.83239	8.95037	0
383	-20.34175	-112.28646	-92.75838	65.0936	34.98781	-102.52242	4.88202	51.26121	10.57771	14.64606	-21.15542	0.81367	0
384	-25.22377	-112.28646	-87.87636	67.53461	30.10579	-100.08141	4.88202	51.26121	10.57771	14.64606	-21.15542	0.81367	0
385	-27.66478	-112.28646	-85.43535	69.97562	27.66478	-100.08141	4.88202	51.26121	13.01872	17.08707	-18.71441	0.81367	0
386	-25.22377	-112.28646	-87.87636	67.53461	30.10579	-100.08141	7.32303	56.14323	15.45973	19.52808	-16.2734	0.81367	0
387	-20.34175	-112.28646	-92.75838	65.0936	34.98781	-102.52242	9.76404	61.02525	20.34175	24.4101	-11.39138	6.50936	0
388	-15.45973	-107.40444	-92.75838	60.21158	37.42882	-100.08141	12.20505	61.02525	22.78276	26.85111	-6.50936	11.39138	0
389	-10.57771	-100.08141	-90.31737	55.32956	39.86983	-95.19939	12.20505	61.02525	22.78276	26.85111	-4.06835	13.83239	0
390	-2.44101	-90.31737	-87.87636	45.56552	42.31084	-87.87636	9.76404	58.58424	20.34175	26.85111	-6.50936	16.2734	0
391	7.32303	-80.55333	-87.87636	35.80148	47.19286	-82.99434	2.44101	53.70222	15.45973	21.96909	-11.39138	13.83239	0
392	12.20505	-75.67131	-87.87636	30.91946	49.63387	-80.55333	-4.88202	48.8202	8.1367	14.64606	-16.2734	8.95037	0
393	7.32303	-70.78929	-78.11232	30.91946	42.31084	-73.2303	-9.76404	43.93818	5.69569	14.64606	-18.71441	6.50936	0
394	7.32303	-68.34828	-75.67131	30.91946	39.86983	-70.78929	-12.20505	41.49717	2.44101	12.20505	-21.15542	6.50936	0
395	7.32303	-63.46626	-70.78929	28.47845	37.42882	-65.90727	-14.64606	39.05616	2.44101	12.20505	-18.71441	6.50936	0
396	9.76404	-61.02525	-70.78929	26.03744	39.86983	-65.90727	-17.08707	36.61515	2.44101	12.20505	-16.2734	11.39138	0
397	17.08707	-56.14323	-73.2303	18.71441	44.75185	-63.46626	-19.52808	33.36047	2.44101	14.64606	-11.39138	16.2734	0
398	24.4101	-46.37919	-70.78929	11.39138	47.19286	-58.58424	-24.4101	28.47845	2.44101	14.64606	-8.95037	18.71441	0
399	39.05616	-36.61515	-75.67131	-1.62734	56.9569	-56.14323	-31.73313	16.2734	-2.44101	9.76404	-8.95037	18.71441	0
400	53.70222	-26.85111	-80.55333	-13.83239	66.72094	-53.70222	-39.05616	1.62734	-9.76404	4.88202	-13.83239	13.83239	0
401	61.02525	-24.4101	-85.43535	-18.71441	71.60296	-53.70222	-48.8202	-10.57771	-17.08707	-0.81367	-18.71441	8.95037	0
402	61.02525	-26.85111	-87.87636	-16.2734	74.04397	-56.14323	-58.58424	-25.22377	-26.85111	-5.69569	-23.59643	0.81367	0
403	46.37919	-31.73313	-78.11232	-6.50936	61.83892	-53.70222	-61.02525	-37.42882	-29.29212	-5.69569	-26.03744	-1.62734	0
404	31.73313	-39.05616	-70.78929	3.25468	49.63387	-53.70222	-63.46626	-47.19286	-31.73313	-5.69569	-26.03744	-1.62734	0
405	26.85111	-46.37919	-73.2303	8.95037	49.63387	-58.58424	-65.90727	-56.9569	-31.73313	-5.69569	-26.03744	-1.62734	0
406	21.96909	-51.26121	-73.2303	13.83239	47.19286	-61.02525	-63.46626	-59.39791	-26.85111	-3.25468	-23.59643	-1.62734	0
407	21.96909	-51.26121	-73.2303	13.83239	47.19286	-61.02525	-58.58424	-61.83892	-24.4101	-3.25468	-21.15542	-1.62734	0
408	24.4101	-48.8202	-73.2303	11.39138	47.19286	-61.02525	-56.14323	-66.72094	-21.96909	-3.25468	-21.15542	-1.62734	0
409	29.29212	-43.93818	-73.2303	5.69569	49.63387	-58.58424	-56.14323	-71.60296	-21.96909	-3.25468	-26.03744	-4.06835	0
410	36.61515	-41.49717	-78.11232	3.25468	56.9569	-58.58424	-56.14323	-78.92599	-26.85111	-8.1367	-30.91946	-8.95037	0
411	36.61515	-43.93818	-80.55333	3.25468	56.9569	-61.02525	-58.58424	-83.80801	-31.73313	-13.01872	-38.24249	-16.2734	0
412	24.4101	-48.8202	-73.2303	11.39138	47.19286	-61.02525	-58.58424	-88.69003	-31.73313	-17.90074	-43.12451	-18.71441	0
413	12.20505	-58.58424	-70.78929	23.59643	39.86983	-63.46626	-58.58424	-91.13104	-31.73313	-17.90074	-43.12451	-21.15542	0
414	-2.44101	-70.78929	-68.34828	35.80148	32.5468	-68.34828	-58.58424	-96.01306	-29.29212	-15.45973	-38.24249	-18.71441	0
415	-10.57771	-82.99434	-73.2303	45.56552	30.10579	-78.11232	-56.14323	-96.01306	-26.85111	-10.57771	-33.36047	-13.83239	0
416	-15.45973	-95.19939	-80.55333	55.32956	32.5468	-87.87636	-51.26121	-93.57205	-19.52808	-3.25468	-28.47845	-8.95037	0
417	-15.45973	-102.52242	-87.87636	57.77057	34.98781	-95.19939	-46.37919	-88.69003	-14.64606	-0.81367	-23.59643	-4.06835	0
418	-10.57771	-107.40444	-97.6404	57.77057	42.31084	-102.52242	-43.93818	-86.24902	-9.76404	1.62734	-21.15542	-4.06835	0
419	-10.57771	-112.28646	-102.52242	60.21158	44.75185	-107.40444	-41.49717	-86.24902	-9.76404	1.62734	-21.15542	-1.62734	0
420	-10.57771	-114.72747	-104.96343	62.65259	47.19286	-109.84545	-41.49717	-88.69003	-12.20505	1.62734	-23.59643	-4.06835	0
421	-13.01872	-119.60949	-107.40444	65.0936	47.19286	-114.72747	-43.93818	-93.57205	-14.64606	-0.81367	-28.47845	-8.95037	0
422	-15.45973	-126.93252	-112.28646	69.97562	47.19286	-119.60949	-46.37919	-98.45407	-17.08707	-5.69569	-33.36047	-13.83239	0
423	-22.78276	-134.25555	-112.28646	77.29865	44.75185	-124.49151	-48.8202	-100.89508	-19.52808	-5.69569	-33.36047	-13.83239	0
424	-34.98781	-144.01959	-109.84545	89.5037	37.42882	-126.93252	-48.8202	-105.7771	-19.52808	-0.81367	-33.36047	-13.83239	0
425	-47.19286	-148.90161	-102.52242	96.82673	27.66478	-126.93252	-48.8202	-108.21811	-17.08707	1.62734	-28.47845	-8.95037	0
426	-52.07488	-156.22464	-104.96343	104.14976	25.22377	-131.81454	-46.37919	-105.7771	-12.20505	4.88202	-21.15542	-1.62734	0
427	-47.19286	-156.22464	-109.84545	101.70875	30.10579	-134.25555	-43.93818	-100.89508	-7.32303	9.76404	-18.71441	0.81367	0
428	-47.19286	-156.22464	-109.84545	101.70875	30.10579	-134.25555	-43.93818	-98.45407	-7.32303	12.20505	-16.2734	4.06835	0
429	-47.19286	-153.78363	-107.40444	99.26774	30.10579	-131.81454	-43.93818	-96.01306	-7.32303	9.76404	-16.2734	4.06835	0
430	-47.19286	-148.90161	-102.52242	96.82673	27.66478	-126.93252	-43.93818	-98.45407	-9.76404	9.76404	-16.2734	0.81367	0
431	-47.19286	-144.01959	-97.6404	94.38572	25.22377	-122.0505	-46.37919	-98.45407	-12.20505	7.32303	-18.71441	-1.62734	0
432	-52.07488	-144.01959	-92.75838	96.82673	20.34175	-119.60949	-48.8202	-103.33609	-14.64606	4.88202	-21.15542	-6.50936	0
433	-61.83892	-146.4606	-85.43535	104.14976	10.57771	-117.16848	-48.8202	-105.7771	-14.64606	4.88202	-23.59643	-8.95037	0
434	-69.16195	-148.90161	-80.55333	109.03178	5.69569	-114.72747	-48.8202	-105.7771	-14.64606	4.88202	-23.59643	-8.95037	0
435	-69.16195	-151.34262	-82.99434	109.03178	5.69569	-117.16848	-46.37919	-105.7771	-12.20505	7.32303	-21.15542	-6.50936	0
436	-71.60296	-156.22464	-85.43535	113.9138	5.69569	-122.0505	-41.49717	-100.89508	-4.88202	12.20505	-13.83239	0.81367	0
437	-69.16195	-156.22464	-87.87636	111.47279	8.1367	-122.0505	-39.05616	-96.01306	0	17.08707	-8.95037	4.06835	0
438	-61.83892	-156.22464	-95.19939	109.03178	15.45973	-126.93252	-34.17414	-91.13104	2.44101	19.52808	-6.50936	6.50936	0
439	-54.51589	-151.34262	-97.6404	101.70875	20.34175	-124.49151	-34.17414	-88.69003	2.44101	19.52808	-8.95037	6.50936	0
440	-49.63387	-148.90161	-100.08141	99.26774	25.22377	-124.49151	-36.61515	-93.57205	2.44101	17.08707	-8.95037	4.06835	0
441	-49.63387	-146.4606	-97.6404	96.82673	22.78276	-122.0505	-41.49717	-96.01306	0	14.64606	-11.39138	0.81367	0
442	-54.51589	-146.4606	-92.75838	99.26774	17.90074	-119.60949	-43.93818	-98.45407	-2.44101	12.20505	-13.83239	-1.62734	0
443	-56.9569	-148.90161	-92.75838	101.70875	17.90074	-122.0505	-51.26121	-100.89508	-9.76404	7.32303	-18.71441	-8.95037	0
444	-64.27993	-148.90161	-85.43535	106.59077	10.57771	-117.16848	-53.70222	-100.89508	-9.76404	4.88202	-21.15542	-8.95037	0
445	-69.16195	-148.90161	-80.55333	109.03178	5.69569	-114.72747	-56.14323	-98.45407	-9.76404	4.88202	-18.71441	-8.95037	0
446	-76.48498	-148.90161	-73.2303	111.47279	-1.62734	-112.28646	-51.26121	-91.13104	-4.88202	9.76404	-13.83239	-4.06835	0
447	-78.92599	-148.90161	-70.78929	113.9138	-4.06835	-109.84545	-46.37919	-81.367	2.44101	14.64606	-8.95037	0.81367	0
448	-74.04397	-148.90161	-75.67131	111.47279	0.81367	-112.28646	-39.05616	-74.04397	5.69569	17.08707	-4.06835	0.81367	0
449	-74.04397	-148.90161	-75.67131	111.47279	0.81367	-112.28646	-31.73313	-64.27993	10.57771	21.96909	-1.62734	6.50936	0
450	-78.92599	-151.34262	-73.2303	113.9138	-4.06835	-112.28646	-21.96909	-56.9569	17.90074	26.85111	1.62734	8.95037	0
451	-81.367	-158.66565	-78.11232	118.79582	-1.62734	-119.60949	-14.64606	-47.19286	20.34175	31.73313	1.62734	6.50936	0
452	-88.69003	-168.42969	-80.55333	128.55986	-4.06835	-124.49151	-4.88202	-34.98781	25.22377	31.73313	1.62734	4.06835	0
453	-98.45407	-178.19373	-80.55333	138.3239	-9.76404	-129.37353	2.44101	-25.22377	27.66478	34.17414	-1.62734	4.06835	0
454	-110.65912	-185.51676	-75.67131	148.08794	-19.52808	-131.81454	9.76404	-13.01872	32.5468	39.05616	1.62734	4.06835	0
455	-117.98215	-190.39878	-73.2303	152.96996	-24.4101	-131.81454	9.76404	-8.1367	32.5468	39.05616	4.06835	4.06835	0
456	-115.54114	-187.95777	-73.2303	150.52895	-21.96909	-131.81454	4.88202	1.62734	30.10579	39.05616	6.50936	4.06835	0
457	-103.33609	-178.19373	-75.67131	140.76491	-14.64606	-126.93252	-4.88202	18.71441	25.22377	36.61515	8.95037	6.50936	0
458	-81.367	-158.66565	-78.11232	118.79582	-1.62734	-119.60949	-19.52808	36.61515	13.01872	26.85111	4.06835	4.06835	0
459	-42.31084	-129.37353	-87.87636	84.62168	22.78276	-109.84545	-46.37919	65.90727	-9.76404	9.76404	-4.06835	-4.06835	0
460	12.20505	-92.75838	-104.96343	40.6835	56.9569	-97.6404	-85.43535	95.19939	-41.49717	-15.45973	-26.03744	-21.15542	0
461	78.11232	-46.37919	-124.49151	-16.2734	100.89508	-85.43535	-136.69656	124.49151	-85.43535	-54.51589	-55.32956	-45.56552	0
462	153.78363	5.69569	-148.90161	-79.73966	152.15629	-70.78929	-197.72181	141.57858	-139.13757	-100.89508	-91.94471	-79.73966	0
463	236.77797	66.72094	-170.8707	-150.52895	203.4175	-51.26121	-270.95211	136.69656	-200.16282	-154.5973	-135.88289	-113.9138	0
464	324.65433	132.62821	-192.83979	-228.64127	259.56073	-29.29212	-346.62342	114.72747	-263.62908	-208.29952	-179.82107	-152.96996	0
465	414.9717	196.09447	-219.6909	-304.31258	318.14497	-12.20505	-424.73574	68.34828	-324.65433	-264.44275	-221.31824	-184.70309	0
466	495.52503	259.56073	-236.77797	-377.54288	366.96517	13.01872	-502.84806	4.06835	-388.12059	-315.70396	-257.93339	-213.99521	0
467	568.75533	320.58598	-248.98302	-443.45015	408.46234	37.42882	-578.51937	-83.80801	-444.26382	-359.64214	-287.22551	-233.52329	0
468	620.01654	381.61123	-239.21898	-499.59338	430.43143	71.60296	-646.86765	-196.09447	-490.64301	-393.81628	-304.31258	-243.28733	0
469	646.86765	432.87244	-214.80888	-538.64954	430.43143	110.65912	-698.12886	-313.26295	-524.81715	-413.34436	-309.1946	-240.84632	0
470	649.30866	469.48759	-180.63474	-558.17762	415.78537	144.83326	-742.06704	-445.07749	-551.66826	-425.54941	-306.75359	-231.08228	0
471	627.33957	489.01567	-139.13757	-558.17762	384.05224	176.56639	-781.1232	-589.09708	-571.19634	-427.99042	-299.43056	-216.43622	0
472	588.28341	496.3387	-92.75838	-541.09055	340.11406	203.4175	-812.85633	-747.76273	-583.40139	-425.54941	-289.66652	-199.34915	0
473	532.14018	493.89769	-39.05616	-511.79843	286.41184	227.8276	-834.82542	-923.51545	-588.28341	-413.34436	-270.13844	-177.38006	0
474	461.35089	471.9286	10.57771	-465.41924	225.38659	242.47366	-842.14845	-1094.38615	-583.40139	-396.25729	-248.16935	-152.96996	0
475	395.44362	437.75446	42.31084	-416.59904	176.56639	240.03265	-842.14845	-1238.40574	-573.63735	-376.72921	-228.64127	-128.55986	0
476	331.97736	393.81628	61.83892	-362.89682	135.06922	227.8276	-832.38441	-1340.92816	-554.10927	-354.76012	-206.67218	-106.59077	0
477	273.39312	344.99608	71.60296	-309.1946	100.89508	208.29952	-805.5333	-1392.18937	-527.25816	-325.468	-179.82107	-84.62168	0
478	214.80888	301.0579	86.24902	-257.93339	64.27993	193.65346	-764.03613	-1392.18937	-490.64301	-293.73487	-150.52895	-60.21158	0
479	151.34262	252.2377	100.89508	-201.79016	25.22377	176.56639	-705.45189	-1336.04614	-444.26382	-254.67871	-121.23683	-35.80148	0
480	97.6404	200.97649	103.33609	-148.08794	-1.62734	152.15629	-639.54462	-1233.52372	-395.44362	-218.06356	-96.82673	-21.15542	0
481	51.26121	154.5973	103.33609	-101.70875	-26.85111	130.1872	-571.19634	-1101.70918	-344.18241	-183.88942	-74.85764	-8.95037	0
482	7.32303	115.54114	108.21811	-60.21158	-51.26121	113.10013	-497.96604	-957.68959	-292.9212	-147.27427	-52.88855	0.81367	0
483	-25.22377	83.80801	108.21811	-28.47845	-65.90727	96.01306	-432.05877	-825.87505	-248.98302	-117.98215	-38.24249	8.95037	0
484	-56.9569	56.9569	113.10013	0.81367	-85.43535	83.80801	-368.59251	-703.82455	-205.04484	-91.13104	-23.59643	13.83239	0
485	-71.60296	34.98781	105.7771	18.71441	-87.87636	69.16195	-310.00827	-591.53809	-165.98868	-66.72094	-8.95037	21.15542	0
486	-74.04397	20.34175	93.57205	26.03744	-82.99434	56.9569	-256.30605	-486.57466	-129.37353	-44.75185	1.62734	26.03744	0
487	-69.16195	15.45973	83.80801	26.03744	-75.67131	49.63387	-207.48585	-391.37527	-97.6404	-25.22377	11.39138	30.91946	0
488	-59.39791	13.01872	71.60296	23.59643	-65.90727	42.31084	-170.8707	-315.70396	-73.2303	-13.01872	18.71441	30.91946	0
489	-52.07488	17.90074	69.16195	16.2734	-61.02525	42.31084	-141.57858	-259.56073	-56.14323	-3.25468	26.03744	30.91946	0
490	-47.19286	20.34175	66.72094	13.83239	-56.14323	42.31084	-122.0505	-218.06356	-43.93818	1.62734	28.47845	30.91946	0
491	-44.75185	20.34175	64.27993	11.39138	-53.70222	42.31084	-107.40444	-191.21245	-39.05616	1.62734	26.03744	23.59643	0
492	-47.19286	17.90074	64.27993	13.83239	-56.14323	39.86983	-100.08141	-174.12538	-36.61515	1.62734	21.15542	18.71441	0
493	-54.51589	8.1367	61.83892	23.59643	-58.58424	34.98781	-92.75838	-161.92033	-34.17414	1.62734	21.15542	16.2734	0
494	-66.72094	-2.44101	64.27993	33.36047	-65.90727	30.10579	-87.87636	-154.5973	-29.29212	4.88202	21.15542	16.2734	0
495	-76.48498	-9.76404	66.72094	43.12451	-73.2303	27.66478	-78.11232	-147.27427	-19.52808	9.76404	26.03744	18.71441	0
496	-78.92599	-14.64606	64.27993	45.56552	-73.2303	25.22377	-68.34828	-137.51023	-12.20505	19.52808	30.91946	26.03744	0
497	-69.16195	-9.76404	59.39791	38.24249	-65.90727	25.22377	-61.02525	-125.30518	-4.88202	26.85111	40.6835	30.91946	0
498	-64.27993	-2.44101	61.83892	33.36047	-63.46626	30.10579	-56.14323	-117.98215	2.44101	31.73313	48.00653	38.24249	0
499	-56.9569	5.69569	61.83892	26.03744	-58.58424	32.5468	-53.70222	-115.54114	5.69569	36.61515	52.88855	38.24249	0
500	-52.07488	15.45973	66.72094	18.71441	-58.58424	39.86983	-53.70222	-115.54114	5.69569	36.61515	55.32956	38.24249	0
501	-49.63387	20.34175	69.16195	13.83239	-58.58424	44.75185	-53.70222	-115.54114	5.69569	34.17414	52.88855	35.80148	0
502	-49.63387	22.78276	71.60296	13.83239	-61.02525	47.19286	-53.70222	-113.10013	2.44101	29.29212	45.56552	30.91946	0
503	-56.9569	17.90074	74.04397	18.71441	-65.90727	44.75185	-53.70222	-110.65912	-2.44101	24.4101	38.24249	23.59643	0
504	-69.16195	8.1367	76.48498	30.91946	-73.2303	42.31084	-51.26121	-105.7771	-2.44101	21.96909	33.36047	21.15542	0
505	-76.48498	-2.44101	74.04397	38.24249	-75.67131	34.98781	-43.93818	-100.89508	-2.44101	19.52808	28.47845	18.71441	0
506	-83.80801	-9.76404	74.04397	45.56552	-80.55333	32.5468	-39.05616	-93.57205	2.44101	19.52808	28.47845	23.59643	0
507	-78.92599	-9.76404	69.16195	43.12451	-75.67131	30.10579	-34.17414	-86.24902	5.69569	24.4101	33.36047	28.47845	0
508	-69.16195	-7.32303	61.83892	38.24249	-65.90727	27.66478	-29.29212	-83.80801	10.57771	26.85111	38.24249	33.36047	0
509	-59.39791	0.81367	59.39791	28.47845	-58.58424	30.10579	-26.85111	-81.367	13.01872	29.29212	43.12451	35.80148	0
510	-54.51589	13.01872	66.72094	21.15542	-61.02525	39.86983	-26.85111	-83.80801	13.01872	31.73313	45.56552	35.80148	0
511	-49.63387	20.34175	69.16195	13.83239	-58.58424	44.75185	-29.29212	-88.69003	10.57771	29.29212	45.56552	30.91946	0
512	-47.19286	25.22377	71.60296	11.39138	-58.58424	47.19286	-31.73313	-91.13104	5.69569	26.85111	40.6835	26.03744	0
513	-52.07488	25.22377	76.48498	13.83239	-63.46626	49.63387	-31.73313	-93.57205	2.44101	21.96909	35.80148	21.15542	0
514	-64.27993	20.34175	83.80801	21.15542	-73.2303	52.07488	-29.29212	-91.13104	2.44101	21.96909	35.80148	18.71441	0
515	-74.04397	15.45973	88.69003	28.47845	-80.55333	52.07488	-24.4101	-86.24902	2.44101	21.96909	35.80148	18.71441	0
516	-78.92599	13.01872	91.13104	33.36047	-85.43535	52.07488	-19.52808	-81.367	5.69569	24.4101	35.80148	23.59643	0
517	-74.04397	13.01872	86.24902	30.91946	-80.55333	49.63387	-17.08707	-74.04397	8.1367	29.29212	40.6835	30.91946	0
518	-69.16195	20.34175	88.69003	23.59643	-78.11232	54.51589	-12.20505	-66.72094	13.01872	34.17414	48.00653	35.80148	0
519	-59.39791	30.10579	88.69003	13.83239	-73.2303	59.39791	-9.76404	-66.72094	13.01872	34.17414	50.44754	40.6835	0
520	-49.63387	42.31084	91.13104	3.25468	-70.78929	66.72094	-14.64606	-66.72094	10.57771	31.73313	48.00653	38.24249	0
521	-44.75185	49.63387	93.57205	-1.62734	-68.34828	71.60296	-19.52808	-71.60296	5.69569	24.4101	43.12451	30.91946	0
522	-47.19286	56.9569	103.33609	-4.06835	-75.67131	78.92599	-24.4101	-74.04397	2.44101	19.52808	38.24249	26.03744	0
523	-52.07488	61.83892	113.10013	-4.06835	-82.99434	86.24902	-24.4101	-76.48498	-2.44101	17.08707	33.36047	18.71441	0
524	-61.83892	59.39791	120.42316	0.81367	-90.31737	88.69003	-26.85111	-78.92599	-2.44101	14.64606	28.47845	16.2734	0
525	-69.16195	56.9569	125.30518	5.69569	-97.6404	91.13104	-24.4101	-76.48498	-2.44101	17.08707	28.47845	16.2734	0
526	-74.04397	54.51589	127.74619	8.95037	-100.08141	91.13104	-19.52808	-71.60296	2.44101	24.4101	35.80148	23.59643	0
527	-76.48498	54.51589	130.1872	11.39138	-102.52242	91.13104	-12.20505	-61.83892	10.57771	34.17414	45.56552	33.36047	0
528	-69.16195	59.39791	127.74619	5.69569	-97.6404	93.57205	-7.32303	-56.9569	17.90074	41.49717	55.32956	43.12451	0
529	-56.9569	66.72094	122.86417	-4.06835	-90.31737	93.57205	-7.32303	-54.51589	20.34175	43.93818	60.21158	48.00653	0
530	-47.19286	76.48498	122.86417	-13.83239	-85.43535	98.45407	-9.76404	-54.51589	17.90074	43.93818	60.21158	48.00653	0
531	-34.98781	83.80801	117.98215	-23.59643	-75.67131	100.89508	-14.64606	-59.39791	13.01872	39.05616	55.32956	43.12451	0
532	-30.10579	91.13104	120.42316	-30.91946	-75.67131	105.7771	-19.52808	-61.83892	5.69569	31.73313	48.00653	35.80148	0
533	-30.10579	93.57205	122.86417	-30.91946	-75.67131	108.21811	-24.4101	-66.72094	2.44101	24.4101	40.6835	28.47845	0
534	-32.5468	96.01306	127.74619	-30.91946	-80.55333	110.65912	-29.29212	-71.60296	-2.44101	21.96909	38.24249	26.03744	0
535	-42.31084	98.45407	139.95124	-28.47845	-90.31737	117.98215	-24.4101	-71.60296	0	24.4101	40.6835	28.47845	0
536	-47.19286	103.33609	149.71528	-28.47845	-97.6404	125.30518	-19.52808	-64.27993	2.44101	29.29212	48.00653	33.36047	0
537	-47.19286	110.65912	157.03831	-30.91946	-102.52242	132.62821	-17.08707	-56.9569	8.1367	36.61515	55.32956	40.6835	0
538	-42.31084	122.86417	164.36134	-40.6835	-102.52242	142.39225	-12.20505	-49.63387	15.45973	41.49717	62.65259	50.44754	0
539	-37.42882	132.62821	169.24336	-48.00653	-102.52242	149.71528	-9.76404	-44.75185	15.45973	43.93818	67.53461	55.32956	0
540	-30.10579	142.39225	171.68437	-55.32956	-100.08141	157.03831	-9.76404	-44.75185	13.01872	43.93818	67.53461	55.32956	0
541	-27.66478	147.27427	174.12538	-60.21158	-100.08141	159.47932	-12.20505	-44.75185	8.1367	36.61515	60.21158	50.44754	0
542	-22.78276	152.15629	174.12538	-65.0936	-97.6404	161.92033	-17.08707	-47.19286	2.44101	29.29212	52.88855	43.12451	0
543	-25.22377	154.5973	179.0074	-65.0936	-102.52242	166.80235	-17.08707	-47.19286	-2.44101	24.4101	45.56552	38.24249	0
544	-34.98781	154.5973	188.77144	-60.21158	-112.28646	171.68437	-17.08707	-47.19286	-4.88202	21.96909	43.12451	35.80148	0
545	-42.31084	152.15629	193.65346	-55.32956	-117.16848	171.68437	-14.64606	-47.19286	-4.88202	21.96909	43.12451	35.80148	0
546	-47.19286	154.5973	200.97649	-52.88855	-124.49151	176.56639	-7.32303	-42.31084	2.44101	29.29212	48.00653	40.6835	0
547	-42.31084	161.92033	203.4175	-60.21158	-122.0505	181.44841	0	-34.98781	5.69569	34.17414	55.32956	48.00653	0
548	-30.10579	174.12538	203.4175	-72.41663	-117.16848	188.77144	2.44101	-30.10579	8.1367	34.17414	57.77057	50.44754	0
549	-17.90074	186.33043	203.4175	-84.62168	-109.84545	193.65346	4.88202	-27.66478	8.1367	34.17414	57.77057	52.88855	0
550	-10.57771	198.53548	208.29952	-94.38572	-109.84545	203.4175	4.88202	-27.66478	8.1367	34.17414	57.77057	52.88855	0
551	-4.88202	208.29952	213.18154	-101.70875	-109.84545	210.74053	4.88202	-27.66478	5.69569	29.29212	55.32956	50.44754	0
552	-4.88202	215.62255	220.50457	-104.14976	-112.28646	218.06356	2.44101	-25.22377	2.44101	24.4101	52.88855	48.00653	0
553	-10.57771	222.94558	232.70962	-106.59077	-122.0505	227.8276	2.44101	-22.78276	2.44101	21.96909	50.44754	45.56552	0
554	-25.22377	225.38659	249.79669	-99.26774	-136.69656	237.59164	7.32303	-20.34175	2.44101	21.96909	52.88855	45.56552	0
555	-37.42882	227.8276	264.44275	-94.38572	-151.34262	244.91467	14.64606	-13.01872	10.57771	29.29212	57.77057	50.44754	0
556	-44.75185	235.15063	279.08881	-94.38572	-161.10666	257.11972	21.96909	-5.69569	17.90074	34.17414	65.0936	57.77057	0
557	-42.31084	244.91467	286.41184	-101.70875	-163.54767	264.44275	26.85111	6.50936	22.78276	41.49717	72.41663	65.0936	0
558	-37.42882	262.00174	298.61689	-111.47279	-168.42969	279.08881	30.10579	16.2734	27.66478	43.93818	77.29865	72.41663	0
559	-30.10579	276.6478	305.93992	-123.67784	-168.42969	291.29386	32.5468	23.59643	27.66478	46.37919	79.73966	72.41663	0
560	-20.34175	293.73487	313.26295	-135.88289	-165.98868	303.49891	32.5468	26.03744	27.66478	43.93818	79.73966	72.41663	0
561	-13.01872	305.93992	318.14497	-145.64693	-165.98868	310.82194	32.5468	26.03744	25.22377	39.05616	74.85764	67.53461	0
562	-10.57771	315.70396	325.468	-152.96996	-168.42969	320.58598	30.10579	28.47845	20.34175	34.17414	69.97562	60.21158	0
563	-13.01872	320.58598	332.79103	-152.96996	-173.31171	325.468	30.10579	30.91946	17.90074	31.73313	67.53461	55.32956	0
564	-25.22377	323.02699	347.43709	-148.08794	-185.51676	335.23204	32.5468	33.36047	20.34175	31.73313	67.53461	55.32956	0
565	-27.66478	325.468	352.31911	-148.08794	-190.39878	337.67305	37.42882	39.05616	22.78276	34.17414	69.97562	57.77057	0
566	-27.66478	330.35002	357.20113	-150.52895	-192.83979	342.55507	39.86983	48.8202	25.22377	39.05616	74.85764	62.65259	0
567	-22.78276	340.11406	362.08315	-157.85198	-192.83979	349.8781	44.75185	61.02525	30.10579	41.49717	77.29865	69.97562	0
568	-13.01872	352.31911	364.52416	-170.05703	-187.95777	357.20113	49.63387	73.2303	32.5468	46.37919	84.62168	77.29865	0
569	-2.44101	364.52416	366.96517	-179.82107	-185.51676	366.96517	49.63387	80.55333	32.5468	46.37919	87.06269	79.73966	0
570	12.20505	379.17022	366.96517	-194.46713	-178.19373	374.2882	47.19286	80.55333	30.10579	43.93818	87.06269	77.29865	0
571	24.4101	386.49325	362.08315	-204.23117	-168.42969	374.2882	42.31084	80.55333	25.22377	39.05616	79.73966	72.41663	0
572	24.4101	391.37527	366.96517	-206.67218	-170.8707	379.17022	37.42882	80.55333	20.34175	34.17414	74.85764	65.0936	0
573	21.96909	393.81628	371.84719	-206.67218	-175.75272	384.05224	34.98781	82.99434	15.45973	29.29212	69.97562	57.77057	0
574	14.64606	391.37527	376.72921	-201.79016	-180.63474	384.05224	32.5468	87.87636	13.01872	26.85111	67.53461	52.88855	0
575	9.76404	384.05224	374.2882	-196.90814	-183.07575	379.17022	32.5468	92.75838	13.01872	24.4101	65.0936	52.88855	0
576	4.88202	381.61123	376.72921	-192.02612	-185.51676	379.17022	39.86983	100.08141	17.90074	26.85111	65.0936	52.88855	0
577	2.44101	379.17022	376.72921	-189.58511	-187.95777	379.17022	47.19286	112.28646	22.78276	31.73313	65.0936	55.32956	0
578	7.32303	381.61123	374.2882	-194.46713	-183.07575	379.17022	56.9569	129.37353	32.5468	39.05616	72.41663	65.0936	0
579	17.08707	386.49325	369.40618	-201.79016	-175.75272	379.17022	64.27993	139.13757	37.42882	41.49717	74.85764	69.97562	0
580	24.4101	391.37527	366.96517	-206.67218	-170.8707	379.17022	69.16195	144.01959	42.31084	46.37919	77.29865	69.97562	0
581	31.73313	393.81628	362.08315	-211.5542	-165.98868	379.17022	71.60296	146.4606	44.75185	48.8202	77.29865	67.53461	0
582	34.17414	391.37527	357.20113	-211.5542	-161.10666	374.2882	71.60296	148.90161	44.75185	46.37919	74.85764	65.0936	0
583	31.73313	381.61123	349.8781	-206.67218	-158.66565	366.96517	76.48498	153.78363	44.75185	46.37919	72.41663	62.65259	0
584	31.73313	371.84719	340.11406	-201.79016	-153.78363	357.20113	74.04397	153.78363	39.86983	41.49717	65.0936	57.77057	0
585	24.4101	357.20113	332.79103	-189.58511	-153.78363	344.99608	74.04397	158.66565	39.86983	41.49717	62.65259	55.32956	0
586	19.52808	342.55507	323.02699	-179.82107	-151.34262	332.79103	78.92599	168.42969	42.31084	43.93818	65.0936	55.32956	0
587	21.96909	332.79103	310.82194	-177.38006	-144.01959	323.02699	78.92599	178.19373	47.19286	48.8202	67.53461	55.32956	0
588	29.29212	325.468	296.17588	-177.38006	-134.25555	310.82194	81.367	187.95777	54.51589	51.26121	72.41663	57.77057	0
589	43.93818	323.02699	279.08881	-182.26208	-117.16848	301.0579	81.367	195.2808	54.51589	51.26121	72.41663	57.77057	0
590	48.8202	320.58598	271.76578	-184.70309	-112.28646	296.17588	81.367	197.72181	54.51589	51.26121	69.97562	55.32956	0
591	51.26121	318.14497	266.88376	-184.70309	-107.40444	293.73487	78.92599	200.16282	54.51589	51.26121	67.53461	50.44754	0
592	53.70222	305.93992	252.2377	-179.82107	-100.08141	279.08881	76.48498	200.16282	52.07488	48.8202	60.21158	43.12451	0
593	53.70222	293.73487	240.03265	-172.49804	-92.75838	266.88376	74.04397	200.16282	44.75185	41.49717	50.44754	33.36047	0
594	41.49717	276.6478	235.15063	-157.85198	-97.6404	257.11972	71.60296	197.72181	42.31084	36.61515	43.12451	26.03744	0
595	29.29212	257.11972	227.8276	-143.20592	-100.08141	242.47366	76.48498	202.60383	42.31084	36.61515	40.6835	23.59643	0
596	21.96909	240.03265	218.06356	-131.00087	-97.6404	230.26861	81.367	207.48585	47.19286	39.05616	40.6835	23.59643	0
597	24.4101	225.38659	200.97649	-123.67784	-87.87636	213.18154	83.80801	214.80888	47.19286	41.49717	40.6835	23.59643	0
598	31.73313	213.18154	181.44841	-121.23683	-75.67131	198.53548	86.24902	217.24989	47.19286	43.93818	43.12451	23.59643	0
599	36.61515	198.53548	161.92033	-116.35481	-63.46626	181.44841	88.69003	219.6909	52.07488	46.37919	45.56552	26.03744	0
600	43.93818	186.33043	142.39225	-113.9138	-48.8202	164.36134	91.13104	222.13191	56.9569	51.26121	50.44754	30.91946	0
601	51.26121	176.56639	125.30518	-113.9138	-36.61515	152.15629	93.57205	222.13191	59.39791	53.70222	55.32956	33.36047	0
602	61.02525	169.24336	108.21811	-113.9138	-24.4101	139.95124	96.01306	222.13191	61.83892	56.14323	57.77057	35.80148	0
603	68.34828	164.36134	96.01306	-116.35481	-14.64606	130.1872	96.01306	217.24989	64.27993	56.14323	60.21158	35.80148	0
604	73.2303	159.47932	86.24902	-116.35481	-6.50936	122.86417	93.57205	212.36787	61.83892	56.14323	57.77057	33.36047	0
605	80.55333	154.5973	74.04397	-116.35481	3.25468	115.54114	91.13104	202.60383	54.51589	48.8202	50.44754	28.47845	0
606	82.99434	147.27427	64.27993	-113.9138	10.57771	105.7771	83.80801	190.39878	44.75185	41.49717	40.6835	16.2734	0
607	78.11232	130.1872	52.07488	-104.14976	13.01872	91.13104	74.04397	178.19373	34.98781	34.17414	30.91946	4.06835	0
608	68.34828	105.7771	37.42882	-87.06269	15.45973	71.60296	66.72094	165.98868	22.78276	24.4101	16.2734	-8.95037	0
609	48.8202	74.04397	25.22377	-60.21158	13.01872	49.63387	64.27993	156.22464	17.90074	19.52808	8.95037	-18.71441	0
610	24.4101	39.86983	15.45973	-30.91946	5.69569	27.66478	66.72094	151.34262	17.90074	21.96909	8.95037	-21.15542	0
611	4.88202	13.01872	7.32303	-8.95037	-1.62734	10.57771	74.04397	148.90161	27.66478	29.29212	13.83239	-13.83239	0
612	-4.88202	-4.88202	0	5.69569	-4.06835	-2.44101	83.80801	151.34262	37.42882	39.05616	23.59643	-4.06835	0
613	-4.88202	-12.20505	-7.32303	8.95037	0.81367	-9.76404	91.13104	153.78363	47.19286	46.37919	33.36047	4.06835	0
614	0	-9.76404	-9.76404	5.69569	3.25468	-9.76404	96.01306	153.78363	52.07488	48.8202	38.24249	11.39138	0
615	7.32303	-7.32303	-14.64606	0.81367	10.57771	-9.76404	96.01306	146.4606	52.07488	48.8202	40.6835	11.39138	0
616	14.64606	-4.88202	-19.52808	-4.06835	15.45973	-12.20505	91.13104	136.69656	47.19286	46.37919	30.91946	0.81367	0
617	14.64606	-9.76404	-24.4101	-1.62734	17.90074	-17.08707	78.92599	124.49151	37.42882	36.61515	21.15542	-8.95037	0
618	4.88202	-24.4101	-29.29212	8.95037	15.45973	-26.85111	71.60296	112.28646	27.66478	26.85111	6.50936	-23.59643	0
619	-15.45973	-43.93818	-29.29212	28.47845	5.69569	-36.61515	66.72094	104.96343	22.78276	21.96909	-1.62734	-30.91946	0
620	-37.42882	-68.34828	-31.73313	52.88855	-4.06835	-51.26121	69.16195	100.08141	22.78276	21.96909	1.62734	-30.91946	0
621	-52.07488	-85.43535	-34.17414	67.53461	-9.76404	-61.02525	74.04397	100.08141	30.10579	26.85111	6.50936	-23.59643	0
622	-54.51589	-95.19939	-41.49717	74.85764	-6.50936	-68.34828	83.80801	102.52242	39.86983	36.61515	18.71441	-13.83239	0
623	-49.63387	-92.75838	-43.93818	69.97562	-4.06835	-68.34828	91.13104	104.96343	49.63387	43.93818	28.47845	-1.62734	0
624	-32.5468	-82.99434	-51.26121	57.77057	8.1367	-68.34828	93.57205	104.96343	52.07488	46.37919	33.36047	0.81367	0
625	-17.90074	-73.2303	-56.14323	45.56552	17.90074	-65.90727	93.57205	102.52242	52.07488	46.37919	33.36047	0.81367	0
626	-10.57771	-65.90727	-56.14323	38.24249	22.78276	-61.02525	88.69003	95.19939	44.75185	39.05616	26.03744	-6.50936	0
627	-10.57771	-65.90727	-56.14323	38.24249	22.78276	-61.02525	78.92599	87.87636	32.5468	31.73313	13.83239	-18.71441	0
628	-20.34175	-75.67131	-56.14323	48.00653	17.90074	-65.90727	69.16195	80.55333	22.78276	21.96909	1.62734	-30.91946	0
629	-37.42882	-90.31737	-53.70222	62.65259	8.1367	-73.2303	64.27993	75.67131	15.45973	17.08707	-6.50936	-38.24249	0
630	-61.83892	-107.40444	-46.37919	84.62168	-9.76404	-78.11232	66.72094	75.67131	17.90074	19.52808	-4.06835	-35.80148	0
631	-81.367	-119.60949	-39.05616	99.26774	-21.96909	-80.55333	74.04397	78.11232	27.66478	24.4101	1.62734	-26.03744	0
632	-81.367	-122.0505	-41.49717	101.70875	-21.96909	-82.99434	78.92599	82.99434	34.98781	31.73313	13.83239	-13.83239	-1250	T-0
633	-74.04397	-112.28646	-39.05616	91.94471	-19.52808	-75.67131	86.24902	90.31737	44.75185	41.49717	23.59643	-1.62734	0
634	-56.9569	-100.08141	-43.93818	77.29865	-6.50936	-73.2303	91.13104	95.19939	49.63387	43.93818	30.91946	0.81367	0
635	-42.31084	-82.99434	-41.49717	62.65259	-1.62734	-63.46626	86.24902	90.31737	47.19286	41.49717	28.47845	-1.62734	0
636	-27.66478	-70.78929	-43.93818	48.00653	8.1367	-58.58424	81.367	85.43535	37.42882	34.17414	18.71441	-11.39138	0
637	-20.34175	-68.34828	-48.8202	43.12451	13.01872	-58.58424	71.60296	78.11232	27.66478	26.85111	8.95037	-23.59643	0
638	-25.22377	-80.55333	-56.14323	52.88855	15.45973	-68.34828	64.27993	73.2303	20.34175	21.96909	-1.62734	-35.80148	0
639	-42.31084	-97.6404	-56.14323	69.97562	5.69569	-78.11232	61.83892	68.34828	15.45973	19.52808	-4.06835	-40.6835	0
640	-59.39791	-112.28646	-53.70222	84.62168	-4.06835	-82.99434	64.27993	68.34828	20.34175	21.96909	-1.62734	-38.24249	0
641	-69.16195	-124.49151	-56.14323	96.82673	-6.50936	-90.31737	69.16195	73.2303	27.66478	31.73313	6.50936	-26.03744	0
642	-71.60296	-126.93252	-56.14323	99.26774	-9.76404	-92.75838	81.367	82.99434	42.31084	43.93818	18.71441	-11.39138	0
643	-66.72094	-119.60949	-53.70222	91.94471	-6.50936	-87.87636	88.69003	90.31737	52.07488	53.70222	30.91946	0.81367	0
644	-54.51589	-104.96343	-51.26121	79.73966	-1.62734	-78.11232	91.13104	95.19939	56.9569	56.14323	38.24249	8.95037	0
645	-37.42882	-87.87636	-51.26121	62.65259	5.69569	-70.78929	86.24902	92.75838	52.07488	53.70222	38.24249	6.50936	0
646	-25.22377	-75.67131	-51.26121	50.44754	13.01872	-63.46626	81.367	87.87636	47.19286	48.8202	30.91946	-1.62734	0
647	-17.90074	-73.2303	-56.14323	45.56552	17.90074	-65.90727	69.16195	80.55333	37.42882	39.05616	18.71441	-16.2734	0
648	-25.22377	-82.99434	-58.58424	52.88855	15.45973	-70.78929	61.83892	73.2303	27.66478	31.73313	8.95037	-30.91946	0
649	-42.31084	-97.6404	-56.14323	69.97562	5.69569	-78.11232	59.39791	70.78929	22.78276	24.4101	-1.62734	-40.6835	0
650	-61.83892	-114.72747	-53.70222	87.06269	-4.06835	-85.43535	61.83892	68.34828	22.78276	26.85111	-1.62734	-40.6835	0
651	-74.04397	-129.37353	-56.14323	101.70875	-9.76404	-92.75838	69.16195	75.67131	32.5468	34.17414	6.50936	-30.91946	0
652	-74.04397	-131.81454	-58.58424	101.70875	-9.76404	-95.19939	78.92599	85.43535	42.31084	43.93818	16.2734	-18.71441	0
653	-69.16195	-126.93252	-58.58424	96.82673	-6.50936	-92.75838	88.69003	95.19939	49.63387	51.26121	26.03744	-6.50936	0
654	-56.9569	-114.72747	-58.58424	84.62168	0.81367	-87.87636	93.57205	102.52242	54.51589	53.70222	33.36047	0.81367	0
655	-39.86983	-100.08141	-61.02525	69.97562	10.57771	-80.55333	91.13104	102.52242	52.07488	53.70222	33.36047	0.81367	0
656	-27.66478	-87.87636	-61.02525	57.77057	15.45973	-75.67131	83.80801	97.6404	44.75185	46.37919	28.47845	-6.50936	0
657	-25.22377	-85.43535	-61.02525	55.32956	17.90074	-73.2303	71.60296	90.31737	32.5468	34.17414	16.2734	-21.15542	0
658	-32.5468	-92.75838	-61.02525	62.65259	13.01872	-78.11232	64.27993	85.43535	22.78276	24.4101	4.06835	-33.36047	0
659	-49.63387	-104.96343	-56.14323	77.29865	3.25468	-80.55333	59.39791	82.99434	17.90074	19.52808	-4.06835	-43.12451	0
660	-66.72094	-119.60949	-53.70222	91.94471	-6.50936	-87.87636	61.83892	82.99434	20.34175	19.52808	-4.06835	-43.12451	0
661	-78.92599	-131.81454	-53.70222	104.14976	-14.64606	-92.75838	66.72094	87.87636	27.66478	26.85111	1.62734	-35.80148	0
662	-78.92599	-136.69656	-58.58424	106.59077	-12.20505	-97.6404	74.04397	97.6404	37.42882	36.61515	11.39138	-23.59643	0
663	-74.04397	-131.81454	-58.58424	101.70875	-9.76404	-95.19939	86.24902	107.40444	47.19286	46.37919	26.03744	-11.39138	0
664	-61.83892	-119.60949	-58.58424	89.5037	-1.62734	-90.31737	88.69003	112.28646	52.07488	51.26121	33.36047	-1.62734	0
665	-42.31084	-107.40444	-65.90727	74.85764	10.57771	-87.87636	86.24902	109.84545	49.63387	48.8202	33.36047	-1.62734	0
666	-25.22377	-100.08141	-75.67131	62.65259	25.22377	-87.87636	76.48498	104.96343	39.86983	41.49717	26.03744	-11.39138	0
667	-22.78276	-100.08141	-78.11232	60.21158	27.66478	-90.31737	66.72094	97.6404	30.10579	29.29212	13.83239	-23.59643	0
668	-30.10579	-107.40444	-78.11232	67.53461	22.78276	-92.75838	59.39791	90.31737	20.34175	19.52808	1.62734	-35.80148	0
669	-47.19286	-122.0505	-75.67131	84.62168	13.01872	-100.08141	54.51589	87.87636	15.45973	12.20505	-6.50936	-45.56552	0
670	-64.27993	-136.69656	-73.2303	99.26774	3.25468	-104.96343	56.9569	87.87636	15.45973	12.20505	-8.95037	-45.56552	0
671	-76.48498	-146.4606	-70.78929	111.47279	-4.06835	-109.84545	61.83892	90.31737	25.22377	21.96909	-1.62734	-35.80148	0
672	-81.367	-148.90161	-68.34828	113.9138	-6.50936	-109.84545	74.04397	100.08141	37.42882	34.17414	8.95037	-23.59643	0
673	-76.48498	-141.57858	-65.90727	109.03178	-6.50936	-104.96343	83.80801	109.84545	49.63387	46.37919	21.15542	-11.39138	0
674	-61.83892	-129.37353	-68.34828	94.38572	3.25468	-100.08141	88.69003	112.28646	54.51589	51.26121	28.47845	-4.06835	0
675	-42.31084	-114.72747	-73.2303	77.29865	15.45973	-95.19939	86.24902	109.84545	54.51589	51.26121	26.03744	-6.50936	0
676	-30.10579	-107.40444	-78.11232	67.53461	22.78276	-92.75838	78.92599	104.96343	44.75185	43.93818	18.71441	-16.2734	0
677	-25.22377	-107.40444	-82.99434	65.0936	27.66478	-95.19939	69.16195	97.6404	34.98781	34.17414	8.95037	-28.47845	0
678	-34.98781	-119.60949	-85.43535	77.29865	25.22377	-102.52242	64.27993	92.75838	27.66478	26.85111	-1.62734	-40.6835	0
679	-49.63387	-134.25555	-85.43535	91.94471	17.90074	-109.84545	59.39791	90.31737	22.78276	21.96909	-8.95037	-48.00653	0
680	-64.27993	-151.34262	-87.87636	106.59077	10.57771	-119.60949	61.83892	87.87636	22.78276	21.96909	-8.95037	-48.00653	0
681	-76.48498	-163.54767	-87.87636	118.79582	5.69569	-126.93252	66.72094	92.75838	32.5468	29.29212	-1.62734	-40.6835	0
682	-78.92599	-165.98868	-87.87636	121.23683	3.25468	-126.93252	76.48498	102.52242	44.75185	39.05616	11.39138	-26.03744	0
683	-74.04397	-156.22464	-82.99434	113.9138	3.25468	-119.60949	83.80801	107.40444	54.51589	48.8202	23.59643	-11.39138	0
684	-56.9569	-141.57858	-85.43535	99.26774	13.01872	-114.72747	86.24902	109.84545	56.9569	51.26121	30.91946	-4.06835	0
685	-39.86983	-126.93252	-87.87636	82.18067	22.78276	-107.40444	81.367	104.96343	52.07488	48.8202	28.47845	-6.50936	0
686	-30.10579	-114.72747	-85.43535	72.41663	27.66478	-100.08141	71.60296	100.08141	42.31084	41.49717	21.15542	-16.2734	0
687	-25.22377	-114.72747	-90.31737	69.97562	32.5468	-102.52242	61.83892	92.75838	32.5468	29.29212	6.50936	-30.91946	0
688	-34.98781	-124.49151	-90.31737	79.73966	27.66478	-107.40444	54.51589	85.43535	20.34175	19.52808	-6.50936	-43.12451	0
689	-49.63387	-141.57858	-92.75838	94.38572	20.34175	-117.16848	49.63387	78.11232	15.45973	14.64606	-13.83239	-52.88855	0
690	-66.72094	-158.66565	-92.75838	111.47279	13.01872	-126.93252	49.63387	78.11232	17.90074	14.64606	-16.2734	-55.32956	0
691	-76.48498	-168.42969	-92.75838	121.23683	8.1367	-131.81454	56.9569	80.55333	25.22377	19.52808	-8.95037	-45.56552	0
692	-76.48498	-170.8707	-95.19939	123.67784	8.1367	-134.25555	64.27993	87.87636	34.98781	29.29212	1.62734	-30.91946	0
693	-74.04397	-165.98868	-92.75838	118.79582	8.1367	-129.37353	74.04397	97.6404	44.75185	39.05616	16.2734	-16.2734	0
694	-56.9569	-148.90161	-92.75838	101.70875	17.90074	-122.0505	74.04397	97.6404	49.63387	43.93818	23.59643	-8.95037	0
695	-39.86983	-134.25555	-95.19939	87.06269	27.66478	-114.72747	71.60296	95.19939	47.19286	41.49717	23.59643	-8.95037	0
696	-27.66478	-124.49151	-97.6404	74.85764	34.98781	-112.28646	64.27993	90.31737	37.42882	36.61515	16.2734	-18.71441	0
697	-25.22377	-124.49151	-100.08141	74.85764	37.42882	-112.28646	54.51589	82.99434	25.22377	26.85111	1.62734	-33.36047	0
698	-30.10579	-131.81454	-102.52242	79.73966	34.98781	-117.16848	44.75185	75.67131	15.45973	17.08707	-8.95037	-48.00653	0
699	-44.75185	-148.90161	-104.96343	96.82673	30.10579	-126.93252	39.86983	68.34828	10.57771	12.20505	-18.71441	-57.77057	0
700	-56.9569	-163.54767	-107.40444	109.03178	25.22377	-136.69656	39.86983	63.46626	10.57771	12.20505	-21.15542	-60.21158	0
701	-69.16195	-173.31171	-104.96343	121.23683	17.90074	-139.13757	47.19286	65.90727	17.90074	17.08707	-13.83239	-52.88855	0
702	-76.48498	-175.75272	-100.08141	126.11885	10.57771	-139.13757	54.51589	73.2303	27.66478	24.4101	-1.62734	-38.24249	0
703	-71.60296	-165.98868	-95.19939	118.79582	10.57771	-131.81454	61.83892	80.55333	34.98781	31.73313	6.50936	-26.03744	0
704	-56.9569	-151.34262	-95.19939	104.14976	17.90074	-124.49151	64.27993	82.99434	37.42882	36.61515	13.83239	-21.15542	0
705	-44.75185	-139.13757	-95.19939	91.94471	25.22377	-117.16848	61.83892	82.99434	34.98781	34.17414	11.39138	-21.15542	0
706	-34.98781	-129.37353	-95.19939	82.18067	30.10579	-112.28646	56.9569	78.11232	27.66478	29.29212	4.06835	-30.91946	0
707	-34.98781	-131.81454	-97.6404	82.18067	30.10579	-114.72747	47.19286	73.2303	15.45973	19.52808	-6.50936	-43.12451	0
708	-34.98781	-144.01959	-109.84545	89.5037	37.42882	-126.93252	39.86983	63.46626	5.69569	9.76404	-18.71441	-57.77057	0
709	-52.07488	-161.10666	-109.84545	106.59077	27.66478	-136.69656	37.42882	58.58424	2.44101	7.32303	-26.03744	-65.0936	0
710	-69.16195	-178.19373	-109.84545	123.67784	20.34175	-144.01959	39.86983	58.58424	8.1367	9.76404	-26.03744	-62.65259	0
711	-78.92599	-187.95777	-109.84545	133.44188	15.45973	-148.90161	47.19286	61.02525	15.45973	17.08707	-18.71441	-55.32956	0
712	-78.92599	-190.39878	-112.28646	133.44188	15.45973	-151.34262	54.51589	68.34828	25.22377	26.85111	-6.50936	-40.6835	0
713	-71.60296	-180.63474	-109.84545	126.11885	17.90074	-146.4606	61.83892	73.2303	34.98781	36.61515	4.06835	-28.47845	0
714	-61.83892	-163.54767	-102.52242	111.47279	20.34175	-134.25555	61.83892	75.67131	39.86983	43.93818	13.83239	-21.15542	0
715	-44.75185	-148.90161	-104.96343	96.82673	30.10579	-126.93252	59.39791	70.78929	34.98781	39.05616	13.83239	-23.59643	0
716	-27.66478	-139.13757	-112.28646	82.18067	42.31084	-126.93252	49.63387	63.46626	25.22377	29.29212	4.06835	-33.36047	0
717	-25.22377	-136.69656	-112.28646	79.73966	42.31084	-124.49151	39.86983	53.70222	15.45973	19.52808	-6.50936	-48.00653	0
718	-32.5468	-146.4606	-114.72747	89.5037	39.86983	-131.81454	32.5468	43.93818	2.44101	7.32303	-16.2734	-60.21158	0
719	-47.19286	-161.10666	-114.72747	104.14976	32.5468	-139.13757	30.10579	36.61515	-2.44101	1.62734	-26.03744	-69.97562	0
720	-61.83892	-173.31171	-112.28646	116.35481	25.22377	-144.01959	30.10579	36.61515	-2.44101	1.62734	-28.47845	-72.41663	0
721	-71.60296	-183.07575	-112.28646	126.11885	20.34175	-148.90161	37.42882	36.61515	2.44101	7.32303	-21.15542	-62.65259	0
722	-71.60296	-183.07575	-112.28646	126.11885	20.34175	-148.90161	47.19286	43.93818	10.57771	17.08707	-8.95037	-50.44754	0
723	-66.72094	-170.8707	-104.96343	118.79582	17.90074	-139.13757	54.51589	51.26121	17.90074	26.85111	1.62734	-35.80148	0
724	-54.51589	-156.22464	-102.52242	104.14976	22.78276	-129.37353	56.9569	53.70222	22.78276	31.73313	8.95037	-26.03744	0
725	-37.42882	-141.57858	-104.96343	89.5037	32.5468	-124.49151	52.07488	51.26121	17.90074	29.29212	6.50936	-26.03744	0
726	-25.22377	-131.81454	-107.40444	77.29865	39.86983	-119.60949	44.75185	46.37919	10.57771	21.96909	-1.62734	-35.80148	0
727	-22.78276	-131.81454	-109.84545	77.29865	42.31084	-122.0505	34.98781	36.61515	0	9.76404	-11.39138	-48.00653	0
728	-32.5468	-141.57858	-109.84545	87.06269	37.42882	-126.93252	26.85111	30.91946	-9.76404	-0.81367	-23.59643	-60.21158	0
729	-49.63387	-153.78363	-104.96343	101.70875	27.66478	-129.37353	24.4101	23.59643	-14.64606	-5.69569	-30.91946	-67.53461	0
730	-64.27993	-168.42969	-104.96343	116.35481	20.34175	-136.69656	24.4101	23.59643	-14.64606	-8.1367	-30.91946	-67.53461	0
731	-74.04397	-175.75272	-102.52242	123.67784	13.01872	-139.13757	30.10579	28.47845	-9.76404	-0.81367	-23.59643	-57.77057	0
732	-71.60296	-175.75272	-104.96343	123.67784	15.45973	-141.57858	37.42882	33.36047	-2.44101	7.32303	-11.39138	-45.56552	0
733	-64.27993	-165.98868	-102.52242	113.9138	17.90074	-134.25555	44.75185	36.61515	5.69569	17.08707	-1.62734	-33.36047	0
734	-47.19286	-151.34262	-104.96343	99.26774	27.66478	-129.37353	49.63387	39.05616	8.1367	21.96909	1.62734	-26.03744	0
735	-30.10579	-139.13757	-109.84545	84.62168	39.86983	-124.49151	49.63387	39.05616	8.1367	21.96909	1.62734	-28.47845	0
736	-17.90074	-131.81454	-114.72747	74.85764	47.19286	-124.49151	42.31084	33.36047	2.44101	14.64606	-4.06835	-38.24249	0
737	-15.45973	-129.37353	-114.72747	72.41663	49.63387	-122.0505	32.5468	26.03744	-7.32303	4.88202	-18.71441	-50.44754	0
738	-25.22377	-136.69656	-112.28646	79.73966	42.31084	-124.49151	26.85111	21.15542	-14.64606	-3.25468	-28.47845	-65.0936	0
739	-42.31084	-146.4606	-104.96343	94.38572	30.10579	-126.93252	26.85111	18.71441	-17.08707	-8.1367	-35.80148	-69.97562	0
740	-59.39791	-153.78363	-95.19939	106.59077	17.90074	-124.49151	26.85111	21.15542	-12.20505	-3.25468	-33.36047	-65.0936	0
741	-66.72094	-156.22464	-90.31737	111.47279	10.57771	-124.49151	34.98781	26.03744	-4.88202	1.62734	-23.59643	-55.32956	0
742	-64.27993	-151.34262	-87.87636	106.59077	10.57771	-119.60949	42.31084	33.36047	5.69569	9.76404	-11.39138	-40.6835	0
743	-56.9569	-139.13757	-82.99434	96.82673	13.01872	-112.28646	52.07488	39.05616	15.45973	21.96909	-1.62734	-26.03744	0
744	-42.31084	-124.49151	-82.99434	82.18067	20.34175	-104.96343	56.9569	43.93818	22.78276	29.29212	8.95037	-18.71441	0
745	-27.66478	-109.84545	-82.99434	67.53461	27.66478	-97.6404	56.9569	43.93818	22.78276	29.29212	8.95037	-18.71441	0
746	-17.90074	-100.08141	-82.99434	57.77057	32.5468	-92.75838	52.07488	39.05616	17.90074	24.4101	1.62734	-26.03744	0
747	-17.90074	-100.08141	-82.99434	57.77057	32.5468	-92.75838	47.19286	36.61515	10.57771	19.52808	-6.50936	-35.80148	0
748	-25.22377	-107.40444	-82.99434	65.0936	27.66478	-95.19939	47.19286	33.36047	8.1367	12.20505	-16.2734	-43.12451	0
749	-39.86983	-114.72747	-75.67131	77.29865	17.90074	-95.19939	47.19286	33.36047	8.1367	12.20505	-21.15542	-45.56552	0
750	-47.19286	-119.60949	-73.2303	82.18067	13.01872	-97.6404	49.63387	39.05616	10.57771	12.20505	-18.71441	-45.56552	0
751	-44.75185	-119.60949	-75.67131	82.18067	15.45973	-97.6404	52.07488	43.93818	15.45973	14.64606	-13.83239	-40.6835	0
752	-37.42882	-114.72747	-78.11232	74.85764	20.34175	-97.6404	54.51589	46.37919	20.34175	17.08707	-8.95037	-33.36047	0
753	-27.66478	-102.52242	-75.67131	65.0936	22.78276	-90.31737	54.51589	46.37919	20.34175	19.52808	-6.50936	-30.91946	0
754	-17.90074	-92.75838	-75.67131	55.32956	27.66478	-85.43535	52.07488	43.93818	17.90074	17.08707	-6.50936	-30.91946	0
755	-10.57771	-85.43535	-75.67131	48.00653	32.5468	-80.55333	47.19286	39.05616	15.45973	12.20505	-8.95037	-33.36047	0
756	-10.57771	-85.43535	-75.67131	48.00653	32.5468	-80.55333	44.75185	33.36047	13.01872	12.20505	-11.39138	-35.80148	0
757	-17.90074	-85.43535	-68.34828	50.44754	25.22377	-78.11232	44.75185	30.91946	10.57771	9.76404	-11.39138	-35.80148	0
758	-22.78276	-87.87636	-65.90727	55.32956	20.34175	-78.11232	44.75185	33.36047	13.01872	12.20505	-6.50936	-30.91946	0
759	-22.78276	-85.43535	-63.46626	52.88855	20.34175	-75.67131	42.31084	33.36047	13.01872	14.64606	-4.06835	-26.03744	0
760	-15.45973	-80.55333	-65.90727	48.00653	25.22377	-73.2303	39.86983	33.36047	15.45973	14.64606	-1.62734	-23.59643	0
761	-13.01872	-73.2303	-61.02525	43.12451	22.78276	-68.34828	37.42882	33.36047	15.45973	17.08707	-1.62734	-21.15542	0
762	-2.44101	-63.46626	-61.02525	33.36047	27.66478	-61.02525	26.85111	33.36047	10.57771	12.20505	-1.62734	-21.15542	0
763	4.88202	-58.58424	-63.46626	26.03744	32.5468	-61.02525	19.52808	30.91946	2.44101	7.32303	-6.50936	-28.47845	0
764	12.20505	-56.14323	-68.34828	21.15542	39.86983	-61.02525	12.20505	26.03744	-2.44101	1.62734	-13.83239	-35.80148	0
765	7.32303	-58.58424	-65.90727	26.03744	34.98781	-61.02525	7.32303	26.03744	-4.88202	-3.25468	-16.2734	-40.6835	0
766	4.88202	-63.46626	-68.34828	28.47845	34.98781	-65.90727	7.32303	26.03744	-4.88202	-3.25468	-16.2734	-40.6835	0
767	7.32303	-63.46626	-70.78929	28.47845	37.42882	-65.90727	4.88202	26.03744	-4.88202	-5.69569	-16.2734	-38.24249	0
768	12.20505	-63.46626	-75.67131	26.03744	42.31084	-68.34828	4.88202	28.47845	-4.88202	-5.69569	-13.83239	-33.36047	0
769	17.08707	-63.46626	-80.55333	23.59643	47.19286	-70.78929	2.44101	28.47845	-4.88202	-8.1367	-13.83239	-30.91946	0
770	19.52808	-58.58424	-78.11232	18.71441	47.19286	-68.34828	-2.44101	23.59643	-9.76404	-10.57771	-18.71441	-33.36047	0
771	24.4101	-56.14323	-80.55333	16.2734	52.07488	-68.34828	-9.76404	13.83239	-17.08707	-17.90074	-23.59643	-38.24249	0
772	24.4101	-56.14323	-80.55333	16.2734	52.07488	-68.34828	-14.64606	4.06835	-24.4101	-22.78276	-33.36047	-48.00653	0
773	19.52808	-61.02525	-80.55333	21.15542	49.63387	-70.78929	-21.96909	-8.1367	-29.29212	-30.10579	-40.6835	-55.32956	0
774	14.64606	-65.90727	-80.55333	26.03744	47.19286	-73.2303	-21.96909	-15.45973	-34.17414	-34.98781	-45.56552	-60.21158	0
775	9.76404	-70.78929	-80.55333	30.91946	44.75185	-75.67131	-21.96909	-15.45973	-34.17414	-34.98781	-48.00653	-62.65259	0
776	9.76404	-73.2303	-82.99434	30.91946	44.75185	-78.11232	-19.52808	-15.45973	-31.73313	-34.98781	-45.56552	-60.21158	0
777	9.76404	-73.2303	-82.99434	30.91946	44.75185	-78.11232	-14.64606	-10.57771	-29.29212	-32.5468	-40.6835	-55.32956	0
778	12.20505	-73.2303	-85.43535	30.91946	47.19286	-78.11232	-9.76404	-3.25468	-24.4101	-27.66478	-33.36047	-48.00653	0
779	17.08707	-70.78929	-87.87636	26.03744	52.07488	-78.11232	-4.88202	1.62734	-21.96909	-22.78276	-30.91946	-43.12451	0
780	21.96909	-68.34828	-90.31737	23.59643	54.51589	-78.11232	-4.88202	1.62734	-21.96909	-22.78276	-30.91946	-43.12451	0
781	24.4101	-68.34828	-92.75838	21.15542	56.9569	-80.55333	-4.88202	1.62734	-21.96909	-25.22377	-33.36047	-48.00653	0
782	17.08707	-70.78929	-87.87636	26.03744	52.07488	-78.11232	-4.88202	-0.81367	-24.4101	-25.22377	-35.80148	-50.44754	0
783	2.44101	-78.11232	-80.55333	38.24249	39.86983	-78.11232	-2.44101	-5.69569	-21.96909	-25.22377	-38.24249	-52.88855	0
784	-10.57771	-90.31737	-80.55333	50.44754	34.98781	-85.43535	-2.44101	-8.1367	-21.96909	-22.78276	-38.24249	-55.32956	0
785	-13.01872	-100.08141	-87.87636	55.32956	37.42882	-95.19939	2.44101	-10.57771	-17.08707	-22.78276	-38.24249	-55.32956	0
786	-22.78276	-109.84545	-87.87636	65.0936	32.5468	-100.08141	9.76404	-8.1367	-9.76404	-15.45973	-28.47845	-45.56552	0
787	-27.66478	-117.16848	-90.31737	72.41663	30.10579	-104.96343	17.08707	-3.25468	-2.44101	-8.1367	-21.15542	-38.24249	0
788	-27.66478	-122.0505	-95.19939	74.85764	32.5468	-109.84545	19.52808	1.62734	2.44101	-3.25468	-13.83239	-30.91946	0
789	-22.78276	-122.0505	-100.08141	72.41663	37.42882	-112.28646	21.96909	4.06835	2.44101	1.62734	-11.39138	-28.47845	0
790	-13.01872	-122.0505	-109.84545	67.53461	47.19286	-117.16848	21.96909	4.06835	2.44101	-0.81367	-13.83239	-30.91946	0
791	-15.45973	-122.0505	-107.40444	67.53461	44.75185	-114.72747	21.96909	6.50936	2.44101	-0.81367	-16.2734	-33.36047	0
792	-17.90074	-124.49151	-107.40444	69.97562	44.75185	-117.16848	19.52808	4.06835	-2.44101	-5.69569	-21.15542	-40.6835	0
793	-27.66478	-131.81454	-104.96343	79.73966	37.42882	-119.60949	17.08707	-0.81367	-7.32303	-10.57771	-28.47845	-48.00653	0
794	-34.98781	-136.69656	-102.52242	84.62168	32.5468	-119.60949	17.08707	-5.69569	-9.76404	-13.01872	-33.36047	-52.88855	0
795	-44.75185	-144.01959	-100.08141	94.38572	27.66478	-122.0505	17.08707	-5.69569	-7.32303	-13.01872	-33.36047	-50.44754	0
796	-49.63387	-148.90161	-100.08141	99.26774	25.22377	-124.49151	21.96909	-5.69569	-2.44101	-8.1367	-28.47845	-45.56552	0
797	-52.07488	-151.34262	-100.08141	101.70875	22.78276	-126.93252	24.4101	-3.25468	0	-3.25468	-21.15542	-38.24249	0
798	-49.63387	-148.90161	-100.08141	99.26774	25.22377	-124.49151	26.85111	-0.81367	2.44101	-0.81367	-16.2734	-33.36047	0
799	-39.86983	-141.57858	-102.52242	89.5037	30.10579	-122.0505	26.85111	-0.81367	2.44101	1.62734	-13.83239	-28.47845	0
800	-30.10579	-134.25555	-104.96343	82.18067	37.42882	-119.60949	24.4101	-0.81367	2.44101	1.62734	-13.83239	-30.91946	0
801	-25.22377	-129.37353	-104.96343	77.29865	39.86983	-117.16848	21.96909	-5.69569	-2.44101	-3.25468	-18.71441	-35.80148	0
802	-22.78276	-129.37353	-107.40444	74.85764	42.31084	-119.60949	17.08707	-10.57771	-7.32303	-8.1367	-23.59643	-40.6835	0
803	-30.10579	-129.37353	-100.08141	79.73966	34.98781	-114.72747	14.64606	-13.01872	-9.76404	-8.1367	-28.47845	-45.56552	0
804	-42.31084	-134.25555	-92.75838	87.06269	25.22377	-114.72747	17.08707	-15.45973	-9.76404	-8.1367	-28.47845	-48.00653	0
805	-54.51589	-141.57858	-87.87636	96.82673	15.45973	-114.72747	21.96909	-15.45973	-7.32303	-8.1367	-26.03744	-48.00653	0
806	-61.83892	-144.01959	-82.99434	101.70875	10.57771	-114.72747	26.85111	-13.01872	-2.44101	-5.69569	-23.59643	-43.12451	0
807	-64.27993	-144.01959	-80.55333	104.14976	8.1367	-112.28646	26.85111	-8.1367	2.44101	-3.25468	-21.15542	-35.80148	0
808	-61.83892	-141.57858	-80.55333	101.70875	8.1367	-112.28646	30.10579	-3.25468	5.69569	-0.81367	-16.2734	-30.91946	0
809	-52.07488	-136.69656	-85.43535	94.38572	15.45973	-112.28646	30.10579	-0.81367	5.69569	-0.81367	-16.2734	-30.91946	0
810	-39.86983	-126.93252	-87.87636	82.18067	22.78276	-107.40444	26.85111	-3.25468	2.44101	-3.25468	-18.71441	-33.36047	0
811	-30.10579	-122.0505	-92.75838	74.85764	30.10579	-107.40444	21.96909	-5.69569	0	-5.69569	-21.15542	-38.24249	0
812	-30.10579	-122.0505	-92.75838	74.85764	30.10579	-107.40444	21.96909	-8.1367	-2.44101	-8.1367	-26.03744	-43.12451	0
813	-34.98781	-126.93252	-92.75838	79.73966	27.66478	-109.84545	19.52808	-10.57771	-4.88202	-8.1367	-28.47845	-45.56552	0
814	-47.19286	-134.25555	-87.87636	89.5037	20.34175	-112.28646	24.4101	-10.57771	0	-5.69569	-28.47845	-45.56552	0
815	-56.9569	-144.01959	-87.87636	99.26774	15.45973	-117.16848	30.10579	-8.1367	2.44101	-0.81367	-23.59643	-43.12451	0
816	-69.16195	-153.78363	-85.43535	111.47279	8.1367	-119.60949	42.31084	1.62734	15.45973	4.88202	-16.2734	-38.24249	0
817	-76.48498	-161.10666	-85.43535	118.79582	3.25468	-124.49151	56.9569	13.83239	25.22377	12.20505	-8.95037	-30.91946	0
818	-76.48498	-165.98868	-90.31737	121.23683	5.69569	-129.37353	71.60296	28.47845	37.42882	19.52808	-1.62734	-23.59643	0
819	-76.48498	-165.98868	-90.31737	121.23683	5.69569	-129.37353	83.80801	43.93818	47.19286	29.29212	6.50936	-18.71441	0
820	-76.48498	-163.54767	-87.87636	118.79582	5.69569	-126.93252	93.57205	56.14323	52.07488	31.73313	11.39138	-16.2734	0
821	-78.92599	-163.54767	-85.43535	121.23683	3.25468	-124.49151	98.45407	68.34828	56.9569	34.17414	11.39138	-16.2734	0
822	-83.80801	-163.54767	-80.55333	123.67784	-1.62734	-122.0505	98.45407	78.11232	54.51589	34.17414	8.95037	-21.15542	0
823	-88.69003	-165.98868	-78.11232	126.11885	-6.50936	-122.0505	93.57205	85.43535	49.63387	29.29212	1.62734	-28.47845	0
824	-91.13104	-163.54767	-73.2303	126.11885	-9.76404	-119.60949	86.24902	97.6404	39.86983	21.96909	-4.06835	-33.36047	0
825	-83.80801	-156.22464	-73.2303	118.79582	-6.50936	-114.72747	71.60296	117.16848	30.10579	12.20505	-11.39138	-38.24249	0
826	-64.27993	-139.13757	-75.67131	101.70875	5.69569	-107.40444	54.51589	148.90161	13.01872	1.62734	-18.71441	-43.12451	0
827	-27.66478	-109.84545	-82.99434	67.53461	27.66478	-97.6404	26.85111	190.39878	-4.88202	-17.90074	-30.91946	-50.44754	0
828	31.73313	-68.34828	-100.08141	18.71441	64.27993	-82.99434	-12.20505	231.89595	-39.05616	-44.75185	-50.44754	-65.0936	0
829	107.40444	-12.20505	-119.60949	-48.00653	113.10013	-65.90727	-65.90727	268.5111	-82.99434	-81.367	-77.29865	-87.06269	0
830	195.2808	44.75185	-151.34262	-118.79582	174.12538	-53.70222	-134.25555	285.59817	-139.13757	-127.74619	-111.47279	-116.35481	0
831	288.03918	105.7771	-183.07575	-196.90814	235.15063	-39.05616	-212.36787	285.59817	-202.60383	-181.44841	-155.41097	-152.96996	0
832	378.35655	164.36134	-214.80888	-270.13844	296.17588	-24.4101	-297.80322	261.18807	-270.95211	-240.03265	-201.79016	-192.02612	0
833	458.90988	218.06356	-241.65999	-338.48672	349.8781	-12.20505	-385.67958	214.80888	-341.7414	-298.61689	-248.16935	-231.08228	0
834	527.25816	269.32477	-258.74706	-397.07096	393.81628	5.69569	-468.67392	148.90161	-407.64867	-349.8781	-287.22551	-260.3744	0
835	583.40139	315.70396	-268.5111	-448.33217	425.54941	25.22377	-549.22725	58.58424	-466.23291	-396.25729	-318.95864	-282.34349	0
836	624.89856	362.08315	-263.62908	-492.27035	445.07749	49.63387	-615.13452	-44.75185	-512.6121	-427.99042	-338.48672	-289.66652	0
837	649.30866	406.02133	-244.101	-526.44449	447.5185	81.367	-673.71876	-159.47932	-546.78624	-449.95951	-345.80975	-287.22551	0
838	656.63169	442.63648	-214.80888	-548.41358	435.31345	115.54114	-717.65694	-288.85285	-573.63735	-462.16456	-343.36874	-275.02046	0
839	649.30866	471.9286	-178.19373	-560.61863	413.34436	147.27427	-759.15411	-440.19547	-593.16543	-469.48759	-336.04571	-257.93339	0
840	629.78058	489.01567	-141.57858	-558.17762	386.49325	174.12538	-793.32825	-615.94819	-610.2525	-471.9286	-328.72268	-243.28733	0
841	590.72442	489.01567	-102.52242	-538.64954	347.43709	193.65346	-822.62037	-808.78798	-622.45755	-469.48759	-318.95864	-228.64127	0
842	534.58119	469.48759	-65.90727	-502.03439	301.0579	203.4175	-842.14845	-999.18676	-629.78058	-464.60557	-309.1946	-213.99521	0
843	468.67392	430.43143	-39.05616	-448.33217	254.67871	196.09447	-851.91249	-1167.61645	-632.22159	-454.84153	-296.98955	-199.34915	0
844	395.44362	376.72921	-19.52808	-384.86591	208.29952	179.0074	-842.14845	-1289.66695	-617.57553	-435.31345	-279.90248	-182.26208	0
845	327.09534	318.14497	-9.76404	-321.39965	169.24336	154.5973	-812.85633	-1348.25119	-590.72442	-408.46234	-257.93339	-160.29299	0
846	261.18807	266.88376	4.88202	-262.81541	127.74619	137.51023	-759.15411	-1343.36917	-546.78624	-369.40618	-226.20026	-133.44188	0
847	197.72181	220.50457	22.78276	-209.11319	88.69003	122.86417	-688.36482	-1272.57988	-490.64301	-320.58598	-189.58511	-104.14976	0
848	141.57858	181.44841	39.86983	-160.29299	52.07488	110.65912	-600.48846	-1145.64736	-424.73574	-269.32477	-148.08794	-72.41663	0
849	100.08141	152.15629	52.07488	-126.11885	25.22377	103.33609	-507.73008	-991.86373	-353.94645	-220.50457	-111.47279	-45.56552	0
850	65.90727	132.62821	66.72094	-99.26774	0.81367	100.89508	-417.41271	-833.19808	-288.03918	-174.12538	-82.18067	-26.03744	0
851	39.05616	117.98215	78.92599	-77.29865	-19.52808	98.45407	-339.30039	-689.17849	-234.33696	-139.95124	-60.21158	-16.2734	0
852	14.64606	100.89508	86.24902	-57.77057	-36.61515	93.57205	-268.5111	-562.24597	-190.39878	-110.65912	-45.56552	-11.39138	0
853	-4.88202	81.367	86.24902	-38.24249	-46.37919	83.80801	-209.92686	-452.40052	-151.34262	-88.69003	-38.24249	-8.95037	0
854	-13.01872	56.9569	69.16195	-21.15542	-41.49717	61.83892	-156.22464	-359.64214	-117.16848	-71.60296	-30.91946	-11.39138	0
855	-25.22377	37.42882	61.83892	-6.50936	-43.93818	49.63387	-109.84545	-279.08881	-87.87636	-56.9569	-23.59643	-8.95037	0
856	-30.10579	25.22377	54.51589	3.25468	-41.49717	39.86983	-70.78929	-210.74053	-61.02525	-39.86983	-13.83239	-4.06835	0
857	-32.5468	20.34175	52.07488	5.69569	-41.49717	34.98781	-36.61515	-154.5973	-36.61515	-25.22377	-1.62734	0.81367	0
858	-32.5468	17.90074	49.63387	5.69569	-41.49717	32.5468	-9.76404	-115.54114	-14.64606	-10.57771	8.95037	8.95037	0
859	-32.5468	17.90074	49.63387	5.69569	-41.49717	32.5468	9.76404	-88.69003	0	1.62734	16.2734	13.83239	0
860	-30.10579	22.78276	52.07488	3.25468	-41.49717	37.42882	19.52808	-74.04397	5.69569	4.88202	21.15542	16.2734	0
861	-30.10579	22.78276	52.07488	3.25468	-41.49717	37.42882	24.4101	-69.16195	10.57771	7.32303	21.15542	16.2734	0
862	-32.5468	22.78276	54.51589	5.69569	-43.93818	37.42882	26.85111	-66.72094	10.57771	7.32303	18.71441	11.39138	0
863	-37.42882	17.90074	54.51589	8.95037	-46.37919	34.98781	26.85111	-66.72094	10.57771	7.32303	13.83239	8.95037	0
864	-47.19286	10.57771	56.9569	18.71441	-51.26121	32.5468	32.5468	-66.72094	13.01872	7.32303	13.83239	8.95037	0
865	-54.51589	5.69569	59.39791	23.59643	-56.14323	32.5468	37.42882	-61.83892	15.45973	12.20505	16.2734	11.39138	0
866	-59.39791	3.25468	61.83892	28.47845	-61.02525	32.5468	44.75185	-56.9569	20.34175	17.08707	18.71441	16.2734	0
867	-61.83892	3.25468	64.27993	28.47845	-63.46626	32.5468	49.63387	-52.07488	25.22377	21.96909	23.59643	21.15542	0
868	-54.51589	8.1367	61.83892	23.59643	-58.58424	34.98781	52.07488	-47.19286	27.66478	24.4101	28.47845	23.59643	0
869	-49.63387	13.01872	61.83892	18.71441	-56.14323	37.42882	54.51589	-42.31084	30.10579	26.85111	30.91946	26.03744	0
870	-47.19286	20.34175	66.72094	13.83239	-56.14323	42.31084	56.9569	-37.42882	30.10579	26.85111	30.91946	26.03744	0
871	-44.75185	25.22377	69.16195	8.95037	-56.14323	47.19286	56.9569	-37.42882	30.10579	21.96909	28.47845	21.15542	0
872	-47.19286	25.22377	71.60296	11.39138	-58.58424	47.19286	54.51589	-37.42882	25.22377	17.08707	21.15542	13.83239	0
873	-49.63387	25.22377	74.04397	11.39138	-61.02525	49.63387	54.51589	-34.98781	25.22377	14.64606	16.2734	11.39138	0
874	-59.39791	22.78276	81.367	18.71441	-70.78929	52.07488	56.9569	-32.5468	25.22377	12.20505	16.2734	11.39138	0
875	-66.72094	17.90074	83.80801	23.59643	-75.67131	49.63387	61.83892	-30.10579	27.66478	14.64606	18.71441	16.2734	0
876	-71.60296	17.90074	88.69003	26.03744	-80.55333	52.07488	64.27993	-25.22377	32.5468	19.52808	26.03744	23.59643	0
877	-69.16195	17.90074	86.24902	26.03744	-78.11232	52.07488	69.16195	-22.78276	37.42882	24.4101	30.91946	30.91946	0
878	-61.83892	22.78276	83.80801	18.71441	-73.2303	52.07488	69.16195	-17.90074	42.31084	29.29212	38.24249	38.24249	0
879	-52.07488	27.66478	78.92599	11.39138	-65.90727	52.07488	69.16195	-17.90074	42.31084	29.29212	40.6835	40.6835	0
880	-47.19286	32.5468	78.92599	5.69569	-63.46626	54.51589	69.16195	-17.90074	42.31084	29.29212	40.6835	40.6835	0
881	-47.19286	34.98781	81.367	5.69569	-63.46626	56.9569	69.16195	-17.90074	39.86983	26.85111	40.6835	38.24249	0
882	-47.19286	34.98781	81.367	5.69569	-63.46626	56.9569	66.72094	-17.90074	37.42882	24.4101	38.24249	33.36047	0
883	-52.07488	34.98781	86.24902	8.95037	-68.34828	59.39791	64.27993	-20.34175	37.42882	19.52808	33.36047	30.91946	0
884	-56.9569	30.10579	86.24902	13.83239	-70.78929	56.9569	64.27993	-20.34175	34.98781	19.52808	30.91946	28.47845	0
885	-66.72094	27.66478	93.57205	18.71441	-80.55333	59.39791	69.16195	-20.34175	37.42882	21.96909	33.36047	30.91946	0
886	-71.60296	27.66478	98.45407	21.15542	-85.43535	61.83892	74.04397	-17.90074	42.31084	26.85111	38.24249	35.80148	0
887	-69.16195	30.10579	98.45407	18.71441	-82.99434	64.27993	74.04397	-13.01872	42.31084	26.85111	38.24249	38.24249	0
888	-59.39791	37.42882	96.01306	11.39138	-78.11232	66.72094	76.48498	-10.57771	44.75185	29.29212	40.6835	38.24249	0
889	-49.63387	47.19286	96.01306	0.81367	-73.2303	71.60296	76.48498	-10.57771	44.75185	29.29212	43.12451	40.6835	0
890	-47.19286	56.9569	103.33609	-4.06835	-75.67131	78.92599	74.04397	-10.57771	42.31084	31.73313	43.12451	40.6835	0
891	-42.31084	64.27993	105.7771	-11.39138	-73.2303	83.80801	71.60296	-13.01872	37.42882	24.4101	40.6835	35.80148	0
892	-37.42882	69.16195	105.7771	-16.2734	-70.78929	86.24902	66.72094	-17.90074	32.5468	19.52808	35.80148	30.91946	0
893	-37.42882	71.60296	108.21811	-16.2734	-73.2303	88.69003	66.72094	-22.78276	30.10579	19.52808	33.36047	28.47845	0
894	-44.75185	71.60296	115.54114	-13.83239	-80.55333	93.57205	69.16195	-22.78276	30.10579	19.52808	33.36047	28.47845	0
895	-52.07488	69.16195	120.42316	-8.95037	-85.43535	93.57205	74.04397	-20.34175	32.5468	19.52808	33.36047	30.91946	0
896	-54.51589	69.16195	122.86417	-6.50936	-87.87636	96.01306	78.92599	-17.90074	34.98781	21.96909	35.80148	33.36047	0
897	-49.63387	74.04397	122.86417	-11.39138	-85.43535	98.45407	83.80801	-13.01872	37.42882	24.4101	35.80148	35.80148	0
898	-44.75185	81.367	125.30518	-18.71441	-85.43535	103.33609	86.24902	-10.57771	42.31084	24.4101	40.6835	40.6835	0
899	-42.31084	91.13104	132.62821	-23.59643	-87.87636	110.65912	86.24902	-5.69569	44.75185	29.29212	45.56552	45.56552	0
900	-32.5468	100.89508	132.62821	-33.36047	-82.99434	115.54114	83.80801	-8.1367	39.86983	26.85111	43.12451	45.56552	0
901	-25.22377	110.65912	135.06922	-43.12451	-80.55333	122.86417	78.92599	-10.57771	34.98781	24.4101	40.6835	43.12451	0
902	-25.22377	115.54114	139.95124	-45.56552	-82.99434	127.74619	74.04397	-10.57771	32.5468	21.96909	40.6835	40.6835	0
903	-30.10579	120.42316	149.71528	-45.56552	-90.31737	135.06922	71.60296	-13.01872	30.10579	19.52808	38.24249	38.24249	0
904	-37.42882	120.42316	157.03831	-40.6835	-97.6404	137.51023	71.60296	-13.01872	30.10579	19.52808	38.24249	38.24249	0
905	-39.86983	120.42316	159.47932	-40.6835	-100.08141	139.95124	71.60296	-13.01872	30.10579	19.52808	38.24249	40.6835	0
906	-39.86983	122.86417	161.92033	-40.6835	-100.08141	142.39225	71.60296	-10.57771	30.10579	21.96909	40.6835	45.56552	0
907	-39.86983	127.74619	166.80235	-43.12451	-102.52242	147.27427	74.04397	-5.69569	34.98781	24.4101	45.56552	50.44754	0
908	-39.86983	137.51023	176.56639	-48.00653	-107.40444	157.03831	74.04397	-3.25468	39.86983	26.85111	50.44754	55.32956	0
909	-32.5468	144.83326	176.56639	-55.32956	-104.96343	159.47932	74.04397	-3.25468	39.86983	26.85111	52.88855	57.77057	0
910	-27.66478	154.5973	181.44841	-62.65259	-104.96343	166.80235	71.60296	-3.25468	39.86983	26.85111	52.88855	57.77057	0
911	-25.22377	164.36134	188.77144	-69.97562	-107.40444	176.56639	66.72094	-3.25468	37.42882	24.4101	52.88855	55.32956	0
912	-25.22377	171.68437	196.09447	-72.41663	-109.84545	183.88942	64.27993	-3.25468	34.98781	21.96909	50.44754	52.88855	0
913	-30.10579	179.0074	208.29952	-74.85764	-119.60949	193.65346	61.83892	-3.25468	34.98781	19.52808	48.00653	50.44754	0
914	-32.5468	181.44841	213.18154	-74.85764	-122.0505	196.09447	61.83892	-0.81367	32.5468	17.08707	45.56552	48.00653	0
915	-39.86983	186.33043	225.38659	-72.41663	-131.81454	205.85851	64.27993	4.06835	34.98781	17.08707	48.00653	50.44754	0
916	-42.31084	191.21245	232.70962	-74.85764	-136.69656	210.74053	64.27993	8.95037	37.42882	19.52808	50.44754	55.32956	0
917	-42.31084	198.53548	240.03265	-77.29865	-141.57858	218.06356	66.72094	16.2734	39.86983	24.4101	52.88855	62.65259	0
918	-39.86983	208.29952	247.35568	-84.62168	-144.01959	227.8276	71.60296	21.15542	42.31084	26.85111	57.77057	67.53461	0
919	-34.98781	218.06356	252.2377	-91.94471	-144.01959	235.15063	71.60296	26.03744	44.75185	29.29212	62.65259	72.41663	0
920	-32.5468	227.8276	259.56073	-96.82673	-146.4606	242.47366	71.60296	28.47845	44.75185	29.29212	62.65259	74.85764	0
921	-30.10579	237.59164	266.88376	-104.14976	-148.90161	252.2377	71.60296	30.91946	44.75185	29.29212	65.0936	74.85764	0
922	-27.66478	244.91467	271.76578	-109.03178	-148.90161	257.11972	69.16195	30.91946	44.75185	29.29212	65.0936	74.85764	0
923	-30.10579	252.2377	281.52982	-111.47279	-156.22464	266.88376	66.72094	30.91946	44.75185	29.29212	65.0936	74.85764	0
924	-32.5468	259.56073	291.29386	-113.9138	-161.10666	274.20679	66.72094	33.36047	47.19286	31.73313	65.0936	74.85764	0
925	-32.5468	266.88376	298.61689	-116.35481	-165.98868	281.52982	69.16195	36.61515	49.63387	34.17414	67.53461	77.29865	0
926	-30.10579	274.20679	303.49891	-121.23683	-165.98868	288.85285	71.60296	41.49717	49.63387	36.61515	69.97562	79.73966	0
927	-25.22377	286.41184	310.82194	-131.00087	-168.42969	298.61689	74.04397	51.26121	52.07488	36.61515	72.41663	84.62168	0
928	-20.34175	298.61689	318.14497	-138.3239	-168.42969	308.38093	74.04397	61.02525	52.07488	39.05616	72.41663	87.06269	0
929	-15.45973	310.82194	325.468	-148.08794	-170.8707	318.14497	76.48498	68.34828	52.07488	39.05616	74.85764	89.5037	0
930	-10.57771	323.02699	332.79103	-155.41097	-170.8707	327.90901	76.48498	75.67131	52.07488	39.05616	74.85764	89.5037	0
931	-10.57771	335.23204	344.99608	-162.734	-178.19373	340.11406	76.48498	80.55333	52.07488	36.61515	72.41663	89.5037	0
932	-10.57771	344.99608	354.76012	-167.61602	-183.07575	349.8781	76.48498	85.43535	52.07488	34.17414	72.41663	87.06269	0
933	-10.57771	352.31911	362.08315	-170.05703	-185.51676	357.20113	76.48498	90.31737	52.07488	34.17414	69.97562	87.06269	0
934	-10.57771	357.20113	366.96517	-172.49804	-187.95777	362.08315	76.48498	95.19939	52.07488	34.17414	69.97562	87.06269	0
935	-10.57771	362.08315	371.84719	-174.93905	-190.39878	366.96517	81.367	100.08141	54.51589	36.61515	72.41663	89.5037	0
936	-10.57771	369.40618	379.17022	-179.82107	-195.2808	374.2882	83.80801	107.40444	56.9569	39.05616	74.85764	94.38572	0
937	-4.88202	374.2882	379.17022	-184.70309	-192.83979	376.72921	88.69003	114.72747	59.39791	41.49717	77.29865	96.82673	0
938	2.44101	381.61123	379.17022	-192.02612	-187.95777	381.61123	91.13104	122.0505	61.83892	46.37919	82.18067	99.26774	0
939	4.88202	388.93426	384.05224	-196.90814	-190.39878	386.49325	96.01306	131.81454	66.72094	48.8202	84.62168	101.70875	0
940	7.32303	396.25729	388.93426	-201.79016	-190.39878	393.81628	98.45407	139.13757	66.72094	48.8202	87.06269	101.70875	0
941	14.64606	401.13931	386.49325	-206.67218	-185.51676	393.81628	98.45407	144.01959	66.72094	48.8202	87.06269	99.26774	0
942	21.96909	406.02133	384.05224	-213.99521	-180.63474	396.25729	98.45407	148.90161	66.72094	48.8202	84.62168	96.82673	0
943	21.96909	406.02133	384.05224	-213.99521	-180.63474	396.25729	98.45407	151.34262	66.72094	46.37919	82.18067	94.38572	0
944	19.52808	406.02133	386.49325	-211.5542	-183.07575	396.25729	98.45407	158.66565	69.16195	46.37919	82.18067	94.38572	0
945	19.52808	406.02133	386.49325	-211.5542	-183.07575	396.25729	100.89508	163.54767	69.16195	46.37919	82.18067	91.94471	0
946	24.4101	406.02133	381.61123	-213.99521	-178.19373	393.81628	103.33609	170.8707	69.16195	46.37919	79.73966	91.94471	0
947	26.85111	406.02133	379.17022	-216.43622	-175.75272	393.81628	105.7771	180.63474	71.60296	48.8202	79.73966	91.94471	0
948	31.73313	406.02133	374.2882	-218.87723	-170.8707	391.37527	108.21811	190.39878	71.60296	48.8202	82.18067	94.38572	0
949	39.05616	406.02133	366.96517	-221.31824	-163.54767	386.49325	110.65912	197.72181	71.60296	48.8202	82.18067	94.38572	0
950	39.05616	406.02133	366.96517	-221.31824	-163.54767	386.49325	110.65912	205.04484	74.04397	48.8202	82.18067	91.94471	0
951	39.05616	401.13931	362.08315	-218.87723	-161.10666	381.61123	110.65912	209.92686	74.04397	48.8202	79.73966	89.5037	0
952	41.49717	396.25729	354.76012	-218.87723	-156.22464	376.72921	110.65912	214.80888	74.04397	46.37919	77.29865	87.06269	0
953	43.93818	388.93426	344.99608	-216.43622	-151.34262	366.96517	110.65912	214.80888	71.60296	43.93818	74.85764	84.62168	0
954	46.37919	381.61123	335.23204	-213.99521	-144.01959	359.64214	110.65912	217.24989	71.60296	41.49717	69.97562	82.18067	0
955	43.93818	371.84719	327.90901	-206.67218	-141.57858	349.8781	110.65912	222.13191	71.60296	41.49717	69.97562	82.18067	0
956	48.8202	362.08315	313.26295	-204.23117	-131.81454	337.67305	110.65912	227.01393	71.60296	41.49717	69.97562	79.73966	0
957	56.14323	354.76012	298.61689	-204.23117	-122.0505	327.90901	110.65912	229.45494	69.16195	39.05616	65.0936	77.29865	0
958	61.02525	347.43709	286.41184	-204.23117	-112.28646	318.14497	110.65912	234.33696	69.16195	39.05616	65.0936	74.85764	0
959	65.90727	337.67305	271.76578	-201.79016	-102.52242	305.93992	110.65912	236.77797	69.16195	39.05616	62.65259	72.41663	0
960	65.90727	325.468	259.56073	-194.46713	-97.6404	293.73487	110.65912	239.21898	66.72094	36.61515	57.77057	67.53461	0
961	68.34828	313.26295	244.91467	-189.58511	-87.87636	279.08881	108.21811	239.21898	64.27993	34.17414	52.88855	62.65259	0
962	70.78929	301.0579	230.26861	-184.70309	-80.55333	266.88376	105.7771	236.77797	61.83892	29.29212	48.00653	55.32956	0
963	68.34828	283.97083	215.62255	-174.93905	-73.2303	249.79669	100.89508	236.77797	59.39791	29.29212	43.12451	50.44754	0
964	68.34828	269.32477	200.97649	-167.61602	-65.90727	235.15063	100.89508	231.89595	56.9569	24.4101	38.24249	45.56552	0
965	68.34828	252.2377	183.88942	-160.29299	-58.58424	218.06356	98.45407	227.01393	54.51589	24.4101	35.80148	43.12451	0
966	68.34828	235.15063	166.80235	-150.52895	-48.8202	200.97649	98.45407	224.57292	54.51589	24.4101	33.36047	40.6835	0
967	68.34828	218.06356	149.71528	-143.20592	-41.49717	183.88942	96.01306	219.6909	54.51589	24.4101	30.91946	38.24249	0
968	65.90727	203.4175	137.51023	-133.44188	-36.61515	171.68437	96.01306	217.24989	52.07488	24.4101	30.91946	35.80148	0
969	65.90727	186.33043	120.42316	-126.11885	-26.85111	154.5973	96.01306	212.36787	49.63387	24.4101	30.91946	33.36047	0
970	65.90727	171.68437	105.7771	-118.79582	-19.52808	139.95124	91.13104	205.04484	47.19286	21.96909	26.03744	28.47845	0
971	68.34828	154.5973	86.24902	-111.47279	-9.76404	120.42316	86.24902	200.16282	44.75185	21.96909	23.59643	26.03744	0
972	65.90727	137.51023	71.60296	-101.70875	-1.62734	105.7771	81.367	190.39878	42.31084	19.52808	21.15542	21.15542	0
973	61.02525	120.42316	59.39791	-89.5037	0.81367	91.13104	78.92599	183.07575	42.31084	19.52808	21.15542	18.71441	0
974	53.70222	105.7771	52.07488	-79.73966	0.81367	78.92599	76.48498	175.75272	42.31084	19.52808	18.71441	16.2734	0
975	46.37919	88.69003	42.31084	-67.53461	3.25468	66.72094	74.04397	168.42969	42.31084	21.96909	18.71441	16.2734	0
976	41.49717	74.04397	32.5468	-57.77057	5.69569	54.51589	74.04397	161.10666	44.75185	24.4101	21.15542	16.2734	0
977	29.29212	56.9569	27.66478	-43.12451	0.81367	42.31084	76.48498	153.78363	47.19286	26.85111	21.15542	16.2734	0
978	19.52808	42.31084	22.78276	-30.91946	-1.62734	32.5468	76.48498	146.4606	47.19286	29.29212	21.15542	16.2734	0
979	17.08707	27.66478	10.57771	-21.15542	3.25468	20.34175	76.48498	139.13757	44.75185	29.29212	21.15542	13.83239	0
980	12.20505	15.45973	2.44101	-13.83239	5.69569	10.57771	76.48498	129.37353	44.75185	26.85111	18.71441	11.39138	0
981	12.20505	3.25468	-9.76404	-6.50936	10.57771	-2.44101	74.04397	119.60949	44.75185	26.85111	18.71441	11.39138	0
982	12.20505	-4.88202	-17.08707	-4.06835	13.01872	-9.76404	71.60296	109.84545	44.75185	26.85111	16.2734	11.39138	0
983	9.76404	-14.64606	-24.4101	3.25468	15.45973	-19.52808	69.16195	100.08141	44.75185	26.85111	16.2734	8.95037	0
984	7.32303	-24.4101	-31.73313	8.95037	17.90074	-26.85111	69.16195	92.75838	44.75185	26.85111	16.2734	8.95037	0
985	2.44101	-31.73313	-34.17414	13.83239	17.90074	-31.73313	69.16195	85.43535	44.75185	26.85111	16.2734	8.95037	0
986	0	-39.05616	-39.05616	18.71441	17.90074	-39.05616	69.16195	80.55333	47.19286	29.29212	16.2734	8.95037	0
987	-4.88202	-46.37919	-41.49717	26.03744	17.90074	-43.93818	69.16195	75.67131	47.19286	29.29212	16.2734	8.95037	0
988	-7.32303	-51.26121	-43.93818	28.47845	17.90074	-46.37919	69.16195	70.78929	47.19286	29.29212	16.2734	8.95037	0
989	-10.57771	-58.58424	-48.8202	33.36047	17.90074	-53.70222	69.16195	65.90727	44.75185	29.29212	13.83239	6.50936	0
990	-15.45973	-63.46626	-48.8202	38.24249	15.45973	-56.14323	69.16195	61.02525	44.75185	29.29212	13.83239	6.50936	0
991	-17.90074	-68.34828	-51.26121	43.12451	15.45973	-61.02525	66.72094	58.58424	47.19286	29.29212	16.2734	8.95037	0
992	-20.34175	-73.2303	-53.70222	45.56552	15.45973	-63.46626	66.72094	51.26121	47.19286	31.73313	18.71441	8.95037	0
993	-22.78276	-75.67131	-53.70222	48.00653	15.45973	-65.90727	64.27993	46.37919	49.63387	31.73313	18.71441	8.95037	0
994	-30.10579	-80.55333	-51.26121	55.32956	10.57771	-65.90727	64.27993	43.93818	49.63387	34.17414	18.71441	8.95037	0
995	-37.42882	-85.43535	-48.8202	60.21158	5.69569	-68.34828	64.27993	43.93818	54.51589	36.61515	18.71441	11.39138	0
996	-39.86983	-87.87636	-48.8202	62.65259	3.25468	-68.34828	64.27993	43.93818	56.9569	36.61515	18.71441	13.83239	0
997	-39.86983	-90.31737	-51.26121	65.0936	5.69569	-70.78929	64.27993	41.49717	54.51589	36.61515	18.71441	13.83239	0
998	-42.31084	-92.75838	-51.26121	67.53461	3.25468	-73.2303	64.27993	39.05616	54.51589	36.61515	18.71441	11.39138	0
999	-42.31084	-95.19939	-53.70222	67.53461	5.69569	-75.67131	64.27993	39.05616	49.63387	36.61515	18.71441	11.39138	0
1000	-47.19286	-95.19939	-48.8202	69.97562	0.81367	-73.2303	64.27993	36.61515	49.63387	36.61515	18.71441	11.39138	0
1001	-47.19286	-95.19939	-48.8202	69.97562	0.81367	-73.2303	64.27993	36.61515	49.63387	36.61515	21.15542	11.39138	0
