samplenr	I	II	III	aVR	aVL	aVF	V1	V2	V3	V4	V5	V6	measurement
0	78.92599	82.99434	4.06835	-80.55333	38.24249	43.12451	133.44188	147.27427	146.4606	41.49717	87.87636	101.70875	0
1	81.367	82.99434	0.81367	-82.99434	40.6835	43.12451	133.44188	144.83326	146.4606	41.49717	87.87636	101.70875	0
2	93.57205	85.43535	-8.95037	-90.31737	50.44754	38.24249	128.55986	142.39225	144.01959	39.05616	82.99434	99.26774	0
3	110.65912	92.75838	-18.71441	-102.52242	65.0936	38.24249	123.67784	142.39225	146.4606	41.49717	82.99434	101.70875	0
4	120.42316	100.08141	-21.15542	-109.84545	69.97562	40.6835	116.35481	142.39225	151.34262	46.37919	90.31737	106.59077	0
5	120.42316	107.40444	-13.83239	-114.72747	67.53461	48.00653	113.9138	144.83326	156.22464	56.14323	97.6404	113.9138	0
6	113.10013	102.52242	-11.39138	-107.40444	62.65259	45.56552	104.14976	137.51023	156.22464	58.58424	100.08141	113.9138	0
7	122.86417	104.96343	-18.71441	-114.72747	69.97562	43.12451	96.82673	137.51023	156.22464	58.58424	100.08141	113.9138	0
8	132.62821	112.28646	-21.15542	-122.0505	77.29865	45.56552	89.5037	137.51023	161.10666	65.90727	104.96343	121.23683	0
9	137.51023	117.16848	-21.15542	-126.93252	79.73966	48.00653	89.5037	144.83326	168.42969	73.2303	112.28646	131.00087	0
10	142.39225	122.0505	-21.15542	-131.81454	82.18067	50.44754	91.94471	149.71528	175.75272	85.43535	119.60949	138.3239	0
11	152.15629	126.93252	-26.03744	-139.13757	89.5037	50.44754	91.94471	152.15629	180.63474	92.75838	124.49151	143.20592	0
12	161.92033	131.81454	-30.91946	-146.4606	96.82673	50.44754	94.38572	154.5973	183.07575	100.08141	126.93252	148.08794	0
13	164.36134	134.25555	-30.91946	-148.90161	96.82673	52.88855	91.94471	154.5973	183.07575	102.52242	129.37353	150.52895	0
14	161.92033	141.57858	-21.15542	-151.34262	91.94471	60.21158	87.06269	152.15629	183.07575	107.40444	131.81454	150.52895	0
15	164.36134	144.01959	-21.15542	-153.78363	91.94471	62.65259	82.18067	147.27427	178.19373	107.40444	129.37353	148.08794	0
16	159.47932	139.13757	-21.15542	-148.90161	89.5037	60.21158	74.85764	130.1872	165.98868	100.08141	122.0505	138.3239	0
17	157.03831	131.81454	-26.03744	-144.01959	91.94471	52.88855	69.97562	120.42316	153.78363	95.19939	114.72747	131.00087	0
18	157.03831	119.60949	-38.24249	-139.13757	96.82673	40.6835	65.0936	110.65912	144.01959	87.87636	107.40444	123.67784	0
19	147.27427	100.08141	-48.00653	-124.49151	96.82673	26.03744	57.77057	98.45407	131.81454	78.11232	100.08141	118.79582	0
20	142.39225	82.99434	-60.21158	-112.28646	101.70875	11.39138	50.44754	86.24902	122.0505	73.2303	97.6404	116.35481	0
21	135.06922	65.90727	-69.97562	-100.08141	101.70875	-0.81367	43.12451	74.04397	112.28646	65.90727	95.19939	116.35481	0
22	135.06922	56.14323	-79.73966	-95.19939	106.59077	-11.39138	33.36047	64.27993	104.96343	61.02525	92.75838	113.9138	0
23	137.51023	43.93818	-94.38572	-90.31737	116.35481	-26.03744	26.03744	59.39791	97.6404	56.14323	92.75838	113.9138	0
24	127.74619	31.73313	-96.82673	-80.55333	111.47279	-33.36047	18.71441	54.51589	95.19939	53.70222	95.19939	111.47279	0
25	127.74619	31.73313	-96.82673	-80.55333	111.47279	-33.36047	15.45973	52.07488	92.75838	53.70222	95.19939	111.47279	0
26	132.62821	34.17414	-99.26774	-82.99434	116.35481	-33.36047	15.45973	49.63387	90.31737	53.70222	95.19939	109.03178	0
27	125.30518	19.52808	-106.59077	-73.2303	116.35481	-43.12451	15.45973	49.63387	87.87636	53.70222	90.31737	106.59077	0
28	113.10013	2.44101	-111.47279	-58.58424	111.47279	-55.32956	15.45973	44.75185	82.99434	51.26121	82.99434	99.26774	0
29	100.89508	-4.88202	-106.59077	-48.8202	104.14976	-55.32956	21.15542	44.75185	85.43535	51.26121	80.55333	99.26774	0
30	91.13104	-8.1367	-99.26774	-41.49717	94.38572	-52.88855	23.59643	47.19286	85.43535	51.26121	78.11232	99.26774	0
31	71.60296	-27.66478	-99.26774	-21.96909	84.62168	-62.65259	21.15542	39.86983	78.11232	41.49717	70.78929	94.38572	0
32	47.19286	-54.51589	-101.70875	2.44101	72.41663	-77.29865	15.45973	30.10579	68.34828	31.73313	61.02525	87.06269	0
33	39.86983	-61.83892	-101.70875	10.57771	69.97562	-82.18067	13.01872	25.22377	58.58424	21.96909	53.70222	82.18067	0
34	39.86983	-64.27993	-104.14976	10.57771	69.97562	-84.62168	13.01872	22.78276	51.26121	14.64606	48.8202	79.73966	0
35	32.5468	-78.92599	-111.47279	22.78276	69.97562	-94.38572	8.1367	15.45973	41.49717	4.88202	39.05616	72.41663	0
36	20.34175	-98.45407	-118.79582	37.42882	67.53461	-109.03178	3.25468	3.25468	29.29212	-9.76404	24.4101	60.21158	0
37	15.45973	-103.33609	-118.79582	42.31084	65.0936	-111.47279	3.25468	-4.06835	19.52808	-17.08707	14.64606	50.44754	0
38	30.10579	-91.13104	-121.23683	30.10579	74.85764	-106.59077	13.01872	-1.62734	19.52808	-17.08707	12.20505	50.44754	0
39	47.19286	-74.04397	-121.23683	13.01872	82.18067	-96.82673	21.15542	3.25468	26.85111	-12.20505	14.64606	50.44754	0
40	49.63387	-71.60296	-121.23683	10.57771	84.62168	-96.82673	26.03744	5.69569	31.73313	-9.76404	17.08707	50.44754	0
41	49.63387	-59.39791	-109.03178	4.88202	77.29865	-84.62168	33.36047	10.57771	34.17414	-7.32303	19.52808	52.88855	0
42	61.83892	-39.86983	-101.70875	-12.20505	79.73966	-69.97562	35.80148	13.01872	34.17414	-2.44101	24.4101	52.88855	0
43	74.04397	-22.78276	-96.82673	-26.85111	84.62168	-60.21158	35.80148	17.90074	34.17414	-2.44101	29.29212	55.32956	0
44	78.92599	-25.22377	-104.14976	-26.85111	89.5037	-65.0936	26.03744	15.45973	26.85111	-7.32303	26.85111	52.88855	0
45	69.16195	-49.63387	-118.79582	-9.76404	91.94471	-84.62168	15.45973	5.69569	17.08707	-17.08707	19.52808	45.56552	0
46	56.9569	-74.04397	-131.00087	7.32303	91.94471	-101.70875	5.69569	-8.95037	2.44101	-26.85111	9.76404	33.36047	0
47	56.9569	-83.80801	-140.76491	13.01872	96.82673	-111.47279	5.69569	-16.2734	-4.88202	-32.5468	7.32303	28.47845	0
48	54.51589	-93.57205	-148.08794	17.90074	99.26774	-121.23683	10.57771	-16.2734	-7.32303	-32.5468	7.32303	30.91946	0
49	42.31084	-113.10013	-155.41097	34.98781	96.82673	-133.44188	15.45973	-13.83239	-2.44101	-29.29212	9.76404	35.80148	0
50	30.10579	-127.74619	-157.85198	47.19286	91.94471	-143.20592	21.15542	-11.39138	0	-29.29212	9.76404	35.80148	0
51	15.45973	-135.06922	-150.52895	59.39791	82.18067	-143.20592	21.15542	-11.39138	0	-29.29212	9.76404	35.80148	0
52	17.90074	-125.30518	-143.20592	52.07488	79.73966	-133.44188	23.59643	-8.95037	0	-29.29212	12.20505	38.24249	0
53	13.01872	-122.86417	-135.88289	54.51589	72.41663	-128.55986	18.71441	-8.95037	-2.44101	-32.5468	9.76404	38.24249	0
54	5.69569	-139.95124	-145.64693	66.72094	74.85764	-143.20592	13.01872	-11.39138	-9.76404	-39.86983	4.88202	33.36047	0
55	-1.62734	-152.15629	-150.52895	76.48498	72.41663	-150.52895	0.81367	-16.2734	-17.08707	-47.19286	-0.81367	26.03744	0
56	0.81367	-154.5973	-155.41097	76.48498	77.29865	-155.41097	-4.06835	-21.15542	-21.96909	-52.07488	-5.69569	21.15542	0
57	8.1367	-149.71528	-157.85198	69.16195	82.18067	-152.96996	-4.06835	-23.59643	-26.85111	-54.51589	-13.01872	15.45973	0
58	5.69569	-147.27427	-152.96996	69.16195	77.29865	-150.52895	3.25468	-23.59643	-26.85111	-52.07488	-13.01872	15.45973	0
59	-9.76404	-152.15629	-143.20592	78.92599	65.0936	-148.08794	10.57771	-23.59643	-21.96909	-52.07488	-13.01872	15.45973	0
60	-17.08707	-152.15629	-135.88289	83.80801	57.77057	-145.64693	10.57771	-26.03744	-21.96909	-52.07488	-15.45973	15.45973	0
61	-19.52808	-157.03831	-138.3239	86.24902	57.77057	-148.08794	8.1367	-30.91946	-26.85111	-54.51589	-20.34175	13.01872	0
62	-17.08707	-159.47932	-143.20592	86.24902	62.65259	-152.96996	8.1367	-35.80148	-31.73313	-59.39791	-25.22377	13.01872	0
63	-24.4101	-169.24336	-145.64693	96.01306	60.21158	-157.85198	8.1367	-35.80148	-34.17414	-59.39791	-22.78276	13.01872	0
64	-17.08707	-164.36134	-148.08794	88.69003	65.0936	-157.85198	13.01872	-28.47845	-29.29212	-54.51589	-17.90074	18.71441	0
65	-9.76404	-159.47932	-150.52895	83.80801	69.97562	-155.41097	15.45973	-26.03744	-24.4101	-49.63387	-13.01872	26.03744	0
66	0.81367	-149.71528	-150.52895	74.04397	74.85764	-150.52895	23.59643	-21.15542	-21.96909	-44.75185	-8.1367	30.91946	0
67	10.57771	-139.95124	-150.52895	64.27993	79.73966	-145.64693	33.36047	-16.2734	-17.08707	-37.42882	-3.25468	33.36047	0
68	22.78276	-122.86417	-145.64693	49.63387	82.18067	-133.44188	43.12451	-11.39138	-12.20505	-32.5468	-0.81367	35.80148	0
69	37.42882	-108.21811	-145.64693	34.98781	89.5037	-126.11885	48.00653	-11.39138	-12.20505	-32.5468	-0.81367	35.80148	0
70	42.31084	-105.7771	-148.08794	30.10579	94.38572	-126.11885	43.12451	-16.2734	-17.08707	-34.98781	-8.1367	28.47845	0
71	34.98781	-117.98215	-152.96996	39.86983	91.94471	-135.88289	35.80148	-26.03744	-24.4101	-44.75185	-17.90074	21.15542	0
72	22.78276	-130.1872	-152.96996	52.07488	87.06269	-140.76491	30.91946	-30.91946	-29.29212	-49.63387	-22.78276	15.45973	0
73	8.1367	-139.95124	-148.08794	64.27993	77.29865	-143.20592	23.59643	-33.36047	-36.61515	-54.51589	-27.66478	13.01872	0
74	-6.50936	-157.03831	-150.52895	81.367	69.97562	-152.96996	15.45973	-35.80148	-39.05616	-59.39791	-30.10579	10.57771	0
75	-21.96909	-166.80235	-145.64693	93.57205	60.21158	-157.85198	15.45973	-35.80148	-39.05616	-59.39791	-30.10579	10.57771	0
76	-41.49717	-176.56639	-135.88289	108.21811	45.56552	-157.85198	13.01872	-35.80148	-41.49717	-59.39791	-30.10579	10.57771	0
77	-56.14323	-191.21245	-135.88289	122.86417	38.24249	-165.17501	18.71441	-30.91946	-41.49717	-59.39791	-30.10579	10.57771	0
78	-56.14323	-203.4175	-148.08794	127.74619	45.56552	-177.38006	28.47845	-23.59643	-36.61515	-61.83892	-32.5468	5.69569	0
79	-43.93818	-215.62255	-172.49804	127.74619	62.65259	-194.46713	45.56552	-11.39138	-34.17414	-69.16195	-42.31084	-6.50936	0
80	-36.61515	-227.8276	-192.02612	130.1872	77.29865	-211.5542	60.21158	5.69569	-29.29212	-83.80801	-56.9569	-21.15542	0
81	-31.73313	-235.15063	-204.23117	132.62821	84.62168	-221.31824	82.18067	34.98781	-17.08707	-93.57205	-71.60296	-38.24249	0
82	-26.85111	-242.47366	-216.43622	132.62821	94.38572	-231.08228	111.47279	76.48498	4.88202	-105.7771	-86.24902	-55.32956	0
83	-12.20505	-242.47366	-231.08228	125.30518	109.03178	-238.40531	148.08794	132.62821	39.05616	-110.65912	-98.45407	-67.53461	0
84	0.81367	-242.47366	-243.28733	120.42316	121.23683	-243.28733	187.1441	198.53548	80.55333	-113.10013	-108.21811	-82.18067	0
85	13.01872	-242.47366	-255.49238	113.10013	133.44188	-248.16935	226.20026	271.76578	139.13757	-108.21811	-115.54114	-91.94471	0
86	32.5468	-235.15063	-267.69743	100.89508	148.08794	-250.61036	270.13844	359.64214	217.24989	-88.69003	-113.10013	-99.26774	0
87	52.07488	-232.70962	-284.7845	88.69003	167.61602	-257.93339	318.95864	469.48759	317.3313	-56.9569	-108.21811	-101.70875	0
88	83.80801	-230.26861	-314.07662	71.60296	196.90814	-272.57945	375.10187	598.86112	439.3818	-19.52808	-98.45407	-106.59077	0
89	113.10013	-230.26861	-343.36874	56.9569	226.20026	-287.22551	433.68611	745.32172	578.51937	26.85111	-91.13104	-111.47279	0
90	142.39225	-215.62255	-358.0148	34.98781	248.16935	-287.22551	487.38833	908.86939	739.62603	90.31737	-78.92599	-113.9138	0
91	191.21245	-176.56639	-367.77884	-7.32303	277.46147	-272.57945	533.76752	1089.50413	927.5838	175.75272	-52.07488	-106.59077	0
92	257.11972	-110.65912	-367.77884	-73.2303	311.63561	-238.40531	582.58772	1296.98998	1147.2747	285.59817	-13.01872	-89.5037	0
93	332.79103	-25.22377	-358.0148	-153.78363	343.36874	-192.02612	619.20287	1519.12189	1388.93469	417.41271	34.17414	-65.0936	0
94	423.1084	82.99434	-340.92773	-253.86504	382.4249	-128.55986	631.40792	1740.44013	1651.7501	573.63735	97.6404	-30.91946	0
95	523.18981	205.04484	-318.95864	-363.71049	421.48106	-57.77057	587.46974	1928.3979	1912.93817	751.83108	178.19373	15.45973	0
96	642.7993	346.62342	-296.98955	-495.52503	470.30126	26.03744	494.71136	2057.77143	2157.03917	944.67087	275.83413	77.29865	0
97	737.99869	468.67392	-270.13844	-602.92947	504.4754	99.26774	353.13278	2104.15062	2352.31997	1125.30561	371.03352	143.20592	0
98	791.70091	561.4323	-231.08228	-676.15977	511.79843	165.17501	179.82107	2057.77143	2467.04744	1279.08924	463.7919	209.11319	0
99	813.67	627.33957	-187.1441	-720.09795	499.59338	221.31824	-13.83239	1916.19285	2489.01653	1388.93469	541.90422	275.02046	0
100	799.02394	654.19068	-145.64693	-727.42098	472.74227	255.49238	-223.75925	1684.2969	2406.02219	1437.75489	600.48846	333.6047	1000	P+0
101	747.76273	646.86765	-101.70875	-698.12886	423.92207	272.57945	-414.15803	1397.07139	2230.26947	1415.7858	629.78058	372.66086	0
102	659.88637	602.92947	-57.77057	-632.22159	358.0148	272.57945	-563.05964	1077.29908	1969.0814	1325.46843	629.78058	399.51197	0
103	547.59991	539.46321	-8.95037	-544.34523	277.46147	265.25642	-670.46408	723.35263	1615.13495	1179.00783	610.2525	414.15803	0
104	430.43143	458.90988	28.47845	-444.26382	201.79016	243.28733	-751.01741	359.64214	1203.41793	993.49107	571.19634	421.48106	0
105	315.70396	373.47453	57.77057	-344.18241	128.55986	216.43622	-802.27862	32.5468	798.21027	786.00522	512.6121	409.27601	0
106	205.85851	292.9212	87.06269	-248.98302	60.21158	189.58511	-814.48367	-236.77797	429.61776	583.40139	449.14584	394.62995	0
107	105.7771	222.13191	116.35481	-163.54767	-6.50936	170.05703	-802.27862	-461.35089	109.84545	397.88463	388.12059	377.54288	0
108	17.90074	161.10666	143.20592	-90.31737	-62.65259	152.96996	-772.9865	-641.98563	-157.03831	244.101	329.53635	358.0148	0
109	-56.14323	102.52242	157.85198	-24.4101	-106.59077	128.55986	-726.60731	-746.94906	-342.55507	124.49151	275.83413	331.16369	0
110	-107.40444	56.14323	162.734	25.22377	-135.88289	109.03178	-663.14105	-761.59512	-427.99042	39.05616	224.57292	299.43056	0
111	-136.69656	31.73313	167.61602	52.07488	-152.96996	99.26774	-587.46974	-727.42098	-454.84153	-14.64606	185.51676	275.02046	0
112	-144.01959	17.08707	160.29299	61.83892	-152.96996	87.06269	-509.35742	-668.83674	-447.5185	-39.86983	161.10666	255.49238	0
113	-141.57858	12.20505	152.96996	64.27993	-148.08794	82.18067	-441.00914	-607.81149	-430.43143	-54.51589	139.13757	233.52329	0
114	-119.60949	21.96909	140.76491	47.19286	-131.00087	79.73966	-370.21985	-537.0222	-398.6983	-54.51589	129.37353	223.75925	0
115	-100.08141	43.93818	143.20592	27.66478	-121.23683	91.94471	-306.75359	-468.67392	-359.64214	-49.63387	126.93252	218.87723	0
116	-82.99434	61.02525	143.20592	10.57771	-113.9138	101.70875	-255.49238	-414.9717	-325.468	-44.75185	122.0505	211.5542	0
117	-70.78929	78.11232	148.08794	-4.88202	-109.03178	111.47279	-209.11319	-373.47453	-301.0579	-44.75185	117.16848	201.79016	0
118	-70.78929	75.67131	145.64693	-2.44101	-109.03178	109.03178	-170.05703	-339.30039	-279.08881	-47.19286	104.96343	189.58511	0
119	-78.11232	70.78929	148.08794	2.44101	-113.9138	109.03178	-133.44188	-310.00827	-259.56073	-49.63387	95.19939	177.38006	0
120	-85.43535	58.58424	143.20592	13.01872	-113.9138	99.26774	-106.59077	-288.03918	-247.35568	-54.51589	85.43535	162.734	0
121	-102.52242	29.29212	131.00087	34.98781	-116.35481	79.73966	-91.94471	-275.83413	-242.47366	-64.27993	70.78929	143.20592	0
122	-114.72747	7.32303	121.23683	52.07488	-118.79582	62.65259	-82.18067	-266.07009	-242.47366	-76.48498	53.70222	126.11885	0
123	-122.0505	-13.01872	109.03178	66.72094	-116.35481	48.00653	-69.97562	-251.42403	-235.15063	-78.92599	43.93818	111.47279	0
124	-124.49151	-32.5468	91.94471	76.48498	-109.03178	28.47845	-60.21158	-236.77797	-230.26861	-83.80801	36.61515	99.26774	0
125	-122.0505	-37.42882	84.62168	78.92599	-104.14976	23.59643	-55.32956	-229.45494	-230.26861	-91.13104	24.4101	89.5037	0
126	-114.72747	-30.10579	84.62168	71.60296	-101.70875	26.03744	-48.00653	-222.13191	-230.26861	-96.01306	17.08707	82.18067	0
127	-112.28646	-22.78276	89.5037	66.72094	-101.70875	33.36047	-38.24249	-209.92686	-227.8276	-96.01306	14.64606	79.73966	0
128	-102.52242	-15.45973	87.06269	56.9569	-96.82673	35.80148	-23.59643	-197.72181	-220.50457	-91.13104	14.64606	79.73966	0
129	-97.6404	-10.57771	87.06269	52.07488	-94.38572	38.24249	-13.83239	-187.95777	-218.06356	-91.13104	12.20505	77.29865	0
130	-97.6404	-2.44101	94.38572	49.63387	-96.82673	45.56552	-8.95037	-183.07575	-218.06356	-93.57205	9.76404	77.29865	0
131	-82.99434	19.52808	101.70875	30.10579	-91.94471	60.21158	0.81367	-173.31171	-210.74053	-86.24902	14.64606	82.18067	0
132	-82.99434	24.4101	106.59077	27.66478	-94.38572	65.0936	5.69569	-165.98868	-205.85851	-81.367	17.08707	84.62168	0
133	-80.55333	21.96909	101.70875	27.66478	-91.94471	60.21158	5.69569	-163.54767	-205.85851	-83.80801	17.08707	84.62168	0
134	-78.11232	17.08707	94.38572	30.10579	-87.06269	55.32956	5.69569	-161.10666	-205.85851	-83.80801	17.08707	84.62168	0
135	-87.87636	4.88202	91.94471	39.86983	-89.5037	48.00653	3.25468	-163.54767	-205.85851	-83.80801	14.64606	82.18067	0
136	-95.19939	0	94.38572	47.19286	-94.38572	45.56552	5.69569	-165.98868	-205.85851	-83.80801	14.64606	82.18067	0
137	-104.96343	-2.44101	101.70875	52.07488	-104.14976	48.00653	8.1367	-170.8707	-208.29952	-86.24902	9.76404	77.29865	0
138	-119.60949	-13.01872	106.59077	64.27993	-113.9138	45.56552	8.1367	-178.19373	-213.18154	-91.13104	1.62734	67.53461	0
139	-124.49151	-20.34175	104.14976	71.60296	-116.35481	40.6835	8.1367	-180.63474	-210.74053	-93.57205	1.62734	65.0936	0
140	-124.49151	-22.78276	101.70875	71.60296	-113.9138	38.24249	10.57771	-180.63474	-210.74053	-93.57205	-0.81367	65.0936	0
141	-117.16848	-17.90074	99.26774	66.72094	-109.03178	40.6835	13.01872	-180.63474	-210.74053	-96.01306	-0.81367	65.0936	0
142	-104.96343	-13.01872	91.94471	56.9569	-99.26774	38.24249	15.45973	-175.75272	-205.85851	-93.57205	1.62734	67.53461	0
143	-102.52242	-15.45973	87.06269	56.9569	-96.82673	35.80148	15.45973	-173.31171	-203.4175	-93.57205	1.62734	67.53461	0
144	-92.75838	-22.78276	69.97562	56.9569	-82.18067	23.59643	18.71441	-173.31171	-200.97649	-91.13104	1.62734	72.41663	0
145	-87.87636	-17.90074	69.97562	52.07488	-79.73966	26.03744	21.15542	-170.8707	-198.53548	-86.24902	4.88202	77.29865	0
146	-90.31737	-8.1367	82.18067	47.19286	-87.06269	35.80148	23.59643	-170.8707	-198.53548	-83.80801	7.32303	77.29865	0
147	-87.87636	2.44101	89.5037	42.31084	-89.5037	45.56552	28.47845	-170.8707	-196.09447	-78.92599	9.76404	79.73966	0
148	-90.31737	4.88202	94.38572	42.31084	-91.94471	48.00653	33.36047	-170.8707	-196.09447	-78.92599	7.32303	79.73966	0
149	-90.31737	14.64606	104.14976	37.42882	-96.82673	57.77057	38.24249	-168.42969	-191.21245	-76.48498	7.32303	79.73966	0
150	-95.19939	19.52808	113.9138	37.42882	-104.14976	65.0936	40.6835	-163.54767	-186.33043	-71.60296	12.20505	82.18067	0
151	-97.6404	21.96909	118.79582	37.42882	-109.03178	69.97562	43.12451	-158.66565	-183.88942	-71.60296	12.20505	82.18067	0
152	-95.19939	17.08707	111.47279	37.42882	-104.14976	62.65259	40.6835	-158.66565	-183.88942	-74.04397	12.20505	84.62168	0
153	-95.19939	4.88202	99.26774	44.75185	-96.82673	50.44754	33.36047	-161.10666	-188.77144	-78.92599	12.20505	79.73966	0
154	-92.75838	-2.44101	89.5037	47.19286	-91.94471	43.12451	26.03744	-163.54767	-193.65346	-86.24902	7.32303	74.85764	0
155	-90.31737	-8.1367	82.18067	47.19286	-87.06269	35.80148	21.15542	-165.98868	-198.53548	-88.69003	7.32303	72.41663	0
156	-85.43535	-10.57771	74.85764	47.19286	-82.18067	30.91946	18.71441	-170.8707	-203.4175	-91.13104	4.88202	69.97562	0
157	-87.87636	-10.57771	77.29865	47.19286	-84.62168	33.36047	21.15542	-165.98868	-203.4175	-91.13104	4.88202	69.97562	0
158	-92.75838	-10.57771	82.18067	49.63387	-89.5037	35.80148	23.59643	-161.10666	-203.4175	-91.13104	1.62734	67.53461	0
159	-97.6404	-8.1367	89.5037	52.07488	-94.38572	40.6835	30.91946	-153.78363	-200.97649	-86.24902	1.62734	69.97562	0
160	-104.96343	-2.44101	101.70875	52.07488	-104.14976	48.00653	38.24249	-141.57858	-191.21245	-81.367	4.88202	74.85764	0
161	-114.72747	0	113.9138	56.9569	-113.9138	55.32956	40.6835	-131.81454	-186.33043	-76.48498	9.76404	79.73966	0
162	-119.60949	4.88202	123.67784	56.9569	-121.23683	62.65259	45.56552	-122.0505	-176.56639	-71.60296	12.20505	84.62168	0
163	-122.0505	4.88202	126.11885	56.9569	-123.67784	65.0936	45.56552	-112.28646	-174.12538	-71.60296	14.64606	89.5037	0
164	-119.60949	2.44101	121.23683	56.9569	-121.23683	60.21158	40.6835	-107.40444	-174.12538	-69.16195	17.08707	91.94471	0
165	-109.84545	-2.44101	106.59077	54.51589	-109.03178	50.44754	35.80148	-107.40444	-174.12538	-71.60296	12.20505	89.5037	0
166	-109.84545	-13.01872	96.82673	59.39791	-104.14976	40.6835	28.47845	-114.72747	-181.44841	-78.92599	4.88202	82.18067	0
167	-102.52242	-10.57771	91.94471	54.51589	-99.26774	40.6835	23.59643	-117.16848	-186.33043	-83.80801	-0.81367	74.85764	0
168	-90.31737	-10.57771	79.73966	49.63387	-87.06269	33.36047	21.15542	-117.16848	-188.77144	-86.24902	-8.1367	67.53461	0
169	-80.55333	-17.90074	62.65259	47.19286	-72.41663	21.15542	18.71441	-119.60949	-191.21245	-91.13104	-15.45973	60.21158	0
170	-75.67131	-20.34175	55.32956	47.19286	-67.53461	16.2734	15.45973	-122.0505	-193.65346	-96.01306	-20.34175	52.88855	0
171	-70.78929	-15.45973	55.32956	42.31084	-65.0936	18.71441	13.01872	-122.0505	-193.65346	-100.89508	-25.22377	48.00653	0
172	-53.70222	4.88202	57.77057	22.78276	-55.32956	30.91946	13.01872	-114.72747	-186.33043	-98.45407	-22.78276	48.00653	0
173	-26.85111	29.29212	55.32956	-2.44101	-40.6835	40.6835	15.45973	-107.40444	-181.44841	-93.57205	-17.90074	50.44754	0
174	-17.08707	36.61515	52.88855	-9.76404	-35.80148	43.12451	15.45973	-100.08141	-176.56639	-93.57205	-17.90074	52.88855	0
175	-19.52808	36.61515	55.32956	-9.76404	-38.24249	45.56552	10.57771	-100.08141	-176.56639	-96.01306	-17.90074	48.00653	0
176	-17.08707	41.49717	57.77057	-12.20505	-38.24249	48.00653	8.1367	-102.52242	-176.56639	-98.45407	-20.34175	45.56552	0
177	-14.64606	41.49717	55.32956	-14.64606	-35.80148	48.00653	13.01872	-100.08141	-171.68437	-98.45407	-20.34175	43.12451	0
178	-19.52808	31.73313	50.44754	-7.32303	-35.80148	40.6835	13.01872	-100.08141	-169.24336	-98.45407	-25.22377	40.6835	0
179	-29.29212	17.08707	45.56552	4.88202	-38.24249	30.91946	15.45973	-97.6404	-166.80235	-98.45407	-30.10579	35.80148	0
180	-36.61515	9.76404	45.56552	13.01872	-40.6835	26.03744	15.45973	-95.19939	-161.92033	-98.45407	-32.5468	33.36047	0
181	-34.17414	14.64606	48.00653	7.32303	-40.6835	30.91946	21.15542	-87.87636	-154.5973	-96.01306	-32.5468	33.36047	0
182	-26.85111	21.96909	48.00653	2.44101	-38.24249	33.36047	26.03744	-75.67131	-147.27427	-91.13104	-27.66478	38.24249	0
183	-21.96909	29.29212	50.44754	-4.88202	-35.80148	38.24249	28.47845	-63.46626	-139.95124	-88.69003	-22.78276	43.12451	0
184	-17.08707	39.05616	55.32956	-12.20505	-35.80148	45.56552	26.03744	-56.14323	-139.95124	-88.69003	-22.78276	43.12451	0
185	-17.08707	43.93818	60.21158	-14.64606	-38.24249	50.44754	21.15542	-51.26121	-137.51023	-91.13104	-22.78276	43.12451	0
186	-21.96909	41.49717	62.65259	-9.76404	-43.12451	50.44754	18.71441	-51.26121	-135.06922	-93.57205	-25.22377	40.6835	0
187	-19.52808	34.17414	52.88855	-7.32303	-35.80148	43.12451	23.59643	-43.93818	-130.1872	-93.57205	-25.22377	38.24249	0
188	-24.4101	26.85111	50.44754	-2.44101	-38.24249	38.24249	26.03744	-38.24249	-125.30518	-96.01306	-27.66478	35.80148	0
189	-34.17414	14.64606	48.00653	7.32303	-40.6835	30.91946	28.47845	-33.36047	-122.86417	-98.45407	-32.5468	30.91946	0
190	-43.93818	0	43.12451	20.34175	-43.12451	21.15542	30.91946	-26.03744	-115.54114	-98.45407	-34.98781	26.03744	0
191	-48.8202	-15.45973	33.36047	30.10579	-43.12451	8.95037	38.24249	-16.2734	-105.7771	-98.45407	-34.98781	26.03744	0
192	-41.49717	-22.78276	18.71441	30.10579	-30.91946	-4.06835	45.56552	-4.06835	-98.45407	-93.57205	-32.5468	26.03744	0
193	-41.49717	-34.98781	6.50936	37.42882	-26.03744	-16.2734	48.00653	5.69569	-93.57205	-91.13104	-32.5468	23.59643	0
194	-46.37919	-47.19286	-1.62734	44.75185	-23.59643	-26.03744	45.56552	13.01872	-93.57205	-93.57205	-39.86983	15.45973	0
195	-39.05616	-49.63387	-11.39138	42.31084	-16.2734	-30.91946	45.56552	20.34175	-88.69003	-93.57205	-42.31084	10.57771	0
196	-14.64606	-39.86983	-26.03744	25.22377	4.06835	-33.36047	52.88855	30.10579	-81.367	-88.69003	-42.31084	10.57771	0
197	-1.62734	-34.98781	-33.36047	17.90074	13.83239	-33.36047	60.21158	37.42882	-78.92599	-88.69003	-44.75185	5.69569	0
198	5.69569	-37.42882	-43.12451	15.45973	23.59643	-40.6835	60.21158	39.86983	-75.67131	-93.57205	-52.07488	-1.62734	0
199	0.81367	-49.63387	-50.44754	22.78276	23.59643	-50.44754	60.21158	44.75185	-73.2303	-98.45407	-59.39791	-8.95037	0
200	3.25468	-56.9569	-60.21158	25.22377	30.91946	-57.77057	60.21158	49.63387	-70.78929	-100.89508	-64.27993	-13.83239	0
201	0.81367	-61.83892	-62.65259	30.10579	30.91946	-62.65259	57.77057	54.51589	-68.34828	-103.33609	-66.72094	-18.71441	0
202	0.81367	-74.04397	-74.85764	34.98781	35.80148	-74.85764	52.88855	54.51589	-65.90727	-108.21811	-74.04397	-28.47845	0
203	5.69569	-91.13104	-96.82673	42.31084	50.44754	-94.38572	43.12451	56.9569	-68.34828	-115.54114	-83.80801	-38.24249	0
204	8.1367	-110.65912	-118.79582	49.63387	62.65259	-113.9138	38.24249	59.39791	-70.78929	-117.98215	-91.13104	-45.56552	0
205	13.01872	-120.42316	-133.44188	52.07488	72.41663	-126.11885	38.24249	64.27993	-65.90727	-117.98215	-93.57205	-50.44754	0
206	27.66478	-120.42316	-148.08794	44.75185	87.06269	-133.44188	40.6835	64.27993	-61.02525	-117.98215	-96.01306	-52.88855	0
207	32.5468	-120.42316	-152.96996	42.31084	91.94471	-135.88289	48.00653	69.16195	-56.14323	-115.54114	-98.45407	-55.32956	0
208	37.42882	-122.86417	-160.29299	42.31084	96.82673	-140.76491	57.77057	76.48498	-46.37919	-113.10013	-98.45407	-55.32956	0
209	34.98781	-130.1872	-165.17501	47.19286	99.26774	-148.08794	67.53461	86.24902	-39.05616	-108.21811	-96.01306	-52.88855	0
210	37.42882	-130.1872	-167.61602	44.75185	101.70875	-148.08794	72.41663	96.01306	-31.73313	-105.7771	-91.13104	-52.88855	0
211	42.31084	-135.06922	-177.38006	44.75185	109.03178	-155.41097	74.85764	100.89508	-29.29212	-103.33609	-88.69003	-50.44754	0
212	32.5468	-147.27427	-179.82107	56.9569	104.14976	-162.734	67.53461	98.45407	-34.17414	-108.21811	-93.57205	-55.32956	0
213	17.90074	-161.92033	-179.82107	71.60296	96.82673	-170.05703	60.21158	96.01306	-39.05616	-115.54114	-98.45407	-62.65259	0
214	13.01872	-181.44841	-194.46713	83.80801	101.70875	-187.1441	48.00653	88.69003	-51.26121	-125.30518	-108.21811	-74.85764	0
215	13.01872	-188.77144	-201.79016	86.24902	106.59077	-194.46713	40.6835	78.92599	-61.02525	-135.06922	-120.42316	-87.06269	0
216	25.22377	-188.77144	-213.99521	81.367	118.79582	-201.79016	43.12451	71.60296	-61.02525	-137.51023	-122.86417	-94.38572	0
217	27.66478	-186.33043	-213.99521	78.92599	118.79582	-199.34915	48.00653	69.16195	-63.46626	-139.95124	-130.1872	-99.26774	0
218	32.5468	-179.0074	-211.5542	71.60296	121.23683	-194.46713	52.88855	69.16195	-61.02525	-137.51023	-130.1872	-101.70875	0
219	42.31084	-176.56639	-218.87723	66.72094	128.55986	-196.90814	57.77057	71.60296	-58.58424	-137.51023	-130.1872	-101.70875	0
220	47.19286	-174.12538	-221.31824	61.83892	133.44188	-196.90814	60.21158	76.48498	-53.70222	-135.06922	-127.74619	-99.26774	0
221	56.9569	-169.24336	-226.20026	54.51589	140.76491	-196.90814	65.0936	83.80801	-51.26121	-132.62821	-125.30518	-96.82673	0
222	52.07488	-176.56639	-228.64127	61.83892	138.3239	-201.79016	62.65259	83.80801	-51.26121	-135.06922	-125.30518	-96.82673	0
223	37.42882	-191.21245	-228.64127	76.48498	131.00087	-209.11319	60.21158	83.80801	-51.26121	-137.51023	-130.1872	-99.26774	0
224	34.98781	-196.09447	-231.08228	78.92599	131.00087	-213.99521	57.77057	86.24902	-53.70222	-139.95124	-130.1872	-101.70875	0
225	32.5468	-203.4175	-235.9643	83.80801	133.44188	-218.87723	65.0936	91.13104	-48.8202	-137.51023	-127.74619	-99.26774	0
226	34.98781	-200.97649	-235.9643	81.367	133.44188	-218.87723	74.85764	91.13104	-41.49717	-135.06922	-125.30518	-96.82673	0
227	42.31084	-188.77144	-231.08228	71.60296	135.88289	-209.11319	84.62168	88.69003	-39.05616	-132.62821	-122.86417	-96.82673	0
228	42.31084	-186.33043	-228.64127	71.60296	133.44188	-206.67218	91.94471	91.13104	-31.73313	-127.74619	-120.42316	-99.26774	0
229	42.31084	-181.44841	-223.75925	69.16195	131.00087	-201.79016	96.82673	93.57205	-24.4101	-122.86417	-115.54114	-94.38572	0
230	34.98781	-181.44841	-216.43622	71.60296	123.67784	-199.34915	96.82673	93.57205	-21.96909	-120.42316	-115.54114	-94.38572	0
231	27.66478	-183.88942	-211.5542	76.48498	118.79582	-196.90814	94.38572	88.69003	-21.96909	-120.42316	-115.54114	-94.38572	0
232	15.45973	-186.33043	-201.79016	83.80801	106.59077	-194.46713	79.73966	81.367	-26.85111	-125.30518	-120.42316	-99.26774	0
233	3.25468	-191.21245	-194.46713	93.57205	96.82673	-192.02612	69.97562	76.48498	-29.29212	-127.74619	-122.86417	-101.70875	0
234	-9.76404	-198.53548	-189.58511	103.33609	89.5037	-194.46713	60.21158	69.16195	-31.73313	-127.74619	-122.86417	-101.70875	0
235	-6.50936	-191.21245	-184.70309	98.45407	87.06269	-187.1441	57.77057	64.27993	-31.73313	-125.30518	-122.86417	-104.14976	0
236	8.1367	-174.12538	-182.26208	81.367	94.38572	-177.38006	60.21158	59.39791	-24.4101	-117.98215	-115.54114	-99.26774	0
237	25.22377	-149.71528	-174.93905	61.83892	99.26774	-162.734	69.97562	61.83892	-17.08707	-108.21811	-105.7771	-94.38572	0
238	34.98781	-135.06922	-170.05703	49.63387	101.70875	-152.96996	79.73966	66.72094	-7.32303	-98.45407	-98.45407	-87.06269	0
239	47.19286	-130.1872	-177.38006	39.86983	111.47279	-152.96996	87.06269	71.60296	2.44101	-88.69003	-91.13104	-79.73966	0
240	52.07488	-125.30518	-177.38006	34.98781	113.9138	-150.52895	87.06269	71.60296	7.32303	-83.80801	-86.24902	-77.29865	0
241	54.51589	-117.98215	-172.49804	30.10579	111.47279	-145.64693	84.62168	74.04397	9.76404	-83.80801	-81.367	-72.41663	0
242	39.86983	-125.30518	-165.17501	42.31084	101.70875	-145.64693	74.85764	66.72094	7.32303	-83.80801	-81.367	-74.85764	0
243	22.78276	-144.83326	-167.61602	59.39791	94.38572	-155.41097	62.65259	61.83892	2.44101	-83.80801	-86.24902	-74.85764	0
244	10.57771	-159.47932	-170.05703	74.04397	89.5037	-165.17501	50.44754	54.51589	-2.44101	-86.24902	-88.69003	-74.85764	0
245	10.57771	-149.71528	-160.29299	69.16195	84.62168	-155.41097	43.12451	49.63387	-2.44101	-83.80801	-88.69003	-74.85764	0
246	15.45973	-132.62821	-148.08794	56.9569	79.73966	-140.76491	43.12451	42.31084	0	-81.367	-83.80801	-72.41663	0
247	15.45973	-125.30518	-140.76491	54.51589	77.29865	-133.44188	48.00653	39.86983	2.44101	-76.48498	-81.367	-67.53461	0
248	15.45973	-122.86417	-138.3239	52.07488	74.85764	-131.00087	52.88855	39.86983	7.32303	-69.16195	-76.48498	-62.65259	0
249	8.1367	-113.10013	-121.23683	52.07488	62.65259	-116.35481	55.32956	39.86983	12.20505	-66.72094	-74.04397	-60.21158	0
250	-4.06835	-98.45407	-94.38572	49.63387	43.12451	-96.82673	52.88855	39.86983	14.64606	-66.72094	-71.60296	-57.77057	0
251	-12.20505	-93.57205	-82.18067	52.07488	33.36047	-89.5037	52.88855	42.31084	17.08707	-61.83892	-64.27993	-50.44754	0
252	-26.85111	-108.21811	-82.18067	66.72094	26.03744	-96.82673	45.56552	39.86983	17.08707	-59.39791	-64.27993	-50.44754	0
253	-31.73313	-115.54114	-84.62168	71.60296	26.03744	-101.70875	40.6835	39.86983	17.08707	-54.51589	-59.39791	-43.12451	0
254	-36.61515	-125.30518	-89.5037	78.92599	26.03744	-109.03178	30.91946	34.98781	9.76404	-56.9569	-61.83892	-45.56552	0
255	-36.61515	-120.42316	-84.62168	76.48498	23.59643	-104.14976	23.59643	30.10579	4.88202	-56.9569	-64.27993	-45.56552	0
256	-34.17414	-125.30518	-91.94471	78.92599	28.47845	-109.03178	18.71441	20.34175	0	-56.9569	-64.27993	-45.56552	0
257	-31.73313	-127.74619	-96.82673	78.92599	30.91946	-113.9138	18.71441	13.01872	-2.44101	-56.9569	-66.72094	-48.00653	0
258	-31.73313	-127.74619	-96.82673	78.92599	30.91946	-113.9138	13.01872	5.69569	-7.32303	-59.39791	-71.60296	-52.88855	0
259	-31.73313	-120.42316	-89.5037	74.04397	28.47845	-106.59077	10.57771	5.69569	-9.76404	-61.83892	-74.04397	-52.88855	0
260	-34.17414	-113.10013	-79.73966	71.60296	21.15542	-96.82673	8.1367	5.69569	-7.32303	-61.83892	-69.16195	-48.00653	0
261	-39.05616	-103.33609	-65.0936	69.16195	11.39138	-84.62168	10.57771	13.01872	-2.44101	-56.9569	-61.83892	-38.24249	0
262	-46.37919	-105.7771	-60.21158	74.04397	6.50936	-84.62168	10.57771	17.90074	0	-52.07488	-52.07488	-30.91946	0
263	-46.37919	-93.57205	-48.00653	69.16195	-0.81367	-72.41663	15.45973	25.22377	4.88202	-44.75185	-44.75185	-18.71441	0
264	-36.61515	-76.48498	-40.6835	54.51589	1.62734	-60.21158	15.45973	30.10579	9.76404	-37.42882	-37.42882	-8.95037	0
265	-26.85111	-61.83892	-35.80148	42.31084	4.06835	-50.44754	21.15542	37.42882	14.64606	-29.29212	-30.10579	0.81367	0
266	-19.52808	-54.51589	-35.80148	34.98781	6.50936	-45.56552	21.15542	32.5468	14.64606	-29.29212	-27.66478	3.25468	0
267	-21.96909	-54.51589	-33.36047	37.42882	4.06835	-45.56552	23.59643	27.66478	12.20505	-29.29212	-30.10579	0.81367	0
268	-21.96909	-54.51589	-33.36047	37.42882	4.06835	-45.56552	26.03744	27.66478	12.20505	-29.29212	-32.5468	0.81367	0
269	-26.85111	-54.51589	-28.47845	39.86983	-0.81367	-43.12451	28.47845	27.66478	12.20505	-29.29212	-32.5468	3.25468	0
270	-29.29212	-54.51589	-26.03744	39.86983	-3.25468	-40.6835	23.59643	27.66478	9.76404	-32.5468	-32.5468	0.81367	0
271	-34.17414	-54.51589	-21.15542	42.31084	-8.95037	-38.24249	23.59643	25.22377	7.32303	-37.42882	-34.98781	0.81367	0
272	-31.73313	-42.31084	-11.39138	34.98781	-11.39138	-28.47845	21.15542	25.22377	7.32303	-37.42882	-34.98781	0.81367	0
273	-29.29212	-39.86983	-11.39138	32.5468	-11.39138	-26.03744	21.15542	27.66478	12.20505	-34.98781	-32.5468	3.25468	0
274	-17.08707	-34.98781	-18.71441	25.22377	-0.81367	-28.47845	18.71441	30.10579	12.20505	-32.5468	-30.10579	8.1367	0
275	-4.06835	-27.66478	-23.59643	15.45973	8.95037	-26.03744	18.71441	30.10579	12.20505	-32.5468	-30.10579	8.1367	0
276	8.1367	-27.66478	-35.80148	7.32303	21.15542	-30.91946	21.15542	25.22377	14.64606	-32.5468	-27.66478	10.57771	0
277	-1.62734	-34.98781	-33.36047	17.90074	13.83239	-33.36047	23.59643	22.78276	12.20505	-32.5468	-27.66478	8.1367	0
278	-14.64606	-52.07488	-38.24249	32.5468	11.39138	-45.56552	26.03744	22.78276	14.64606	-32.5468	-27.66478	8.1367	0
279	-36.61515	-74.04397	-38.24249	54.51589	-0.81367	-57.77057	23.59643	20.34175	9.76404	-32.5468	-32.5468	8.1367	0
280	-43.93818	-71.60296	-28.47845	56.9569	-8.95037	-50.44754	21.15542	20.34175	7.32303	-37.42882	-34.98781	8.1367	0
281	-56.14323	-71.60296	-16.2734	61.83892	-21.15542	-45.56552	18.71441	20.34175	7.32303	-37.42882	-34.98781	8.1367	0
282	-61.02525	-74.04397	-13.83239	66.72094	-26.03744	-45.56552	15.45973	17.90074	4.88202	-39.86983	-34.98781	10.57771	0
283	-51.26121	-69.16195	-18.71441	59.39791	-18.71441	-45.56552	15.45973	22.78276	4.88202	-37.42882	-34.98781	15.45973	0
284	-39.05616	-61.83892	-23.59643	49.63387	-8.95037	-43.12451	15.45973	25.22377	4.88202	-34.98781	-32.5468	18.71441	0
285	-26.85111	-52.07488	-26.03744	37.42882	-0.81367	-40.6835	15.45973	27.66478	7.32303	-32.5468	-32.5468	21.15542	0
286	-19.52808	-49.63387	-30.91946	32.5468	4.06835	-40.6835	18.71441	25.22377	12.20505	-32.5468	-30.10579	23.59643	0
287	-14.64606	-49.63387	-35.80148	30.10579	8.95037	-43.12451	26.03744	27.66478	14.64606	-29.29212	-30.10579	23.59643	0
288	-12.20505	-47.19286	-35.80148	27.66478	11.39138	-43.12451	30.91946	27.66478	19.52808	-26.85111	-30.10579	26.03744	0
289	-12.20505	-42.31084	-30.91946	25.22377	8.95037	-38.24249	33.36047	30.10579	21.96909	-29.29212	-34.98781	23.59643	0
290	-17.08707	-42.31084	-26.03744	27.66478	4.06835	-35.80148	30.91946	32.5468	21.96909	-32.5468	-37.42882	21.15542	1500	QRS+0
291	-26.85111	-42.31084	-16.2734	32.5468	-6.50936	-30.91946	28.47845	30.10579	21.96909	-37.42882	-42.31084	15.45973	0
292	-34.17414	-44.75185	-11.39138	37.42882	-13.83239	-28.47845	26.03744	30.10579	21.96909	-37.42882	-42.31084	15.45973	0
293	-39.05616	-52.07488	-13.83239	44.75185	-13.83239	-33.36047	23.59643	32.5468	21.96909	-37.42882	-42.31084	15.45973	0
294	-34.17414	-54.51589	-21.15542	42.31084	-8.95037	-38.24249	21.15542	34.98781	19.52808	-34.98781	-42.31084	15.45973	0
295	-39.05616	-59.39791	-21.15542	47.19286	-11.39138	-40.6835	21.15542	34.98781	21.96909	-32.5468	-42.31084	15.45973	0
296	-43.93818	-66.72094	-23.59643	54.51589	-11.39138	-45.56552	26.03744	32.5468	24.4101	-32.5468	-39.86983	15.45973	0
297	-43.93818	-69.16195	-26.03744	54.51589	-11.39138	-48.00653	35.80148	32.5468	26.85111	-29.29212	-37.42882	15.45973	0
298	-43.93818	-74.04397	-30.91946	56.9569	-8.95037	-52.88855	43.12451	34.98781	31.73313	-29.29212	-37.42882	18.71441	0
299	-34.17414	-69.16195	-35.80148	49.63387	-0.81367	-52.88855	45.56552	39.86983	36.61515	-29.29212	-39.86983	18.71441	0
300	-29.29212	-66.72094	-38.24249	47.19286	4.06835	-52.88855	45.56552	39.86983	36.61515	-32.5468	-39.86983	15.45973	0
301	-39.05616	-76.48498	-38.24249	56.9569	-0.81367	-57.77057	38.24249	37.42882	31.73313	-39.86983	-44.75185	13.01872	0
302	-36.61515	-74.04397	-38.24249	54.51589	-0.81367	-57.77057	30.91946	34.98781	29.29212	-39.86983	-44.75185	13.01872	0
303	-29.29212	-71.60296	-43.12451	49.63387	6.50936	-57.77057	26.03744	37.42882	29.29212	-39.86983	-44.75185	13.01872	0
304	-31.73313	-76.48498	-45.56552	52.07488	6.50936	-62.65259	15.45973	34.98781	21.96909	-42.31084	-49.63387	10.57771	0
305	-31.73313	-74.04397	-43.12451	52.07488	4.06835	-60.21158	15.45973	32.5468	21.96909	-39.86983	-49.63387	8.1367	0
306	-34.17414	-74.04397	-40.6835	52.07488	1.62734	-57.77057	15.45973	27.66478	21.96909	-39.86983	-49.63387	5.69569	0
307	-31.73313	-69.16195	-38.24249	49.63387	1.62734	-55.32956	21.15542	27.66478	21.96909	-34.98781	-49.63387	5.69569	0
308	-24.4101	-66.72094	-43.12451	44.75185	8.95037	-55.32956	28.47845	32.5468	29.29212	-32.5468	-44.75185	8.1367	0
309	-29.29212	-66.72094	-38.24249	47.19286	4.06835	-52.88855	33.36047	34.98781	31.73313	-32.5468	-44.75185	8.1367	0
310	-31.73313	-69.16195	-38.24249	49.63387	1.62734	-55.32956	33.36047	34.98781	31.73313	-32.5468	-44.75185	8.1367	0
311	-24.4101	-66.72094	-43.12451	44.75185	8.95037	-55.32956	33.36047	34.98781	34.17414	-32.5468	-44.75185	10.57771	0
312	-26.85111	-76.48498	-50.44754	49.63387	11.39138	-65.0936	28.47845	34.98781	31.73313	-32.5468	-44.75185	8.1367	0
313	-39.05616	-93.57205	-55.32956	64.27993	6.50936	-74.85764	21.15542	32.5468	24.4101	-37.42882	-49.63387	5.69569	0
314	-34.17414	-93.57205	-60.21158	61.83892	11.39138	-77.29865	18.71441	32.5468	21.96909	-34.98781	-47.19286	5.69569	0
315	-29.29212	-96.01306	-67.53461	61.83892	18.71441	-82.18067	18.71441	32.5468	21.96909	-32.5468	-42.31084	10.57771	0
316	-24.4101	-98.45407	-74.85764	59.39791	23.59643	-87.06269	23.59643	27.66478	24.4101	-29.29212	-39.86983	10.57771	0
317	-14.64606	-86.24902	-72.41663	49.63387	28.47845	-79.73966	33.36047	27.66478	26.85111	-26.85111	-34.98781	13.01872	0
318	-9.76404	-76.48498	-67.53461	42.31084	28.47845	-72.41663	38.24249	27.66478	29.29212	-24.4101	-34.98781	13.01872	0
319	-1.62734	-56.9569	-55.32956	27.66478	26.03744	-55.32956	45.56552	32.5468	36.61515	-19.52808	-30.10579	15.45973	0
320	-4.06835	-56.9569	-52.88855	30.10579	23.59643	-55.32956	45.56552	32.5468	36.61515	-19.52808	-30.10579	15.45973	0
321	-24.4101	-66.72094	-43.12451	44.75185	8.95037	-55.32956	38.24249	27.66478	34.17414	-24.4101	-32.5468	15.45973	0
322	-36.61515	-69.16195	-33.36047	52.07488	-3.25468	-52.88855	30.91946	22.78276	29.29212	-29.29212	-34.98781	13.01872	0
323	-46.37919	-76.48498	-30.91946	59.39791	-8.95037	-55.32956	18.71441	15.45973	21.96909	-34.98781	-42.31084	3.25468	0
324	-41.49717	-81.367	-40.6835	59.39791	-0.81367	-62.65259	13.01872	13.01872	14.64606	-37.42882	-44.75185	0.81367	0
325	-31.73313	-76.48498	-45.56552	52.07488	6.50936	-62.65259	13.01872	8.1367	12.20505	-37.42882	-47.19286	-1.62734	0
326	-21.96909	-74.04397	-52.88855	47.19286	13.83239	-65.0936	13.01872	-1.62734	9.76404	-39.86983	-49.63387	-4.06835	0
327	-9.76404	-64.27993	-55.32956	34.98781	21.15542	-60.21158	21.15542	-4.06835	9.76404	-37.42882	-47.19286	-4.06835	0
328	-4.06835	-61.83892	-57.77057	32.5468	26.03744	-60.21158	28.47845	-4.06835	12.20505	-32.5468	-47.19286	-6.50936	0
329	-4.06835	-61.83892	-57.77057	32.5468	26.03744	-60.21158	33.36047	0.81367	17.08707	-32.5468	-47.19286	-6.50936	0
330	-9.76404	-61.83892	-52.88855	34.98781	21.15542	-57.77057	38.24249	8.1367	19.52808	-29.29212	-42.31084	-1.62734	0
331	-24.4101	-69.16195	-45.56552	44.75185	8.95037	-57.77057	38.24249	8.1367	19.52808	-29.29212	-42.31084	-1.62734	0
332	-29.29212	-64.27993	-35.80148	44.75185	1.62734	-50.44754	40.6835	15.45973	24.4101	-24.4101	-37.42882	5.69569	0
333	-34.17414	-56.9569	-23.59643	44.75185	-6.50936	-40.6835	40.6835	20.34175	26.85111	-21.96909	-37.42882	8.1367	0
334	-26.85111	-44.75185	-18.71441	34.98781	-6.50936	-33.36047	40.6835	20.34175	26.85111	-21.96909	-37.42882	10.57771	0
335	-9.76404	-20.34175	-11.39138	13.01872	-0.81367	-16.2734	43.12451	22.78276	29.29212	-19.52808	-37.42882	13.01872	0
336	-1.62734	-4.88202	-4.06835	2.44101	1.62734	-4.06835	48.00653	22.78276	31.73313	-14.64606	-34.98781	15.45973	0
337	-6.50936	4.88202	11.39138	0	-8.95037	8.95037	57.77057	22.78276	36.61515	-12.20505	-34.98781	15.45973	0
338	-6.50936	9.76404	16.2734	-2.44101	-11.39138	13.83239	62.65259	22.78276	36.61515	-12.20505	-32.5468	15.45973	0
339	-9.76404	7.32303	16.2734	0	-13.83239	11.39138	67.53461	25.22377	36.61515	-9.76404	-32.5468	15.45973	0
340	-12.20505	7.32303	18.71441	2.44101	-16.2734	11.39138	77.29865	30.10579	41.49717	-4.88202	-25.22377	18.71441	0
341	-21.96909	0	21.15542	10.57771	-21.15542	8.95037	82.18067	34.98781	43.93818	0	-20.34175	23.59643	0
342	-24.4101	-4.88202	18.71441	13.01872	-21.15542	6.50936	84.62168	34.98781	43.93818	2.44101	-15.45973	26.03744	0
343	-12.20505	-2.44101	8.95037	7.32303	-11.39138	1.62734	82.18067	34.98781	41.49717	2.44101	-13.01872	30.91946	0
344	-6.50936	2.44101	8.95037	2.44101	-8.95037	6.50936	82.18067	39.86983	41.49717	7.32303	-5.69569	33.36047	0
345	-9.76404	9.76404	18.71441	0	-13.83239	13.83239	82.18067	42.31084	43.93818	9.76404	-3.25468	35.80148	0
346	-9.76404	17.08707	26.03744	-4.88202	-18.71441	21.15542	77.29865	37.42882	43.93818	9.76404	-3.25468	35.80148	0
347	-4.06835	24.4101	28.47845	-9.76404	-16.2734	26.03744	74.85764	34.98781	43.93818	9.76404	-0.81367	35.80148	0
348	-4.06835	24.4101	28.47845	-9.76404	-16.2734	26.03744	69.97562	30.10579	39.05616	4.88202	-3.25468	28.47845	0
349	-6.50936	21.96909	28.47845	-7.32303	-18.71441	26.03744	69.97562	32.5468	41.49717	7.32303	-0.81367	30.91946	0
350	-4.06835	21.96909	26.03744	-9.76404	-16.2734	23.59643	69.97562	37.42882	46.37919	12.20505	1.62734	35.80148	0
351	3.25468	26.85111	23.59643	-14.64606	-11.39138	26.03744	62.65259	39.86983	48.8202	19.52808	9.76404	43.12451	0
352	10.57771	29.29212	18.71441	-19.52808	-3.25468	23.59643	55.32956	42.31084	51.26121	24.4101	14.64606	50.44754	0
353	15.45973	31.73313	16.2734	-24.4101	-0.81367	23.59643	52.88855	47.19286	56.14323	34.17414	21.96909	62.65259	0
354	15.45973	31.73313	16.2734	-24.4101	-0.81367	23.59643	48.00653	49.63387	58.58424	41.49717	31.73313	72.41663	0
355	17.90074	48.8202	30.91946	-34.17414	-6.50936	40.6835	43.12451	54.51589	63.46626	48.8202	36.61515	82.18067	0
356	27.66478	75.67131	48.00653	-51.26121	-11.39138	62.65259	43.12451	56.9569	73.2303	61.02525	48.8202	94.38572	0
357	39.86983	97.6404	57.77057	-68.34828	-8.95037	77.29865	45.56552	56.9569	78.11232	65.90727	53.70222	99.26774	0
358	56.9569	112.28646	55.32956	-85.43535	1.62734	84.62168	40.6835	56.9569	78.11232	65.90727	56.14323	104.14976	0
359	56.9569	112.28646	55.32956	-85.43535	1.62734	84.62168	33.36047	52.07488	75.67131	65.90727	53.70222	104.14976	0
360	69.16195	124.49151	55.32956	-97.6404	6.50936	89.5037	23.59643	52.07488	73.2303	63.46626	51.26121	104.14976	0
361	81.367	134.25555	52.88855	-107.40444	13.83239	94.38572	23.59643	54.51589	75.67131	70.78929	58.58424	109.03178	0
362	78.92599	126.93252	48.00653	-102.52242	16.2734	87.06269	15.45973	52.07488	75.67131	73.2303	61.02525	111.47279	0
363	66.72094	112.28646	45.56552	-90.31737	11.39138	79.73966	8.1367	47.19286	68.34828	73.2303	58.58424	109.03178	0
364	66.72094	102.52242	35.80148	-85.43535	16.2734	69.97562	8.1367	47.19286	68.34828	75.67131	61.02525	109.03178	0
365	71.60296	104.96343	33.36047	-87.87636	18.71441	69.97562	10.57771	47.19286	68.34828	78.11232	61.02525	109.03178	0
366	71.60296	102.52242	30.91946	-87.87636	21.15542	67.53461	10.57771	37.42882	65.90727	78.11232	61.02525	106.59077	0
367	61.83892	87.87636	26.03744	-75.67131	18.71441	57.77057	5.69569	25.22377	53.70222	70.78929	56.14323	101.70875	0
368	59.39791	70.78929	11.39138	-65.90727	23.59643	40.6835	-1.62734	8.1367	39.05616	58.58424	48.8202	96.82673	0
369	54.51589	53.70222	-1.62734	-53.70222	28.47845	26.03744	-11.39138	-4.06835	21.96909	46.37919	39.05616	89.5037	0
370	44.75185	34.17414	-11.39138	-39.05616	28.47845	11.39138	-21.15542	-16.2734	9.76404	36.61515	34.17414	87.06269	0
371	32.5468	21.96909	-11.39138	-26.85111	21.15542	6.50936	-28.47845	-26.03744	0	29.29212	29.29212	82.18067	0
372	17.90074	7.32303	-11.39138	-12.20505	13.83239	-0.81367	-35.80148	-33.36047	-7.32303	24.4101	26.85111	82.18067	0
373	8.1367	-2.44101	-11.39138	-2.44101	8.95037	-6.50936	-35.80148	-33.36047	-9.76404	24.4101	21.96909	79.73966	0
374	3.25468	-8.1367	-11.39138	2.44101	6.50936	-8.95037	-33.36047	-33.36047	-9.76404	24.4101	21.96909	79.73966	0
375	8.1367	-2.44101	-11.39138	-2.44101	8.95037	-6.50936	-26.03744	-26.03744	-4.88202	29.29212	24.4101	79.73966	0
376	13.01872	0	-13.83239	-7.32303	13.83239	-6.50936	-16.2734	-23.59643	0	31.73313	26.85111	79.73966	0
377	10.57771	-8.1367	-18.71441	-2.44101	13.83239	-13.83239	-13.83239	-26.03744	0	29.29212	21.96909	72.41663	0
378	10.57771	-17.90074	-28.47845	2.44101	18.71441	-23.59643	-8.95037	-28.47845	-2.44101	24.4101	17.08707	65.0936	0
379	13.01872	-20.34175	-33.36047	2.44101	21.15542	-26.03744	-11.39138	-33.36047	-12.20505	14.64606	9.76404	55.32956	0
380	13.01872	-25.22377	-38.24249	4.88202	23.59643	-30.91946	-11.39138	-35.80148	-19.52808	7.32303	4.88202	50.44754	0
381	10.57771	-34.98781	-45.56552	10.57771	26.03744	-40.6835	-13.83239	-38.24249	-26.85111	0	-0.81367	43.12451	0
382	-9.76404	-52.07488	-43.12451	30.10579	16.2734	-48.00653	-21.15542	-43.93818	-36.61515	-12.20505	-10.57771	33.36047	0
383	-17.08707	-66.72094	-50.44754	39.86983	16.2734	-60.21158	-21.15542	-43.93818	-43.93818	-19.52808	-22.78276	26.03744	0
384	-19.52808	-66.72094	-48.00653	42.31084	13.83239	-57.77057	-18.71441	-38.24249	-48.8202	-21.96909	-27.66478	21.15542	0
385	-24.4101	-61.83892	-38.24249	42.31084	6.50936	-50.44754	-11.39138	-33.36047	-48.8202	-24.4101	-30.10579	18.71441	0
386	-29.29212	-59.39791	-30.91946	42.31084	-0.81367	-45.56552	0.81367	-26.03744	-41.49717	-21.96909	-30.10579	18.71441	-1500	QRS-0
387	-41.49717	-61.83892	-21.15542	49.63387	-11.39138	-43.12451	3.25468	-26.03744	-41.49717	-24.4101	-34.98781	15.45973	0
388	-43.93818	-56.9569	-13.83239	49.63387	-16.2734	-35.80148	5.69569	-26.03744	-41.49717	-26.85111	-37.42882	15.45973	0
389	-46.37919	-54.51589	-8.95037	49.63387	-21.15542	-33.36047	10.57771	-26.03744	-41.49717	-26.85111	-37.42882	15.45973	0
390	-51.26121	-54.51589	-4.06835	52.07488	-26.03744	-30.91946	8.1367	-28.47845	-43.93818	-29.29212	-34.98781	15.45973	0
391	-56.14323	-69.16195	-13.83239	61.83892	-23.59643	-43.12451	3.25468	-35.80148	-48.8202	-32.5468	-37.42882	13.01872	0
392	-58.58424	-88.69003	-30.91946	71.60296	-16.2734	-60.21158	-6.50936	-43.93818	-58.58424	-39.86983	-42.31084	5.69569	0
393	-65.90727	-110.65912	-45.56552	86.24902	-11.39138	-79.73966	-13.83239	-56.14323	-68.34828	-44.75185	-49.63387	0.81367	0
394	-63.46626	-132.62821	-69.97562	96.01306	1.62734	-101.70875	-16.2734	-63.46626	-75.67131	-49.63387	-52.07488	-4.06835	0
395	-56.14323	-137.51023	-82.18067	96.01306	11.39138	-111.47279	-18.71441	-70.78929	-81.367	-56.9569	-59.39791	-13.83239	0
396	-48.8202	-139.95124	-91.94471	93.57205	21.15542	-116.35481	-21.15542	-78.11232	-86.24902	-64.27993	-64.27993	-21.15542	0
397	-31.73313	-125.30518	-94.38572	76.48498	30.91946	-111.47279	-16.2734	-78.11232	-83.80801	-61.83892	-61.83892	-18.71441	0
398	-29.29212	-117.98215	-89.5037	71.60296	28.47845	-104.14976	-11.39138	-75.67131	-78.92599	-59.39791	-56.9569	-16.2734	0
399	-31.73313	-108.21811	-77.29865	69.16195	21.15542	-94.38572	-6.50936	-68.34828	-75.67131	-54.51589	-52.07488	-13.83239	0
400	-39.05616	-100.89508	-62.65259	69.16195	11.39138	-82.18067	-4.06835	-61.02525	-70.78929	-52.07488	-44.75185	-8.95037	0
401	-53.70222	-103.33609	-50.44754	76.48498	-3.25468	-77.29865	-4.06835	-58.58424	-68.34828	-52.07488	-44.75185	-8.95037	0
402	-70.78929	-113.10013	-43.12451	91.13104	-16.2734	-79.73966	-1.62734	-56.14323	-65.90727	-47.19286	-37.42882	-4.06835	0
403	-90.31737	-132.62821	-43.12451	110.65912	-26.03744	-89.5037	-4.06835	-58.58424	-70.78929	-49.63387	-39.86983	-8.95037	0
404	-102.52242	-144.83326	-43.12451	122.86417	-30.91946	-94.38572	-11.39138	-68.34828	-78.92599	-54.51589	-49.63387	-18.71441	0
405	-109.84545	-149.71528	-40.6835	127.74619	-35.80148	-96.82673	-13.83239	-73.2303	-83.80801	-59.39791	-56.9569	-26.03744	0
406	-107.40444	-144.83326	-38.24249	125.30518	-35.80148	-91.94471	-8.95037	-73.2303	-83.80801	-61.83892	-59.39791	-26.03744	0
407	-102.52242	-142.39225	-40.6835	120.42316	-33.36047	-91.94471	-6.50936	-75.67131	-83.80801	-61.83892	-59.39791	-30.91946	0
408	-92.75838	-132.62821	-40.6835	110.65912	-28.47845	-87.06269	-6.50936	-78.11232	-83.80801	-64.27993	-61.83892	-33.36047	0
409	-80.55333	-117.98215	-38.24249	98.45407	-23.59643	-79.73966	-6.50936	-73.2303	-81.367	-64.27993	-61.83892	-30.91946	0
410	-58.58424	-105.7771	-48.00653	81.367	-6.50936	-77.29865	-4.06835	-68.34828	-78.92599	-61.83892	-61.83892	-30.91946	0
411	-43.93818	-103.33609	-60.21158	71.60296	6.50936	-82.18067	-4.06835	-68.34828	-78.92599	-64.27993	-61.83892	-30.91946	0
412	-34.17414	-103.33609	-69.97562	66.72094	16.2734	-87.06269	-6.50936	-65.90727	-78.92599	-64.27993	-61.83892	-30.91946	0
413	-31.73313	-105.7771	-74.85764	66.72094	21.15542	-91.94471	-6.50936	-65.90727	-78.92599	-64.27993	-64.27993	-28.47845	0
414	-34.17414	-103.33609	-69.97562	66.72094	16.2734	-87.06269	-4.06835	-63.46626	-78.92599	-61.83892	-64.27993	-23.59643	0
415	-46.37919	-110.65912	-65.0936	76.48498	8.95037	-89.5037	-1.62734	-61.02525	-78.92599	-59.39791	-64.27993	-26.03744	0
416	-68.34828	-120.42316	-52.88855	93.57205	-8.95037	-87.06269	3.25468	-61.02525	-78.92599	-61.83892	-64.27993	-26.03744	0
417	-85.43535	-120.42316	-35.80148	100.89508	-26.03744	-79.73966	10.57771	-58.58424	-70.78929	-56.9569	-61.83892	-23.59643	0
418	-92.75838	-115.54114	-23.59643	103.33609	-35.80148	-69.97562	13.01872	-56.14323	-68.34828	-54.51589	-59.39791	-21.15542	0
419	-90.31737	-115.54114	-26.03744	100.89508	-33.36047	-72.41663	8.1367	-58.58424	-70.78929	-56.9569	-64.27993	-26.03744	0
420	-85.43535	-115.54114	-30.91946	98.45407	-28.47845	-74.85764	5.69569	-58.58424	-73.2303	-59.39791	-64.27993	-28.47845	0
421	-82.99434	-120.42316	-38.24249	100.89508	-23.59643	-79.73966	3.25468	-58.58424	-73.2303	-64.27993	-66.72094	-28.47845	0
422	-75.67131	-117.98215	-43.12451	96.01306	-18.71441	-82.18067	0.81367	-58.58424	-75.67131	-64.27993	-69.16195	-30.91946	0
423	-68.34828	-115.54114	-48.00653	91.13104	-11.39138	-82.18067	-1.62734	-63.46626	-78.92599	-69.16195	-74.04397	-35.80148	0
424	-63.46626	-122.86417	-60.21158	91.13104	-3.25468	-91.94471	0.81367	-63.46626	-83.80801	-74.04397	-78.92599	-40.6835	0
425	-63.46626	-135.06922	-72.41663	98.45407	4.06835	-104.14976	8.1367	-58.58424	-81.367	-78.92599	-83.80801	-48.00653	0
426	-63.46626	-144.83326	-82.18067	103.33609	8.95037	-113.9138	21.15542	-48.8202	-78.92599	-86.24902	-93.57205	-55.32956	0
427	-65.90727	-154.5973	-89.5037	108.21811	11.39138	-123.67784	40.6835	-33.36047	-68.34828	-96.01306	-103.33609	-67.53461	0
428	-63.46626	-169.24336	-106.59077	115.54114	21.15542	-138.3239	62.65259	-4.06835	-53.70222	-105.7771	-117.98215	-82.18067	0
429	-68.34828	-183.88942	-116.35481	125.30518	23.59643	-150.52895	91.94471	39.86983	-26.85111	-113.10013	-127.74619	-91.94471	0
430	-73.2303	-198.53548	-126.11885	135.06922	26.03744	-162.734	121.23683	91.13104	4.88202	-120.42316	-139.95124	-106.59077	0
431	-75.67131	-213.18154	-138.3239	142.39225	30.91946	-177.38006	157.85198	149.71528	46.37919	-127.74619	-154.5973	-123.67784	0
432	-65.90727	-215.62255	-150.52895	139.95124	40.6835	-184.70309	192.02612	220.50457	102.52242	-122.86417	-161.92033	-135.88289	0
433	-48.8202	-218.06356	-170.05703	132.62821	60.21158	-194.46713	231.08228	305.93992	175.75272	-105.7771	-166.80235	-143.20592	0
434	-21.96909	-215.62255	-194.46713	117.98215	84.62168	-206.67218	275.02046	408.46234	270.95211	-76.48498	-164.36134	-148.08794	0
435	0.81367	-210.74053	-211.5542	103.33609	104.14976	-211.5542	326.28167	530.51284	385.67958	-39.86983	-159.47932	-152.96996	0
436	34.98781	-205.85851	-240.84632	83.80801	135.88289	-223.75925	382.4249	669.65041	522.37614	4.88202	-152.15629	-160.29299	0
437	86.24902	-179.0074	-265.25642	44.75185	174.93905	-221.31824	443.45015	830.75707	685.92381	73.2303	-132.62821	-157.85198	0
438	139.95124	-135.06922	-275.02046	-2.44101	206.67218	-204.23117	497.15237	1013.83282	876.32259	163.54767	-103.33609	-145.64693	0
439	191.21245	-76.48498	-267.69743	-58.58424	228.64127	-172.49804	548.41358	1221.31867	1098.4545	275.83413	-61.83892	-128.55986	0
440	254.67871	-8.1367	-262.81541	-124.49151	257.93339	-135.88289	585.02873	1443.45058	1342.5555	405.20766	-13.01872	-106.59077	0
441	330.35002	82.99434	-248.16935	-207.48585	289.66652	-82.18067	594.79277	1662.32781	1598.04788	554.10927	43.93818	-77.29865	0
442	420.66739	187.95777	-233.52329	-305.12625	326.28167	-23.59643	553.2956	1857.60861	1859.23595	727.42098	119.60949	-35.80148	0
443	508.54375	297.80322	-211.5542	-402.76665	360.45581	43.12451	455.6552	1996.74618	2103.33695	910.49673	205.04484	15.45973	0
444	589.09708	410.08968	-179.82107	-500.40705	384.86591	116.35481	311.63561	2052.88941	2296.17674	1086.24945	295.36221	77.29865	0
445	657.44536	515.05311	-143.20592	-585.8424	399.51197	187.1441	143.20592	2016.27426	2418.22724	1237.59207	385.67958	143.20592	0
446	708.70657	605.37048	-104.14976	-656.63169	406.835	250.61036	-43.12451	1889.34174	2449.96037	1354.76055	475.99695	216.43622	0
447	730.67566	676.15977	-55.32956	-703.01088	392.18894	311.63561	-233.52329	1679.41488	2386.49411	1418.22681	549.22725	287.22551	0
448	698.94253	695.68785	-4.06835	-698.12886	350.69177	345.80975	-409.27601	1406.83543	2225.38745	1408.46277	590.72442	340.92773	0
449	635.47627	683.4828	48.00653	-659.0727	294.54854	365.33783	-548.41358	1091.94514	1973.96342	1330.35045	605.37048	377.54288	0
450	535.39486	641.98563	106.59077	-588.28341	213.99521	375.10187	-648.49499	735.55768	1620.01697	1188.77187	590.72442	397.07096	0
451	413.34436	566.31432	152.96996	-490.64301	131.00087	360.45581	-724.1663	371.84719	1208.29995	1008.13713	556.55028	406.835	0
452	288.85285	471.11493	182.26208	-380.79756	52.88855	326.28167	-775.42751	42.31084	800.65128	803.09229	500.40705	397.07096	0
453	152.15629	351.50544	199.34915	-251.42403	-23.59643	275.02046	-804.71963	-244.101	417.41271	583.40139	422.29473	367.77884	0
454	39.86983	248.98302	209.11319	-144.01959	-84.62168	228.64127	-812.04266	-485.76099	80.55333	385.67958	346.62342	336.04571	0
455	-51.26121	168.42969	218.87723	-58.58424	-135.88289	192.02612	-799.83761	-676.15977	-191.21245	224.57292	280.71615	306.75359	0
456	-117.16848	102.52242	218.87723	7.32303	-167.61602	160.29299	-768.10448	-793.32825	-384.05224	95.19939	217.24989	275.02046	0
457	-165.98868	36.61515	201.79016	64.27993	-184.70309	118.79582	-711.96125	-817.73835	-476.81062	4.88202	161.10666	238.40531	0
458	-192.83979	2.44101	194.46713	93.57205	-194.46713	96.82673	-638.73095	-788.44623	-503.66173	-54.51589	117.16848	206.67218	0
459	-185.51676	7.32303	192.02612	88.69003	-189.58511	99.26774	-560.61863	-729.86199	-496.3387	-78.92599	92.75838	189.58511	0
460	-168.42969	29.29212	196.90814	69.16195	-182.26208	111.47279	-480.0653	-656.63169	-464.60557	-81.367	85.43535	182.26208	0
461	-148.90161	53.70222	201.79016	47.19286	-174.93905	126.11885	-399.51197	-578.51937	-423.1084	-74.04397	82.99434	177.38006	0
462	-136.69656	73.2303	209.11319	30.10579	-172.49804	140.76491	-328.72268	-507.73008	-379.17022	-64.27993	80.55333	174.93905	0
463	-114.72747	100.08141	213.99521	7.32303	-165.17501	155.41097	-270.13844	-441.82281	-337.67305	-54.51589	78.11232	174.93905	0
464	-90.31737	131.81454	221.31824	-21.96909	-155.41097	174.93905	-223.75925	-393.00261	-308.38093	-52.07488	75.67131	170.05703	0
465	-90.31737	134.25555	223.75925	-21.96909	-157.85198	177.38006	-187.1441	-361.26948	-291.29386	-56.9569	58.58424	152.96996	0
466	-104.96343	122.0505	226.20026	-9.76404	-165.17501	172.49804	-162.734	-339.30039	-281.52982	-69.16195	41.49717	131.00087	0
467	-114.72747	104.96343	218.87723	4.88202	-167.61602	160.29299	-138.3239	-322.21332	-274.20679	-78.92599	24.4101	111.47279	0
468	-117.16848	90.31737	206.67218	13.01872	-162.734	148.08794	-121.23683	-307.56726	-266.88376	-86.24902	12.20505	96.82673	0
469	-119.60949	78.11232	196.90814	20.34175	-157.85198	135.88289	-106.59077	-290.48019	-259.56073	-91.13104	1.62734	84.62168	0
470	-124.49151	61.02525	184.70309	30.10579	-155.41097	121.23683	-91.94471	-273.39312	-252.2377	-93.57205	-8.1367	74.85764	0
471	-122.0505	41.49717	162.734	39.86983	-143.20592	101.70875	-79.73966	-258.74706	-242.47366	-96.01306	-15.45973	65.0936	0
472	-122.0505	29.29212	150.52895	44.75185	-135.88289	89.5037	-72.41663	-246.54201	-237.59164	-96.01306	-20.34175	60.21158	0
473	-119.60949	24.4101	143.20592	47.19286	-131.00087	82.18067	-65.0936	-239.21898	-235.15063	-96.01306	-25.22377	55.32956	0
474	-117.16848	14.64606	131.00087	49.63387	-123.67784	72.41663	-60.21158	-234.33696	-232.70962	-96.01306	-30.10579	50.44754	0
475	-117.16848	7.32303	123.67784	54.51589	-121.23683	65.0936	-52.88855	-229.45494	-232.70962	-96.01306	-32.5468	45.56552	0
476	-119.60949	7.32303	126.11885	54.51589	-123.67784	65.0936	-45.56552	-229.45494	-230.26861	-98.45407	-34.98781	43.12451	0
477	-126.93252	9.76404	135.88289	56.9569	-131.00087	72.41663	-38.24249	-227.01393	-227.8276	-96.01306	-32.5468	43.12451	0
478	-129.37353	7.32303	135.88289	59.39791	-133.44188	69.97562	-33.36047	-224.57292	-222.94558	-96.01306	-32.5468	43.12451	0
479	-131.81454	4.88202	135.88289	61.83892	-133.44188	69.97562	-30.91946	-222.13191	-222.94558	-96.01306	-32.5468	43.12451	0
480	-131.81454	2.44101	133.44188	64.27993	-133.44188	67.53461	-33.36047	-222.13191	-225.38659	-103.33609	-37.42882	38.24249	0
481	-134.25555	-2.44101	131.00087	66.72094	-133.44188	62.65259	-38.24249	-224.57292	-230.26861	-110.65912	-42.31084	33.36047	0
482	-139.13757	-10.57771	128.55986	74.04397	-135.88289	57.77057	-43.12451	-224.57292	-232.70962	-115.54114	-44.75185	28.47845	0
483	-146.4606	-30.10579	116.35481	86.24902	-133.44188	43.12451	-50.44754	-229.45494	-237.59164	-120.42316	-49.63387	23.59643	0
484	-156.22464	-47.19286	109.03178	100.89508	-133.44188	30.91946	-55.32956	-234.33696	-242.47366	-125.30518	-54.51589	21.15542	0
485	-163.54767	-59.39791	104.14976	110.65912	-135.88289	21.15542	-55.32956	-234.33696	-242.47366	-127.74619	-56.9569	18.71441	0
486	-161.10666	-59.39791	101.70875	108.21811	-133.44188	21.15542	-48.00653	-231.89595	-237.59164	-125.30518	-54.51589	18.71441	0
487	-146.4606	-42.31084	104.14976	93.57205	-126.11885	30.91946	-40.6835	-227.01393	-230.26861	-117.98215	-47.19286	26.03744	0
488	-131.81454	-25.22377	106.59077	76.48498	-121.23683	40.6835	-33.36047	-219.6909	-220.50457	-113.10013	-39.86983	33.36047	0
489	-114.72747	-8.1367	106.59077	59.39791	-111.47279	48.00653	-26.03744	-209.92686	-213.18154	-105.7771	-34.98781	38.24249	0
490	-95.19939	14.64606	109.03178	39.86983	-101.70875	60.21158	-26.03744	-202.60383	-208.29952	-103.33609	-32.5468	43.12451	0
491	-82.99434	29.29212	111.47279	25.22377	-96.82673	69.97562	-26.03744	-200.16282	-205.85851	-100.89508	-30.10579	43.12451	0
492	-78.11232	41.49717	118.79582	17.90074	-99.26774	79.73966	-26.03744	-195.2808	-203.4175	-98.45407	-25.22377	48.00653	0
493	-87.87636	39.05616	126.11885	22.78276	-106.59077	82.18067	-26.03744	-192.83979	-200.97649	-98.45407	-27.66478	50.44754	0
494	-104.96343	17.08707	121.23683	42.31084	-113.9138	67.53461	-33.36047	-200.16282	-210.74053	-105.7771	-34.98781	43.12451	0
495	-122.0505	-8.1367	113.9138	64.27993	-118.79582	52.88855	-40.6835	-209.92686	-218.06356	-113.10013	-44.75185	33.36047	0
496	-139.13757	-15.45973	123.67784	76.48498	-133.44188	52.88855	-43.12451	-214.80888	-220.50457	-117.98215	-47.19286	30.91946	0
497	-131.81454	-8.1367	123.67784	69.16195	-128.55986	57.77057	-35.80148	-209.92686	-213.18154	-113.10013	-42.31084	35.80148	0
498	-119.60949	-4.88202	113.9138	61.83892	-116.35481	52.88855	-33.36047	-205.04484	-208.29952	-108.21811	-37.42882	40.6835	0
499	-112.28646	2.44101	113.9138	54.51589	-113.9138	57.77057	-33.36047	-202.60383	-208.29952	-108.21811	-37.42882	40.6835	0
500	-107.40444	12.20505	118.79582	47.19286	-113.9138	65.0936	-33.36047	-197.72181	-203.4175	-108.21811	-34.98781	43.12451	0
501	-102.52242	19.52808	121.23683	39.86983	-111.47279	69.97562	-30.91946	-190.39878	-198.53548	-103.33609	-32.5468	45.56552	0
502	-90.31737	41.49717	131.00087	22.78276	-111.47279	84.62168	-26.03744	-178.19373	-186.33043	-93.57205	-20.34175	57.77057	0
503	-78.11232	51.26121	128.55986	13.01872	-104.14976	89.5037	-21.15542	-170.8707	-179.0074	-86.24902	-13.01872	65.0936	0
504	-80.55333	56.14323	135.88289	10.57771	-109.03178	94.38572	-23.59643	-170.8707	-181.44841	-88.69003	-17.90074	65.0936	0
505	-90.31737	56.14323	145.64693	15.45973	-118.79582	99.26774	-28.47845	-173.31171	-183.88942	-91.13104	-20.34175	60.21158	0
506	-95.19939	39.05616	133.44188	27.66478	-113.9138	84.62168	-28.47845	-173.31171	-183.88942	-91.13104	-22.78276	60.21158	0
507	-97.6404	31.73313	128.55986	32.5468	-113.9138	79.73966	-23.59643	-173.31171	-183.88942	-91.13104	-22.78276	57.77057	0
508	-104.96343	24.4101	128.55986	39.86983	-116.35481	74.85764	-26.03744	-175.75272	-188.77144	-96.01306	-27.66478	55.32956	0
509	-114.72747	17.08707	131.00087	47.19286	-123.67784	72.41663	-30.91946	-178.19373	-193.65346	-103.33609	-34.98781	48.00653	0
510	-119.60949	9.76404	128.55986	54.51589	-123.67784	67.53461	-33.36047	-175.75272	-193.65346	-103.33609	-37.42882	43.12451	0
511	-119.60949	0	118.79582	59.39791	-118.79582	57.77057	-33.36047	-170.8707	-191.21245	-103.33609	-37.42882	43.12451	0
512	-124.49151	2.44101	126.11885	59.39791	-126.11885	62.65259	-35.80148	-168.42969	-191.21245	-103.33609	-37.42882	43.12451	0
513	-119.60949	12.20505	131.00087	52.07488	-126.11885	69.97562	-35.80148	-163.54767	-188.77144	-103.33609	-34.98781	43.12451	0
514	-114.72747	14.64606	128.55986	49.63387	-121.23683	69.97562	-35.80148	-161.10666	-186.33043	-103.33609	-34.98781	45.56552	0
515	-95.19939	26.85111	121.23683	32.5468	-109.03178	72.41663	-30.91946	-151.34262	-179.0074	-96.01306	-27.66478	50.44754	0
516	-85.43535	34.17414	118.79582	25.22377	-101.70875	74.85764	-23.59643	-146.4606	-174.12538	-93.57205	-22.78276	52.88855	0
517	-87.87636	36.61515	123.67784	25.22377	-106.59077	79.73966	-21.15542	-146.4606	-171.68437	-93.57205	-22.78276	52.88855	0
518	-97.6404	29.29212	126.11885	32.5468	-111.47279	77.29865	-18.71441	-148.90161	-171.68437	-98.45407	-25.22377	48.00653	0
519	-100.08141	19.52808	118.79582	39.86983	-109.03178	67.53461	-23.59643	-151.34262	-176.56639	-103.33609	-27.66478	43.12451	0
520	-100.08141	12.20505	111.47279	42.31084	-106.59077	60.21158	-26.03744	-151.34262	-176.56639	-103.33609	-30.10579	40.6835	0
521	-102.52242	4.88202	106.59077	47.19286	-104.14976	55.32956	-33.36047	-151.34262	-181.44841	-108.21811	-34.98781	35.80148	0
522	-114.72747	-10.57771	104.14976	61.83892	-111.47279	45.56552	-38.24249	-151.34262	-183.88942	-113.10013	-39.86983	30.91946	0
523	-122.0505	-22.78276	99.26774	71.60296	-111.47279	38.24249	-40.6835	-151.34262	-183.88942	-115.54114	-42.31084	26.03744	0
524	-114.72747	-15.45973	99.26774	64.27993	-109.03178	40.6835	-40.6835	-144.01959	-179.0074	-113.10013	-42.31084	26.03744	0
525	-92.75838	4.88202	96.82673	42.31084	-94.38572	50.44754	-30.91946	-131.81454	-171.68437	-105.7771	-37.42882	33.36047	0
526	-80.55333	14.64606	94.38572	32.5468	-87.06269	52.88855	-23.59643	-124.49151	-164.36134	-105.7771	-37.42882	33.36047	0
527	-75.67131	21.96909	96.82673	25.22377	-87.06269	57.77057	-16.2734	-117.16848	-157.03831	-103.33609	-32.5468	33.36047	0
528	-78.11232	24.4101	101.70875	25.22377	-89.5037	62.65259	-8.95037	-109.84545	-149.71528	-100.89508	-30.10579	30.91946	0
529	-70.78929	34.17414	104.14976	17.90074	-87.06269	67.53461	-4.06835	-102.52242	-142.39225	-98.45407	-25.22377	33.36047	0
530	-68.34828	34.17414	101.70875	15.45973	-84.62168	67.53461	-1.62734	-92.75838	-137.51023	-96.01306	-25.22377	33.36047	0
531	-85.43535	17.08707	101.70875	32.5468	-94.38572	57.77057	-8.95037	-92.75838	-139.95124	-103.33609	-30.10579	23.59643	0
532	-95.19939	4.88202	99.26774	44.75185	-96.82673	50.44754	-11.39138	-92.75838	-139.95124	-105.7771	-34.98781	18.71441	0
533	-95.19939	0	94.38572	47.19286	-94.38572	45.56552	-13.83239	-85.43535	-139.95124	-105.7771	-37.42882	15.45973	0
534	-92.75838	-8.1367	84.62168	49.63387	-89.5037	38.24249	-13.83239	-80.55333	-137.51023	-105.7771	-39.86983	15.45973	0
535	-80.55333	-8.1367	72.41663	42.31084	-77.29865	30.91946	-11.39138	-70.78929	-132.62821	-103.33609	-39.86983	13.01872	0
536	-73.2303	-8.1367	65.0936	39.86983	-69.97562	28.47845	-8.95037	-65.90727	-132.62821	-108.21811	-44.75185	8.1367	0
537	-58.58424	-8.1367	50.44754	32.5468	-55.32956	21.15542	-4.06835	-58.58424	-125.30518	-108.21811	-44.75185	8.1367	0
538	-48.8202	-2.44101	45.56552	25.22377	-48.00653	21.15542	3.25468	-48.8202	-115.54114	-105.7771	-44.75185	8.1367	0
539	-46.37919	4.88202	50.44754	20.34175	-48.00653	26.03744	8.1367	-38.24249	-110.65912	-103.33609	-44.75185	10.57771	0
540	-51.26121	7.32303	57.77057	20.34175	-55.32956	30.91946	10.57771	-28.47845	-105.7771	-105.7771	-44.75185	5.69569	0
541	-53.70222	9.76404	62.65259	20.34175	-57.77057	35.80148	5.69569	-23.59643	-105.7771	-113.10013	-54.51589	-1.62734	0
542	-56.14323	0	55.32956	27.66478	-55.32956	26.03744	3.25468	-18.71441	-105.7771	-115.54114	-56.9569	-6.50936	0
543	-51.26121	-10.57771	40.6835	30.10579	-48.00653	13.83239	5.69569	-8.95037	-100.89508	-113.10013	-56.9569	-6.50936	0
544	-43.93818	-15.45973	28.47845	27.66478	-38.24249	6.50936	8.1367	3.25468	-91.13104	-108.21811	-54.51589	-4.06835	0
545	-41.49717	-27.66478	13.83239	32.5468	-28.47845	-8.95037	10.57771	10.57771	-86.24902	-108.21811	-54.51589	-8.95037	0
546	-31.73313	-32.5468	-1.62734	30.10579	-16.2734	-18.71441	10.57771	15.45973	-81.367	-110.65912	-59.39791	-13.83239	0
547	-24.4101	-42.31084	-18.71441	32.5468	-3.25468	-30.91946	15.45973	22.78276	-75.67131	-110.65912	-59.39791	-18.71441	0
548	-19.52808	-52.07488	-33.36047	34.98781	6.50936	-43.12451	15.45973	30.10579	-68.34828	-113.10013	-59.39791	-21.15542	0
549	-24.4101	-56.9569	-33.36047	39.86983	4.06835	-45.56552	13.01872	34.98781	-65.90727	-117.98215	-66.72094	-28.47845	0
550	-48.8202	-78.92599	-30.91946	61.83892	-11.39138	-55.32956	3.25468	32.5468	-73.2303	-127.74619	-81.367	-45.56552	0
551	-56.14323	-96.01306	-40.6835	74.04397	-8.95037	-69.97562	-1.62734	32.5468	-75.67131	-135.06922	-91.13104	-55.32956	0
552	-48.8202	-105.7771	-57.77057	76.48498	4.06835	-82.18067	-1.62734	37.42882	-75.67131	-132.62821	-93.57205	-57.77057	0
553	-48.8202	-122.86417	-74.85764	83.80801	11.39138	-99.26774	-1.62734	42.31084	-75.67131	-130.1872	-98.45407	-62.65259	0
554	-39.05616	-130.1872	-91.94471	83.80801	26.03744	-111.47279	-1.62734	44.75185	-75.67131	-130.1872	-105.7771	-67.53461	0
555	-29.29212	-132.62821	-104.14976	78.92599	35.80148	-118.79582	3.25468	49.63387	-75.67131	-130.1872	-110.65912	-72.41663	0
556	-9.76404	-130.1872	-121.23683	69.16195	55.32956	-126.11885	15.45973	56.9569	-68.34828	-127.74619	-108.21811	-72.41663	0
557	13.01872	-120.42316	-133.44188	52.07488	72.41663	-126.11885	23.59643	61.83892	-58.58424	-122.86417	-105.7771	-69.97562	0
558	13.01872	-125.30518	-138.3239	54.51589	74.85764	-131.00087	23.59643	61.83892	-58.58424	-125.30518	-110.65912	-74.85764	0
559	10.57771	-135.06922	-145.64693	61.83892	77.29865	-140.76491	23.59643	64.27993	-56.14323	-130.1872	-113.10013	-77.29865	0
560	13.01872	-142.39225	-155.41097	64.27993	82.18067	-148.08794	21.15542	69.16195	-53.70222	-132.62821	-113.10013	-79.73966	0
561	3.25468	-159.47932	-162.734	76.48498	82.18067	-160.29299	15.45973	69.16195	-53.70222	-135.06922	-115.54114	-84.62168	0
562	-6.50936	-174.12538	-167.61602	88.69003	79.73966	-170.05703	10.57771	64.27993	-58.58424	-139.95124	-122.86417	-91.94471	0
563	-9.76404	-183.88942	-174.93905	96.01306	82.18067	-179.82107	5.69569	59.39791	-63.46626	-147.27427	-130.1872	-101.70875	0
564	-6.50936	-193.65346	-187.1441	98.45407	89.5037	-189.58511	5.69569	59.39791	-65.90727	-149.71528	-132.62821	-106.59077	0
565	-4.06835	-198.53548	-194.46713	100.89508	94.38572	-196.90814	15.45973	64.27993	-63.46626	-149.71528	-132.62821	-109.03178	0
566	3.25468	-193.65346	-196.90814	93.57205	99.26774	-194.46713	26.03744	66.72094	-58.58424	-144.83326	-132.62821	-109.03178	0
567	20.34175	-181.44841	-201.79016	78.92599	109.03178	-192.02612	33.36047	66.72094	-56.14323	-144.83326	-132.62821	-111.47279	0
568	39.86983	-176.56639	-216.43622	66.72094	126.11885	-196.90814	40.6835	71.60296	-51.26121	-142.39225	-127.74619	-109.03178	0
569	54.51589	-169.24336	-223.75925	56.9569	138.3239	-196.90814	40.6835	78.92599	-51.26121	-142.39225	-125.30518	-109.03178	0
570	61.83892	-174.12538	-235.9643	54.51589	148.08794	-204.23117	45.56552	88.69003	-46.37919	-137.51023	-122.86417	-104.14976	0
571	56.9569	-183.88942	-240.84632	61.83892	148.08794	-211.5542	43.12451	88.69003	-46.37919	-139.95124	-125.30518	-106.59077	0
572	54.51589	-198.53548	-253.05137	71.60296	152.96996	-226.20026	38.24249	86.24902	-48.8202	-144.83326	-130.1872	-111.47279	0
573	37.42882	-222.94558	-260.3744	91.13104	148.08794	-240.84632	33.36047	81.367	-51.26121	-144.83326	-135.06922	-113.9138	0
574	20.34175	-237.59164	-257.93339	108.21811	138.3239	-248.16935	33.36047	78.92599	-53.70222	-144.83326	-139.95124	-116.35481	0
575	0.81367	-237.59164	-238.40531	117.98215	118.79582	-238.40531	35.80148	78.92599	-51.26121	-144.83326	-142.39225	-121.23683	0
576	-9.76404	-240.03265	-231.08228	122.86417	109.03178	-235.9643	43.12451	76.48498	-46.37919	-142.39225	-144.83326	-121.23683	0
577	-9.76404	-222.94558	-213.99521	115.54114	101.70875	-218.87723	48.00653	74.04397	-39.05616	-139.95124	-142.39225	-121.23683	0
578	-9.76404	-210.74053	-201.79016	108.21811	94.38572	-206.67218	50.44754	71.60296	-34.17414	-137.51023	-142.39225	-118.79582	0
579	-6.50936	-200.97649	-194.46713	103.33609	91.94471	-196.90814	50.44754	74.04397	-29.29212	-137.51023	-139.95124	-116.35481	0
580	0.81367	-188.77144	-189.58511	93.57205	94.38572	-189.58511	50.44754	81.367	-21.96909	-132.62821	-132.62821	-111.47279	0
581	8.1367	-181.44841	-189.58511	86.24902	96.82673	-184.70309	50.44754	83.80801	-17.08707	-127.74619	-127.74619	-106.59077	0
582	13.01872	-176.56639	-189.58511	81.367	99.26774	-182.26208	45.56552	81.367	-17.08707	-125.30518	-125.30518	-101.70875	0
583	15.45973	-171.68437	-187.1441	76.48498	99.26774	-179.82107	43.12451	76.48498	-14.64606	-122.86417	-125.30518	-101.70875	0
584	25.22377	-166.80235	-192.02612	69.16195	106.59077	-179.82107	45.56552	76.48498	-12.20505	-115.54114	-122.86417	-96.82673	0
585	37.42882	-154.5973	-192.02612	56.9569	113.9138	-172.49804	50.44754	81.367	-4.88202	-105.7771	-120.42316	-91.94471	0
586	39.86983	-144.83326	-184.70309	52.07488	111.47279	-165.17501	55.32956	76.48498	0	-100.89508	-120.42316	-89.5037	0
587	39.86983	-139.95124	-179.82107	49.63387	109.03178	-160.29299	55.32956	71.60296	2.44101	-98.45407	-120.42316	-91.94471	0
588	34.98781	-139.95124	-174.93905	52.07488	104.14976	-157.85198	55.32956	69.16195	7.32303	-96.01306	-117.98215	-91.94471	0
589	22.78276	-139.95124	-162.734	56.9569	91.94471	-150.52895	52.88855	69.16195	9.76404	-91.13104	-113.10013	-87.06269	0
590	3.25468	-149.71528	-152.96996	71.60296	77.29865	-150.52895	45.56552	69.16195	9.76404	-88.69003	-113.10013	-87.06269	0
591	-9.76404	-154.5973	-145.64693	81.367	67.53461	-150.52895	35.80148	64.27993	7.32303	-88.69003	-110.65912	-84.62168	0
592	-14.64606	-157.03831	-143.20592	83.80801	62.65259	-150.52895	28.47845	59.39791	7.32303	-88.69003	-105.7771	-82.18067	0
593	-21.96909	-161.92033	-140.76491	91.13104	57.77057	-152.96996	18.71441	49.63387	2.44101	-86.24902	-105.7771	-82.18067	0
594	-26.85111	-159.47932	-133.44188	91.13104	52.88855	-148.08794	15.45973	42.31084	-4.88202	-83.80801	-105.7771	-79.73966	0
595	-21.96909	-149.71528	-128.55986	83.80801	52.88855	-140.76491	13.01872	37.42882	-4.88202	-83.80801	-105.7771	-79.73966	0
596	-14.64606	-142.39225	-128.55986	76.48498	55.32956	-135.88289	15.45973	32.5468	-2.44101	-78.92599	-103.33609	-77.29865	0
597	-4.06835	-130.1872	-126.11885	66.72094	60.21158	-128.55986	15.45973	30.10579	-2.44101	-74.04397	-96.01306	-74.85764	0
598	-9.76404	-125.30518	-116.35481	66.72094	52.88855	-121.23683	15.45973	25.22377	0	-74.04397	-93.57205	-74.85764	0
599	-19.52808	-117.98215	-99.26774	66.72094	38.24249	-109.03178	15.45973	25.22377	0	-71.60296	-91.13104	-69.97562	0
600	-26.85111	-113.10013	-87.06269	69.16195	28.47845	-101.70875	13.01872	30.10579	0	-66.72094	-86.24902	-62.65259	0
601	-36.61515	-117.98215	-82.18067	76.48498	21.15542	-101.70875	10.57771	30.10579	4.88202	-61.83892	-76.48498	-57.77057	0
602	-41.49717	-127.74619	-87.06269	83.80801	21.15542	-109.03178	3.25468	27.66478	2.44101	-61.83892	-76.48498	-55.32956	0
603	-43.93818	-132.62821	-89.5037	86.24902	21.15542	-111.47279	-4.06835	17.90074	-2.44101	-61.83892	-76.48498	-55.32956	0
604	-36.61515	-122.86417	-87.06269	78.92599	23.59643	-106.59077	-8.95037	13.01872	-7.32303	-59.39791	-76.48498	-52.88855	0
605	-29.29212	-108.21811	-79.73966	66.72094	23.59643	-94.38572	-8.95037	5.69569	-9.76404	-59.39791	-78.92599	-55.32956	0
606	-29.29212	-100.89508	-72.41663	64.27993	21.15542	-87.06269	-6.50936	-1.62734	-9.76404	-59.39791	-76.48498	-55.32956	0
607	-34.17414	-98.45407	-65.0936	64.27993	13.83239	-82.18067	-6.50936	-6.50936	-7.32303	-59.39791	-74.04397	-55.32956	0
608	-39.05616	-93.57205	-55.32956	64.27993	6.50936	-74.85764	-6.50936	-8.95037	-7.32303	-56.9569	-71.60296	-50.44754	0
609	-39.05616	-83.80801	-45.56552	59.39791	1.62734	-65.0936	-6.50936	-6.50936	-4.88202	-56.9569	-64.27993	-45.56552	0
610	-56.14323	-91.13104	-35.80148	71.60296	-11.39138	-65.0936	-11.39138	-4.06835	-7.32303	-56.9569	-61.83892	-45.56552	0
611	-75.67131	-113.10013	-38.24249	93.57205	-21.15542	-77.29865	-18.71441	-4.06835	-4.88202	-56.9569	-59.39791	-43.12451	0
612	-85.43535	-130.1872	-45.56552	105.7771	-21.15542	-89.5037	-21.15542	-4.06835	-4.88202	-54.51589	-54.51589	-40.6835	0
613	-80.55333	-127.74619	-48.00653	103.33609	-18.71441	-89.5037	-21.15542	-6.50936	-4.88202	-49.63387	-54.51589	-35.80148	0
614	-61.02525	-110.65912	-50.44754	83.80801	-6.50936	-82.18067	-18.71441	-4.06835	0	-42.31084	-49.63387	-28.47845	0
615	-53.70222	-100.89508	-48.00653	76.48498	-3.25468	-74.85764	-11.39138	-4.06835	2.44101	-37.42882	-47.19286	-26.03744	0
616	-46.37919	-91.13104	-45.56552	66.72094	-0.81367	-69.97562	0.81367	-1.62734	12.20505	-32.5468	-44.75185	-18.71441	0
617	-39.05616	-74.04397	-35.80148	54.51589	-3.25468	-55.32956	8.1367	-1.62734	17.08707	-26.85111	-39.86983	-13.83239	0
618	-31.73313	-56.9569	-26.03744	42.31084	-3.25468	-43.12451	13.01872	-1.62734	19.52808	-24.4101	-39.86983	-11.39138	0
619	-21.96909	-42.31084	-21.15542	30.10579	-0.81367	-33.36047	13.01872	0.81367	19.52808	-21.96909	-39.86983	-8.95037	0
620	-29.29212	-47.19286	-18.71441	37.42882	-6.50936	-33.36047	8.1367	3.25468	17.08707	-26.85111	-42.31084	-8.95037	0
621	-34.17414	-49.63387	-16.2734	39.86983	-11.39138	-33.36047	5.69569	3.25468	14.64606	-29.29212	-44.75185	-8.95037	0
622	-43.93818	-61.83892	-18.71441	52.07488	-13.83239	-40.6835	-6.50936	-1.62734	9.76404	-32.5468	-47.19286	-8.95037	0
623	-46.37919	-71.60296	-26.03744	56.9569	-11.39138	-50.44754	-11.39138	-6.50936	4.88202	-32.5468	-49.63387	-8.95037	0
624	-56.14323	-83.80801	-28.47845	69.16195	-16.2734	-57.77057	-11.39138	-6.50936	4.88202	-32.5468	-52.07488	-8.95037	0
625	-58.58424	-81.367	-23.59643	69.16195	-18.71441	-52.88855	-6.50936	-4.06835	4.88202	-29.29212	-52.07488	-6.50936	0
626	-58.58424	-78.92599	-21.15542	66.72094	-21.15542	-50.44754	0.81367	-4.06835	9.76404	-26.85111	-54.51589	-6.50936	0
627	-58.58424	-81.367	-23.59643	69.16195	-18.71441	-52.88855	5.69569	-6.50936	14.64606	-26.85111	-54.51589	-6.50936	0
628	-58.58424	-81.367	-23.59643	69.16195	-18.71441	-52.88855	8.1367	-6.50936	14.64606	-26.85111	-54.51589	-6.50936	0
629	-58.58424	-81.367	-23.59643	69.16195	-18.71441	-52.88855	5.69569	-6.50936	12.20505	-32.5468	-56.9569	-8.95037	0
630	-53.70222	-81.367	-28.47845	66.72094	-13.83239	-55.32956	3.25468	-4.06835	9.76404	-34.98781	-56.9569	-11.39138	0
631	-43.93818	-78.92599	-35.80148	59.39791	-6.50936	-57.77057	0.81367	-4.06835	9.76404	-37.42882	-56.9569	-8.95037	0
632	-46.37919	-93.57205	-48.00653	69.16195	-0.81367	-72.41663	-8.95037	-6.50936	4.88202	-39.86983	-56.9569	-6.50936	0
633	-41.49717	-88.69003	-48.00653	64.27993	1.62734	-69.97562	-11.39138	-8.95037	0	-39.86983	-54.51589	-6.50936	0
634	-34.17414	-86.24902	-52.88855	59.39791	8.95037	-69.97562	-16.2734	-8.95037	-4.88202	-39.86983	-56.9569	-6.50936	0
635	-24.4101	-71.60296	-48.00653	47.19286	11.39138	-60.21158	-13.83239	-8.95037	-2.44101	-39.86983	-56.9569	-8.95037	0
636	-19.52808	-54.51589	-35.80148	34.98781	6.50936	-45.56552	-1.62734	-1.62734	9.76404	-32.5468	-49.63387	-1.62734	0
637	-21.96909	-49.63387	-28.47845	34.98781	1.62734	-40.6835	8.1367	3.25468	19.52808	-29.29212	-44.75185	0.81367	0
638	-24.4101	-49.63387	-26.03744	34.98781	-0.81367	-38.24249	10.57771	8.1367	21.96909	-29.29212	-42.31084	3.25468	0
639	-29.29212	-52.07488	-23.59643	39.86983	-3.25468	-38.24249	15.45973	15.45973	26.85111	-29.29212	-39.86983	5.69569	0
640	-41.49717	-59.39791	-18.71441	49.63387	-13.83239	-40.6835	15.45973	25.22377	31.73313	-26.85111	-34.98781	10.57771	0
641	-51.26121	-61.83892	-11.39138	54.51589	-21.15542	-38.24249	15.45973	30.10579	36.61515	-26.85111	-32.5468	13.01872	0
642	-53.70222	-71.60296	-18.71441	61.83892	-18.71441	-45.56552	15.45973	32.5468	39.05616	-24.4101	-30.10579	15.45973	0
643	-41.49717	-76.48498	-35.80148	56.9569	-3.25468	-57.77057	13.01872	27.66478	34.17414	-24.4101	-32.5468	13.01872	0
644	-31.73313	-81.367	-50.44754	54.51589	8.95037	-67.53461	10.57771	25.22377	29.29212	-24.4101	-37.42882	8.1367	0
645	-21.96909	-78.92599	-57.77057	49.63387	16.2734	-69.97562	10.57771	22.78276	29.29212	-24.4101	-42.31084	3.25468	0
646	-12.20505	-69.16195	-57.77057	39.86983	21.15542	-65.0936	13.01872	17.90074	26.85111	-29.29212	-52.07488	-4.06835	0
647	-6.50936	-69.16195	-62.65259	37.42882	26.03744	-65.0936	15.45973	17.90074	31.73313	-26.85111	-49.63387	-4.06835	0
648	-4.06835	-69.16195	-65.0936	34.98781	28.47845	-67.53461	18.71441	20.34175	34.17414	-26.85111	-52.07488	-6.50936	0
649	-6.50936	-71.60296	-65.0936	37.42882	28.47845	-67.53461	18.71441	22.78276	34.17414	-26.85111	-52.07488	-6.50936	0
650	-12.20505	-74.04397	-62.65259	42.31084	23.59643	-69.97562	15.45973	27.66478	31.73313	-32.5468	-54.51589	-11.39138	0
651	-17.08707	-74.04397	-57.77057	44.75185	18.71441	-67.53461	8.1367	27.66478	31.73313	-32.5468	-56.9569	-11.39138	0
652	-17.08707	-74.04397	-57.77057	44.75185	18.71441	-67.53461	5.69569	30.10579	31.73313	-32.5468	-54.51589	-11.39138	0
653	-9.76404	-69.16195	-60.21158	37.42882	23.59643	-65.0936	3.25468	30.10579	31.73313	-29.29212	-52.07488	-11.39138	0
654	-1.62734	-66.72094	-65.0936	32.5468	30.91946	-65.0936	0.81367	27.66478	24.4101	-29.29212	-52.07488	-11.39138	0
655	0.81367	-64.27993	-65.0936	30.10579	30.91946	-65.0936	3.25468	27.66478	24.4101	-29.29212	-54.51589	-11.39138	0
656	3.25468	-59.39791	-62.65259	27.66478	30.91946	-60.21158	10.57771	27.66478	26.85111	-26.85111	-52.07488	-11.39138	0
657	3.25468	-61.83892	-65.0936	27.66478	33.36047	-62.65259	15.45973	27.66478	31.73313	-24.4101	-47.19286	-8.95037	0
658	-6.50936	-76.48498	-69.97562	39.86983	30.91946	-72.41663	21.15542	27.66478	34.17414	-24.4101	-47.19286	-6.50936	0
659	-24.4101	-98.45407	-74.85764	59.39791	23.59643	-87.06269	18.71441	25.22377	29.29212	-29.29212	-49.63387	-8.95037	0
660	-43.93818	-115.54114	-72.41663	78.92599	13.83239	-94.38572	15.45973	25.22377	24.4101	-34.98781	-54.51589	-13.83239	0
661	-46.37919	-117.98215	-72.41663	81.367	11.39138	-96.82673	10.57771	25.22377	24.4101	-37.42882	-54.51589	-13.83239	0
662	-43.93818	-120.42316	-77.29865	81.367	16.2734	-99.26774	5.69569	22.78276	24.4101	-37.42882	-52.07488	-11.39138	0
663	-36.61515	-120.42316	-84.62168	76.48498	23.59643	-104.14976	5.69569	20.34175	21.96909	-34.98781	-52.07488	-8.95037	0
664	-21.96909	-113.10013	-91.94471	66.72094	33.36047	-104.14976	5.69569	20.34175	21.96909	-32.5468	-52.07488	-8.95037	0
665	-6.50936	-96.01306	-89.5037	49.63387	40.6835	-91.94471	13.01872	20.34175	24.4101	-26.85111	-49.63387	-6.50936	0
666	3.25468	-86.24902	-89.5037	39.86983	45.56552	-87.06269	15.45973	15.45973	26.85111	-24.4101	-52.07488	-6.50936	0
667	-6.50936	-96.01306	-89.5037	49.63387	40.6835	-91.94471	15.45973	5.69569	21.96909	-29.29212	-56.9569	-13.83239	0
668	-21.96909	-113.10013	-91.94471	66.72094	33.36047	-104.14976	8.1367	-1.62734	14.64606	-37.42882	-66.72094	-21.15542	0
669	-26.85111	-113.10013	-87.06269	69.16195	28.47845	-101.70875	8.1367	-4.06835	12.20505	-42.31084	-66.72094	-21.15542	0
670	-34.17414	-110.65912	-77.29865	71.60296	21.15542	-94.38572	3.25468	-1.62734	12.20505	-44.75185	-66.72094	-21.15542	-1250	T-0
671	-31.73313	-103.33609	-72.41663	66.72094	18.71441	-89.5037	3.25468	-1.62734	12.20505	-44.75185	-61.83892	-16.2734	0
672	-17.08707	-98.45407	-82.18067	56.9569	30.91946	-91.94471	0.81367	-1.62734	12.20505	-39.86983	-56.9569	-13.83239	0
673	0.81367	-81.367	-82.18067	39.86983	40.6835	-82.18067	5.69569	0.81367	17.08707	-32.5468	-47.19286	-6.50936	0
674	25.22377	-66.72094	-91.94471	20.34175	57.77057	-79.73966	13.01872	8.1367	21.96909	-21.96909	-39.86983	3.25468	0
675	30.10579	-66.72094	-96.82673	17.90074	62.65259	-82.18067	15.45973	8.1367	21.96909	-19.52808	-37.42882	3.25468	0
676	32.5468	-71.60296	-104.14976	17.90074	67.53461	-87.06269	21.15542	3.25468	24.4101	-17.08707	-37.42882	0.81367	0
677	30.10579	-76.48498	-106.59077	22.78276	67.53461	-91.94471	23.59643	0.81367	24.4101	-14.64606	-34.98781	0.81367	0
678	22.78276	-76.48498	-99.26774	25.22377	60.21158	-87.06269	23.59643	-4.06835	21.96909	-19.52808	-39.86983	-1.62734	0
679	10.57771	-74.04397	-84.62168	30.10579	45.56552	-79.73966	18.71441	-6.50936	17.08707	-24.4101	-42.31084	-4.06835	0
680	3.25468	-78.92599	-82.18067	37.42882	40.6835	-79.73966	13.01872	-4.06835	9.76404	-29.29212	-42.31084	-6.50936	0
681	0.81367	-78.92599	-79.73966	37.42882	38.24249	-79.73966	8.1367	-6.50936	7.32303	-32.5468	-44.75185	-8.95037	0
682	-1.62734	-76.48498	-74.85764	37.42882	35.80148	-74.85764	-1.62734	-13.83239	0	-34.98781	-49.63387	-13.83239	0
683	-4.06835	-69.16195	-65.0936	34.98781	28.47845	-67.53461	-8.95037	-21.15542	-7.32303	-39.86983	-54.51589	-18.71441	0
684	-4.06835	-71.60296	-67.53461	37.42882	30.91946	-69.97562	-11.39138	-26.03744	-14.64606	-39.86983	-56.9569	-23.59643	0
685	-12.20505	-86.24902	-74.85764	47.19286	30.91946	-82.18067	-6.50936	-26.03744	-14.64606	-39.86983	-56.9569	-26.03744	0
686	-21.96909	-98.45407	-77.29865	59.39791	26.03744	-89.5037	3.25468	-28.47845	-9.76404	-32.5468	-52.07488	-23.59643	0
687	-26.85111	-96.01306	-69.97562	59.39791	21.15542	-84.62168	15.45973	-26.03744	-2.44101	-26.85111	-44.75185	-18.71441	0
688	-26.85111	-91.13104	-65.0936	56.9569	18.71441	-79.73966	21.15542	-23.59643	0	-21.96909	-39.86983	-13.83239	0
689	-24.4101	-83.80801	-60.21158	52.07488	16.2734	-72.41663	28.47845	-13.83239	4.88202	-12.20505	-30.10579	-6.50936	0
690	-17.08707	-74.04397	-57.77057	44.75185	18.71441	-67.53461	30.91946	-6.50936	7.32303	-9.76404	-25.22377	0.81367	0
691	-9.76404	-61.83892	-52.88855	34.98781	21.15542	-57.77057	33.36047	-1.62734	7.32303	-9.76404	-20.34175	3.25468	0
692	8.1367	-44.75185	-52.88855	17.90074	28.47845	-48.00653	30.91946	0.81367	7.32303	-9.76404	-17.90074	8.1367	0
693	17.90074	-27.66478	-45.56552	4.88202	30.91946	-35.80148	26.03744	-1.62734	7.32303	-9.76404	-17.90074	8.1367	0
694	22.78276	-17.90074	-40.6835	-2.44101	30.91946	-28.47845	26.03744	0.81367	7.32303	-7.32303	-15.45973	13.01872	0
695	22.78276	-13.01872	-35.80148	-4.88202	28.47845	-23.59643	30.91946	3.25468	9.76404	-4.88202	-13.01872	13.01872	0
696	15.45973	-15.45973	-30.91946	0	21.15542	-23.59643	35.80148	0.81367	14.64606	-7.32303	-13.01872	13.01872	0
697	10.57771	-13.01872	-23.59643	0	16.2734	-18.71441	40.6835	0.81367	21.96909	-2.44101	-8.1367	13.01872	0
698	5.69569	-4.88202	-11.39138	0	8.95037	-8.95037	45.56552	3.25468	24.4101	2.44101	-3.25468	15.45973	0
699	8.1367	2.44101	-6.50936	-4.88202	6.50936	-0.81367	50.44754	8.1367	29.29212	9.76404	1.62734	18.71441	0
700	17.90074	7.32303	-11.39138	-12.20505	13.83239	-0.81367	55.32956	17.90074	34.17414	14.64606	9.76404	26.03744	0
701	27.66478	19.52808	-8.95037	-24.4101	18.71441	6.50936	60.21158	20.34175	34.17414	19.52808	14.64606	33.36047	0
702	37.42882	26.85111	-11.39138	-31.73313	23.59643	8.95037	60.21158	25.22377	36.61515	24.4101	19.52808	38.24249	0
703	42.31084	36.61515	-6.50936	-39.05616	23.59643	16.2734	62.65259	25.22377	36.61515	29.29212	24.4101	43.12451	0
704	44.75185	36.61515	-8.95037	-41.49717	26.03744	13.83239	67.53461	30.10579	39.05616	34.17414	29.29212	48.00653	0
705	49.63387	43.93818	-6.50936	-46.37919	28.47845	18.71441	67.53461	30.10579	39.05616	34.17414	29.29212	50.44754	0
706	49.63387	53.70222	4.06835	-51.26121	23.59643	28.47845	67.53461	25.22377	36.61515	31.73313	26.85111	48.00653	0
707	49.63387	61.02525	11.39138	-56.14323	18.71441	35.80148	62.65259	17.90074	31.73313	26.85111	21.96909	45.56552	0
708	49.63387	63.46626	13.83239	-56.14323	18.71441	38.24249	57.77057	17.90074	29.29212	24.4101	17.08707	40.6835	0
709	47.19286	61.02525	13.83239	-53.70222	16.2734	38.24249	55.32956	20.34175	26.85111	21.96909	14.64606	38.24249	0
710	52.07488	68.34828	16.2734	-61.02525	18.71441	43.12451	52.88855	25.22377	26.85111	21.96909	17.08707	40.6835	0
711	56.9569	78.11232	21.15542	-68.34828	18.71441	50.44754	50.44754	27.66478	31.73313	26.85111	24.4101	45.56552	0
712	56.9569	78.11232	21.15542	-68.34828	18.71441	50.44754	43.12451	30.10579	34.17414	31.73313	31.73313	50.44754	0
713	59.39791	75.67131	16.2734	-68.34828	21.15542	45.56552	35.80148	32.5468	39.05616	39.05616	36.61515	57.77057	0
714	64.27993	82.99434	18.71441	-73.2303	23.59643	50.44754	33.36047	37.42882	46.37919	48.8202	48.8202	67.53461	0
715	66.72094	95.19939	28.47845	-80.55333	18.71441	62.65259	33.36047	39.86983	53.70222	61.02525	56.14323	77.29865	0
716	64.27993	97.6404	33.36047	-80.55333	16.2734	65.0936	26.03744	37.42882	58.58424	68.34828	63.46626	84.62168	0
717	66.72094	95.19939	28.47845	-80.55333	18.71441	62.65259	15.45973	30.10579	53.70222	65.90727	61.02525	82.18067	0
718	66.72094	90.31737	23.59643	-78.11232	21.15542	57.77057	5.69569	22.78276	51.26121	63.46626	61.02525	82.18067	0
719	61.83892	80.55333	18.71441	-70.78929	21.15542	50.44754	0.81367	20.34175	48.8202	63.46626	61.02525	82.18067	0
720	61.83892	80.55333	18.71441	-70.78929	21.15542	50.44754	-4.06835	20.34175	48.8202	65.90727	63.46626	82.18067	0
721	69.16195	80.55333	11.39138	-75.67131	28.47845	45.56552	-11.39138	17.90074	48.8202	65.90727	65.90727	84.62168	0
722	81.367	87.87636	6.50936	-85.43535	38.24249	48.00653	-21.15542	10.57771	43.93818	65.90727	65.90727	84.62168	0
723	88.69003	100.08141	11.39138	-95.19939	38.24249	55.32956	-23.59643	8.1367	43.93818	68.34828	70.78929	84.62168	0
724	98.45407	109.84545	11.39138	-104.96343	43.12451	60.21158	-23.59643	10.57771	43.93818	73.2303	75.67131	87.06269	0
725	110.65912	124.49151	13.83239	-117.16848	48.00653	69.97562	-23.59643	5.69569	39.05616	73.2303	75.67131	87.06269	0
726	115.54114	126.93252	11.39138	-122.0505	52.88855	69.97562	-21.15542	0.81367	39.05616	73.2303	75.67131	87.06269	0
727	103.33609	114.72747	11.39138	-109.84545	45.56552	62.65259	-26.03744	-6.50936	29.29212	68.34828	70.78929	82.18067	0
728	98.45407	112.28646	13.83239	-104.96343	43.12451	62.65259	-28.47845	-13.83239	21.96909	61.02525	68.34828	82.18067	0
729	88.69003	100.08141	11.39138	-95.19939	38.24249	55.32956	-30.91946	-16.2734	14.64606	56.14323	68.34828	79.73966	0
730	81.367	85.43535	4.06835	-82.99434	38.24249	45.56552	-35.80148	-21.15542	4.88202	51.26121	65.90727	79.73966	0
731	76.48498	70.78929	-6.50936	-73.2303	40.6835	33.36047	-38.24249	-23.59643	2.44101	51.26121	65.90727	79.73966	0
732	74.04397	56.14323	-18.71441	-65.90727	45.56552	18.71441	-45.56552	-28.47845	-7.32303	43.93818	61.02525	74.85764	0
733	83.80801	53.70222	-30.91946	-68.34828	57.77057	11.39138	-48.00653	-33.36047	-12.20505	41.49717	58.58424	69.97562	0
734	96.01306	53.70222	-43.12451	-75.67131	69.97562	6.50936	-45.56552	-33.36047	-17.08707	39.05616	58.58424	67.53461	0
735	98.45407	43.93818	-55.32956	-70.78929	77.29865	-6.50936	-40.6835	-30.91946	-14.64606	41.49717	56.14323	65.0936	0
736	96.01306	34.17414	-62.65259	-65.90727	79.73966	-13.83239	-35.80148	-28.47845	-12.20505	41.49717	53.70222	60.21158	0
737	78.92599	12.20505	-67.53461	-46.37919	72.41663	-28.47845	-33.36047	-28.47845	-14.64606	36.61515	48.8202	55.32956	0
738	61.83892	-2.44101	-65.0936	-29.29212	62.65259	-33.36047	-33.36047	-33.36047	-19.52808	29.29212	43.93818	45.56552	0
739	54.51589	-4.88202	-60.21158	-24.4101	57.77057	-33.36047	-33.36047	-35.80148	-24.4101	24.4101	41.49717	40.6835	0
740	44.75185	-8.1367	-52.88855	-19.52808	48.00653	-30.91946	-35.80148	-40.6835	-31.73313	14.64606	34.17414	33.36047	0
741	39.86983	-20.34175	-60.21158	-9.76404	48.00653	-40.6835	-38.24249	-46.37919	-41.49717	4.88202	24.4101	23.59643	0
742	37.42882	-25.22377	-62.65259	-7.32303	48.00653	-43.12451	-43.12451	-53.70222	-48.8202	-4.88202	17.08707	15.45973	0
743	42.31084	-25.22377	-67.53461	-9.76404	52.88855	-45.56552	-43.12451	-61.02525	-56.14323	-12.20505	7.32303	10.57771	0
744	44.75185	-30.10579	-74.85764	-7.32303	57.77057	-52.88855	-35.80148	-58.58424	-56.14323	-14.64606	1.62734	8.1367	0
745	42.31084	-37.42882	-79.73966	-2.44101	60.21158	-57.77057	-28.47845	-58.58424	-56.14323	-17.08707	-0.81367	3.25468	0
746	25.22377	-52.07488	-77.29865	13.01872	50.44754	-65.0936	-23.59643	-58.58424	-56.14323	-19.52808	-5.69569	-1.62734	0
747	13.01872	-61.83892	-74.85764	22.78276	43.12451	-67.53461	-18.71441	-56.14323	-51.26121	-21.96909	-5.69569	-4.06835	0
748	-1.62734	-71.60296	-69.97562	34.98781	33.36047	-69.97562	-18.71441	-53.70222	-51.26121	-24.4101	-10.57771	-8.95037	0
749	-17.08707	-83.80801	-67.53461	49.63387	23.59643	-77.29865	-21.15542	-53.70222	-56.14323	-29.29212	-13.01872	-13.83239	0
750	-39.05616	-103.33609	-65.0936	69.16195	11.39138	-84.62168	-26.03744	-53.70222	-61.02525	-32.5468	-17.90074	-18.71441	0
751	-48.8202	-115.54114	-67.53461	81.367	8.95037	-91.94471	-35.80148	-63.46626	-70.78929	-39.86983	-25.22377	-26.03744	0
752	-43.93818	-120.42316	-77.29865	81.367	16.2734	-99.26774	-45.56552	-65.90727	-75.67131	-44.75185	-27.66478	-30.91946	0
753	-34.17414	-122.86417	-89.5037	76.48498	26.03744	-106.59077	-48.00653	-73.2303	-81.367	-47.19286	-32.5468	-33.36047	0
754	-24.4101	-122.86417	-99.26774	71.60296	35.80148	-111.47279	-52.88855	-78.11232	-91.13104	-49.63387	-37.42882	-38.24249	0
755	-19.52808	-120.42316	-101.70875	69.16195	40.6835	-111.47279	-50.44754	-80.55333	-91.13104	-49.63387	-37.42882	-38.24249	0
756	-9.76404	-105.7771	-96.82673	56.9569	43.12451	-101.70875	-40.6835	-75.67131	-86.24902	-44.75185	-32.5468	-35.80148	0
757	3.25468	-78.92599	-82.18067	37.42882	40.6835	-79.73966	-28.47845	-65.90727	-78.92599	-34.98781	-22.78276	-28.47845	0
758	5.69569	-69.16195	-74.85764	30.10579	38.24249	-72.41663	-18.71441	-58.58424	-70.78929	-32.5468	-17.90074	-21.15542	0
759	-4.06835	-66.72094	-62.65259	34.98781	28.47845	-65.0936	-13.83239	-53.70222	-70.78929	-29.29212	-15.45973	-18.71441	0
760	-17.08707	-74.04397	-57.77057	44.75185	18.71441	-67.53461	-11.39138	-46.37919	-65.90727	-29.29212	-13.01872	-13.83239	0
761	-34.17414	-81.367	-48.00653	56.9569	6.50936	-65.0936	-8.95037	-46.37919	-63.46626	-29.29212	-10.57771	-13.83239	0
762	-39.05616	-91.13104	-52.88855	64.27993	6.50936	-72.41663	-13.83239	-48.8202	-68.34828	-29.29212	-10.57771	-16.2734	0
763	-41.49717	-100.89508	-60.21158	69.16195	8.95037	-82.18067	-21.15542	-58.58424	-75.67131	-34.98781	-17.90074	-21.15542	0
764	-46.37919	-113.10013	-67.53461	78.92599	8.95037	-91.94471	-26.03744	-63.46626	-86.24902	-42.31084	-25.22377	-28.47845	0
765	-51.26121	-120.42316	-69.97562	83.80801	8.95037	-96.82673	-26.03744	-68.34828	-88.69003	-47.19286	-30.10579	-33.36047	0
766	-51.26121	-117.98215	-67.53461	83.80801	6.50936	-94.38572	-26.03744	-70.78929	-91.13104	-49.63387	-32.5468	-33.36047	0
767	-43.93818	-105.7771	-62.65259	74.04397	8.95037	-84.62168	-26.03744	-73.2303	-93.57205	-52.07488	-34.98781	-35.80148	0
768	-36.61515	-100.89508	-65.0936	66.72094	13.83239	-84.62168	-28.47845	-73.2303	-96.01306	-54.51589	-37.42882	-35.80148	0
769	-43.93818	-105.7771	-62.65259	74.04397	8.95037	-84.62168	-30.91946	-75.67131	-100.89508	-59.39791	-42.31084	-38.24249	0
770	-51.26121	-108.21811	-57.77057	78.92599	1.62734	-84.62168	-33.36047	-73.2303	-100.89508	-64.27993	-44.75185	-40.6835	0
771	-56.14323	-113.10013	-57.77057	83.80801	-0.81367	-87.06269	-38.24249	-75.67131	-103.33609	-66.72094	-47.19286	-43.12451	0
772	-58.58424	-115.54114	-57.77057	86.24902	-0.81367	-87.06269	-40.6835	-78.11232	-103.33609	-69.16195	-49.63387	-43.12451	0
773	-58.58424	-117.98215	-60.21158	86.24902	-0.81367	-89.5037	-40.6835	-78.11232	-105.7771	-69.16195	-52.07488	-43.12451	0
774	-65.90727	-120.42316	-55.32956	91.13104	-6.50936	-89.5037	-38.24249	-78.11232	-108.21811	-69.16195	-54.51589	-45.56552	0
775	-70.78929	-113.10013	-43.12451	91.13104	-16.2734	-79.73966	-33.36047	-78.11232	-105.7771	-69.16195	-54.51589	-43.12451	0
776	-70.78929	-110.65912	-40.6835	88.69003	-16.2734	-77.29865	-28.47845	-78.11232	-100.89508	-66.72094	-49.63387	-40.6835	0
777	-70.78929	-115.54114	-45.56552	91.13104	-13.83239	-82.18067	-28.47845	-78.11232	-100.89508	-66.72094	-49.63387	-40.6835	0
778	-70.78929	-120.42316	-50.44754	93.57205	-11.39138	-87.06269	-23.59643	-75.67131	-100.89508	-64.27993	-49.63387	-38.24249	0
779	-75.67131	-135.06922	-60.21158	103.33609	-8.95037	-99.26774	-26.03744	-75.67131	-103.33609	-66.72094	-49.63387	-40.6835	0
780	-80.55333	-142.39225	-62.65259	110.65912	-11.39138	-104.14976	-26.03744	-73.2303	-100.89508	-69.16195	-49.63387	-43.12451	0
781	-68.34828	-137.51023	-69.97562	100.89508	-0.81367	-104.14976	-26.03744	-73.2303	-100.89508	-69.16195	-49.63387	-40.6835	0
782	-58.58424	-130.1872	-72.41663	93.57205	6.50936	-101.70875	-26.03744	-70.78929	-98.45407	-69.16195	-47.19286	-35.80148	0
783	-48.8202	-117.98215	-69.97562	81.367	8.95037	-94.38572	-23.59643	-70.78929	-98.45407	-69.16195	-47.19286	-35.80148	0
784	-39.05616	-108.21811	-69.97562	71.60296	13.83239	-89.5037	-21.15542	-70.78929	-103.33609	-71.60296	-49.63387	-40.6835	0
785	-31.73313	-100.89508	-69.97562	64.27993	18.71441	-87.06269	-11.39138	-63.46626	-100.89508	-76.48498	-56.9569	-45.56552	0
786	-17.08707	-108.21811	-91.94471	61.83892	35.80148	-101.70875	0.81367	-51.26121	-98.45407	-83.80801	-69.16195	-55.32956	0
787	-12.20505	-127.74619	-116.35481	69.16195	50.44754	-123.67784	15.45973	-33.36047	-91.13104	-96.01306	-83.80801	-72.41663	0
788	-9.76404	-149.71528	-140.76491	78.92599	65.0936	-145.64693	38.24249	0.81367	-75.67131	-103.33609	-96.01306	-87.06269	0
789	-14.64606	-171.68437	-157.85198	91.13104	69.97562	-165.17501	65.0936	44.75185	-51.26121	-113.10013	-108.21811	-101.70875	0
790	-19.52808	-193.65346	-174.93905	105.7771	77.29865	-184.70309	96.82673	100.89508	-17.08707	-120.42316	-122.86417	-118.79582	0
791	-14.64606	-215.62255	-201.79016	113.10013	91.94471	-209.11319	133.44188	164.36134	31.73313	-120.42316	-132.62821	-133.44188	0
792	-6.50936	-230.26861	-223.75925	117.98215	106.59077	-226.20026	170.05703	240.03265	92.75838	-113.10013	-137.51023	-143.20592	0
793	8.1367	-232.70962	-240.84632	110.65912	123.67784	-235.9643	213.99521	332.79103	175.75272	-88.69003	-135.06922	-150.52895	0
794	22.78276	-227.8276	-250.61036	100.89508	135.88289	-238.40531	253.05137	432.87244	268.5111	-61.83892	-137.51023	-160.29299	0
795	42.31084	-225.38659	-267.69743	91.13104	152.96996	-245.72834	299.43056	554.92294	383.23857	-32.5468	-137.51023	-172.49804	0
796	76.48498	-205.85851	-282.34349	64.27993	177.38006	-243.28733	355.57379	696.50152	524.81715	19.52808	-127.74619	-177.38006	0
797	125.30518	-166.80235	-292.10753	20.34175	206.67218	-228.64127	419.04005	864.93121	698.12886	97.6404	-100.89508	-170.05703	0
798	171.68437	-110.65912	-282.34349	-31.73313	226.20026	-196.90814	475.18328	1057.771	900.73269	197.72181	-61.83892	-150.52895	0
799	232.70962	-30.10579	-262.81541	-102.52242	245.72834	-145.64693	524.00348	1265.25685	1127.74662	317.3313	-17.90074	-131.00087	0
800	310.82194	61.02525	-250.61036	-185.51676	279.90248	-94.38572	560.61863	1489.82977	1376.72964	454.02786	36.61515	-101.70875	0
801	408.46234	165.98868	-243.28733	-288.03918	326.28167	-38.24249	567.94166	1711.14801	1644.42707	617.57553	107.40444	-60.21158	0
802	523.18981	283.15716	-240.84632	-402.76665	382.4249	21.15542	526.44449	1906.42881	1910.49716	800.65128	192.83979	-6.50936	0
803	623.27122	402.76665	-221.31824	-512.6121	421.48106	91.94471	423.92207	2030.92032	2144.83412	983.72703	283.15716	50.44754	0
804	706.26556	517.49412	-189.58511	-612.69351	448.33217	165.17501	275.02046	2062.65345	2315.70482	1149.71571	366.1515	109.03178	0
805	762.40879	610.2525	-152.96996	-685.92381	458.09621	228.64127	96.82673	1996.74618	2401.14017	1281.53025	449.14584	172.49804	0
806	767.29081	663.95472	-104.14976	-715.21593	436.12712	279.90248	-96.82673	1835.63952	2393.81714	1371.84762	522.37614	235.9643	0
807	733.11667	681.04179	-52.88855	-707.8929	392.18894	314.07662	-299.43056	1594.7932	2281.53068	1396.25772	568.75533	287.22551	0
808	657.44536	666.39573	8.95037	-661.51371	323.84066	338.48672	-480.0653	1292.10796	2076.48584	1349.87853	590.72442	323.84066	0
809	552.48193	620.01654	67.53461	-585.8424	243.28733	343.36874	-621.64388	943.04353	1768.91858	1237.59207	585.8424	345.80975	0
810	445.07749	568.75533	123.67784	-507.73008	160.29299	345.80975	-721.72529	567.12799	1381.61166	1074.0444	561.4323	360.45581	0
811	323.02699	488.202	165.17501	-405.20766	79.73966	326.28167	-799.83761	205.85851	966.63996	881.20461	517.49412	360.45581	0
812	205.85851	400.32564	194.46713	-302.68524	6.50936	296.98955	-843.77579	-109.84545	568.75533	671.27775	454.02786	343.36874	0
813	93.57205	314.89029	221.31824	-205.04484	-65.0936	267.69743	-860.86286	-373.47453	212.36787	466.23291	385.67958	318.95864	0
814	3.25468	246.54201	243.28733	-124.49151	-121.23683	245.72834	-855.98084	-588.28341	-91.13104	290.48019	322.21332	296.98955	0
815	-61.02525	187.95777	248.16935	-63.46626	-155.41097	216.43622	-834.01175	-746.94906	-330.35002	146.4606	263.62908	270.13844	0
816	-117.16848	126.93252	243.28733	-4.88202	-179.82107	184.70309	-794.95559	-820.17936	-471.9286	39.05616	207.48585	238.40531	0
817	-156.22464	73.2303	228.64127	39.86983	-192.02612	150.52895	-729.04832	-810.41532	-528.07183	-32.5468	161.10666	206.67218	0
818	-178.19373	48.8202	226.20026	64.27993	-201.79016	135.88289	-650.936	-764.03613	-535.39486	-76.48498	129.37353	184.70309	0
819	-170.8707	48.8202	218.87723	59.39791	-194.46713	133.44188	-577.7057	-700.56987	-523.18981	-93.57205	107.40444	167.61602	0
820	-144.01959	56.14323	199.34915	42.31084	-172.49804	126.11885	-502.03439	-629.78058	-493.89769	-96.01306	97.6404	155.41097	0
821	-126.93252	56.14323	182.26208	34.98781	-155.41097	118.79582	-431.2451	-563.87331	-462.16456	-96.01306	85.43535	140.76491	0
822	-117.16848	65.90727	182.26208	25.22377	-150.52895	123.67784	-367.77884	-495.52503	-423.1084	-88.69003	78.11232	133.44188	0
823	-109.84545	82.99434	192.02612	13.01872	-150.52895	135.88289	-314.07662	-441.82281	-388.93426	-81.367	73.2303	128.55986	0
824	-112.28646	92.75838	204.23117	7.32303	-157.85198	148.08794	-272.57945	-397.88463	-366.96517	-81.367	63.46626	116.35481	0
825	-109.84545	92.75838	201.79016	7.32303	-155.41097	145.64693	-233.52329	-363.71049	-344.99608	-81.367	53.70222	106.59077	0
826	-109.84545	92.75838	201.79016	7.32303	-155.41097	145.64693	-196.90814	-331.97736	-323.02699	-81.367	46.37919	99.26774	0
827	-112.28646	95.19939	206.67218	7.32303	-160.29299	150.52895	-172.49804	-312.44928	-308.38093	-83.80801	36.61515	87.06269	0
828	-102.52242	95.19939	196.90814	2.44101	-150.52895	145.64693	-152.96996	-295.36221	-298.61689	-91.13104	26.85111	74.85764	0
829	-95.19939	87.87636	182.26208	2.44101	-138.3239	133.44188	-143.20592	-285.59817	-298.61689	-100.89508	12.20505	57.77057	0
830	-85.43535	78.11232	162.734	2.44101	-123.67784	118.79582	-133.44188	-270.95211	-293.73487	-108.21811	1.62734	45.56552	0
831	-75.67131	65.90727	140.76491	4.88202	-109.03178	101.70875	-121.23683	-261.18807	-286.41184	-110.65912	-3.25468	35.80148	0
832	-75.67131	46.37919	121.23683	13.01872	-99.26774	82.18067	-118.79582	-258.74706	-288.85285	-120.42316	-15.45973	23.59643	0
833	-78.11232	34.17414	111.47279	20.34175	-94.38572	72.41663	-116.35481	-261.18807	-293.73487	-127.74619	-22.78276	15.45973	0
834	-73.2303	31.73313	104.14976	20.34175	-89.5037	67.53461	-106.59077	-251.42403	-291.29386	-125.30518	-22.78276	13.01872	0
835	-82.99434	24.4101	106.59077	27.66478	-94.38572	65.0936	-99.26774	-246.54201	-288.85285	-125.30518	-25.22377	8.1367	0
836	-90.31737	19.52808	109.03178	34.98781	-99.26774	62.65259	-89.5037	-244.101	-286.41184	-122.86417	-27.66478	8.1367	0
837	-85.43535	19.52808	104.14976	32.5468	-94.38572	60.21158	-87.06269	-241.65999	-283.97083	-122.86417	-27.66478	8.1367	0
838	-80.55333	21.96909	101.70875	27.66478	-91.94471	60.21158	-87.06269	-236.77797	-286.41184	-125.30518	-27.66478	5.69569	0
839	-82.99434	14.64606	96.82673	32.5468	-89.5037	55.32956	-82.18067	-229.45494	-286.41184	-125.30518	-25.22377	5.69569	0
840	-90.31737	7.32303	96.82673	39.86983	-94.38572	50.44754	-84.62168	-227.01393	-286.41184	-127.74619	-25.22377	5.69569	0
841	-90.31737	0	89.5037	44.75185	-89.5037	43.12451	-84.62168	-224.57292	-283.97083	-127.74619	-25.22377	5.69569	0
842	-90.31737	-4.88202	84.62168	47.19286	-87.06269	38.24249	-87.06269	-222.13191	-283.97083	-130.1872	-27.66478	5.69569	0
843	-85.43535	-8.1367	77.29865	44.75185	-82.18067	33.36047	-87.06269	-222.13191	-286.41184	-130.1872	-27.66478	3.25468	0
844	-95.19939	-8.1367	87.06269	49.63387	-91.94471	38.24249	-87.06269	-219.6909	-286.41184	-130.1872	-30.10579	0.81367	0
845	-92.75838	2.44101	94.38572	44.75185	-94.38572	48.00653	-82.18067	-214.80888	-281.52982	-127.74619	-27.66478	3.25468	0
846	-92.75838	17.08707	109.03178	37.42882	-101.70875	62.65259	-79.73966	-214.80888	-276.6478	-125.30518	-27.66478	3.25468	0
847	-92.75838	14.64606	106.59077	37.42882	-99.26774	60.21158	-79.73966	-214.80888	-279.08881	-125.30518	-32.5468	0.81367	0
848	-90.31737	19.52808	109.03178	34.98781	-99.26774	62.65259	-82.18067	-217.24989	-281.52982	-127.74619	-34.98781	-1.62734	0
849	-87.87636	21.96909	109.03178	32.5468	-99.26774	65.0936	-84.62168	-217.24989	-281.52982	-132.62821	-37.42882	-4.06835	0
850	-82.99434	19.52808	101.70875	30.10579	-91.94471	60.21158	-89.5037	-217.24989	-286.41184	-135.06922	-37.42882	-6.50936	0
851	-82.99434	14.64606	96.82673	32.5468	-89.5037	55.32956	-91.94471	-219.6909	-288.85285	-137.51023	-42.31084	-8.95037	0
852	-87.87636	2.44101	89.5037	42.31084	-89.5037	45.56552	-94.38572	-219.6909	-291.29386	-137.51023	-44.75185	-8.95037	0
853	-95.19939	0	94.38572	47.19286	-94.38572	45.56552	-89.5037	-217.24989	-286.41184	-132.62821	-42.31084	-6.50936	0
854	-102.52242	-2.44101	99.26774	52.07488	-101.70875	48.00653	-79.73966	-207.48585	-279.08881	-120.42316	-34.98781	3.25468	0
855	-100.08141	4.88202	104.14976	47.19286	-101.70875	52.88855	-67.53461	-197.72181	-266.88376	-110.65912	-27.66478	13.01872	0
856	-102.52242	12.20505	113.9138	44.75185	-109.03178	62.65259	-57.77057	-190.39878	-259.56073	-100.89508	-20.34175	18.71441	0
857	-104.96343	24.4101	128.55986	39.86983	-116.35481	74.85764	-52.88855	-185.51676	-252.2377	-98.45407	-17.90074	21.15542	0
858	-97.6404	36.61515	133.44188	30.10579	-116.35481	84.62168	-52.88855	-185.51676	-252.2377	-98.45407	-17.90074	21.15542	0
859	-100.08141	41.49717	140.76491	27.66478	-121.23683	89.5037	-57.77057	-183.07575	-254.67871	-103.33609	-20.34175	15.45973	0
860	-100.08141	39.05616	138.3239	30.10579	-118.79582	87.06269	-65.0936	-185.51676	-259.56073	-110.65912	-25.22377	10.57771	0
861	-90.31737	51.26121	140.76491	17.90074	-116.35481	94.38572	-69.97562	-190.39878	-262.00174	-115.54114	-30.10579	5.69569	0
862	-78.11232	58.58424	135.88289	7.32303	-106.59077	96.82673	-77.29865	-192.83979	-264.44275	-120.42316	-32.5468	0.81367	0
863	-68.34828	61.02525	128.55986	2.44101	-99.26774	94.38572	-77.29865	-195.2808	-264.44275	-120.42316	-32.5468	0.81367	0
864	-53.70222	65.90727	118.79582	-7.32303	-87.06269	91.94471	-74.85764	-192.83979	-264.44275	-115.54114	-32.5468	0.81367	0
865	-43.93818	68.34828	111.47279	-12.20505	-77.29865	89.5037	-65.0936	-187.95777	-257.11972	-110.65912	-27.66478	8.1367	0
866	-29.29212	87.87636	116.35481	-29.29212	-72.41663	101.70875	-55.32956	-183.07575	-247.35568	-100.89508	-22.78276	13.01872	0
867	-24.4101	95.19939	118.79582	-36.61515	-72.41663	106.59077	-50.44754	-178.19373	-242.47366	-98.45407	-20.34175	15.45973	0
868	-43.93818	80.55333	123.67784	-19.52808	-84.62168	101.70875	-45.56552	-170.8707	-237.59164	-96.01306	-17.90074	15.45973	0
869	-56.14323	73.2303	128.55986	-9.76404	-91.94471	99.26774	-45.56552	-163.54767	-232.70962	-93.57205	-15.45973	18.71441	0
870	-65.90727	58.58424	123.67784	2.44101	-94.38572	89.5037	-45.56552	-158.66565	-232.70962	-93.57205	-13.01872	18.71441	0
871	-78.11232	48.8202	126.11885	13.01872	-101.70875	87.06269	-45.56552	-158.66565	-230.26861	-93.57205	-13.01872	18.71441	0
872	-82.99434	41.49717	123.67784	20.34175	-104.14976	82.18067	-52.88855	-158.66565	-230.26861	-96.01306	-13.01872	15.45973	0
873	-85.43535	34.17414	118.79582	25.22377	-101.70875	74.85764	-52.88855	-158.66565	-227.8276	-96.01306	-13.01872	15.45973	0
874	-85.43535	31.73313	116.35481	25.22377	-101.70875	72.41663	-50.44754	-156.22464	-227.8276	-96.01306	-13.01872	15.45973	0
875	-78.11232	29.29212	106.59077	22.78276	-91.94471	67.53461	-50.44754	-156.22464	-227.8276	-96.01306	-17.90074	13.01872	0
876	-82.99434	29.29212	111.47279	25.22377	-96.82673	69.97562	-50.44754	-158.66565	-225.38659	-98.45407	-20.34175	10.57771	0
877	-95.19939	21.96909	116.35481	34.98781	-106.59077	67.53461	-52.88855	-158.66565	-225.38659	-100.89508	-25.22377	5.69569	0
878	-100.08141	17.08707	116.35481	39.86983	-109.03178	65.0936	-57.77057	-163.54767	-230.26861	-108.21811	-32.5468	-1.62734	0
879	-107.40444	9.76404	116.35481	47.19286	-111.47279	62.65259	-62.65259	-163.54767	-235.15063	-115.54114	-37.42882	-6.50936	0
880	-104.96343	17.08707	121.23683	42.31084	-113.9138	67.53461	-65.0936	-163.54767	-237.59164	-117.98215	-39.86983	-11.39138	0
881	-104.96343	21.96909	126.11885	39.86983	-116.35481	72.41663	-65.0936	-158.66565	-235.15063	-120.42316	-39.86983	-13.83239	0
882	-112.28646	21.96909	133.44188	44.75185	-123.67784	77.29865	-65.0936	-153.78363	-232.70962	-120.42316	-39.86983	-13.83239	0
883	-100.08141	26.85111	126.11885	34.98781	-113.9138	74.85764	-62.65259	-148.90161	-230.26861	-115.54114	-37.42882	-13.83239	0
884	-78.11232	41.49717	118.79582	17.90074	-99.26774	79.73966	-57.77057	-141.57858	-225.38659	-113.10013	-37.42882	-13.83239	0
885	-56.14323	56.14323	111.47279	0	-84.62168	82.18067	-50.44754	-131.81454	-218.06356	-108.21811	-32.5468	-11.39138	0
886	-56.14323	51.26121	106.59077	2.44101	-82.18067	77.29865	-45.56552	-124.49151	-210.74053	-105.7771	-30.10579	-11.39138	0
887	-58.58424	41.49717	99.26774	7.32303	-79.73966	69.97562	-43.12451	-119.60949	-205.85851	-105.7771	-30.10579	-13.83239	0
888	-43.93818	53.70222	96.82673	-4.88202	-69.97562	74.85764	-40.6835	-112.28646	-200.97649	-105.7771	-27.66478	-13.83239	0
889	-31.73313	68.34828	99.26774	-19.52808	-65.0936	82.18067	-35.80148	-97.6404	-193.65346	-100.89508	-22.78276	-11.39138	0
890	-34.17414	75.67131	109.03178	-21.96909	-72.41663	91.94471	-28.47845	-85.43535	-186.33043	-98.45407	-17.90074	-8.95037	0
891	-34.17414	75.67131	109.03178	-21.96909	-72.41663	91.94471	-28.47845	-75.67131	-179.0074	-96.01306	-17.90074	-11.39138	0
892	-21.96909	82.99434	104.14976	-31.73313	-62.65259	91.94471	-30.91946	-70.78929	-179.0074	-98.45407	-20.34175	-16.2734	0
893	-9.76404	90.31737	99.26774	-41.49717	-55.32956	94.38572	-30.91946	-70.78929	-179.0074	-103.33609	-25.22377	-23.59643	0
894	-6.50936	90.31737	96.82673	-41.49717	-52.88855	94.38572	-30.91946	-61.02525	-174.12538	-103.33609	-27.66478	-30.91946	0
895	-9.76404	87.87636	96.82673	-39.05616	-52.88855	91.94471	-26.03744	-53.70222	-166.80235	-100.89508	-27.66478	-35.80148	0
896	-12.20505	75.67131	87.06269	-31.73313	-50.44754	79.73966	-23.59643	-46.37919	-161.92033	-100.89508	-32.5468	-40.6835	0
897	-21.96909	61.02525	82.18067	-19.52808	-52.88855	69.97562	-21.15542	-40.6835	-154.5973	-100.89508	-34.98781	-45.56552	0
898	-36.61515	39.05616	74.85764	-2.44101	-55.32956	55.32956	-13.83239	-28.47845	-144.83326	-98.45407	-32.5468	-45.56552	0
899	-43.93818	26.85111	69.97562	7.32303	-57.77057	48.00653	-8.95037	-13.83239	-135.06922	-91.13104	-27.66478	-43.12451	0
900	-46.37919	17.08707	62.65259	13.01872	-55.32956	38.24249	-4.06835	0.81367	-127.74619	-88.69003	-25.22377	-43.12451	0
901	-39.05616	4.88202	43.12451	15.45973	-40.6835	23.59643	-8.95037	5.69569	-125.30518	-91.13104	-30.10579	-52.88855	0
902	-29.29212	0	28.47845	13.01872	-28.47845	13.83239	-11.39138	8.1367	-125.30518	-96.01306	-37.42882	-57.77057	0
903	-19.52808	-2.44101	16.2734	10.57771	-18.71441	6.50936	-11.39138	13.01872	-125.30518	-98.45407	-42.31084	-67.53461	0
904	-9.76404	-2.44101	6.50936	4.88202	-8.95037	1.62734	-11.39138	20.34175	-125.30518	-100.89508	-44.75185	-72.41663	0
905	-6.50936	-8.1367	-1.62734	7.32303	-3.25468	-4.06835	-6.50936	27.66478	-120.42316	-103.33609	-49.63387	-77.29865	0
906	-1.62734	-13.01872	-11.39138	7.32303	4.06835	-11.39138	-1.62734	32.5468	-113.10013	-103.33609	-49.63387	-79.73966	0
907	0.81367	-20.34175	-21.15542	7.32303	8.95037	-21.15542	-1.62734	37.42882	-108.21811	-105.7771	-54.51589	-84.62168	0
908	0.81367	-34.98781	-35.80148	15.45973	16.2734	-35.80148	-1.62734	42.31084	-105.7771	-108.21811	-59.39791	-89.5037	0
909	5.69569	-39.86983	-45.56552	15.45973	23.59643	-43.12451	0.81367	49.63387	-103.33609	-110.65912	-61.83892	-91.94471	0
910	8.1367	-52.07488	-60.21158	20.34175	33.36047	-55.32956	-1.62734	54.51589	-100.89508	-113.10013	-66.72094	-96.82673	0
911	20.34175	-49.63387	-69.97562	13.01872	43.12451	-60.21158	-1.62734	56.9569	-100.89508	-115.54114	-71.60296	-101.70875	0
912	27.66478	-56.9569	-84.62168	13.01872	55.32956	-69.97562	-6.50936	56.9569	-100.89508	-120.42316	-78.92599	-111.47279	0
913	32.5468	-59.39791	-91.94471	13.01872	60.21158	-74.85764	-6.50936	59.39791	-100.89508	-120.42316	-83.80801	-116.35481	0
914	37.42882	-59.39791	-96.82673	10.57771	65.0936	-77.29865	-4.06835	61.83892	-100.89508	-122.86417	-88.69003	-121.23683	0
915	42.31084	-61.83892	-104.14976	7.32303	72.41663	-82.18067	-4.06835	59.39791	-103.33609	-130.1872	-96.01306	-131.00087	0
916	39.86983	-64.27993	-104.14976	10.57771	69.97562	-84.62168	-4.06835	54.51589	-103.33609	-135.06922	-103.33609	-140.76491	0
917	30.10579	-78.92599	-109.03178	22.78276	67.53461	-94.38572	0.81367	56.9569	-103.33609	-135.06922	-105.7771	-140.76491	0
918	20.34175	-91.13104	-111.47279	34.98781	65.0936	-101.70875	5.69569	61.83892	-100.89508	-135.06922	-105.7771	-140.76491	0
919	10.57771	-108.21811	-118.79582	47.19286	62.65259	-113.9138	10.57771	66.72094	-100.89508	-135.06922	-103.33609	-143.20592	0
920	10.57771	-132.62821	-143.20592	59.39791	74.85764	-138.3239	10.57771	71.60296	-100.89508	-135.06922	-105.7771	-145.64693	0
921	0.81367	-157.03831	-157.85198	76.48498	77.29865	-157.85198	13.01872	76.48498	-98.45407	-135.06922	-105.7771	-145.64693	0
922	-4.06835	-171.68437	-167.61602	86.24902	79.73966	-170.05703	15.45973	81.367	-93.57205	-132.62821	-103.33609	-143.20592	0
923	5.69569	-171.68437	-177.38006	81.367	89.5037	-174.93905	15.45973	81.367	-93.57205	-132.62821	-103.33609	-148.08794	0
924	10.57771	-174.12538	-184.70309	81.367	96.82673	-179.82107	15.45973	78.92599	-98.45407	-135.06922	-108.21811	-152.96996	0
925	17.90074	-179.0074	-196.90814	78.92599	106.59077	-187.1441	15.45973	76.48498	-98.45407	-135.06922	-110.65912	-157.85198	0
926	20.34175	-169.24336	-189.58511	74.04397	104.14976	-179.82107	18.71441	76.48498	-96.01306	-135.06922	-113.10013	-162.734	0
927	20.34175	-159.47932	-179.82107	69.16195	99.26774	-170.05703	23.59643	74.04397	-96.01306	-135.06922	-117.98215	-167.61602	0
928	20.34175	-152.15629	-172.49804	64.27993	94.38572	-162.734	28.47845	76.48498	-96.01306	-135.06922	-117.98215	-170.05703	0
929	15.45973	-157.03831	-172.49804	69.16195	91.94471	-165.17501	30.91946	78.92599	-96.01306	-135.06922	-120.42316	-172.49804	0
930	8.1367	-161.92033	-170.05703	76.48498	87.06269	-165.17501	35.80148	86.24902	-93.57205	-135.06922	-122.86417	-172.49804	0
931	10.57771	-166.80235	-177.38006	76.48498	91.94471	-172.49804	35.80148	86.24902	-91.13104	-137.51023	-125.30518	-174.93905	0
932	10.57771	-174.12538	-184.70309	81.367	96.82673	-179.82107	30.91946	81.367	-93.57205	-142.39225	-127.74619	-179.82107	0
933	10.57771	-183.88942	-194.46713	86.24902	101.70875	-189.58511	30.91946	81.367	-93.57205	-142.39225	-127.74619	-179.82107	0
934	3.25468	-188.77144	-192.02612	91.13104	96.82673	-189.58511	28.47845	81.367	-93.57205	-144.83326	-132.62821	-182.26208	0
935	3.25468	-196.09447	-199.34915	96.01306	99.26774	-196.90814	28.47845	78.92599	-91.13104	-144.83326	-132.62821	-184.70309	0
936	0.81367	-198.53548	-199.34915	98.45407	99.26774	-199.34915	30.91946	76.48498	-86.24902	-142.39225	-135.06922	-184.70309	0
937	-1.62734	-203.4175	-201.79016	100.89508	99.26774	-201.79016	30.91946	71.60296	-81.367	-139.95124	-135.06922	-187.1441	0
938	-9.76404	-200.97649	-192.02612	103.33609	89.5037	-196.90814	33.36047	71.60296	-78.92599	-139.95124	-135.06922	-187.1441	0
939	-12.20505	-191.21245	-179.82107	100.89508	82.18067	-187.1441	38.24249	74.04397	-75.67131	-135.06922	-135.06922	-187.1441	0
940	-17.08707	-188.77144	-172.49804	100.89508	77.29865	-182.26208	38.24249	71.60296	-70.78929	-132.62821	-135.06922	-187.1441	0
941	-14.64606	-186.33043	-172.49804	98.45407	77.29865	-179.82107	40.6835	69.16195	-65.90727	-132.62821	-135.06922	-187.1441	0
942	-6.50936	-179.0074	-172.49804	91.13104	82.18067	-174.93905	38.24249	69.16195	-61.02525	-130.1872	-132.62821	-184.70309	0
943	-9.76404	-176.56639	-167.61602	91.13104	77.29865	-172.49804	38.24249	64.27993	-58.58424	-127.74619	-130.1872	-184.70309	0
944	-1.62734	-164.36134	-162.734	81.367	79.73966	-162.734	38.24249	69.16195	-51.26121	-122.86417	-127.74619	-182.26208	0
945	17.90074	-149.71528	-167.61602	64.27993	91.94471	-157.85198	43.12451	71.60296	-41.49717	-115.54114	-120.42316	-174.93905	0
946	22.78276	-147.27427	-170.05703	61.83892	94.38572	-157.85198	43.12451	69.16195	-34.17414	-108.21811	-115.54114	-172.49804	0
947	37.42882	-132.62821	-170.05703	47.19286	101.70875	-150.52895	45.56552	71.60296	-24.4101	-100.89508	-108.21811	-165.17501	0
948	30.10579	-125.30518	-155.41097	47.19286	91.94471	-140.76491	45.56552	74.04397	-19.52808	-96.01306	-105.7771	-160.29299	0
949	30.10579	-115.54114	-145.64693	42.31084	87.06269	-131.00087	45.56552	71.60296	-19.52808	-93.57205	-105.7771	-160.29299	0
950	37.42882	-103.33609	-140.76491	32.5468	87.06269	-121.23683	45.56552	69.16195	-17.08707	-88.69003	-105.7771	-155.41097	0
951	32.5468	-105.7771	-138.3239	34.98781	84.62168	-121.23683	43.12451	64.27993	-17.08707	-88.69003	-105.7771	-155.41097	0
952	25.22377	-108.21811	-133.44188	39.86983	77.29865	-121.23683	35.80148	59.39791	-19.52808	-88.69003	-108.21811	-150.52895	0
953	15.45973	-108.21811	-123.67784	44.75185	67.53461	-116.35481	33.36047	56.9569	-19.52808	-86.24902	-103.33609	-145.64693	0
954	8.1367	-105.7771	-113.9138	47.19286	60.21158	-109.03178	30.91946	56.9569	-19.52808	-81.367	-100.89508	-140.76491	0
955	13.01872	-93.57205	-106.59077	39.86983	57.77057	-99.26774	30.91946	54.51589	-17.08707	-76.48498	-96.01306	-135.88289	0
956	13.01872	-83.80801	-96.82673	34.98781	52.88855	-89.5037	30.91946	49.63387	-14.64606	-74.04397	-91.13104	-133.44188	0
957	8.1367	-71.60296	-79.73966	30.10579	43.12451	-74.85764	28.47845	42.31084	-14.64606	-71.60296	-88.69003	-131.00087	0
958	5.69569	-59.39791	-65.0936	25.22377	33.36047	-62.65259	26.03744	39.86983	-14.64606	-66.72094	-83.80801	-126.11885	0
959	13.01872	-44.75185	-57.77057	15.45973	33.36047	-50.44754	26.03744	39.86983	-14.64606	-61.83892	-81.367	-123.67784	0
960	17.90074	-32.5468	-50.44754	7.32303	33.36047	-40.6835	30.91946	37.42882	-9.76404	-56.9569	-76.48498	-118.79582	0
961	17.90074	-34.98781	-52.88855	7.32303	33.36047	-43.12451	30.91946	34.98781	-7.32303	-52.07488	-71.60296	-113.9138	0
962	15.45973	-37.42882	-52.88855	10.57771	33.36047	-45.56552	23.59643	30.10579	-9.76404	-49.63387	-69.16195	-111.47279	0
963	10.57771	-37.42882	-48.00653	13.01872	28.47845	-43.12451	23.59643	25.22377	-9.76404	-47.19286	-66.72094	-106.59077	0
964	10.57771	-34.98781	-45.56552	10.57771	26.03744	-40.6835	21.15542	25.22377	-9.76404	-47.19286	-64.27993	-104.14976	0
965	0.81367	-32.5468	-33.36047	15.45973	16.2734	-33.36047	18.71441	20.34175	-9.76404	-47.19286	-66.72094	-104.14976	0
966	-6.50936	-37.42882	-30.91946	20.34175	11.39138	-33.36047	13.01872	10.57771	-12.20505	-49.63387	-71.60296	-106.59077	0
967	-6.50936	-39.86983	-33.36047	22.78276	11.39138	-35.80148	3.25468	0.81367	-19.52808	-54.51589	-76.48498	-109.03178	0
968	-12.20505	-44.75185	-33.36047	27.66478	8.95037	-40.6835	-1.62734	-4.06835	-24.4101	-56.9569	-81.367	-111.47279	0
969	-17.08707	-44.75185	-28.47845	30.10579	4.06835	-38.24249	-1.62734	-4.06835	-24.4101	-56.9569	-81.367	-111.47279	0
970	-17.08707	-49.63387	-33.36047	32.5468	6.50936	-43.12451	-1.62734	-6.50936	-24.4101	-56.9569	-81.367	-109.03178	0
971	-19.52808	-59.39791	-40.6835	37.42882	8.95037	-50.44754	-4.06835	-6.50936	-21.96909	-54.51589	-78.92599	-106.59077	0
972	-19.52808	-61.83892	-43.12451	39.86983	11.39138	-52.88855	-8.95037	-8.95037	-24.4101	-54.51589	-76.48498	-101.70875	0
973	-9.76404	-44.75185	-35.80148	25.22377	11.39138	-40.6835	-6.50936	-6.50936	-21.96909	-52.07488	-69.16195	-96.82673	0
974	-6.50936	-37.42882	-30.91946	20.34175	11.39138	-33.36047	-4.06835	-1.62734	-21.96909	-47.19286	-66.72094	-91.94471	0
975	-1.62734	-37.42882	-35.80148	17.90074	16.2734	-35.80148	-1.62734	-1.62734	-17.08707	-44.75185	-61.83892	-87.06269	0
976	8.1367	-22.78276	-30.91946	7.32303	18.71441	-26.03744	0.81367	3.25468	-12.20505	-39.86983	-56.9569	-79.73966	0
977	17.90074	-4.88202	-23.59643	-7.32303	21.15542	-13.83239	0.81367	3.25468	-9.76404	-37.42882	-54.51589	-74.85764	0
978	22.78276	14.64606	-8.95037	-19.52808	16.2734	4.06835	5.69569	8.1367	-7.32303	-34.98781	-49.63387	-72.41663	0
979	15.45973	19.52808	4.06835	-17.08707	6.50936	11.39138	10.57771	10.57771	-4.88202	-32.5468	-47.19286	-69.97562	0
980	3.25468	19.52808	16.2734	-12.20505	-6.50936	18.71441	10.57771	13.01872	0	-32.5468	-44.75185	-69.97562	0
981	-4.06835	21.96909	26.03744	-9.76404	-16.2734	23.59643	13.01872	13.01872	2.44101	-32.5468	-44.75185	-67.53461	0
982	-12.20505	14.64606	26.03744	-2.44101	-18.71441	18.71441	10.57771	13.01872	2.44101	-32.5468	-44.75185	-67.53461	0
983	-26.85111	0	26.03744	13.01872	-26.03744	11.39138	8.1367	13.01872	0	-32.5468	-47.19286	-69.97562	0
984	-36.61515	-17.90074	18.71441	25.22377	-28.47845	-0.81367	8.1367	13.01872	0	-32.5468	-44.75185	-69.97562	0
985	-34.17414	-25.22377	8.95037	27.66478	-23.59643	-8.95037	3.25468	10.57771	-4.88202	-34.98781	-52.07488	-72.41663	0
986	-24.4101	-25.22377	-1.62734	22.78276	-13.83239	-13.83239	3.25468	8.1367	-2.44101	-34.98781	-52.07488	-72.41663	0
987	-19.52808	-22.78276	-4.06835	20.34175	-8.95037	-13.83239	3.25468	5.69569	-2.44101	-32.5468	-52.07488	-72.41663	0
988	-9.76404	-13.01872	-4.06835	10.57771	-3.25468	-8.95037	3.25468	5.69569	-2.44101	-34.98781	-52.07488	-72.41663	0
