samplenr	I	II	III	aVR	aVL	aVF	V1	V2	V3	V4	V5	V6	measurement
0	-13.83239	4.06835	17.08707	4.06835	-14.64606	8.95037	6.50936	74.85764	-4.06835	3.25468	2.44101	3.25468	0
1	-8.95037	4.06835	12.20505	1.62734	-9.76404	6.50936	6.50936	74.85764	-4.06835	5.69569	4.88202	5.69569	0
2	4.06835	6.50936	2.44101	-5.69569	0	4.06835	4.06835	72.41663	-4.06835	8.1367	7.32303	8.1367	0
3	11.39138	-3.25468	-15.45973	-3.25468	13.01872	-8.1367	1.62734	69.97562	-4.06835	3.25468	2.44101	3.25468	0
4	33.36047	6.50936	-27.66478	-20.34175	30.10579	-11.39138	1.62734	69.97562	-1.62734	-2.44101	-0.81367	-2.44101	0
5	38.24249	-8.1367	-47.19286	-15.45973	42.31084	-28.47845	1.62734	69.97562	-1.62734	-2.44101	-3.25468	-4.88202	0
6	21.15542	-26.03744	-47.19286	1.62734	32.5468	-35.80148	-3.25468	62.65259	-6.50936	-17.08707	-17.90074	-19.52808	0
7	11.39138	-38.24249	-49.63387	12.20505	30.10579	-43.12451	-5.69569	57.77057	-13.83239	-26.85111	-27.66478	-29.29212	0
8	-0.81367	-52.88855	-52.07488	26.85111	25.22377	-52.88855	-5.69569	55.32956	-13.83239	-31.73313	-32.5468	-34.17414	0
9	-3.25468	-43.12451	-39.86983	21.96909	17.90074	-40.6835	-8.1367	52.88855	-18.71441	-26.85111	-30.10579	-29.29212	0
10	-6.50936	-52.88855	-47.19286	29.29212	20.34175	-50.44754	-13.01872	48.00653	-21.15542	-14.64606	-15.45973	-17.08707	0
11	-16.2734	-60.21158	-44.75185	36.61515	13.01872	-52.88855	-15.45973	48.00653	-23.59643	-7.32303	-8.1367	-7.32303	0
12	-21.15542	-57.77057	-37.42882	39.05616	8.1367	-48.00653	-17.90074	45.56552	-23.59643	-2.44101	-0.81367	-2.44101	0
13	-16.2734	-57.77057	-42.31084	36.61515	13.01872	-50.44754	-17.90074	43.12451	-21.15542	8.1367	9.76404	5.69569	0
14	-6.50936	-48.00653	-42.31084	26.85111	17.90074	-45.56552	-22.78276	38.24249	-23.59643	10.57771	12.20505	10.57771	0
15	1.62734	-55.32956	-56.9569	26.85111	27.66478	-55.32956	-20.34175	40.6835	-21.15542	13.01872	14.64606	10.57771	0
16	6.50936	-45.56552	-52.07488	19.52808	27.66478	-48.00653	-15.45973	43.12451	-16.2734	15.45973	17.08707	13.01872	0
17	18.71441	-30.91946	-49.63387	6.50936	32.5468	-40.6835	-10.57771	45.56552	-6.50936	13.01872	14.64606	10.57771	0
18	26.03744	-38.24249	-64.27993	6.50936	44.75185	-50.44754	-10.57771	43.12451	-6.50936	17.90074	19.52808	15.45973	0
19	28.47845	-28.47845	-56.9569	-0.81367	42.31084	-43.12451	-15.45973	35.80148	-11.39138	22.78276	24.4101	22.78276	0
20	28.47845	-33.36047	-61.83892	1.62734	44.75185	-48.00653	-15.45973	35.80148	-11.39138	27.66478	26.85111	27.66478	0
21	26.03744	-43.12451	-69.16195	8.95037	47.19286	-55.32956	-17.90074	30.91946	-13.83239	25.22377	26.85111	25.22377	0
22	18.71441	-57.77057	-76.48498	19.52808	47.19286	-67.53461	-25.22377	21.15542	-21.15542	27.66478	29.29212	27.66478	0
23	18.71441	-67.53461	-86.24902	24.4101	52.07488	-77.29865	-25.22377	18.71441	-23.59643	30.10579	29.29212	27.66478	0
24	6.50936	-72.41663	-78.92599	31.73313	42.31084	-74.85764	-22.78276	18.71441	-28.47845	22.78276	24.4101	22.78276	0
25	-0.81367	-87.06269	-86.24902	43.93818	42.31084	-87.06269	-15.45973	23.59643	-26.03744	20.34175	24.4101	20.34175	0
26	-6.50936	-91.94471	-86.24902	48.8202	39.86983	-89.5037	-15.45973	23.59643	-26.03744	17.90074	19.52808	15.45973	0
27	-21.15542	-91.94471	-71.60296	56.14323	25.22377	-82.18067	-10.57771	26.03744	-23.59643	13.01872	14.64606	13.01872	0
28	-23.59643	-91.94471	-69.16195	56.14323	22.78276	-82.18067	-8.1367	28.47845	-16.2734	8.1367	9.76404	8.1367	0
29	-16.2734	-77.29865	-61.83892	46.37919	22.78276	-69.97562	-13.01872	23.59643	-18.71441	10.57771	9.76404	8.1367	0
30	-3.25468	-69.97562	-66.72094	36.61515	30.10579	-67.53461	-15.45973	18.71441	-18.71441	5.69569	4.88202	3.25468	0
31	-3.25468	-69.97562	-66.72094	36.61515	30.10579	-67.53461	-15.45973	18.71441	-13.83239	-2.44101	-0.81367	-2.44101	0
32	1.62734	-55.32956	-56.9569	26.85111	27.66478	-55.32956	-13.01872	21.15542	-6.50936	8.1367	7.32303	5.69569	0
33	11.39138	-48.00653	-59.39791	17.08707	34.98781	-52.88855	-13.01872	21.15542	-4.06835	20.34175	21.96909	20.34175	0
34	16.2734	-40.6835	-56.9569	12.20505	34.98781	-48.00653	-13.01872	18.71441	-4.06835	32.5468	34.17414	30.10579	0
35	16.2734	-45.56552	-61.83892	14.64606	37.42882	-52.88855	-3.25468	23.59643	3.25468	32.5468	34.17414	32.5468	0
36	8.95037	-45.56552	-54.51589	17.08707	30.10579	-50.44754	1.62734	23.59643	3.25468	32.5468	34.17414	32.5468	0
37	6.50936	-40.6835	-47.19286	17.08707	25.22377	-43.12451	1.62734	23.59643	3.25468	39.86983	41.49717	39.86983	0
38	16.2734	-45.56552	-61.83892	14.64606	37.42882	-52.88855	-3.25468	18.71441	-4.06835	37.42882	36.61515	34.98781	0
39	11.39138	-48.00653	-59.39791	17.08707	34.98781	-52.88855	-13.01872	5.69569	-13.83239	17.90074	17.08707	17.90074	0
40	4.06835	-55.32956	-59.39791	24.4101	30.10579	-57.77057	-15.45973	5.69569	-16.2734	0.81367	2.44101	0.81367	0
41	-6.50936	-62.65259	-56.9569	34.17414	25.22377	-60.21158	-15.45973	-1.62734	-21.15542	-2.44101	-3.25468	-4.88202	0
42	-6.50936	-60.21158	-54.51589	31.73313	22.78276	-57.77057	-13.01872	0.81367	-21.15542	-2.44101	-0.81367	-2.44101	0
43	-18.71441	-72.41663	-54.51589	43.93818	17.90074	-65.0936	-10.57771	0.81367	-21.15542	-2.44101	-0.81367	-2.44101	0
44	-38.24249	-87.06269	-49.63387	61.02525	5.69569	-69.97562	-10.57771	-1.62734	-26.03744	5.69569	7.32303	5.69569	0
45	-57.77057	-113.9138	-56.9569	85.43535	-2.44101	-87.06269	-8.1367	-1.62734	-23.59643	10.57771	14.64606	10.57771	0
46	-69.97562	-126.11885	-56.9569	97.6404	-7.32303	-91.94471	-8.1367	-4.06835	-26.03744	22.78276	26.85111	22.78276	0
47	-74.85764	-131.00087	-56.9569	102.52242	-9.76404	-94.38572	-5.69569	-4.06835	-26.03744	30.10579	34.17414	30.10579	0
48	-72.41663	-133.44188	-61.83892	102.52242	-7.32303	-99.26774	-3.25468	-4.06835	-23.59643	30.10579	31.73313	30.10579	0
49	-60.21158	-113.9138	-54.51589	85.43535	-4.88202	-84.62168	-8.1367	-8.95037	-26.03744	34.98781	34.17414	34.98781	0
50	-48.00653	-109.03178	-61.83892	78.11232	5.69569	-87.06269	-8.1367	-11.39138	-23.59643	37.42882	39.05616	37.42882	0
51	-30.91946	-96.82673	-66.72094	63.46626	17.90074	-82.18067	-5.69569	-8.95037	-21.15542	30.10579	31.73313	30.10579	0
52	-28.47845	-94.38572	-66.72094	61.02525	17.90074	-82.18067	-5.69569	-11.39138	-21.15542	25.22377	26.85111	27.66478	0
53	-8.95037	-84.62168	-76.48498	46.37919	32.5468	-82.18067	-3.25468	-11.39138	-16.2734	17.90074	21.96909	20.34175	0
54	6.50936	-77.29865	-83.80801	34.17414	44.75185	-79.73966	-5.69569	-13.83239	-18.71441	17.90074	21.96909	20.34175	0
55	8.95037	-91.94471	-100.89508	41.49717	54.51589	-96.82673	-0.81367	-13.83239	-18.71441	8.1367	12.20505	10.57771	0
56	13.83239	-79.73966	-93.57205	31.73313	52.07488	-87.06269	6.50936	-11.39138	-18.71441	5.69569	9.76404	8.1367	0
57	23.59643	-65.0936	-88.69003	19.52808	54.51589	-77.29865	12.20505	-11.39138	-18.71441	8.1367	9.76404	8.1367	0
58	30.91946	-55.32956	-86.24902	12.20505	56.9569	-69.97562	17.08707	-8.95037	-18.71441	8.1367	9.76404	10.57771	0
59	40.6835	-30.91946	-71.60296	-5.69569	54.51589	-50.44754	21.96909	-8.95037	-18.71441	17.90074	17.08707	17.90074	0
60	28.47845	-38.24249	-66.72094	4.06835	47.19286	-52.88855	21.96909	-8.95037	-23.59643	17.90074	17.08707	17.90074	0
61	18.71441	-40.6835	-59.39791	8.95037	37.42882	-50.44754	21.96909	-8.95037	-23.59643	17.90074	17.08707	17.90074	0
62	4.06835	-48.00653	-52.07488	21.96909	27.66478	-50.44754	21.96909	-8.95037	-23.59643	20.34175	19.52808	17.90074	0
63	-6.50936	-57.77057	-52.07488	31.73313	22.78276	-55.32956	19.52808	-13.83239	-26.03744	13.01872	17.08707	13.01872	0
64	-8.95037	-57.77057	-49.63387	31.73313	20.34175	-55.32956	17.08707	-13.83239	-26.03744	5.69569	9.76404	5.69569	0
65	-6.50936	-69.97562	-64.27993	36.61515	27.66478	-67.53461	19.52808	-13.83239	-18.71441	-4.88202	-3.25468	-7.32303	0
66	-0.81367	-65.0936	-64.27993	31.73313	30.10579	-65.0936	21.96909	-13.83239	-13.83239	-9.76404	-5.69569	-9.76404	0
67	-6.50936	-67.53461	-61.83892	36.61515	27.66478	-65.0936	21.96909	-13.83239	-11.39138	-4.88202	-3.25468	-4.88202	0
68	-21.15542	-89.5037	-69.16195	53.70222	22.78276	-79.73966	17.08707	-21.15542	-13.83239	0.81367	2.44101	0.81367	0
69	-40.6835	-99.26774	-59.39791	68.34828	8.1367	-79.73966	9.76404	-30.91946	-18.71441	-2.44101	-0.81367	-2.44101	0
70	-52.88855	-113.9138	-61.83892	82.99434	3.25468	-89.5037	9.76404	-30.91946	-21.15542	5.69569	4.88202	3.25468	0
71	-50.44754	-104.14976	-54.51589	75.67131	0	-79.73966	14.64606	-30.91946	-21.15542	15.45973	14.64606	15.45973	0
72	-50.44754	-104.14976	-54.51589	75.67131	0	-79.73966	14.64606	-30.91946	-26.03744	22.78276	21.96909	22.78276	0
73	-38.24249	-96.82673	-59.39791	65.90727	10.57771	-79.73966	17.08707	-30.91946	-28.47845	27.66478	26.85111	25.22377	0
74	-21.15542	-84.62168	-64.27993	51.26121	20.34175	-74.85764	19.52808	-30.91946	-30.91946	22.78276	21.96909	20.34175	0
75	-6.50936	-91.94471	-86.24902	48.8202	39.86983	-89.5037	21.96909	-30.91946	-30.91946	22.78276	24.4101	22.78276	0
76	11.39138	-77.29865	-88.69003	31.73313	49.63387	-82.18067	26.85111	-28.47845	-30.91946	39.86983	41.49717	37.42882	0
77	21.15542	-65.0936	-86.24902	21.96909	52.07488	-74.85764	24.4101	-28.47845	-35.80148	39.86983	41.49717	37.42882	0
78	26.03744	-67.53461	-93.57205	19.52808	59.39791	-79.73966	21.96909	-28.47845	-35.80148	49.63387	48.8202	47.19286	0
79	16.2734	-62.65259	-78.92599	21.96909	47.19286	-69.97562	21.96909	-30.91946	-35.80148	54.51589	53.70222	54.51589	0
80	11.39138	-62.65259	-74.04397	24.4101	42.31084	-67.53461	26.85111	-26.03744	-28.47845	54.51589	53.70222	54.51589	0
81	26.03744	-38.24249	-64.27993	6.50936	44.75185	-50.44754	31.73313	-18.71441	-16.2734	52.07488	51.26121	52.07488	0
82	43.12451	-21.15542	-64.27993	-10.57771	52.07488	-43.12451	34.17414	-16.2734	-8.95037	47.19286	46.37919	47.19286	0
83	48.00653	-21.15542	-69.16195	-13.01872	56.9569	-45.56552	31.73313	-21.15542	-6.50936	37.42882	39.05616	37.42882	0
84	40.6835	-21.15542	-61.83892	-10.57771	49.63387	-40.6835	31.73313	-21.15542	-4.06835	34.98781	36.61515	37.42882	0
85	38.24249	-35.80148	-74.04397	-0.81367	54.51589	-55.32956	34.17414	-21.15542	-4.06835	30.10579	34.17414	32.5468	0
86	21.15542	-52.88855	-74.04397	14.64606	47.19286	-62.65259	24.4101	-33.36047	-16.2734	25.22377	26.85111	25.22377	0
87	-13.83239	-89.5037	-76.48498	51.26121	30.10579	-84.62168	9.76404	-48.00653	-33.36047	25.22377	24.4101	25.22377	0
88	-16.2734	-101.70875	-86.24902	58.58424	34.98781	-94.38572	6.50936	-50.44754	-35.80148	22.78276	21.96909	20.34175	0
89	-0.81367	-69.97562	-69.16195	34.17414	32.5468	-69.97562	12.20505	-45.56552	-28.47845	22.78276	21.96909	22.78276	0
90	-6.50936	-77.29865	-71.60296	41.49717	32.5468	-74.85764	14.64606	-43.12451	-23.59643	17.90074	17.08707	17.90074	0
91	-11.39138	-89.5037	-78.92599	48.8202	32.5468	-84.62168	9.76404	-45.56552	-23.59643	17.90074	17.08707	15.45973	0
92	-11.39138	-89.5037	-78.92599	48.8202	32.5468	-84.62168	9.76404	-48.00653	-23.59643	20.34175	19.52808	17.90074	0
93	28.47845	-57.77057	-86.24902	14.64606	56.9569	-72.41663	19.52808	-35.80148	-8.95037	17.90074	19.52808	17.90074	0
94	57.77057	-26.03744	-83.80801	-15.45973	69.16195	-55.32956	29.29212	-28.47845	-4.06835	20.34175	21.96909	22.78276	0
95	40.6835	-50.44754	-91.13104	4.06835	64.27993	-69.97562	26.85111	-30.91946	-11.39138	27.66478	31.73313	27.66478	0
96	28.47845	-57.77057	-86.24902	14.64606	56.9569	-72.41663	26.85111	-33.36047	-16.2734	30.10579	34.17414	32.5468	0
97	23.59643	-55.32956	-78.92599	14.64606	49.63387	-67.53461	26.85111	-33.36047	-18.71441	32.5468	34.17414	34.98781	0
98	26.03744	-50.44754	-76.48498	12.20505	49.63387	-62.65259	26.85111	-30.91946	-16.2734	25.22377	26.85111	25.22377	0
99	26.03744	-30.91946	-56.9569	1.62734	39.86983	-43.12451	26.85111	-28.47845	-16.2734	20.34175	19.52808	20.34175	0
100	1.62734	-50.44754	-52.07488	24.4101	25.22377	-50.44754	26.85111	-28.47845	-13.83239	15.45973	17.08707	15.45973	1000	P+0
101	-13.83239	-62.65259	-49.63387	36.61515	17.90074	-57.77057	29.29212	-28.47845	-6.50936	0.81367	2.44101	0.81367	0
102	-18.71441	-69.97562	-52.07488	43.93818	15.45973	-62.65259	24.4101	-33.36047	-8.95037	-7.32303	-5.69569	-7.32303	0
103	-18.71441	-77.29865	-59.39791	46.37919	20.34175	-69.97562	21.96909	-35.80148	-11.39138	-12.20505	-10.57771	-12.20505	0
104	-8.95037	-67.53461	-59.39791	36.61515	25.22377	-65.0936	21.96909	-35.80148	-11.39138	-19.52808	-17.90074	-19.52808	0
105	-6.50936	-82.18067	-76.48498	43.93818	34.98781	-79.73966	21.96909	-38.24249	-11.39138	-21.96909	-20.34175	-24.4101	0
106	4.06835	-72.41663	-76.48498	34.17414	39.86983	-74.85764	21.96909	-38.24249	-11.39138	-21.96909	-20.34175	-24.4101	0
107	8.95037	-69.97562	-78.92599	29.29212	42.31084	-74.85764	14.64606	-45.56552	-21.15542	-24.4101	-22.78276	-26.85111	0
108	11.39138	-72.41663	-83.80801	29.29212	47.19286	-77.29865	12.20505	-48.00653	-23.59643	-26.85111	-25.22377	-26.85111	0
109	4.06835	-62.65259	-66.72094	29.29212	34.98781	-65.0936	6.50936	-50.44754	-28.47845	-21.96909	-20.34175	-21.96909	0
110	4.06835	-65.0936	-69.16195	29.29212	34.98781	-67.53461	4.06835	-52.88855	-28.47845	-14.64606	-15.45973	-14.64606	0
111	4.06835	-69.97562	-74.04397	31.73313	37.42882	-72.41663	1.62734	-52.88855	-28.47845	-2.44101	-3.25468	-2.44101	0
112	-13.83239	-91.94471	-78.92599	51.26121	32.5468	-87.06269	-3.25468	-60.21158	-35.80148	-2.44101	-3.25468	-2.44101	0
113	-28.47845	-109.03178	-81.367	68.34828	25.22377	-96.82673	-8.1367	-62.65259	-35.80148	0.81367	-0.81367	0.81367	0
114	-38.24249	-116.35481	-78.92599	75.67131	20.34175	-99.26774	-8.1367	-62.65259	-30.91946	5.69569	7.32303	5.69569	0
115	-40.6835	-133.44188	-93.57205	85.43535	25.22377	-113.9138	-3.25468	-60.21158	-26.03744	8.1367	12.20505	8.1367	0
116	-23.59643	-118.79582	-96.01306	70.78929	34.98781	-109.03178	-0.81367	-57.77057	-23.59643	3.25468	7.32303	3.25468	0
117	-16.2734	-111.47279	-96.01306	63.46626	39.86983	-104.14976	-0.81367	-57.77057	-23.59643	-4.88202	-3.25468	-4.88202	0
118	-6.50936	-104.14976	-98.45407	53.70222	44.75185	-101.70875	1.62734	-52.88855	-18.71441	-12.20505	-10.57771	-14.64606	0
119	13.83239	-69.97562	-83.80801	26.85111	47.19286	-77.29865	6.50936	-50.44754	-16.2734	-7.32303	-5.69569	-7.32303	0
120	28.47845	-55.32956	-83.80801	12.20505	54.51589	-69.97562	6.50936	-48.00653	-13.83239	-7.32303	-5.69569	-7.32303	0
121	21.15542	-62.65259	-83.80801	19.52808	52.07488	-72.41663	1.62734	-50.44754	-21.15542	-4.88202	-5.69569	-4.88202	0
122	13.83239	-62.65259	-76.48498	24.4101	44.75185	-69.97562	-0.81367	-52.88855	-23.59643	-2.44101	-3.25468	-2.44101	0
123	8.95037	-67.53461	-76.48498	29.29212	42.31084	-72.41663	4.06835	-48.00653	-21.15542	3.25468	2.44101	3.25468	0
124	11.39138	-65.0936	-76.48498	26.85111	42.31084	-69.97562	4.06835	-48.00653	-21.15542	17.90074	19.52808	17.90074	0
125	13.83239	-82.18067	-96.01306	34.17414	54.51589	-89.5037	4.06835	-48.00653	-23.59643	17.90074	21.96909	20.34175	0
126	18.71441	-91.94471	-110.65912	36.61515	64.27993	-101.70875	-3.25468	-55.32956	-33.36047	13.01872	17.08707	13.01872	0
127	40.6835	-74.85764	-115.54114	17.08707	76.48498	-94.38572	-3.25468	-55.32956	-33.36047	13.01872	17.08707	13.01872	0
128	69.97562	-55.32956	-125.30518	-8.1367	96.01306	-89.5037	4.06835	-48.00653	-23.59643	5.69569	9.76404	5.69569	0
129	67.53461	-43.12451	-110.65912	-13.01872	88.69003	-77.29865	-0.81367	-48.00653	-26.03744	5.69569	7.32303	5.69569	0
130	60.21158	-48.00653	-108.21811	-5.69569	83.80801	-77.29865	-8.1367	-52.88855	-30.91946	5.69569	7.32303	5.69569	0
131	50.44754	-48.00653	-98.45407	-0.81367	74.04397	-72.41663	-10.57771	-52.88855	-30.91946	3.25468	4.88202	3.25468	0
132	38.24249	-45.56552	-83.80801	4.06835	59.39791	-65.0936	-8.1367	-52.88855	-26.03744	8.1367	7.32303	8.1367	0
133	26.03744	-50.44754	-76.48498	12.20505	49.63387	-62.65259	-5.69569	-48.00653	-18.71441	10.57771	12.20505	10.57771	0
134	8.95037	-55.32956	-64.27993	21.96909	34.98781	-60.21158	-8.1367	-50.44754	-21.15542	13.01872	14.64606	13.01872	0
135	6.50936	-65.0936	-71.60296	29.29212	37.42882	-67.53461	-3.25468	-48.00653	-16.2734	17.90074	19.52808	20.34175	0
136	16.2734	-55.32956	-71.60296	19.52808	42.31084	-62.65259	-0.81367	-45.56552	-13.83239	13.01872	17.08707	15.45973	0
137	26.03744	-45.56552	-71.60296	8.95037	47.19286	-57.77057	-3.25468	-45.56552	-11.39138	5.69569	9.76404	8.1367	0
138	35.80148	-52.88855	-88.69003	8.95037	61.83892	-69.97562	-5.69569	-48.00653	-11.39138	3.25468	7.32303	3.25468	0
139	33.36047	-50.44754	-83.80801	8.95037	56.9569	-67.53461	-13.01872	-55.32956	-16.2734	-7.32303	-5.69569	-7.32303	0
140	23.59643	-67.53461	-91.13104	21.96909	56.9569	-79.73966	-17.90074	-60.21158	-16.2734	-12.20505	-10.57771	-12.20505	0
141	21.15542	-69.97562	-91.13104	24.4101	54.51589	-79.73966	-22.78276	-65.0936	-16.2734	-19.52808	-17.90074	-19.52808	0
142	26.03744	-69.97562	-96.01306	21.96909	59.39791	-82.18067	-25.22377	-67.53461	-16.2734	-17.08707	-15.45973	-17.08707	0
143	16.2734	-87.06269	-103.33609	34.17414	59.39791	-94.38572	-25.22377	-69.97562	-16.2734	-9.76404	-8.1367	-9.76404	0
144	-6.50936	-101.70875	-96.01306	53.70222	44.75185	-99.26774	-27.66478	-72.41663	-18.71441	-4.88202	-3.25468	-4.88202	0
145	-23.59643	-121.23683	-98.45407	70.78929	37.42882	-111.47279	-22.78276	-67.53461	-13.83239	0.81367	2.44101	0.81367	0
146	-18.71441	-111.47279	-93.57205	63.46626	37.42882	-104.14976	-17.90074	-62.65259	-8.95037	13.01872	14.64606	13.01872	0
147	-3.25468	-96.82673	-93.57205	48.8202	44.75185	-94.38572	-15.45973	-57.77057	-8.95037	17.90074	21.96909	17.90074	0
148	-6.50936	-104.14976	-98.45407	53.70222	44.75185	-101.70875	-17.90074	-60.21158	-13.83239	17.90074	21.96909	17.90074	0
149	-21.15542	-104.14976	-83.80801	61.02525	30.10579	-94.38572	-27.66478	-65.0936	-21.15542	15.45973	17.08707	15.45973	0
150	-16.2734	-104.14976	-88.69003	58.58424	34.98781	-96.82673	-30.10579	-67.53461	-21.15542	10.57771	12.20505	10.57771	0
151	13.83239	-79.73966	-93.57205	31.73313	52.07488	-87.06269	-27.66478	-62.65259	-13.83239	10.57771	12.20505	10.57771	0
152	33.36047	-69.97562	-103.33609	17.08707	66.72094	-87.06269	-30.10579	-62.65259	-13.83239	0.81367	2.44101	3.25468	0
153	30.91946	-72.41663	-103.33609	19.52808	66.72094	-87.06269	-32.5468	-62.65259	-11.39138	-4.88202	-3.25468	-2.44101	0
154	11.39138	-72.41663	-83.80801	29.29212	47.19286	-77.29865	-32.5468	-62.65259	-11.39138	-4.88202	-3.25468	-4.88202	0
155	8.95037	-79.73966	-88.69003	34.17414	47.19286	-84.62168	-27.66478	-57.77057	-4.06835	-12.20505	-10.57771	-12.20505	0
156	23.59643	-57.77057	-81.367	17.08707	52.07488	-69.97562	-22.78276	-52.88855	3.25468	-21.96909	-17.90074	-19.52808	0
157	33.36047	-33.36047	-66.72094	-0.81367	49.63387	-50.44754	-17.90074	-48.00653	3.25468	-24.4101	-22.78276	-21.96909	0
158	38.24249	-23.59643	-61.83892	-8.1367	49.63387	-43.12451	-15.45973	-48.00653	0.81367	-17.08707	-15.45973	-14.64606	0
159	40.6835	-8.1367	-49.63387	-15.45973	44.75185	-28.47845	-17.90074	-50.44754	-8.95037	-4.88202	-3.25468	-4.88202	0
160	50.44754	-13.83239	-64.27993	-17.90074	56.9569	-38.24249	-22.78276	-52.88855	-18.71441	5.69569	7.32303	8.1367	0
161	62.65259	-13.83239	-76.48498	-25.22377	69.16195	-45.56552	-27.66478	-52.88855	-23.59643	17.90074	17.08707	17.90074	0
162	74.85764	-13.83239	-88.69003	-30.10579	81.367	-50.44754	-27.66478	-52.88855	-23.59643	27.66478	29.29212	30.10579	0
163	74.85764	-23.59643	-98.45407	-25.22377	86.24902	-60.21158	-32.5468	-55.32956	-28.47845	42.31084	41.49717	42.31084	0
164	62.65259	-35.80148	-98.45407	-13.01872	78.92599	-67.53461	-37.42882	-57.77057	-33.36047	47.19286	48.8202	49.63387	0
165	48.00653	-55.32956	-103.33609	4.06835	74.04397	-79.73966	-32.5468	-52.88855	-26.03744	44.75185	46.37919	47.19286	0
166	40.6835	-52.88855	-93.57205	6.50936	66.72094	-72.41663	-32.5468	-50.44754	-23.59643	47.19286	48.8202	49.63387	0
167	26.03744	-52.88855	-78.92599	12.20505	52.07488	-65.0936	-34.98781	-52.88855	-28.47845	37.42882	39.05616	39.86983	0
168	8.95037	-65.0936	-74.04397	26.85111	39.86983	-69.97562	-42.31084	-60.21158	-35.80148	34.98781	39.05616	37.42882	0
169	4.06835	-52.88855	-56.9569	24.4101	30.10579	-55.32956	-44.75185	-62.65259	-38.24249	32.5468	34.17414	34.98781	0
170	13.83239	-45.56552	-59.39791	14.64606	34.98781	-52.88855	-37.42882	-57.77057	-33.36047	25.22377	24.4101	25.22377	0
171	28.47845	-30.91946	-59.39791	1.62734	42.31084	-45.56552	-32.5468	-52.88855	-28.47845	15.45973	17.08707	15.45973	0
172	38.24249	-21.15542	-59.39791	-8.1367	47.19286	-40.6835	-27.66478	-48.00653	-23.59643	8.1367	9.76404	10.57771	0
173	48.00653	-13.83239	-61.83892	-17.90074	54.51589	-38.24249	-20.34175	-40.6835	-16.2734	3.25468	4.88202	3.25468	0
174	74.85764	8.95037	-66.72094	-42.31084	71.60296	-28.47845	-5.69569	-26.03744	-4.06835	-2.44101	-0.81367	-2.44101	0
175	94.38572	18.71441	-76.48498	-56.9569	86.24902	-28.47845	6.50936	-8.95037	11.39138	-7.32303	-3.25468	-7.32303	0
176	91.94471	21.15542	-71.60296	-56.9569	81.367	-26.03744	9.76404	-4.06835	13.83239	-9.76404	-3.25468	-7.32303	0
177	84.62168	16.2734	-69.16195	-49.63387	76.48498	-26.03744	6.50936	-4.06835	8.95037	-4.88202	-3.25468	-4.88202	0
178	84.62168	-0.81367	-86.24902	-42.31084	86.24902	-43.12451	1.62734	-8.95037	3.25468	-4.88202	-3.25468	-4.88202	0
179	91.94471	6.50936	-86.24902	-49.63387	88.69003	-40.6835	-3.25468	-13.83239	-4.06835	-4.88202	-3.25468	-4.88202	0
180	87.06269	-0.81367	-88.69003	-42.31084	88.69003	-45.56552	-3.25468	-11.39138	-4.06835	-4.88202	-5.69569	-4.88202	0
181	69.97562	-21.15542	-91.13104	-25.22377	78.92599	-55.32956	-10.57771	-16.2734	-6.50936	-2.44101	-0.81367	-2.44101	0
182	69.97562	-26.03744	-96.01306	-22.78276	81.367	-60.21158	-13.01872	-16.2734	-8.95037	0.81367	-0.81367	3.25468	0
183	77.29865	-28.47845	-105.7771	-25.22377	91.13104	-67.53461	-8.1367	-11.39138	-1.62734	8.1367	7.32303	10.57771	0
184	82.18067	-18.71441	-100.89508	-32.5468	91.13104	-60.21158	-0.81367	-4.06835	6.50936	8.1367	7.32303	10.57771	0
185	87.06269	-16.2734	-103.33609	-34.98781	93.57205	-60.21158	6.50936	5.69569	21.15542	10.57771	9.76404	10.57771	0
186	96.82673	-8.1367	-105.7771	-44.75185	100.89508	-57.77057	6.50936	5.69569	21.15542	10.57771	9.76404	10.57771	0
187	106.59077	4.06835	-103.33609	-54.51589	105.7771	-50.44754	6.50936	5.69569	21.15542	3.25468	2.44101	3.25468	0
188	111.47279	8.95037	-103.33609	-59.39791	108.21811	-48.00653	9.76404	5.69569	21.15542	3.25468	2.44101	3.25468	0
189	111.47279	30.91946	-81.367	-71.60296	96.01306	-26.03744	6.50936	5.69569	16.2734	3.25468	-0.81367	3.25468	0
190	104.14976	30.91946	-74.04397	-66.72094	88.69003	-21.15542	4.06835	0.81367	13.83239	5.69569	4.88202	5.69569	0
191	82.18067	11.39138	-71.60296	-47.19286	76.48498	-30.91946	-3.25468	-6.50936	3.25468	10.57771	9.76404	10.57771	0
192	57.77057	-13.83239	-71.60296	-22.78276	64.27993	-43.12451	-10.57771	-13.83239	3.25468	13.01872	12.20505	15.45973	0
193	40.6835	-28.47845	-69.16195	-5.69569	54.51589	-48.00653	-15.45973	-13.83239	3.25468	20.34175	21.96909	22.78276	0
194	35.80148	-30.91946	-66.72094	-3.25468	49.63387	-48.00653	-20.34175	-16.2734	3.25468	27.66478	29.29212	30.10579	0
195	26.03744	-52.88855	-78.92599	12.20505	52.07488	-65.0936	-22.78276	-18.71441	3.25468	30.10579	31.73313	32.5468	0
196	8.95037	-79.73966	-88.69003	34.17414	47.19286	-84.62168	-30.10579	-26.03744	-1.62734	34.98781	36.61515	37.42882	0
197	-0.81367	-89.5037	-88.69003	43.93818	42.31084	-89.5037	-39.86983	-30.91946	-6.50936	27.66478	29.29212	30.10579	0
198	6.50936	-89.5037	-96.01306	41.49717	49.63387	-91.94471	-44.75185	-33.36047	-6.50936	32.5468	31.73313	32.5468	0
199	8.95037	-69.97562	-78.92599	29.29212	42.31084	-74.85764	-54.51589	-40.6835	-11.39138	42.31084	41.49717	44.75185	0
200	8.95037	-74.85764	-83.80801	31.73313	44.75185	-79.73966	-59.39791	-45.56552	-13.83239	47.19286	46.37919	49.63387	0
201	8.95037	-77.29865	-86.24902	34.17414	47.19286	-82.18067	-69.16195	-50.44754	-18.71441	56.9569	56.14323	59.39791	0
202	13.83239	-77.29865	-91.13104	31.73313	52.07488	-84.62168	-74.04397	-55.32956	-21.15542	56.9569	56.14323	59.39791	0
203	18.71441	-79.73966	-98.45407	29.29212	56.9569	-89.5037	-81.367	-60.21158	-23.59643	61.83892	61.02525	66.72094	0
204	28.47845	-82.18067	-110.65912	26.85111	69.16195	-96.82673	-86.24902	-62.65259	-26.03744	61.83892	61.02525	64.27993	0
205	43.12451	-87.06269	-130.1872	21.96909	86.24902	-109.03178	-83.80801	-57.77057	-21.15542	49.63387	51.26121	54.51589	0
206	48.00653	-87.06269	-135.06922	19.52808	91.13104	-111.47279	-83.80801	-57.77057	-21.15542	39.86983	39.05616	42.31084	0
207	43.12451	-82.18067	-125.30518	19.52808	83.80801	-104.14976	-83.80801	-55.32956	-21.15542	27.66478	24.4101	30.10579	0
208	30.91946	-87.06269	-117.98215	26.85111	74.04397	-101.70875	-81.367	-50.44754	-21.15542	13.01872	12.20505	15.45973	0
209	28.47845	-69.97562	-98.45407	19.52808	61.83892	-84.62168	-83.80801	-48.00653	-21.15542	8.1367	4.88202	10.57771	0
210	30.91946	-60.21158	-91.13104	14.64606	59.39791	-74.85764	-76.48498	-40.6835	-13.83239	3.25468	2.44101	8.1367	0
211	8.95037	-74.85764	-83.80801	31.73313	44.75185	-79.73966	-78.92599	-43.12451	-16.2734	10.57771	7.32303	13.01872	0
212	-28.47845	-104.14976	-76.48498	65.90727	22.78276	-91.94471	-83.80801	-48.00653	-26.03744	10.57771	7.32303	13.01872	0
213	-43.12451	-128.55986	-86.24902	85.43535	20.34175	-109.03178	-91.13104	-55.32956	-30.91946	5.69569	4.88202	8.1367	0
214	-40.6835	-145.64693	-105.7771	92.75838	32.5468	-126.11885	-100.89508	-62.65259	-38.24249	15.45973	14.64606	17.90074	0
215	-33.36047	-165.17501	-132.62821	97.6404	49.63387	-150.52895	-103.33609	-65.0936	-43.12451	10.57771	12.20505	13.01872	0
216	-45.56552	-184.70309	-139.95124	114.72747	47.19286	-162.734	-105.7771	-72.41663	-50.44754	10.57771	9.76404	10.57771	0
217	-48.00653	-179.82107	-132.62821	112.28646	42.31084	-157.85198	-105.7771	-72.41663	-50.44754	10.57771	9.76404	10.57771	0
218	-30.91946	-162.734	-132.62821	95.19939	49.63387	-148.08794	-98.45407	-62.65259	-43.12451	10.57771	9.76404	10.57771	0
219	-6.50936	-113.9138	-108.21811	58.58424	49.63387	-111.47279	-86.24902	-50.44754	-38.24249	15.45973	14.64606	17.90074	0
220	6.50936	-87.06269	-93.57205	39.05616	49.63387	-89.5037	-76.48498	-40.6835	-28.47845	8.1367	9.76404	10.57771	0
221	8.95037	-65.0936	-74.04397	26.85111	39.86983	-69.97562	-66.72094	-33.36047	-21.15542	5.69569	4.88202	8.1367	0
222	8.95037	-52.88855	-61.83892	21.96909	34.98781	-57.77057	-61.83892	-28.47845	-16.2734	8.1367	9.76404	10.57771	0
223	21.15542	-40.6835	-61.83892	8.95037	39.86983	-50.44754	-54.51589	-23.59643	-11.39138	13.01872	14.64606	15.45973	0
224	23.59643	-38.24249	-61.83892	6.50936	42.31084	-50.44754	-54.51589	-21.15542	-11.39138	10.57771	9.76404	13.01872	0
225	8.95037	-67.53461	-76.48498	29.29212	42.31084	-72.41663	-56.9569	-26.03744	-16.2734	3.25468	4.88202	5.69569	0
226	-3.25468	-91.94471	-88.69003	46.37919	42.31084	-89.5037	-66.72094	-33.36047	-23.59643	10.57771	12.20505	10.57771	0
227	-11.39138	-106.59077	-96.01306	58.58424	42.31084	-101.70875	-74.04397	-40.6835	-33.36047	10.57771	12.20505	13.01872	0
228	-13.83239	-121.23683	-108.21811	65.90727	47.19286	-116.35481	-81.367	-48.00653	-40.6835	13.01872	12.20505	13.01872	0
229	-11.39138	-113.9138	-103.33609	61.02525	44.75185	-109.03178	-88.69003	-50.44754	-48.00653	0.81367	-0.81367	3.25468	0
230	-16.2734	-123.67784	-108.21811	68.34828	44.75185	-116.35481	-88.69003	-50.44754	-50.44754	-7.32303	-5.69569	-4.88202	0
231	-6.50936	-109.03178	-103.33609	56.14323	47.19286	-106.59077	-86.24902	-43.12451	-48.00653	-9.76404	-10.57771	-9.76404	0
232	-0.81367	-94.38572	-93.57205	46.37919	44.75185	-94.38572	-81.367	-35.80148	-43.12451	-9.76404	-10.57771	-7.32303	0
233	-0.81367	-89.5037	-88.69003	43.93818	42.31084	-89.5037	-76.48498	-28.47845	-38.24249	-14.64606	-13.01872	-12.20505	0
234	-3.25468	-77.29865	-74.04397	39.05616	34.98781	-74.85764	-71.60296	-21.15542	-33.36047	-14.64606	-13.01872	-12.20505	0
235	-13.83239	-89.5037	-76.48498	51.26121	30.10579	-84.62168	-66.72094	-16.2734	-30.91946	-2.44101	-0.81367	0.81367	0
236	-16.2734	-87.06269	-71.60296	51.26121	27.66478	-79.73966	-64.27993	-13.83239	-28.47845	10.57771	12.20505	13.01872	0
237	-11.39138	-84.62168	-74.04397	46.37919	30.10579	-79.73966	-69.16195	-18.71441	-33.36047	20.34175	21.96909	25.22377	0
238	-8.95037	-94.38572	-86.24902	51.26121	37.42882	-91.94471	-78.92599	-28.47845	-43.12451	32.5468	31.73313	34.98781	0
239	-6.50936	-87.06269	-81.367	46.37919	37.42882	-84.62168	-83.80801	-33.36047	-52.88855	37.42882	39.05616	42.31084	0
240	-13.83239	-99.26774	-86.24902	56.14323	34.98781	-94.38572	-88.69003	-38.24249	-52.88855	47.19286	46.37919	49.63387	0
241	-16.2734	-104.14976	-88.69003	58.58424	34.98781	-96.82673	-91.13104	-38.24249	-48.00653	47.19286	48.8202	49.63387	0
242	-6.50936	-91.94471	-86.24902	48.8202	39.86983	-89.5037	-88.69003	-33.36047	-43.12451	37.42882	39.05616	39.86983	0
243	-3.25468	-89.5037	-86.24902	46.37919	39.86983	-87.06269	-86.24902	-30.91946	-38.24249	42.31084	41.49717	44.75185	0
244	6.50936	-72.41663	-78.92599	31.73313	42.31084	-74.85764	-78.92599	-23.59643	-30.91946	42.31084	41.49717	44.75185	0
245	6.50936	-74.85764	-81.367	34.17414	42.31084	-77.29865	-76.48498	-18.71441	-26.03744	37.42882	39.05616	39.86983	0
246	13.83239	-67.53461	-81.367	26.85111	47.19286	-74.85764	-76.48498	-18.71441	-26.03744	32.5468	34.17414	34.98781	0
247	28.47845	-48.00653	-76.48498	8.95037	52.07488	-62.65259	-78.92599	-21.15542	-33.36047	25.22377	26.85111	27.66478	0
248	40.6835	-38.24249	-78.92599	-0.81367	59.39791	-57.77057	-78.92599	-28.47845	-43.12451	17.90074	17.08707	20.34175	0
249	62.65259	-13.83239	-76.48498	-25.22377	69.16195	-45.56552	-78.92599	-35.80148	-57.77057	15.45973	14.64606	20.34175	0
250	69.97562	-16.2734	-86.24902	-27.66478	76.48498	-50.44754	-83.80801	-48.00653	-77.29865	8.1367	4.88202	8.1367	0
251	87.06269	-26.03744	-113.10013	-30.10579	98.45407	-69.97562	-86.24902	-62.65259	-101.70875	-2.44101	-3.25468	-2.44101	0
252	126.11885	-21.15542	-147.27427	-52.07488	135.06922	-84.62168	-86.24902	-74.85764	-126.11885	-14.64606	-15.45973	-12.20505	0
253	162.734	-23.59643	-186.33043	-69.16195	174.12538	-104.14976	-83.80801	-91.94471	-155.41097	-17.08707	-17.90074	-14.64606	0
254	192.02612	-28.47845	-220.50457	-81.367	205.85851	-123.67784	-81.367	-106.59077	-187.1441	-24.4101	-22.78276	-19.52808	0
255	245.72834	-30.91946	-276.6478	-108.21811	259.56073	-152.96996	-69.16195	-113.9138	-211.5542	-29.29212	-25.22377	-24.4101	0
256	321.39965	-3.25468	-325.468	-159.47932	323.02699	-165.17501	-47.19286	-113.9138	-228.64127	-39.05616	-37.42882	-36.61515	0
257	414.15803	62.65259	-352.31911	-237.59164	384.05224	-145.64693	-15.45973	-101.70875	-238.40531	-41.49717	-39.86983	-39.05616	0
258	494.71136	133.44188	-362.08315	-313.26295	427.99042	-113.9138	26.85111	-82.18067	-238.40531	-36.61515	-34.98781	-34.17414	0
259	582.58772	235.9643	-347.43709	-408.46234	464.60557	-55.32956	80.55333	-45.56552	-223.75925	-36.61515	-37.42882	-34.17414	0
260	672.90509	338.48672	-335.23204	-506.10274	503.66173	1.62734	148.90161	5.69569	-189.58511	-34.17414	-34.98781	-29.29212	0
261	743.69438	448.33217	-296.17588	-596.42011	520.7488	77.29865	222.13191	69.97562	-140.76491	-17.08707	-17.90074	-14.64606	0
262	755.89943	524.00348	-232.70962	-640.35829	493.89769	145.64693	288.03918	133.44188	-87.06269	-4.88202	-5.69569	-2.44101	0
263	704.63822	550.85459	-154.5973	-628.15324	430.43143	199.34915	336.85938	187.1441	-28.47845	10.57771	7.32303	13.01872	0
264	624.08489	560.61863	-64.27993	-591.53809	344.99608	248.16935	373.47453	240.84632	35.80148	17.90074	19.52808	22.78276	0
265	519.12146	536.20853	17.08707	-528.07183	252.2377	277.46147	390.5616	287.22551	101.70875	25.22377	26.85111	27.66478	0
266	397.07096	509.35742	112.28646	-452.40052	142.39225	311.63561	393.00261	323.84066	162.734	32.5468	31.73313	32.5468	0
267	265.25642	475.18328	209.92686	-369.40618	27.66478	343.36874	378.35655	345.80975	211.5542	25.22377	24.4101	25.22377	0
268	145.64693	423.92207	278.27514	-283.97083	-65.90727	350.69177	351.50544	355.57379	250.61036	17.90074	17.08707	17.90074	0
269	62.65259	406.835	344.18241	-235.15063	-141.57858	375.10187	319.77231	355.57379	272.57945	15.45973	14.64606	15.45973	0
270	21.15542	397.07096	375.91554	-208.29952	-178.19373	387.30692	292.9212	355.57379	292.10753	8.1367	4.88202	5.69569	0
271	-6.50936	384.86591	390.5616	-188.77144	-197.72181	387.30692	266.07009	345.80975	296.98955	-2.44101	-3.25468	-2.44101	0
272	-28.47845	365.33783	393.00261	-169.24336	-209.92686	377.54288	241.65999	333.6047	294.54854	-9.76404	-10.57771	-9.76404	0
273	-28.47845	350.69177	378.35655	-161.92033	-202.60383	362.89682	222.13191	318.95864	292.10753	-9.76404	-10.57771	-9.76404	0
274	-26.03744	336.04571	361.26948	-154.5973	-192.83979	348.25076	197.72181	299.43056	279.90248	-9.76404	-10.57771	-9.76404	0
275	-28.47845	306.75359	334.41837	-139.95124	-180.63474	318.95864	180.63474	279.90248	272.57945	-7.32303	-5.69569	-4.88202	0
276	-50.44754	267.69743	317.3313	-108.21811	-183.07575	292.10753	158.66565	257.93339	255.49238	-12.20505	-10.57771	-12.20505	0
277	-72.41663	233.52329	305.12625	-81.367	-187.95777	267.69743	136.69656	233.52329	233.52329	-2.44101	-3.25468	-2.44101	0
278	-57.77057	218.87723	275.83413	-81.367	-165.98868	245.72834	122.0505	216.43622	218.87723	-2.44101	-0.81367	-2.44101	0
279	-38.24249	216.43622	253.86504	-88.69003	-146.4606	233.52329	100.08141	192.02612	192.02612	8.1367	9.76404	8.1367	0
280	-28.47845	179.82107	207.48585	-76.48498	-117.16848	192.02612	78.11232	165.17501	165.17501	13.01872	14.64606	13.01872	0
281	-18.71441	148.08794	165.98868	-64.27993	-92.75838	155.41097	56.14323	140.76491	140.76491	17.90074	19.52808	17.90074	0
282	-8.95037	121.23683	129.37353	-56.9569	-68.34828	123.67784	36.61515	118.79582	116.35481	25.22377	24.4101	25.22377	0
283	13.83239	101.70875	87.87636	-56.9569	-36.61515	94.38572	24.4101	101.70875	99.26774	25.22377	26.85111	25.22377	0
284	16.2734	77.29865	61.02525	-47.19286	-21.96909	69.97562	6.50936	84.62168	82.18067	15.45973	17.08707	15.45973	0
285	-3.25468	23.59643	26.85111	-10.57771	-14.64606	26.03744	-8.1367	62.65259	65.0936	17.90074	19.52808	20.34175	0
286	-21.15542	-13.83239	7.32303	17.08707	-14.64606	-3.25468	-25.22377	43.12451	50.44754	20.34175	21.96909	22.78276	0
287	-43.12451	-33.36047	9.76404	36.61515	-26.85111	-13.83239	-34.98781	26.03744	35.80148	10.57771	12.20505	13.01872	0
288	-52.88855	-45.56552	7.32303	48.8202	-31.73313	-21.15542	-42.31084	13.83239	23.59643	5.69569	7.32303	5.69569	0
289	-62.65259	-40.6835	21.96909	51.26121	-43.93818	-11.39138	-52.07488	0.81367	6.50936	0.81367	2.44101	3.25468	0
290	-62.65259	-52.88855	9.76404	56.14323	-36.61515	-23.59643	-54.51589	-6.50936	-1.62734	8.1367	9.76404	10.57771	0
291	-57.77057	-52.88855	4.88202	53.70222	-31.73313	-26.03744	-52.07488	-11.39138	-6.50936	10.57771	9.76404	10.57771	0
292	-62.65259	-50.44754	12.20505	56.14323	-39.05616	-21.15542	-52.07488	-13.83239	-8.95037	3.25468	2.44101	5.69569	0
293	-72.41663	-60.21158	12.20505	65.90727	-43.93818	-26.03744	-49.63387	-16.2734	-8.95037	-7.32303	-8.1367	-7.32303	0
294	-72.41663	-69.97562	2.44101	70.78929	-39.05616	-35.80148	-49.63387	-18.71441	-8.95037	-7.32303	-8.1367	-7.32303	0
295	-67.53461	-82.18067	-15.45973	73.2303	-26.85111	-50.44754	-52.07488	-21.15542	-6.50936	-12.20505	-10.57771	-12.20505	0
296	-67.53461	-82.18067	-15.45973	73.2303	-26.85111	-50.44754	-52.07488	-23.59643	-4.06835	-17.08707	-15.45973	-17.08707	0
297	-69.97562	-69.97562	0	68.34828	-36.61515	-35.80148	-54.51589	-26.03744	-8.95037	-24.4101	-25.22377	-24.4101	0
298	-74.85764	-72.41663	2.44101	73.2303	-39.05616	-35.80148	-54.51589	-30.91946	-13.83239	-24.4101	-25.22377	-24.4101	0
299	-57.77057	-48.00653	9.76404	51.26121	-34.17414	-21.15542	-56.9569	-33.36047	-18.71441	-19.52808	-22.78276	-19.52808	0
300	-48.00653	-38.24249	9.76404	41.49717	-29.29212	-16.2734	-54.51589	-33.36047	-21.15542	-14.64606	-15.45973	-12.20505	0
301	-60.21158	-45.56552	14.64606	51.26121	-39.05616	-16.2734	-54.51589	-35.80148	-26.03744	0.81367	-0.81367	0.81367	0
302	-77.29865	-60.21158	17.08707	68.34828	-48.8202	-23.59643	-59.39791	-40.6835	-30.91946	13.01872	12.20505	13.01872	0
303	-82.18067	-67.53461	14.64606	73.2303	-48.8202	-28.47845	-59.39791	-43.12451	-26.03744	10.57771	12.20505	13.01872	0
304	-72.41663	-60.21158	12.20505	65.90727	-43.93818	-26.03744	-56.9569	-40.6835	-21.15542	13.01872	14.64606	15.45973	0
305	-62.65259	-60.21158	2.44101	61.02525	-34.17414	-30.91946	-54.51589	-38.24249	-16.2734	15.45973	17.08707	17.90074	0
306	-57.77057	-57.77057	0	56.14323	-29.29212	-30.91946	-54.51589	-38.24249	-13.83239	20.34175	21.96909	20.34175	1500	QRS+0
307	-40.6835	-35.80148	4.88202	36.61515	-24.4101	-16.2734	-47.19286	-35.80148	-8.95037	10.57771	12.20505	13.01872	0
308	-16.2734	-13.83239	2.44101	14.64606	-9.76404	-5.69569	-34.98781	-23.59643	3.25468	3.25468	4.88202	5.69569	0
309	-8.95037	13.83239	21.96909	-3.25468	-14.64606	16.2734	-27.66478	-18.71441	3.25468	3.25468	4.88202	5.69569	0
310	-21.15542	4.06835	24.4101	8.95037	-21.96909	13.83239	-27.66478	-18.71441	3.25468	5.69569	7.32303	8.1367	0
311	-30.91946	-5.69569	24.4101	17.08707	-26.85111	8.95037	-27.66478	-18.71441	-1.62734	-2.44101	-0.81367	-2.44101	0
312	-40.6835	-13.83239	26.85111	26.85111	-34.17414	6.50936	-30.10579	-18.71441	-6.50936	-9.76404	-8.1367	-7.32303	0
313	-62.65259	-28.47845	34.17414	43.93818	-48.8202	1.62734	-32.5468	-21.15542	-11.39138	-9.76404	-8.1367	-7.32303	0
314	-84.62168	-45.56552	39.05616	63.46626	-63.46626	-3.25468	-39.86983	-26.03744	-16.2734	-12.20505	-10.57771	-12.20505	0
315	-99.26774	-69.97562	29.29212	82.99434	-65.90727	-21.15542	-44.75185	-30.91946	-21.15542	-12.20505	-8.1367	-12.20505	0
316	-89.5037	-72.41663	17.08707	80.55333	-53.70222	-28.47845	-47.19286	-30.91946	-21.15542	-12.20505	-8.1367	-12.20505	0
317	-77.29865	-55.32956	21.96909	65.90727	-51.26121	-18.71441	-44.75185	-28.47845	-18.71441	-4.88202	-3.25468	-4.88202	0
318	-65.0936	-40.6835	24.4101	51.26121	-46.37919	-8.1367	-42.31084	-28.47845	-18.71441	-2.44101	-0.81367	-2.44101	0
319	-38.24249	-10.57771	26.85111	24.4101	-31.73313	6.50936	-42.31084	-28.47845	-26.03744	-2.44101	-0.81367	-2.44101	0
320	-16.2734	4.06835	19.52808	6.50936	-17.08707	11.39138	-37.42882	-23.59643	-23.59643	-7.32303	-8.1367	-7.32303	0
321	-6.50936	18.71441	24.4101	-5.69569	-14.64606	21.15542	-32.5468	-18.71441	-16.2734	-14.64606	-15.45973	-14.64606	0
322	-6.50936	35.80148	41.49717	-15.45973	-24.4101	38.24249	-22.78276	-8.95037	-6.50936	-19.52808	-20.34175	-21.96909	0
323	-16.2734	35.80148	51.26121	-10.57771	-34.17414	43.12451	-15.45973	-4.06835	-1.62734	-26.85111	-25.22377	-26.85111	0
324	-35.80148	18.71441	53.70222	8.95037	-43.93818	35.80148	-17.90074	-4.06835	-1.62734	-39.05616	-37.42882	-39.05616	0
325	-72.41663	-18.71441	53.70222	43.93818	-63.46626	16.2734	-20.34175	-6.50936	-1.62734	-51.26121	-49.63387	-51.26121	0
326	-101.70875	-48.00653	53.70222	73.2303	-78.11232	1.62734	-20.34175	-6.50936	0.81367	-63.46626	-61.83892	-63.46626	0
327	-101.70875	-40.6835	61.02525	70.78929	-82.99434	8.95037	-20.34175	-6.50936	0.81367	-70.78929	-69.16195	-68.34828	0
328	-87.06269	-38.24249	48.8202	61.02525	-68.34828	4.06835	-22.78276	-11.39138	-1.62734	-78.11232	-76.48498	-75.67131	0
329	-82.18067	-33.36047	48.8202	56.14323	-65.90727	6.50936	-34.98781	-23.59643	-16.2734	-80.55333	-81.367	-78.11232	0
330	-74.85764	-30.91946	43.93818	51.26121	-61.02525	6.50936	-39.86983	-26.03744	-21.15542	-80.55333	-81.367	-80.55333	0
331	-55.32956	-13.83239	41.49717	34.17414	-48.8202	13.83239	-34.98781	-26.03744	-16.2734	-73.2303	-74.04397	-70.78929	0
332	-40.6835	6.50936	46.37919	17.08707	-43.93818	26.03744	-30.10579	-23.59643	-13.83239	-65.90727	-66.72094	-65.90727	0
333	-45.56552	1.62734	46.37919	21.96909	-46.37919	23.59643	-32.5468	-26.03744	-16.2734	-65.90727	-64.27993	-63.46626	0
334	-57.77057	-8.1367	48.8202	31.73313	-53.70222	18.71441	-32.5468	-28.47845	-18.71441	-68.34828	-66.72094	-65.90727	0
335	-67.53461	-18.71441	48.8202	41.49717	-58.58424	13.83239	-27.66478	-23.59643	-16.2734	-63.46626	-61.83892	-63.46626	0
336	-72.41663	-21.15542	51.26121	46.37919	-63.46626	13.83239	-22.78276	-21.15542	-11.39138	-65.90727	-64.27993	-63.46626	0
337	-82.18067	-18.71441	63.46626	48.8202	-73.2303	21.15542	-22.78276	-21.15542	-8.95037	-68.34828	-66.72094	-65.90727	0
338	-87.06269	-21.15542	65.90727	53.70222	-78.11232	21.15542	-22.78276	-18.71441	-6.50936	-65.90727	-64.27993	-65.90727	0
339	-74.85764	8.95037	82.99434	31.73313	-78.11232	45.56552	-15.45973	-13.83239	-1.62734	-53.70222	-54.51589	-53.70222	0
340	-57.77057	30.91946	87.87636	12.20505	-73.2303	57.77057	-8.1367	-6.50936	6.50936	-41.49717	-42.31084	-41.49717	0
341	-43.12451	45.56552	87.87636	-0.81367	-65.90727	65.0936	-5.69569	0.81367	13.83239	-31.73313	-32.5468	-31.73313	0
342	-30.91946	57.77057	87.87636	-13.01872	-58.58424	72.41663	-3.25468	3.25468	18.71441	-24.4101	-25.22377	-24.4101	0
343	-21.15542	67.53461	87.87636	-22.78276	-53.70222	77.29865	1.62734	5.69569	23.59643	-12.20505	-10.57771	-12.20505	0
344	-23.59643	69.97562	92.75838	-22.78276	-58.58424	79.73966	1.62734	5.69569	26.03744	-2.44101	-0.81367	-2.44101	0
345	-30.91946	60.21158	90.31737	-15.45973	-61.02525	74.85764	6.50936	8.95037	28.47845	-2.44101	2.44101	0.81367	0
346	-48.00653	45.56552	92.75838	1.62734	-70.78929	67.53461	4.06835	5.69569	28.47845	-2.44101	2.44101	-2.44101	0
347	-57.77057	43.12451	100.08141	6.50936	-78.11232	69.97562	-3.25468	3.25468	23.59643	0.81367	2.44101	0.81367	0
348	-67.53461	38.24249	104.96343	14.64606	-85.43535	69.97562	-8.1367	0.81367	21.15542	15.45973	14.64606	15.45973	0
349	-82.18067	43.12451	124.49151	19.52808	-102.52242	82.18067	-15.45973	-6.50936	18.71441	22.78276	21.96909	22.78276	0
350	-87.06269	43.12451	129.37353	21.96909	-107.40444	84.62168	-17.90074	-6.50936	23.59643	22.78276	19.52808	20.34175	0
351	-74.85764	55.32956	129.37353	8.95037	-102.52242	91.94471	-22.78276	-6.50936	23.59643	13.01872	12.20505	13.01872	0
352	-67.53461	62.65259	129.37353	1.62734	-97.6404	94.38572	-25.22377	-8.95037	26.03744	15.45973	14.64606	15.45973	0
353	-67.53461	62.65259	129.37353	1.62734	-97.6404	94.38572	-25.22377	-8.95037	28.47845	5.69569	4.88202	5.69569	0
354	-77.29865	60.21158	136.69656	8.95037	-107.40444	96.82673	-20.34175	-6.50936	28.47845	-2.44101	-3.25468	-2.44101	0
355	-77.29865	57.77057	134.25555	8.95037	-104.96343	94.38572	-13.01872	-1.62734	30.91946	-17.08707	-15.45973	-17.08707	0
356	-79.73966	50.44754	129.37353	14.64606	-104.96343	89.5037	-10.57771	0.81367	28.47845	-31.73313	-30.10579	-31.73313	0
357	-94.38572	45.56552	139.13757	24.4101	-117.16848	91.94471	-10.57771	-1.62734	23.59643	-31.73313	-32.5468	-34.17414	0
358	-106.59077	33.36047	139.13757	36.61515	-122.0505	84.62168	-10.57771	-1.62734	21.15542	-36.61515	-34.98781	-36.61515	0
359	-113.9138	40.6835	153.78363	36.61515	-134.25555	96.82673	-15.45973	-4.06835	13.83239	-43.93818	-42.31084	-43.93818	0
360	-106.59077	43.12451	148.90161	31.73313	-126.93252	94.38572	-15.45973	-4.06835	11.39138	-48.8202	-49.63387	-48.8202	0
361	-96.82673	52.88855	148.90161	21.96909	-122.0505	99.26774	-15.45973	-1.62734	13.83239	-56.14323	-56.9569	-56.14323	0
362	-82.18067	69.97562	151.34262	6.50936	-117.16848	109.03178	-13.01872	3.25468	18.71441	-53.70222	-54.51589	-53.70222	0
363	-62.65259	84.62168	146.4606	-10.57771	-104.96343	113.9138	-8.1367	5.69569	26.03744	-41.49717	-44.75185	-41.49717	0
364	-62.65259	87.06269	148.90161	-13.01872	-104.96343	116.35481	-8.1367	8.95037	28.47845	-31.73313	-32.5468	-31.73313	0
365	-57.77057	91.94471	148.90161	-17.90074	-102.52242	118.79582	-3.25468	13.83239	38.24249	-14.64606	-15.45973	-17.08707	0
366	-60.21158	99.26774	158.66565	-20.34175	-109.84545	128.55986	4.06835	21.15542	48.00653	3.25468	4.88202	3.25468	0
367	-60.21158	121.23683	180.63474	-30.10579	-119.60949	150.52895	9.76404	26.03744	55.32956	20.34175	21.96909	20.34175	0
368	-65.0936	123.67784	187.95777	-30.10579	-126.93252	155.41097	9.76404	28.47845	55.32956	37.42882	36.61515	34.98781	0
369	-69.97562	138.3239	207.48585	-34.98781	-139.13757	172.49804	6.50936	26.03744	52.88855	44.75185	43.93818	42.31084	0
370	-72.41663	140.76491	212.36787	-34.98781	-141.57858	174.93905	6.50936	23.59643	52.88855	44.75185	43.93818	44.75185	0
371	-62.65259	160.29299	222.13191	-49.63387	-141.57858	189.58511	6.50936	28.47845	57.77057	34.98781	34.17414	34.98781	0
372	-55.32956	172.49804	227.01393	-59.39791	-141.57858	199.34915	9.76404	28.47845	57.77057	30.10579	29.29212	30.10579	0
373	-50.44754	162.734	212.36787	-56.9569	-131.81454	187.1441	6.50936	21.15542	55.32956	22.78276	21.96909	22.78276	0
374	-57.77057	150.52895	207.48585	-47.19286	-131.81454	177.38006	1.62734	16.2734	50.44754	22.78276	21.96909	22.78276	0
375	-77.29865	128.55986	205.04484	-25.22377	-141.57858	165.17501	1.62734	13.83239	48.00653	13.01872	12.20505	13.01872	0
376	-87.06269	123.67784	209.92686	-17.90074	-148.90161	165.17501	6.50936	18.71441	52.88855	20.34175	19.52808	17.90074	0
377	-79.73966	148.08794	227.01393	-34.98781	-153.78363	187.1441	14.64606	26.03744	57.77057	22.78276	24.4101	22.78276	0
378	-74.85764	152.96996	227.01393	-39.86983	-151.34262	189.58511	17.08707	30.91946	62.65259	27.66478	26.85111	27.66478	0
379	-89.5037	160.29299	248.98302	-34.98781	-168.42969	204.23117	17.08707	30.91946	60.21158	39.86983	36.61515	37.42882	0
380	-94.38572	170.05703	263.62908	-37.42882	-178.19373	216.43622	26.85111	40.6835	67.53461	49.63387	46.37919	47.19286	0
381	-79.73966	184.70309	263.62908	-52.07488	-170.8707	223.75925	31.73313	45.56552	74.85764	54.51589	51.26121	52.07488	0
382	-69.97562	196.90814	266.07009	-64.27993	-168.42969	231.08228	34.17414	48.00653	77.29865	56.9569	53.70222	54.51589	0
383	-60.21158	196.90814	256.30605	-69.16195	-158.66565	226.20026	36.61515	48.00653	79.73966	47.19286	43.93818	47.19286	0
384	-62.65259	182.26208	244.101	-59.39791	-153.78363	211.5542	31.73313	43.12451	72.41663	44.75185	43.93818	44.75185	0
385	-50.44754	182.26208	231.89595	-66.72094	-141.57858	206.67218	34.17414	43.12451	72.41663	39.86983	36.61515	37.42882	0
386	-33.36047	189.58511	222.13191	-78.92599	-126.93252	204.23117	36.61515	43.12451	74.85764	34.98781	34.17414	34.98781	0
387	-30.91946	199.34915	229.45494	-83.80801	-129.37353	213.99521	39.05616	45.56552	79.73966	37.42882	36.61515	34.98781	0
388	-30.91946	201.79016	231.89595	-86.24902	-131.81454	216.43622	41.49717	48.00653	84.62168	42.31084	41.49717	39.86983	0
389	-33.36047	216.43622	248.98302	-91.13104	-141.57858	231.08228	41.49717	48.00653	84.62168	34.98781	34.17414	34.98781	0
390	-38.24249	218.87723	256.30605	-91.13104	-146.4606	235.9643	43.93818	50.44754	84.62168	34.98781	34.17414	32.5468	-1500	QRS-0
391	-38.24249	223.75925	261.18807	-93.57205	-148.90161	240.84632	48.8202	55.32956	89.5037	32.5468	29.29212	30.10579	0
392	-52.88855	213.99521	266.07009	-81.367	-158.66565	238.40531	51.26121	55.32956	87.06269	22.78276	19.52808	20.34175	0
393	-57.77057	206.67218	263.62908	-74.04397	-161.10666	233.52329	51.26121	52.88855	82.18067	13.01872	9.76404	10.57771	0
394	-55.32956	196.90814	251.42403	-71.60296	-153.78363	223.75925	53.70222	52.88855	74.85764	0.81367	-0.81367	-2.44101	0
395	-48.00653	194.46713	241.65999	-74.04397	-144.01959	216.43622	56.14323	50.44754	72.41663	-7.32303	-8.1367	-9.76404	0
396	-45.56552	187.1441	231.89595	-71.60296	-139.13757	209.11319	56.14323	48.00653	69.97562	-2.44101	-3.25468	-2.44101	0
397	-48.00653	187.1441	234.33696	-69.16195	-141.57858	209.11319	53.70222	43.12451	67.53461	0.81367	-0.81367	-2.44101	0
398	-45.56552	182.26208	227.01393	-69.16195	-136.69656	204.23117	53.70222	43.12451	65.0936	-2.44101	-0.81367	-2.44101	0
399	-45.56552	187.1441	231.89595	-71.60296	-139.13757	209.11319	48.8202	38.24249	62.65259	0.81367	-0.81367	0.81367	0
400	-48.00653	177.38006	224.57292	-64.27993	-136.69656	199.34915	43.93818	38.24249	65.0936	0.81367	-0.81367	0.81367	0
401	-40.6835	174.93905	214.80888	-66.72094	-126.93252	194.46713	41.49717	35.80148	65.0936	0.81367	-0.81367	0.81367	0
402	-33.36047	172.49804	205.04484	-69.16195	-119.60949	187.1441	41.49717	35.80148	67.53461	-2.44101	-3.25468	-2.44101	0
403	-33.36047	160.29299	192.83979	-64.27993	-112.28646	174.93905	41.49717	33.36047	69.97562	-2.44101	-3.25468	-2.44101	0
404	-30.91946	152.96996	183.07575	-61.83892	-107.40444	167.61602	41.49717	33.36047	69.97562	-2.44101	-3.25468	-4.88202	0
405	-21.15542	155.41097	175.75272	-66.72094	-97.6404	165.17501	48.8202	38.24249	74.85764	-2.44101	-3.25468	-4.88202	0
406	-11.39138	152.96996	163.54767	-71.60296	-87.87636	157.85198	53.70222	40.6835	74.85764	-7.32303	-8.1367	-7.32303	0
407	-18.71441	145.64693	163.54767	-64.27993	-90.31737	152.96996	51.26121	38.24249	67.53461	-7.32303	-8.1367	-7.32303	0
408	-40.6835	111.47279	151.34262	-34.98781	-95.19939	131.00087	46.37919	33.36047	60.21158	-7.32303	-8.1367	-9.76404	0
409	-45.56552	111.47279	156.22464	-32.5468	-100.08141	133.44188	43.93818	30.91946	52.88855	-12.20505	-13.01872	-12.20505	0
410	-40.6835	104.14976	144.01959	-32.5468	-92.75838	123.67784	41.49717	28.47845	50.44754	-21.96909	-22.78276	-21.96909	0
411	-40.6835	84.62168	124.49151	-22.78276	-82.99434	104.14976	31.73313	18.71441	40.6835	-26.85111	-27.66478	-26.85111	0
412	-21.15542	79.73966	100.08141	-30.10579	-61.02525	89.5037	26.85111	11.39138	35.80148	-29.29212	-30.10579	-29.29212	0
413	-6.50936	69.97562	75.67131	-32.5468	-41.49717	72.41663	21.96909	5.69569	33.36047	-31.73313	-34.98781	-34.17414	0
414	-3.25468	55.32956	58.58424	-25.22377	-31.73313	57.77057	17.08707	0.81367	23.59643	-31.73313	-32.5468	-31.73313	0
415	4.06835	43.12451	39.05616	-22.78276	-17.08707	40.6835	12.20505	-6.50936	16.2734	-26.85111	-30.10579	-29.29212	0
416	16.2734	35.80148	19.52808	-25.22377	-2.44101	28.47845	12.20505	-6.50936	16.2734	-26.85111	-27.66478	-26.85111	0
417	28.47845	45.56552	17.08707	-37.42882	5.69569	30.91946	12.20505	-4.06835	16.2734	-14.64606	-17.90074	-17.08707	0
418	33.36047	40.6835	7.32303	-37.42882	13.01872	23.59643	14.64606	-4.06835	16.2734	-2.44101	-3.25468	-2.44101	0
419	26.03744	38.24249	12.20505	-32.5468	8.1367	26.03744	6.50936	-11.39138	8.95037	10.57771	7.32303	8.1367	0
420	35.80148	43.12451	7.32303	-39.86983	15.45973	26.03744	9.76404	-8.95037	11.39138	25.22377	21.96909	22.78276	0
421	52.88855	50.44754	-2.44101	-52.07488	27.66478	23.59643	12.20505	-6.50936	13.83239	34.98781	31.73313	32.5468	0
422	60.21158	48.00653	-13.01872	-54.51589	37.42882	18.71441	9.76404	-6.50936	11.39138	39.86983	36.61515	37.42882	0
423	45.56552	30.91946	-15.45973	-37.42882	30.10579	8.95037	6.50936	-13.83239	3.25468	44.75185	39.05616	42.31084	0
424	18.71441	4.06835	-15.45973	-10.57771	17.90074	-5.69569	4.06835	-18.71441	-1.62734	39.86983	36.61515	37.42882	0
425	6.50936	-13.83239	-20.34175	4.06835	13.01872	-16.2734	1.62734	-21.15542	-1.62734	34.98781	31.73313	32.5468	0
426	8.95037	-26.03744	-34.98781	8.95037	20.34175	-30.91946	4.06835	-21.15542	0.81367	32.5468	29.29212	30.10579	0
427	8.95037	-21.15542	-30.10579	6.50936	17.90074	-26.03744	4.06835	-21.15542	3.25468	30.10579	26.85111	27.66478	0
428	6.50936	-21.15542	-27.66478	6.50936	15.45973	-23.59643	4.06835	-21.15542	3.25468	25.22377	24.4101	22.78276	0
429	1.62734	-13.83239	-15.45973	6.50936	8.1367	-13.83239	1.62734	-23.59643	3.25468	22.78276	19.52808	17.90074	0
430	4.06835	-23.59643	-27.66478	8.95037	15.45973	-26.03744	-0.81367	-26.03744	3.25468	10.57771	7.32303	8.1367	0
431	4.06835	-28.47845	-32.5468	12.20505	17.90074	-30.91946	-5.69569	-30.91946	-1.62734	5.69569	2.44101	3.25468	0
432	-3.25468	-38.24249	-34.98781	19.52808	15.45973	-35.80148	-10.57771	-33.36047	-4.06835	0.81367	-0.81367	-2.44101	0
433	1.62734	-43.12451	-44.75185	19.52808	22.78276	-43.12451	-13.01872	-38.24249	-6.50936	-9.76404	-13.01872	-12.20505	0
434	1.62734	-50.44754	-52.07488	24.4101	25.22377	-50.44754	-17.90074	-38.24249	-11.39138	-14.64606	-17.90074	-17.08707	0
435	-13.83239	-74.85764	-61.83892	43.93818	22.78276	-69.97562	-20.34175	-43.12451	-16.2734	-17.08707	-20.34175	-19.52808	0
436	-18.71441	-84.62168	-66.72094	51.26121	22.78276	-77.29865	-20.34175	-40.6835	-16.2734	-9.76404	-10.57771	-9.76404	0
437	6.50936	-57.77057	-64.27993	24.4101	34.98781	-60.21158	-15.45973	-35.80148	-8.95037	-7.32303	-8.1367	-7.32303	0
438	28.47845	-38.24249	-66.72094	4.06835	47.19286	-52.88855	-10.57771	-28.47845	-1.62734	-7.32303	-10.57771	-9.76404	0
439	26.03744	-28.47845	-54.51589	1.62734	39.86983	-40.6835	-13.01872	-30.91946	-4.06835	0.81367	-0.81367	0.81367	0
440	16.2734	-35.80148	-52.07488	8.95037	32.5468	-43.12451	-15.45973	-33.36047	-1.62734	0.81367	-0.81367	-2.44101	0
441	13.83239	-40.6835	-54.51589	12.20505	32.5468	-48.00653	-17.90074	-33.36047	0.81367	0.81367	-0.81367	-2.44101	0
442	13.83239	-40.6835	-54.51589	12.20505	32.5468	-48.00653	-17.90074	-35.80148	0.81367	-9.76404	-13.01872	-12.20505	0
443	13.83239	-45.56552	-59.39791	14.64606	34.98781	-52.88855	-22.78276	-40.6835	-4.06835	-14.64606	-17.90074	-17.08707	0
444	1.62734	-65.0936	-66.72094	31.73313	32.5468	-65.0936	-27.66478	-45.56552	-8.95037	-17.08707	-20.34175	-19.52808	0
445	-11.39138	-87.06269	-76.48498	48.8202	32.5468	-82.18067	-32.5468	-50.44754	-13.83239	-21.96909	-25.22377	-24.4101	0
446	-23.59643	-99.26774	-76.48498	61.02525	25.22377	-89.5037	-34.98781	-52.88855	-18.71441	-29.29212	-27.66478	-31.73313	0
447	-13.83239	-84.62168	-71.60296	48.8202	27.66478	-79.73966	-34.98781	-52.88855	-18.71441	-41.49717	-39.86983	-41.49717	0
448	6.50936	-74.85764	-81.367	34.17414	42.31084	-77.29865	-32.5468	-52.88855	-16.2734	-46.37919	-49.63387	-48.8202	0
449	16.2734	-57.77057	-74.04397	19.52808	44.75185	-65.0936	-37.42882	-55.32956	-18.71441	-46.37919	-49.63387	-48.8202	0
450	6.50936	-65.0936	-71.60296	29.29212	37.42882	-67.53461	-42.31084	-57.77057	-23.59643	-48.8202	-52.07488	-51.26121	0
451	6.50936	-62.65259	-69.16195	26.85111	37.42882	-65.0936	-42.31084	-57.77057	-23.59643	-51.26121	-54.51589	-53.70222	0
452	18.71441	-55.32956	-74.04397	17.08707	44.75185	-65.0936	-39.86983	-55.32956	-16.2734	-48.8202	-52.07488	-48.8202	0
453	23.59643	-52.88855	-76.48498	14.64606	49.63387	-65.0936	-39.86983	-52.88855	-16.2734	-48.8202	-52.07488	-51.26121	0
454	-0.81367	-72.41663	-71.60296	36.61515	34.98781	-72.41663	-47.19286	-57.77057	-21.15542	-36.61515	-37.42882	-36.61515	0
455	-8.95037	-77.29865	-69.16195	41.49717	30.10579	-74.85764	-44.75185	-57.77057	-21.15542	-26.85111	-27.66478	-29.29212	0
456	-8.95037	-82.18067	-74.04397	43.93818	32.5468	-79.73966	-44.75185	-55.32956	-18.71441	-29.29212	-32.5468	-31.73313	0
457	-6.50936	-79.73966	-74.04397	41.49717	32.5468	-77.29865	-44.75185	-57.77057	-18.71441	-29.29212	-32.5468	-31.73313	0
458	-6.50936	-84.62168	-78.92599	43.93818	34.98781	-82.18067	-47.19286	-60.21158	-18.71441	-39.05616	-42.31084	-41.49717	0
459	1.62734	-69.97562	-71.60296	34.17414	34.98781	-69.97562	-52.07488	-62.65259	-21.15542	-36.61515	-39.86983	-39.05616	0
460	13.83239	-62.65259	-76.48498	24.4101	44.75185	-69.97562	-49.63387	-60.21158	-16.2734	-29.29212	-32.5468	-31.73313	0
461	18.71441	-57.77057	-76.48498	19.52808	47.19286	-67.53461	-44.75185	-55.32956	-11.39138	-26.85111	-30.10579	-29.29212	0
462	13.83239	-57.77057	-71.60296	21.96909	42.31084	-65.0936	-44.75185	-52.88855	-8.95037	-24.4101	-27.66478	-26.85111	0
463	11.39138	-50.44754	-61.83892	19.52808	34.98781	-55.32956	-42.31084	-50.44754	-6.50936	-26.85111	-27.66478	-29.29212	0
464	-0.81367	-60.21158	-59.39791	29.29212	27.66478	-60.21158	-44.75185	-52.88855	-8.95037	-24.4101	-27.66478	-26.85111	0
465	-8.95037	-69.97562	-61.83892	39.05616	25.22377	-67.53461	-47.19286	-55.32956	-11.39138	-19.52808	-22.78276	-21.96909	0
466	-16.2734	-82.18067	-66.72094	48.8202	25.22377	-74.85764	-44.75185	-55.32956	-11.39138	-24.4101	-25.22377	-26.85111	0
467	-21.15542	-82.18067	-61.83892	51.26121	20.34175	-72.41663	-44.75185	-57.77057	-16.2734	-29.29212	-32.5468	-34.17414	0
468	-26.03744	-89.5037	-64.27993	56.14323	17.90074	-77.29865	-47.19286	-60.21158	-21.15542	-34.17414	-37.42882	-39.05616	0
469	-18.71441	-79.73966	-61.83892	48.8202	20.34175	-72.41663	-54.51589	-62.65259	-23.59643	-31.73313	-34.98781	-36.61515	0
470	-18.71441	-89.5037	-71.60296	53.70222	25.22377	-82.18067	-54.51589	-62.65259	-23.59643	-21.96909	-25.22377	-24.4101	0
471	-6.50936	-82.18067	-76.48498	43.93818	34.98781	-79.73966	-52.07488	-57.77057	-18.71441	-17.08707	-17.90074	-19.52808	0
472	-6.50936	-74.85764	-69.16195	39.05616	30.10579	-72.41663	-47.19286	-52.88855	-11.39138	-2.44101	-3.25468	-4.88202	0
473	1.62734	-65.0936	-66.72094	31.73313	32.5468	-65.0936	-39.86983	-43.12451	-4.06835	10.57771	7.32303	8.1367	0
474	8.95037	-60.21158	-69.16195	24.4101	37.42882	-65.0936	-37.42882	-40.6835	0.81367	17.90074	17.08707	17.90074	0
475	4.06835	-62.65259	-66.72094	29.29212	34.98781	-65.0936	-34.98781	-38.24249	0.81367	25.22377	24.4101	25.22377	0
476	-0.81367	-72.41663	-71.60296	36.61515	34.98781	-72.41663	-30.10579	-38.24249	3.25468	27.66478	26.85111	25.22377	0
477	8.95037	-52.88855	-61.83892	21.96909	34.98781	-57.77057	-27.66478	-30.91946	3.25468	30.10579	29.29212	30.10579	0
478	-0.81367	-65.0936	-64.27993	31.73313	30.10579	-65.0936	-32.5468	-35.80148	0.81367	27.66478	26.85111	27.66478	0
479	-16.2734	-65.0936	-49.63387	39.05616	15.45973	-57.77057	-42.31084	-43.12451	-11.39138	22.78276	21.96909	20.34175	0
480	-35.80148	-79.73966	-44.75185	56.14323	3.25468	-62.65259	-47.19286	-48.00653	-16.2734	15.45973	14.64606	13.01872	0
481	-40.6835	-84.62168	-44.75185	61.02525	0	-65.0936	-49.63387	-50.44754	-18.71441	5.69569	4.88202	3.25468	0
482	-38.24249	-82.18067	-44.75185	58.58424	3.25468	-65.0936	-47.19286	-50.44754	-18.71441	-2.44101	-0.81367	-2.44101	0
483	-35.80148	-77.29865	-42.31084	56.14323	3.25468	-60.21158	-39.86983	-43.12451	-13.83239	-2.44101	-3.25468	-4.88202	0
484	-28.47845	-77.29865	-49.63387	51.26121	10.57771	-65.0936	-32.5468	-40.6835	-13.83239	-4.88202	-3.25468	-4.88202	0
485	-8.95037	-69.97562	-61.83892	39.05616	25.22377	-67.53461	-25.22377	-38.24249	-11.39138	-4.88202	-3.25468	-4.88202	0
486	8.95037	-69.97562	-78.92599	29.29212	42.31084	-74.85764	-20.34175	-33.36047	-11.39138	-7.32303	-8.1367	-9.76404	0
487	18.71441	-62.65259	-81.367	21.96909	49.63387	-72.41663	-17.90074	-30.91946	-11.39138	-17.08707	-17.90074	-17.08707	0
488	26.03744	-60.21158	-86.24902	17.08707	54.51589	-72.41663	-15.45973	-26.03744	-11.39138	-14.64606	-15.45973	-14.64606	0
489	26.03744	-48.00653	-74.04397	8.95037	49.63387	-60.21158	-17.90074	-28.47845	-13.83239	-7.32303	-8.1367	-7.32303	0
490	16.2734	-60.21158	-76.48498	21.96909	44.75185	-67.53461	-20.34175	-33.36047	-18.71441	-9.76404	-10.57771	-9.76404	0
491	18.71441	-57.77057	-76.48498	19.52808	47.19286	-67.53461	-20.34175	-30.91946	-18.71441	-12.20505	-13.01872	-12.20505	0
492	23.59643	-52.88855	-76.48498	14.64606	49.63387	-65.0936	-15.45973	-26.03744	-11.39138	-12.20505	-13.01872	-12.20505	0
493	16.2734	-50.44754	-66.72094	17.08707	39.86983	-57.77057	-10.57771	-18.71441	-6.50936	-2.44101	-0.81367	-2.44101	0
494	6.50936	-52.88855	-59.39791	21.96909	32.5468	-55.32956	-5.69569	-11.39138	-1.62734	5.69569	4.88202	3.25468	0
495	-3.25468	-62.65259	-59.39791	31.73313	27.66478	-60.21158	-3.25468	-8.95037	-1.62734	5.69569	7.32303	3.25468	0
496	-3.25468	-69.97562	-66.72094	36.61515	30.10579	-67.53461	1.62734	-4.06835	3.25468	3.25468	2.44101	0.81367	0
497	-0.81367	-60.21158	-59.39791	29.29212	27.66478	-60.21158	6.50936	3.25468	6.50936	-4.88202	-5.69569	-7.32303	0
498	-11.39138	-72.41663	-61.83892	41.49717	25.22377	-67.53461	4.06835	3.25468	3.25468	-7.32303	-8.1367	-7.32303	0
499	-0.81367	-57.77057	-56.9569	29.29212	27.66478	-57.77057	-0.81367	-1.62734	-6.50936	-12.20505	-13.01872	-14.64606	0
500	23.59643	-50.44754	-74.04397	12.20505	47.19286	-62.65259	-5.69569	-4.06835	-13.83239	-14.64606	-15.45973	-17.08707	0
501	30.91946	-52.88855	-83.80801	8.95037	56.9569	-67.53461	-8.1367	-4.06835	-16.2734	-14.64606	-15.45973	-17.08707	0
502	26.03744	-65.0936	-91.13104	19.52808	56.9569	-77.29865	-13.01872	-8.95037	-23.59643	-12.20505	-13.01872	-12.20505	0
503	18.71441	-77.29865	-96.01306	29.29212	56.9569	-87.06269	-20.34175	-13.83239	-33.36047	-7.32303	-8.1367	-7.32303	0
504	18.71441	-84.62168	-103.33609	31.73313	59.39791	-94.38572	-25.22377	-18.71441	-40.6835	-2.44101	-3.25468	-4.88202	0
505	26.03744	-77.29865	-103.33609	24.4101	64.27993	-89.5037	-22.78276	-16.2734	-43.12451	-2.44101	-3.25468	-4.88202	0
506	26.03744	-84.62168	-110.65912	29.29212	66.72094	-96.82673	-22.78276	-13.83239	-43.12451	0.81367	2.44101	-2.44101	0
507	23.59643	-82.18067	-105.7771	29.29212	64.27993	-94.38572	-20.34175	-11.39138	-43.12451	0.81367	2.44101	0.81367	0
508	26.03744	-67.53461	-93.57205	19.52808	59.39791	-79.73966	-13.01872	-4.06835	-38.24249	0.81367	2.44101	0.81367	0
509	40.6835	-45.56552	-86.24902	1.62734	61.83892	-65.0936	-3.25468	5.69569	-28.47845	3.25468	2.44101	0.81367	0
510	26.03744	-40.6835	-66.72094	6.50936	44.75185	-52.88855	-3.25468	5.69569	-23.59643	3.25468	2.44101	0.81367	0
511	4.06835	-55.32956	-59.39791	24.4101	30.10579	-57.77057	-3.25468	5.69569	-21.15542	3.25468	2.44101	3.25468	0
512	-8.95037	-69.97562	-61.83892	39.05616	25.22377	-67.53461	-3.25468	5.69569	-21.15542	0.81367	2.44101	0.81367	0
513	-21.15542	-79.73966	-59.39791	48.8202	17.90074	-69.97562	-3.25468	5.69569	-18.71441	3.25468	4.88202	3.25468	0
514	-30.91946	-89.5037	-59.39791	58.58424	13.01872	-74.85764	-5.69569	5.69569	-18.71441	8.1367	9.76404	5.69569	0
515	-30.91946	-87.06269	-56.9569	58.58424	13.01872	-72.41663	-8.1367	5.69569	-23.59643	10.57771	12.20505	8.1367	0
516	-16.2734	-87.06269	-71.60296	51.26121	27.66478	-79.73966	-0.81367	11.39138	-21.15542	13.01872	14.64606	13.01872	0
517	8.95037	-69.97562	-78.92599	29.29212	42.31084	-74.85764	1.62734	18.71441	-18.71441	22.78276	26.85111	22.78276	0
518	26.03744	-52.88855	-78.92599	12.20505	52.07488	-65.0936	1.62734	21.15542	-13.83239	25.22377	26.85111	25.22377	0
519	38.24249	-40.6835	-78.92599	1.62734	56.9569	-60.21158	6.50936	26.03744	-8.95037	37.42882	36.61515	34.98781	0
520	48.00653	-28.47845	-76.48498	-10.57771	61.83892	-52.88855	6.50936	28.47845	-8.95037	47.19286	46.37919	44.75185	0
521	45.56552	-38.24249	-83.80801	-3.25468	64.27993	-60.21158	1.62734	23.59643	-11.39138	44.75185	43.93818	44.75185	0
522	26.03744	-52.88855	-78.92599	12.20505	52.07488	-65.0936	-5.69569	18.71441	-16.2734	39.86983	41.49717	39.86983	0
523	13.83239	-65.0936	-78.92599	24.4101	44.75185	-72.41663	-8.1367	16.2734	-18.71441	37.42882	36.61515	34.98781	0
524	13.83239	-62.65259	-76.48498	24.4101	44.75185	-69.97562	-3.25468	21.15542	-13.83239	30.10579	31.73313	30.10579	0
525	18.71441	-50.44754	-69.16195	14.64606	42.31084	-60.21158	1.62734	28.47845	-6.50936	22.78276	24.4101	22.78276	0
526	6.50936	-67.53461	-74.04397	29.29212	39.86983	-69.97562	1.62734	28.47845	-6.50936	10.57771	9.76404	8.1367	0
527	8.95037	-60.21158	-69.16195	24.4101	37.42882	-65.0936	1.62734	30.91946	-4.06835	0.81367	2.44101	-2.44101	0
528	16.2734	-48.00653	-64.27993	14.64606	39.86983	-55.32956	6.50936	33.36047	-1.62734	-2.44101	-0.81367	-4.88202	0
529	28.47845	-38.24249	-66.72094	4.06835	47.19286	-52.88855	6.50936	38.24249	0.81367	-2.44101	-3.25468	-4.88202	0
530	30.91946	-28.47845	-59.39791	-0.81367	44.75185	-43.12451	6.50936	38.24249	0.81367	-9.76404	-10.57771	-12.20505	0
531	16.2734	-45.56552	-61.83892	14.64606	37.42882	-52.88855	-0.81367	28.47845	-8.95037	-2.44101	-3.25468	-4.88202	0
532	6.50936	-62.65259	-69.16195	26.85111	37.42882	-65.0936	-3.25468	23.59643	-16.2734	-2.44101	-0.81367	-2.44101	0
533	-0.81367	-79.73966	-78.92599	39.05616	37.42882	-79.73966	-8.1367	18.71441	-21.15542	-2.44101	-0.81367	-2.44101	0
534	-0.81367	-94.38572	-93.57205	46.37919	44.75185	-94.38572	-13.01872	16.2734	-26.03744	0.81367	2.44101	3.25468	0
535	4.06835	-94.38572	-98.45407	43.93818	49.63387	-96.82673	-13.01872	13.83239	-23.59643	8.1367	9.76404	10.57771	0
536	1.62734	-111.47279	-113.10013	53.70222	56.9569	-111.47279	-13.01872	13.83239	-18.71441	17.90074	21.96909	20.34175	0
537	-3.25468	-113.9138	-110.65912	58.58424	52.07488	-111.47279	-13.01872	11.39138	-18.71441	22.78276	24.4101	22.78276	0
538	4.06835	-101.70875	-105.7771	48.8202	54.51589	-104.14976	-13.01872	13.83239	-13.83239	25.22377	24.4101	22.78276	0
539	11.39138	-87.06269	-98.45407	36.61515	54.51589	-91.94471	-13.01872	16.2734	-8.95037	27.66478	26.85111	25.22377	0
540	13.83239	-69.97562	-83.80801	26.85111	47.19286	-77.29865	-10.57771	18.71441	-8.95037	22.78276	21.96909	20.34175	0
541	8.95037	-67.53461	-76.48498	29.29212	42.31084	-72.41663	-8.1367	21.15542	-11.39138	20.34175	21.96909	17.90074	0
542	4.06835	-74.85764	-78.92599	34.17414	39.86983	-77.29865	-13.01872	16.2734	-16.2734	10.57771	12.20505	10.57771	0
543	11.39138	-74.85764	-86.24902	31.73313	47.19286	-79.73966	-17.90074	13.83239	-21.15542	8.1367	9.76404	8.1367	0
544	11.39138	-87.06269	-98.45407	36.61515	54.51589	-91.94471	-20.34175	8.95037	-28.47845	8.1367	9.76404	8.1367	0
545	11.39138	-91.94471	-103.33609	39.05616	56.9569	-96.82673	-25.22377	5.69569	-33.36047	5.69569	9.76404	5.69569	0
546	11.39138	-109.03178	-120.42316	48.8202	64.27993	-113.9138	-25.22377	5.69569	-30.91946	3.25468	7.32303	5.69569	0
547	23.59643	-99.26774	-122.86417	36.61515	71.60296	-111.47279	-25.22377	5.69569	-26.03744	3.25468	4.88202	3.25468	0
548	33.36047	-87.06269	-120.42316	26.85111	76.48498	-104.14976	-20.34175	11.39138	-16.2734	-2.44101	-0.81367	-2.44101	0
549	28.47845	-82.18067	-110.65912	26.85111	69.16195	-96.82673	-20.34175	13.83239	-11.39138	-2.44101	-0.81367	-2.44101	0
550	38.24249	-57.77057	-96.01306	8.95037	66.72094	-77.29865	-17.90074	18.71441	-6.50936	-7.32303	-8.1367	-7.32303	0
551	38.24249	-45.56552	-83.80801	4.06835	59.39791	-65.0936	-10.57771	26.03744	3.25468	-14.64606	-15.45973	-14.64606	0
552	35.80148	-43.12451	-78.92599	4.06835	56.9569	-60.21158	-5.69569	33.36047	6.50936	-17.08707	-17.90074	-17.08707	0
553	18.71441	-57.77057	-76.48498	19.52808	47.19286	-67.53461	-10.57771	30.91946	3.25468	-12.20505	-13.01872	-12.20505	0
554	6.50936	-72.41663	-78.92599	31.73313	42.31084	-74.85764	-15.45973	26.03744	-6.50936	-12.20505	-13.01872	-12.20505	0
555	6.50936	-69.97562	-76.48498	31.73313	39.86983	-72.41663	-17.90074	23.59643	-11.39138	-17.08707	-17.90074	-19.52808	0
556	4.06835	-87.06269	-91.13104	41.49717	47.19286	-89.5037	-15.45973	26.03744	-11.39138	-19.52808	-17.90074	-19.52808	0
557	-6.50936	-101.70875	-96.01306	53.70222	44.75185	-99.26774	-17.90074	23.59643	-16.2734	-19.52808	-17.90074	-19.52808	0
558	-16.2734	-116.35481	-100.89508	65.90727	42.31084	-109.03178	-27.66478	13.83239	-23.59643	-12.20505	-10.57771	-14.64606	0
559	-21.15542	-126.11885	-105.7771	73.2303	42.31084	-116.35481	-32.5468	5.69569	-30.91946	-9.76404	-8.1367	-9.76404	0
560	-13.83239	-109.03178	-96.01306	61.02525	39.86983	-104.14976	-32.5468	5.69569	-33.36047	-9.76404	-8.1367	-9.76404	0
561	-0.81367	-99.26774	-98.45407	48.8202	47.19286	-99.26774	-30.10579	8.95037	-28.47845	-4.88202	-3.25468	-4.88202	0
562	-6.50936	-106.59077	-100.89508	56.14323	47.19286	-104.14976	-27.66478	8.95037	-28.47845	-2.44101	-0.81367	-4.88202	0
563	-16.2734	-121.23683	-105.7771	68.34828	44.75185	-113.9138	-32.5468	5.69569	-33.36047	3.25468	4.88202	0.81367	0
564	-3.25468	-113.9138	-110.65912	58.58424	52.07488	-111.47279	-22.78276	8.95037	-30.91946	5.69569	9.76404	5.69569	0
565	18.71441	-91.94471	-110.65912	36.61515	64.27993	-101.70875	-10.57771	18.71441	-21.15542	8.1367	9.76404	5.69569	0
566	26.03744	-91.94471	-117.98215	31.73313	71.60296	-104.14976	1.62734	28.47845	-11.39138	10.57771	14.64606	10.57771	0
567	23.59643	-94.38572	-117.98215	34.17414	69.16195	-106.59077	6.50936	30.91946	-8.95037	15.45973	19.52808	15.45973	0
568	13.83239	-99.26774	-113.10013	41.49717	61.83892	-106.59077	4.06835	26.03744	-13.83239	22.78276	24.4101	22.78276	0
569	23.59643	-89.5037	-113.10013	31.73313	66.72094	-101.70875	4.06835	21.15542	-13.83239	32.5468	36.61515	32.5468	0
570	23.59643	-69.97562	-93.57205	21.96909	56.9569	-82.18067	4.06835	18.71441	-18.71441	37.42882	39.05616	37.42882	0
571	-6.50936	-84.62168	-78.92599	43.93818	34.98781	-82.18067	-3.25468	11.39138	-28.47845	37.42882	39.05616	37.42882	0
572	-23.59643	-99.26774	-76.48498	61.02525	25.22377	-89.5037	-5.69569	5.69569	-33.36047	37.42882	39.05616	37.42882	0
573	-26.03744	-101.70875	-76.48498	63.46626	25.22377	-89.5037	-5.69569	5.69569	-35.80148	37.42882	39.05616	37.42882	0
574	-21.15542	-99.26774	-78.92599	58.58424	27.66478	-89.5037	-0.81367	5.69569	-30.91946	44.75185	46.37919	44.75185	0
575	-16.2734	-94.38572	-78.92599	53.70222	30.10579	-87.06269	4.06835	8.95037	-23.59643	42.31084	43.93818	42.31084	0
576	-18.71441	-116.35481	-98.45407	65.90727	39.86983	-109.03178	6.50936	8.95037	-16.2734	32.5468	39.05616	34.98781	0
577	-13.83239	-126.11885	-113.10013	68.34828	49.63387	-121.23683	4.06835	8.95037	-11.39138	25.22377	29.29212	27.66478	0
578	-3.25468	-123.67784	-120.42316	63.46626	56.9569	-121.23683	1.62734	5.69569	-11.39138	17.90074	19.52808	17.90074	0
579	4.06835	-126.11885	-130.1872	61.02525	66.72094	-128.55986	-3.25468	0.81367	-16.2734	5.69569	7.32303	5.69569	0
580	-8.95037	-128.55986	-120.42316	68.34828	54.51589	-126.11885	-13.01872	-8.95037	-28.47845	-7.32303	-5.69569	-7.32303	0
581	-26.03744	-143.20592	-117.98215	82.99434	44.75185	-131.00087	-20.34175	-16.2734	-35.80148	-12.20505	-13.01872	-12.20505	0
582	-38.24249	-155.41097	-117.98215	95.19939	39.86983	-138.3239	-27.66478	-21.15542	-45.56552	-19.52808	-20.34175	-19.52808	0
583	-43.12451	-152.96996	-110.65912	97.6404	32.5468	-133.44188	-27.66478	-23.59643	-52.88855	-29.29212	-30.10579	-29.29212	0
584	-35.80148	-138.3239	-103.33609	85.43535	32.5468	-121.23683	-20.34175	-18.71441	-48.00653	-29.29212	-30.10579	-29.29212	0
585	-18.71441	-109.03178	-91.13104	63.46626	34.98781	-101.70875	-10.57771	-6.50936	-35.80148	-34.17414	-32.5468	-34.17414	0
586	-3.25468	-91.94471	-88.69003	46.37919	42.31084	-89.5037	1.62734	5.69569	-23.59643	-31.73313	-30.10579	-34.17414	0
587	13.83239	-67.53461	-81.367	26.85111	47.19286	-74.85764	4.06835	5.69569	-18.71441	-26.85111	-25.22377	-26.85111	0
588	26.03744	-48.00653	-74.04397	8.95037	49.63387	-60.21158	6.50936	8.95037	-13.83239	-29.29212	-27.66478	-29.29212	0
589	35.80148	-30.91946	-66.72094	-3.25468	49.63387	-48.00653	9.76404	13.83239	-4.06835	-26.85111	-25.22377	-26.85111	0
590	35.80148	-13.83239	-49.63387	-10.57771	42.31084	-30.91946	9.76404	13.83239	0.81367	-29.29212	-30.10579	-29.29212	0
591	26.03744	-26.03744	-52.07488	-0.81367	37.42882	-38.24249	1.62734	5.69569	-6.50936	-29.29212	-30.10579	-29.29212	0
592	13.83239	-35.80148	-49.63387	8.95037	30.10579	-43.12451	-3.25468	0.81367	-11.39138	-31.73313	-32.5468	-31.73313	0
593	-6.50936	-55.32956	-49.63387	29.29212	20.34175	-52.88855	-5.69569	-1.62734	-18.71441	-31.73313	-32.5468	-31.73313	0
594	-3.25468	-57.77057	-54.51589	29.29212	25.22377	-55.32956	-0.81367	5.69569	-13.83239	-29.29212	-27.66478	-29.29212	0
595	-0.81367	-50.44754	-49.63387	24.4101	22.78276	-50.44754	-0.81367	8.95037	-13.83239	-31.73313	-30.10579	-31.73313	0
596	-6.50936	-67.53461	-61.83892	36.61515	27.66478	-65.0936	1.62734	8.95037	-16.2734	-29.29212	-25.22377	-29.29212	0
597	-16.2734	-74.85764	-59.39791	43.93818	20.34175	-67.53461	1.62734	8.95037	-21.15542	-24.4101	-22.78276	-24.4101	0
598	-23.59643	-74.85764	-52.07488	48.8202	13.01872	-65.0936	1.62734	8.95037	-18.71441	-14.64606	-13.01872	-14.64606	0
599	-18.71441	-69.97562	-52.07488	43.93818	15.45973	-62.65259	4.06835	11.39138	-13.83239	-14.64606	-13.01872	-14.64606	0
600	-6.50936	-43.12451	-37.42882	24.4101	15.45973	-40.6835	4.06835	11.39138	-13.83239	-7.32303	-8.1367	-7.32303	0
601	-6.50936	-50.44754	-44.75185	26.85111	17.90074	-48.00653	4.06835	8.95037	-16.2734	-2.44101	-3.25468	-2.44101	0
602	-11.39138	-57.77057	-47.19286	34.17414	17.90074	-52.88855	1.62734	5.69569	-18.71441	3.25468	2.44101	3.25468	0
603	8.95037	-33.36047	-42.31084	12.20505	25.22377	-38.24249	6.50936	13.83239	-13.83239	8.1367	4.88202	8.1367	0
604	33.36047	-8.1367	-42.31084	-13.01872	37.42882	-26.03744	19.52808	26.03744	-4.06835	3.25468	4.88202	3.25468	0
605	48.00653	4.06835	-44.75185	-25.22377	47.19286	-21.15542	24.4101	28.47845	-1.62734	3.25468	2.44101	3.25468	0
606	65.0936	-3.25468	-69.16195	-30.10579	66.72094	-35.80148	31.73313	35.80148	3.25468	5.69569	7.32303	5.69569	0
607	62.65259	-10.57771	-74.04397	-25.22377	69.16195	-43.12451	34.17414	38.24249	3.25468	3.25468	4.88202	3.25468	0
608	72.41663	-0.81367	-74.04397	-34.98781	74.04397	-38.24249	39.05616	43.12451	8.95037	-2.44101	-3.25468	-2.44101	0
609	79.73966	-5.69569	-86.24902	-37.42882	83.80801	-45.56552	41.49717	48.00653	13.83239	-12.20505	-13.01872	-12.20505	0
610	82.18067	-3.25468	-86.24902	-39.86983	83.80801	-45.56552	41.49717	50.44754	18.71441	-7.32303	-8.1367	-4.88202	0
611	67.53461	-23.59643	-91.13104	-22.78276	78.92599	-57.77057	39.05616	50.44754	21.15542	-2.44101	-0.81367	0.81367	0
612	55.32956	-33.36047	-88.69003	-10.57771	71.60296	-60.21158	41.49717	52.88855	21.15542	-2.44101	-0.81367	0.81367	0
613	45.56552	-33.36047	-78.92599	-5.69569	61.83892	-55.32956	46.37919	60.21158	28.47845	3.25468	2.44101	3.25468	0
614	50.44754	-26.03744	-76.48498	-13.01872	61.83892	-50.44754	53.70222	67.53461	35.80148	8.1367	9.76404	8.1367	0
615	57.77057	-13.83239	-71.60296	-22.78276	64.27993	-43.12451	61.02525	74.85764	38.24249	10.57771	12.20505	10.57771	0
616	48.00653	-35.80148	-83.80801	-5.69569	64.27993	-60.21158	58.58424	69.97562	35.80148	8.1367	9.76404	8.1367	0
617	30.91946	-50.44754	-81.367	8.95037	54.51589	-65.0936	51.26121	60.21158	21.15542	8.1367	12.20505	8.1367	0
618	11.39138	-60.21158	-71.60296	24.4101	39.86983	-65.0936	43.93818	48.00653	11.39138	8.1367	9.76404	8.1367	0
619	8.95037	-57.77057	-66.72094	24.4101	37.42882	-62.65259	39.05616	43.12451	3.25468	10.57771	12.20505	10.57771	0
620	21.15542	-43.12451	-64.27993	8.95037	42.31084	-52.88855	31.73313	33.36047	-6.50936	13.01872	12.20505	10.57771	0
621	13.83239	-52.88855	-66.72094	19.52808	39.86983	-60.21158	24.4101	26.03744	-13.83239	10.57771	12.20505	10.57771	0
622	1.62734	-62.65259	-64.27993	29.29212	32.5468	-62.65259	19.52808	21.15542	-18.71441	15.45973	17.08707	15.45973	0
623	-6.50936	-67.53461	-61.83892	36.61515	27.66478	-65.0936	17.08707	18.71441	-18.71441	17.90074	19.52808	17.90074	0
624	13.83239	-55.32956	-69.16195	19.52808	39.86983	-62.65259	19.52808	23.59643	-11.39138	22.78276	24.4101	22.78276	0
625	28.47845	-48.00653	-76.48498	8.95037	52.07488	-62.65259	19.52808	26.03744	-4.06835	22.78276	24.4101	22.78276	0
626	16.2734	-79.73966	-96.01306	31.73313	54.51589	-87.06269	12.20505	18.71441	-6.50936	17.90074	21.96909	20.34175	0
627	4.06835	-101.70875	-105.7771	48.8202	54.51589	-104.14976	1.62734	8.95037	-13.83239	17.90074	21.96909	20.34175	0
628	-8.95037	-113.9138	-105.7771	61.02525	47.19286	-111.47279	-10.57771	-4.06835	-26.03744	22.78276	24.4101	22.78276	0
629	-6.50936	-118.79582	-113.10013	61.02525	52.07488	-116.35481	-17.90074	-11.39138	-33.36047	15.45973	17.08707	15.45973	0
630	4.06835	-99.26774	-103.33609	46.37919	52.07488	-101.70875	-25.22377	-18.71441	-40.6835	8.1367	7.32303	8.1367	0
631	-0.81367	-99.26774	-98.45407	48.8202	47.19286	-99.26774	-27.66478	-21.15542	-43.12451	8.1367	7.32303	8.1367	0
632	-3.25468	-91.94471	-88.69003	46.37919	42.31084	-89.5037	-22.78276	-21.15542	-43.12451	-2.44101	-0.81367	0.81367	0
633	-6.50936	-82.18067	-76.48498	43.93818	34.98781	-79.73966	-15.45973	-16.2734	-33.36047	-2.44101	-0.81367	-2.44101	0
634	-11.39138	-79.73966	-69.16195	43.93818	27.66478	-74.85764	-10.57771	-11.39138	-26.03744	-4.88202	-3.25468	-4.88202	0
635	-21.15542	-82.18067	-61.83892	51.26121	20.34175	-72.41663	-5.69569	-8.95037	-18.71441	-2.44101	-0.81367	-2.44101	0
636	-43.12451	-106.59077	-64.27993	73.2303	10.57771	-87.06269	-5.69569	-8.95037	-16.2734	5.69569	9.76404	5.69569	0
637	-62.65259	-123.67784	-61.83892	92.75838	-2.44101	-94.38572	-10.57771	-16.2734	-21.15542	5.69569	9.76404	5.69569	0
638	-84.62168	-143.20592	-59.39791	112.28646	-14.64606	-101.70875	-22.78276	-26.03744	-26.03744	5.69569	9.76404	5.69569	0
639	-99.26774	-160.29299	-61.83892	129.37353	-19.52808	-111.47279	-32.5468	-33.36047	-33.36047	8.1367	12.20505	8.1367	0
640	-106.59077	-150.52895	-44.75185	126.93252	-31.73313	-99.26774	-37.42882	-38.24249	-40.6835	5.69569	7.32303	5.69569	0
641	-99.26774	-143.20592	-44.75185	119.60949	-29.29212	-94.38572	-37.42882	-38.24249	-38.24249	3.25468	4.88202	3.25468	0
642	-77.29865	-126.11885	-49.63387	100.08141	-14.64606	-89.5037	-37.42882	-38.24249	-33.36047	5.69569	7.32303	5.69569	0
643	-67.53461	-121.23683	-54.51589	92.75838	-7.32303	-89.5037	-34.98781	-33.36047	-28.47845	13.01872	14.64606	13.01872	0
644	-67.53461	-131.00087	-64.27993	97.6404	-2.44101	-99.26774	-34.98781	-33.36047	-28.47845	22.78276	24.4101	22.78276	0
645	-69.97562	-138.3239	-69.16195	102.52242	-2.44101	-104.14976	-37.42882	-33.36047	-28.47845	25.22377	24.4101	25.22377	0
646	-65.0936	-152.96996	-88.69003	107.40444	10.57771	-121.23683	-32.5468	-28.47845	-28.47845	27.66478	29.29212	27.66478	0
647	-62.65259	-150.52895	-88.69003	104.96343	13.01872	-121.23683	-32.5468	-28.47845	-30.91946	34.98781	36.61515	34.98781	0
648	-69.97562	-150.52895	-81.367	109.84545	5.69569	-116.35481	-27.66478	-26.03744	-28.47845	39.86983	41.49717	42.31084	0
649	-87.06269	-157.85198	-71.60296	122.0505	-9.76404	-116.35481	-27.66478	-23.59643	-26.03744	37.42882	39.05616	37.42882	0
650	-79.73966	-123.67784	-44.75185	100.08141	-19.52808	-84.62168	-20.34175	-16.2734	-21.15542	37.42882	39.05616	37.42882	0
651	-55.32956	-91.94471	-37.42882	73.2303	-9.76404	-65.0936	-10.57771	-8.95037	-13.83239	37.42882	39.05616	37.42882	0
652	-33.36047	-60.21158	-27.66478	46.37919	-4.88202	-45.56552	-5.69569	-4.06835	-6.50936	39.86983	41.49717	39.86983	0
653	-28.47845	-50.44754	-22.78276	39.05616	-4.88202	-38.24249	-5.69569	-4.06835	-6.50936	32.5468	34.17414	32.5468	0
654	-21.15542	-52.88855	-32.5468	36.61515	5.69569	-43.12451	-10.57771	-6.50936	-11.39138	25.22377	29.29212	25.22377	0
655	-13.83239	-52.88855	-39.86983	31.73313	13.01872	-48.00653	-15.45973	-11.39138	-18.71441	22.78276	24.4101	22.78276	0
656	-16.2734	-77.29865	-61.83892	46.37919	22.78276	-69.97562	-20.34175	-16.2734	-23.59643	13.01872	17.08707	13.01872	0
657	-38.24249	-96.82673	-59.39791	65.90727	10.57771	-79.73966	-27.66478	-26.03744	-30.91946	0.81367	4.88202	0.81367	0
658	-60.21158	-116.35481	-56.9569	87.87636	-2.44101	-87.06269	-37.42882	-33.36047	-38.24249	-2.44101	-0.81367	-2.44101	0
659	-79.73966	-138.3239	-59.39791	107.40444	-12.20505	-99.26774	-44.75185	-40.6835	-43.12451	-2.44101	-3.25468	-4.88202	0
660	-89.5037	-135.88289	-47.19286	112.28646	-21.96909	-91.94471	-49.63387	-48.00653	-48.00653	0.81367	-0.81367	-2.44101	-1250	T-0
661	-84.62168	-133.44188	-49.63387	107.40444	-19.52808	-91.94471	-49.63387	-48.00653	-45.56552	0.81367	-0.81367	-2.44101	0
662	-69.97562	-123.67784	-54.51589	95.19939	-9.76404	-89.5037	-49.63387	-45.56552	-40.6835	3.25468	4.88202	3.25468	0
663	-48.00653	-104.14976	-56.9569	75.67131	3.25468	-82.18067	-47.19286	-40.6835	-38.24249	8.1367	9.76404	8.1367	0
664	-33.36047	-94.38572	-61.83892	63.46626	13.01872	-79.73966	-42.31084	-38.24249	-33.36047	15.45973	17.08707	15.45973	0
665	-28.47845	-91.94471	-64.27993	58.58424	17.90074	-79.73966	-39.86983	-35.80148	-33.36047	17.90074	21.96909	20.34175	0
666	-23.59643	-99.26774	-76.48498	61.02525	25.22377	-89.5037	-32.5468	-30.91946	-26.03744	17.90074	19.52808	17.90074	0
667	-30.91946	-104.14976	-74.04397	65.90727	20.34175	-89.5037	-34.98781	-33.36047	-28.47845	10.57771	14.64606	10.57771	0
668	-40.6835	-104.14976	-64.27993	70.78929	10.57771	-84.62168	-37.42882	-35.80148	-30.91946	-2.44101	-0.81367	-2.44101	0
669	-57.77057	-118.79582	-61.83892	87.87636	0	-91.94471	-42.31084	-40.6835	-35.80148	-4.88202	-3.25468	-4.88202	0
670	-72.41663	-116.35481	-44.75185	92.75838	-14.64606	-82.18067	-52.07488	-48.00653	-43.12451	-7.32303	-8.1367	-7.32303	0
671	-79.73966	-123.67784	-44.75185	100.08141	-19.52808	-84.62168	-56.9569	-50.44754	-43.12451	-9.76404	-8.1367	-9.76404	0
672	-74.85764	-121.23683	-47.19286	97.6404	-14.64606	-84.62168	-56.9569	-50.44754	-45.56552	-9.76404	-8.1367	-9.76404	0
673	-67.53461	-116.35481	-49.63387	90.31737	-9.76404	-84.62168	-54.51589	-48.00653	-43.12451	-2.44101	-0.81367	-2.44101	0
674	-67.53461	-121.23683	-54.51589	92.75838	-7.32303	-89.5037	-52.07488	-45.56552	-43.12451	8.1367	9.76404	8.1367	0
675	-72.41663	-123.67784	-52.07488	97.6404	-12.20505	-89.5037	-47.19286	-45.56552	-48.00653	17.90074	19.52808	17.90074	0
676	-67.53461	-133.44188	-66.72094	100.08141	-2.44101	-101.70875	-39.86983	-43.12451	-45.56552	20.34175	21.96909	22.78276	0
677	-33.36047	-104.14976	-71.60296	68.34828	17.90074	-89.5037	-30.10579	-38.24249	-45.56552	20.34175	21.96909	22.78276	0
678	-6.50936	-84.62168	-78.92599	43.93818	34.98781	-82.18067	-27.66478	-43.12451	-55.32956	17.90074	19.52808	17.90074	0
679	8.95037	-82.18067	-91.13104	36.61515	49.63387	-87.06269	-30.10579	-52.88855	-72.41663	22.78276	21.96909	20.34175	0
680	43.12451	-65.0936	-108.21811	8.95037	74.04397	-87.06269	-32.5468	-67.53461	-96.82673	22.78276	21.96909	20.34175	0
681	104.14976	-40.6835	-144.83326	-32.5468	122.86417	-91.94471	-27.66478	-74.85764	-118.79582	22.78276	19.52808	20.34175	0
682	184.70309	-3.25468	-188.77144	-91.13104	186.33043	-96.82673	-15.45973	-79.73966	-138.3239	17.90074	17.08707	17.90074	0
683	255.49238	18.71441	-237.59164	-137.51023	247.35568	-109.03178	-3.25468	-87.06269	-165.17501	17.90074	14.64606	15.45973	0
684	318.95864	35.80148	-283.97083	-176.56639	301.0579	-123.67784	12.20505	-91.94471	-192.02612	20.34175	19.52808	20.34175	0
685	397.07096	77.29865	-320.58598	-237.59164	359.64214	-121.23683	39.05616	-87.06269	-209.11319	15.45973	12.20505	15.45973	0
686	482.50631	126.11885	-357.20113	-303.49891	420.66739	-116.35481	78.11232	-69.97562	-216.43622	8.1367	7.32303	8.1367	0
687	550.85459	194.46713	-357.20113	-371.84719	454.84153	-82.18067	122.0505	-45.56552	-213.99521	5.69569	2.44101	5.69569	0
688	592.35176	260.3744	-332.79103	-425.54941	462.16456	-35.80148	175.75272	-11.39138	-199.34915	0.81367	-0.81367	-2.44101	0
689	616.76186	331.16369	-286.41184	-474.36961	452.40052	23.59643	236.77797	33.36047	-167.61602	0.81367	-0.81367	-2.44101	0
690	619.20287	421.48106	-198.53548	-520.7488	408.46234	111.47279	295.36221	87.06269	-118.79582	3.25468	-0.81367	3.25468	0
691	585.02873	482.50631	-103.33609	-532.95385	344.99608	189.58511	346.62342	145.64693	-57.77057	3.25468	-0.81367	0.81367	0
692	514.23944	514.23944	0	-513.42577	257.11972	257.93339	380.79756	196.90814	3.25468	10.57771	7.32303	10.57771	0
693	409.27601	516.68045	107.40444	-462.16456	152.15629	311.63561	397.88463	243.28733	69.97562	13.01872	12.20505	13.01872	0
694	287.22551	492.27035	205.04484	-388.93426	42.31084	348.25076	395.44362	277.46147	131.00087	15.45973	17.08707	17.90074	0
695	150.52895	450.77318	300.24423	-301.0579	-75.67131	375.10187	375.91554	296.98955	182.26208	15.45973	17.08707	15.45973	0
696	33.36047	399.51197	366.1515	-215.62255	-165.98868	382.4249	351.50544	311.63561	231.08228	8.1367	9.76404	8.1367	0
697	-60.21158	355.57379	414.9717	-147.27427	-236.77797	384.86591	322.21332	314.07662	262.81541	0.81367	2.44101	0.81367	0
698	-135.88289	323.84066	458.90988	-93.57205	-297.80322	389.74793	292.9212	311.63561	284.7845	-9.76404	-10.57771	-9.76404	0
699	-170.05703	314.07662	483.31998	-71.60296	-327.09534	397.07096	275.83413	309.1946	299.43056	-14.64606	-15.45973	-14.64606	0
700	-162.734	338.48672	500.40705	-88.69003	-331.97736	419.04005	263.62908	306.75359	306.75359	-17.08707	-17.90074	-17.08707	0
701	-145.64693	350.69177	495.52503	-103.33609	-319.77231	421.48106	256.30605	301.87157	306.75359	-19.52808	-20.34175	-19.52808	0
702	-131.00087	343.36874	473.55594	-105.7771	-302.68524	406.835	241.65999	287.22551	294.54854	-24.4101	-25.22377	-24.4101	0
703	-111.47279	331.16369	441.82281	-110.65912	-275.83413	384.86591	224.57292	265.25642	277.46147	-26.85111	-27.66478	-26.85111	0
704	-91.94471	311.63561	402.76665	-110.65912	-246.54201	355.57379	205.04484	243.28733	257.93339	-34.17414	-32.5468	-34.17414	0
705	-69.97562	296.98955	366.1515	-113.10013	-217.24989	331.16369	183.07575	221.31824	240.84632	-41.49717	-42.31084	-41.49717	0
706	-67.53461	248.16935	314.89029	-91.13104	-190.39878	279.90248	161.10666	194.46713	218.87723	-51.26121	-52.07488	-51.26121	0
707	-79.73966	196.90814	275.83413	-59.39791	-178.19373	235.9643	136.69656	167.61602	192.02612	-68.34828	-66.72094	-68.34828	0
708	-74.85764	174.93905	248.98302	-49.63387	-161.10666	211.5542	119.60949	145.64693	172.49804	-73.2303	-71.60296	-73.2303	0
709	-67.53461	148.08794	214.80888	-39.86983	-141.57858	179.82107	102.52242	128.55986	152.96996	-65.90727	-66.72094	-65.90727	0
710	-69.97562	126.11885	195.2808	-27.66478	-131.81454	160.29299	85.43535	104.14976	133.44188	-53.70222	-54.51589	-53.70222	0
711	-74.85764	91.94471	165.98868	-8.1367	-119.60949	128.55986	73.2303	87.06269	113.9138	-39.05616	-39.86983	-39.05616	0
712	-84.62168	55.32956	139.13757	14.64606	-112.28646	96.82673	58.58424	67.53461	91.94471	-31.73313	-32.5468	-31.73313	0
713	-84.62168	30.91946	114.72747	26.85111	-100.08141	72.41663	41.49717	48.00653	69.97562	-21.96909	-22.78276	-21.96909	0
714	-89.5037	1.62734	90.31737	43.93818	-90.31737	45.56552	26.85111	28.47845	50.44754	-12.20505	-10.57771	-12.20505	0
715	-101.70875	-28.47845	73.2303	63.46626	-87.87636	21.15542	12.20505	13.83239	33.36047	-9.76404	-8.1367	-9.76404	0
716	-111.47279	-62.65259	48.8202	85.43535	-80.55333	-8.1367	4.06835	3.25468	21.15542	-9.76404	-10.57771	-12.20505	0
717	-116.35481	-79.73966	36.61515	97.6404	-78.11232	-23.59643	-5.69569	-6.50936	6.50936	-17.08707	-15.45973	-17.08707	0
718	-111.47279	-74.85764	36.61515	92.75838	-75.67131	-21.15542	-8.1367	-13.83239	-1.62734	-19.52808	-17.90074	-19.52808	0
719	-94.38572	-60.21158	34.17414	75.67131	-65.90727	-13.83239	-0.81367	-8.95037	3.25468	-19.52808	-20.34175	-19.52808	0
720	-84.62168	-33.36047	51.26121	58.58424	-68.34828	8.95037	4.06835	-8.95037	3.25468	-21.96909	-25.22377	-24.4101	0
721	-84.62168	-33.36047	51.26121	58.58424	-68.34828	8.95037	4.06835	-11.39138	0.81367	-29.29212	-30.10579	-29.29212	0
722	-77.29865	-28.47845	48.8202	51.26121	-63.46626	8.95037	1.62734	-13.83239	-4.06835	-36.61515	-39.86983	-36.61515	0
723	-74.85764	-28.47845	46.37919	51.26121	-61.02525	8.95037	1.62734	-18.71441	-6.50936	-41.49717	-44.75185	-41.49717	0
724	-74.85764	-38.24249	36.61515	56.14323	-56.14323	-0.81367	-3.25468	-21.15542	-8.95037	-46.37919	-47.19286	-46.37919	0
725	-89.5037	-57.77057	31.73313	73.2303	-61.02525	-13.83239	-10.57771	-28.47845	-16.2734	-56.14323	-56.9569	-56.14323	0
726	-94.38572	-79.73966	14.64606	85.43535	-56.14323	-33.36047	-15.45973	-35.80148	-18.71441	-58.58424	-54.51589	-58.58424	0
727	-87.06269	-74.85764	12.20505	80.55333	-51.26121	-33.36047	-17.90074	-35.80148	-21.15542	-48.8202	-49.63387	-51.26121	0
728	-77.29865	-65.0936	12.20505	70.78929	-46.37919	-28.47845	-17.90074	-40.6835	-26.03744	-46.37919	-47.19286	-46.37919	0
729	-74.85764	-57.77057	17.08707	65.90727	-46.37919	-21.15542	-17.90074	-40.6835	-26.03744	-41.49717	-39.86983	-41.49717	0
730	-77.29865	-45.56552	31.73313	61.02525	-56.14323	-8.1367	-22.78276	-43.12451	-30.91946	-36.61515	-37.42882	-36.61515	0
731	-72.41663	-35.80148	36.61515	53.70222	-56.14323	-0.81367	-20.34175	-43.12451	-30.91946	-29.29212	-32.5468	-29.29212	0
732	-69.97562	-30.91946	39.05616	48.8202	-56.14323	4.06835	-17.90074	-43.12451	-30.91946	-19.52808	-22.78276	-21.96909	0
733	-74.85764	-28.47845	46.37919	51.26121	-61.02525	8.95037	-17.90074	-45.56552	-33.36047	-17.08707	-20.34175	-19.52808	0
734	-72.41663	-26.03744	46.37919	48.8202	-61.02525	8.95037	-17.90074	-45.56552	-33.36047	-17.08707	-17.90074	-17.08707	0
735	-69.97562	-30.91946	39.05616	48.8202	-56.14323	4.06835	-17.90074	-50.44754	-35.80148	-9.76404	-10.57771	-12.20505	0
736	-67.53461	-43.12451	24.4101	53.70222	-46.37919	-11.39138	-15.45973	-50.44754	-38.24249	-4.88202	-3.25468	-4.88202	0
737	-55.32956	-33.36047	21.96909	43.93818	-39.05616	-5.69569	-13.01872	-48.00653	-38.24249	5.69569	7.32303	5.69569	0
738	-62.65259	-30.91946	31.73313	46.37919	-48.8202	-0.81367	-10.57771	-48.00653	-38.24249	5.69569	4.88202	3.25468	0
739	-69.97562	-40.6835	29.29212	53.70222	-51.26121	-5.69569	-13.01872	-48.00653	-40.6835	3.25468	4.88202	3.25468	0
740	-67.53461	-26.03744	41.49717	46.37919	-56.14323	6.50936	-15.45973	-48.00653	-43.12451	5.69569	4.88202	5.69569	0
741	-77.29865	-28.47845	48.8202	51.26121	-63.46626	8.95037	-20.34175	-50.44754	-45.56552	0.81367	-0.81367	0.81367	0
742	-74.85764	-21.15542	53.70222	46.37919	-65.90727	16.2734	-20.34175	-48.00653	-38.24249	0.81367	-0.81367	0.81367	0
743	-72.41663	-13.83239	58.58424	41.49717	-65.90727	21.15542	-15.45973	-48.00653	-30.91946	-7.32303	-8.1367	-9.76404	0
744	-77.29865	-18.71441	58.58424	46.37919	-68.34828	18.71441	-15.45973	-48.00653	-28.47845	-7.32303	-8.1367	-7.32303	0
745	-77.29865	-18.71441	58.58424	46.37919	-68.34828	18.71441	-17.90074	-48.00653	-26.03744	-14.64606	-13.01872	-14.64606	0
746	-72.41663	-28.47845	43.93818	48.8202	-58.58424	6.50936	-13.01872	-45.56552	-18.71441	-12.20505	-13.01872	-14.64606	0
747	-67.53461	-26.03744	41.49717	46.37919	-56.14323	6.50936	-13.01872	-45.56552	-16.2734	-7.32303	-8.1367	-9.76404	0
748	-65.0936	-23.59643	41.49717	43.93818	-53.70222	8.95037	-13.01872	-45.56552	-16.2734	-4.88202	-5.69569	-7.32303	0
749	-65.0936	-28.47845	36.61515	46.37919	-51.26121	4.06835	-13.01872	-45.56552	-18.71441	-7.32303	-8.1367	-9.76404	0
750	-62.65259	-13.83239	48.8202	36.61515	-56.14323	16.2734	-13.01872	-45.56552	-21.15542	-7.32303	-8.1367	-7.32303	0
751	-57.77057	-13.83239	43.93818	34.17414	-51.26121	13.83239	-13.01872	-43.12451	-23.59643	-12.20505	-13.01872	-12.20505	0
752	-72.41663	-23.59643	48.8202	46.37919	-61.02525	11.39138	-13.01872	-43.12451	-23.59643	-14.64606	-17.90074	-17.08707	0
753	-94.38572	-35.80148	58.58424	63.46626	-78.11232	11.39138	-13.01872	-40.6835	-26.03744	-24.4101	-27.66478	-26.85111	0
754	-128.55986	-60.21158	68.34828	92.75838	-100.08141	4.06835	-17.90074	-40.6835	-28.47845	-31.73313	-30.10579	-31.73313	0
755	-143.20592	-69.97562	73.2303	104.96343	-109.84545	1.62734	-17.90074	-40.6835	-28.47845	-31.73313	-30.10579	-31.73313	0
756	-128.55986	-65.0936	63.46626	95.19939	-97.6404	-0.81367	-8.1367	-30.91946	-18.71441	-34.17414	-34.98781	-34.17414	0
757	-111.47279	-45.56552	65.90727	78.11232	-90.31737	8.95037	1.62734	-21.15542	-11.39138	-41.49717	-42.31084	-41.49717	0
758	-96.82673	-28.47845	68.34828	61.02525	-82.99434	18.71441	6.50936	-16.2734	-4.06835	-53.70222	-54.51589	-53.70222	0
759	-67.53461	-3.25468	63.46626	34.17414	-65.90727	28.47845	12.20505	-8.95037	3.25468	-61.02525	-61.83892	-61.02525	0
760	-40.6835	28.47845	68.34828	6.50936	-53.70222	48.00653	12.20505	-6.50936	3.25468	-68.34828	-71.60296	-68.34828	0
761	-6.50936	52.88855	58.58424	-22.78276	-31.73313	55.32956	14.64606	-4.06835	8.95037	-85.43535	-86.24902	-82.99434	0
762	-8.95037	52.88855	61.02525	-22.78276	-34.17414	55.32956	9.76404	-6.50936	6.50936	-85.43535	-86.24902	-82.99434	0
763	-28.47845	30.91946	58.58424	-0.81367	-43.93818	43.12451	4.06835	-13.83239	-1.62734	-80.55333	-83.80801	-80.55333	0
764	-35.80148	23.59643	58.58424	6.50936	-46.37919	40.6835	-0.81367	-18.71441	-4.06835	-73.2303	-71.60296	-70.78929	0
765	-45.56552	21.15542	65.90727	12.20505	-56.14323	43.12451	-5.69569	-21.15542	-8.95037	-63.46626	-64.27993	-63.46626	0
766	-60.21158	-3.25468	56.14323	31.73313	-58.58424	26.03744	-5.69569	-21.15542	-11.39138	-58.58424	-56.9569	-58.58424	0
767	-74.85764	-8.1367	65.90727	41.49717	-70.78929	28.47845	-3.25468	-21.15542	-8.95037	-51.26121	-52.07488	-51.26121	0
768	-79.73966	-8.1367	70.78929	43.93818	-75.67131	30.91946	-3.25468	-21.15542	-11.39138	-51.26121	-52.07488	-51.26121	0
769	-72.41663	-0.81367	70.78929	36.61515	-70.78929	33.36047	-3.25468	-16.2734	-8.95037	-56.14323	-56.9569	-56.14323	0
770	-67.53461	18.71441	85.43535	24.4101	-75.67131	50.44754	-3.25468	-16.2734	-6.50936	-53.70222	-54.51589	-51.26121	0
771	-65.0936	21.15542	85.43535	21.96909	-75.67131	52.88855	-3.25468	-16.2734	-4.06835	-43.93818	-44.75185	-41.49717	0
772	-69.97562	16.2734	85.43535	26.85111	-78.11232	50.44754	-3.25468	-18.71441	-1.62734	-39.05616	-42.31084	-39.05616	0
773	-62.65259	23.59643	85.43535	19.52808	-73.2303	52.88855	-3.25468	-18.71441	-1.62734	-36.61515	-39.86983	-36.61515	0
774	-55.32956	30.91946	85.43535	12.20505	-70.78929	57.77057	-0.81367	-16.2734	0.81367	-26.85111	-25.22377	-24.4101	0
775	-62.65259	30.91946	92.75838	14.64606	-78.11232	60.21158	-0.81367	-16.2734	0.81367	-12.20505	-10.57771	-12.20505	0
776	-84.62168	1.62734	85.43535	41.49717	-85.43535	43.12451	-3.25468	-18.71441	-1.62734	-4.88202	-5.69569	-4.88202	0
777	-104.14976	-8.1367	95.19939	56.14323	-100.08141	43.12451	-5.69569	-18.71441	-4.06835	-4.88202	-3.25468	-4.88202	0
778	-111.47279	-5.69569	104.96343	58.58424	-107.40444	48.00653	-8.1367	-21.15542	-4.06835	-7.32303	-10.57771	-9.76404	0
779	-96.82673	11.39138	107.40444	41.49717	-102.52242	57.77057	-3.25468	-16.2734	3.25468	-4.88202	-5.69569	-7.32303	0
780	-82.18067	40.6835	122.0505	19.52808	-102.52242	79.73966	-0.81367	-11.39138	8.95037	-7.32303	-10.57771	-7.32303	0
781	-74.85764	50.44754	124.49151	12.20505	-100.08141	87.06269	-0.81367	-11.39138	16.2734	-9.76404	-13.01872	-12.20505	0
782	-67.53461	57.77057	124.49151	4.06835	-95.19939	89.5037	-3.25468	-11.39138	18.71441	-12.20505	-13.01872	-9.76404	0
783	-52.88855	74.85764	126.93252	-10.57771	-90.31737	99.26774	-3.25468	-8.95037	21.15542	-12.20505	-13.01872	-9.76404	0
784	-45.56552	82.18067	126.93252	-17.90074	-85.43535	104.14976	1.62734	-6.50936	21.15542	-12.20505	-13.01872	-12.20505	0
785	-55.32956	69.97562	124.49151	-8.1367	-90.31737	96.82673	-0.81367	-6.50936	16.2734	-9.76404	-10.57771	-9.76404	0
786	-69.97562	45.56552	114.72747	12.20505	-92.75838	79.73966	-0.81367	-8.95037	11.39138	-7.32303	-5.69569	-7.32303	0
787	-65.0936	52.88855	117.16848	6.50936	-90.31737	84.62168	4.06835	-4.06835	11.39138	-7.32303	-5.69569	-7.32303	0
788	-50.44754	72.41663	122.0505	-10.57771	-85.43535	96.82673	9.76404	5.69569	16.2734	-17.08707	-17.90074	-17.08707	0
789	-43.12451	79.73966	122.0505	-17.90074	-82.99434	99.26774	14.64606	8.95037	18.71441	-26.85111	-27.66478	-26.85111	0
790	-30.91946	104.14976	134.25555	-37.42882	-82.99434	118.79582	14.64606	13.83239	23.59643	-26.85111	-27.66478	-26.85111	0
791	-18.71441	118.79582	136.69656	-49.63387	-78.11232	126.11885	17.08707	18.71441	30.91946	-29.29212	-30.10579	-29.29212	0
792	-18.71441	126.11885	144.01959	-54.51589	-80.55333	133.44188	19.52808	21.15542	35.80148	-26.85111	-27.66478	-26.85111	0
793	-38.24249	121.23683	158.66565	-42.31084	-97.6404	138.3239	14.64606	21.15542	38.24249	-31.73313	-32.5468	-31.73313	0
794	-57.77057	109.03178	165.98868	-25.22377	-112.28646	135.88289	14.64606	18.71441	38.24249	-26.85111	-27.66478	-26.85111	0
795	-72.41663	109.03178	180.63474	-17.90074	-126.93252	143.20592	14.64606	21.15542	43.12451	-21.96909	-22.78276	-21.96909	0
796	-89.5037	94.38572	183.07575	-3.25468	-136.69656	138.3239	17.08707	23.59643	48.00653	-24.4101	-22.78276	-24.4101	0
797	-106.59077	91.94471	197.72181	6.50936	-151.34262	143.20592	14.64606	21.15542	48.00653	-19.52808	-17.90074	-17.08707	0
798	-133.44188	79.73966	212.36787	26.85111	-173.31171	145.64693	9.76404	16.2734	43.12451	-17.08707	-15.45973	-17.08707	0
799	-150.52895	69.97562	219.6909	39.05616	-185.51676	143.20592	6.50936	13.83239	43.12451	-19.52808	-20.34175	-19.52808	0
800	-143.20592	94.38572	236.77797	24.4101	-190.39878	165.17501	6.50936	16.2734	45.56552	-24.4101	-25.22377	-21.96909	0
801	-128.55986	113.9138	241.65999	6.50936	-185.51676	177.38006	14.64606	23.59643	48.00653	-21.96909	-22.78276	-21.96909	0
802	-106.59077	131.00087	236.77797	-13.01872	-170.8707	182.26208	17.08707	26.03744	52.88855	-21.96909	-25.22377	-21.96909	0
803	-82.18067	152.96996	234.33696	-34.98781	-158.66565	192.02612	24.4101	30.91946	55.32956	-19.52808	-20.34175	-19.52808	0
804	-65.0936	160.29299	224.57292	-47.19286	-144.01959	192.02612	26.85111	33.36047	55.32956	-19.52808	-20.34175	-17.08707	0
805	-38.24249	182.26208	219.6909	-71.60296	-129.37353	199.34915	34.17414	40.6835	60.21158	-14.64606	-15.45973	-12.20505	0
806	-13.83239	189.58511	202.60383	-88.69003	-107.40444	194.46713	43.93818	48.00653	67.53461	-9.76404	-8.1367	-9.76404	0
807	-16.2734	192.02612	207.48585	-88.69003	-112.28646	199.34915	43.93818	48.00653	67.53461	0.81367	2.44101	0.81367	0
808	-28.47845	196.90814	224.57292	-83.80801	-126.93252	209.11319	46.37919	50.44754	72.41663	-2.44101	-0.81367	-2.44101	0
809	-43.12451	196.90814	239.21898	-76.48498	-141.57858	216.43622	46.37919	52.88855	77.29865	-2.44101	-0.81367	-2.44101	0
810	-50.44754	211.5542	261.18807	-81.367	-156.22464	235.9643	43.93818	55.32956	77.29865	-7.32303	-8.1367	-4.88202	0
811	-43.12451	228.64127	270.95211	-93.57205	-156.22464	248.16935	53.70222	65.0936	84.62168	-12.20505	-10.57771	-9.76404	0
812	-50.44754	226.20026	275.83413	-88.69003	-163.54767	250.61036	53.70222	65.0936	87.06269	-14.64606	-13.01872	-12.20505	0
813	-55.32956	218.87723	273.39312	-81.367	-163.54767	245.72834	51.26121	62.65259	87.06269	-12.20505	-13.01872	-12.20505	0
814	-40.6835	211.5542	251.42403	-86.24902	-146.4606	231.08228	51.26121	60.21158	84.62168	-14.64606	-13.01872	-12.20505	0
815	-30.91946	204.23117	234.33696	-86.24902	-131.81454	218.87723	48.8202	55.32956	79.73966	-4.88202	-5.69569	-4.88202	0
816	-38.24249	177.38006	214.80888	-69.16195	-126.93252	194.46713	48.8202	52.88855	79.73966	-2.44101	-0.81367	0.81367	0
817	-38.24249	174.93905	212.36787	-69.16195	-124.49151	192.02612	51.26121	52.88855	79.73966	0.81367	2.44101	3.25468	0
818	-35.80148	179.82107	214.80888	-71.60296	-124.49151	196.90814	51.26121	52.88855	77.29865	-2.44101	-0.81367	-2.44101	0
819	-43.12451	170.05703	212.36787	-64.27993	-126.93252	189.58511	48.8202	50.44754	72.41663	-2.44101	-3.25468	-2.44101	0
820	-45.56552	182.26208	227.01393	-69.16195	-136.69656	204.23117	48.8202	50.44754	67.53461	-7.32303	-8.1367	-7.32303	0
821	-52.88855	182.26208	234.33696	-64.27993	-144.01959	206.67218	51.26121	52.88855	67.53461	-9.76404	-10.57771	-9.76404	0
822	-43.12451	196.90814	239.21898	-76.48498	-141.57858	216.43622	53.70222	55.32956	67.53461	-17.08707	-20.34175	-17.08707	0
823	-33.36047	206.67218	239.21898	-86.24902	-136.69656	221.31824	56.14323	60.21158	69.97562	-21.96909	-25.22377	-21.96909	0
824	-30.91946	199.34915	229.45494	-83.80801	-129.37353	213.99521	53.70222	57.77057	67.53461	-26.85111	-27.66478	-26.85111	0
825	-18.71441	209.11319	227.01393	-96.01306	-122.0505	216.43622	56.14323	60.21158	72.41663	-29.29212	-32.5468	-29.29212	0
826	-16.2734	199.34915	214.80888	-91.13104	-114.72747	206.67218	61.02525	62.65259	79.73966	-29.29212	-30.10579	-29.29212	0
827	-18.71441	194.46713	212.36787	-88.69003	-114.72747	201.79016	56.14323	60.21158	79.73966	-31.73313	-32.5468	-31.73313	0
828	-30.91946	182.26208	212.36787	-76.48498	-122.0505	196.90814	51.26121	55.32956	74.85764	-29.29212	-30.10579	-29.29212	0
829	-40.6835	162.734	202.60383	-61.83892	-122.0505	182.26208	46.37919	48.00653	69.97562	-29.29212	-30.10579	-29.29212	0
830	-30.91946	179.82107	209.92686	-74.04397	-119.60949	194.46713	43.93818	45.56552	69.97562	-29.29212	-32.5468	-29.29212	0
831	-13.83239	194.46713	207.48585	-91.13104	-109.84545	199.34915	51.26121	52.88855	77.29865	-31.73313	-34.98781	-31.73313	0
832	4.06835	209.11319	205.04484	-105.7771	-100.08141	206.67218	56.14323	57.77057	82.18067	-39.05616	-42.31084	-39.05616	0
833	13.83239	209.11319	195.2808	-110.65912	-90.31737	201.79016	56.14323	57.77057	82.18067	-46.37919	-49.63387	-46.37919	0
834	18.71441	199.34915	180.63474	-108.21811	-80.55333	189.58511	56.14323	57.77057	82.18067	-46.37919	-47.19286	-43.93818	0
835	18.71441	192.02612	173.31171	-105.7771	-78.11232	182.26208	56.14323	57.77057	82.18067	-46.37919	-49.63387	-46.37919	0
836	8.95037	165.17501	156.22464	-86.24902	-73.2303	160.29299	56.14323	57.77057	79.73966	-43.93818	-44.75185	-43.93818	0
837	-6.50936	140.76491	146.4606	-66.72094	-75.67131	143.20592	51.26121	52.88855	72.41663	-36.61515	-37.42882	-36.61515	0
838	-18.71441	113.9138	131.81454	-47.19286	-75.67131	121.23683	41.49717	40.6835	60.21158	-39.05616	-37.42882	-39.05616	0
839	-26.03744	94.38572	119.60949	-34.98781	-73.2303	106.59077	34.17414	33.36047	48.00653	-26.85111	-27.66478	-26.85111	0
840	-16.2734	99.26774	114.72747	-42.31084	-65.90727	106.59077	29.29212	23.59643	38.24249	-24.4101	-25.22377	-24.4101	0
841	-0.81367	96.82673	97.6404	-47.19286	-48.8202	96.82673	24.4101	18.71441	35.80148	-24.4101	-25.22377	-21.96909	0
842	16.2734	91.94471	75.67131	-54.51589	-29.29212	84.62168	21.96909	16.2734	33.36047	-29.29212	-27.66478	-26.85111	0
843	18.71441	82.18067	63.46626	-49.63387	-21.96909	72.41663	19.52808	11.39138	28.47845	-29.29212	-27.66478	-26.85111	0
844	18.71441	67.53461	48.8202	-42.31084	-14.64606	57.77057	14.64606	5.69569	23.59643	-26.85111	-25.22377	-26.85111	0
845	13.83239	55.32956	41.49717	-34.98781	-14.64606	48.00653	12.20505	-1.62734	21.15542	-17.08707	-15.45973	-17.08707	0
846	4.06835	23.59643	19.52808	-13.01872	-7.32303	21.15542	9.76404	-4.06835	18.71441	-17.08707	-15.45973	-17.08707	0
847	-6.50936	1.62734	7.32303	1.62734	-7.32303	4.06835	4.06835	-11.39138	11.39138	-9.76404	-8.1367	-7.32303	0
848	-13.83239	-13.83239	0	12.20505	-7.32303	-8.1367	-3.25468	-21.15542	3.25468	-4.88202	-3.25468	-4.88202	0
849	-16.2734	-23.59643	-8.1367	19.52808	-4.88202	-16.2734	-8.1367	-26.03744	-1.62734	5.69569	4.88202	5.69569	0
850	-23.59643	-26.03744	-2.44101	24.4101	-12.20505	-16.2734	-20.34175	-38.24249	-11.39138	15.45973	14.64606	13.01872	0
851	-30.91946	-43.12451	-13.01872	36.61515	-9.76404	-28.47845	-27.66478	-43.12451	-16.2734	27.66478	26.85111	27.66478	0
852	-45.56552	-62.65259	-17.90074	53.70222	-14.64606	-40.6835	-32.5468	-48.00653	-23.59643	27.66478	26.85111	27.66478	0
853	-60.21158	-77.29865	-17.90074	68.34828	-21.96909	-48.00653	-34.98781	-50.44754	-26.03744	30.10579	29.29212	30.10579	0
854	-48.00653	-65.0936	-17.90074	56.14323	-17.08707	-43.12451	-30.10579	-43.12451	-18.71441	32.5468	31.73313	32.5468	0
855	-28.47845	-45.56552	-17.90074	36.61515	-7.32303	-33.36047	-22.78276	-35.80148	-11.39138	30.10579	29.29212	30.10579	0
856	-8.95037	-33.36047	-25.22377	19.52808	8.1367	-30.91946	-13.01872	-23.59643	0.81367	22.78276	24.4101	25.22377	0
857	4.06835	-16.2734	-20.34175	6.50936	10.57771	-18.71441	-8.1367	-13.83239	6.50936	10.57771	9.76404	13.01872	0
858	21.15542	1.62734	-20.34175	-10.57771	20.34175	-8.1367	-3.25468	-8.95037	8.95037	3.25468	4.88202	5.69569	0
859	33.36047	11.39138	-22.78276	-22.78276	27.66478	-5.69569	-3.25468	-8.95037	8.95037	3.25468	2.44101	5.69569	0
860	28.47845	11.39138	-17.90074	-20.34175	22.78276	-3.25468	-8.1367	-13.83239	3.25468	0.81367	-0.81367	0.81367	0
861	8.95037	-13.83239	-22.78276	1.62734	15.45973	-18.71441	-17.90074	-21.15542	0.81367	3.25468	2.44101	5.69569	0
862	-6.50936	-38.24249	-32.5468	21.96909	13.01872	-35.80148	-27.66478	-33.36047	-8.95037	13.01872	9.76404	13.01872	0
863	-16.2734	-57.77057	-42.31084	36.61515	13.01872	-50.44754	-37.42882	-40.6835	-18.71441	15.45973	14.64606	17.90074	0
864	-16.2734	-74.85764	-59.39791	43.93818	20.34175	-67.53461	-44.75185	-48.00653	-23.59643	20.34175	19.52808	22.78276	0
865	-18.71441	-79.73966	-61.83892	48.8202	20.34175	-72.41663	-52.07488	-52.88855	-26.03744	17.90074	17.08707	20.34175	0
866	-11.39138	-89.5037	-78.92599	48.8202	32.5468	-84.62168	-52.07488	-50.44754	-21.15542	10.57771	12.20505	10.57771	0
867	-8.95037	-82.18067	-74.04397	43.93818	32.5468	-79.73966	-49.63387	-50.44754	-18.71441	3.25468	4.88202	3.25468	0
868	-16.2734	-79.73966	-64.27993	46.37919	22.78276	-72.41663	-49.63387	-50.44754	-18.71441	-2.44101	-0.81367	-2.44101	0
869	-23.59643	-79.73966	-56.9569	51.26121	15.45973	-69.97562	-49.63387	-50.44754	-18.71441	-14.64606	-15.45973	-14.64606	0
870	-38.24249	-72.41663	-34.98781	53.70222	-2.44101	-55.32956	-52.07488	-52.88855	-23.59643	-19.52808	-20.34175	-19.52808	0
871	-43.12451	-72.41663	-30.10579	56.14323	-7.32303	-52.88855	-47.19286	-48.00653	-23.59643	-19.52808	-20.34175	-19.52808	0
872	-35.80148	-72.41663	-37.42882	53.70222	0	-55.32956	-44.75185	-45.56552	-26.03744	-17.08707	-17.90074	-14.64606	0
873	-16.2734	-60.21158	-44.75185	36.61515	13.01872	-52.88855	-39.86983	-35.80148	-21.15542	-12.20505	-13.01872	-12.20505	0
874	-11.39138	-62.65259	-52.07488	36.61515	20.34175	-57.77057	-37.42882	-30.91946	-18.71441	-14.64606	-15.45973	-12.20505	0
875	-6.50936	-57.77057	-52.07488	31.73313	22.78276	-55.32956	-34.98781	-26.03744	-13.83239	-14.64606	-15.45973	-14.64606	0
876	-3.25468	-65.0936	-61.83892	34.17414	27.66478	-62.65259	-30.10579	-18.71441	-6.50936	-4.88202	-3.25468	-4.88202	0
877	4.06835	-60.21158	-64.27993	26.85111	32.5468	-62.65259	-27.66478	-18.71441	-1.62734	-2.44101	-0.81367	-2.44101	0
878	-3.25468	-65.0936	-61.83892	34.17414	27.66478	-62.65259	-32.5468	-23.59643	-1.62734	0.81367	2.44101	0.81367	0
879	-30.91946	-87.06269	-56.9569	58.58424	13.01872	-72.41663	-42.31084	-33.36047	-11.39138	0.81367	2.44101	3.25468	0
880	-33.36047	-79.73966	-47.19286	56.14323	5.69569	-65.0936	-47.19286	-38.24249	-16.2734	-2.44101	-0.81367	-2.44101	0
881	-16.2734	-65.0936	-49.63387	39.05616	15.45973	-57.77057	-47.19286	-35.80148	-13.83239	-2.44101	-3.25468	-2.44101	0
882	-3.25468	-55.32956	-52.07488	29.29212	22.78276	-52.88855	-44.75185	-33.36047	-11.39138	-2.44101	-0.81367	0.81367	0
883	6.50936	-43.12451	-49.63387	17.08707	27.66478	-45.56552	-39.86983	-30.91946	-6.50936	3.25468	2.44101	3.25468	0
884	16.2734	-35.80148	-52.07488	8.95037	32.5468	-43.12451	-37.42882	-26.03744	-4.06835	-2.44101	-3.25468	-2.44101	0
885	28.47845	-23.59643	-52.07488	-3.25468	39.86983	-38.24249	-32.5468	-21.15542	0.81367	-2.44101	-0.81367	-2.44101	0
886	33.36047	-26.03744	-59.39791	-3.25468	44.75185	-43.12451	-27.66478	-13.83239	3.25468	8.1367	7.32303	8.1367	0
887	8.95037	-45.56552	-54.51589	17.08707	30.10579	-50.44754	-32.5468	-16.2734	0.81367	13.01872	14.64606	15.45973	0
888	-18.71441	-72.41663	-54.51589	43.93818	17.90074	-65.0936	-39.86983	-21.15542	-8.95037	20.34175	19.52808	20.34175	0
889	-30.91946	-91.94471	-61.83892	61.02525	15.45973	-77.29865	-52.07488	-30.91946	-21.15542	20.34175	19.52808	22.78276	0
890	-45.56552	-96.82673	-52.07488	70.78929	3.25468	-74.85764	-64.27993	-43.12451	-35.80148	20.34175	19.52808	20.34175	0
891	-65.0936	-113.9138	-49.63387	87.87636	-9.76404	-82.18067	-69.16195	-50.44754	-43.12451	27.66478	26.85111	27.66478	0
892	-84.62168	-131.00087	-47.19286	107.40444	-19.52808	-89.5037	-74.04397	-52.88855	-45.56552	22.78276	21.96909	22.78276	0
893	-96.82673	-143.20592	-47.19286	119.60949	-26.85111	-96.82673	-78.92599	-60.21158	-52.88855	13.01872	12.20505	13.01872	0
894	-77.29865	-133.44188	-56.9569	104.96343	-12.20505	-96.82673	-78.92599	-60.21158	-50.44754	8.1367	9.76404	8.1367	0
895	-55.32956	-106.59077	-52.07488	80.55333	-2.44101	-79.73966	-71.60296	-55.32956	-45.56552	3.25468	4.88202	3.25468	0
896	-40.6835	-94.38572	-54.51589	65.90727	5.69569	-74.85764	-56.9569	-40.6835	-30.91946	0.81367	2.44101	0.81367	0
897	-21.15542	-60.21158	-39.86983	39.05616	8.1367	-50.44754	-42.31084	-26.03744	-13.83239	3.25468	4.88202	3.25468	0
898	-0.81367	-30.91946	-30.10579	14.64606	13.01872	-30.91946	-32.5468	-16.2734	-1.62734	8.1367	9.76404	8.1367	0
899	21.15542	-8.1367	-30.10579	-5.69569	25.22377	-18.71441	-27.66478	-8.95037	3.25468	13.01872	14.64606	13.01872	0
900	26.03744	11.39138	-15.45973	-17.90074	20.34175	-0.81367	-27.66478	-6.50936	3.25468	22.78276	21.96909	22.78276	0
901	1.62734	-10.57771	-13.01872	4.06835	8.1367	-11.39138	-34.98781	-13.83239	0.81367	20.34175	21.96909	22.78276	0
902	-18.71441	-35.80148	-17.90074	26.85111	-2.44101	-28.47845	-44.75185	-21.15542	-4.06835	20.34175	19.52808	20.34175	0
903	-38.24249	-55.32956	-17.90074	46.37919	-12.20505	-38.24249	-54.51589	-30.91946	-11.39138	15.45973	17.08707	17.90074	0
904	-50.44754	-67.53461	-17.90074	58.58424	-17.08707	-43.12451	-54.51589	-30.91946	-13.83239	8.1367	9.76404	10.57771	0
905	-52.88855	-67.53461	-15.45973	58.58424	-19.52808	-43.12451	-49.63387	-28.47845	-11.39138	-2.44101	-0.81367	0.81367	0
906	-48.00653	-79.73966	-32.5468	63.46626	-9.76404	-57.77057	-47.19286	-23.59643	-11.39138	-4.88202	-3.25468	-2.44101	0
907	-38.24249	-69.97562	-32.5468	53.70222	-4.88202	-52.88855	-39.86983	-18.71441	-8.95037	-4.88202	-3.25468	-2.44101	0
908	-23.59643	-52.88855	-30.10579	36.61515	3.25468	-43.12451	-34.98781	-13.83239	-4.06835	-2.44101	-0.81367	-2.44101	0
909	-18.71441	-52.88855	-34.98781	34.17414	8.1367	-45.56552	-34.98781	-11.39138	-6.50936	0.81367	-0.81367	0.81367	0
910	-3.25468	-38.24249	-34.98781	19.52808	15.45973	-35.80148	-34.98781	-13.83239	-11.39138	3.25468	2.44101	3.25468	0
911	-0.81367	-48.00653	-47.19286	24.4101	22.78276	-48.00653	-47.19286	-23.59643	-21.15542	8.1367	7.32303	8.1367	0
912	-6.50936	-57.77057	-52.07488	31.73313	22.78276	-55.32956	-52.07488	-33.36047	-26.03744	10.57771	7.32303	10.57771	0
913	-6.50936	-55.32956	-49.63387	29.29212	20.34175	-52.88855	-54.51589	-33.36047	-28.47845	8.1367	7.32303	8.1367	0
914	-6.50936	-57.77057	-52.07488	31.73313	22.78276	-55.32956	-52.07488	-35.80148	-28.47845	0.81367	-0.81367	0.81367	0
915	6.50936	-40.6835	-47.19286	17.08707	25.22377	-43.12451	-42.31084	-30.91946	-23.59643	-9.76404	-10.57771	-9.76404	0
916	16.2734	-45.56552	-61.83892	14.64606	37.42882	-52.88855	-37.42882	-30.91946	-21.15542	-17.08707	-15.45973	-17.08707	0
917	18.71441	-45.56552	-64.27993	12.20505	39.86983	-55.32956	-37.42882	-30.91946	-26.03744	-19.52808	-17.90074	-19.52808	0
918	26.03744	-38.24249	-64.27993	6.50936	44.75185	-50.44754	-34.98781	-28.47845	-23.59643	-14.64606	-15.45973	-14.64606	0
919	18.71441	-45.56552	-64.27993	12.20505	39.86983	-55.32956	-34.98781	-28.47845	-26.03744	-9.76404	-10.57771	-9.76404	0
920	11.39138	-48.00653	-59.39791	17.08707	34.98781	-52.88855	-42.31084	-35.80148	-33.36047	0.81367	-0.81367	3.25468	0
921	-6.50936	-72.41663	-66.72094	39.05616	30.10579	-69.97562	-54.51589	-43.12451	-38.24249	10.57771	9.76404	13.01872	0
922	-23.59643	-87.06269	-64.27993	53.70222	20.34175	-77.29865	-56.9569	-45.56552	-40.6835	20.34175	19.52808	20.34175	0
923	-30.91946	-87.06269	-56.9569	58.58424	13.01872	-72.41663	-52.07488	-43.12451	-38.24249	25.22377	26.85111	25.22377	0
924	-45.56552	-96.82673	-52.07488	70.78929	3.25468	-74.85764	-52.07488	-43.12451	-38.24249	34.98781	36.61515	37.42882	0
925	-57.77057	-104.14976	-47.19286	80.55333	-7.32303	-77.29865	-59.39791	-50.44754	-43.12451	37.42882	39.05616	37.42882	0
926	-65.0936	-118.79582	-54.51589	90.31737	-7.32303	-87.06269	-59.39791	-52.88855	-43.12451	39.86983	41.49717	39.86983	0
927	-60.21158	-109.03178	-49.63387	82.99434	-7.32303	-79.73966	-52.07488	-50.44754	-35.80148	39.86983	41.49717	39.86983	0
928	-45.56552	-89.5037	-44.75185	65.90727	-2.44101	-67.53461	-44.75185	-45.56552	-30.91946	49.63387	51.26121	47.19286	0
929	-26.03744	-74.85764	-49.63387	48.8202	10.57771	-62.65259	-42.31084	-45.56552	-30.91946	52.07488	51.26121	49.63387	0
930	-6.50936	-48.00653	-42.31084	26.85111	17.90074	-45.56552	-39.86983	-43.12451	-30.91946	54.51589	56.14323	54.51589	0
931	-0.81367	-38.24249	-37.42882	19.52808	17.90074	-38.24249	-37.42882	-43.12451	-30.91946	52.07488	51.26121	52.07488	0
932	13.83239	-28.47845	-42.31084	6.50936	27.66478	-35.80148	-30.10579	-35.80148	-28.47845	42.31084	43.93818	42.31084	0
933	23.59643	-21.15542	-44.75185	-0.81367	32.5468	-33.36047	-22.78276	-30.91946	-28.47845	39.86983	39.05616	39.86983	0
934	21.15542	-30.91946	-52.07488	4.06835	34.98781	-40.6835	-27.66478	-33.36047	-33.36047	25.22377	26.85111	27.66478	0
935	16.2734	-48.00653	-64.27993	14.64606	39.86983	-55.32956	-34.98781	-40.6835	-43.12451	22.78276	24.4101	22.78276	0
936	-0.81367	-84.62168	-83.80801	41.49717	39.86983	-84.62168	-42.31084	-48.00653	-48.00653	10.57771	14.64606	13.01872	0
937	1.62734	-96.82673	-98.45407	46.37919	49.63387	-96.82673	-47.19286	-52.88855	-52.88855	3.25468	4.88202	3.25468	0
938	6.50936	-96.82673	-103.33609	43.93818	54.51589	-99.26774	-52.07488	-57.77057	-55.32956	5.69569	4.88202	3.25468	0
939	6.50936	-94.38572	-100.89508	43.93818	52.07488	-96.82673	-52.07488	-57.77057	-52.88855	5.69569	4.88202	3.25468	0
940	8.95037	-72.41663	-81.367	31.73313	44.75185	-77.29865	-54.51589	-57.77057	-52.88855	13.01872	12.20505	13.01872	0
941	8.95037	-65.0936	-74.04397	26.85111	39.86983	-69.97562	-49.63387	-55.32956	-45.56552	15.45973	14.64606	15.45973	0
942	13.83239	-52.88855	-66.72094	19.52808	39.86983	-60.21158	-44.75185	-48.00653	-38.24249	22.78276	21.96909	22.78276	0
943	8.95037	-43.12451	-52.07488	17.08707	30.10579	-48.00653	-37.42882	-43.12451	-33.36047	32.5468	31.73313	32.5468	0
944	8.95037	-33.36047	-42.31084	12.20505	25.22377	-38.24249	-30.10579	-35.80148	-23.59643	47.19286	46.37919	47.19286	0
945	11.39138	-28.47845	-39.86983	8.95037	25.22377	-33.36047	-27.66478	-33.36047	-21.15542	47.19286	46.37919	47.19286	0
946	23.59643	-38.24249	-61.83892	6.50936	42.31084	-50.44754	-20.34175	-30.91946	-18.71441	39.86983	41.49717	42.31084	0
947	16.2734	-55.32956	-71.60296	19.52808	42.31084	-62.65259	-20.34175	-33.36047	-21.15542	44.75185	43.93818	44.75185	0
948	23.59643	-55.32956	-78.92599	14.64606	49.63387	-67.53461	-20.34175	-35.80148	-26.03744	44.75185	46.37919	44.75185	0
949	35.80148	-45.56552	-81.367	4.06835	56.9569	-62.65259	-15.45973	-33.36047	-26.03744	47.19286	46.37919	47.19286	0
950	40.6835	-28.47845	-69.16195	-5.69569	54.51589	-48.00653	-17.90074	-33.36047	-30.91946	39.86983	39.05616	39.86983	0
951	33.36047	-33.36047	-66.72094	-0.81367	49.63387	-50.44754	-20.34175	-38.24249	-38.24249	34.98781	34.17414	32.5468	0
952	18.71441	-40.6835	-59.39791	8.95037	37.42882	-50.44754	-20.34175	-40.6835	-38.24249	39.86983	39.05616	39.86983	0
953	16.2734	-30.91946	-47.19286	6.50936	30.10579	-38.24249	-17.90074	-38.24249	-35.80148	37.42882	36.61515	37.42882	0
954	13.83239	-30.91946	-44.75185	8.95037	27.66478	-38.24249	-15.45973	-35.80148	-30.91946	34.98781	34.17414	34.98781	0
955	-3.25468	-45.56552	-42.31084	24.4101	17.90074	-43.12451	-17.90074	-40.6835	-30.91946	27.66478	26.85111	27.66478	0
956	-16.2734	-72.41663	-56.9569	43.93818	20.34175	-65.0936	-15.45973	-40.6835	-30.91946	15.45973	17.08707	15.45973	0
957	-16.2734	-77.29865	-61.83892	46.37919	22.78276	-69.97562	-13.01872	-40.6835	-28.47845	10.57771	12.20505	13.01872	0
958	-6.50936	-62.65259	-56.9569	34.17414	25.22377	-60.21158	-8.1367	-35.80148	-23.59643	0.81367	-0.81367	0.81367	0
959	6.50936	-55.32956	-61.83892	24.4101	32.5468	-57.77057	-5.69569	-33.36047	-21.15542	-4.88202	-5.69569	-4.88202	0
960	4.06835	-48.00653	-52.07488	21.96909	27.66478	-50.44754	-10.57771	-38.24249	-30.91946	-4.88202	-5.69569	-4.88202	0
961	-6.50936	-57.77057	-52.07488	31.73313	22.78276	-55.32956	-13.01872	-43.12451	-35.80148	-4.88202	-5.69569	-4.88202	0
962	-13.83239	-67.53461	-54.51589	39.05616	20.34175	-62.65259	-17.90074	-48.00653	-40.6835	0.81367	-0.81367	0.81367	0
963	-8.95037	-67.53461	-59.39791	36.61515	25.22377	-65.0936	-17.90074	-50.44754	-43.12451	5.69569	4.88202	5.69569	0
964	-13.83239	-82.18067	-69.16195	46.37919	27.66478	-77.29865	-17.90074	-52.88855	-43.12451	5.69569	4.88202	5.69569	0
965	-18.71441	-96.82673	-78.92599	56.14323	30.10579	-89.5037	-22.78276	-60.21158	-45.56552	5.69569	4.88202	5.69569	0
966	-8.95037	-106.59077	-98.45407	56.14323	44.75185	-104.14976	-20.34175	-60.21158	-40.6835	0.81367	2.44101	0.81367	0
967	4.06835	-96.82673	-100.89508	46.37919	52.07488	-99.26774	-13.01872	-55.32956	-35.80148	-2.44101	-0.81367	-2.44101	0
968	13.83239	-84.62168	-98.45407	34.17414	54.51589	-91.94471	-8.1367	-52.88855	-30.91946	-4.88202	-3.25468	-4.88202	0
969	13.83239	-84.62168	-98.45407	34.17414	54.51589	-91.94471	-8.1367	-52.88855	-28.47845	-14.64606	-15.45973	-14.64606	0
970	6.50936	-74.85764	-81.367	34.17414	42.31084	-77.29865	-15.45973	-60.21158	-33.36047	-7.32303	-8.1367	-9.76404	0
971	11.39138	-67.53461	-78.92599	26.85111	44.75185	-72.41663	-15.45973	-60.21158	-33.36047	0.81367	-0.81367	0.81367	0
972	16.2734	-67.53461	-83.80801	24.4101	49.63387	-74.85764	-13.01872	-60.21158	-38.24249	8.1367	4.88202	5.69569	0
973	16.2734	-72.41663	-88.69003	26.85111	52.07488	-79.73966	-17.90074	-65.0936	-40.6835	15.45973	14.64606	15.45973	0
974	21.15542	-74.85764	-96.01306	26.85111	56.9569	-84.62168	-17.90074	-67.53461	-40.6835	20.34175	19.52808	20.34175	0
975	23.59643	-69.97562	-93.57205	21.96909	56.9569	-82.18067	-15.45973	-65.0936	-35.80148	25.22377	24.4101	25.22377	0
976	26.03744	-72.41663	-98.45407	21.96909	61.83892	-84.62168	-8.1367	-60.21158	-30.91946	27.66478	29.29212	27.66478	0
977	23.59643	-77.29865	-100.89508	26.85111	61.83892	-89.5037	-5.69569	-60.21158	-28.47845	22.78276	24.4101	22.78276	0
978	13.83239	-77.29865	-91.13104	31.73313	52.07488	-84.62168	-8.1367	-62.65259	-30.91946	22.78276	24.4101	22.78276	0
979	13.83239	-62.65259	-76.48498	24.4101	44.75185	-69.97562	-3.25468	-60.21158	-26.03744	25.22377	26.85111	25.22377	0
980	6.50936	-45.56552	-52.07488	19.52808	27.66478	-48.00653	-3.25468	-62.65259	-28.47845	27.66478	26.85111	27.66478	0
981	-6.50936	-55.32956	-49.63387	29.29212	20.34175	-52.88855	-5.69569	-67.53461	-33.36047	32.5468	31.73313	32.5468	0
982	-8.95037	-62.65259	-54.51589	34.17414	22.78276	-60.21158	-8.1367	-69.97562	-35.80148	39.86983	39.05616	39.86983	0
983	-6.50936	-55.32956	-49.63387	29.29212	20.34175	-52.88855	-5.69569	-69.97562	-35.80148	42.31084	41.49717	42.31084	0
984	-6.50936	-52.88855	-47.19286	29.29212	20.34175	-50.44754	-3.25468	-67.53461	-28.47845	44.75185	43.93818	44.75185	0
985	-23.59643	-69.97562	-47.19286	46.37919	10.57771	-60.21158	-3.25468	-67.53461	-28.47845	47.19286	46.37919	47.19286	0
986	-28.47845	-87.06269	-59.39791	56.14323	15.45973	-74.85764	-3.25468	-69.97562	-28.47845	47.19286	46.37919	47.19286	0
987	-16.2734	-79.73966	-64.27993	46.37919	22.78276	-72.41663	-0.81367	-67.53461	-28.47845	44.75185	46.37919	44.75185	0
988	1.62734	-55.32956	-56.9569	26.85111	27.66478	-55.32956	4.06835	-65.0936	-23.59643	34.98781	34.17414	34.98781	0
989	13.83239	-43.12451	-56.9569	14.64606	34.98781	-50.44754	4.06835	-65.0936	-23.59643	34.98781	34.17414	34.98781	0
990	23.59643	-16.2734	-39.86983	-3.25468	30.10579	-28.47845	4.06835	-67.53461	-26.03744	34.98781	31.73313	32.5468	0
991	26.03744	-5.69569	-32.5468	-10.57771	30.10579	-18.71441	4.06835	-69.97562	-26.03744	27.66478	24.4101	27.66478	0
992	21.15542	-0.81367	-22.78276	-10.57771	22.78276	-11.39138	6.50936	-69.97562	-26.03744	13.01872	9.76404	13.01872	0
993	8.95037	-5.69569	-15.45973	-0.81367	13.01872	-11.39138	6.50936	-67.53461	-21.15542	0.81367	-0.81367	-2.44101	0
994	8.95037	1.62734	-8.1367	-5.69569	8.1367	-3.25468	12.20505	-65.0936	-18.71441	0.81367	-0.81367	0.81367	0
995	8.95037	-3.25468	-13.01872	-3.25468	10.57771	-8.1367	12.20505	-65.0936	-21.15542	0.81367	-0.81367	0.81367	0
996	8.95037	-21.15542	-30.10579	6.50936	17.90074	-26.03744	9.76404	-65.0936	-23.59643	-2.44101	-0.81367	-2.44101	0
997	-0.81367	-38.24249	-37.42882	19.52808	17.90074	-38.24249	6.50936	-72.41663	-30.91946	0.81367	-0.81367	-2.44101	0
998	-0.81367	-38.24249	-37.42882	19.52808	17.90074	-38.24249	4.06835	-77.29865	-35.80148	10.57771	9.76404	10.57771	0
999	-0.81367	-40.6835	-39.86983	19.52808	17.90074	-40.6835	4.06835	-79.73966	-40.6835	32.5468	31.73313	30.10579	0
1000	-8.95037	-35.80148	-27.66478	21.96909	8.1367	-33.36047	-0.81367	-87.06269	-48.00653	42.31084	39.05616	39.86983	0
1001	-13.83239	-38.24249	-25.22377	24.4101	5.69569	-33.36047	-0.81367	-87.06269	-48.00653	42.31084	39.05616	39.86983	0
1002	-23.59643	-38.24249	-15.45973	29.29212	-4.88202	-28.47845	1.62734	-87.06269	-45.56552	42.31084	41.49717	42.31084	0
1003	-23.59643	-30.91946	-8.1367	26.85111	-9.76404	-21.15542	6.50936	-82.18067	-40.6835	49.63387	48.8202	49.63387	0
1004	1.62734	-5.69569	-8.1367	1.62734	5.69569	-5.69569	17.08707	-69.97562	-30.91946	54.51589	53.70222	54.51589	0
1005	33.36047	16.2734	-17.90074	-25.22377	25.22377	-0.81367	26.85111	-57.77057	-18.71441	52.07488	51.26121	52.07488	0
1006	67.53461	43.12451	-25.22377	-54.51589	47.19286	8.95037	36.61515	-45.56552	-8.95037	49.63387	48.8202	47.19286	0
1007	89.5037	45.56552	-44.75185	-66.72094	66.72094	1.62734	43.93818	-33.36047	3.25468	39.86983	39.05616	39.86983	0
1008	99.26774	50.44754	-49.63387	-74.04397	74.04397	1.62734	48.8202	-26.03744	6.50936	34.98781	34.17414	34.98781	0
1009	104.14976	52.88855	-52.07488	-78.92599	78.92599	1.62734	48.8202	-18.71441	13.83239	30.10579	29.29212	27.66478	0
1010	96.82673	50.44754	-47.19286	-74.04397	71.60296	1.62734	46.37919	-21.15542	13.83239	15.45973	14.64606	15.45973	0
1011	77.29865	28.47845	-49.63387	-52.07488	64.27993	-11.39138	39.05616	-23.59643	13.83239	10.57771	7.32303	8.1367	0
