samplenr	I	II	III	aVR	aVL	aVF	V1	V2	V3	V4	V5	V6	measurement
0	-89.5037	-176.56639	-87.87636	131.81454	-2.44101	-133.44188	-20.34175	6467.04916	-211.5542	-119.60949	-112.28646	-219.6909	0
1	-89.5037	-181.44841	-92.75838	134.25555	0	-138.3239	-22.78276	6374.29078	-216.43622	-119.60949	-114.72747	-219.6909	0
2	-84.62168	-171.68437	-87.87636	126.93252	0	-131.00087	-22.78276	6108.22069	-211.5542	-122.0505	-119.60949	-219.6909	0
3	-74.85764	-157.03831	-82.99434	114.72747	2.44101	-121.23683	-25.22377	5869.00171	-201.79016	-114.72747	-124.49151	-224.57292	0
4	-62.65259	-144.83326	-82.99434	102.52242	9.76404	-113.9138	-20.34175	5732.30515	-194.46713	-104.96343	-124.49151	-227.01393	0
5	-57.77057	-144.83326	-87.87636	100.08141	15.45973	-116.35481	-17.90074	5727.42313	-187.1441	-97.6404	-122.0505	-231.89595	0
6	-52.88855	-144.83326	-92.75838	97.6404	20.34175	-118.79582	-13.01872	5737.18717	-182.26208	-97.6404	-117.16848	-236.77797	0
7	-52.88855	-149.71528	-97.6404	100.08141	22.78276	-123.67784	-8.1367	5839.70959	-182.26208	-102.52242	-114.72747	-236.77797	0
8	-55.32956	-159.47932	-104.96343	104.96343	25.22377	-133.44188	-8.1367	6025.22635	-192.02612	-109.84545	-114.72747	-236.77797	0
9	-52.88855	-159.47932	-107.40444	104.96343	27.66478	-133.44188	-8.1367	6161.92291	-204.23117	-117.16848	-117.16848	-236.77797	0
10	-48.00653	-159.47932	-112.28646	102.52242	32.5468	-135.88289	-13.01872	6240.03523	-211.5542	-119.60949	-117.16848	-234.33696	0
11	-50.44754	-159.47932	-109.84545	102.52242	30.10579	-135.88289	-15.45973	6137.51281	-213.99521	-119.60949	-117.16848	-229.45494	0
12	-60.21158	-159.47932	-100.08141	107.40444	20.34175	-131.00087	-15.45973	5886.08878	-204.23117	-114.72747	-117.16848	-224.57292	0
13	-62.65259	-147.27427	-85.43535	102.52242	9.76404	-116.35481	-13.01872	5659.07485	-194.46713	-104.96343	-117.16848	-224.57292	0
14	-57.77057	-130.1872	-73.2303	92.75838	7.32303	-101.70875	-10.57771	5529.70132	-184.70309	-95.19939	-117.16848	-224.57292	0
15	-57.77057	-125.30518	-68.34828	90.31737	4.88202	-96.82673	-3.25468	5529.70132	-170.05703	-82.99434	-107.40444	-224.57292	0
16	-62.65259	-130.1872	-68.34828	95.19939	2.44101	-99.26774	2.44101	5546.78839	-157.85198	-73.2303	-97.6404	-222.13191	0
17	-57.77057	-127.74619	-70.78929	90.31737	4.88202	-99.26774	9.76404	5651.75182	-148.08794	-70.78929	-87.87636	-217.24989	0
18	-43.12451	-122.86417	-80.55333	80.55333	17.90074	-101.70875	17.08707	5839.70959	-145.64693	-70.78929	-80.55333	-209.92686	0
19	-28.47845	-115.54114	-87.87636	70.78929	30.10579	-101.70875	21.96909	5976.40615	-150.52895	-70.78929	-75.67131	-202.60383	0
20	-23.59643	-110.65912	-87.87636	65.90727	32.5468	-99.26774	21.96909	6054.51847	-155.41097	-70.78929	-75.67131	-202.60383	0
21	-30.91946	-108.21811	-78.11232	68.34828	22.78276	-94.38572	21.96909	5959.31908	-150.52895	-65.90727	-75.67131	-202.60383	0
22	-40.6835	-108.21811	-68.34828	73.2303	12.20505	-89.5037	26.85111	5722.54111	-138.3239	-61.02525	-78.11232	-205.04484	0
23	-48.00653	-108.21811	-61.02525	75.67131	4.88202	-84.62168	31.73313	5519.93728	-111.47279	-41.49717	-78.11232	-214.80888	0
24	-60.21158	-120.42316	-61.02525	87.87636	0	-91.94471	36.61515	5419.85587	-77.29865	-12.20505	-70.78929	-219.6909	0
25	-82.18067	-135.06922	-53.70222	107.40444	-14.64606	-94.38572	36.61515	5444.26597	-35.80148	21.96909	-56.14323	-229.45494	0
26	-91.94471	-142.39225	-51.26121	114.72747	-21.96909	-96.82673	36.61515	5483.32213	15.45973	61.83892	-26.85111	-224.57292	0
27	-89.5037	-139.95124	-51.26121	112.28646	-19.52808	-96.82673	36.61515	5617.57768	79.73966	120.42316	22.78276	-195.2808	0
28	-77.29865	-125.30518	-48.8202	100.08141	-14.64606	-87.06269	39.05616	5839.70959	155.41097	198.53548	88.69003	-151.34262	0
29	-60.21158	-103.33609	-43.93818	80.55333	-9.76404	-74.85764	39.05616	6025.22635	245.72834	293.73487	171.68437	-95.19939	0
30	-38.24249	-78.92599	-41.49717	56.14323	0	-60.21158	34.17414	3698.13015	350.69177	403.58032	269.32477	-28.47845	0
31	-1.62734	-32.5468	-31.73313	14.64606	15.45973	-33.36047	31.73313	1211.55463	477.62429	535.39486	379.17022	52.07488	0
32	43.12451	14.64606	-29.29212	-30.10579	37.42882	-5.69569	31.73313	-1418.22681	614.32085	676.97344	496.3387	139.95124	0
33	82.18067	56.14323	-26.85111	-69.16195	54.51589	16.2734	26.85111	-1584.21549	738.81236	816.11101	611.06617	220.50457	0
34	126.11885	87.87636	-39.05616	-108.21811	83.80801	26.03744	7.32303	-1696.50195	838.89377	943.04353	716.0296	296.17588	0
35	162.734	117.16848	-46.37919	-139.95124	105.7771	35.80148	-15.45973	-1718.47104	917.00609	1052.88898	818.55202	366.96517	0
36	201.79016	146.4606	-56.14323	-174.12538	130.1872	45.56552	-44.75185	-532.14018	965.82629	1140.76534	911.3104	432.87244	0
37	243.28733	183.07575	-61.02525	-213.18154	152.15629	62.65259	-74.04397	1943.04396	992.6774	1213.99564	1001.62777	510.98476	0
38	284.7845	227.01393	-58.58424	-257.11972	171.68437	84.62168	-103.33609	4486.57638	1002.44144	1277.4619	1094.38615	598.86112	0
39	321.39965	278.27514	-43.93818	-301.0579	183.88942	118.79582	-130.1872	5734.74616	978.03134	1321.40008	1174.93948	691.6195	0
40	350.69177	341.7414	-8.95037	-347.43709	181.44841	167.61602	-152.15629	5671.2799	904.80104	1311.63604	1231.08271	777.05485	0
41	367.77884	417.41271	49.63387	-393.81628	159.47932	233.52329	-171.68437	5383.24072	753.45842	1228.6417	1243.28776	845.40313	0
42	367.77884	500.40705	132.62821	-435.31345	117.98215	316.51763	-191.21245	4887.71569	514.23944	1067.53504	1206.67261	894.22333	0
43	345.80975	590.72442	244.91467	-469.48759	52.07488	419.04005	-213.18154	4349.87982	196.90814	838.0801	1121.23726	918.63343	0
44	309.1946	676.15977	366.96517	-493.89769	-29.29212	521.56247	-235.15063	3847.03176	-192.02612	537.83587	984.5407	906.42838	0
45	245.72834	717.65694	471.9286	-481.69264	-112.28646	594.79277	-257.11972	3434.50107	-633.84893	179.0074	789.2599	842.96212	0
46	170.05703	698.12886	528.07183	-435.31345	-178.19373	614.32085	-283.97083	3046.38048	-1085.43578	-212.36787	530.51284	713.58859	0
47	96.82673	632.22159	535.39486	-364.52416	-219.6909	585.02873	-301.0579	2802.27948	-1493.08445	-593.16543	244.91467	545.1589	0
48	35.80148	532.14018	496.3387	-283.97083	-229.45494	514.23944	-310.82194	2719.28514	-1829.94383	-922.70178	-41.49717	357.20113	0
49	-16.2734	397.88463	413.34436	-191.21245	-214.80888	404.39399	-313.26295	2670.46494	-2086.24988	-1196.0949	-314.89029	154.5973	0
50	-67.53461	231.89595	298.61689	-83.80801	-183.07575	265.25642	-313.26295	2646.05484	-2269.32563	-1415.7858	-578.51937	-60.21158	0
51	-109.03178	75.67131	183.88942	14.64606	-146.4606	128.55986	-315.70396	2519.12232	-2376.73007	-1581.77448	-812.85633	-266.07009	0
52	-133.44188	-34.98781	98.45407	82.99434	-117.16848	30.91946	-315.70396	2314.07748	-2406.02219	-1676.97387	-993.49107	-436.94079	0
53	-150.52895	-103.33609	47.19286	124.49151	-100.08141	-28.47845	-305.93992	2189.58597	-2364.52502	-1698.94296	-1103.33652	-558.99129	0
54	-170.05703	-130.1872	39.86983	148.90161	-104.96343	-45.56552	-293.73487	2204.23203	-2269.32563	-1664.76882	-1157.03874	-637.10361	0
55	-204.23117	-135.06922	69.16195	168.42969	-136.69656	-33.36047	-271.76578	2384.86677	-2122.86503	-1581.77448	-1154.59773	-678.60078	0
56	-231.08228	-125.30518	105.7771	175.75272	-168.42969	-10.57771	-252.2377	2611.8807	-1947.11231	-1471.92903	-1115.54157	-690.80583	0
57	-248.16935	-110.65912	137.51023	178.19373	-192.83979	13.83239	-232.70962	2948.74008	-1749.3905	-1340.11449	-1047.19329	-673.71876	0
58	-250.61036	-100.89508	149.71528	173.31171	-200.16282	23.59643	-205.85851	3385.68087	-1546.78667	-1193.65389	-961.75794	-639.54462	0
59	-250.61036	-93.57205	157.03831	170.8707	-205.04484	30.91946	-181.44841	3764.03742	-1353.94688	-1044.75228	-866.55855	-595.60644	0
60	-243.28733	-98.45407	144.83326	168.42969	-195.2808	23.59643	-157.03831	4069.16367	-1173.31214	-905.61471	-771.35916	-546.78624	0
61	-226.20026	-103.33609	122.86417	163.54767	-175.75272	8.95037	-135.06922	4176.56811	-1009.76447	-781.1232	-685.92381	-502.84806	0
62	-194.46713	-105.7771	88.69003	148.90161	-141.57858	-8.1367	-117.98215	4120.42488	-868.18589	-676.15977	-617.57553	-468.67392	0
63	-165.17501	-105.7771	59.39791	134.25555	-112.28646	-23.59643	-98.45407	4056.95862	-751.01741	-585.8424	-563.87331	-449.14584	0
64	-140.76491	-103.33609	37.42882	119.60949	-90.31737	-33.36047	-74.04397	4049.63559	-655.81802	-512.6121	-517.49412	-436.94079	0
65	-126.11885	-100.89508	25.22377	112.28646	-75.67131	-38.24249	-44.75185	4139.95296	-577.7057	-454.02786	-475.99695	-424.73574	0
66	-111.47279	-93.57205	17.90074	100.08141	-65.90727	-38.24249	-22.78276	4222.9473	-519.12146	-410.08968	-439.3818	-417.41271	0
67	-99.26774	-91.13104	8.1367	92.75838	-53.70222	-43.12451	-5.69569	4369.4079	-475.18328	-383.23857	-412.53069	-412.53069	0
68	-91.94471	-93.57205	-1.62734	90.31737	-46.37919	-48.00653	7.32303	4591.53981	-445.89116	-361.26948	-390.5616	-402.76665	0
69	-91.94471	-103.33609	-11.39138	95.19939	-41.49717	-57.77057	21.96909	4757.52849	-419.04005	-336.85938	-363.71049	-383.23857	0
70	-99.26774	-115.54114	-16.2734	104.96343	-41.49717	-67.53461	26.85111	4860.05091	-401.95298	-322.21332	-344.18241	-368.59251	0
71	-101.70875	-117.98215	-16.2734	107.40444	-43.93818	-67.53461	26.85111	4789.26162	-379.98389	-305.12625	-329.53635	-353.94645	0
72	-101.70875	-122.86417	-21.15542	109.84545	-41.49717	-72.41663	31.73313	4586.65779	-353.13278	-285.59817	-317.3313	-336.85938	0
73	-106.59077	-132.62821	-26.85111	117.16848	-41.49717	-79.73966	36.61515	4406.02305	-326.28167	-266.07009	-307.56726	-327.09534	0
74	-111.47279	-135.06922	-24.4101	122.0505	-43.93818	-79.73966	41.49717	4301.05962	-304.31258	-246.54201	-297.80322	-319.77231	0
75	-106.59077	-127.74619	-21.15542	114.72747	-43.93818	-74.85764	41.49717	4308.38265	-287.22551	-236.77797	-292.9212	-322.21332	0
76	-96.82673	-115.54114	-18.71441	104.96343	-39.05616	-67.53461	48.8202	4330.35174	-270.13844	-224.57292	-280.71615	-319.77231	0
77	-89.5037	-108.21811	-18.71441	97.6404	-36.61515	-65.0936	63.46626	4442.6382	-250.61036	-212.36787	-266.07009	-307.56726	0
78	-82.18067	-98.45407	-16.2734	87.87636	-34.17414	-57.77057	73.2303	4633.03698	-238.40531	-207.48585	-253.86504	-297.80322	0
79	-79.73966	-78.92599	0.81367	78.11232	-41.49717	-40.6835	78.11232	4767.29253	-233.52329	-197.72181	-244.101	-285.59817	0
80	-72.41663	-61.83892	10.57771	65.90727	-41.49717	-26.03744	80.55333	4855.16889	-223.75925	-187.95777	-231.89595	-273.39312	0
81	-69.97562	-52.07488	17.90074	58.58424	-43.93818	-17.90074	82.99434	4774.61556	-209.11319	-173.31171	-222.13191	-263.62908	0
82	-69.97562	-49.63387	20.34175	58.58424	-46.37919	-15.45973	90.31737	4574.45274	-182.26208	-151.34262	-207.48585	-248.98302	0
83	-74.85764	-39.86983	34.98781	56.14323	-56.14323	-3.25468	92.75838	4393.818	-157.85198	-126.93252	-197.72181	-239.21898	0
84	-74.85764	-30.10579	44.75185	51.26121	-61.02525	6.50936	92.75838	4288.85457	-135.88289	-104.96343	-187.95777	-234.33696	0
85	-72.41663	-19.52808	52.07488	43.93818	-61.02525	16.2734	95.19939	4305.94164	-111.47279	-80.55333	-170.8707	-227.01393	0
86	-67.53461	-14.64606	52.07488	39.05616	-58.58424	18.71441	102.52242	4332.79275	-87.06269	-61.02525	-151.34262	-217.24989	0
87	-62.65259	-12.20505	49.63387	36.61515	-56.14323	18.71441	112.28646	4447.52022	-62.65259	-41.49717	-129.37353	-200.16282	0
88	-60.21158	2.44101	61.83892	26.85111	-61.02525	30.91946	119.60949	4642.80102	-45.56552	-26.85111	-112.28646	-183.07575	0
89	-50.44754	7.32303	56.9569	19.52808	-53.70222	30.91946	122.0505	4781.93859	-33.36047	-14.64606	-95.19939	-165.98868	0
90	-40.6835	17.08707	56.9569	8.95037	-48.8202	35.80148	124.49151	4869.81495	-21.15542	0	-78.11232	-148.90161	0
91	-33.36047	19.52808	52.07488	6.50936	-41.49717	35.80148	122.0505	4791.70263	-1.62734	12.20505	-65.90727	-136.69656	0
92	-33.36047	14.64606	47.19286	8.95037	-39.05616	30.91946	114.72747	4586.65779	17.90074	26.85111	-61.02525	-131.81454	0
93	-40.6835	9.76404	49.63387	14.64606	-43.93818	28.47845	109.84545	4410.90507	44.75185	47.19286	-53.70222	-129.37353	0
94	-40.6835	14.64606	54.51589	12.20505	-46.37919	33.36047	109.84545	4308.38265	67.53461	69.16195	-46.37919	-126.93252	0
95	-33.36047	19.52808	52.07488	6.50936	-41.49717	35.80148	109.84545	4330.35174	96.82673	93.57205	-31.73313	-124.49151	0
96	-26.03744	19.52808	44.75185	1.62734	-34.17414	30.91946	112.28646	4362.08487	126.11885	113.10013	-16.2734	-119.60949	0
97	-16.2734	17.08707	32.5468	-0.81367	-24.4101	23.59643	112.28646	4481.69436	152.96996	130.1872	0.81367	-109.84545	0
98	-13.83239	17.08707	30.10579	-3.25468	-21.96909	23.59643	117.16848	4686.7392	177.38006	149.71528	20.34175	-95.19939	0
99	-11.39138	19.52808	30.10579	-5.69569	-19.52808	23.59643	126.93252	4840.52283	204.23117	174.12538	44.75185	-73.2303	0
100	-11.39138	21.96909	32.5468	-5.69569	-21.96909	26.03744	131.81454	4946.29993	231.08228	198.53548	66.72094	-55.32956	0
101	-16.2734	21.96909	37.42882	-3.25468	-26.85111	28.47845	136.69656	4884.46101	260.3744	222.94558	83.80801	-40.6835	0
102	-21.15542	26.85111	47.19286	-3.25468	-34.17414	35.80148	139.13757	4701.38526	296.98955	249.79669	98.45407	-28.47845	0
103	-26.03744	39.05616	64.27993	-8.1367	-43.93818	50.44754	144.01959	4540.2786	336.04571	281.52982	113.10013	-21.15542	0
104	-28.47845	39.05616	66.72094	-5.69569	-46.37919	52.88855	151.34262	4452.40224	377.54288	318.14497	132.62821	-13.83239	0
105	-18.71441	46.37919	64.27993	-15.45973	-41.49717	55.32956	153.78363	2016.27426	411.71702	349.8781	152.15629	-11.39138	0
106	-8.95037	48.8202	56.9569	-20.34175	-31.73313	52.88855	153.78363	-414.9717	438.56813	369.40618	169.24336	-11.39138	0
107	0.81367	48.8202	47.19286	-25.22377	-21.96909	48.00653	151.34262	-2765.66433	458.09621	386.49325	183.88942	-6.50936	0
108	6.50936	48.8202	42.31084	-27.66478	-17.08707	45.56552	146.4606	-5038.24464	472.74227	401.13931	200.97649	0.81367	0
109	8.95037	43.93818	34.98781	-27.66478	-12.20505	40.6835	141.57858	-7367.78185	484.94732	415.78537	218.06356	13.01872	0
110	13.83239	41.49717	27.66478	-27.66478	-7.32303	35.80148	139.13757	-9742.88458	499.59338	432.87244	237.59164	27.66478	0
111	13.83239	41.49717	27.66478	-27.66478	-7.32303	35.80148	131.81454	-9820.9969	514.23944	447.5185	254.67871	42.31084	0
112	16.2734	46.37919	30.10579	-32.5468	-7.32303	38.24249	122.0505	-8788.44967	531.32651	462.16456	262.00174	52.07488	0
113	26.03744	53.70222	27.66478	-39.86983	0	40.6835	114.72747	-8966.6434	550.85459	481.69264	271.76578	59.39791	0
114	38.24249	58.58424	20.34175	-49.63387	9.76404	40.6835	109.84545	-9071.60683	567.94166	501.22072	281.52982	64.27993	0
115	45.56552	58.58424	13.01872	-52.07488	17.90074	35.80148	102.52242	-9071.60683	585.02873	518.30779	293.73487	69.16195	0
116	50.44754	56.14323	5.69569	-54.51589	22.78276	30.91946	95.19939	-9061.84279	594.79277	528.07183	303.49891	69.16195	0
117	55.32956	61.02525	5.69569	-59.39791	25.22377	33.36047	90.31737	-8966.6434	602.1158	540.27688	315.70396	76.48498	0
118	65.0936	65.90727	0.81367	-66.72094	32.5468	33.36047	90.31737	-11252.24243	611.87984	554.92294	332.79103	88.69003	0
119	74.85764	70.78929	-4.06835	-74.04397	39.86983	33.36047	90.31737	-11130.19193	621.64388	569.569	354.76012	103.33609	0
120	77.29865	73.2303	-4.06835	-76.48498	42.31084	35.80148	87.87636	-11056.96163	628.96691	584.21506	374.2882	117.98215	0
121	82.18067	73.2303	-8.95037	-78.92599	47.19286	33.36047	85.43535	-11142.39698	641.17196	598.86112	396.25729	132.62821	0
122	96.82673	87.87636	-8.95037	-93.57205	54.51589	40.6835	85.43535	-11340.11879	660.70004	620.83021	413.34436	147.27427	0
123	111.47279	102.52242	-8.95037	-108.21811	61.83892	48.00653	80.55333	-11520.75353	675.3461	637.91728	425.54941	157.03831	0
124	118.79582	97.6404	-21.15542	-108.21811	71.60296	38.24249	70.78929	-11642.80403	682.66913	650.12233	432.87244	159.47932	0
125	104.14976	80.55333	-24.4101	-93.57205	64.27993	28.47845	56.14323	-11659.8911	680.22812	652.56334	440.19547	157.03831	0
126	94.38572	63.46626	-31.73313	-78.92599	64.27993	16.2734	46.37919	-11667.21413	677.78711	652.56334	445.07749	157.03831	0
127	84.62168	61.02525	-24.4101	-74.04397	54.51589	18.71441	36.61515	-11591.54282	665.58206	650.12233	445.07749	157.03831	0
128	67.53461	46.37919	-21.15542	-56.9569	44.75185	13.83239	29.29212	-11447.52323	653.37701	640.35829	445.07749	159.47932	0
129	43.12451	31.73313	-11.39138	-37.42882	27.66478	11.39138	21.96909	-11354.76485	633.84893	628.15324	449.95951	161.92033	0
130	30.91946	24.4101	-6.50936	-27.66478	20.34175	8.95037	19.52808	-10077.30295	616.76186	620.83021	449.95951	164.36134	0
131	40.6835	26.85111	-13.83239	-34.98781	27.66478	6.50936	19.52808	-7719.28729	606.99782	615.94819	454.84153	171.68437	0
132	60.21158	43.93818	-16.2734	-52.07488	39.86983	13.83239	19.52808	-5475.9991	599.67479	611.06617	452.40052	174.12538	0
133	65.0936	46.37919	-18.71441	-56.9569	42.31084	13.83239	21.96909	-3214.81017	587.46974	603.74314	447.5185	174.12538	0
134	74.85764	48.8202	-26.85111	-61.83892	52.07488	11.39138	17.08707	-895.85067	567.94166	589.09708	442.63648	169.24336	0
135	84.62168	53.70222	-31.73313	-69.16195	59.39791	11.39138	9.76404	1519.12189	536.20853	567.12799	432.87244	161.92033	0
136	87.06269	53.70222	-34.17414	-71.60296	61.83892	11.39138	4.88202	3942.23115	502.03439	540.27688	418.22638	154.5973	0
137	79.73966	48.8202	-31.73313	-64.27993	56.9569	8.95037	-0.81367	3983.72832	455.6552	506.10274	401.13931	147.27427	0
138	69.97562	36.61515	-34.17414	-54.51589	52.07488	1.62734	-8.1367	4091.13276	404.39399	464.60557	376.72921	139.95124	0
139	57.77057	31.73313	-26.85111	-44.75185	42.31084	4.06835	-17.90074	4147.27599	353.13278	420.66739	354.76012	130.1872	0
140	48.00653	17.08707	-31.73313	-32.5468	39.86983	-5.69569	-25.22377	4161.92205	306.75359	384.05224	330.35002	125.30518	0
141	33.36047	2.44101	-31.73313	-17.90074	32.5468	-13.01872	-30.10579	4032.54852	265.25642	352.31911	303.49891	117.98215	0
142	21.15542	-7.32303	-29.29212	-8.1367	25.22377	-17.90074	-34.98781	3800.65257	228.64127	320.58598	274.20679	108.21811	0
143	16.2734	-17.08707	-34.17414	-0.81367	25.22377	-26.03744	-39.86983	3580.96167	194.46713	288.85285	244.91467	93.57205	0
144	6.50936	-22.78276	-29.29212	6.50936	17.90074	-26.03744	-42.31084	3429.61905	157.85198	257.11972	220.50457	78.92599	0
145	0.81367	-30.10579	-31.73313	12.20505	15.45973	-30.91946	-37.42882	3380.79885	118.79582	227.8276	198.53548	64.27993	0
146	-6.50936	-32.5468	-26.85111	17.08707	9.76404	-30.91946	-37.42882	3339.30168	74.85764	193.65346	174.12538	44.75185	0
147	-11.39138	-32.5468	-21.15542	19.52808	4.88202	-28.47845	-37.42882	3378.35784	30.10579	157.03831	149.71528	27.66478	0
148	-13.83239	-34.98781	-21.15542	21.96909	2.44101	-28.47845	-37.42882	3490.6443	-11.39138	120.42316	125.30518	13.01872	0
149	-18.71441	-42.31084	-24.4101	29.29212	2.44101	-33.36047	-34.98781	3556.55157	-45.56552	91.13104	105.7771	5.69569	0
150	-23.59643	-49.63387	-26.85111	34.17414	0	-38.24249	-34.98781	3588.2847	-74.85764	61.83892	83.80801	-6.50936	0
151	-30.91946	-49.63387	-18.71441	39.05616	-7.32303	-35.80148	-34.98781	3480.88026	-99.26774	42.31084	61.83892	-18.71441	0
152	-35.80148	-49.63387	-13.83239	41.49717	-12.20505	-33.36047	-34.98781	3273.39441	-113.9138	26.85111	37.42882	-28.47845	0
153	-33.36047	-49.63387	-16.2734	39.05616	-9.76404	-33.36047	-37.42882	3087.87765	-121.23683	12.20505	17.90074	-40.6835	0
154	-33.36047	-56.9569	-24.4101	43.93818	-4.88202	-40.6835	-34.98781	2963.38614	-131.00087	0	5.69569	-48.00653	0
155	-28.47845	-56.9569	-29.29212	41.49717	0	-43.12451	-34.98781	2936.53503	-148.08794	-12.20505	-6.50936	-57.77057	0
156	-23.59643	-56.9569	-34.17414	39.05616	4.88202	-45.56552	-34.98781	2919.44796	-167.61602	-29.29212	-21.96909	-67.53461	0
157	-21.15542	-64.27993	-43.93818	41.49717	9.76404	-55.32956	-34.98781	2980.47321	-189.58511	-41.49717	-29.29212	-70.78929	0
158	-21.15542	-71.60296	-51.26121	43.93818	15.45973	-62.65259	-34.98781	3107.40573	-211.5542	-58.58424	-41.49717	-73.2303	0
159	-38.24249	-93.57205	-56.14323	63.46626	7.32303	-74.85764	-34.98781	3185.51805	-231.08228	-75.67131	-53.70222	-75.67131	0
160	-57.77057	-110.65912	-53.70222	82.99434	-2.44101	-82.18067	-34.98781	3229.45623	-245.72834	-87.87636	-68.34828	-78.11232	0
161	-65.0936	-115.54114	-51.26121	87.87636	-7.32303	-84.62168	-37.42882	3136.69785	-255.49238	-95.19939	-80.55333	-82.99434	0
162	-79.73966	-125.30518	-46.37919	100.08141	-17.08707	-87.06269	-39.86983	2951.18109	-257.93339	-95.19939	-95.19939	-87.87636	0
163	-99.26774	-135.06922	-36.61515	114.72747	-31.73313	-87.06269	-44.75185	2782.7514	-257.93339	-97.6404	-107.40444	-95.19939	0
164	-116.35481	-147.27427	-31.73313	129.37353	-43.93818	-89.5037	-44.75185	2672.90595	-255.49238	-97.6404	-112.28646	-97.6404	0
165	-123.67784	-152.15629	-29.29212	136.69656	-48.8202	-91.94471	-44.75185	2658.25989	-257.93339	-97.6404	-112.28646	-97.6404	0
166	-113.9138	-147.27427	-34.17414	129.37353	-41.49717	-91.94471	-39.86983	2655.81888	-257.93339	-92.75838	-109.84545	-95.19939	0
167	-111.47279	-147.27427	-36.61515	126.93252	-39.05616	-91.94471	-37.42882	2729.04918	-265.25642	-92.75838	-107.40444	-90.31737	0
168	-113.9138	-152.15629	-39.05616	131.81454	-39.05616	-96.82673	-34.98781	2863.30473	-272.57945	-95.19939	-104.96343	-85.43535	0
169	-111.47279	-149.71528	-39.05616	129.37353	-36.61515	-94.38572	-32.5468	2951.18109	-275.02046	-95.19939	-102.52242	-80.55333	0
170	-104.14976	-142.39225	-39.05616	122.0505	-34.17414	-91.94471	-27.66478	3007.32432	-272.57945	-92.75838	-100.08141	-75.67131	0
171	-94.38572	-132.62821	-39.05616	112.28646	-29.29212	-87.06269	-25.22377	2934.09402	-270.13844	-85.43535	-95.19939	-73.2303	0
172	-82.18067	-117.98215	-36.61515	97.6404	-24.4101	-77.29865	-25.22377	2763.22332	-265.25642	-78.11232	-100.08141	-73.2303	0
173	-72.41663	-113.10013	-41.49717	90.31737	-17.08707	-77.29865	-25.22377	2609.43969	-257.93339	-73.2303	-102.52242	-80.55333	0
174	-69.97562	-113.10013	-43.93818	90.31737	-14.64606	-79.73966	-22.78276	2509.35828	-250.61036	-65.90727	-100.08141	-80.55333	0
175	-67.53461	-105.7771	-39.05616	85.43535	-14.64606	-72.41663	-20.34175	2499.59424	-248.16935	-61.02525	-92.75838	-82.99434	0
176	-67.53461	-100.89508	-34.17414	82.99434	-17.08707	-67.53461	-15.45973	2499.59424	-248.16935	-53.70222	-85.43535	-80.55333	0
177	-69.97562	-110.65912	-41.49717	87.87636	-14.64606	-77.29865	-13.01872	2570.38353	-248.16935	-53.70222	-80.55333	-75.67131	0
178	-77.29865	-127.74619	-51.26121	100.08141	-14.64606	-89.5037	-13.01872	2699.75706	-250.61036	-53.70222	-78.11232	-75.67131	0
179	-82.18067	-137.51023	-56.14323	107.40444	-14.64606	-96.82673	-13.01872	2782.7514	-253.05137	-58.58424	-75.67131	-73.2303	0
180	-89.5037	-137.51023	-48.8202	112.28646	-21.96909	-94.38572	-17.90074	2834.01261	-253.05137	-58.58424	-73.2303	-70.78929	0
181	-96.82673	-142.39225	-46.37919	117.16848	-26.85111	-94.38572	-17.90074	2758.3413	-253.05137	-56.14323	-75.67131	-73.2303	0
182	-99.26774	-149.71528	-51.26121	122.0505	-24.4101	-101.70875	-17.90074	2599.67565	-245.72834	-46.37919	-80.55333	-75.67131	0
183	-96.82673	-152.15629	-56.14323	122.0505	-21.96909	-104.14976	-17.90074	2450.77404	-238.40531	-43.93818	-82.99434	-82.99434	0
184	-99.26774	-144.83326	-46.37919	119.60949	-26.85111	-96.82673	-17.90074	2353.13364	-228.64127	-39.05616	-80.55333	-87.87636	0
185	-99.26774	-137.51023	-39.05616	117.16848	-31.73313	-89.5037	-15.45973	2345.81061	-226.20026	-31.73313	-75.67131	-95.19939	0
186	-104.14976	-137.51023	-34.17414	119.60949	-36.61515	-87.06269	-10.57771	2345.81061	-221.31824	-24.4101	-68.34828	-100.08141	0
187	-104.14976	-132.62821	-29.29212	117.16848	-39.05616	-82.18067	-3.25468	2416.5999	-221.31824	-21.96909	-61.02525	-104.96343	0
188	-104.14976	-132.62821	-29.29212	117.16848	-39.05616	-82.18067	-0.81367	2541.09141	-221.31824	-24.4101	-58.58424	-109.84545	0
189	-104.14976	-127.74619	-24.4101	114.72747	-41.49717	-77.29865	4.88202	2626.52676	-218.87723	-26.85111	-53.70222	-112.28646	0
190	-101.70875	-122.86417	-21.15542	109.84545	-41.49717	-72.41663	14.64606	2687.55201	-209.11319	-19.52808	-51.26121	-112.28646	0
191	-96.82673	-122.86417	-26.85111	107.40444	-36.61515	-74.85764	26.85111	2638.73181	-187.1441	-2.44101	-43.93818	-109.84545	0
192	-94.38572	-110.65912	-16.2734	100.08141	-39.05616	-65.0936	43.93818	2519.12232	-150.52895	29.29212	-34.17414	-100.08141	0
193	-89.5037	-105.7771	-16.2734	95.19939	-36.61515	-62.65259	53.70222	2414.15889	-104.14976	64.27993	-18.71441	-92.75838	0
194	-82.18067	-100.89508	-18.71441	90.31737	-31.73313	-60.21158	63.46626	2358.01566	-50.44754	113.10013	10.57771	-75.67131	0
195	-79.73966	-93.57205	-13.83239	85.43535	-34.17414	-55.32956	70.78929	2384.86677	5.69569	174.12538	56.9569	-48.00653	0
196	-84.62168	-88.69003	-4.06835	85.43535	-41.49717	-48.00653	73.2303	2419.04091	72.41663	247.35568	115.54114	-13.83239	0
197	-87.06269	-78.92599	8.1367	80.55333	-48.8202	-35.80148	73.2303	2528.88636	155.41097	335.23204	188.77144	32.5468	0
198	-84.62168	-69.16195	15.45973	75.67131	-51.26121	-28.47845	65.90727	2697.31605	250.61036	435.31345	274.20679	88.69003	0
199	-74.85764	-54.51589	20.34175	63.46626	-48.8202	-17.90074	56.14323	2831.5716	360.45581	550.04092	374.2882	159.47932	0
200	-57.77057	-32.5468	25.22377	43.93818	-41.49717	-3.25468	48.8202	2951.18109	482.50631	676.97344	481.69264	235.15063	0
201	-30.91946	-4.88202	25.22377	17.08707	-26.85111	8.95037	36.61515	2943.85806	599.67479	808.78798	591.53809	315.70396	0
202	8.95037	31.73313	22.78276	-20.34175	-7.32303	28.47845	21.96909	2836.45362	707.07923	935.7205	696.50152	393.81628	0
203	69.97562	80.55333	10.57771	-76.48498	30.10579	45.56552	-0.81367	2707.08009	792.51458	1048.00696	796.58293	467.04658	0
204	128.55986	124.49151	-4.06835	-127.74619	66.72094	60.21158	-22.78276	2585.02959	855.98084	1143.20635	889.34131	540.27688	0
205	187.1441	163.54767	-24.4101	-176.56639	105.7771	69.97562	-49.63387	2514.2403	887.71397	1223.75968	977.21767	611.06617	0
206	238.40531	200.16282	-39.05616	-220.50457	139.95124	82.18067	-76.48498	2431.24596	909.68306	1296.98998	1069.97605	691.6195	0
207	287.22551	251.42403	-36.61515	-269.32477	161.92033	109.03178	-103.33609	2397.07182	907.24205	1358.01523	1160.29342	779.49586	0
208	323.84066	310.00827	-13.83239	-318.14497	169.24336	148.08794	-127.74619	2392.1898	860.86286	1372.66129	1226.20069	864.93121	0
209	340.92773	371.03352	30.10579	-357.20113	157.03831	201.79016	-147.27427	2301.87243	748.5764	1323.84109	1257.93382	938.16151	0
210	338.48672	439.3818	100.89508	-388.93426	120.42316	270.13844	-164.36134	2128.56072	548.41358	1199.34958	1248.16978	996.74575	0
211	318.95864	519.93513	200.97649	-420.66739	59.39791	360.45581	-183.88942	1777.05528	265.25642	1001.62777	1189.58554	1035.80191	0
212	287.22551	615.13452	327.90901	-452.40052	-19.52808	472.74227	-203.4175	1292.10796	-82.18067	737.99869	1082.1811	1045.56595	0
213	243.28733	685.92381	442.63648	-464.60557	-100.08141	565.50065	-222.94558	774.61384	-492.27035	406.02133	918.63343	1011.39181	0
214	174.93905	698.12886	523.18981	-437.75446	-173.31171	611.87984	-237.59164	293.73487	-924.32912	39.05616	696.50152	918.63343	0
215	104.14976	651.74967	547.59991	-379.17022	-222.13191	599.67479	-254.67871	-77.29865	-1344.18284	-339.30039	425.54941	767.29081	0
216	38.24249	566.31432	528.07183	-303.49891	-244.101	548.41358	-262.00174	-368.59251	-1695.68828	-676.15977	149.71528	586.65607	0
217	-16.2734	444.26382	459.72355	-215.62255	-236.77797	450.77318	-264.44275	-517.49412	-1973.96342	-959.31693	-119.60949	388.93426	0
218	-77.29865	292.9212	369.40618	-108.21811	-222.13191	331.16369	-259.56073	-539.46321	-2179.00826	-1193.65389	-380.79756	176.56639	0
219	-135.88289	136.69656	271.76578	-0.81367	-202.60383	204.23117	-254.67871	-534.58119	-2313.26381	-1376.72964	-620.01654	-30.91946	0
220	-184.70309	-4.88202	179.0074	92.75838	-180.63474	87.06269	-254.67871	-493.08402	-2381.61209	-1503.66216	-820.17936	-217.24989	0
221	-221.31824	-91.13104	130.1872	153.78363	-175.75272	18.71441	-254.67871	-500.40705	-2376.73007	-1557.36438	-954.43491	-353.94645	0
222	-262.81541	-142.39225	120.42316	200.16282	-192.83979	-10.57771	-249.79669	-522.37614	-2305.94078	-1547.60034	-1030.10622	-444.26382	0
223	-296.98955	-159.47932	137.51023	227.01393	-217.24989	-10.57771	-240.03265	-493.08402	-2193.65432	-1498.78014	-1056.95733	-505.28907	0
224	-311.63561	-154.5973	157.03831	231.89595	-234.33696	1.62734	-227.8276	-380.79756	-2042.3117	-1408.46277	-1039.87026	-529.69917	0
225	-311.63561	-137.51023	174.12538	222.13191	-244.101	18.71441	-210.74053	-163.54767	-1864.11797	-1286.41227	-983.72703	-524.81715	0
226	-301.87157	-113.10013	188.77144	205.04484	-246.54201	38.24249	-191.21245	86.24902	-1661.51414	-1139.95167	-905.61471	-500.40705	0
227	-282.34349	-88.69003	193.65346	183.07575	-239.21898	52.88855	-166.80235	406.02133	-1458.91031	-983.72703	-807.97431	-456.46887	0
228	-253.05137	-76.48498	176.56639	163.54767	-214.80888	50.44754	-139.95124	750.20374	-1268.51153	-839.70744	-712.77492	-410.08968	0
229	-226.20026	-61.83892	164.36134	141.57858	-195.2808	50.44754	-113.10013	1035.80191	-1090.3178	-703.01088	-617.57553	-358.82847	0
230	-206.67218	-52.07488	154.5973	126.93252	-180.63474	50.44754	-88.69003	1275.02089	-929.21114	-580.96038	-534.58119	-317.3313	0
231	-194.46713	-52.07488	142.39225	122.0505	-168.42969	45.56552	-66.72094	1375.1023	-799.83761	-480.87897	-471.11493	-290.48019	0
232	-189.58511	-66.72094	122.86417	126.93252	-156.22464	28.47845	-44.75185	1379.98432	-689.99216	-402.76665	-427.17675	-273.39312	0
233	-194.46713	-88.69003	105.7771	139.13757	-151.34262	8.95037	-22.78276	1358.01523	-606.99782	-349.06443	-393.00261	-266.07009	0
234	-194.46713	-100.89508	93.57205	146.4606	-144.01959	-3.25468	-5.69569	1358.01523	-543.53156	-307.56726	-361.26948	-263.62908	0
235	-194.46713	-110.65912	83.80801	151.34262	-139.13757	-13.01872	9.76404	1414.15846	-499.59338	-270.95211	-334.41837	-258.74706	0
236	-192.02612	-130.1872	61.83892	158.66565	-126.93252	-35.80148	19.52808	1460.53765	-465.41924	-246.54201	-310.00827	-256.30605	0
237	-189.58511	-154.5973	34.98781	170.8707	-112.28646	-60.21158	29.29212	1552.48236	-441.00914	-222.13191	-288.03918	-248.98302	0
238	-179.82107	-169.24336	10.57771	173.31171	-95.19939	-79.73966	39.05616	1686.73791	-419.04005	-200.16282	-266.07009	-236.77797	0
239	-167.61602	-161.92033	5.69569	163.54767	-87.87636	-79.73966	48.8202	1779.49629	-392.18894	-180.63474	-244.101	-222.13191	0
240	-157.85198	-152.15629	5.69569	153.78363	-82.99434	-74.85764	61.02525	1850.28558	-365.33783	-158.66565	-222.13191	-209.92686	0
241	-152.96996	-144.83326	8.1367	146.4606	-80.55333	-69.97562	73.2303	1820.99346	-336.04571	-136.69656	-205.04484	-200.16282	0
242	-150.52895	-135.06922	15.45973	141.57858	-82.99434	-60.21158	82.99434	1723.35306	-304.31258	-114.72747	-195.2808	-195.2808	0
243	-148.08794	-117.98215	30.10579	131.81454	-90.31737	-45.56552	90.31737	1628.15367	-279.90248	-102.52242	-187.95777	-195.2808	0
244	-140.76491	-103.33609	37.42882	119.60949	-90.31737	-33.36047	95.19939	1569.56943	-260.3744	-87.87636	-175.75272	-195.2808	0
245	-133.44188	-86.24902	47.19286	107.40444	-90.31737	-20.34175	102.52242	1579.33347	-248.16935	-75.67131	-165.98868	-195.2808	0
246	-138.3239	-81.367	56.9569	107.40444	-97.6404	-13.01872	109.84545	1593.97953	-235.9643	-63.46626	-151.34262	-192.83979	0
247	-140.76491	-74.04397	66.72094	104.96343	-104.96343	-3.25468	117.16848	1659.8868	-228.64127	-48.8202	-139.13757	-185.51676	0
248	-143.20592	-69.16195	74.04397	104.96343	-109.84545	1.62734	122.0505	1769.73225	-218.87723	-34.17414	-126.93252	-175.75272	0
249	-143.20592	-61.83892	81.367	100.08141	-112.28646	8.95037	129.37353	1845.40356	-201.79016	-14.64606	-109.84545	-158.66565	0
250	-135.88289	-52.07488	83.80801	92.75838	-109.84545	16.2734	139.13757	1908.86982	-177.38006	7.32303	-90.31737	-144.01959	0
251	-135.88289	-44.75185	91.13104	87.87636	-114.72747	23.59643	146.4606	1879.5777	-148.08794	31.73313	-75.67131	-129.37353	0
252	-138.3239	-32.5468	105.7771	82.99434	-122.0505	35.80148	151.34262	1786.81932	-116.35481	54.51589	-68.34828	-119.60949	0
253	-131.00087	-27.66478	103.33609	78.11232	-117.16848	38.24249	153.78363	1698.94296	-89.5037	74.04397	-58.58424	-112.28646	0
254	-123.67784	-19.52808	103.33609	70.78929	-112.28646	40.6835	153.78363	1642.79973	-67.53461	91.13104	-43.93818	-107.40444	0
255	-113.9138	-9.76404	103.33609	61.02525	-107.40444	45.56552	151.34262	1652.56377	-52.88855	108.21811	-29.29212	-100.08141	0
256	-104.14976	0	103.33609	51.26121	-102.52242	50.44754	156.22464	1672.09185	-35.80148	127.74619	-11.39138	-90.31737	0
257	-104.14976	4.88202	108.21811	48.8202	-104.96343	55.32956	156.22464	1735.55811	-28.47845	144.83326	5.69569	-80.55333	0
258	-99.26774	7.32303	105.7771	43.93818	-102.52242	55.32956	151.34262	1835.63952	-18.71441	159.47932	20.34175	-70.78929	0
259	-87.06269	12.20505	98.45407	36.61515	-92.75838	55.32956	148.90161	1908.86982	-1.62734	176.56639	39.86983	-57.77057	0
260	-74.85764	19.52808	93.57205	26.85111	-82.99434	55.32956	148.90161	1972.33608	25.22377	196.09447	56.9569	-45.56552	0
261	-67.53461	26.85111	93.57205	19.52808	-80.55333	60.21158	148.90161	1947.92598	56.9569	222.94558	74.04397	-33.36047	0
262	-69.97562	34.17414	103.33609	17.08707	-85.43535	67.53461	151.34262	1869.81366	94.38572	249.79669	86.24902	-26.03744	0
263	-82.18067	29.29212	110.65912	24.4101	-95.19939	69.97562	151.34262	1791.70134	123.67784	269.32477	93.57205	-23.59643	0
264	-89.5037	29.29212	117.98215	29.29212	-102.52242	72.41663	151.34262	1747.76316	152.96996	291.29386	110.65912	-18.71441	0
265	-94.38572	26.85111	120.42316	31.73313	-107.40444	72.41663	158.66565	1769.73225	179.82107	313.26295	130.1872	-13.83239	0
266	-99.26774	29.29212	127.74619	34.17414	-112.28646	77.29865	165.98868	1799.02437	204.23117	337.67305	149.71528	-6.50936	0
267	-101.70875	31.73313	132.62821	34.17414	-117.16848	82.18067	170.8707	1872.25467	226.20026	362.08315	169.24336	5.69569	0
268	-96.82673	34.17414	130.1872	29.29212	-112.28646	82.18067	170.8707	1984.54113	245.72834	381.61123	186.33043	15.45973	0
269	-79.73966	41.49717	120.42316	17.08707	-100.08141	79.73966	173.31171	2065.09446	275.02046	403.58032	205.85851	25.22377	0
270	-60.21158	48.8202	108.21811	4.06835	-82.99434	77.29865	178.19373	2138.32476	309.1946	432.87244	225.38659	34.98781	0
271	-48.00653	56.14323	103.33609	-5.69569	-75.67131	79.73966	183.07575	2131.00173	353.13278	464.60557	244.91467	47.19286	0
272	-40.6835	58.58424	98.45407	-10.57771	-68.34828	77.29865	185.51676	2062.65345	394.62995	493.89769	257.11972	52.07488	0
273	-33.36047	56.14323	88.69003	-13.01872	-61.02525	72.41663	187.95777	1994.30517	431.2451	518.30779	269.32477	54.51589	0
274	-33.36047	51.26121	83.80801	-10.57771	-58.58424	67.53461	190.39878	1955.24901	462.97823	545.1589	288.85285	56.9569	0
275	-33.36047	43.93818	76.48498	-5.69569	-53.70222	60.21158	190.39878	1969.89507	482.50631	567.12799	303.49891	59.39791	0
276	-35.80148	36.61515	71.60296	-0.81367	-53.70222	52.88855	190.39878	1989.42315	502.03439	589.09708	325.468	66.72094	0
277	-33.36047	43.93818	76.48498	-5.69569	-53.70222	60.21158	190.39878	2048.00739	514.23944	611.06617	342.55507	74.04397	0
278	-26.03744	43.93818	69.16195	-10.57771	-46.37919	55.32956	185.51676	2138.32476	521.56247	625.71223	359.64214	86.24902	0
279	-21.15542	46.37919	66.72094	-13.01872	-43.93818	55.32956	178.19373	2199.35001	538.64954	647.68132	381.61123	103.33609	0
280	-16.2734	53.70222	69.16195	-20.34175	-41.49717	60.21158	168.42969	2250.61122	558.17762	667.2094	401.13931	117.98215	0
281	-11.39138	61.02525	71.60296	-25.22377	-41.49717	65.0936	161.10666	2223.76011	580.14671	686.73748	415.78537	130.1872	0
282	-6.50936	73.2303	78.92599	-34.98781	-41.49717	74.85764	158.66565	2145.64779	606.99782	708.70657	425.54941	142.39225	0
283	-1.62734	80.55333	81.367	-39.86983	-41.49717	79.73966	156.22464	2069.97648	631.40792	728.23465	437.75446	152.15629	0
284	4.06835	87.87636	83.80801	-47.19286	-39.05616	87.06269	153.78363	2021.15628	650.936	747.76273	454.84153	164.36134	0
285	11.39138	90.31737	78.92599	-52.07488	-34.17414	84.62168	151.34262	2026.0383	660.70004	762.40879	467.04658	169.24336	0
286	13.83239	85.43535	71.60296	-49.63387	-29.29212	79.73966	148.90161	2028.47931	668.02307	774.61384	479.25163	174.12538	0
287	21.15542	80.55333	59.39791	-52.07488	-19.52808	69.97562	146.4606	2072.41749	670.46408	791.70091	493.89769	179.0074	0
288	30.91946	78.11232	47.19286	-54.51589	-7.32303	62.65259	141.57858	2145.64779	672.90509	803.90596	508.54375	186.33043	0
289	35.80148	78.11232	42.31084	-56.9569	-2.44101	60.21158	134.25555	2184.70395	680.22812	816.11101	523.18981	193.65346	0
290	30.91946	65.90727	34.98781	-49.63387	-2.44101	50.44754	117.16848	2216.43708	687.55115	820.99303	530.51284	196.09447	0
291	28.47845	56.14323	27.66478	-42.31084	0	43.12451	102.52242	2172.4989	694.87418	830.75707	537.83587	198.53548	0
292	35.80148	65.90727	30.10579	-52.07488	2.44101	48.00653	90.31737	2082.18153	707.07923	842.96212	540.27688	198.53548	0
293	48.00653	75.67131	27.66478	-61.83892	9.76404	52.88855	75.67131	1989.42315	714.40226	842.96212	542.71789	198.53548	0
294	55.32956	75.67131	20.34175	-66.72094	17.90074	48.00653	61.02525	1918.63386	711.96125	840.52111	545.1589	200.97649	0
295	62.65259	70.78929	8.1367	-66.72094	27.66478	40.6835	53.70222	1903.9878	702.19721	838.0801	547.59991	203.4175	0
296	77.29865	75.67131	-1.62734	-76.48498	39.86983	38.24249	48.8202	1889.34174	689.99216	835.63909	554.92294	210.74053	0
297	96.82673	90.31737	-6.50936	-93.57205	52.07488	43.12451	43.93818	1908.86982	675.3461	833.19808	557.36395	215.62255	0
298	106.59077	87.87636	-18.71441	-98.45407	64.27993	35.80148	43.93818	1962.57204	658.25903	828.31606	564.68698	227.8276	0
299	116.35481	92.75838	-24.4101	-105.7771	71.60296	35.80148	46.37919	1984.54113	646.05398	823.43404	569.569	240.03265	0
300	126.11885	100.08141	-26.85111	-113.10013	76.48498	38.24249	43.93818	2001.6282	633.84893	816.11101	569.569	247.35568	0
301	140.76491	107.40444	-34.17414	-125.30518	88.69003	38.24249	39.05616	1943.04396	619.20287	808.78798	567.12799	247.35568	0
302	155.41097	117.16848	-39.05616	-137.51023	98.45407	40.6835	36.61515	1838.08053	606.99782	796.58293	554.92294	244.91467	0
303	165.17501	119.60949	-46.37919	-142.39225	105.7771	38.24249	34.17414	1728.23508	582.58772	774.61384	545.1589	240.03265	0
304	162.734	107.40444	-56.14323	-135.06922	110.65912	26.03744	24.4101	1630.59468	545.97257	742.88071	528.07183	227.8276	0
305	155.41097	100.08141	-56.14323	-127.74619	105.7771	23.59643	9.76404	1579.33347	494.71136	701.38354	506.10274	208.29952	0
306	138.3239	75.67131	-63.46626	-108.21811	100.89508	6.50936	-0.81367	1531.32694	443.45015	662.32738	481.69264	191.21245	0
307	118.79582	48.8202	-70.78929	-83.80801	96.01306	-10.57771	-5.69569	1511.79886	389.74793	623.27122	452.40052	179.0074	0
308	96.82673	26.85111	-70.78929	-61.83892	83.80801	-20.34175	-13.01872	1524.00391	333.6047	579.33304	420.66739	169.24336	0
309	74.85764	7.32303	-68.34828	-42.31084	71.60296	-30.91946	-20.34175	1511.79886	282.34349	537.83587	388.93426	161.92033	0
310	60.21158	-2.44101	-63.46626	-30.10579	61.83892	-33.36047	-22.78276	1502.03482	243.28733	501.22072	357.20113	157.03831	0
311	52.88855	-7.32303	-61.02525	-22.78276	56.9569	-33.36047	-22.78276	1431.24553	204.23117	467.04658	325.468	144.83326	0
312	52.88855	-7.32303	-61.02525	-22.78276	56.9569	-33.36047	-17.90074	1318.95907	172.49804	432.87244	291.29386	135.06922	0
313	60.21158	-2.44101	-63.46626	-30.10579	61.83892	-33.36047	-15.45973	1204.2316	133.44188	396.25729	262.00174	120.42316	0
314	67.53461	-4.88202	-73.2303	-32.5468	71.60296	-38.24249	-15.45973	1111.47322	94.38572	357.20113	235.15063	103.33609	0
315	65.0936	-9.76404	-75.67131	-27.66478	71.60296	-43.12451	-10.57771	1072.41706	49.63387	320.58598	210.74053	86.24902	0
316	62.65259	-17.08707	-80.55333	-22.78276	71.60296	-48.00653	-10.57771	1033.3609	5.69569	288.85285	188.77144	71.60296	0
317	62.65259	-22.78276	-85.43535	-20.34175	74.04397	-52.88855	-5.69569	1028.47888	-30.91946	262.00174	169.24336	61.83892	0
318	69.97562	-27.66478	-97.6404	-22.78276	83.80801	-62.65259	-3.25468	1055.32999	-65.0936	237.59164	149.71528	54.51589	0
319	65.0936	-34.98781	-100.08141	-15.45973	81.367	-67.53461	-0.81367	1060.21201	-87.06269	218.06356	132.62821	47.19286	0
320	52.88855	-42.31084	-95.19939	-5.69569	74.04397	-67.53461	-0.81367	1069.97605	-104.14976	200.97649	113.10013	42.31084	0
321	48.00653	-47.19286	-95.19939	-0.81367	71.60296	-69.97562	-0.81367	1021.15585	-118.79582	183.88942	96.01306	30.10579	0
322	45.56552	-59.39791	-104.96343	6.50936	74.04397	-82.18067	-0.81367	930.83848	-128.55986	169.24336	71.60296	15.45973	0
323	40.6835	-71.60296	-112.28646	14.64606	76.48498	-91.94471	-5.69569	835.63909	-148.08794	142.39225	47.19286	-1.62734	0
324	33.36047	-81.367	-114.72747	21.96909	74.04397	-96.82673	-10.57771	759.96778	-170.05703	117.98215	27.66478	-16.2734	0
325	21.15542	-96.01306	-117.16848	36.61515	69.16195	-106.59077	-13.01872	737.99869	-196.90814	98.45407	13.01872	-28.47845	0
326	13.83239	-98.45407	-112.28646	41.49717	61.83892	-104.14976	-15.45973	718.47061	-221.31824	81.367	0.81367	-35.80148	0
327	8.95037	-100.89508	-109.84545	43.93818	59.39791	-104.14976	-15.45973	728.23465	-240.84632	71.60296	-11.39138	-40.6835	0
328	6.50936	-96.01306	-102.52242	43.93818	54.51589	-99.26774	-15.45973	767.29081	-255.49238	64.27993	-18.71441	-40.6835	0
329	6.50936	-86.24902	-92.75838	39.05616	49.63387	-89.5037	-15.45973	784.37788	-260.3744	61.83892	-21.96909	-38.24249	0
330	8.95037	-81.367	-90.31737	34.17414	49.63387	-84.62168	-10.57771	816.11101	-257.93339	61.83892	-26.85111	-33.36047	0
331	16.2734	-78.92599	-95.19939	29.29212	54.51589	-87.06269	-8.1367	786.81889	-257.93339	61.83892	-34.17414	-38.24249	0
332	26.03744	-78.92599	-104.96343	24.4101	64.27993	-91.94471	-8.1367	718.47061	-250.61036	61.83892	-43.93818	-43.12451	0
333	35.80148	-83.80801	-119.60949	21.96909	76.48498	-101.70875	-5.69569	650.12233	-250.61036	54.51589	-48.8202	-45.56552	0
334	38.24249	-91.13104	-129.37353	24.4101	83.80801	-109.03178	-5.69569	593.9791	-257.93339	44.75185	-56.14323	-52.88855	0
335	38.24249	-103.33609	-141.57858	31.73313	88.69003	-121.23683	-8.1367	586.65607	-272.57945	36.61515	-63.46626	-62.65259	0
336	35.80148	-113.10013	-148.90161	36.61515	91.13104	-131.00087	-10.57771	574.45102	-287.22551	26.85111	-70.78929	-70.78929	0
337	33.36047	-117.98215	-151.34262	41.49717	91.13104	-133.44188	-13.01872	589.09708	-299.43056	21.96909	-78.11232	-70.78929	0
338	30.91946	-117.98215	-148.90161	41.49717	88.69003	-133.44188	-13.01872	628.15324	-306.75359	19.52808	-80.55333	-70.78929	0
339	30.91946	-115.54114	-146.4606	41.49717	88.69003	-131.00087	-13.01872	650.12233	-306.75359	21.96909	-82.99434	-70.78929	0
340	33.36047	-110.65912	-144.01959	36.61515	88.69003	-126.11885	-10.57771	681.85546	-299.43056	26.85111	-82.99434	-67.53461	0
341	38.24249	-103.33609	-141.57858	31.73313	88.69003	-121.23683	-8.1367	659.88637	-292.10753	31.73313	-82.99434	-67.53461	0
342	38.24249	-98.45407	-136.69656	29.29212	86.24902	-116.35481	-8.1367	598.86112	-282.34349	34.17414	-90.31737	-70.78929	0
343	30.91946	-100.89508	-131.81454	34.17414	81.367	-116.35481	-8.1367	537.83587	-277.46147	34.17414	-92.75838	-73.2303	0
344	23.59643	-108.21811	-131.81454	41.49717	76.48498	-118.79582	-5.69569	489.01567	-277.46147	31.73313	-95.19939	-78.11232	0
345	21.15542	-115.54114	-136.69656	46.37919	78.92599	-126.11885	-5.69569	486.57466	-289.66652	24.4101	-97.6404	-85.43535	0
346	13.83239	-120.42316	-134.25555	51.26121	74.04397	-126.11885	-8.1367	479.25163	-301.87157	19.52808	-102.52242	-95.19939	0
347	4.06835	-127.74619	-131.81454	61.02525	66.72094	-128.55986	-13.01872	489.01567	-314.07662	12.20505	-112.28646	-102.52242	0
348	0.81367	-132.62821	-134.25555	63.46626	66.72094	-133.44188	-13.01872	530.51284	-316.51763	12.20505	-112.28646	-104.96343	0
349	4.06835	-130.1872	-134.25555	61.02525	69.16195	-131.00087	-10.57771	554.92294	-314.07662	17.08707	-112.28646	-102.52242	0
350	13.83239	-122.86417	-136.69656	53.70222	74.04397	-128.55986	-8.1367	589.09708	-304.31258	21.96909	-109.84545	-100.08141	0
351	16.2734	-120.42316	-136.69656	51.26121	76.48498	-128.55986	-3.25468	572.01001	-292.10753	29.29212	-104.96343	-100.08141	0
352	11.39138	-122.86417	-134.25555	53.70222	71.60296	-128.55986	-0.81367	520.7488	-275.02046	39.05616	-102.52242	-97.6404	0
353	13.83239	-127.74619	-141.57858	56.14323	76.48498	-133.44188	7.32303	469.48759	-262.81541	47.19286	-95.19939	-90.31737	0
354	13.83239	-127.74619	-141.57858	56.14323	76.48498	-133.44188	9.76404	427.99042	-260.3744	49.63387	-85.43535	-90.31737	0
355	18.71441	-125.30518	-144.01959	51.26121	81.367	-133.44188	12.20505	425.54941	-267.69743	49.63387	-80.55333	-90.31737	0
356	18.71441	-122.86417	-141.57858	51.26121	78.92599	-131.00087	17.08707	425.54941	-270.13844	54.51589	-73.2303	-87.87636	0
357	21.15542	-120.42316	-141.57858	48.8202	81.367	-131.00087	17.08707	445.07749	-275.02046	56.9569	-70.78929	-87.87636	0
358	23.59643	-115.54114	-139.13757	43.93818	81.367	-126.11885	19.52808	491.45668	-270.13844	61.83892	-68.34828	-87.87636	0
359	23.59643	-110.65912	-134.25555	41.49717	78.92599	-121.23683	26.85111	528.07183	-255.49238	69.16195	-65.90727	-87.87636	0
360	23.59643	-105.7771	-129.37353	39.05616	76.48498	-116.35481	39.05616	584.21506	-226.20026	86.24902	-63.46626	-87.87636	0
361	21.15542	-105.7771	-126.93252	41.49717	74.04397	-116.35481	51.26121	598.86112	-182.26208	117.98215	-51.26121	-87.87636	0
362	16.2734	-108.21811	-124.49151	43.93818	69.16195	-116.35481	63.46626	586.65607	-126.11885	157.03831	-34.17414	-80.55333	0
363	13.83239	-108.21811	-122.0505	46.37919	66.72094	-113.9138	70.78929	569.569	-67.53461	203.4175	-6.50936	-70.78929	0
364	13.83239	-100.89508	-114.72747	41.49717	64.27993	-106.59077	73.2303	559.80496	-4.06835	259.56073	39.86983	-43.12451	0
365	28.47845	-78.92599	-107.40444	24.4101	66.72094	-91.94471	68.34828	591.53809	62.65259	332.79103	103.33609	-8.95037	0
366	40.6835	-61.83892	-102.52242	8.95037	71.60296	-82.18067	56.14323	630.59425	148.08794	427.99042	183.88942	39.86983	0
367	52.88855	-39.86983	-92.75838	-8.1367	71.60296	-65.0936	39.05616	696.50152	248.16935	540.27688	276.6478	103.33609	0
368	72.41663	-14.64606	-87.87636	-30.10579	81.367	-50.44754	26.85111	796.58293	362.89682	664.76839	384.05224	181.44841	0
369	104.14976	21.96909	-82.99434	-64.27993	93.57205	-30.91946	14.64606	879.57727	487.38833	799.02394	496.3387	264.44275	0
370	140.76491	58.58424	-82.99434	-100.89508	113.10013	-10.57771	4.88202	957.68959	609.43883	933.27949	613.50718	352.31911	0
371	179.82107	87.87636	-92.75838	-135.06922	137.51023	-0.81367	-10.57771	960.1306	711.96125	1060.21201	725.79364	435.31345	0
372	216.43622	119.60949	-97.6404	-169.24336	157.03831	11.39138	-27.66478	901.54636	802.27862	1179.8215	830.75707	518.30779	0
373	265.25642	158.66565	-107.40444	-213.18154	186.33043	26.03744	-44.75185	813.67	863.30387	1282.34392	933.27949	601.30213	0
374	316.51763	200.16282	-117.16848	-259.56073	218.06356	43.12451	-64.27993	706.26556	899.91902	1370.22028	1030.91989	686.73748	0
375	360.45581	244.101	-117.16848	-303.49891	240.03265	65.0936	-91.13104	615.94819	907.24205	1448.3326	1131.0013	777.05485	0
376	404.39399	292.9212	-112.28646	-349.8781	259.56073	91.94471	-117.98215	510.98476	890.15498	1506.91684	1223.75968	872.25424	0
377	441.00914	356.38746	-85.43535	-398.6983	264.44275	135.88289	-137.51023	403.58032	816.92468	1509.35785	1279.90291	957.68959	0
378	458.09621	422.29473	-36.61515	-440.19547	247.35568	194.46713	-159.47932	264.44275	665.58206	1426.36351	1289.66695	1021.15585	0
379	448.33217	490.64301	42.31084	-469.48759	203.4175	267.69743	-179.0074	52.07488	431.2451	1255.49281	1248.16978	1067.53504	0
380	416.59904	573.63735	157.03831	-496.3387	130.1872	365.33783	-200.97649	-212.36787	123.67784	1011.39181	1162.73443	1091.94514	0
381	367.77884	644.42664	276.6478	-506.10274	47.19286	460.53722	-218.06356	-568.75533	-250.61036	698.94253	1023.59686	1079.74009	0
382	301.87157	683.4828	381.61123	-493.89769	-39.05616	533.76752	-232.70962	-986.16804	-672.90509	325.468	813.67	1013.83282	0
383	213.99521	663.95472	449.95951	-440.19547	-117.16848	558.17762	-240.03265	-1396.25772	-1107.40487	-75.67131	552.48193	886.9003	0
384	126.11885	600.48846	474.36961	-364.52416	-173.31171	538.64954	-242.47366	-1752.64518	-1505.2895	-463.7919	266.88376	720.91162	0
385	57.77057	507.73008	449.95951	-283.97083	-195.2808	480.0653	-240.03265	-2004.06921	-1837.26686	-798.21027	-11.39138	532.95385	0
386	4.06835	380.79756	376.72921	-193.65346	-185.51676	379.98389	-232.70962	-2182.26294	-2096.01392	-1074.0444	-285.59817	323.02699	0
387	-45.56552	229.45494	274.20679	-93.57205	-158.66565	250.61036	-227.8276	-2277.46233	-2283.97169	-1301.05833	-551.66826	100.89508	0
388	-87.06269	85.43535	171.68437	-0.81367	-129.37353	128.55986	-225.38659	-2296.99041	-2408.4632	-1479.25206	-790.88724	-109.84545	0
389	-121.23683	-27.66478	93.57205	73.2303	-107.40444	33.36047	-232.70962	-2279.90334	-2457.2834	-1591.53852	-973.96299	-285.59817	0
390	-152.96996	-98.45407	54.51589	124.49151	-104.96343	-23.59643	-235.15063	-2201.79102	-2432.8733	-1633.03569	-1091.13147	-410.08968	0
391	-182.26208	-135.06922	47.19286	156.22464	-114.72747	-45.56552	-232.70962	-2113.91466	-2349.87896	-1618.38963	-1152.15672	-497.96604	0
392	-209.11319	-142.39225	66.72094	173.31171	-139.13757	-38.24249	-222.94558	-2004.06921	-2218.06442	-1557.36438	-1169.24379	-546.78624	0
393	-223.75925	-125.30518	98.45407	173.31171	-161.10666	-13.01872	-208.29952	-1857.60861	-2054.51675	-1459.72398	-1139.95167	-556.55028	0
394	-221.31824	-96.01306	125.30518	156.22464	-173.31171	13.83239	-191.21245	-1672.09185	-1864.11797	-1337.67348	-1074.0444	-539.46321	0
395	-213.99521	-69.16195	144.83326	139.13757	-180.63474	38.24249	-169.24336	-1425.54984	-1663.95515	-1191.21288	-983.72703	-505.28907	0
396	-187.1441	-44.75185	142.39225	114.72747	-165.98868	48.00653	-144.83326	-1179.00783	-1463.79233	-1037.42925	-886.08663	-458.90988	0
397	-160.29299	-34.98781	125.30518	95.19939	-144.01959	45.56552	-125.30518	-939.78885	-1283.15759	-895.85067	-793.32825	-412.53069	0
398	-135.88289	-34.98781	100.89508	82.99434	-119.60949	33.36047	-110.65912	-703.01088	-1119.60992	-771.35916	-712.77492	-371.03352	0
399	-109.03178	-42.31084	66.72094	73.2303	-87.87636	11.39138	-96.01306	-505.28907	-968.2673	-661.51371	-639.54462	-334.41837	0
400	-91.94471	-56.9569	34.98781	73.2303	-63.46626	-10.57771	-78.92599	-331.97736	-838.89377	-571.19634	-585.8424	-307.56726	1500	QRS+0
401	-84.62168	-74.04397	10.57771	78.11232	-48.8202	-33.36047	-59.39791	-222.13191	-733.93034	-502.84806	-541.90422	-295.36221	0
402	-74.85764	-86.24902	-11.39138	78.11232	-31.73313	-50.44754	-42.31084	-165.98868	-653.37701	-451.58685	-515.05311	-288.03918	0
403	-67.53461	-96.01306	-29.29212	80.55333	-19.52808	-62.65259	-27.66478	-126.93252	-592.35176	-414.9717	-490.64301	-283.15716	0
404	-52.88855	-103.33609	-51.26121	75.67131	-2.44101	-77.29865	-10.57771	-91.94471	-541.09055	-385.67958	-461.35089	-273.39312	0
405	-43.12451	-110.65912	-68.34828	75.67131	12.20505	-89.5037	2.44101	-40.6835	-511.79843	-356.38746	-434.49978	-263.62908	0
406	-40.6835	-117.98215	-78.11232	78.11232	17.90074	-99.26774	12.20505	-1.62734	-484.94732	-331.97736	-407.64867	-253.86504	0
407	-35.80148	-117.98215	-82.99434	75.67131	22.78276	-101.70875	21.96909	49.63387	-462.97823	-305.12625	-385.67958	-241.65999	0
408	-35.80148	-120.42316	-85.43535	75.67131	25.22377	-104.14976	31.73313	110.65912	-436.12712	-280.71615	-363.71049	-224.57292	0
409	-38.24249	-115.54114	-78.11232	75.67131	20.34175	-96.82673	41.49717	159.47932	-401.95298	-253.86504	-341.7414	-205.04484	0
410	-35.80148	-103.33609	-68.34828	68.34828	15.45973	-87.06269	46.37919	203.4175	-367.77884	-231.89595	-322.21332	-190.39878	0
411	-28.47845	-88.69003	-61.02525	56.14323	15.45973	-74.85764	53.70222	210.74053	-336.04571	-209.92686	-307.56726	-180.63474	0
412	-26.03744	-86.24902	-61.02525	53.70222	17.90074	-74.85764	56.14323	193.65346	-306.75359	-195.2808	-300.24423	-175.75272	0
413	-35.80148	-93.57205	-58.58424	63.46626	9.76404	-77.29865	56.14323	171.68437	-289.66652	-190.39878	-292.9212	-173.31171	0
414	-45.56552	-100.89508	-56.14323	70.78929	4.88202	-79.73966	58.58424	154.5973	-277.46147	-187.95777	-285.59817	-170.8707	0
415	-55.32956	-103.33609	-48.8202	78.11232	-4.88202	-77.29865	61.02525	166.80235	-272.57945	-185.51676	-275.83413	-168.42969	0
416	-65.0936	-105.7771	-41.49717	82.99434	-12.20505	-74.85764	65.90727	179.0074	-267.69743	-175.75272	-263.62908	-161.10666	0
417	-74.85764	-108.21811	-34.17414	90.31737	-21.96909	-72.41663	68.34828	205.85851	-262.81541	-163.54767	-256.30605	-153.78363	0
418	-82.18067	-98.45407	-16.2734	87.87636	-34.17414	-57.77057	65.90727	244.91467	-253.05137	-153.78363	-248.98302	-144.01959	0
419	-84.62168	-86.24902	-1.62734	82.99434	-41.49717	-45.56552	65.90727	274.20679	-233.52329	-139.13757	-239.21898	-126.93252	0
420	-77.29865	-64.27993	13.01872	68.34828	-46.37919	-26.03744	70.78929	310.82194	-206.67218	-119.60949	-227.01393	-109.84545	0
421	-62.65259	-44.75185	17.90074	51.26121	-41.49717	-13.01872	75.67131	315.70396	-177.38006	-100.08141	-212.36787	-92.75838	0
422	-50.44754	-27.66478	22.78276	36.61515	-36.61515	-3.25468	80.55333	301.0579	-143.20592	-78.11232	-202.60383	-75.67131	0
423	-50.44754	-19.52808	30.10579	34.17414	-39.05616	4.06835	82.99434	283.97083	-123.67784	-63.46626	-190.39878	-65.0936	0
424	-50.44754	-17.08707	32.5468	31.73313	-41.49717	6.50936	87.87636	276.6478	-101.70875	-51.26121	-173.31171	-50.44754	0
425	-50.44754	-14.64606	34.98781	31.73313	-41.49717	8.95037	95.19939	296.17588	-91.94471	-36.61515	-153.78363	-38.24249	0
426	-40.6835	-4.88202	34.98781	21.96909	-36.61515	13.83239	97.6404	313.26295	-79.73966	-19.52808	-136.69656	-28.47845	0
427	-28.47845	-2.44101	25.22377	14.64606	-26.85111	11.39138	97.6404	342.55507	-67.53461	-2.44101	-124.49151	-18.71441	0
428	-18.71441	0	17.90074	8.95037	-17.08707	8.95037	92.75838	384.05224	-55.32956	9.76404	-117.16848	-16.2734	0
429	-16.2734	4.88202	20.34175	4.06835	-17.08707	11.39138	92.75838	423.1084	-26.03744	31.73313	-102.52242	-4.06835	0
430	-16.2734	7.32303	22.78276	4.06835	-19.52808	13.83239	97.6404	469.48759	13.01872	56.9569	-82.99434	10.57771	0
431	-8.95037	14.64606	22.78276	-3.25468	-14.64606	18.71441	97.6404	479.25163	47.19286	81.367	-68.34828	17.90074	0
432	0.81367	24.4101	22.78276	-13.01872	-9.76404	23.59643	97.6404	476.81062	87.06269	108.21811	-53.70222	27.66478	0
433	0.81367	26.85111	25.22377	-15.45973	-12.20505	26.03744	100.08141	481.69264	123.67784	132.62821	-34.17414	39.86983	0
434	0.81367	29.29212	27.66478	-15.45973	-12.20505	28.47845	109.84545	493.89769	162.734	161.92033	-4.06835	59.39791	0
435	6.50936	36.61515	30.10579	-22.78276	-12.20505	33.36047	117.16848	532.95385	192.02612	188.77144	25.22377	78.92599	0
436	23.59643	48.8202	25.22377	-37.42882	0	38.24249	119.60949	559.80496	213.99521	210.74053	47.19286	88.69003	0
437	21.15542	51.26121	30.10579	-37.42882	-4.88202	40.6835	117.16848	601.30213	235.9643	232.70962	61.83892	98.45407	0
438	16.2734	48.8202	32.5468	-32.5468	-7.32303	40.6835	117.16848	657.44536	260.3744	252.2377	74.04397	108.21811	0
439	11.39138	46.37919	34.98781	-30.10579	-12.20505	40.6835	119.60949	703.82455	296.98955	279.08881	91.13104	120.42316	0
440	11.39138	46.37919	34.98781	-30.10579	-12.20505	40.6835	119.60949	747.76273	333.6047	303.49891	100.89508	127.74619	0
441	6.50936	39.05616	32.5468	-22.78276	-12.20505	35.80148	114.72747	755.08576	367.77884	325.468	113.10013	127.74619	0
442	0.81367	19.52808	17.90074	-10.57771	-7.32303	18.71441	109.84545	752.64475	406.835	349.8781	122.86417	127.74619	0
443	-1.62734	9.76404	10.57771	-5.69569	-4.88202	8.95037	107.40444	752.64475	441.00914	374.2882	139.95124	132.62821	0
444	4.06835	2.44101	-1.62734	-3.25468	2.44101	1.62734	104.96343	752.64475	470.30126	393.81628	159.47932	139.95124	0
445	16.2734	-2.44101	-18.71441	-8.1367	17.90074	-10.57771	104.96343	777.05485	487.38833	413.34436	183.88942	147.27427	0
446	16.2734	-4.88202	-21.15542	-5.69569	20.34175	-13.01872	100.08141	796.58293	504.4754	435.31345	205.85851	154.5973	0
447	18.71441	2.44101	-16.2734	-10.57771	17.90074	-5.69569	100.08141	828.31606	519.12146	457.28254	225.38659	166.80235	0
448	23.59643	14.64606	-8.95037	-20.34175	17.90074	4.06835	97.6404	872.25424	536.20853	476.81062	244.91467	179.0074	0
449	30.91946	24.4101	-6.50936	-27.66478	20.34175	8.95037	97.6404	899.10535	558.17762	496.3387	262.00174	193.65346	0
450	40.6835	34.17414	-6.50936	-37.42882	25.22377	13.83239	97.6404	925.95646	580.14671	515.86678	276.6478	205.85851	0
451	45.56552	43.93818	-1.62734	-44.75185	25.22377	21.15542	97.6404	923.51545	602.1158	532.95385	288.85285	215.62255	0
452	48.00653	51.26121	3.25468	-49.63387	22.78276	28.47845	92.75838	903.98737	624.08489	545.1589	293.73487	222.94558	0
453	52.88855	41.49717	-11.39138	-47.19286	32.5468	16.2734	85.43535	882.01828	631.40792	550.04092	296.17588	225.38659	0
454	52.88855	31.73313	-21.15542	-42.31084	37.42882	6.50936	80.55333	862.4902	636.28994	550.04092	303.49891	225.38659	0
455	50.44754	26.85111	-24.4101	-39.86983	37.42882	1.62734	70.78929	862.4902	633.84893	557.36395	315.70396	227.8276	0
456	52.88855	24.4101	-29.29212	-39.86983	42.31084	-0.81367	65.90727	862.4902	633.84893	567.12799	332.79103	232.70962	0
457	50.44754	21.96909	-29.29212	-37.42882	39.86983	-3.25468	61.02525	877.13626	638.73095	584.21506	352.31911	242.47366	0
458	50.44754	19.52808	-31.73313	-34.98781	42.31084	-5.69569	56.14323	903.98737	650.936	601.30213	371.84719	257.11972	0
459	55.32956	26.85111	-29.29212	-42.31084	42.31084	-0.81367	53.70222	921.07444	668.02307	618.3892	393.81628	274.20679	0
460	60.21158	39.05616	-21.15542	-49.63387	42.31084	8.95037	46.37919	938.16151	687.55115	635.47627	408.46234	288.85285	0
461	69.97562	43.93818	-26.85111	-56.9569	49.63387	8.95037	39.05616	925.95646	704.63822	650.12233	423.1084	303.49891	0
462	79.73966	46.37919	-34.17414	-64.27993	56.9569	6.50936	29.29212	903.98737	719.28428	657.44536	430.43143	315.70396	0
463	89.5037	43.93818	-46.37919	-66.72094	69.16195	-0.81367	19.52808	877.13626	719.28428	655.00435	432.87244	323.02699	0
464	91.94471	43.93818	-48.8202	-69.16195	71.60296	-0.81367	7.32303	845.40313	707.07923	642.7993	432.87244	325.468	0
465	91.94471	43.93818	-48.8202	-69.16195	71.60296	-0.81367	-0.81367	830.75707	682.66913	630.59425	430.43143	323.02699	0
466	89.5037	41.49717	-48.8202	-66.72094	69.16195	-3.25468	-8.1367	811.22899	665.58206	623.27122	432.87244	323.02699	0
467	82.18067	39.05616	-43.93818	-61.83892	64.27993	-0.81367	-13.01872	806.34697	646.05398	618.3892	435.31345	325.468	0
468	74.85764	39.05616	-36.61515	-56.9569	56.9569	1.62734	-17.90074	808.78798	626.5259	608.62516	430.43143	325.468	0
469	62.65259	39.05616	-24.4101	-52.07488	44.75185	8.95037	-20.34175	801.46495	611.87984	598.86112	430.43143	330.35002	0
470	55.32956	34.17414	-21.15542	-44.75185	39.86983	6.50936	-25.22377	789.2599	597.23378	589.09708	425.54941	330.35002	0
471	57.77057	31.73313	-26.85111	-44.75185	42.31084	4.06835	-30.10579	745.32172	577.7057	569.569	418.22638	327.90901	0
472	65.0936	31.73313	-34.17414	-49.63387	49.63387	-0.81367	-34.98781	691.6195	553.2956	545.1589	401.13931	325.468	0
473	74.85764	34.17414	-41.49717	-54.51589	59.39791	-3.25468	-47.19286	635.47627	511.79843	503.66173	379.17022	313.26295	0
474	84.62168	36.61515	-48.8202	-61.83892	66.72094	-5.69569	-56.9569	574.45102	460.53722	457.28254	354.76012	301.0579	0
475	79.73966	34.17414	-46.37919	-56.9569	64.27993	-5.69569	-66.72094	532.95385	404.39399	413.34436	327.90901	283.97083	0
476	72.41663	31.73313	-41.49717	-52.07488	56.9569	-3.25468	-71.60296	486.57466	353.13278	369.40618	301.0579	271.76578	0
477	65.0936	34.17414	-31.73313	-49.63387	49.63387	1.62734	-76.48498	459.72355	304.31258	330.35002	274.20679	259.56073	0
478	45.56552	24.4101	-21.15542	-34.98781	34.98781	1.62734	-76.48498	447.5185	262.81541	293.73487	252.2377	252.2377	0
479	18.71441	14.64606	-4.06835	-17.90074	12.20505	6.50936	-76.48498	425.54941	226.20026	259.56073	232.70962	247.35568	0
480	-4.06835	2.44101	5.69569	-0.81367	-4.88202	4.06835	-76.48498	403.58032	192.02612	227.8276	213.18154	237.59164	0
481	-13.83239	-12.20505	0.81367	12.20505	-7.32303	-5.69569	-74.04397	354.76012	157.85198	193.65346	191.21245	225.38659	0
482	-13.83239	-27.66478	-13.83239	19.52808	0	-20.34175	-71.60296	303.49891	128.55986	159.47932	169.24336	213.18154	0
483	-13.83239	-42.31084	-29.29212	26.85111	7.32303	-35.80148	-66.72094	252.2377	87.06269	115.54114	142.39225	198.53548	0
484	-21.15542	-59.39791	-39.05616	39.05616	7.32303	-50.44754	-66.72094	200.97649	42.31084	71.60296	115.54114	179.0074	0
485	-23.59643	-74.04397	-51.26121	46.37919	12.20505	-62.65259	-66.72094	164.36134	-6.50936	34.17414	88.69003	157.03831	0
486	-26.03744	-86.24902	-61.02525	53.70222	17.90074	-74.85764	-66.72094	132.62821	-43.12451	2.44101	66.72094	139.95124	0
487	-30.91946	-91.13104	-61.02525	58.58424	15.45973	-77.29865	-59.39791	120.42316	-72.41663	-19.52808	44.75185	127.74619	0
488	-43.12451	-98.45407	-56.14323	68.34828	4.88202	-77.29865	-54.51589	115.54114	-96.82673	-46.37919	20.34175	115.54114	0
489	-55.32956	-105.7771	-51.26121	78.11232	-2.44101	-79.73966	-52.07488	103.33609	-118.79582	-70.78929	-1.62734	103.33609	0
490	-60.21158	-115.54114	-56.14323	85.43535	-2.44101	-87.06269	-52.07488	91.13104	-131.00087	-87.87636	-21.96909	91.13104	0
491	-57.77057	-117.98215	-61.02525	85.43535	0	-89.5037	-49.63387	59.39791	-145.64693	-107.40444	-41.49717	74.04397	0
492	-52.88855	-122.86417	-70.78929	85.43535	7.32303	-96.82673	-49.63387	20.34175	-160.29299	-131.81454	-65.90727	56.9569	0
493	-50.44754	-132.62821	-82.99434	90.31737	15.45973	-109.03178	-49.63387	-13.83239	-184.70309	-161.10666	-87.87636	42.31084	0
494	-50.44754	-137.51023	-87.87636	92.75838	17.90074	-113.9138	-52.07488	-48.00653	-211.5542	-190.39878	-104.96343	25.22377	-1500	QRS-0
495	-48.00653	-139.95124	-92.75838	92.75838	22.78276	-116.35481	-52.07488	-60.21158	-238.40531	-209.92686	-114.72747	13.01872	0
496	-45.56552	-137.51023	-92.75838	90.31737	22.78276	-116.35481	-52.07488	-74.85764	-253.05137	-219.6909	-124.49151	3.25468	0
497	-43.12451	-130.1872	-87.87636	85.43535	22.78276	-109.03178	-49.63387	-69.97562	-262.81541	-227.01393	-131.81454	0.81367	0
498	-40.6835	-122.86417	-82.99434	80.55333	20.34175	-104.14976	-42.31084	-55.32956	-265.25642	-231.89595	-134.25555	3.25468	0
499	-40.6835	-115.54114	-75.67131	75.67131	17.90074	-96.82673	-34.98781	-43.12451	-260.3744	-231.89595	-136.69656	5.69569	0
500	-40.6835	-115.54114	-75.67131	75.67131	17.90074	-96.82673	-27.66478	-38.24249	-253.05137	-231.89595	-141.57858	5.69569	0
501	-40.6835	-113.10013	-73.2303	75.67131	15.45973	-94.38572	-25.22377	-43.12451	-253.05137	-231.89595	-144.01959	3.25468	0
502	-40.6835	-110.65912	-70.78929	73.2303	15.45973	-91.94471	-25.22377	-72.41663	-250.61036	-239.21898	-156.22464	-1.62734	0
503	-45.56552	-113.10013	-68.34828	78.11232	9.76404	-91.94471	-27.66478	-96.82673	-257.93339	-253.86504	-165.98868	-11.39138	0
504	-55.32956	-130.1872	-75.67131	90.31737	9.76404	-104.14976	-32.5468	-119.60949	-270.13844	-273.39312	-173.31171	-18.71441	0
505	-60.21158	-144.83326	-85.43535	100.08141	12.20505	-116.35481	-39.86983	-134.25555	-287.22551	-288.03918	-178.19373	-30.91946	0
506	-65.0936	-152.15629	-87.87636	107.40444	9.76404	-121.23683	-44.75185	-144.01959	-301.87157	-297.80322	-180.63474	-45.56552	0
507	-74.85764	-157.03831	-82.99434	114.72747	2.44101	-121.23683	-52.07488	-148.90161	-309.1946	-300.24423	-180.63474	-57.77057	0
508	-87.06269	-169.24336	-82.99434	126.93252	-2.44101	-126.11885	-52.07488	-134.25555	-309.1946	-297.80322	-178.19373	-60.21158	0
509	-96.82673	-181.44841	-85.43535	136.69656	-7.32303	-133.44188	-49.63387	-119.60949	-304.31258	-295.36221	-175.75272	-55.32956	0
510	-94.38572	-174.12538	-80.55333	131.81454	-7.32303	-128.55986	-42.31084	-104.14976	-294.54854	-290.48019	-170.8707	-50.44754	0
511	-89.5037	-164.36134	-75.67131	124.49151	-7.32303	-121.23683	-37.42882	-109.03178	-284.7845	-288.03918	-170.8707	-50.44754	0
512	-87.06269	-161.92033	-75.67131	122.0505	-7.32303	-118.79582	-32.5468	-131.81454	-275.02046	-288.03918	-173.31171	-45.56552	0
513	-77.29865	-159.47932	-82.99434	117.16848	2.44101	-121.23683	-30.10579	-148.90161	-275.02046	-297.80322	-183.07575	-40.6835	0
514	-65.0936	-159.47932	-95.19939	109.84545	15.45973	-128.55986	-25.22377	-158.66565	-277.46147	-307.56726	-183.07575	-33.36047	0
515	-50.44754	-147.27427	-97.6404	97.6404	22.78276	-123.67784	-20.34175	-163.54767	-284.7845	-312.44928	-183.07575	-30.91946	0
516	-45.56552	-135.06922	-90.31737	87.87636	22.78276	-113.9138	-17.90074	-165.98868	-289.66652	-314.89029	-180.63474	-30.91946	0
517	-43.12451	-125.30518	-82.99434	82.99434	20.34175	-104.14976	-13.01872	-156.22464	-287.22551	-310.00827	-175.75272	-28.47845	0
518	-48.00653	-122.86417	-75.67131	82.99434	12.20505	-99.26774	-8.1367	-136.69656	-282.34349	-295.36221	-170.8707	-23.59643	0
519	-50.44754	-117.98215	-68.34828	82.99434	7.32303	-94.38572	-0.81367	-113.9138	-270.13844	-278.27514	-165.98868	-16.2734	0
520	-60.21158	-117.98215	-58.58424	87.87636	-2.44101	-89.5037	-0.81367	-99.26774	-257.93339	-256.30605	-158.66565	-13.83239	0
521	-65.0936	-117.98215	-53.70222	90.31737	-7.32303	-87.06269	-0.81367	-104.14976	-250.61036	-239.21898	-156.22464	-16.2734	0
522	-72.41663	-125.30518	-53.70222	97.6404	-9.76404	-89.5037	-3.25468	-126.93252	-240.84632	-227.01393	-158.66565	-23.59643	0
523	-79.73966	-137.51023	-58.58424	107.40444	-12.20505	-99.26774	-3.25468	-144.01959	-240.84632	-219.6909	-163.54767	-28.47845	0
524	-87.06269	-144.83326	-58.58424	114.72747	-14.64606	-101.70875	-3.25468	-158.66565	-248.16935	-219.6909	-161.10666	-33.36047	0
525	-89.5037	-149.71528	-61.02525	117.16848	-14.64606	-106.59077	-3.25468	-165.98868	-255.49238	-217.24989	-158.66565	-38.24249	0
526	-87.06269	-149.71528	-63.46626	117.16848	-12.20505	-106.59077	-5.69569	-168.42969	-262.81541	-217.24989	-156.22464	-48.00653	0
527	-87.06269	-147.27427	-61.02525	114.72747	-14.64606	-104.14976	-0.81367	-151.34262	-255.49238	-207.48585	-148.90161	-52.88855	0
528	-87.06269	-137.51023	-51.26121	109.84545	-19.52808	-94.38572	14.64606	-117.16848	-233.52329	-185.51676	-136.69656	-55.32956	0
529	-84.62168	-135.06922	-51.26121	107.40444	-17.08707	-94.38572	26.85111	-69.97562	-196.90814	-158.66565	-124.49151	-52.88855	0
530	-87.06269	-135.06922	-48.8202	109.84545	-19.52808	-91.94471	36.61515	-23.59643	-148.08794	-119.60949	-102.52242	-50.44754	0
531	-94.38572	-135.06922	-41.49717	112.28646	-26.85111	-89.5037	48.8202	13.01872	-84.62168	-68.34828	-70.78929	-38.24249	0
532	-99.26774	-127.74619	-29.29212	112.28646	-36.61515	-79.73966	56.14323	30.10579	-13.83239	-7.32303	-29.29212	-16.2734	0
533	-99.26774	-120.42316	-21.15542	107.40444	-39.05616	-72.41663	58.58424	52.07488	56.9569	59.39791	22.78276	15.45973	0
534	-91.94471	-105.7771	-13.83239	97.6404	-39.05616	-60.21158	58.58424	78.92599	138.3239	137.51023	98.45407	59.39791	0
535	-77.29865	-88.69003	-11.39138	80.55333	-34.17414	-50.44754	56.14323	120.42316	233.52329	242.47366	191.21245	113.10013	0
536	-52.88855	-54.51589	-1.62734	51.26121	-26.85111	-28.47845	51.26121	174.12538	343.36874	364.52416	305.93992	179.0074	0
537	-8.95037	-7.32303	0.81367	6.50936	-4.88202	-3.25468	46.37919	242.47366	465.41924	506.10274	427.99042	259.56073	0
538	30.91946	36.61515	5.69569	-34.98781	12.20505	21.15542	39.05616	320.58598	594.79277	657.44536	559.80496	349.8781	0
539	65.0936	78.11232	13.01872	-71.60296	27.66478	45.56552	26.85111	376.72921	721.72529	806.34697	691.6195	447.5185	0
540	106.59077	122.0505	15.45973	-115.54114	47.19286	69.97562	9.76404	401.13931	829.12973	945.48454	820.99303	545.1589	0
541	148.08794	163.54767	15.45973	-157.03831	66.72094	89.5037	-13.01872	371.84719	917.00609	1067.53504	940.60252	640.35829	0
542	184.70309	197.72181	13.01872	-191.21245	86.24902	106.59077	-39.86983	298.61689	975.59033	1170.05746	1050.44797	735.55768	0
543	213.99521	229.45494	15.45973	-222.94558	100.89508	123.67784	-69.16195	208.29952	1004.88245	1253.0518	1155.4114	830.75707	0
544	243.28733	268.5111	25.22377	-257.11972	110.65912	148.08794	-105.7771	98.45407	1012.20548	1321.40008	1260.37483	930.83848	0
545	277.46147	322.21332	44.75185	-301.0579	117.98215	184.70309	-137.51023	-13.83239	987.79538	1358.01523	1350.6922	1026.03787	0
546	304.31258	385.67958	81.367	-344.99608	113.10013	233.52329	-161.92033	-139.13757	902.36003	1336.04614	1406.83543	1109.03221	0
547	314.07662	463.7919	149.71528	-388.93426	83.80801	306.75359	-181.44841	-305.12625	731.48933	1226.20069	1404.39442	1174.93948	0
548	301.87157	551.66826	249.79669	-427.99042	27.66478	401.95298	-198.53548	-519.93513	470.30126	1033.3609	1343.36917	1216.43665	0
549	279.90248	646.86765	366.96517	-464.60557	-43.93818	506.91641	-215.62255	-790.88724	131.00087	762.40879	1228.6417	1228.6417	0
550	243.28733	727.42098	484.13365	-486.57466	-119.60949	606.99782	-227.8276	-1110.65955	-267.69743	432.87244	1057.771	1199.34958	0
551	189.58511	768.91815	579.33304	-479.25163	-195.2808	675.3461	-232.70962	-1467.04701	-716.84327	47.19286	818.55202	1104.15019	0
552	126.11885	764.03613	637.91728	-445.07749	-256.30605	702.19721	-237.59164	-1828.31649	-1168.43012	-351.50544	520.7488	947.92555	0
553	67.53461	703.01088	635.47627	-386.49325	-283.15716	670.46408	-235.15063	-2138.32476	-1578.5198	-724.97997	205.85851	752.64475	0
554	21.15542	595.60644	574.45102	-308.38093	-275.83413	585.02873	-225.38659	-2375.10273	-1910.49716	-1039.87026	-92.75838	540.27688	0
555	-23.59643	456.46887	479.25163	-218.06356	-251.42403	467.86025	-208.29952	-2528.88636	-2159.48018	-1286.41227	-375.91554	313.26295	0
556	-69.97562	292.9212	362.08315	-113.10013	-214.80888	326.28167	-191.21245	-2616.76272	-2337.67391	-1484.13408	-637.10361	76.48498	0
557	-116.35481	139.13757	254.67871	-13.01872	-185.51676	196.90814	-179.0074	-2648.49585	-2442.63734	-1625.71266	-866.55855	-139.13757	0
558	-150.52895	17.08707	166.80235	65.90727	-158.66565	91.94471	-169.24336	-2626.52676	-2476.81148	-1703.82498	-1037.42925	-312.44928	0
559	-177.38006	-64.27993	113.10013	119.60949	-146.4606	23.59643	-161.92033	-2553.29646	-2437.75532	-1718.47104	-1142.39268	-429.61776	0
560	-213.99521	-108.21811	105.7771	158.66565	-161.10666	-0.81367	-157.03831	-2438.56899	-2340.11492	-1684.2969	-1193.65389	-517.49412	0
561	-248.16935	-127.74619	120.42316	185.51676	-185.51676	-3.25468	-152.15629	-2299.43142	-2203.41836	-1611.0666	-1203.41793	-568.75533	0
562	-270.13844	-117.98215	152.15629	192.83979	-212.36787	16.2734	-149.71528	-2138.32476	-2030.10665	-1501.22115	-1171.6848	-585.8424	0
563	-284.7845	-103.33609	181.44841	192.83979	-234.33696	38.24249	-139.95124	-1938.16194	-1837.26686	-1369.40661	-1108.21854	-568.75533	0
564	-282.34349	-91.13104	191.21245	185.51676	-236.77797	50.44754	-130.1872	-1713.58902	-1629.78101	-1222.94601	-1015.46016	-532.14018	0
565	-272.57945	-78.92599	193.65346	173.31171	-234.33696	57.77057	-115.54114	-1484.13408	-1427.17718	-1069.16238	-912.93774	-485.76099	0
566	-255.49238	-74.04397	181.44841	163.54767	-219.6909	52.88855	-103.33609	-1269.3252	-1241.66042	-920.26077	-807.97431	-439.3818	0
567	-226.20026	-66.72094	159.47932	144.01959	-192.83979	45.56552	-88.69003	-1071.60339	-1078.11275	-783.56421	-712.77492	-390.5616	0
568	-194.46713	-61.83892	132.62821	126.93252	-163.54767	35.80148	-74.04397	-886.08663	-926.77013	-661.51371	-627.33957	-344.18241	0
569	-160.29299	-59.39791	100.89508	107.40444	-131.81454	21.15542	-54.51589	-729.86199	-797.3966	-563.87331	-558.99129	-307.56726	0
570	-131.00087	-54.51589	76.48498	90.31737	-104.96343	11.39138	-32.5468	-600.48846	-687.55115	-483.31998	-505.28907	-280.71615	0
571	-116.35481	-56.9569	59.39791	85.43535	-87.87636	1.62734	-13.01872	-510.17109	-602.1158	-424.73574	-466.23291	-268.5111	0
572	-106.59077	-66.72094	39.86983	85.43535	-73.2303	-13.01872	4.88202	-439.3818	-531.32651	-375.91554	-432.05877	-253.86504	0
573	-99.26774	-76.48498	22.78276	85.43535	-61.02525	-28.47845	19.52808	-380.79756	-477.62429	-344.18241	-407.64867	-246.54201	0
574	-91.94471	-91.13104	0.81367	90.31737	-46.37919	-45.56552	29.29212	-336.85938	-441.00914	-322.21332	-385.67958	-236.77797	0
575	-84.62168	-100.89508	-16.2734	90.31737	-34.17414	-60.21158	36.61515	-302.68524	-419.04005	-305.12625	-368.59251	-234.33696	0
576	-82.18067	-115.54114	-34.17414	97.6404	-24.4101	-74.85764	36.61515	-278.27514	-404.39399	-290.48019	-353.94645	-239.21898	0
577	-82.18067	-122.86417	-41.49717	100.08141	-21.96909	-82.18067	34.17414	-251.42403	-387.30692	-270.95211	-341.7414	-239.21898	0
578	-82.18067	-117.98215	-36.61515	97.6404	-24.4101	-77.29865	36.61515	-219.6909	-362.89682	-246.54201	-324.65433	-236.77797	0
579	-84.62168	-110.65912	-26.85111	95.19939	-29.29212	-69.97562	39.05616	-192.83979	-336.04571	-227.01393	-310.00827	-236.77797	0
580	-91.94471	-105.7771	-13.83239	97.6404	-39.05616	-60.21158	41.49717	-165.98868	-306.75359	-205.04484	-297.80322	-239.21898	0
581	-96.82673	-103.33609	-6.50936	97.6404	-46.37919	-55.32956	46.37919	-146.4606	-275.02046	-185.51676	-285.59817	-241.65999	0
582	-104.14976	-98.45407	5.69569	100.08141	-56.14323	-48.00653	53.70222	-129.37353	-245.72834	-163.54767	-270.95211	-241.65999	0
583	-104.14976	-93.57205	10.57771	97.6404	-58.58424	-43.12451	63.46626	-111.47279	-223.75925	-144.01959	-258.74706	-234.33696	0
584	-101.70875	-88.69003	13.01872	92.75838	-58.58424	-38.24249	68.34828	-101.70875	-211.5542	-136.69656	-246.54201	-227.01393	0
585	-99.26774	-86.24902	13.01872	90.31737	-56.14323	-38.24249	73.2303	-89.5037	-204.23117	-122.0505	-234.33696	-219.6909	0
586	-94.38572	-74.04397	20.34175	82.99434	-58.58424	-28.47845	73.2303	-79.73966	-199.34915	-104.96343	-219.6909	-209.92686	0
587	-87.06269	-59.39791	27.66478	70.78929	-58.58424	-15.45973	73.2303	-69.97562	-189.58511	-82.99434	-207.48585	-197.72181	0
588	-82.18067	-44.75185	37.42882	61.02525	-61.02525	-3.25468	73.2303	-52.88855	-174.93905	-58.58424	-195.2808	-183.07575	0
589	-77.29865	-30.10579	47.19286	51.26121	-63.46626	8.95037	70.78929	-35.80148	-150.52895	-36.61515	-183.07575	-173.31171	0
590	-72.41663	-14.64606	56.9569	41.49717	-63.46626	21.15542	70.78929	-16.2734	-121.23683	-9.76404	-165.98868	-165.98868	0
591	-65.0936	-9.76404	54.51589	36.61515	-58.58424	21.15542	73.2303	-1.62734	-91.94471	14.64606	-148.90161	-161.10666	0
592	-55.32956	-7.32303	47.19286	29.29212	-51.26121	18.71441	80.55333	15.45973	-60.21158	39.05616	-131.81454	-148.90161	0
593	-43.12451	4.88202	47.19286	17.08707	-43.93818	26.03744	85.43535	37.42882	-35.80148	59.39791	-114.72747	-136.69656	0
594	-18.71441	19.52808	37.42882	-0.81367	-26.85111	28.47845	92.75838	56.9569	-16.2734	74.04397	-90.31737	-122.0505	0
595	0.81367	29.29212	27.66478	-15.45973	-12.20505	28.47845	95.19939	74.04397	-4.06835	91.13104	-68.34828	-112.28646	0
596	16.2734	34.17414	17.90074	-25.22377	0	26.03744	95.19939	88.69003	10.57771	110.65912	-43.93818	-102.52242	0
597	13.83239	36.61515	22.78276	-25.22377	-4.88202	30.91946	95.19939	103.33609	25.22377	127.74619	-24.4101	-95.19939	0
598	8.95037	46.37919	37.42882	-27.66478	-14.64606	43.12451	90.31737	122.86417	44.75185	149.71528	-8.95037	-85.43535	0
599	6.50936	46.37919	39.86983	-27.66478	-17.08707	43.12451	87.87636	144.83326	72.41663	169.24336	8.1367	-75.67131	0
600	0.81367	36.61515	34.98781	-20.34175	-17.08707	35.80148	82.99434	169.24336	106.59077	191.21245	25.22377	-70.78929	0
601	-8.95037	34.17414	42.31084	-13.01872	-24.4101	38.24249	82.99434	196.09447	145.64693	215.62255	39.86983	-62.65259	0
602	-13.83239	29.29212	42.31084	-8.1367	-26.85111	35.80148	82.99434	225.38659	182.26208	237.59164	56.9569	-50.44754	0
603	-6.50936	31.73313	37.42882	-13.01872	-21.96909	33.36047	87.87636	262.00174	218.87723	259.56073	74.04397	-35.80148	0
604	8.95037	41.49717	32.5468	-25.22377	-12.20505	38.24249	97.6404	298.61689	250.61036	279.08881	100.89508	-16.2734	0
605	18.71441	43.93818	25.22377	-32.5468	-2.44101	35.80148	102.52242	335.23204	277.46147	301.0579	125.30518	-4.06835	0
606	23.59643	43.93818	20.34175	-34.98781	2.44101	33.36047	107.40444	366.96517	301.87157	320.58598	147.27427	3.25468	0
607	18.71441	41.49717	22.78276	-30.10579	-2.44101	33.36047	112.28646	398.6983	331.16369	349.8781	169.24336	8.1367	0
608	18.71441	46.37919	27.66478	-32.5468	-4.88202	38.24249	112.28646	432.87244	365.33783	376.72921	188.77144	15.45973	0
609	23.59643	46.37919	22.78276	-34.98781	0	35.80148	112.28646	459.72355	401.95298	401.13931	203.4175	17.90074	0
610	21.15542	46.37919	25.22377	-34.98781	-2.44101	35.80148	109.84545	486.57466	438.56813	425.54941	218.06356	20.34175	0
611	21.15542	46.37919	25.22377	-34.98781	-2.44101	35.80148	104.96343	508.54375	477.62429	447.5185	232.70962	20.34175	0
612	33.36047	58.58424	25.22377	-47.19286	4.88202	43.12451	102.52242	535.39486	516.68045	469.48759	249.79669	25.22377	0
613	48.00653	65.90727	17.90074	-56.9569	15.45973	43.12451	100.08141	562.24597	543.53156	486.57466	266.88376	32.5468	0
614	62.65259	63.46626	0.81367	-64.27993	32.5468	33.36047	100.08141	581.77405	563.05964	493.89769	283.97083	39.86983	0
615	67.53461	56.14323	-11.39138	-61.83892	39.86983	23.59643	97.6404	601.30213	575.26469	506.10274	303.49891	47.19286	0
616	72.41663	56.14323	-16.2734	-64.27993	44.75185	21.15542	92.75838	615.94819	585.02873	518.30779	323.02699	54.51589	0
617	79.73966	58.58424	-21.15542	-69.16195	52.07488	18.71441	90.31737	630.59425	599.67479	532.95385	340.11406	59.39791	0
618	82.18067	56.14323	-26.85111	-69.16195	54.51589	16.2734	85.43535	642.7993	616.76186	552.48193	357.20113	71.60296	0
619	77.29865	53.70222	-24.4101	-66.72094	52.07488	16.2734	80.55333	652.56334	636.28994	562.24597	366.96517	81.367	0
620	79.73966	56.14323	-24.4101	-69.16195	52.07488	16.2734	73.2303	659.88637	655.81802	576.89203	379.17022	88.69003	0
621	87.06269	61.02525	-26.85111	-74.04397	56.9569	18.71441	65.90727	664.76839	675.3461	586.65607	388.93426	93.57205	0
622	99.26774	65.90727	-34.17414	-83.80801	66.72094	16.2734	61.02525	674.53243	694.87418	596.42011	398.6983	98.45407	0
623	111.47279	63.46626	-48.8202	-88.69003	81.367	8.95037	56.14323	681.85546	707.07923	601.30213	406.02133	103.33609	0
624	121.23683	61.02525	-61.02525	-91.13104	91.13104	1.62734	48.8202	684.29647	709.52024	601.30213	418.22638	103.33609	0
625	126.11885	65.90727	-61.02525	-96.01306	93.57205	4.06835	41.49717	684.29647	704.63822	603.74314	432.87244	103.33609	0
626	123.67784	58.58424	-65.90727	-91.13104	96.01306	-3.25468	36.61515	684.29647	707.07923	613.50718	452.40052	105.7771	0
627	121.23683	58.58424	-63.46626	-91.13104	93.57205	-0.81367	31.73313	681.85546	716.84327	628.15324	471.9286	113.10013	0
628	118.79582	58.58424	-61.02525	-88.69003	91.13104	-0.81367	24.4101	679.41445	729.04832	647.68132	491.45668	127.74619	0
629	123.67784	58.58424	-65.90727	-91.13104	96.01306	-3.25468	12.20505	672.09142	738.81236	659.88637	503.66173	144.83326	0
630	128.55986	63.46626	-65.90727	-96.01306	98.45407	-0.81367	-0.81367	667.2094	748.5764	669.65041	513.42577	157.03831	0
631	133.44188	58.58424	-75.67131	-96.01306	105.7771	-8.1367	-8.1367	664.76839	760.78145	674.53243	518.30779	166.80235	0
632	143.20592	56.14323	-87.87636	-100.89508	115.54114	-15.45973	-13.01872	662.32738	768.10448	674.53243	520.7488	176.56639	0
633	150.52895	53.70222	-97.6404	-103.33609	125.30518	-20.34175	-20.34175	657.44536	765.66347	667.2094	518.30779	183.88942	0
634	157.85198	51.26121	-107.40444	-105.7771	132.62821	-28.47845	-32.5468	645.24031	748.5764	650.12233	515.86678	186.33043	0
635	160.29299	56.14323	-104.96343	-108.21811	132.62821	-23.59643	-39.86983	630.59425	726.60731	635.47627	513.42577	181.44841	0
636	155.41097	58.58424	-97.6404	-108.21811	127.74619	-17.90074	-39.86983	613.50718	704.63822	623.27122	515.86678	179.0074	0
637	148.08794	65.90727	-82.99434	-108.21811	115.54114	-8.1367	-42.31084	591.53809	687.55115	613.50718	518.30779	181.44841	0
638	140.76491	70.78929	-70.78929	-105.7771	105.7771	1.62734	-49.63387	569.569	668.02307	603.74314	518.30779	186.33043	0
639	135.88289	70.78929	-65.90727	-103.33609	100.89508	4.06835	-59.39791	537.83587	638.73095	581.77405	506.10274	183.88942	0
640	133.44188	75.67131	-58.58424	-105.7771	96.01306	8.95037	-69.16195	503.66173	609.43883	550.04092	489.01567	174.12538	0
641	126.11885	73.2303	-53.70222	-100.89508	91.13104	11.39138	-71.60296	471.9286	577.7057	518.30779	469.48759	166.80235	0
642	116.35481	65.90727	-51.26121	-91.13104	83.80801	8.95037	-76.48498	440.19547	543.53156	476.81062	447.5185	157.03831	0
643	113.9138	53.70222	-61.02525	-83.80801	88.69003	-3.25468	-81.367	403.58032	497.15237	430.43143	415.78537	144.83326	0
644	113.9138	41.49717	-73.2303	-78.92599	93.57205	-15.45973	-88.69003	366.96517	443.45015	379.17022	386.49325	130.1872	0
645	113.9138	41.49717	-73.2303	-78.92599	93.57205	-15.45973	-93.57205	325.468	387.30692	332.79103	357.20113	110.65912	0
646	113.9138	41.49717	-73.2303	-78.92599	93.57205	-15.45973	-100.89508	283.97083	333.6047	286.41184	325.468	88.69003	0
647	104.14976	31.73313	-73.2303	-69.16195	88.69003	-20.34175	-105.7771	240.03265	284.7845	242.47366	291.29386	69.16195	0
648	91.94471	21.96909	-70.78929	-56.9569	81.367	-23.59643	-105.7771	196.09447	240.84632	203.4175	262.00174	52.07488	0
649	82.18067	12.20505	-70.78929	-47.19286	76.48498	-28.47845	-105.7771	154.5973	194.46713	161.92033	227.8276	25.22377	0
650	67.53461	-2.44101	-70.78929	-32.5468	69.16195	-35.80148	-105.7771	113.10013	157.85198	120.42316	193.65346	3.25468	0
651	55.32956	-19.52808	-75.67131	-17.90074	66.72094	-48.00653	-98.45407	78.92599	123.67784	78.92599	161.92033	-18.71441	0
652	40.6835	-39.86983	-80.55333	-0.81367	59.39791	-60.21158	-91.13104	47.19286	87.06269	39.05616	127.74619	-33.36047	0
653	28.47845	-54.51589	-82.99434	12.20505	54.51589	-67.53461	-81.367	25.22377	56.9569	0	100.89508	-45.56552	0
654	26.03744	-64.27993	-90.31737	17.08707	56.9569	-77.29865	-74.04397	0.81367	17.90074	-41.49717	76.48498	-57.77057	0
655	26.03744	-71.60296	-97.6404	21.96909	61.83892	-84.62168	-66.72094	-18.71441	-16.2734	-73.2303	54.51589	-70.78929	0
656	26.03744	-69.16195	-95.19939	19.52808	59.39791	-82.18067	-59.39791	-43.12451	-48.00653	-97.6404	32.5468	-82.99434	0
657	26.03744	-66.72094	-92.75838	19.52808	59.39791	-79.73966	-59.39791	-67.53461	-74.85764	-122.0505	8.1367	-97.6404	0
658	28.47845	-61.83892	-90.31737	14.64606	59.39791	-74.85764	-56.9569	-89.5037	-96.82673	-134.25555	-13.83239	-112.28646	0
659	30.91946	-66.72094	-97.6404	17.08707	64.27993	-82.18067	-54.51589	-111.47279	-116.35481	-146.4606	-31.73313	-126.93252	0
660	26.03744	-83.80801	-109.84545	26.85111	66.72094	-96.82673	-54.51589	-131.81454	-133.44188	-158.66565	-53.70222	-146.4606	0
661	23.59643	-96.01306	-119.60949	34.17414	71.60296	-106.59077	-56.9569	-153.78363	-150.52895	-173.31171	-75.67131	-165.98868	0
662	16.2734	-113.10013	-129.37353	46.37919	71.60296	-121.23683	-56.9569	-170.8707	-165.17501	-187.95777	-95.19939	-183.07575	0
663	8.95037	-122.86417	-131.81454	56.14323	69.16195	-126.11885	-56.9569	-180.63474	-184.70309	-207.48585	-112.28646	-197.72181	0
664	0.81367	-132.62821	-134.25555	63.46626	66.72094	-133.44188	-54.51589	-190.39878	-204.23117	-224.57292	-122.0505	-207.48585	0
665	-8.95037	-139.95124	-131.81454	73.2303	61.83892	-135.88289	-52.07488	-197.72181	-221.31824	-236.77797	-131.81454	-217.24989	0
666	-4.06835	-130.1872	-126.93252	65.90727	61.83892	-128.55986	-52.07488	-209.92686	-238.40531	-246.54201	-141.57858	-229.45494	0
667	0.81367	-122.86417	-124.49151	58.58424	61.83892	-123.67784	-44.75185	-217.24989	-248.16935	-251.42403	-151.34262	-234.33696	0
668	8.95037	-115.54114	-124.49151	51.26121	66.72094	-118.79582	-42.31084	-227.01393	-253.05137	-253.86504	-158.66565	-234.33696	0
669	11.39138	-115.54114	-126.93252	51.26121	69.16195	-121.23683	-42.31084	-236.77797	-260.3744	-256.30605	-168.42969	-236.77797	0
670	11.39138	-122.86417	-134.25555	53.70222	71.60296	-128.55986	-39.86983	-246.54201	-262.81541	-263.62908	-178.19373	-241.65999	0
671	13.83239	-132.62821	-146.4606	58.58424	78.92599	-138.3239	-39.86983	-253.86504	-267.69743	-273.39312	-187.95777	-251.42403	0
672	8.95037	-144.83326	-153.78363	65.90727	81.367	-148.08794	-39.86983	-258.74706	-267.69743	-285.59817	-197.72181	-253.86504	0
673	-4.06835	-157.03831	-153.78363	78.11232	74.04397	-155.41097	-34.98781	-251.42403	-270.13844	-295.36221	-200.16282	-253.86504	0
674	-23.59643	-171.68437	-148.90161	95.19939	61.83892	-160.29299	-37.42882	-253.86504	-282.34349	-310.00827	-202.60383	-258.74706	0
675	-38.24249	-191.21245	-153.78363	112.28646	56.9569	-172.49804	-32.5468	-256.30605	-292.10753	-317.3313	-205.04484	-266.07009	0
676	-45.56552	-198.53548	-153.78363	119.60949	54.51589	-177.38006	-27.66478	-256.30605	-296.98955	-319.77231	-205.04484	-270.95211	0
677	-43.12451	-193.65346	-151.34262	117.16848	54.51589	-172.49804	-25.22377	-258.74706	-299.43056	-319.77231	-205.04484	-278.27514	0
678	-40.6835	-183.88942	-144.01959	109.84545	52.07488	-165.17501	-22.78276	-261.18807	-294.54854	-312.44928	-205.04484	-283.15716	0
679	-35.80148	-176.56639	-141.57858	104.96343	52.07488	-160.29299	-20.34175	-266.07009	-292.10753	-307.56726	-205.04484	-288.03918	0
680	-26.03744	-169.24336	-144.01959	95.19939	59.39791	-157.85198	-22.78276	-270.95211	-289.66652	-307.56726	-207.48585	-292.9212	0
681	-11.39138	-159.47932	-148.90161	82.99434	69.16195	-155.41097	-20.34175	-270.95211	-282.34349	-305.12625	-207.48585	-295.36221	0
682	-6.50936	-152.15629	-146.4606	78.11232	69.16195	-150.52895	-20.34175	-268.5111	-275.02046	-307.56726	-207.48585	-295.36221	0
683	-8.95037	-147.27427	-139.13757	75.67131	64.27993	-143.20592	-15.45973	-261.18807	-272.57945	-312.44928	-205.04484	-295.36221	0
684	-13.83239	-152.15629	-139.13757	80.55333	61.83892	-145.64693	-5.69569	-251.42403	-275.02046	-312.44928	-197.72181	-292.9212	0
685	-13.83239	-157.03831	-144.01959	82.99434	64.27993	-150.52895	-0.81367	-244.101	-277.46147	-312.44928	-192.83979	-280.71615	0
686	-8.95037	-149.71528	-141.57858	78.11232	66.72094	-145.64693	7.32303	-241.65999	-277.46147	-307.56726	-187.95777	-266.07009	0
687	-1.62734	-142.39225	-141.57858	70.78929	69.16195	-143.20592	17.08707	-236.77797	-270.13844	-300.24423	-183.07575	-244.101	0
688	0.81367	-132.62821	-134.25555	63.46626	66.72094	-133.44188	17.08707	-239.21898	-265.25642	-292.9212	-180.63474	-222.13191	0
689	13.83239	-122.86417	-136.69656	53.70222	74.04397	-128.55986	14.64606	-246.54201	-262.81541	-290.48019	-183.07575	-200.16282	0
690	33.36047	-120.42316	-153.78363	41.49717	93.57205	-135.88289	9.76404	-253.86504	-260.3744	-292.9212	-187.95777	-180.63474	0
691	43.12451	-120.42316	-163.54767	36.61515	103.33609	-140.76491	4.88202	-258.74706	-257.93339	-297.80322	-197.72181	-165.98868	0
692	40.6835	-127.74619	-168.42969	41.49717	103.33609	-148.08794	4.88202	-263.62908	-255.49238	-307.56726	-205.04484	-158.66565	-1250	T-0
693	30.91946	-139.95124	-170.8707	53.70222	100.89508	-155.41097	2.44101	-261.18807	-255.49238	-317.3313	-212.36787	-153.78363	0
694	6.50936	-147.27427	-153.78363	68.34828	78.92599	-150.52895	7.32303	-256.30605	-257.93339	-324.65433	-212.36787	-151.34262	0
695	-13.83239	-147.27427	-134.25555	78.11232	59.39791	-140.76491	19.52808	-241.65999	-253.05137	-319.77231	-202.60383	-144.01959	0
696	-33.36047	-152.15629	-119.60949	90.31737	42.31084	-135.88289	29.29212	-227.01393	-240.84632	-307.56726	-197.72181	-141.57858	0
697	-55.32956	-147.27427	-92.75838	100.08141	17.90074	-121.23683	41.49717	-207.48585	-218.87723	-290.48019	-187.95777	-136.69656	0
698	-60.21158	-139.95124	-80.55333	97.6404	9.76404	-111.47279	53.70222	-178.19373	-182.26208	-258.74706	-173.31171	-126.93252	0
699	-62.65259	-139.95124	-78.11232	100.08141	7.32303	-109.03178	65.90727	-144.01959	-133.44188	-217.24989	-151.34262	-117.16848	0
700	-52.88855	-137.51023	-85.43535	92.75838	15.45973	-111.47279	70.78929	-113.9138	-74.85764	-170.8707	-124.49151	-102.52242	0
701	-38.24249	-132.62821	-95.19939	82.99434	27.66478	-113.9138	73.2303	-84.62168	-8.95037	-114.72747	-82.99434	-78.11232	0
702	-33.36047	-125.30518	-92.75838	78.11232	30.10579	-109.03178	75.67131	-50.44754	69.97562	-43.93818	-24.4101	-40.6835	0
703	-21.15542	-108.21811	-87.87636	63.46626	32.5468	-99.26774	78.11232	-6.50936	167.61602	49.63387	52.07488	17.90074	0
704	-8.95037	-88.69003	-80.55333	46.37919	34.98781	-84.62168	78.11232	47.19286	275.02046	161.92033	157.03831	86.24902	0
705	4.06835	-59.39791	-63.46626	26.85111	32.5468	-60.21158	78.11232	108.21811	397.07096	293.73487	276.6478	169.24336	0
706	23.59643	-19.52808	-43.93818	-3.25468	34.98781	-30.91946	73.2303	171.68437	524.00348	442.63648	408.46234	264.44275	0
707	52.88855	19.52808	-34.17414	-37.42882	44.75185	-5.69569	63.46626	225.38659	650.936	593.9791	547.59991	364.52416	0
708	84.62168	53.70222	-31.73313	-69.16195	59.39791	11.39138	46.37919	249.79669	763.22246	745.32172	684.29647	471.9286	0
709	123.67784	90.31737	-34.17414	-108.21811	78.92599	28.47845	21.96909	240.03265	851.09882	879.57727	816.11101	574.45102	0
710	165.17501	122.0505	-43.93818	-144.83326	105.7771	40.6835	-3.25468	200.97649	921.88811	994.30474	935.7205	674.53243	0
711	209.11319	163.54767	-46.37919	-186.33043	127.74619	60.21158	-32.5468	132.62821	960.94427	1089.50413	1043.12494	772.17283	0
712	255.49238	205.04484	-51.26121	-230.26861	154.5973	77.29865	-66.72094	42.31084	980.47235	1165.17544	1148.08837	869.81323	0
713	301.87157	251.42403	-51.26121	-276.6478	176.56639	101.70875	-103.33609	-57.77057	982.91336	1231.08271	1250.61079	974.77666	0
714	333.6047	312.44928	-21.15542	-323.02699	179.0074	145.64693	-130.1872	-161.10666	948.73922	1257.93382	1336.04614	1077.29908	0
715	350.69177	383.23857	32.5468	-366.96517	159.47932	209.11319	-147.27427	-290.48019	846.2168	1216.43665	1379.98432	1165.17544	0
716	355.57379	466.23291	110.65912	-410.90335	122.86417	289.66652	-161.92033	-471.11493	650.936	1074.85807	1355.57422	1221.31867	0
717	338.48672	558.99129	220.50457	-449.95951	59.39791	389.74793	-179.0074	-707.8929	365.33783	842.96212	1270.13887	1253.0518	0
718	309.1946	656.63169	347.43709	-484.13365	-19.52808	502.03439	-193.65346	-998.37309	0.81367	537.83587	1131.0013	1260.37483	0
719	260.3744	732.303	471.9286	-496.3387	-104.96343	602.1158	-200.97649	-1330.35045	-428.80409	157.03831	925.95646	1223.75968	0
720	204.23117	766.47714	562.24597	-486.57466	-178.19373	665.58206	-205.85851	-1679.41488	-899.91902	-275.83413	652.56334	1126.11928	0
721	148.08794	749.39007	601.30213	-449.95951	-227.01393	675.3461	-213.18154	-2011.39224	-1358.8289	-720.09795	325.468	962.57161	0
722	84.62168	671.27775	586.65607	-379.17022	-251.42403	628.96691	-208.29952	-2287.22637	-1756.71353	-1117.98258	-4.06835	767.29081	0
723	33.36047	554.10927	520.7488	-293.73487	-244.101	538.64954	-196.09447	-2484.94818	-2066.7218	-1442.63691	-314.89029	557.36395	0
724	-16.2734	402.76665	418.22638	-193.65346	-217.24989	409.27601	-181.44841	-2611.8807	-2291.29472	-1698.94296	-600.48846	332.79103	0
725	-69.97562	219.6909	288.85285	-76.48498	-178.19373	253.05137	-166.80235	-2675.34696	-2440.19633	-1889.34174	-859.23552	103.33609	0
726	-113.9138	56.14323	169.24336	26.85111	-141.57858	111.47279	-159.47932	-2689.99302	-2515.86764	-2013.83325	-1081.36743	-109.84545	0
727	-148.08794	-59.39791	88.69003	102.52242	-119.60949	13.83239	-157.03831	-2660.7009	-2523.19067	-2067.53547	-1240.03308	-278.27514	0
728	-172.49804	-130.1872	42.31084	148.90161	-107.40444	-45.56552	-157.03831	-2582.58858	-2459.72441	-2055.33042	-1332.79146	-397.88463	0
729	-192.02612	-157.03831	34.98781	173.31171	-114.72747	-62.65259	-157.03831	-2462.97909	-2347.43795	-1996.74618	-1376.72964	-475.99695	0
730	-211.5542	-164.36134	47.19286	185.51676	-129.37353	-60.21158	-154.5973	-2309.19546	-2196.09533	-1901.54679	-1371.84762	-517.49412	0
731	-218.87723	-149.71528	69.16195	183.07575	-144.01959	-40.6835	-149.71528	-2123.6787	-2013.01958	-1774.61427	-1327.90944	-524.81715	0
732	-211.5542	-117.98215	93.57205	163.54767	-153.78363	-13.01872	-142.39225	-1908.86982	-1805.53373	-1628.15367	-1259.56116	-507.73008	0
733	-194.46713	-98.45407	96.01306	144.01959	-146.4606	-0.81367	-127.74619	-1672.09185	-1585.84283	-1469.48802	-1166.80278	-468.67392	0
734	-179.82107	-88.69003	91.13104	131.81454	-136.69656	1.62734	-105.7771	-1445.07792	-1380.79799	-1315.70439	-1061.83935	-417.41271	0
735	-165.17501	-86.24902	78.92599	124.49151	-122.0505	-3.25468	-86.24902	-1237.59207	-1195.28123	-1166.80278	-956.87592	-366.1515	0
736	-145.64693	-86.24902	59.39791	114.72747	-102.52242	-13.01872	-71.60296	-1049.6343	-1029.29255	-1030.10622	-864.11754	-317.3313	0
737	-121.23683	-83.80801	37.42882	100.08141	-80.55333	-23.59643	-52.07488	-890.96865	-890.15498	-915.37875	-788.44623	-278.27514	0
738	-99.26774	-81.367	17.90074	87.87636	-58.58424	-33.36047	-32.5468	-759.15411	-772.9865	-820.17936	-732.303	-246.54201	0
739	-84.62168	-83.80801	0.81367	82.99434	-43.93818	-43.12451	-13.01872	-651.74967	-680.22812	-749.39007	-688.36482	-224.57292	0
740	-74.85764	-88.69003	-13.83239	80.55333	-31.73313	-52.88855	2.44101	-558.99129	-606.99782	-688.36482	-654.19068	-209.92686	0
741	-65.0936	-93.57205	-29.29212	78.11232	-19.52808	-62.65259	14.64606	-480.87897	-543.53156	-641.98563	-624.89856	-200.16282	0
742	-62.65259	-110.65912	-48.8202	85.43535	-7.32303	-79.73966	21.96909	-424.73574	-492.27035	-610.2525	-605.37048	-195.2808	0
743	-67.53461	-130.1872	-63.46626	97.6404	-2.44101	-96.82673	26.85111	-378.35655	-455.6552	-590.72442	-590.72442	-192.83979	0
744	-87.06269	-157.03831	-70.78929	119.60949	-9.76404	-113.9138	29.29212	-344.18241	-431.2451	-576.07836	-576.07836	-195.2808	0
745	-101.70875	-183.88942	-82.99434	141.57858	-9.76404	-133.44188	36.61515	-312.44928	-409.27601	-558.99129	-558.99129	-195.2808	0
746	-106.59077	-196.09447	-90.31737	148.90161	-9.76404	-143.20592	43.93818	-283.15716	-384.86591	-537.0222	-541.90422	-195.2808	0
747	-118.79582	-198.53548	-80.55333	156.22464	-19.52808	-140.76491	48.8202	-261.18807	-360.45581	-517.49412	-527.25816	-190.39878	0
748	-118.79582	-196.09447	-78.11232	156.22464	-21.96909	-138.3239	61.02525	-239.21898	-333.6047	-493.08402	-512.6121	-180.63474	0
749	-113.9138	-188.77144	-75.67131	148.90161	-19.52808	-133.44188	70.78929	-214.80888	-309.1946	-473.55594	-500.40705	-175.75272	0
750	-101.70875	-171.68437	-70.78929	134.25555	-17.08707	-121.23683	78.11232	-187.95777	-279.90248	-454.02786	-485.76099	-165.98868	0
751	-87.06269	-157.03831	-70.78929	119.60949	-9.76404	-113.9138	87.87636	-161.10666	-250.61036	-434.49978	-471.11493	-156.22464	0
752	-84.62168	-149.71528	-65.90727	114.72747	-9.76404	-109.03178	90.31737	-144.01959	-228.64127	-427.17675	-461.35089	-146.4606	0
753	-87.06269	-144.83326	-58.58424	114.72747	-14.64606	-101.70875	92.75838	-129.37353	-213.99521	-419.85372	-456.46887	-141.57858	0
754	-87.06269	-142.39225	-56.14323	112.28646	-17.08707	-99.26774	92.75838	-119.60949	-201.79016	-412.53069	-446.70483	-136.69656	0
755	-87.06269	-135.06922	-48.8202	109.84545	-19.52808	-91.94471	92.75838	-109.03178	-189.58511	-395.44362	-432.05877	-126.93252	0
756	-89.5037	-127.74619	-39.05616	107.40444	-26.85111	-84.62168	97.6404	-94.38572	-172.49804	-366.1515	-414.9717	-114.72747	0
757	-94.38572	-122.86417	-29.29212	107.40444	-34.17414	-77.29865	102.52242	-79.73966	-148.08794	-336.85938	-397.88463	-102.52242	0
758	-89.5037	-105.7771	-16.2734	95.19939	-36.61515	-62.65259	107.40444	-62.65259	-116.35481	-302.68524	-378.35655	-90.31737	0
759	-77.29865	-93.57205	-16.2734	82.99434	-31.73313	-55.32956	109.84545	-43.12451	-82.18067	-268.5111	-361.26948	-78.11232	0
760	-69.97562	-88.69003	-18.71441	78.11232	-26.85111	-55.32956	112.28646	-23.59643	-45.56552	-239.21898	-344.18241	-70.78929	0
761	-67.53461	-76.48498	-8.95037	70.78929	-29.29212	-43.12451	114.72747	-4.06835	-11.39138	-217.24989	-329.53635	-67.53461	0
762	-57.77057	-64.27993	-6.50936	58.58424	-26.85111	-35.80148	119.60949	13.01872	25.22377	-197.72181	-317.3313	-60.21158	0
763	-48.00653	-52.07488	-4.06835	48.8202	-21.96909	-28.47845	119.60949	32.5468	54.51589	-180.63474	-302.68524	-50.44754	0
764	-35.80148	-49.63387	-13.83239	41.49717	-12.20505	-33.36047	122.0505	49.63387	77.29865	-161.10666	-280.71615	-35.80148	0
765	-33.36047	-42.31084	-8.95037	36.61515	-12.20505	-26.03744	126.93252	69.16195	101.70875	-136.69656	-256.30605	-18.71441	0
766	-26.03744	-25.22377	0.81367	24.4101	-14.64606	-13.01872	131.81454	93.57205	128.55986	-104.96343	-231.89595	-6.50936	0
767	-8.95037	-12.20505	-4.06835	8.95037	-2.44101	-8.1367	136.69656	115.54114	160.29299	-70.78929	-207.48585	10.57771	0
768	0.81367	-2.44101	-4.06835	-0.81367	2.44101	-3.25468	141.57858	142.39225	199.34915	-31.73313	-180.63474	27.66478	0
769	0.81367	-2.44101	-4.06835	-0.81367	2.44101	-3.25468	146.4606	171.68437	240.84632	4.88202	-158.66565	39.86983	0
770	0.81367	2.44101	0.81367	-3.25468	0	1.62734	151.34262	205.85851	284.7845	36.61515	-136.69656	52.07488	0
771	-1.62734	4.88202	5.69569	-3.25468	-2.44101	4.06835	156.22464	237.59164	326.28167	64.27993	-122.0505	56.9569	0
772	-4.06835	2.44101	5.69569	-0.81367	-4.88202	4.06835	158.66565	269.32477	370.21985	86.24902	-102.52242	64.27993	0
773	-11.39138	-4.88202	5.69569	6.50936	-7.32303	-0.81367	158.66565	298.61689	406.835	105.7771	-85.43535	74.04397	0
774	-11.39138	-12.20505	-1.62734	8.95037	-4.88202	-8.1367	158.66565	327.90901	438.56813	122.86417	-65.90727	83.80801	0
775	-11.39138	-14.64606	-4.06835	12.20505	-2.44101	-10.57771	161.10666	357.20113	467.86025	152.15629	-46.37919	91.13104	0
776	-4.06835	-12.20505	-8.95037	6.50936	2.44101	-10.57771	163.54767	388.93426	502.03439	191.21245	-21.96909	96.01306	0
777	6.50936	-2.44101	-8.95037	-3.25468	7.32303	-5.69569	163.54767	418.22638	533.76752	232.70962	0.81367	103.33609	0
778	18.71441	4.88202	-13.83239	-13.01872	17.90074	-3.25468	165.98868	447.5185	572.82368	276.6478	25.22377	117.98215	0
779	26.03744	12.20505	-13.83239	-20.34175	20.34175	-0.81367	173.31171	481.69264	611.87984	320.58598	52.07488	132.62821	0
780	30.91946	21.96909	-8.95037	-27.66478	20.34175	6.50936	175.75272	513.42577	650.936	359.64214	76.48498	142.39225	0
781	33.36047	26.85111	-6.50936	-30.10579	20.34175	11.39138	178.19373	542.71789	685.11014	393.81628	96.01306	147.27427	0
782	35.80148	26.85111	-8.95037	-32.5468	22.78276	8.95037	175.75272	562.24597	714.40226	408.46234	110.65912	149.71528	0
783	26.03744	9.76404	-16.2734	-17.90074	22.78276	-3.25468	170.8707	576.89203	733.93034	415.78537	120.42316	152.15629	0
784	21.15542	-4.88202	-26.85111	-8.1367	25.22377	-15.45973	168.42969	591.53809	751.01741	418.22638	137.51023	154.5973	0
785	18.71441	-12.20505	-31.73313	-3.25468	25.22377	-20.34175	156.22464	601.30213	763.22246	427.99042	152.15629	152.15629	0
786	18.71441	-22.78276	-41.49717	1.62734	30.10579	-30.91946	144.01959	608.62516	772.9865	437.75446	169.24336	154.5973	0
787	13.83239	-25.22377	-39.05616	4.06835	25.22377	-30.91946	136.69656	618.3892	790.07357	454.84153	191.21245	164.36134	0
788	6.50936	-32.5468	-39.05616	12.20505	22.78276	-35.80148	129.37353	628.15324	812.04266	474.36961	213.18154	183.88942	0
789	8.95037	-34.98781	-43.93818	12.20505	25.22377	-38.24249	126.93252	645.24031	834.01175	496.3387	235.15063	200.97649	0
790	16.2734	-27.66478	-43.93818	4.06835	30.10579	-35.80148	126.93252	659.88637	851.09882	515.86678	252.2377	213.18154	0
791	18.71441	-22.78276	-41.49717	1.62734	30.10579	-30.91946	129.37353	672.09142	863.30387	528.07183	266.88376	222.94558	0
792	26.03744	-14.64606	-41.49717	-5.69569	34.98781	-28.47845	134.25555	679.41445	877.94993	535.39486	276.6478	230.26861	0
793	35.80148	-9.76404	-46.37919	-13.01872	42.31084	-28.47845	136.69656	681.85546	887.71397	537.83587	286.41184	235.15063	0
794	50.44754	0	-51.26121	-25.22377	52.07488	-26.03744	134.25555	679.41445	890.15498	540.27688	301.0579	235.15063	0
795	65.0936	14.64606	-51.26121	-39.86983	59.39791	-17.90074	129.37353	672.09142	890.15498	545.1589	315.70396	232.70962	0
796	74.85764	24.4101	-51.26121	-49.63387	64.27993	-13.01872	122.0505	667.2094	902.36003	559.80496	335.23204	237.59164	0
797	82.18067	31.73313	-51.26121	-56.9569	66.72094	-8.1367	114.72747	662.32738	917.00609	579.33304	357.20113	249.79669	0
798	84.62168	31.73313	-53.70222	-59.39791	69.16195	-10.57771	104.96343	657.44536	934.09316	598.86112	374.2882	262.00174	0
799	87.06269	26.85111	-61.02525	-56.9569	74.04397	-15.45973	95.19939	655.00435	948.73922	613.50718	393.81628	271.76578	0
800	89.5037	21.96909	-68.34828	-56.9569	78.92599	-23.59643	85.43535	655.00435	958.50326	625.71223	408.46234	281.52982	0
801	84.62168	9.76404	-75.67131	-47.19286	81.367	-33.36047	75.67131	652.56334	958.50326	630.59425	420.66739	291.29386	0
802	79.73966	-2.44101	-82.99434	-39.86983	81.367	-43.12451	65.90727	642.7993	948.73922	625.71223	420.66739	301.0579	0
803	74.85764	-7.32303	-82.99434	-34.98781	78.92599	-45.56552	56.14323	628.15324	926.77013	608.62516	415.78537	303.49891	0
804	67.53461	-9.76404	-78.11232	-30.10579	74.04397	-43.12451	48.8202	608.62516	902.36003	586.65607	415.78537	303.49891	0
805	67.53461	-4.88202	-73.2303	-32.5468	71.60296	-38.24249	46.37919	586.65607	875.50892	574.45102	413.34436	303.49891	0
806	72.41663	2.44101	-70.78929	-37.42882	71.60296	-33.36047	41.49717	564.68698	851.09882	559.80496	406.02133	301.0579	0
807	79.73966	17.08707	-63.46626	-49.63387	71.60296	-23.59643	39.05616	535.39486	829.12973	540.27688	396.25729	301.0579	0
808	82.18067	24.4101	-58.58424	-54.51589	71.60296	-15.45973	39.05616	510.98476	814.48367	525.63082	393.81628	303.49891	0
809	87.06269	31.73313	-56.14323	-59.39791	71.60296	-10.57771	36.61515	481.69264	794.95559	506.10274	388.93426	298.61689	0
810	91.94471	36.61515	-56.14323	-64.27993	74.04397	-8.1367	29.29212	452.40052	768.10448	476.81062	374.2882	286.41184	0
811	94.38572	39.05616	-56.14323	-66.72094	76.48498	-8.1367	21.96909	420.66739	726.60731	442.63648	354.76012	276.6478	0
812	89.5037	26.85111	-63.46626	-59.39791	76.48498	-17.90074	17.08707	384.05224	677.78711	396.25729	327.90901	264.44275	0
813	72.41663	9.76404	-63.46626	-42.31084	69.16195	-26.03744	4.88202	344.99608	621.64388	347.43709	293.73487	244.91467	0
814	62.65259	-4.88202	-68.34828	-30.10579	66.72094	-35.80148	-3.25468	301.0579	565.50065	298.61689	264.44275	222.94558	0
815	52.88855	-9.76404	-63.46626	-22.78276	59.39791	-35.80148	-10.57771	254.67871	506.91641	254.67871	225.38659	200.97649	0
816	38.24249	-19.52808	-58.58424	-10.57771	49.63387	-38.24249	-10.57771	210.74053	453.21419	213.18154	188.77144	179.0074	0
817	26.03744	-27.66478	-53.70222	-0.81367	39.86983	-40.6835	-8.1367	166.80235	406.835	179.0074	157.03831	164.36134	0
818	18.71441	-37.42882	-56.14323	8.95037	37.42882	-45.56552	-3.25468	130.1872	367.77884	147.27427	130.1872	149.71528	0
819	8.95037	-49.63387	-58.58424	19.52808	32.5468	-52.88855	2.44101	98.45407	336.04571	115.54114	110.65912	132.62821	0
820	0.81367	-61.83892	-63.46626	29.29212	32.5468	-62.65259	9.76404	66.72094	299.43056	81.367	81.367	115.54114	0
821	-11.39138	-74.04397	-63.46626	41.49717	25.22377	-69.97562	12.20505	34.98781	250.61036	39.05616	52.07488	93.57205	0
822	-16.2734	-86.24902	-70.78929	48.8202	27.66478	-79.73966	12.20505	3.25468	209.11319	-4.88202	17.90074	74.04397	0
823	-18.71441	-103.33609	-85.43535	58.58424	32.5468	-94.38572	14.64606	-21.15542	172.49804	-46.37919	-8.95037	54.51589	0
824	-26.03744	-122.86417	-97.6404	73.2303	34.98781	-111.47279	12.20505	-55.32956	138.3239	-87.87636	-34.17414	32.5468	0
825	-28.47845	-122.86417	-95.19939	73.2303	32.5468	-109.03178	12.20505	-84.62168	104.14976	-117.16848	-58.58424	13.01872	0
826	-38.24249	-117.98215	-80.55333	75.67131	20.34175	-99.26774	14.64606	-109.03178	82.18067	-136.69656	-78.11232	0.81367	0
827	-38.24249	-120.42316	-82.99434	78.11232	22.78276	-101.70875	19.52808	-126.93252	62.65259	-148.90161	-92.75838	-4.06835	0
828	-38.24249	-127.74619	-90.31737	80.55333	25.22377	-109.03178	26.85111	-141.57858	52.07488	-153.78363	-100.08141	-8.95037	0
829	-38.24249	-130.1872	-92.75838	82.99434	27.66478	-111.47279	31.73313	-153.78363	39.86983	-163.54767	-104.96343	-16.2734	0
830	-40.6835	-132.62821	-92.75838	85.43535	25.22377	-113.9138	36.61515	-163.54767	25.22377	-175.75272	-119.60949	-23.59643	0
831	-48.00653	-139.95124	-92.75838	92.75838	22.78276	-116.35481	43.93818	-168.42969	10.57771	-185.51676	-131.81454	-30.91946	0
832	-45.56552	-147.27427	-102.52242	95.19939	27.66478	-126.11885	46.37919	-175.75272	-8.95037	-209.92686	-151.34262	-43.12451	0
833	-43.12451	-152.15629	-109.84545	95.19939	32.5468	-131.00087	46.37919	-183.07575	-23.59643	-234.33696	-168.42969	-57.77057	0
834	-45.56552	-149.71528	-104.96343	95.19939	30.10579	-128.55986	46.37919	-197.72181	-38.24249	-258.74706	-180.63474	-70.78929	0
835	-52.88855	-152.15629	-100.08141	100.08141	22.78276	-126.11885	46.37919	-212.36787	-52.88855	-273.39312	-195.2808	-82.99434	0
836	-57.77057	-159.47932	-102.52242	107.40444	22.78276	-131.00087	46.37919	-224.57292	-60.21158	-278.27514	-202.60383	-92.75838	0
837	-62.65259	-166.80235	-104.96343	112.28646	20.34175	-135.88289	46.37919	-236.77797	-62.65259	-283.15716	-207.48585	-92.75838	0
838	-65.0936	-169.24336	-104.96343	114.72747	20.34175	-138.3239	48.8202	-244.101	-62.65259	-283.15716	-207.48585	-95.19939	0
839	-57.77057	-166.80235	-109.84545	109.84545	25.22377	-138.3239	48.8202	-251.42403	-65.0936	-285.59817	-205.04484	-95.19939	0
840	-52.88855	-169.24336	-117.16848	109.84545	32.5468	-143.20592	51.26121	-253.86504	-72.41663	-288.03918	-209.92686	-97.6404	0
841	-48.00653	-174.12538	-126.93252	109.84545	39.86983	-150.52895	51.26121	-253.86504	-79.73966	-295.36221	-214.80888	-100.08141	0
842	-45.56552	-174.12538	-129.37353	107.40444	42.31084	-152.96996	53.70222	-253.86504	-84.62168	-305.12625	-219.6909	-100.08141	0
843	-50.44754	-176.56639	-126.93252	112.28646	37.42882	-152.96996	53.70222	-253.86504	-91.94471	-319.77231	-227.01393	-102.52242	0
844	-48.00653	-174.12538	-126.93252	109.84545	39.86983	-150.52895	53.70222	-258.74706	-99.26774	-334.41837	-231.89595	-107.40444	0
845	-50.44754	-176.56639	-126.93252	112.28646	37.42882	-152.96996	53.70222	-261.18807	-101.70875	-336.85938	-234.33696	-109.84545	0
846	-55.32956	-179.0074	-124.49151	114.72747	34.98781	-152.96996	56.14323	-263.62908	-96.82673	-329.53635	-234.33696	-112.28646	0
847	-55.32956	-176.56639	-122.0505	114.72747	32.5468	-150.52895	58.58424	-263.62908	-94.38572	-324.65433	-231.89595	-109.84545	0
848	-55.32956	-169.24336	-114.72747	109.84545	30.10579	-143.20592	61.02525	-263.62908	-89.5037	-314.89029	-227.01393	-109.84545	0
849	-43.12451	-157.03831	-114.72747	97.6404	34.98781	-135.88289	63.46626	-261.18807	-84.62168	-310.00827	-219.6909	-109.84545	0
850	-30.91946	-154.5973	-124.49151	90.31737	47.19286	-140.76491	65.90727	-256.30605	-84.62168	-305.12625	-219.6909	-114.72747	0
851	-35.80148	-169.24336	-134.25555	100.08141	49.63387	-152.96996	65.90727	-253.86504	-89.5037	-310.00827	-222.13191	-117.16848	0
852	-48.00653	-183.88942	-136.69656	114.72747	44.75185	-160.29299	65.90727	-253.86504	-94.38572	-322.21332	-231.89595	-124.49151	0
853	-55.32956	-193.65346	-139.13757	122.0505	42.31084	-167.61602	63.46626	-253.86504	-96.82673	-331.97736	-234.33696	-131.81454	0
854	-62.65259	-203.4175	-141.57858	131.81454	39.86983	-172.49804	63.46626	-253.86504	-94.38572	-339.30039	-231.89595	-134.25555	0
855	-69.97562	-208.29952	-139.13757	136.69656	34.98781	-174.93905	68.34828	-258.74706	-94.38572	-336.85938	-229.45494	-134.25555	0
856	-79.73966	-213.18154	-134.25555	144.01959	27.66478	-174.93905	70.78929	-258.74706	-87.06269	-329.53635	-222.13191	-131.81454	0
857	-77.29865	-198.53548	-122.0505	136.69656	22.78276	-160.29299	73.2303	-258.74706	-82.18067	-322.21332	-214.80888	-126.93252	0
858	-67.53461	-176.56639	-109.84545	119.60949	20.34175	-143.20592	73.2303	-261.18807	-74.85764	-310.00827	-207.48585	-124.49151	0
859	-55.32956	-166.80235	-112.28646	109.84545	27.66478	-140.76491	78.11232	-261.18807	-69.97562	-302.68524	-195.2808	-126.93252	0
860	-50.44754	-161.92033	-112.28646	104.96343	30.10579	-138.3239	78.11232	-258.74706	-67.53461	-297.80322	-195.2808	-126.93252	0
861	-45.56552	-161.92033	-117.16848	102.52242	34.98781	-140.76491	78.11232	-256.30605	-67.53461	-297.80322	-195.2808	-126.93252	0
862	-48.00653	-161.92033	-114.72747	102.52242	32.5468	-138.3239	75.67131	-253.86504	-69.97562	-305.12625	-200.16282	-129.37353	0
863	-48.00653	-164.36134	-117.16848	104.96343	34.98781	-140.76491	75.67131	-251.42403	-67.53461	-310.00827	-205.04484	-131.81454	0
864	-48.00653	-169.24336	-122.0505	107.40444	37.42882	-145.64693	80.55333	-246.54201	-57.77057	-312.44928	-200.16282	-134.25555	0
865	-48.00653	-169.24336	-122.0505	107.40444	37.42882	-145.64693	85.43535	-234.33696	-45.56552	-305.12625	-197.72181	-131.81454	0
866	-48.00653	-166.80235	-119.60949	104.96343	34.98781	-143.20592	90.31737	-217.24989	-23.59643	-285.59817	-190.39878	-131.81454	0
867	-52.88855	-166.80235	-114.72747	107.40444	30.10579	-140.76491	97.6404	-190.39878	13.01872	-251.42403	-173.31171	-124.49151	0
868	-55.32956	-164.36134	-109.84545	107.40444	27.66478	-138.3239	104.96343	-161.10666	60.21158	-205.04484	-146.4606	-114.72747	0
869	-45.56552	-157.03831	-112.28646	100.08141	32.5468	-135.88289	112.28646	-129.37353	121.23683	-146.4606	-97.6404	-92.75838	0
870	-38.24249	-144.83326	-107.40444	90.31737	34.98781	-126.11885	122.0505	-91.94471	192.02612	-70.78929	-41.49717	-57.77057	0
871	-33.36047	-127.74619	-95.19939	78.11232	30.10579	-111.47279	124.49151	-55.32956	275.02046	21.96909	34.98781	-8.95037	0
872	-26.03744	-110.65912	-85.43535	65.90727	30.10579	-99.26774	126.93252	-6.50936	377.54288	127.74619	130.1872	59.39791	0
873	-11.39138	-81.367	-70.78929	43.93818	30.10579	-77.29865	126.93252	49.63387	494.71136	252.2377	244.91467	137.51023	0
874	13.83239	-42.31084	-56.14323	12.20505	34.98781	-48.00653	124.49151	108.21811	624.08489	391.37527	379.17022	227.8276	0
875	45.56552	4.88202	-41.49717	-25.22377	44.75185	-17.90074	117.16848	166.80235	748.5764	545.1589	515.86678	323.02699	0
876	67.53461	46.37919	-21.15542	-56.9569	44.75185	13.83239	100.08141	198.53548	860.86286	689.17849	652.56334	415.78537	0
877	96.82673	78.11232	-18.71441	-88.69003	59.39791	30.91946	78.11232	200.97649	951.18023	823.43404	781.93687	510.98476	0
878	135.88289	119.60949	-16.2734	-127.74619	76.48498	52.88855	48.8202	169.24336	1021.96952	945.48454	908.86939	606.18415	0
879	177.38006	156.22464	-21.15542	-166.80235	100.89508	67.53461	21.96909	110.65912	1070.78972	1050.44797	1033.3609	701.38354	0
880	218.87723	190.39878	-29.29212	-205.85851	125.30518	82.18067	-10.57771	32.5468	1095.19982	1140.76534	1143.20635	801.46495	0
881	253.05137	229.45494	-24.4101	-242.47366	139.95124	104.14976	-47.19286	-60.21158	1100.08184	1221.31867	1253.0518	906.42838	0
882	284.7845	270.95211	-13.83239	-279.08881	149.71528	128.55986	-81.367	-156.22464	1087.87679	1272.57988	1353.13321	1018.71484	0
883	316.51763	336.85938	20.34175	-327.90901	149.71528	179.82107	-105.7771	-263.62908	1026.85154	1267.69786	1416.59947	1118.79625	0
884	331.16369	410.08968	78.92599	-371.84719	127.74619	245.72834	-127.74619	-414.9717	880.39094	1170.05746	1421.48149	1192.02655	0
885	328.72268	493.08402	164.36134	-410.90335	83.80801	328.72268	-147.27427	-615.13452	636.28994	977.21767	1358.01523	1233.52372	0
886	309.1946	590.72442	281.52982	-449.95951	15.45973	436.12712	-166.80235	-873.88158	301.87157	696.50152	1228.6417	1243.28776	0
887	272.57945	690.80583	418.22638	-481.69264	-73.2303	555.73661	-181.44841	-1181.44884	-104.14976	337.67305	1040.68393	1218.87766	0
888	221.31824	759.15411	537.83587	-491.45668	-158.66565	648.49499	-186.33043	-1515.86721	-570.38267	-90.31737	784.37788	1135.88332	0
889	167.61602	768.91815	601.30213	-469.48759	-217.24989	685.11014	-188.77144	-1845.40356	-1043.93861	-539.46321	474.36961	991.86373	0
890	106.59077	715.21593	608.62516	-410.90335	-251.42403	663.14105	-186.33043	-2133.44274	-1478.43839	-966.63996	132.62821	799.02394	0
891	52.88855	617.57553	564.68698	-335.23204	-256.30605	592.35176	-174.12538	-2358.01566	-1834.82585	-1325.46843	-190.39878	586.65607	0
892	4.06835	480.87897	476.81062	-242.47366	-236.77797	480.0653	-154.5973	-2504.47626	-2091.1319	-1611.0666	-490.64301	366.96517	0
893	-48.00653	310.00827	357.20113	-132.62821	-202.60383	333.6047	-132.62821	-2582.58858	-2266.88462	-1830.7575	-764.03613	132.62821	0
894	-89.5037	134.25555	222.94558	-22.78276	-156.22464	177.38006	-117.98215	-2619.20373	-2364.52502	-1984.54113	-1003.25511	-92.75838	0
895	-126.11885	-14.64606	110.65912	68.34828	-117.16848	48.00653	-113.10013	-2616.76272	-2398.69916	-2065.09446	-1191.21288	-288.03918	0
896	-162.734	-115.54114	47.19286	136.69656	-104.96343	-35.80148	-110.65912	-2570.38353	-2362.08401	-2079.74052	-1305.94035	-429.61776	0
897	-189.58511	-169.24336	20.34175	178.19373	-104.96343	-74.85764	-110.65912	-2480.06616	-2271.76664	-2038.24335	-1366.9656	-524.81715	0
898	-213.99521	-191.21245	22.78276	200.16282	-119.60949	-84.62168	-108.21811	-2350.69263	-2135.07008	-1957.69002	-1379.17065	-585.8424	0
899	-223.75925	-183.88942	39.86983	202.60383	-131.81454	-72.41663	-108.21811	-2192.02698	-1966.64039	-1840.52154	-1344.99651	-612.69351	0
900	-226.20026	-164.36134	61.83892	192.83979	-144.01959	-52.88855	-108.21811	-1999.18719	-1773.8006	-1701.38397	-1288.85328	-610.2525	0
901	-223.75925	-144.83326	78.92599	183.07575	-151.34262	-33.36047	-103.33609	-1779.49629	-1561.43273	-1545.15933	-1205.85894	-588.28341	0
902	-209.11319	-117.98215	91.13104	161.10666	-151.34262	-13.01872	-91.13104	-1550.04135	-1341.74183	-1388.93469	-1108.21854	-544.34523	0
903	-192.02612	-105.7771	86.24902	146.4606	-139.13757	-10.57771	-74.04397	-1332.79146	-1139.138	-1237.59207	-1008.13713	-495.52503	0
904	-172.49804	-103.33609	69.16195	136.69656	-122.0505	-17.90074	-59.39791	-1142.39268	-953.62124	-1098.4545	-908.05572	-451.58685	0
905	-150.52895	-98.45407	52.07488	122.0505	-102.52242	-23.59643	-49.63387	-978.84501	-802.27862	-976.404	-827.50239	-414.9717	0
906	-133.44188	-103.33609	30.10579	117.16848	-82.99434	-38.24249	-32.5468	-839.70744	-672.90509	-873.88158	-759.15411	-385.67958	0
907	-111.47279	-103.33609	8.1367	104.96343	-61.02525	-48.00653	-13.01872	-722.53896	-570.38267	-790.88724	-705.45189	-361.26948	0
908	-91.94471	-103.33609	-11.39138	95.19939	-41.49717	-57.77057	4.88202	-629.78058	-489.82934	-727.42098	-659.0727	-344.18241	0
909	-79.73966	-108.21811	-29.29212	92.75838	-26.85111	-69.97562	19.52808	-551.66826	-426.36308	-678.60078	-622.45755	-334.41837	0
910	-65.0936	-115.54114	-51.26121	87.87636	-7.32303	-84.62168	31.73313	-480.87897	-372.66086	-639.54462	-593.16543	-324.65433	0
911	-57.77057	-127.74619	-70.78929	90.31737	4.88202	-99.26774	43.93818	-427.17675	-336.04571	-612.69351	-573.63735	-317.3313	0
912	-52.88855	-147.27427	-95.19939	97.6404	20.34175	-121.23683	51.26121	-383.23857	-301.87157	-600.48846	-561.4323	-310.00827	0
913	-50.44754	-164.36134	-114.72747	104.96343	32.5468	-140.76491	56.14323	-344.18241	-270.13844	-588.28341	-549.22725	-310.00827	0
914	-55.32956	-176.56639	-122.0505	114.72747	32.5468	-150.52895	61.02525	-317.3313	-238.40531	-573.63735	-532.14018	-305.12625	0
915	-57.77057	-176.56639	-119.60949	114.72747	30.10579	-148.08794	65.90727	-292.9212	-211.5542	-551.66826	-515.05311	-305.12625	0
916	-52.88855	-164.36134	-112.28646	107.40444	30.10579	-138.3239	70.78929	-270.95211	-187.1441	-529.69917	-500.40705	-305.12625	0
917	-52.88855	-152.15629	-100.08141	100.08141	22.78276	-126.11885	73.2303	-248.98302	-160.29299	-502.84806	-483.31998	-300.24423	0
918	-48.00653	-139.95124	-92.75838	92.75838	22.78276	-116.35481	78.11232	-224.57292	-128.55986	-473.55594	-458.90988	-292.9212	0
919	-43.12451	-122.86417	-80.55333	80.55333	17.90074	-101.70875	82.99434	-202.60383	-101.70875	-444.26382	-434.49978	-285.59817	0
920	-35.80148	-105.7771	-70.78929	68.34828	17.90074	-89.5037	87.87636	-175.75272	-82.18067	-422.29473	-419.85372	-275.83413	0
921	-23.59643	-96.01306	-73.2303	58.58424	25.22377	-84.62168	95.19939	-151.34262	-62.65259	-402.76665	-407.64867	-266.07009	0
922	-11.39138	-88.69003	-78.11232	48.8202	32.5468	-84.62168	100.08141	-129.37353	-45.56552	-393.00261	-400.32564	-253.86504	0
923	-1.62734	-78.92599	-78.11232	39.05616	37.42882	-79.73966	102.52242	-109.03178	-26.03744	-383.23857	-390.5616	-248.98302	0
924	11.39138	-64.27993	-75.67131	24.4101	42.31084	-69.97562	104.96343	-96.82673	-6.50936	-371.03352	-378.35655	-244.101	0
925	18.71441	-44.75185	-63.46626	12.20505	39.86983	-52.88855	104.96343	-82.18067	13.01872	-346.62342	-366.1515	-239.21898	0
926	21.15542	-32.5468	-53.70222	4.06835	37.42882	-43.12451	104.96343	-69.97562	37.42882	-322.21332	-349.06443	-229.45494	0
927	4.06835	-30.10579	-34.17414	12.20505	17.90074	-30.91946	104.96343	-62.65259	52.07488	-305.12625	-339.30039	-222.13191	0
928	-13.83239	-37.42882	-24.4101	24.4101	4.88202	-30.91946	100.08141	-52.88855	65.0936	-285.59817	-324.65433	-219.6909	0
929	-35.80148	-44.75185	-8.95037	39.05616	-14.64606	-28.47845	100.08141	-38.24249	87.06269	-263.62908	-302.68524	-209.92686	0
930	-52.88855	-44.75185	8.1367	46.37919	-31.73313	-17.90074	100.08141	-18.71441	104.14976	-246.54201	-288.03918	-195.2808	0
931	-65.0936	-56.9569	8.1367	58.58424	-36.61515	-26.03744	104.96343	0.81367	121.23683	-229.45494	-273.39312	-178.19373	0
932	-72.41663	-71.60296	0.81367	70.78929	-36.61515	-35.80148	104.96343	20.34175	135.88289	-224.57292	-266.07009	-163.54767	0
933	-62.65259	-71.60296	-8.95037	65.90727	-26.85111	-40.6835	104.96343	42.31084	157.85198	-212.36787	-253.86504	-153.78363	0
934	-38.24249	-52.07488	-13.83239	43.93818	-12.20505	-33.36047	107.40444	61.83892	189.58511	-190.39878	-229.45494	-136.69656	0
935	-16.2734	-27.66478	-11.39138	19.52808	-2.44101	-20.34175	112.28646	86.24902	218.87723	-161.10666	-212.36787	-126.93252	0
936	-1.62734	-17.08707	-16.2734	8.95037	7.32303	-17.90074	112.28646	108.21811	250.61036	-129.37353	-190.39878	-117.16848	0
937	11.39138	0	-11.39138	-5.69569	12.20505	-5.69569	112.28646	132.62821	282.34349	-100.08141	-173.31171	-104.96343	0
938	26.03744	19.52808	-6.50936	-22.78276	17.90074	6.50936	114.72747	164.36134	321.39965	-63.46626	-146.4606	-90.31737	0
939	35.80148	29.29212	-6.50936	-32.5468	22.78276	11.39138	114.72747	196.09447	358.0148	-29.29212	-117.16848	-75.67131	0
940	35.80148	31.73313	-4.06835	-34.98781	20.34175	13.83239	114.72747	235.15063	392.18894	0	-95.19939	-65.0936	0
941	33.36047	31.73313	-1.62734	-32.5468	17.90074	16.2734	117.16848	271.76578	426.36308	29.29212	-73.2303	-48.00653	0
942	40.6835	34.17414	-6.50936	-37.42882	25.22377	13.83239	114.72747	310.82194	460.53722	47.19286	-56.14323	-33.36047	0
943	45.56552	36.61515	-8.95037	-42.31084	27.66478	13.83239	114.72747	344.99608	497.15237	69.16195	-39.05616	-23.59643	0
944	45.56552	34.17414	-11.39138	-39.86983	30.10579	11.39138	117.16848	374.2882	533.76752	93.57205	-16.2734	-16.2734	0
945	48.00653	41.49717	-6.50936	-44.75185	27.66478	18.71441	117.16848	403.58032	567.94166	125.30518	3.25468	-8.95037	0
946	57.77057	43.93818	-13.83239	-52.07488	37.42882	16.2734	119.60949	435.31345	606.99782	159.47932	25.22377	0.81367	0
947	69.97562	48.8202	-21.15542	-59.39791	47.19286	13.83239	119.60949	459.72355	641.17196	191.21245	42.31084	10.57771	0
948	69.97562	46.37919	-24.4101	-59.39791	47.19286	11.39138	114.72747	484.13365	670.46408	220.50457	64.27993	17.90074	0
949	65.0936	34.17414	-31.73313	-49.63387	49.63387	1.62734	112.28646	510.98476	702.19721	252.2377	88.69003	30.10579	0
950	62.65259	26.85111	-36.61515	-44.75185	49.63387	-3.25468	104.96343	535.39486	724.1663	271.76578	103.33609	34.98781	0
951	67.53461	24.4101	-43.93818	-47.19286	56.9569	-8.1367	100.08141	554.92294	741.25337	288.85285	115.54114	39.86983	0
952	67.53461	24.4101	-43.93818	-47.19286	56.9569	-8.1367	95.19939	579.33304	763.22246	303.49891	130.1872	49.63387	0
953	65.0936	24.4101	-41.49717	-44.75185	54.51589	-8.1367	92.75838	598.86112	782.75054	318.14497	144.83326	59.39791	0
954	65.0936	26.85111	-39.05616	-47.19286	52.07488	-5.69569	90.31737	611.06617	807.16064	335.23204	166.80235	74.04397	0
955	72.41663	36.61515	-36.61515	-54.51589	54.51589	1.62734	87.87636	623.27122	821.8067	354.76012	179.0074	83.80801	0
956	84.62168	56.14323	-29.29212	-71.60296	56.9569	13.83239	82.99434	633.03526	841.33478	376.72921	196.09447	96.01306	0
957	91.94471	65.90727	-26.85111	-78.92599	59.39791	21.15542	82.99434	645.24031	858.42185	398.6983	210.74053	115.54114	0
958	104.14976	75.67131	-29.29212	-91.13104	66.72094	23.59643	80.55333	655.00435	873.06791	418.22638	230.26861	127.74619	0
