samplenr	I	II	III	aVR	aVL	aVF	V1	V2	V3	V4	V5	V6	measurement
0	27.66478	-115.54114	-143.20592	42.31084	83.80801	-129.37353	18.71441	2506.1036	115.54114	93.57205	31.73313	9.76404	0
1	22.78276	-117.98215	-140.76491	47.19286	81.367	-129.37353	16.2734	2503.66259	113.10013	88.69003	29.29212	9.76404	0
2	17.90074	-127.74619	-145.64693	54.51589	81.367	-136.69656	13.83239	2532.95471	108.21811	83.80801	26.85111	7.32303	0
3	20.34175	-130.1872	-150.52895	54.51589	83.80801	-139.13757	11.39138	2554.9238	103.33609	81.367	24.4101	7.32303	0
4	17.90074	-130.1872	-148.08794	54.51589	81.367	-139.13757	8.95037	2576.89289	98.45407	78.92599	24.4101	7.32303	0
5	20.34175	-130.1872	-150.52895	54.51589	83.80801	-139.13757	8.95037	2598.86198	96.01306	81.367	24.4101	4.88202	0
6	17.90074	-137.51023	-155.41097	59.39791	86.24902	-146.4606	11.39138	2564.68784	96.01306	83.80801	29.29212	7.32303	0
7	22.78276	-132.62821	-155.41097	54.51589	88.69003	-144.01959	13.83239	2574.45188	98.45407	86.24902	31.73313	12.20505	0
8	39.86983	-117.98215	-157.85198	37.42882	98.45407	-136.69656	16.2734	2579.3339	105.7771	91.13104	36.61515	14.64606	0
9	54.51589	-103.33609	-157.85198	22.78276	105.7771	-129.37353	16.2734	2628.1541	110.65912	93.57205	39.05616	14.64606	0
10	59.39791	-100.89508	-160.29299	20.34175	108.21811	-129.37353	16.2734	2642.80016	115.54114	93.57205	36.61515	9.76404	0
11	59.39791	-98.45407	-157.85198	17.90074	108.21811	-126.93252	13.83239	2652.5642	115.54114	93.57205	36.61515	9.76404	0
12	64.27993	-93.57205	-157.85198	13.01872	110.65912	-124.49151	11.39138	2691.62036	115.54114	93.57205	39.05616	14.64606	0
13	74.04397	-81.367	-155.41097	3.25468	113.10013	-117.16848	11.39138	2723.35349	115.54114	93.57205	41.49717	21.96909	0
14	78.92599	-74.04397	-152.96996	-2.44101	115.54114	-112.28646	11.39138	2752.64561	115.54114	93.57205	43.93818	26.85111	0
15	78.92599	-74.04397	-152.96996	-2.44101	115.54114	-112.28646	16.2734	2781.93773	115.54114	98.45407	48.8202	31.73313	0
16	81.367	-66.72094	-148.08794	-7.32303	113.10013	-107.40444	21.15542	2755.08662	117.98215	103.33609	56.14323	36.61515	0
17	88.69003	-56.9569	-145.64693	-17.08707	115.54114	-100.08141	23.59643	2769.73268	117.98215	103.33609	56.14323	41.49717	0
18	96.01306	-49.63387	-145.64693	-24.4101	120.42316	-97.6404	26.03744	2779.49672	122.86417	105.7771	56.14323	41.49717	0
19	98.45407	-49.63387	-148.08794	-24.4101	122.86417	-97.6404	26.03744	2823.4349	122.86417	103.33609	56.14323	36.61515	0
20	96.01306	-49.63387	-145.64693	-24.4101	120.42316	-97.6404	21.15542	2838.08096	122.86417	100.89508	51.26121	29.29212	0
21	86.24902	-54.51589	-140.76491	-17.08707	113.10013	-97.6404	21.15542	2847.845	120.42316	100.89508	51.26121	26.85111	0
22	81.367	-59.39791	-140.76491	-12.20505	110.65912	-100.08141	21.15542	2886.90116	120.42316	98.45407	51.26121	29.29212	0
23	81.367	-59.39791	-140.76491	-12.20505	110.65912	-100.08141	18.71441	2918.63429	120.42316	98.45407	53.70222	31.73313	0
24	78.92599	-56.9569	-135.88289	-12.20505	105.7771	-95.19939	13.83239	2945.4854	120.42316	100.89508	58.58424	41.49717	0
25	76.48498	-52.07488	-128.55986	-12.20505	100.89508	-90.31737	6.50936	2969.8955	120.42316	105.7771	58.58424	41.49717	0
26	78.92599	-49.63387	-128.55986	-14.64606	103.33609	-87.87636	1.62734	2938.16237	120.42316	108.21811	61.02525	41.49717	0
27	88.69003	-37.42882	-126.11885	-26.85111	105.7771	-80.55333	-5.69569	2940.60338	117.98215	105.7771	61.02525	41.49717	0
28	100.89508	-22.78276	-123.67784	-39.05616	110.65912	-73.2303	-10.57771	2940.60338	117.98215	105.7771	58.58424	41.49717	0
29	105.7771	-10.57771	-116.35481	-48.8202	110.65912	-63.46626	-17.90074	2982.10055	122.86417	108.21811	61.02525	41.49717	0
30	103.33609	-10.57771	-113.9138	-46.37919	108.21811	-61.02525	-25.22377	2989.42358	122.86417	108.21811	58.58424	36.61515	0
31	110.65912	-8.1367	-118.79582	-51.26121	113.10013	-63.46626	-30.10579	2991.86459	117.98215	103.33609	61.02525	36.61515	0
32	108.21811	-8.1367	-116.35481	-51.26121	110.65912	-61.02525	-39.86983	3021.15671	113.10013	98.45407	58.58424	36.61515	0
33	98.45407	-15.45973	-113.9138	-41.49717	105.7771	-63.46626	-44.75185	3048.00782	108.21811	98.45407	58.58424	41.49717	0
34	88.69003	-17.90074	-106.59077	-36.61515	96.01306	-61.02525	-50.44754	3074.85893	105.7771	98.45407	61.02525	46.37919	0
35	81.367	-22.78276	-104.14976	-29.29212	91.13104	-63.46626	-60.21158	3094.38701	98.45407	96.01306	56.14323	41.49717	0
36	83.80801	-22.78276	-106.59077	-31.73313	93.57205	-63.46626	-65.0936	3060.21287	88.69003	91.13104	56.14323	39.05616	0
37	83.80801	-22.78276	-106.59077	-31.73313	93.57205	-63.46626	-69.97562	3069.97691	88.69003	88.69003	53.70222	39.05616	0
38	93.57205	-13.01872	-106.59077	-41.49717	98.45407	-58.58424	-69.97562	3072.41792	88.69003	88.69003	48.8202	34.17414	0
39	105.7771	-3.25468	-109.03178	-51.26121	105.7771	-56.14323	-67.53461	3116.3561	91.13104	88.69003	48.8202	31.73313	0
40	120.42316	-0.81367	-121.23683	-61.02525	120.42316	-61.02525	-65.0936	3131.00216	91.13104	88.69003	48.8202	31.73313	0
41	122.86417	-10.57771	-133.44188	-56.14323	127.74619	-70.78929	-65.0936	3133.44317	88.69003	83.80801	43.93818	29.29212	0
42	113.10013	-17.90074	-131.00087	-48.8202	120.42316	-73.2303	-65.0936	3170.05832	81.367	78.92599	43.93818	31.73313	0
43	105.7771	-30.10579	-135.88289	-39.05616	120.42316	-82.99434	-69.97562	3196.90943	74.04397	69.16195	36.61515	31.73313	0
44	98.45407	-49.63387	-148.08794	-24.4101	122.86417	-97.6404	-72.41663	3223.76054	64.27993	61.83892	34.17414	31.73313	0
45	86.24902	-66.72094	-152.96996	-9.76404	117.98215	-109.84545	-74.85764	3248.17064	59.39791	59.39791	29.29212	31.73313	0
46	71.60296	-81.367	-152.96996	3.25468	110.65912	-117.16848	-77.29865	3211.55549	52.07488	52.07488	26.85111	26.85111	0
47	59.39791	-88.69003	-148.08794	13.01872	103.33609	-117.16848	-79.73966	3216.43751	47.19286	44.75185	19.52808	24.4101	0
48	56.9569	-91.13104	-148.08794	15.45973	100.89508	-119.60949	-79.73966	3218.87852	43.93818	39.86983	14.64606	17.08707	0
49	64.27993	-86.24902	-150.52895	10.57771	105.7771	-117.16848	-77.29865	3260.37569	49.63387	39.86983	14.64606	12.20505	0
50	78.92599	-71.60296	-150.52895	-4.88202	113.10013	-109.84545	-69.97562	3277.46276	59.39791	44.75185	17.08707	9.76404	0
51	93.57205	-56.9569	-150.52895	-19.52808	120.42316	-102.52242	-67.53461	3287.2268	61.83892	47.19286	19.52808	7.32303	0
52	98.45407	-54.51589	-152.96996	-21.96909	125.30518	-102.52242	-67.53461	3328.72397	61.83892	47.19286	17.08707	4.88202	0
53	100.89508	-54.51589	-155.41097	-24.4101	127.74619	-104.96343	-67.53461	3362.89811	61.83892	47.19286	14.64606	4.88202	0
54	103.33609	-59.39791	-162.734	-21.96909	132.62821	-109.84545	-67.53461	3397.07225	59.39791	44.75185	14.64606	4.88202	0
55	100.89508	-66.72094	-167.61602	-17.08707	132.62821	-117.16848	-67.53461	3426.36437	56.9569	44.75185	12.20505	2.44101	0
56	88.69003	-78.92599	-167.61602	-4.88202	127.74619	-122.0505	-69.97562	3392.19023	49.63387	37.42882	7.32303	-2.44101	0
57	69.16195	-96.01306	-165.17501	13.01872	115.54114	-129.37353	-69.97562	3397.07225	41.49717	30.10579	1.62734	-7.32303	0
58	54.51589	-108.21811	-162.734	25.22377	108.21811	-134.25555	-69.97562	3397.07225	36.61515	21.96909	-8.1367	-15.45973	0
59	49.63387	-110.65912	-160.29299	30.10579	103.33609	-134.25555	-69.97562	3436.12841	34.17414	14.64606	-13.01872	-25.22377	0
60	52.07488	-108.21811	-160.29299	27.66478	105.7771	-134.25555	-65.0936	3450.77447	36.61515	14.64606	-15.45973	-30.10579	0
61	64.27993	-103.33609	-167.61602	17.90074	115.54114	-134.25555	-65.0936	3455.65649	36.61515	17.08707	-13.01872	-32.5468	0
62	74.04397	-105.7771	-179.82107	15.45973	125.30518	-141.57858	-62.65259	3497.15366	34.17414	14.64606	-13.01872	-30.10579	0
63	81.367	-108.21811	-189.58511	13.01872	135.06922	-148.90161	-62.65259	3531.3278	31.73313	12.20505	-13.01872	-30.10579	0
64	69.16195	-113.10013	-182.26208	20.34175	125.30518	-146.4606	-62.65259	3565.50194	31.73313	12.20505	-10.57771	-27.66478	0
65	56.9569	-117.98215	-174.93905	30.10579	115.54114	-146.4606	-67.53461	3597.23507	31.73313	12.20505	-8.1367	-25.22377	0
66	47.19286	-117.98215	-165.17501	34.98781	105.7771	-141.57858	-72.41663	3567.94295	26.85111	9.76404	-8.1367	-25.22377	0
67	30.10579	-120.42316	-150.52895	44.75185	88.69003	-134.25555	-69.97562	3575.26598	21.96909	7.32303	-10.57771	-25.22377	0
68	8.1367	-120.42316	-128.55986	54.51589	66.72094	-124.49151	-67.53461	3582.58901	26.85111	7.32303	-10.57771	-25.22377	0
69	-9.76404	-120.42316	-111.47279	64.27993	49.63387	-117.16848	-67.53461	3624.08618	26.85111	2.44101	-13.01872	-27.66478	0
70	-12.20505	-113.10013	-101.70875	61.83892	44.75185	-107.40444	-65.0936	3641.17325	26.85111	2.44101	-17.90074	-34.98781	0
71	3.25468	-103.33609	-106.59077	49.63387	54.51589	-104.96343	-65.0936	3646.05527	21.96909	-2.44101	-22.78276	-37.42882	0
72	10.57771	-103.33609	-113.9138	44.75185	61.83892	-107.40444	-65.0936	3687.55244	19.52808	-4.88202	-25.22377	-42.31084	0
73	22.78276	-103.33609	-126.11885	39.86983	74.04397	-114.72747	-65.0936	3724.16759	17.08707	-9.76404	-27.66478	-44.75185	0
74	37.42882	-103.33609	-140.76491	32.5468	88.69003	-122.0505	-69.97562	3758.34173	12.20505	-14.64606	-30.10579	-47.19286	0
75	39.86983	-103.33609	-143.20592	30.10579	91.13104	-122.0505	-67.53461	3794.95688	12.20505	-9.76404	-27.66478	-49.63387	0
76	32.5468	-100.89508	-133.44188	32.5468	81.367	-117.16848	-60.21158	3772.98779	19.52808	-2.44101	-17.90074	-39.86983	0
77	20.34175	-103.33609	-123.67784	39.86983	71.60296	-112.28646	-55.32956	3787.63385	24.4101	2.44101	-13.01872	-34.98781	0
78	15.45973	-93.57205	-109.03178	37.42882	61.83892	-100.08141	-55.32956	3797.39789	29.29212	7.32303	-10.57771	-32.5468	0
79	3.25468	-93.57205	-96.82673	44.75185	49.63387	-95.19939	-52.88855	3843.77708	34.17414	9.76404	-8.1367	-30.10579	0
80	-9.76404	-96.01306	-87.06269	52.07488	37.42882	-92.75838	-50.44754	3860.86415	36.61515	12.20505	-8.1367	-34.98781	0
81	-14.64606	-96.01306	-82.18067	54.51589	32.5468	-90.31737	-50.44754	3868.18718	31.73313	9.76404	-10.57771	-37.42882	0
82	-2.44101	-91.13104	-89.5037	44.75185	42.31084	-90.31737	-55.32956	3907.24334	24.4101	2.44101	-15.45973	-39.86983	0
83	15.45973	-83.80801	-99.26774	32.5468	56.9569	-90.31737	-57.77057	3943.85849	17.08707	0	-20.34175	-39.86983	0
84	15.45973	-91.13104	-106.59077	37.42882	59.39791	-97.6404	-52.88855	3985.35566	17.08707	2.44101	-13.01872	-32.5468	0
85	13.01872	-93.57205	-106.59077	39.86983	59.39791	-100.08141	-48.00653	4017.08879	19.52808	9.76404	-8.1367	-30.10579	0
86	13.01872	-91.13104	-104.14976	37.42882	56.9569	-97.6404	-44.75185	3990.23768	21.96909	17.08707	1.62734	-20.34175	0
87	5.69569	-91.13104	-96.82673	42.31084	49.63387	-92.75838	-42.31084	4002.44273	26.85111	19.52808	4.06835	-15.45973	0
88	-7.32303	-91.13104	-84.62168	47.19286	37.42882	-87.87636	-39.86983	4012.20677	31.73313	21.96909	7.32303	-15.45973	0
89	-19.52808	-93.57205	-74.85764	54.51589	27.66478	-85.43535	-39.86983	4058.58596	36.61515	21.96909	4.06835	-17.90074	0
90	-29.29212	-103.33609	-74.85764	64.27993	22.78276	-90.31737	-48.00653	4073.23202	36.61515	14.64606	-5.69569	-32.5468	0
91	-21.96909	-108.21811	-87.06269	64.27993	32.5468	-97.6404	-48.00653	4082.99606	31.73313	12.20505	-8.1367	-37.42882	0
92	-21.96909	-115.54114	-94.38572	66.72094	34.98781	-104.96343	-50.44754	4131.81626	29.29212	9.76404	-10.57771	-39.86983	0
93	-14.64606	-117.98215	-104.14976	64.27993	44.75185	-112.28646	-50.44754	4173.31343	29.29212	14.64606	-8.1367	-37.42882	0
94	-4.88202	-117.98215	-113.9138	59.39791	54.51589	-117.16848	-55.32956	4219.69262	34.17414	21.96909	1.62734	-30.10579	0
95	3.25468	-120.42316	-123.67784	56.9569	61.83892	-122.0505	-57.77057	4261.18979	47.19286	47.19286	19.52808	-17.90074	0
96	10.57771	-115.54114	-126.11885	52.07488	66.72094	-119.60949	-60.21158	4244.10272	69.16195	81.367	56.14323	9.76404	0
97	22.78276	-93.57205	-116.35481	34.98781	69.16195	-104.96343	-67.53461	4261.18979	100.89508	125.30518	100.08141	46.37919	0
98	32.5468	-66.72094	-99.26774	15.45973	64.27993	-82.99434	-74.85764	4283.15888	149.71528	183.88942	158.66565	92.75838	0
99	47.19286	-44.75185	-91.94471	-2.44101	69.16195	-68.34828	-87.06269	3113.91509	210.74053	259.56073	236.77797	153.78363	0
100	74.04397	-15.45973	-89.5037	-29.29212	81.367	-51.26121	-101.70875	1915.37918	279.08881	352.31911	336.85938	236.77797	1000	P+0
101	105.7771	14.64606	-91.94471	-61.02525	98.45407	-39.05616	-123.67784	1927.58423	342.55507	457.28254	458.90988	339.30039	0
102	144.83326	41.49717	-104.14976	-92.75838	125.30518	-31.73313	-152.96996	1969.0814	403.58032	567.12799	593.16543	461.35089	0
103	186.33043	63.46626	-123.67784	-124.49151	154.5973	-29.29212	-189.58511	1995.93251	459.72355	681.85546	739.62603	595.60644	0
104	235.15063	87.87636	-148.08794	-161.10666	191.21245	-29.29212	-233.52329	2008.13756	501.22072	791.70091	888.52764	737.18502	0
105	288.85285	124.49151	-165.17501	-207.48585	227.8276	-19.52808	-279.90248	2003.25554	530.51284	894.22333	1034.98824	876.32259	0
106	332.79103	158.66565	-174.93905	-246.54201	254.67871	-7.32303	-326.28167	4390.56332	550.04092	982.09969	1171.6848	1010.57814	0
107	366.96517	185.51676	-182.26208	-275.83413	274.20679	3.25468	-372.66086	4344.18413	540.27688	1021.15585	1254.67914	1108.21854	0
108	391.37527	222.13191	-170.05703	-307.56726	281.52982	27.66478	-414.15803	4278.27686	491.45668	1001.62777	1271.76621	1152.15672	0
109	396.25729	258.74706	-138.3239	-327.09534	266.88376	61.83892	-448.33217	4234.33868	393.81628	911.3104	1208.29995	1130.18763	0
110	379.17022	285.59817	-94.38572	-331.97736	237.59164	96.01306	-475.18328	4146.46232	244.91467	737.99869	1039.87026	1025.2242	0
111	330.35002	290.48019	-40.6835	-310.00827	186.33043	125.30518	-499.59338	4021.97081	31.73313	474.36961	773.80017	837.26643	0
112	262.00174	278.27514	16.2734	-270.95211	122.86417	147.27427	-516.68045	3921.8894	-231.89595	139.95124	434.49978	590.72442	0
113	188.77144	261.18807	72.41663	-224.57292	59.39791	166.80235	-531.32651	3821.80799	-529.69917	-229.45494	53.70222	307.56726	0
114	105.7771	229.45494	123.67784	-168.42969	-9.76404	176.56639	-545.97257	3748.57769	-815.29734	-585.8424	-310.82194	26.85111	0
115	22.78276	173.31171	150.52895	-97.6404	-63.46626	161.92033	-558.17762	3689.99345	-1066.72137	-893.40966	-630.59425	-227.8276	0
116	-51.26121	102.52242	152.96996	-26.85111	-102.52242	127.74619	-563.05964	3594.79406	-1264.44318	-1137.51066	-886.9003	-445.07749	0
117	-112.28646	21.96909	133.44188	44.75185	-122.0505	76.48498	-558.17762	3572.82497	-1391.3757	-1296.17631	-1055.32999	-598.86112	0
118	-161.10666	-59.39791	101.70875	108.21811	-131.81454	20.34175	-550.85459	3575.26598	-1452.40095	-1379.17065	-1148.08837	-701.38354	0
119	-202.60383	-139.95124	62.65259	169.24336	-134.25555	-39.05616	-545.97257	3619.20416	-1459.72398	-1398.69873	-1182.26251	-762.40879	0
120	-229.45494	-208.29952	21.15542	218.06356	-126.93252	-95.19939	-533.76752	3638.73224	-1420.66782	-1366.9656	-1174.93948	-791.70091	0
121	-241.65999	-257.11972	-16.2734	247.35568	-114.72747	-136.69656	-519.12146	3648.49628	-1354.76055	-1305.94035	-1138.32433	-791.70091	0
122	-239.21898	-274.20679	-35.80148	254.67871	-102.52242	-156.22464	-499.59338	3719.28557	-1269.3252	-1225.38702	-1079.74009	-764.8498	0
123	-234.33696	-274.20679	-40.6835	252.2377	-97.6404	-158.66565	-480.0653	3807.16193	-1171.6848	-1130.18763	-999.18676	-713.58859	0
124	-217.24989	-259.56073	-43.12451	237.59164	-87.87636	-151.34262	-458.09621	3914.56637	-1061.83935	-1020.34218	-906.42838	-647.68132	0
125	-190.39878	-227.8276	-38.24249	208.29952	-78.11232	-134.25555	-426.36308	4036.61687	-942.22986	-900.73269	-803.90596	-572.01001	0
126	-168.42969	-188.77144	-21.15542	176.56639	-75.67131	-104.96343	-392.18894	4109.84717	-825.06138	-783.56421	-698.94253	-493.89769	0
127	-156.22464	-159.47932	-4.06835	157.03831	-78.11232	-82.99434	-353.13278	4227.01565	-712.77492	-678.60078	-606.18415	-423.1084	0
128	-148.90161	-132.62821	16.2734	139.95124	-82.99434	-58.58424	-311.63561	4341.74312	-605.37048	-580.96038	-520.7488	-357.20113	0
129	-144.01959	-110.65912	33.36047	125.30518	-90.31737	-39.05616	-267.69743	4480.88069	-510.17109	-495.52503	-447.5185	-305.93992	0
130	-141.57858	-86.24902	55.32956	113.10013	-100.08141	-17.08707	-226.20026	4578.52109	-427.17675	-422.29473	-391.37527	-269.32477	0
131	-146.4606	-69.16195	77.29865	105.7771	-112.28646	3.25468	-194.46713	4654.1924	-366.1515	-363.71049	-340.11406	-237.59164	0
132	-144.01959	-56.9569	87.06269	98.45407	-117.16848	15.45973	-167.61602	4761.59684	-312.44928	-312.44928	-298.61689	-205.85851	0
133	-136.69656	-39.86983	96.82673	86.24902	-117.16848	27.66478	-140.76491	4861.67825	-258.74706	-261.18807	-254.67871	-176.56639	0
134	-129.37353	-25.22377	104.14976	76.48498	-117.16848	39.86983	-123.67784	4959.31865	-209.92686	-214.80888	-215.62255	-147.27427	0
135	-122.0505	-15.45973	106.59077	66.72094	-114.72747	44.75185	-111.47279	5038.24464	-170.8707	-173.31171	-179.0074	-122.86417	0
136	-109.84545	-3.25468	106.59077	54.51589	-109.84545	52.07488	-104.14976	5050.44969	-139.13757	-144.01959	-149.71528	-103.33609	0
137	-95.19939	14.64606	109.03178	39.86983	-102.52242	61.83892	-99.26774	5089.50585	-109.84545	-119.60949	-130.1872	-86.24902	0
138	-85.43535	24.4101	109.03178	30.10579	-97.6404	66.72094	-91.94471	5123.67999	-82.99434	-97.6404	-110.65912	-74.04397	0
139	-75.67131	24.4101	99.26774	25.22377	-87.87636	61.83892	-91.94471	5184.70524	-63.46626	-85.43535	-100.89508	-69.16195	0
140	-61.02525	24.4101	84.62168	17.90074	-73.2303	54.51589	-84.62168	5213.99736	-48.8202	-75.67131	-93.57205	-69.16195	0
141	-41.49717	34.17414	74.85764	3.25468	-58.58424	54.51589	-79.73966	5235.96645	-39.05616	-65.90727	-86.24902	-61.83892	0
142	-24.4101	39.05616	62.65259	-7.32303	-43.93818	49.63387	-74.85764	5294.55069	-29.29212	-56.14323	-78.92599	-59.39791	0
143	-19.52808	36.61515	55.32956	-9.76404	-36.61515	44.75185	-69.97562	5348.25291	-21.96909	-46.37919	-66.72094	-47.19286	0
144	-26.85111	21.96909	48.00653	0	-36.61515	34.98781	-74.85764	5394.6321	-19.52808	-46.37919	-64.27993	-42.31084	0
145	-39.05616	12.20505	50.44754	13.01872	-43.93818	30.10579	-77.29865	5433.68826	-19.52808	-41.49717	-59.39791	-39.86983	0
146	-51.26121	12.20505	62.65259	17.90074	-56.14323	37.42882	-77.29865	5416.60119	-14.64606	-31.73313	-49.63387	-32.5468	0
147	-65.90727	12.20505	77.29865	25.22377	-70.78929	44.75185	-79.73966	5426.36523	-14.64606	-31.73313	-49.63387	-30.10579	0
148	-80.55333	14.64606	94.38572	32.5468	-87.87636	54.51589	-82.18067	5433.68826	-12.20505	-31.73313	-49.63387	-30.10579	0
149	-85.43535	21.96909	106.59077	30.10579	-95.19939	64.27993	-84.62168	5472.74442	-12.20505	-34.17414	-49.63387	-30.10579	0
150	-82.99434	34.17414	116.35481	22.78276	-100.08141	74.04397	-82.18067	5492.2725	-7.32303	-31.73313	-52.07488	-30.10579	0
151	-70.78929	56.14323	126.11885	5.69569	-97.6404	91.13104	-74.85764	5506.91856	-2.44101	-24.4101	-44.75185	-22.78276	0
152	-63.46626	75.67131	138.3239	-7.32303	-100.08141	105.7771	-72.41663	5558.17977	0	-24.4101	-37.42882	-13.01872	0
153	-61.02525	82.99434	143.20592	-12.20505	-102.52242	113.10013	-72.41663	5606.99997	0	-24.4101	-34.98781	-7.32303	0
154	-61.02525	85.43535	145.64693	-12.20505	-102.52242	115.54114	-69.97562	5655.82017	2.44101	-19.52808	-30.10579	0	0
155	-63.46626	87.87636	150.52895	-12.20505	-107.40444	117.98215	-65.0936	5697.31734	4.88202	-14.64606	-25.22377	7.32303	0
156	-61.02525	97.6404	157.85198	-19.52808	-109.84545	127.74619	-65.0936	5677.78926	4.88202	-12.20505	-22.78276	9.76404	0
157	-61.02525	107.40444	167.61602	-24.4101	-114.72747	137.51023	-69.97562	5685.11229	0	-14.64606	-22.78276	9.76404	0
158	-58.58424	107.40444	165.17501	-24.4101	-112.28646	135.06922	-72.41663	5687.5533	-4.88202	-19.52808	-27.66478	4.88202	0
159	-53.70222	104.96343	157.85198	-26.85111	-104.96343	130.1872	-74.85764	5724.16845	-9.76404	-26.85111	-34.98781	2.44101	0
160	-51.26121	109.84545	160.29299	-29.29212	-104.96343	135.06922	-74.85764	5741.25552	-9.76404	-26.85111	-37.42882	0	0
161	-48.8202	114.72747	162.734	-34.17414	-104.96343	137.51023	-82.18067	5746.13754	-17.08707	-29.29212	-37.42882	-2.44101	0
162	-58.58424	112.28646	170.05703	-26.85111	-114.72747	139.95124	-82.18067	5797.39875	-17.08707	-26.85111	-32.5468	7.32303	0
163	-70.78929	109.84545	179.82107	-19.52808	-124.49151	144.83326	-82.18067	5851.10097	-14.64606	-24.4101	-25.22377	19.52808	0
164	-82.99434	109.84545	192.02612	-14.64606	-136.69656	149.71528	-77.29865	5904.80319	-12.20505	-17.08707	-15.45973	29.29212	0
165	-92.75838	119.60949	211.5542	-14.64606	-151.34262	164.36134	-72.41663	5951.18238	-4.88202	-7.32303	-10.57771	34.17414	0
166	-90.31737	126.93252	216.43622	-19.52808	-153.78363	171.68437	-67.53461	5941.41834	-2.44101	-2.44101	-3.25468	36.61515	0
167	-85.43535	126.93252	211.5542	-21.96909	-148.90161	169.24336	-65.0936	5953.62339	-2.44101	-4.88202	-5.69569	39.05616	0
168	-70.78929	129.37353	199.34915	-29.29212	-134.25555	164.36134	-65.0936	5958.50541	-4.88202	-9.76404	-13.01872	29.29212	0
169	-58.58424	129.37353	187.1441	-36.61515	-122.0505	157.03831	-67.53461	5992.67955	-9.76404	-19.52808	-20.34175	17.08707	0
170	-51.26121	131.81454	182.26208	-41.49717	-117.16848	157.03831	-69.97562	6004.8846	-14.64606	-26.85111	-32.5468	2.44101	0
171	-48.8202	136.69656	184.70309	-43.93818	-117.16848	159.47932	-67.53461	6014.64864	-17.08707	-29.29212	-32.5468	2.44101	0
172	-48.8202	136.69656	184.70309	-43.93818	-117.16848	159.47932	-62.65259	6070.79187	-17.08707	-24.4101	-27.66478	9.76404	0
173	-61.02525	141.57858	201.79016	-41.49717	-131.81454	171.68437	-57.77057	6122.05308	-14.64606	-21.96909	-25.22377	12.20505	0
174	-73.2303	144.01959	216.43622	-36.61515	-144.01959	179.0074	-52.88855	6178.19631	-7.32303	-14.64606	-15.45973	24.4101	0
175	-90.31737	144.01959	233.52329	-26.85111	-161.10666	188.77144	-48.00653	6227.01651	-2.44101	-4.88202	-8.1367	29.29212	0
176	-102.52242	144.01959	245.72834	-21.96909	-173.31171	193.65346	-44.75185	6219.69348	2.44101	2.44101	1.62734	39.05616	0
177	-100.08141	144.01959	243.28733	-21.96909	-170.8707	193.65346	-42.31084	6234.33954	7.32303	7.32303	9.76404	46.37919	0
178	-97.6404	146.4606	243.28733	-24.4101	-170.8707	193.65346	-48.00653	6244.10358	7.32303	4.88202	4.06835	41.49717	0
179	-92.75838	153.78363	245.72834	-31.73313	-168.42969	198.53548	-50.44754	6273.3957	0	-2.44101	1.62734	36.61515	0
180	-95.19939	158.66565	253.05137	-31.73313	-173.31171	205.85851	-57.77057	6285.60075	-2.44101	-7.32303	-3.25468	29.29212	0
181	-102.52242	156.22464	257.93339	-26.85111	-180.63474	205.85851	-57.77057	6295.36479	-4.88202	-4.88202	-0.81367	31.73313	0
182	-109.84545	156.22464	265.25642	-24.4101	-187.95777	210.74053	-55.32956	6351.50802	-2.44101	0	4.06835	41.49717	0
183	-122.0505	156.22464	277.46147	-17.08707	-200.16282	215.62255	-52.88855	6405.21024	-2.44101	0	4.06835	43.93818	0
184	-136.69656	161.10666	296.98955	-12.20505	-217.24989	227.8276	-50.44754	6461.35347	2.44101	4.88202	9.76404	51.26121	0
185	-146.4606	168.42969	314.07662	-12.20505	-229.45494	240.03265	-48.00653	6507.73266	4.88202	9.76404	14.64606	56.14323	0
186	-153.78363	168.42969	321.39965	-7.32303	-236.77797	244.91467	-48.00653	6500.40963	9.76404	14.64606	21.96909	61.02525	0
187	-153.78363	168.42969	321.39965	-7.32303	-236.77797	244.91467	-50.44754	6510.17367	7.32303	12.20505	19.52808	61.02525	0
188	-141.57858	175.75272	316.51763	-17.08707	-229.45494	244.91467	-57.77057	6515.05569	0	0	9.76404	53.70222	0
189	-131.81454	185.51676	316.51763	-26.85111	-224.57292	249.79669	-65.0936	6544.34781	-7.32303	-9.76404	1.62734	41.49717	0
190	-124.49151	183.07575	306.75359	-29.29212	-214.80888	244.91467	-69.97562	6556.55286	-12.20505	-17.08707	-8.1367	34.17414	0
191	-119.60949	178.19373	296.98955	-29.29212	-207.48585	237.59164	-77.29865	6558.99387	-21.96909	-24.4101	-15.45973	26.85111	0
192	-124.49151	178.19373	301.87157	-26.85111	-212.36787	240.03265	-82.18067	6607.81407	-29.29212	-31.73313	-20.34175	24.4101	0
193	-124.49151	178.19373	301.87157	-26.85111	-212.36787	240.03265	-84.62168	6656.63427	-34.17414	-36.61515	-22.78276	26.85111	0
194	-126.93252	178.19373	304.31258	-26.85111	-214.80888	240.03265	-87.06269	6705.45447	-36.61515	-36.61515	-25.22377	29.29212	0
195	-126.93252	183.07575	309.1946	-29.29212	-217.24989	244.91467	-82.18067	6751.83366	-34.17414	-29.29212	-20.34175	36.61515	0
196	-124.49151	190.39878	314.07662	-34.17414	-219.6909	252.2377	-79.73966	6746.95164	-31.73313	-21.96909	-13.01872	43.93818	0
197	-119.60949	205.04484	323.84066	-43.93818	-222.13191	264.44275	-79.73966	6754.27467	-31.73313	-24.4101	-13.01872	48.8202	0
198	-117.16848	207.48585	323.84066	-46.37919	-219.6909	264.44275	-79.73966	6761.5977	-34.17414	-24.4101	-15.45973	48.8202	0
199	-112.28646	200.16282	311.63561	-43.93818	-212.36787	254.67871	-77.29865	6793.33083	-34.17414	-26.85111	-20.34175	46.37919	0
200	-109.84545	205.04484	314.07662	-48.8202	-212.36787	259.56073	-74.85764	6810.4179	-34.17414	-26.85111	-20.34175	41.49717	0
201	-104.96343	217.24989	321.39965	-56.14323	-212.36787	269.32477	-77.29865	6815.29992	-36.61515	-29.29212	-22.78276	41.49717	0
202	-100.08141	236.77797	336.04571	-68.34828	-217.24989	286.41184	-79.73966	6869.00214	-39.05616	-34.17414	-25.22377	43.93818	0
203	-104.96343	224.57292	328.72268	-61.02525	-217.24989	276.6478	-79.73966	6920.26335	-43.93818	-36.61515	-27.66478	51.26121	0
204	-107.40444	219.6909	326.28167	-56.14323	-217.24989	271.76578	-77.29865	6973.96557	-43.93818	-39.05616	-22.78276	56.14323	0
205	-102.52242	234.33696	336.04571	-65.90727	-219.6909	283.97083	-74.85764	7017.90375	-43.93818	-34.17414	-20.34175	61.02525	0
206	-95.19939	248.98302	343.36874	-78.11232	-219.6909	296.17588	-74.85764	7010.58072	-43.93818	-31.73313	-17.90074	63.46626	0
207	-87.87636	256.30605	343.36874	-85.43535	-214.80888	298.61689	-74.85764	7015.46274	-46.37919	-36.61515	-22.78276	63.46626	0
208	-90.31737	253.86504	343.36874	-82.99434	-217.24989	298.61689	-74.85764	7025.22678	-46.37919	-36.61515	-25.22377	58.58424	0
209	-97.6404	253.86504	350.69177	-78.11232	-224.57292	301.0579	-77.29865	7052.07789	-48.8202	-43.93818	-32.5468	51.26121	0
210	-100.08141	261.18807	360.45581	-80.55333	-229.45494	310.82194	-82.18067	7066.72395	-51.26121	-48.8202	-42.31084	39.05616	0
211	-100.08141	266.07009	365.33783	-82.99434	-231.89595	315.70396	-84.62168	7071.60597	-56.14323	-53.70222	-47.19286	39.05616	0
212	-95.19939	275.83413	370.21985	-90.31737	-231.89595	323.02699	-84.62168	7130.19021	-56.14323	-53.70222	-47.19286	41.49717	0
213	-107.40444	275.83413	382.4249	-85.43535	-244.101	327.90901	-84.62168	7188.77445	-58.58424	-53.70222	-47.19286	46.37919	0
214	-114.72747	268.5111	382.4249	-78.11232	-248.98302	325.468	-84.62168	7247.35869	-61.02525	-53.70222	-47.19286	46.37919	0
215	-122.0505	266.07009	387.30692	-73.2303	-253.86504	325.468	-82.18067	7298.6199	-61.02525	-51.26121	-49.63387	46.37919	0
216	-117.16848	275.83413	392.18894	-80.55333	-253.86504	332.79103	-77.29865	7298.6199	-63.46626	-48.8202	-47.19286	46.37919	0
217	-119.60949	278.27514	397.07096	-80.55333	-258.74706	337.67305	-77.29865	7310.82495	-68.34828	-53.70222	-52.07488	43.93818	0
218	-134.25555	266.07009	399.51197	-65.90727	-266.07009	332.79103	-79.73966	7320.58899	-75.67131	-65.90727	-64.27993	31.73313	0
219	-139.13757	263.62908	401.95298	-63.46626	-270.95211	332.79103	-79.73966	7347.4401	-80.55333	-73.2303	-71.60296	21.96909	0
220	-131.81454	270.95211	401.95298	-70.78929	-266.07009	335.23204	-84.62168	7362.08616	-80.55333	-78.11232	-78.92599	12.20505	0
221	-124.49151	278.27514	401.95298	-78.11232	-263.62908	340.11406	-89.5037	7369.40919	-82.99434	-80.55333	-81.367	7.32303	0
222	-119.60949	283.15716	401.95298	-82.99434	-261.18807	342.55507	-94.38572	7425.55242	-82.99434	-82.99434	-86.24902	7.32303	0
223	-114.72747	285.59817	399.51197	-85.43535	-256.30605	342.55507	-96.82673	7484.13666	-80.55333	-82.99434	-86.24902	9.76404	0
224	-100.08141	300.24423	399.51197	-100.08141	-248.98302	349.8781	-94.38572	7552.48494	-73.2303	-75.67131	-81.367	14.64606	0
225	-90.31737	307.56726	397.07096	-109.84545	-244.101	352.31911	-94.38572	7611.06918	-68.34828	-70.78929	-81.367	14.64606	0
226	-90.31737	305.12625	394.62995	-107.40444	-241.65999	349.8781	-94.38572	7618.39221	-68.34828	-70.78929	-81.367	12.20505	0
227	-90.31737	300.24423	389.74793	-104.96343	-239.21898	344.99608	-91.94471	7635.47928	-68.34828	-70.78929	-83.80801	7.32303	0
228	-90.31737	297.80322	387.30692	-104.96343	-239.21898	342.55507	-89.5037	7657.44837	-68.34828	-78.11232	-93.57205	-2.44101	0
229	-90.31737	292.9212	382.4249	-102.52242	-236.77797	337.67305	-87.06269	7694.06352	-68.34828	-82.99434	-98.45407	-10.57771	0
230	-102.52242	283.15716	384.86591	-90.31737	-244.101	332.79103	-89.5037	7713.5916	-70.78929	-87.87636	-105.7771	-22.78276	0
231	-112.28646	273.39312	384.86591	-80.55333	-248.98302	327.90901	-89.5037	7725.79665	-73.2303	-90.31737	-108.21811	-27.66478	0
232	-107.40444	270.95211	377.54288	-82.99434	-241.65999	323.02699	-91.94471	5323.84281	-73.2303	-90.31737	-110.65912	-30.10579	0
233	-95.19939	275.83413	370.21985	-90.31737	-231.89595	323.02699	-89.5037	2925.95732	-73.2303	-92.75838	-113.10013	-32.5468	0
234	-85.43535	280.71615	365.33783	-97.6404	-224.57292	323.02699	-89.5037	532.14018	-68.34828	-90.31737	-115.54114	-32.5468	0
235	-80.55333	275.83413	355.57379	-97.6404	-217.24989	315.70396	-89.5037	-1875.50935	-68.34828	-90.31737	-115.54114	-37.42882	0
236	-63.46626	275.83413	338.48672	-107.40444	-200.16282	305.93992	-89.5037	-4328.7244	-65.90727	-87.87636	-117.98215	-42.31084	0
237	-51.26121	273.39312	323.84066	-112.28646	-187.95777	298.61689	-82.18067	-6772.98908	-65.90727	-92.75838	-122.86417	-44.75185	0
238	-51.26121	263.62908	314.07662	-107.40444	-183.07575	288.85285	-82.18067	-7983.73004	-65.90727	-95.19939	-127.74619	-52.07488	0
239	-56.14323	251.42403	306.75359	-97.6404	-180.63474	279.08881	-77.29865	-7949.5559	-63.46626	-95.19939	-130.1872	-56.9569	0
240	-61.02525	244.101	304.31258	-92.75838	-183.07575	274.20679	-74.85764	-7925.1458	-58.58424	-92.75838	-132.62821	-64.27993	0
241	-63.46626	236.77797	299.43056	-87.87636	-180.63474	266.88376	-72.41663	-7912.94075	-56.14323	-90.31737	-132.62821	-66.72094	0
242	-75.67131	219.6909	294.54854	-73.2303	-185.51676	257.11972	-67.53461	-7851.9155	-51.26121	-85.43535	-130.1872	-66.72094	0
243	-85.43535	212.36787	296.98955	-63.46626	-190.39878	254.67871	-67.53461	-7786.00823	-46.37919	-78.11232	-127.74619	-64.27993	0
244	-82.99434	212.36787	294.54854	-65.90727	-187.95777	252.2377	-62.65259	-7717.65995	-39.05616	-70.78929	-122.86417	-64.27993	0
245	-80.55333	212.36787	292.10753	-65.90727	-185.51676	252.2377	-55.32956	-7663.95773	-26.85111	-61.02525	-115.54114	-59.39791	0
246	-75.67131	200.16282	275.02046	-63.46626	-175.75272	237.59164	-50.44754	-7656.6347	-19.52808	-53.70222	-115.54114	-64.27993	0
247	-75.67131	183.07575	257.93339	-53.70222	-165.98868	220.50457	-48.00653	-7641.98864	-12.20505	-51.26121	-113.10013	-69.16195	0
248	-68.34828	173.31171	240.84632	-53.70222	-153.78363	205.85851	-42.31084	-7617.57854	-4.88202	-46.37919	-110.65912	-69.16195	0
249	-56.14323	163.54767	218.87723	-53.70222	-136.69656	191.21245	-34.98781	-7583.4044	4.88202	-41.49717	-108.21811	-74.04397	0
250	-48.8202	141.57858	189.58511	-46.37919	-119.60949	164.36134	-32.5468	-7561.43531	12.20505	-36.61515	-108.21811	-81.367	0
251	-39.05616	129.37353	167.61602	-46.37919	-102.52242	147.27427	-30.10579	-7549.23026	19.52808	-31.73313	-105.7771	-81.367	0
252	-26.85111	122.0505	148.08794	-48.8202	-87.87636	135.06922	-27.66478	-7488.20501	24.4101	-21.96909	-100.89508	-81.367	0
253	-17.08707	119.60949	135.88289	-51.26121	-75.67131	127.74619	-22.78276	-7417.41572	34.17414	-9.76404	-91.13104	-74.04397	0
254	-9.76404	112.28646	121.23683	-51.26121	-65.90727	115.54114	-22.78276	-7351.50845	41.49717	-4.88202	-88.69003	-71.60296	0
255	-4.88202	95.19939	99.26774	-46.37919	-51.26121	96.01306	-22.78276	-7305.12926	43.93818	0	-88.69003	-78.92599	0
256	5.69569	85.43535	79.73966	-46.37919	-36.61515	83.80801	-25.22377	-7302.68825	52.07488	4.88202	-83.80801	-83.80801	0
257	17.90074	78.11232	60.21158	-48.8202	-21.96909	69.16195	-25.22377	-7290.4832	59.39791	9.76404	-81.367	-83.80801	0
258	20.34175	70.78929	50.44754	-46.37919	-14.64606	61.83892	-22.78276	-7268.51411	71.60296	19.52808	-71.60296	-78.92599	0
259	25.22377	61.02525	35.80148	-43.93818	-4.88202	49.63387	-17.90074	-7234.33997	81.367	27.66478	-61.83892	-74.04397	0
260	32.5468	51.26121	18.71441	-41.49717	8.1367	34.98781	-15.45973	-7212.37088	91.13104	37.42882	-52.07488	-69.16195	0
261	32.5468	41.49717	8.95037	-36.61515	13.01872	25.22377	-8.1367	-7197.72482	100.89508	54.51589	-37.42882	-59.39791	0
262	27.66478	29.29212	0.81367	-29.29212	13.01872	15.45973	-3.25468	-7139.14058	105.7771	66.72094	-22.78276	-44.75185	0
263	15.45973	12.20505	-4.06835	-14.64606	10.57771	5.69569	4.06835	-7073.23331	113.10013	81.367	-5.69569	-34.98781	0
264	5.69569	-5.69569	-11.39138	0	8.1367	-7.32303	6.50936	-7009.76705	120.42316	91.13104	1.62734	-30.10579	0
265	-2.44101	-20.34175	-18.71441	10.57771	8.1367	-19.52808	1.62734	-6973.1519	120.42316	91.13104	1.62734	-34.98781	0
266	-7.32303	-37.42882	-30.91946	20.34175	10.57771	-34.17414	-0.81367	-6978.03392	120.42316	98.45407	4.06835	-37.42882	0
267	0.81367	-42.31084	-43.12451	20.34175	20.34175	-41.49717	-3.25468	-6980.47493	122.86417	100.89508	7.32303	-39.86983	0
268	8.1367	-42.31084	-50.44754	15.45973	27.66478	-46.37919	-3.25468	-6963.38786	130.1872	110.65912	14.64606	-34.98781	0
269	10.57771	-37.42882	-48.00653	13.01872	27.66478	-41.49717	4.06835	-6936.53675	142.39225	117.98215	24.4101	-27.66478	0
270	17.90074	-30.10579	-48.00653	5.69569	32.5468	-39.05616	8.95037	-6919.44968	152.15629	127.74619	34.17414	-22.78276	0
271	30.10579	-15.45973	-45.56552	-7.32303	37.42882	-29.29212	18.71441	-6909.68564	159.47932	144.83326	51.26121	-10.57771	0
272	39.86983	-8.1367	-48.00653	-17.08707	42.31084	-26.85111	23.59643	-6853.54241	166.80235	157.03831	68.34828	2.44101	0
273	39.86983	-13.01872	-52.88855	-14.64606	44.75185	-31.73313	26.03744	-6794.95817	166.80235	157.03831	73.2303	9.76404	0
274	25.22377	-25.22377	-50.44754	0	37.42882	-36.61515	23.59643	-6736.37393	161.92033	154.5973	70.78929	12.20505	0
275	25.22377	-37.42882	-62.65259	5.69569	42.31084	-48.8202	18.71441	-6702.19979	154.5973	147.27427	65.90727	7.32303	0
276	27.66478	-49.63387	-77.29865	10.57771	52.07488	-63.46626	13.83239	-6709.52282	147.27427	144.83326	58.58424	4.88202	0
277	15.45973	-66.72094	-82.18067	25.22377	47.19286	-73.2303	8.95037	-6716.84585	137.51023	132.62821	51.26121	0	0
278	0.81367	-91.13104	-91.94471	44.75185	44.75185	-90.31737	-0.81367	-6719.28686	127.74619	120.42316	39.05616	-7.32303	1500	QRS+0
279	-4.88202	-100.89508	-96.82673	52.07488	44.75185	-100.08141	-10.57771	-6709.52282	117.98215	110.65912	29.29212	-13.01872	0
280	0.81367	-100.89508	-101.70875	49.63387	49.63387	-100.08141	-15.45973	-6702.19979	115.54114	110.65912	29.29212	-17.90074	0
281	10.57771	-93.57205	-104.14976	39.86983	56.9569	-97.6404	-17.90074	-6702.19979	113.10013	113.10013	31.73313	-17.90074	0
282	17.90074	-93.57205	-111.47279	37.42882	64.27993	-102.52242	-22.78276	-6658.26161	110.65912	115.54114	36.61515	-13.01872	0
283	30.10579	-91.13104	-121.23683	30.10579	74.04397	-104.96343	-25.22377	-6602.11838	108.21811	117.98215	39.05616	-10.57771	0
284	39.86983	-91.13104	-131.00087	25.22377	83.80801	-109.84545	-27.66478	-6545.97515	105.7771	115.54114	39.05616	-10.57771	0
285	49.63387	-91.13104	-140.76491	20.34175	93.57205	-114.72747	-25.22377	-6502.03697	110.65912	120.42316	41.49717	-10.57771	0
286	49.63387	-88.69003	-138.3239	17.90074	93.57205	-112.28646	-25.22377	-6502.03697	110.65912	122.86417	41.49717	-10.57771	0
287	44.75185	-88.69003	-133.44188	20.34175	88.69003	-109.84545	-22.78276	-6502.03697	110.65912	120.42316	43.93818	-10.57771	0
288	42.31084	-86.24902	-128.55986	20.34175	83.80801	-107.40444	-20.34175	-6489.83192	110.65912	117.98215	43.93818	-10.57771	0
289	39.86983	-81.367	-121.23683	20.34175	78.92599	-100.08141	-17.90074	-6465.42182	110.65912	115.54114	43.93818	-10.57771	0
290	34.98781	-81.367	-116.35481	22.78276	74.04397	-97.6404	-17.90074	-6453.21677	113.10013	115.54114	46.37919	-10.57771	0
291	34.98781	-86.24902	-121.23683	25.22377	76.48498	-102.52242	-25.22377	-6453.21677	108.21811	115.54114	46.37919	-10.57771	0
292	32.5468	-96.01306	-128.55986	30.10579	78.92599	-112.28646	-30.10579	-6409.27859	103.33609	113.10013	46.37919	-7.32303	0
293	37.42882	-98.45407	-135.88289	30.10579	86.24902	-117.16848	-32.5468	-6353.13536	98.45407	110.65912	46.37919	0	0
294	42.31084	-93.57205	-135.88289	25.22377	88.69003	-114.72747	-32.5468	-6296.99213	98.45407	110.65912	46.37919	2.44101	0
295	47.19286	-96.01306	-143.20592	22.78276	93.57205	-119.60949	-34.98781	-6260.37698	96.01306	108.21811	43.93818	-2.44101	0
296	49.63387	-96.01306	-145.64693	22.78276	96.01306	-119.60949	-37.42882	-6265.259	93.57205	105.7771	39.05616	-7.32303	0
297	49.63387	-96.01306	-145.64693	22.78276	96.01306	-119.60949	-34.98781	-6265.259	93.57205	105.7771	41.49717	-7.32303	0
298	39.86983	-100.89508	-140.76491	30.10579	88.69003	-119.60949	-34.98781	-6253.05395	96.01306	105.7771	41.49717	-7.32303	0
299	39.86983	-93.57205	-133.44188	25.22377	86.24902	-112.28646	-32.5468	-6228.64385	98.45407	105.7771	43.93818	-4.88202	0
300	44.75185	-103.33609	-148.08794	27.66478	96.01306	-124.49151	-32.5468	-6216.4388	98.45407	105.7771	46.37919	-7.32303	0
301	39.86983	-110.65912	-150.52895	34.98781	93.57205	-129.37353	-32.5468	-6211.55678	98.45407	108.21811	51.26121	0	0
302	34.98781	-113.10013	-148.08794	37.42882	91.13104	-129.37353	-32.5468	-6162.73658	100.89508	110.65912	56.14323	7.32303	0
303	30.10579	-117.98215	-148.08794	42.31084	88.69003	-131.81454	-37.42882	-6106.59335	96.01306	108.21811	51.26121	7.32303	0
304	37.42882	-113.10013	-150.52895	37.42882	93.57205	-131.81454	-39.86983	-6050.45012	93.57205	105.7771	46.37919	7.32303	0
305	44.75185	-108.21811	-152.96996	30.10579	98.45407	-129.37353	-42.31084	-6011.39396	91.13104	103.33609	43.93818	2.44101	0
306	47.19286	-100.89508	-148.08794	25.22377	96.01306	-124.49151	-42.31084	-6008.95295	91.13104	103.33609	39.05616	-4.88202	0
307	54.51589	-96.01306	-150.52895	20.34175	100.89508	-122.0505	-44.75185	-6006.51194	91.13104	100.89508	36.61515	-7.32303	0
308	56.9569	-98.45407	-155.41097	20.34175	105.7771	-126.93252	-44.75185	-5991.86588	88.69003	96.01306	34.17414	-10.57771	0
309	56.9569	-98.45407	-155.41097	20.34175	105.7771	-126.93252	-48.00653	-5972.3378	88.69003	93.57205	34.17414	-15.45973	0
310	56.9569	-96.01306	-152.96996	17.90074	103.33609	-124.49151	-48.00653	-5957.69174	88.69003	93.57205	34.17414	-20.34175	0
311	54.51589	-100.89508	-155.41097	22.78276	103.33609	-126.93252	-48.00653	-5952.80972	88.69003	93.57205	36.61515	-20.34175	0
312	47.19286	-105.7771	-152.96996	27.66478	98.45407	-129.37353	-48.00653	-5908.87154	83.80801	93.57205	39.05616	-15.45973	0
313	37.42882	-110.65912	-148.08794	34.98781	91.13104	-129.37353	-50.44754	-5852.72831	83.80801	93.57205	39.05616	-15.45973	0
314	37.42882	-105.7771	-143.20592	32.5468	88.69003	-124.49151	-52.88855	-5799.02609	83.80801	93.57205	36.61515	-15.45973	0
315	47.19286	-103.33609	-150.52895	27.66478	98.45407	-126.93252	-52.88855	-5759.96993	86.24902	96.01306	39.05616	-15.45973	0
316	54.51589	-103.33609	-157.85198	22.78276	105.7771	-129.37353	-50.44754	-5752.6469	93.57205	103.33609	46.37919	-10.57771	0
317	49.63387	-100.89508	-150.52895	25.22377	98.45407	-124.49151	-48.00653	-5752.6469	98.45407	103.33609	48.8202	-7.32303	0
318	42.31084	-108.21811	-150.52895	32.5468	96.01306	-129.37353	-48.00653	-5735.55983	103.33609	108.21811	51.26121	-4.88202	0
319	42.31084	-110.65912	-152.96996	32.5468	96.01306	-131.81454	-48.00653	-5713.59074	108.21811	108.21811	56.14323	-2.44101	0
320	42.31084	-113.10013	-155.41097	34.98781	98.45407	-134.25555	-48.00653	-5698.94468	113.10013	110.65912	61.02525	0	0
321	37.42882	-113.10013	-150.52895	37.42882	93.57205	-131.81454	-48.00653	-5694.06266	115.54114	115.54114	65.90727	2.44101	0
322	30.10579	-113.10013	-143.20592	39.86983	86.24902	-126.93252	-48.00653	-5652.56549	113.10013	115.54114	65.90727	4.88202	0
323	27.66478	-117.98215	-145.64693	44.75185	86.24902	-131.81454	-52.88855	-5598.86327	108.21811	108.21811	63.46626	2.44101	0
324	37.42882	-113.10013	-150.52895	37.42882	93.57205	-131.81454	-52.88855	-5540.27903	105.7771	105.7771	61.02525	2.44101	0
325	42.31084	-103.33609	-145.64693	30.10579	93.57205	-124.49151	-52.88855	-5501.22287	105.7771	103.33609	61.02525	-2.44101	0
326	42.31084	-96.01306	-138.3239	25.22377	88.69003	-117.16848	-48.00653	-5496.34085	105.7771	103.33609	58.58424	-4.88202	0
327	39.86983	-98.45407	-138.3239	27.66478	88.69003	-117.16848	-48.00653	-5501.22287	105.7771	98.45407	53.70222	-10.57771	0
328	37.42882	-100.89508	-138.3239	30.10579	86.24902	-119.60949	-48.00653	-5491.45883	100.89508	91.13104	48.8202	-15.45973	0
329	39.86983	-100.89508	-140.76491	30.10579	88.69003	-119.60949	-52.88855	-5481.69479	98.45407	83.80801	41.49717	-20.34175	0
330	44.75185	-100.89508	-145.64693	27.66478	93.57205	-122.0505	-55.32956	-5474.37176	98.45407	83.80801	41.49717	-25.22377	0
331	52.07488	-105.7771	-157.85198	25.22377	103.33609	-131.81454	-60.21158	-5479.25378	93.57205	81.367	39.05616	-27.66478	0
332	54.51589	-113.10013	-167.61602	27.66478	110.65912	-139.13757	-67.53461	-5445.07964	91.13104	81.367	36.61515	-27.66478	0
333	49.63387	-127.74619	-177.38006	37.42882	113.10013	-151.34262	-69.97562	-5391.37742	88.69003	78.92599	36.61515	-27.66478	0
334	47.19286	-132.62821	-179.82107	42.31084	113.10013	-156.22464	-65.0936	-5327.91116	98.45407	86.24902	43.93818	-20.34175	0
335	44.75185	-135.06922	-179.82107	44.75185	110.65912	-156.22464	-57.77057	-5279.09096	108.21811	93.57205	51.26121	-15.45973	0
336	39.86983	-132.62821	-172.49804	44.75185	105.7771	-151.34262	-50.44754	-5266.88591	117.98215	100.89508	56.14323	-13.01872	0
337	37.42882	-125.30518	-162.734	42.31084	98.45407	-144.01959	-48.00653	-5264.4449	122.86417	103.33609	58.58424	-10.57771	0
338	34.98781	-127.74619	-162.734	44.75185	98.45407	-144.01959	-44.75185	-5247.35783	125.30518	103.33609	61.02525	-7.32303	0
339	34.98781	-122.86417	-157.85198	42.31084	96.01306	-139.13757	-42.31084	-5230.27076	122.86417	100.89508	61.02525	-7.32303	0
340	39.86983	-120.42316	-160.29299	39.86983	98.45407	-139.13757	-42.31084	-5220.50672	120.42316	100.89508	61.02525	-10.57771	0
341	39.86983	-117.98215	-157.85198	37.42882	98.45407	-136.69656	-42.31084	-5218.06571	120.42316	103.33609	65.90727	-4.88202	0
342	22.78276	-125.30518	-148.08794	49.63387	83.80801	-136.69656	-42.31084	-5179.00955	120.42316	105.7771	70.78929	0	0
343	3.25468	-132.62821	-135.88289	64.27993	69.16195	-134.25555	-42.31084	-5125.30733	117.98215	108.21811	75.67131	4.88202	0
344	-9.76404	-127.74619	-118.79582	66.72094	54.51589	-124.49151	-39.86983	-5069.1641	120.42316	110.65912	75.67131	9.76404	0
345	-9.76404	-117.98215	-109.03178	61.83892	49.63387	-114.72747	-34.98781	-5027.66693	127.74619	117.98215	82.99434	12.20505	0
346	-19.52808	-115.54114	-96.82673	66.72094	37.42882	-107.40444	-30.10579	-5017.90289	135.06922	120.42316	82.99434	9.76404	0
347	-31.73313	-115.54114	-84.62168	71.60296	25.22377	-100.08141	-27.66478	-5025.22592	137.51023	117.98215	85.43535	12.20505	0
348	-26.85111	-117.98215	-91.94471	71.60296	32.5468	-104.96343	-27.66478	-5013.02087	137.51023	113.10013	82.99434	9.76404	0
349	-9.76404	-115.54114	-106.59077	61.83892	47.19286	-112.28646	-27.66478	-4998.37481	135.06922	105.7771	78.11232	4.88202	0
350	-2.44101	-117.98215	-116.35481	59.39791	56.9569	-117.16848	-30.10579	-4990.23811	135.06922	103.33609	75.67131	2.44101	0
351	0.81367	-127.74619	-128.55986	61.83892	64.27993	-126.93252	-30.10579	-4990.23811	130.1872	100.89508	75.67131	2.44101	0
352	3.25468	-132.62821	-135.88289	64.27993	69.16195	-134.25555	-30.10579	-4953.62296	127.74619	100.89508	75.67131	4.88202	0
353	13.01872	-127.74619	-140.76491	56.9569	76.48498	-134.25555	-30.10579	-4902.36175	122.86417	98.45407	75.67131	4.88202	0
354	20.34175	-125.30518	-145.64693	52.07488	81.367	-134.25555	-32.5468	-4853.54155	117.98215	93.57205	70.78929	2.44101	0
355	20.34175	-122.86417	-143.20592	49.63387	81.367	-131.81454	-30.10579	-4819.36741	120.42316	93.57205	70.78929	0	0
356	20.34175	-122.86417	-143.20592	49.63387	81.367	-131.81454	-27.66478	-4821.80842	122.86417	93.57205	68.34828	-2.44101	0
357	20.34175	-122.86417	-143.20592	49.63387	81.367	-131.81454	-27.66478	-4834.01347	122.86417	91.13104	68.34828	-7.32303	0
358	25.22377	-115.54114	-140.76491	44.75185	81.367	-126.93252	-27.66478	-4821.80842	120.42316	91.13104	63.46626	-7.32303	0
359	32.5468	-115.54114	-148.08794	39.86983	88.69003	-131.81454	-27.66478	-4807.16236	122.86417	93.57205	68.34828	-7.32303	0
360	37.42882	-120.42316	-157.85198	39.86983	96.01306	-139.13757	-32.5468	-4799.83933	120.42316	88.69003	65.90727	-7.32303	0
361	42.31084	-120.42316	-162.734	37.42882	100.89508	-141.57858	-32.5468	-4802.28034	115.54114	88.69003	63.46626	-7.32303	0
362	44.75185	-122.86417	-167.61602	37.42882	105.7771	-144.01959	-32.5468	-4770.54721	113.10013	86.24902	63.46626	-4.88202	0
363	44.75185	-120.42316	-165.17501	37.42882	103.33609	-141.57858	-32.5468	-4719.286	108.21811	86.24902	65.90727	2.44101	0
364	42.31084	-130.1872	-172.49804	42.31084	105.7771	-151.34262	-34.98781	-4668.02479	108.21811	83.80801	68.34828	7.32303	0
365	37.42882	-135.06922	-172.49804	47.19286	103.33609	-153.78363	-34.98781	-4641.17368	105.7771	81.367	68.34828	4.88202	0
366	27.66478	-142.39225	-170.05703	56.9569	98.45407	-156.22464	-37.42882	-4641.17368	105.7771	76.48498	61.02525	-2.44101	0
367	27.66478	-139.95124	-167.61602	54.51589	96.01306	-153.78363	-34.98781	-4650.93772	105.7771	76.48498	65.90727	-2.44101	0
368	37.42882	-132.62821	-170.05703	47.19286	103.33609	-151.34262	-37.42882	-4641.17368	105.7771	76.48498	65.90727	0	0
369	47.19286	-127.74619	-174.93905	39.86983	110.65912	-151.34262	-37.42882	-4624.08661	105.7771	74.04397	65.90727	-2.44101	0
370	49.63387	-125.30518	-174.93905	37.42882	110.65912	-148.90161	-42.31084	-4619.20459	100.89508	69.16195	58.58424	-10.57771	-1500	QRS-0
371	49.63387	-122.86417	-172.49804	34.98781	110.65912	-146.4606	-48.00653	-4626.52762	91.13104	61.83892	51.26121	-15.45973	0
372	47.19286	-127.74619	-174.93905	39.86983	110.65912	-151.34262	-48.00653	-4592.35348	86.24902	59.39791	51.26121	-15.45973	0
373	47.19286	-130.1872	-177.38006	39.86983	110.65912	-153.78363	-48.00653	-4541.09227	83.80801	56.9569	48.8202	-17.90074	0
374	42.31084	-135.06922	-177.38006	44.75185	108.21811	-156.22464	-50.44754	-4492.27207	81.367	52.07488	43.93818	-20.34175	0
375	32.5468	-144.83326	-177.38006	54.51589	103.33609	-161.10666	-52.88855	-4465.42096	76.48498	47.19286	39.05616	-25.22377	0
376	27.66478	-152.15629	-179.82107	61.83892	103.33609	-165.98868	-55.32956	-4465.42096	76.48498	44.75185	34.17414	-27.66478	0
377	32.5468	-147.27427	-179.82107	56.9569	105.7771	-163.54767	-50.44754	-4475.185	81.367	47.19286	41.49717	-20.34175	0
378	44.75185	-139.95124	-184.70309	47.19286	113.10013	-161.10666	-48.00653	-4460.53894	83.80801	49.63387	46.37919	-10.57771	0
379	54.51589	-130.1872	-184.70309	37.42882	117.98215	-156.22464	-50.44754	-4453.21591	81.367	44.75185	43.93818	-7.32303	0
380	59.39791	-127.74619	-187.1441	32.5468	122.86417	-156.22464	-52.88855	-4448.33389	78.92599	44.75185	43.93818	-4.88202	0
381	64.27993	-122.86417	-187.1441	27.66478	125.30518	-153.78363	-52.88855	-4453.21591	78.92599	42.31084	43.93818	-4.88202	0
382	64.27993	-122.86417	-187.1441	27.66478	125.30518	-153.78363	-55.32956	-4421.48278	74.04397	42.31084	46.37919	0	0
383	61.83892	-130.1872	-192.02612	32.5468	125.30518	-161.10666	-57.77057	-4372.66258	66.72094	37.42882	41.49717	-7.32303	0
384	56.9569	-137.51023	-194.46713	39.86983	125.30518	-165.98868	-60.21158	-4328.7244	59.39791	32.5468	34.17414	-13.01872	0
385	56.9569	-144.83326	-201.79016	42.31084	127.74619	-173.31171	-60.21158	-4304.3143	54.51589	25.22377	31.73313	-17.90074	0
386	54.51589	-157.03831	-211.5542	49.63387	132.62821	-183.07575	-62.65259	-4306.75531	49.63387	21.96909	26.85111	-20.34175	0
387	54.51589	-159.47932	-213.99521	52.07488	132.62821	-185.51676	-65.0936	-4323.84238	47.19286	21.96909	26.85111	-20.34175	0
388	56.9569	-154.5973	-211.5542	47.19286	132.62821	-183.07575	-65.0936	-4311.63733	52.07488	21.96909	34.17414	-10.57771	0
389	56.9569	-149.71528	-206.67218	44.75185	130.1872	-178.19373	-60.21158	-4294.55026	56.9569	32.5468	46.37919	2.44101	0
390	64.27993	-135.06922	-199.34915	34.98781	130.1872	-165.98868	-57.77057	-4284.78622	64.27993	39.86983	56.14323	17.08707	0
391	56.9569	-122.86417	-179.82107	32.5468	117.98215	-151.34262	-52.88855	-4279.9042	69.16195	47.19286	63.46626	26.85111	0
392	54.51589	-113.10013	-167.61602	27.66478	110.65912	-139.13757	-52.88855	-4248.17107	69.16195	49.63387	68.34828	29.29212	0
393	56.9569	-110.65912	-167.61602	25.22377	110.65912	-139.13757	-52.88855	-4199.35087	69.16195	49.63387	68.34828	31.73313	0
394	56.9569	-113.10013	-170.05703	27.66478	113.10013	-141.57858	-55.32956	-4150.53067	64.27993	47.19286	65.90727	29.29212	0
395	61.83892	-105.7771	-167.61602	20.34175	113.10013	-136.69656	-57.77057	-4128.56158	64.27993	42.31084	63.46626	21.96909	0
396	66.72094	-96.01306	-162.734	13.01872	113.10013	-129.37353	-57.77057	-4123.67956	64.27993	39.86983	58.58424	17.08707	0
397	69.16195	-98.45407	-167.61602	13.01872	117.98215	-131.81454	-60.21158	-4143.20764	64.27993	37.42882	56.14323	12.20505	0
398	78.92599	-96.01306	-174.93905	8.1367	125.30518	-134.25555	-60.21158	-4128.56158	66.72094	39.86983	58.58424	14.64606	0
399	76.48498	-91.13104	-167.61602	5.69569	120.42316	-129.37353	-57.77057	-4113.91552	69.16195	39.86983	61.02525	19.52808	0
400	76.48498	-83.80801	-160.29299	3.25468	117.98215	-122.0505	-52.88855	-4101.71047	71.60296	44.75185	65.90727	26.85111	0
401	71.60296	-83.80801	-155.41097	5.69569	113.10013	-119.60949	-48.00653	-4099.26946	74.04397	49.63387	70.78929	31.73313	0
402	66.72094	-88.69003	-155.41097	10.57771	110.65912	-122.0505	-48.00653	-4067.53633	74.04397	52.07488	70.78929	36.61515	0
403	71.60296	-83.80801	-155.41097	5.69569	113.10013	-119.60949	-44.75185	-4021.15714	69.16195	52.07488	70.78929	39.05616	0
404	86.24902	-71.60296	-157.85198	-7.32303	120.42316	-114.72747	-44.75185	-3974.77795	69.16195	52.07488	70.78929	39.05616	0
405	105.7771	-61.83892	-167.61602	-21.96909	135.06922	-114.72747	-44.75185	-3950.36785	71.60296	52.07488	70.78929	36.61515	0
406	115.54114	-59.39791	-174.93905	-29.29212	144.83326	-117.16848	-48.00653	-3947.92684	71.60296	49.63387	68.34828	31.73313	0
407	117.98215	-61.83892	-179.82107	-29.29212	147.27427	-119.60949	-50.44754	-3969.89593	66.72094	44.75185	65.90727	24.4101	0
408	113.10013	-61.83892	-174.93905	-26.85111	142.39225	-117.16848	-50.44754	-3955.24987	66.72094	47.19286	70.78929	34.17414	0
409	100.89508	-71.60296	-172.49804	-14.64606	135.06922	-122.0505	-48.00653	-3938.1628	74.04397	52.07488	80.55333	48.8202	0
410	78.92599	-78.92599	-157.85198	0	117.98215	-117.16848	-42.31084	-3921.07573	81.367	64.27993	95.19939	68.34828	0
411	49.63387	-83.80801	-133.44188	15.45973	91.13104	-107.40444	-37.42882	-3916.19371	91.13104	76.48498	109.84545	87.87636	0
412	25.22377	-81.367	-106.59077	27.66478	64.27993	-92.75838	-32.5468	-3884.46058	98.45407	91.13104	126.93252	107.40444	0
413	15.45973	-69.16195	-84.62168	25.22377	49.63387	-75.67131	-30.10579	-3830.75836	105.7771	100.89508	136.69656	122.0505	0
414	15.45973	-56.9569	-72.41663	20.34175	42.31084	-63.46626	-30.10579	-3786.82018	108.21811	105.7771	139.13757	124.49151	0
415	17.90074	-49.63387	-67.53461	15.45973	42.31084	-58.58424	-39.86983	-3772.17412	105.7771	100.89508	134.25555	117.16848	0
416	27.66478	-42.31084	-69.97562	5.69569	47.19286	-56.14323	-48.00653	-3781.93816	100.89508	93.57205	122.0505	100.08141	0
417	42.31084	-37.42882	-79.73966	-2.44101	59.39791	-58.58424	-60.21158	-3811.23028	93.57205	83.80801	109.84545	85.43535	0
418	64.27993	-27.66478	-91.94471	-19.52808	76.48498	-58.58424	-67.53461	-3808.78927	83.80801	74.04397	102.52242	75.67131	0
419	83.80801	-17.90074	-101.70875	-34.17414	91.13104	-58.58424	-74.85764	-3806.34826	76.48498	66.72094	97.6404	73.2303	0
420	98.45407	-15.45973	-113.9138	-41.49717	105.7771	-63.46626	-77.29865	-3803.90725	69.16195	59.39791	95.19939	73.2303	0
421	110.65912	-10.57771	-121.23683	-51.26121	115.54114	-65.90727	-79.73966	-3808.78927	64.27993	59.39791	95.19939	78.11232	0
422	110.65912	-10.57771	-121.23683	-51.26121	115.54114	-65.90727	-79.73966	-3784.37917	61.83892	61.83892	97.6404	80.55333	0
423	110.65912	-10.57771	-121.23683	-51.26121	115.54114	-65.90727	-82.18067	-3742.882	54.51589	59.39791	97.6404	78.11232	0
424	96.01306	-20.34175	-116.35481	-39.05616	105.7771	-68.34828	-84.62168	-3706.26685	49.63387	54.51589	92.75838	75.67131	0
425	83.80801	-30.10579	-113.9138	-26.85111	98.45407	-70.78929	-89.5037	-3691.62079	43.93818	47.19286	87.87636	73.2303	0
426	78.92599	-37.42882	-116.35481	-21.96909	96.01306	-75.67131	-94.38572	-3696.50281	43.93818	42.31084	80.55333	65.90727	0
427	74.04397	-37.42882	-111.47279	-19.52808	91.13104	-73.2303	-101.70875	-3725.79493	39.05616	37.42882	75.67131	58.58424	0
428	71.60296	-37.42882	-109.03178	-17.08707	88.69003	-73.2303	-106.59077	-3720.91291	34.17414	30.10579	70.78929	56.14323	0
429	64.27993	-39.86983	-104.14976	-12.20505	83.80801	-70.78929	-109.03178	-3716.03089	26.85111	21.96909	65.90727	56.14323	0
430	66.72094	-44.75185	-111.47279	-12.20505	88.69003	-78.11232	-111.47279	-3713.58988	21.96909	19.52808	61.02525	56.14323	0
431	71.60296	-49.63387	-121.23683	-12.20505	96.01306	-85.43535	-111.47279	-3713.58988	21.96909	19.52808	61.02525	56.14323	0
432	69.16195	-59.39791	-128.55986	-4.88202	98.45407	-92.75838	-111.47279	-3689.17978	17.08707	19.52808	61.02525	53.70222	0
433	64.27993	-66.72094	-131.00087	0	96.01306	-97.6404	-111.47279	-3642.80059	14.64606	17.08707	58.58424	51.26121	0
434	61.83892	-74.04397	-135.88289	5.69569	98.45407	-104.96343	-111.47279	-3601.30342	9.76404	14.64606	51.26121	46.37919	0
435	59.39791	-76.48498	-135.88289	8.1367	96.01306	-104.96343	-111.47279	-3584.21635	9.76404	12.20505	51.26121	43.93818	0
436	54.51589	-83.80801	-138.3239	13.01872	96.01306	-109.84545	-109.03178	-3579.33433	14.64606	9.76404	48.8202	39.05616	0
437	54.51589	-81.367	-135.88289	13.01872	93.57205	-107.40444	-109.03178	-3598.86241	14.64606	7.32303	48.8202	34.17414	0
438	52.07488	-81.367	-133.44188	13.01872	91.13104	-107.40444	-109.03178	-3589.09837	9.76404	2.44101	43.93818	34.17414	0
439	44.75185	-83.80801	-128.55986	17.90074	86.24902	-104.96343	-106.59077	-3576.89332	4.88202	0	43.93818	34.17414	0
440	47.19286	-83.80801	-131.00087	17.90074	88.69003	-107.40444	-101.70875	-3564.68827	4.88202	0	43.93818	34.17414	0
441	56.9569	-88.69003	-145.64693	15.45973	100.89508	-117.16848	-96.82673	-3559.80625	4.88202	0	43.93818	34.17414	0
442	69.16195	-91.13104	-160.29299	10.57771	113.10013	-124.49151	-89.5037	-3530.51413	4.88202	2.44101	46.37919	34.17414	0
443	69.16195	-91.13104	-160.29299	10.57771	113.10013	-124.49151	-87.06269	-3486.57595	-2.44101	0	41.49717	29.29212	0
444	61.83892	-98.45407	-160.29299	17.90074	110.65912	-129.37353	-87.06269	-3447.51979	-7.32303	-7.32303	31.73313	21.96909	0
445	56.9569	-113.10013	-170.05703	27.66478	113.10013	-141.57858	-89.5037	-3437.75575	-14.64606	-19.52808	19.52808	7.32303	0
446	54.51589	-127.74619	-182.26208	34.98781	117.98215	-153.78363	-94.38572	-3445.07878	-21.96909	-29.29212	7.32303	-4.88202	0
447	49.63387	-130.1872	-179.82107	39.86983	113.10013	-153.78363	-99.26774	-1018.71484	-31.73313	-39.05616	-3.25468	-17.90074	0
448	39.86983	-130.1872	-170.05703	44.75185	103.33609	-148.90161	-99.26774	-1013.83282	-39.05616	-48.8202	-10.57771	-22.78276	0
449	30.10579	-127.74619	-157.85198	47.19286	93.57205	-141.57858	-99.26774	-1004.06878	-43.93818	-51.26121	-10.57771	-20.34175	0
450	20.34175	-130.1872	-150.52895	54.51589	83.80801	-139.13757	-94.38572	-991.86373	-41.49717	-48.8202	-3.25468	-13.01872	0
451	20.34175	-125.30518	-145.64693	52.07488	81.367	-134.25555	-82.18067	-982.09969	-29.29212	-34.17414	7.32303	-2.44101	0
452	20.34175	-117.98215	-138.3239	47.19286	78.92599	-126.93252	-69.97562	-945.48454	-19.52808	-19.52808	19.52808	14.64606	0
453	15.45973	-108.21811	-123.67784	44.75185	69.16195	-114.72747	-52.88855	-2117.16934	-7.32303	-4.88202	34.17414	29.29212	0
454	10.57771	-108.21811	-118.79582	47.19286	64.27993	-112.28646	-39.86983	-3296.17717	2.44101	4.88202	41.49717	39.05616	0
455	5.69569	-115.54114	-121.23683	54.51589	61.83892	-117.16848	-34.98781	-3279.0901	4.88202	2.44101	41.49717	39.05616	0
456	5.69569	-117.98215	-123.67784	54.51589	64.27993	-119.60949	-32.5468	-3281.53111	4.88202	0	34.17414	29.29212	0
457	5.69569	-117.98215	-123.67784	54.51589	64.27993	-119.60949	-37.42882	-3313.26424	-2.44101	-9.76404	24.4101	19.52808	0
458	5.69569	-115.54114	-121.23683	54.51589	61.83892	-117.16848	-39.86983	-3310.82323	-12.20505	-21.96909	17.08707	14.64606	0
459	-2.44101	-117.98215	-116.35481	59.39791	56.9569	-117.16848	-48.00653	-3310.82323	-24.4101	-31.73313	7.32303	9.76404	0
460	-7.32303	-125.30518	-118.79582	64.27993	54.51589	-122.0505	-52.88855	-3313.26424	-36.61515	-43.93818	1.62734	7.32303	0
461	-7.32303	-130.1872	-123.67784	66.72094	56.9569	-126.93252	-52.88855	-3315.70525	-39.05616	-43.93818	-0.81367	7.32303	0
462	-7.32303	-125.30518	-118.79582	64.27993	54.51589	-122.0505	-48.00653	-3293.73616	-36.61515	-39.05616	4.06835	14.64606	0
463	-7.32303	-130.1872	-123.67784	66.72094	56.9569	-126.93252	-37.42882	-3252.23899	-31.73313	-31.73313	14.64606	24.4101	0
464	-9.76404	-137.51023	-128.55986	71.60296	59.39791	-134.25555	-30.10579	-3210.74182	-24.4101	-24.4101	17.08707	26.85111	0
465	-4.88202	-137.51023	-133.44188	69.16195	64.27993	-136.69656	-20.34175	-3191.21374	-14.64606	-19.52808	21.96909	29.29212	0
466	-7.32303	-144.83326	-138.3239	74.04397	64.27993	-141.57858	-15.45973	-3186.33172	-9.76404	-19.52808	21.96909	26.85111	0
467	-7.32303	-144.83326	-138.3239	74.04397	64.27993	-141.57858	-13.01872	-3208.30081	-4.88202	-17.08707	21.96909	24.4101	0
468	-4.88202	-139.95124	-135.88289	71.60296	64.27993	-139.13757	-8.1367	-3193.65475	-4.88202	-17.08707	19.52808	26.85111	0
469	0.81367	-130.1872	-131.00087	64.27993	64.27993	-129.37353	-8.1367	-3179.00869	-7.32303	-19.52808	17.08707	26.85111	0
470	8.1367	-120.42316	-128.55986	54.51589	66.72094	-124.49151	-8.1367	-3169.24465	-12.20505	-24.4101	14.64606	26.85111	0
471	3.25468	-122.86417	-126.11885	59.39791	64.27993	-124.49151	-8.1367	-3171.68566	-19.52808	-26.85111	7.32303	21.96909	0
472	-2.44101	-122.86417	-121.23683	61.83892	59.39791	-122.0505	-8.1367	-3152.15758	-24.4101	-26.85111	7.32303	21.96909	0
473	5.69569	-117.98215	-123.67784	54.51589	64.27993	-119.60949	-3.25468	-3110.66041	-26.85111	-24.4101	9.76404	24.4101	0
474	10.57771	-117.98215	-128.55986	52.07488	69.16195	-122.0505	-0.81367	-3078.92728	-29.29212	-26.85111	7.32303	21.96909	0
475	-2.44101	-130.1872	-128.55986	64.27993	61.83892	-129.37353	-3.25468	-3071.60425	-31.73313	-34.17414	1.62734	14.64606	0
476	-17.08707	-139.95124	-123.67784	76.48498	52.07488	-131.81454	-3.25468	-3074.04526	-34.17414	-41.49717	-8.1367	4.88202	0
477	-21.96909	-142.39225	-121.23683	81.367	49.63387	-131.81454	-3.25468	-3096.01435	-34.17414	-41.49717	-10.57771	0	0
478	-19.52808	-132.62821	-113.9138	74.04397	47.19286	-124.49151	-0.81367	-3081.36829	-31.73313	-41.49717	-5.69569	4.88202	0
479	-19.52808	-132.62821	-113.9138	74.04397	47.19286	-124.49151	-0.81367	-3061.84021	-26.85111	-36.61515	-3.25468	9.76404	0
480	-19.52808	-125.30518	-106.59077	71.60296	42.31084	-117.16848	-0.81367	-3044.75314	-17.08707	-26.85111	7.32303	19.52808	0
481	-19.52808	-122.86417	-104.14976	69.16195	42.31084	-114.72747	-0.81367	-3030.10708	-2.44101	-4.88202	24.4101	31.73313	0
482	-9.76404	-120.42316	-111.47279	64.27993	49.63387	-117.16848	-5.69569	-2995.93294	17.08707	25.22377	53.70222	53.70222	0
483	3.25468	-113.10013	-116.35481	54.51589	59.39791	-114.72747	-10.57771	-2949.55375	43.93818	64.27993	92.75838	82.99434	0
484	13.01872	-100.89508	-113.9138	42.31084	61.83892	-107.40444	-15.45973	-2898.29254	88.69003	117.98215	146.4606	124.49151	0
485	22.78276	-83.80801	-106.59077	30.10579	64.27993	-95.19939	-27.66478	-2871.44143	139.95124	186.33043	219.6909	178.19373	0
486	37.42882	-66.72094	-104.14976	13.01872	69.16195	-85.43535	-42.31084	-2856.79537	200.97649	269.32477	307.56726	246.54201	0
487	56.9569	-47.19286	-104.14976	-4.88202	78.92599	-75.67131	-65.0936	-2876.32345	259.56073	362.08315	414.9717	334.41837	0
488	93.57205	-15.45973	-109.03178	-39.05616	100.89508	-61.02525	-87.06269	-2864.1184	323.02699	471.9286	544.34523	449.14584	0
489	144.83326	21.96909	-123.67784	-82.99434	135.06922	-51.26121	-116.35481	-2851.91335	386.49325	589.09708	688.36482	578.51937	0
490	200.97649	61.02525	-140.76491	-131.81454	171.68437	-39.05616	-152.96996	-1626.52633	435.31345	701.38354	837.26643	717.65694	0
491	259.56073	95.19939	-165.17501	-178.19373	213.18154	-34.17414	-194.46713	807.97431	474.36961	808.78798	983.72703	851.91249	0
492	313.26295	126.93252	-187.1441	-219.6909	249.79669	-29.29212	-238.40531	3253.05266	501.22072	903.98737	1122.8646	983.72703	0
493	362.08315	163.54767	-199.34915	-263.62908	281.52982	-17.08707	-284.7845	5704.64037	508.54375	969.89464	1225.38702	1091.13147	0
494	393.81628	197.72181	-196.90814	-295.36221	296.17588	0	-328.72268	8135.88633	479.25163	977.21767	1269.3252	1149.71571	0
495	398.6983	224.57292	-174.93905	-312.44928	286.41184	25.22377	-370.21985	10526.44879	406.02133	913.75141	1232.71005	1147.2747	0
496	376.72921	246.54201	-131.00087	-312.44928	254.67871	59.39791	-406.835	12886.90546	276.6478	769.73182	1100.89551	1066.72137	0
497	335.23204	261.18807	-74.85764	-297.80322	205.85851	93.57205	-433.68611	12747.76789	88.69003	535.39486	866.55855	905.61471	0
498	271.76578	263.62908	-8.95037	-268.5111	139.95124	127.74619	-455.6552	12613.51234	-158.66565	222.94558	546.78624	678.60078	0
499	193.65346	246.54201	52.88855	-219.6909	71.60296	149.71528	-470.30126	12467.05174	-451.58685	-141.57858	175.75272	402.76665	0
500	105.7771	217.24989	111.47279	-161.10666	-2.44101	164.36134	-484.94732	12325.47316	-744.50805	-505.28907	-191.21245	124.49151	0
501	59.39791	192.83979	133.44188	-126.93252	-36.61515	164.36134	-489.82934	12259.56589	-883.64562	-676.15977	-364.52416	-10.57771	0
502	-24.4101	134.25555	157.85198	-56.14323	-90.31737	144.83326	-499.59338	12154.60246	-1130.18763	-971.52198	-674.53243	-257.11972	0
503	-95.19939	68.34828	162.734	13.01872	-129.37353	115.54114	-502.03439	12074.04913	-1323.02742	-1200.97692	-913.75141	-464.60557	0
504	-153.78363	-8.1367	145.64693	78.92599	-151.34262	69.16195	-499.59338	12059.40307	-1440.1959	-1340.11449	-1062.65302	-608.62516	0
505	-195.2808	-86.24902	109.03178	139.95124	-153.78363	10.57771	-492.27035	12042.316	-1489.0161	-1398.69873	-1135.88332	-694.06051	0
506	-222.13191	-154.5973	67.53461	186.33043	-146.4606	-43.93818	-477.62429	12059.40307	-1474.37004	-1393.81671	-1145.64736	-735.55768	0
507	-229.45494	-208.29952	21.15542	218.06356	-126.93252	-95.19939	-460.53722	12081.37216	-1420.66782	-1347.43752	-1123.67827	-750.20374	0
508	-222.13191	-240.03265	-18.71441	230.26861	-102.52242	-129.37353	-443.45015	12127.75135	-1344.99651	-1276.64823	-1074.85807	-737.99869	0
509	-214.80888	-259.56073	-45.56552	235.15063	-85.43535	-153.78363	-426.36308	12193.65862	-1254.67914	-1193.65389	-1008.9508	-703.82455	0
510	-212.36787	-266.88376	-55.32956	237.59164	-80.55333	-161.10666	-401.95298	12296.18104	-1154.59773	-1098.4545	-928.39747	-650.12233	0
511	-207.48585	-259.56073	-52.88855	232.70962	-78.11232	-156.22464	-375.10187	12406.02649	-1047.19329	-993.49107	-835.63909	-584.21506	0
512	-192.83979	-240.03265	-48.00653	215.62255	-73.2303	-144.01959	-348.25076	12530.518	-932.46582	-881.20461	-740.4397	-513.42577	0
513	-183.07575	-213.18154	-30.91946	196.09447	-78.11232	-122.0505	-314.07662	12655.00951	-822.62037	-773.80017	-645.24031	-442.63648	0
514	-178.19373	-183.88942	-6.50936	179.0074	-87.87636	-95.19939	-272.57945	12806.35213	-715.21593	-671.27775	-557.36395	-376.72921	0
515	-178.19373	-157.03831	21.15542	166.80235	-100.08141	-68.34828	-226.20026	12913.75657	-610.2525	-576.07836	-474.36961	-315.70396	0
516	-178.19373	-132.62821	45.56552	154.5973	-112.28646	-43.93818	-179.82107	13008.95596	-515.05311	-490.64301	-403.58032	-264.44275	0
517	-170.8707	-103.33609	67.53461	135.06922	-119.60949	-19.52808	-140.76491	13074.86323	-434.49978	-417.41271	-342.55507	-225.38659	0
518	-161.10666	-78.92599	82.18067	117.98215	-122.0505	0	-106.59077	13138.32949	-373.47453	-361.26948	-293.73487	-188.77144	0
519	-153.78363	-61.83892	91.94471	105.7771	-124.49151	15.45973	-77.29865	13199.35474	-319.77231	-310.00827	-252.2377	-157.03831	0
520	-153.78363	-49.63387	104.14976	100.89508	-129.37353	27.66478	-50.44754	13272.58504	-270.95211	-263.62908	-213.18154	-130.1872	0
521	-151.34262	-44.75185	106.59077	96.01306	-129.37353	30.10579	-32.5468	10873.07221	-229.45494	-224.57292	-181.44841	-105.7771	0
522	-139.13757	-32.5468	106.59077	83.80801	-124.49151	37.42882	-17.90074	8480.06874	-195.2808	-190.39878	-152.15629	-86.24902	0
523	-129.37353	-17.90074	111.47279	71.60296	-122.0505	47.19286	-10.57771	6068.35086	-170.8707	-163.54767	-127.74619	-66.72094	0
524	-126.93252	-10.57771	116.35481	66.72094	-122.0505	52.07488	-0.81367	3682.67042	-144.01959	-136.69656	-108.21811	-49.63387	0
525	-126.93252	-3.25468	123.67784	64.27993	-126.93252	59.39791	8.95037	1254.67914	-117.16848	-114.72747	-86.24902	-37.42882	0
526	-124.49151	-0.81367	123.67784	61.83892	-124.49151	61.83892	11.39138	-1182.26251	-95.19939	-95.19939	-71.60296	-27.66478	0
527	-112.28646	4.88202	116.35481	52.07488	-114.72747	59.39791	11.39138	-2417.41357	-75.67131	-82.99434	-61.83892	-20.34175	0
528	-107.40444	14.64606	121.23683	44.75185	-114.72747	66.72094	11.39138	-2417.41357	-68.34828	-75.67131	-52.07488	-17.90074	0
529	-109.84545	9.76404	118.79582	49.63387	-114.72747	64.27993	8.95037	-2405.20852	-58.58424	-65.90727	-44.75185	-10.57771	0
530	-107.40444	4.88202	111.47279	49.63387	-109.84545	56.9569	11.39138	-2373.47539	-46.37919	-56.14323	-34.98781	0	0
531	-100.08141	12.20505	111.47279	42.31084	-104.96343	61.83892	13.83239	-2349.06529	-39.05616	-48.8202	-25.22377	7.32303	0
532	-92.75838	24.4101	116.35481	32.5468	-104.96343	69.16195	11.39138	-2322.21418	-36.61515	-43.93818	-22.78276	7.32303	0
533	-92.75838	36.61515	128.55986	27.66478	-109.84545	81.367	11.39138	-2297.80408	-39.05616	-41.49717	-20.34175	7.32303	0
534	-95.19939	43.93818	138.3239	25.22377	-117.16848	91.13104	11.39138	-2246.54287	-39.05616	-36.61515	-20.34175	7.32303	0
535	-87.87636	53.70222	140.76491	15.45973	-114.72747	96.01306	13.83239	-2231.89681	-31.73313	-31.73313	-15.45973	4.88202	0
536	-80.55333	65.90727	145.64693	5.69569	-112.28646	105.7771	16.2734	-2224.57378	-26.85111	-29.29212	-13.01872	4.88202	0
537	-85.43535	65.90727	150.52895	8.1367	-117.16848	108.21811	18.71441	-2231.89681	-21.96909	-26.85111	-10.57771	4.88202	0
538	-95.19939	48.8202	143.20592	22.78276	-119.60949	96.01306	21.15542	-2229.4558	-21.96909	-24.4101	-5.69569	9.76404	0
539	-100.08141	43.93818	143.20592	27.66478	-122.0505	93.57205	26.03744	-2214.80974	-19.52808	-21.96909	-0.81367	17.08707	0
540	-90.31737	41.49717	131.00087	22.78276	-109.84545	86.24902	33.36047	-2183.07661	-17.08707	-17.08707	7.32303	26.85111	0
541	-82.99434	39.05616	121.23683	20.34175	-102.52242	78.92599	35.80148	-2156.2255	-17.08707	-14.64606	12.20505	36.61515	0
542	-82.99434	39.05616	121.23683	20.34175	-102.52242	78.92599	35.80148	-2126.93338	-19.52808	-14.64606	12.20505	36.61515	0
543	-82.99434	41.49717	123.67784	20.34175	-102.52242	81.367	30.91946	-2107.4053	-24.4101	-14.64606	12.20505	34.17414	0
544	-75.67131	56.14323	131.00087	8.1367	-102.52242	93.57205	30.91946	-2058.5851	-26.85111	-14.64606	12.20505	34.17414	0
545	-65.90727	78.11232	143.20592	-7.32303	-104.96343	110.65912	28.47845	-2053.70308	-24.4101	-12.20505	12.20505	31.73313	0
546	-75.67131	85.43535	160.29299	-4.88202	-117.16848	122.86417	21.15542	-2051.26207	-24.4101	-17.08707	7.32303	26.85111	0
547	-82.99434	85.43535	167.61602	-2.44101	-124.49151	125.30518	11.39138	-2065.90813	-24.4101	-17.08707	4.06835	21.96909	0
548	-90.31737	90.31737	179.82107	0	-134.25555	135.06922	6.50936	-2068.34914	-24.4101	-17.08707	4.06835	21.96909	0
549	-92.75838	95.19939	187.1441	-2.44101	-139.13757	139.95124	6.50936	-2063.46712	-24.4101	-17.08707	4.06835	26.85111	0
550	-90.31737	97.6404	187.1441	-4.88202	-139.13757	142.39225	-0.81367	-2046.38005	-29.29212	-21.96909	4.06835	26.85111	0
551	-92.75838	92.75838	184.70309	0	-139.13757	137.51023	-5.69569	-2029.29298	-36.61515	-26.85111	1.62734	26.85111	0
552	-90.31737	92.75838	182.26208	-2.44101	-136.69656	137.51023	-5.69569	-2000.00086	-36.61515	-24.4101	1.62734	26.85111	0
553	-87.87636	95.19939	182.26208	-4.88202	-134.25555	137.51023	-3.25468	-1978.03177	-39.05616	-24.4101	4.06835	26.85111	0
554	-87.87636	90.31737	177.38006	-2.44101	-131.81454	132.62821	-3.25468	-1931.65258	-39.05616	-26.85111	4.06835	26.85111	0
555	-90.31737	85.43535	174.93905	0	-131.81454	130.1872	-10.57771	-1929.21157	-43.93818	-31.73313	-0.81367	19.52808	0
556	-87.87636	87.87636	174.93905	0	-131.81454	130.1872	-13.01872	-1926.77056	-43.93818	-36.61515	-5.69569	14.64606	0
557	-82.99434	95.19939	177.38006	-7.32303	-129.37353	135.06922	-13.01872	-1934.09359	-36.61515	-34.17414	-3.25468	14.64606	0
558	-82.99434	97.6404	179.82107	-7.32303	-131.81454	137.51023	-15.45973	-1938.97561	-36.61515	-34.17414	-0.81367	14.64606	0
559	-78.11232	104.96343	182.26208	-14.64606	-129.37353	142.39225	-17.90074	-1934.09359	-36.61515	-34.17414	-0.81367	19.52808	0
560	-78.11232	114.72747	192.02612	-19.52808	-134.25555	152.15629	-17.90074	-1917.00652	-36.61515	-31.73313	4.06835	26.85111	0
561	-78.11232	122.0505	199.34915	-21.96909	-139.13757	159.47932	-15.45973	-1897.47844	-29.29212	-26.85111	7.32303	34.17414	0
562	-78.11232	124.49151	201.79016	-24.4101	-139.13757	161.92033	-10.57771	-1868.18632	-21.96909	-17.08707	14.64606	41.49717	0
563	-78.11232	126.93252	204.23117	-24.4101	-141.57858	164.36134	-13.01872	-1846.21723	-21.96909	-14.64606	19.52808	46.37919	0
564	-87.87636	126.93252	213.99521	-19.52808	-151.34262	169.24336	-15.45973	-1804.72006	-24.4101	-14.64606	19.52808	46.37919	0
565	-90.31737	129.37353	218.87723	-19.52808	-153.78363	174.12538	-17.90074	-1802.27905	-21.96909	-17.08707	17.08707	43.93818	0
566	-90.31737	134.25555	223.75925	-21.96909	-156.22464	179.0074	-20.34175	-1802.27905	-21.96909	-17.08707	14.64606	36.61515	0
567	-90.31737	134.25555	223.75925	-21.96909	-156.22464	179.0074	-25.22377	-1814.4841	-21.96909	-19.52808	9.76404	31.73313	0
568	-92.75838	131.81454	223.75925	-19.52808	-158.66565	176.56639	-32.5468	-1821.80713	-26.85111	-24.4101	7.32303	26.85111	0
569	-97.6404	131.81454	228.64127	-17.08707	-163.54767	179.0074	-37.42882	-1819.36612	-29.29212	-26.85111	4.06835	26.85111	0
570	-97.6404	131.81454	228.64127	-17.08707	-163.54767	179.0074	-37.42882	-1804.72006	-31.73313	-29.29212	4.06835	31.73313	0
571	-100.08141	126.93252	226.20026	-14.64606	-163.54767	176.56639	-39.86983	-1790.074	-34.17414	-31.73313	4.06835	29.29212	0
572	-104.96343	124.49151	228.64127	-9.76404	-165.98868	176.56639	-44.75185	-1765.6639	-39.05616	-34.17414	1.62734	29.29212	0
573	-104.96343	126.93252	231.08228	-12.20505	-168.42969	179.0074	-48.00653	-1746.13582	-41.49717	-34.17414	1.62734	29.29212	0
574	-95.19939	139.13757	233.52329	-21.96909	-163.54767	186.33043	-48.00653	-1707.07966	-43.93818	-39.05616	1.62734	31.73313	0
575	-92.75838	146.4606	238.40531	-26.85111	-165.98868	191.21245	-50.44754	-1702.19764	-43.93818	-41.49717	-0.81367	31.73313	0
576	-87.87636	156.22464	243.28733	-34.17414	-165.98868	198.53548	-52.88855	-1699.75663	-41.49717	-41.49717	1.62734	31.73313	0
577	-80.55333	170.8707	250.61036	-46.37919	-165.98868	210.74053	-50.44754	-1704.63865	-34.17414	-36.61515	4.06835	36.61515	0
578	-68.34828	187.95777	255.49238	-61.02525	-161.10666	220.50457	-48.00653	-1704.63865	-31.73313	-34.17414	12.20505	43.93818	0
579	-65.90727	200.16282	265.25642	-68.34828	-165.98868	232.70962	-48.00653	-1697.31562	-34.17414	-31.73313	12.20505	51.26121	0
580	-73.2303	207.48585	279.90248	-68.34828	-175.75272	242.47366	-48.00653	-1682.66956	-36.61515	-34.17414	14.64606	56.14323	0
581	-82.99434	207.48585	289.66652	-63.46626	-185.51676	247.35568	-50.44754	-1663.14148	-36.61515	-34.17414	14.64606	56.14323	0
582	-92.75838	202.60383	294.54854	-56.14323	-192.83979	247.35568	-55.32956	-1643.6134	-43.93818	-36.61515	12.20505	53.70222	0
583	-102.52242	190.39878	292.10753	-43.93818	-197.72181	240.03265	-62.65259	-1636.29037	-51.26121	-43.93818	4.06835	48.8202	0
584	-109.84545	185.51676	294.54854	-39.05616	-202.60383	240.03265	-72.41663	-1606.99825	-58.58424	-51.26121	-3.25468	41.49717	0
585	-114.72747	175.75272	289.66652	-31.73313	-202.60383	232.70962	-82.18067	-1616.76229	-63.46626	-58.58424	-10.57771	31.73313	0
586	-112.28646	175.75272	287.22551	-31.73313	-200.16282	230.26861	-89.5037	-1624.08532	-65.90727	-63.46626	-17.90074	21.96909	0
587	-104.96343	180.63474	284.7845	-39.05616	-195.2808	232.70962	-91.94471	-1636.29037	-63.46626	-63.46626	-20.34175	19.52808	0
588	-95.19939	190.39878	284.7845	-48.8202	-190.39878	237.59164	-91.94471	-1638.73138	-63.46626	-63.46626	-15.45973	19.52808	0
589	-90.31737	205.04484	294.54854	-58.58424	-192.83979	249.79669	-94.38572	-1633.84936	-63.46626	-63.46626	-15.45973	19.52808	0
590	-90.31737	214.80888	304.31258	-63.46626	-197.72181	259.56073	-99.26774	-1621.64431	-68.34828	-68.34828	-17.90074	19.52808	0
591	-85.43535	222.13191	306.75359	-68.34828	-195.2808	264.44275	-104.14976	-1604.55724	-73.2303	-70.78929	-17.90074	17.08707	0
592	-82.99434	219.6909	301.87157	-68.34828	-192.83979	259.56073	-106.59077	-1577.70613	-75.67131	-70.78929	-17.90074	17.08707	0
593	-85.43535	217.24989	301.87157	-65.90727	-192.83979	259.56073	-111.47279	-1563.06007	-78.11232	-70.78929	-15.45973	17.08707	0
594	-80.55333	222.13191	301.87157	-70.78929	-190.39878	262.00174	-113.9138	-1528.88593	-80.55333	-68.34828	-13.01872	19.52808	0
595	-87.87636	224.57292	311.63561	-68.34828	-200.16282	266.88376	-113.9138	-1528.88593	-78.11232	-68.34828	-10.57771	19.52808	0
596	-92.75838	236.77797	328.72268	-73.2303	-209.92686	281.52982	-111.47279	-1526.44492	-73.2303	-65.90727	-8.1367	19.52808	0
597	-95.19939	239.21898	333.6047	-73.2303	-214.80888	286.41184	-111.47279	-1533.76795	-68.34828	-63.46626	-8.1367	21.96909	0
598	-107.40444	241.65999	348.25076	-68.34828	-227.01393	293.73487	-111.47279	-1533.76795	-68.34828	-63.46626	-8.1367	24.4101	0
599	-114.72747	241.65999	355.57379	-63.46626	-234.33696	298.61689	-109.03178	-1524.00391	-68.34828	-63.46626	-8.1367	26.85111	0
600	-126.93252	236.77797	362.89682	-56.14323	-244.101	298.61689	-109.03178	-1506.91684	-70.78929	-63.46626	-8.1367	31.73313	0
601	-136.69656	236.77797	372.66086	-51.26121	-253.86504	303.49891	-113.9138	-1489.82977	-75.67131	-68.34828	-10.57771	31.73313	0
602	-131.81454	239.21898	370.21985	-53.70222	-251.42403	303.49891	-113.9138	-1465.41967	-80.55333	-70.78929	-15.45973	29.29212	0
603	-126.93252	239.21898	365.33783	-56.14323	-246.54201	301.0579	-113.9138	-1450.77361	-80.55333	-70.78929	-13.01872	31.73313	0
604	-126.93252	236.77797	362.89682	-56.14323	-244.101	298.61689	-113.9138	-1421.48149	-82.99434	-73.2303	-17.90074	31.73313	0
605	-119.60949	241.65999	360.45581	-61.02525	-239.21898	301.0579	-118.79582	-1428.80452	-85.43535	-78.11232	-22.78276	24.4101	0
606	-109.84545	251.42403	360.45581	-70.78929	-234.33696	305.93992	-123.67784	-1436.12755	-85.43535	-85.43535	-30.10579	17.08707	0
607	-109.84545	258.74706	367.77884	-75.67131	-239.21898	313.26295	-126.11885	-1448.3326	-82.99434	-87.87636	-34.98781	14.64606	0
608	-107.40444	263.62908	370.21985	-78.11232	-239.21898	315.70396	-128.55986	-1455.65563	-85.43535	-92.75838	-37.42882	12.20505	0
609	-114.72747	263.62908	377.54288	-75.67131	-246.54201	320.58598	-128.55986	-1443.45058	-85.43535	-92.75838	-37.42882	17.08707	0
610	-112.28646	273.39312	384.86591	-80.55333	-248.98302	327.90901	-128.55986	-1428.80452	-85.43535	-92.75838	-37.42882	17.08707	0
611	-109.84545	285.59817	394.62995	-87.87636	-251.42403	340.11406	-128.55986	-1406.83543	-82.99434	-92.75838	-37.42882	19.52808	0
612	-112.28646	290.48019	401.95298	-90.31737	-256.30605	344.99608	-123.67784	-1379.98432	-80.55333	-85.43535	-32.5468	21.96909	0
613	-109.84545	295.36221	404.39399	-92.75838	-256.30605	349.8781	-121.23683	-1365.33826	-78.11232	-82.99434	-30.10579	24.4101	0
614	-102.52242	302.68524	404.39399	-100.08141	-253.86504	352.31911	-121.23683	-1336.04614	-75.67131	-85.43535	-32.5468	21.96909	0
615	-92.75838	302.68524	394.62995	-104.96343	-244.101	347.43709	-121.23683	-1340.92816	-75.67131	-90.31737	-39.86983	12.20505	0
616	-82.99434	300.24423	382.4249	-109.84545	-231.89595	340.11406	-118.79582	-1343.36917	-70.78929	-92.75838	-47.19286	2.44101	0
617	-80.55333	295.36221	375.10187	-107.40444	-227.01393	335.23204	-116.35481	-1353.13321	-65.90727	-92.75838	-52.07488	-2.44101	0
618	-87.87636	280.71615	367.77884	-97.6404	-227.01393	323.02699	-116.35481	-1358.01523	-68.34828	-97.6404	-56.9569	-7.32303	0
619	-92.75838	263.62908	355.57379	-85.43535	-224.57292	308.38093	-116.35481	-1353.13321	-73.2303	-107.40444	-66.72094	-15.45973	0
620	-100.08141	246.54201	345.80975	-73.2303	-222.13191	296.17588	-116.35481	-1336.04614	-80.55333	-114.72747	-76.48498	-25.22377	0
621	-102.52242	234.33696	336.04571	-65.90727	-219.6909	283.97083	-116.35481	-1314.07705	-82.99434	-117.16848	-78.92599	-30.10579	0
622	-100.08141	236.77797	336.04571	-68.34828	-217.24989	286.41184	-113.9138	-1289.66695	-82.99434	-114.72747	-78.92599	-34.98781	0
623	-100.08141	239.21898	338.48672	-70.78929	-219.6909	288.85285	-111.47279	-1275.02089	-85.43535	-114.72747	-78.92599	-39.86983	0
624	-97.6404	239.21898	336.04571	-70.78929	-217.24989	286.41184	-101.70875	-1240.84675	-82.99434	-112.28646	-81.367	-47.19286	0
625	-97.6404	236.77797	333.6047	-70.78929	-214.80888	283.97083	-89.5037	-1235.96473	-73.2303	-112.28646	-83.80801	-52.07488	0
626	-100.08141	236.77797	336.04571	-68.34828	-217.24989	286.41184	-79.73966	-1233.52372	-65.90727	-109.84545	-86.24902	-56.9569	0
627	-100.08141	234.33696	333.6047	-68.34828	-217.24989	283.97083	-72.41663	-1240.84675	-58.58424	-104.96343	-86.24902	-59.39791	0
628	-100.08141	224.57292	323.84066	-63.46626	-212.36787	274.20679	-62.65259	-1240.84675	-51.26121	-102.52242	-83.80801	-61.83892	0
629	-90.31737	207.48585	296.98955	-58.58424	-192.83979	252.2377	-55.32956	-1223.75968	-48.8202	-100.08141	-83.80801	-59.39791	0
630	-85.43535	197.72181	282.34349	-56.14323	-183.07575	240.03265	-48.00653	-1199.34958	-43.93818	-100.08141	-83.80801	-59.39791	-1250	T-0
631	-78.11232	192.83979	270.13844	-58.58424	-173.31171	230.26861	-44.75185	-1174.93948	-36.61515	-97.6404	-83.80801	-59.39791	0
632	-65.90727	185.51676	250.61036	-61.02525	-158.66565	218.06356	-42.31084	-1145.64736	-29.29212	-90.31737	-78.92599	-61.83892	0
633	-48.8202	180.63474	228.64127	-65.90727	-139.13757	203.4175	-37.42882	-1128.56029	-21.96909	-82.99434	-74.04397	-61.83892	0
634	-34.17414	180.63474	213.99521	-73.2303	-124.49151	196.09447	-27.66478	-1094.38615	-17.08707	-78.11232	-71.60296	-64.27993	0
635	-29.29212	173.31171	201.79016	-73.2303	-114.72747	186.33043	-22.78276	-1094.38615	-9.76404	-75.67131	-74.04397	-71.60296	0
636	-31.73313	163.54767	194.46713	-65.90727	-112.28646	179.0074	-17.90074	-1096.82716	-2.44101	-73.2303	-76.48498	-78.92599	0
637	-29.29212	153.78363	182.26208	-63.46626	-104.96343	166.80235	-17.90074	-1109.03221	2.44101	-70.78929	-81.367	-91.13104	0
638	-19.52808	146.4606	165.17501	-63.46626	-92.75838	154.5973	-15.45973	-1111.47322	7.32303	-65.90727	-78.92599	-96.01306	0
639	-17.08707	136.69656	152.96996	-61.02525	-85.43535	144.83326	-10.57771	-1096.82716	9.76404	-65.90727	-78.92599	-98.45407	0
640	-21.96909	119.60949	140.76491	-48.8202	-80.55333	130.1872	-8.1367	-1077.29908	14.64606	-63.46626	-78.92599	-100.89508	0
641	-19.52808	107.40444	126.11885	-43.93818	-73.2303	115.54114	-5.69569	-1055.32999	19.52808	-61.02525	-78.92599	-105.7771	0
642	-12.20505	97.6404	109.03178	-43.93818	-61.02525	103.33609	-0.81367	-1026.03787	26.85111	-51.26121	-76.48498	-113.10013	0
643	-2.44101	82.99434	84.62168	-41.49717	-43.93818	83.80801	6.50936	-1004.06878	34.17414	-39.05616	-66.72094	-110.65912	0
644	0.81367	63.46626	62.65259	-31.73313	-31.73313	64.27993	13.83239	-972.33565	41.49717	-31.73313	-59.39791	-110.65912	0
645	5.69569	43.93818	38.24249	-24.4101	-17.08707	42.31084	21.15542	-972.33565	49.63387	-21.96909	-52.07488	-108.21811	0
646	8.1367	29.29212	21.15542	-19.52808	-7.32303	25.22377	28.47845	-972.33565	59.39791	-14.64606	-44.75185	-105.7771	0
647	10.57771	9.76404	-1.62734	-9.76404	5.69569	5.69569	35.80148	-979.65868	74.04397	0	-32.5468	-103.33609	0
648	13.01872	-3.25468	-16.2734	-4.88202	13.01872	-9.76404	45.56552	-977.21767	83.80801	12.20505	-17.90074	-93.57205	0
649	15.45973	-8.1367	-23.59643	-4.88202	17.90074	-14.64606	48.00653	-967.45363	88.69003	21.96909	-8.1367	-83.80801	0
650	17.90074	-10.57771	-28.47845	-4.88202	22.78276	-19.52808	50.44754	-950.36656	91.13104	25.22377	-0.81367	-78.92599	0
651	20.34175	-10.57771	-30.91946	-4.88202	25.22377	-19.52808	50.44754	-930.83848	96.01306	30.10579	4.06835	-76.48498	0
652	20.34175	-15.45973	-35.80148	-2.44101	27.66478	-24.4101	45.56552	-911.3104	98.45407	37.42882	7.32303	-81.367	0
653	17.90074	-22.78276	-40.6835	0	27.66478	-31.73313	40.6835	-901.54636	98.45407	44.75185	12.20505	-78.92599	0
654	17.90074	-30.10579	-48.00653	5.69569	32.5468	-39.05616	38.24249	-882.01828	98.45407	44.75185	14.64606	-76.48498	0
655	22.78276	-37.42882	-60.21158	5.69569	39.86983	-48.8202	38.24249	-886.9003	98.45407	47.19286	19.52808	-74.04397	0
656	32.5468	-44.75185	-77.29865	5.69569	54.51589	-61.02525	38.24249	-894.22333	105.7771	52.07488	24.4101	-71.60296	0
657	39.86983	-47.19286	-87.06269	3.25468	61.83892	-65.90727	38.24249	-906.42838	110.65912	56.9569	29.29212	-71.60296	0
658	44.75185	-47.19286	-91.94471	0	66.72094	-68.34828	43.12451	-911.3104	110.65912	61.83892	36.61515	-61.83892	0
659	54.51589	-47.19286	-101.70875	-4.88202	76.48498	-73.2303	45.56552	-901.54636	108.21811	61.83892	41.49717	-54.51589	0
660	66.72094	-44.75185	-111.47279	-12.20505	88.69003	-78.11232	48.00653	-886.9003	108.21811	61.83892	43.93818	-49.63387	0
661	64.27993	-52.07488	-116.35481	-7.32303	88.69003	-82.99434	48.00653	-869.81323	108.21811	61.83892	43.93818	-47.19286	0
662	54.51589	-56.9569	-111.47279	0	81.367	-82.99434	45.56552	-852.72616	108.21811	66.72094	43.93818	-49.63387	0
663	47.19286	-66.72094	-113.9138	8.1367	78.92599	-90.31737	40.6835	-850.28515	103.33609	66.72094	43.93818	-49.63387	0
664	47.19286	-78.92599	-126.11885	15.45973	86.24902	-102.52242	38.24249	-835.63909	100.89508	66.72094	46.37919	-44.75185	0
665	47.19286	-83.80801	-131.00087	17.90074	88.69003	-107.40444	35.80148	-850.28515	100.89508	69.16195	51.26121	-44.75185	0
666	42.31084	-91.13104	-133.44188	22.78276	86.24902	-112.28646	35.80148	-864.93121	103.33609	69.16195	51.26121	-47.19286	0
667	37.42882	-91.13104	-128.55986	25.22377	81.367	-109.84545	35.80148	-884.45929	103.33609	69.16195	48.8202	-52.07488	0
668	37.42882	-91.13104	-128.55986	25.22377	81.367	-109.84545	33.36047	-891.78232	103.33609	71.60296	58.58424	-44.75185	0
669	44.75185	-83.80801	-128.55986	17.90074	86.24902	-104.96343	33.36047	-879.57727	100.89508	71.60296	61.02525	-39.86983	0
670	49.63387	-78.92599	-128.55986	13.01872	88.69003	-102.52242	33.36047	-862.4902	98.45407	71.60296	63.46626	-39.86983	0
671	49.63387	-78.92599	-128.55986	13.01872	88.69003	-102.52242	33.36047	-842.96212	98.45407	69.16195	61.02525	-37.42882	0
672	44.75185	-71.60296	-116.35481	13.01872	78.92599	-92.75838	30.91946	-818.55202	98.45407	69.16195	61.02525	-39.86983	0
673	44.75185	-69.16195	-113.9138	10.57771	78.92599	-90.31737	28.47845	-813.67	93.57205	69.16195	63.46626	-32.5468	0
674	39.86983	-74.04397	-113.9138	15.45973	76.48498	-92.75838	28.47845	-803.90596	91.13104	69.16195	63.46626	-30.10579	0
675	39.86983	-74.04397	-113.9138	15.45973	76.48498	-92.75838	33.36047	-818.55202	91.13104	64.27993	63.46626	-30.10579	0
676	34.98781	-76.48498	-111.47279	20.34175	71.60296	-92.75838	35.80148	-833.19808	93.57205	64.27993	65.90727	-27.66478	0
677	27.66478	-88.69003	-116.35481	30.10579	71.60296	-102.52242	40.6835	-850.28515	98.45407	71.60296	68.34828	-25.22377	0
678	25.22377	-96.01306	-121.23683	34.98781	71.60296	-107.40444	45.56552	-852.72616	103.33609	74.04397	78.11232	-20.34175	0
679	27.66478	-103.33609	-131.00087	37.42882	78.92599	-117.16848	55.32956	-838.0801	105.7771	76.48498	82.99434	-13.01872	0
680	32.5468	-105.7771	-138.3239	34.98781	83.80801	-122.0505	57.77057	-818.55202	108.21811	76.48498	85.43535	-10.57771	0
681	39.86983	-100.89508	-140.76491	30.10579	88.69003	-119.60949	60.21158	-794.14192	108.21811	74.04397	85.43535	-7.32303	0
682	37.42882	-100.89508	-138.3239	30.10579	86.24902	-119.60949	60.21158	-769.73182	108.21811	76.48498	82.99434	-10.57771	0
683	32.5468	-100.89508	-133.44188	32.5468	81.367	-117.16848	55.32956	-769.73182	103.33609	71.60296	82.99434	-13.01872	0
684	30.10579	-100.89508	-131.00087	34.98781	78.92599	-114.72747	52.88855	-762.40879	96.01306	66.72094	78.11232	-13.01872	0
685	30.10579	-105.7771	-135.88289	37.42882	81.367	-119.60949	48.00653	-779.49586	91.13104	59.39791	73.2303	-15.45973	0
686	30.10579	-105.7771	-135.88289	37.42882	81.367	-119.60949	45.56552	-796.58293	88.69003	54.51589	68.34828	-20.34175	0
687	32.5468	-103.33609	-135.88289	34.98781	83.80801	-119.60949	45.56552	-813.67	91.13104	56.9569	65.90727	-22.78276	0
688	32.5468	-108.21811	-140.76491	37.42882	86.24902	-124.49151	43.12451	-825.87505	86.24902	54.51589	68.34828	-22.78276	0
689	30.10579	-120.42316	-150.52895	44.75185	88.69003	-134.25555	43.12451	-816.11101	83.80801	49.63387	63.46626	-22.78276	0
690	27.66478	-127.74619	-155.41097	49.63387	91.13104	-141.57858	43.12451	-794.14192	83.80801	47.19286	61.02525	-22.78276	0
691	25.22377	-122.86417	-148.08794	47.19286	86.24902	-134.25555	43.12451	-769.73182	86.24902	44.75185	58.58424	-25.22377	0
692	27.66478	-122.86417	-150.52895	47.19286	88.69003	-136.69656	43.12451	-742.88071	91.13104	47.19286	58.58424	-27.66478	0
693	27.66478	-120.42316	-148.08794	44.75185	86.24902	-134.25555	43.12451	-730.67566	93.57205	49.63387	58.58424	-27.66478	0
694	27.66478	-117.98215	-145.64693	44.75185	86.24902	-131.81454	40.6835	-716.0296	93.57205	49.63387	58.58424	-27.66478	0
695	37.42882	-103.33609	-140.76491	32.5468	88.69003	-122.0505	43.12451	-723.35263	98.45407	52.07488	63.46626	-22.78276	0
696	54.51589	-86.24902	-140.76491	15.45973	96.01306	-112.28646	45.56552	-730.67566	108.21811	59.39791	68.34828	-17.90074	0
697	56.9569	-81.367	-138.3239	10.57771	96.01306	-109.84545	48.00653	-745.32172	115.54114	64.27993	68.34828	-17.90074	0
698	47.19286	-86.24902	-133.44188	17.90074	88.69003	-109.84545	48.00653	-752.64475	113.10013	61.83892	70.78929	-17.90074	0
699	30.10579	-96.01306	-126.11885	32.5468	76.48498	-109.84545	45.56552	-740.4397	108.21811	56.9569	65.90727	-17.90074	0
700	15.45973	-105.7771	-121.23683	44.75185	66.72094	-112.28646	40.6835	-718.47061	103.33609	49.63387	61.02525	-22.78276	0
701	0.81367	-113.10013	-113.9138	54.51589	56.9569	-112.28646	38.24249	-694.06051	100.89508	44.75185	53.70222	-27.66478	0
702	-9.76404	-127.74619	-118.79582	66.72094	54.51589	-124.49151	35.80148	-669.65041	98.45407	44.75185	48.8202	-34.98781	0
703	-17.08707	-137.51023	-121.23683	76.48498	52.07488	-129.37353	33.36047	-664.76839	96.01306	47.19286	51.26121	-34.98781	0
704	-7.32303	-132.62821	-126.11885	69.16195	59.39791	-129.37353	33.36047	-652.56334	96.01306	47.19286	51.26121	-30.10579	0
705	8.1367	-120.42316	-128.55986	54.51589	66.72094	-124.49151	35.80148	-662.32738	98.45407	47.19286	53.70222	-27.66478	0
706	22.78276	-115.54114	-138.3239	44.75185	78.92599	-126.93252	40.6835	-672.09142	103.33609	52.07488	56.14323	-25.22377	0
707	30.10579	-113.10013	-143.20592	39.86983	86.24902	-126.93252	48.00653	-686.73748	113.10013	59.39791	61.02525	-22.78276	0
708	34.98781	-110.65912	-145.64693	37.42882	88.69003	-126.93252	50.44754	-691.6195	113.10013	61.83892	65.90727	-17.90074	0
709	34.98781	-108.21811	-143.20592	34.98781	88.69003	-124.49151	52.88855	-679.41445	113.10013	61.83892	65.90727	-15.45973	0
710	30.10579	-108.21811	-138.3239	37.42882	83.80801	-122.0505	55.32956	-655.00435	113.10013	59.39791	65.90727	-13.01872	0
711	25.22377	-108.21811	-133.44188	39.86983	78.92599	-119.60949	57.77057	-625.71223	120.42316	66.72094	68.34828	-10.57771	0
712	22.78276	-105.7771	-128.55986	39.86983	74.04397	-117.16848	57.77057	-598.86112	125.30518	74.04397	70.78929	-13.01872	0
713	17.90074	-108.21811	-126.11885	44.75185	71.60296	-117.16848	55.32956	-598.86112	125.30518	76.48498	73.2303	-13.01872	0
714	10.57771	-113.10013	-123.67784	49.63387	66.72094	-117.16848	50.44754	-596.42011	125.30518	76.48498	70.78929	-10.57771	0
715	5.69569	-110.65912	-116.35481	52.07488	59.39791	-112.28646	48.00653	-620.83021	125.30518	76.48498	68.34828	-15.45973	0
716	13.01872	-108.21811	-121.23683	47.19286	66.72094	-114.72747	45.56552	-642.7993	127.74619	74.04397	63.46626	-20.34175	0
717	20.34175	-105.7771	-126.11885	42.31084	71.60296	-114.72747	45.56552	-664.76839	130.1872	74.04397	58.58424	-27.66478	0
718	22.78276	-103.33609	-126.11885	39.86983	74.04397	-114.72747	43.12451	-676.97344	125.30518	69.16195	56.14323	-30.10579	0
719	25.22377	-100.89508	-126.11885	37.42882	74.04397	-112.28646	40.6835	-667.2094	117.98215	64.27993	51.26121	-32.5468	0
720	25.22377	-93.57205	-118.79582	32.5468	71.60296	-104.96343	43.12451	-640.35829	117.98215	59.39791	51.26121	-34.98781	0
721	25.22377	-98.45407	-123.67784	34.98781	74.04397	-109.84545	50.44754	-603.74314	120.42316	61.83892	53.70222	-30.10579	0
722	20.34175	-105.7771	-126.11885	42.31084	71.60296	-114.72747	55.32956	-572.01001	125.30518	69.16195	58.58424	-30.10579	0
723	15.45973	-108.21811	-123.67784	44.75185	69.16195	-114.72747	57.77057	-564.68698	125.30518	76.48498	63.46626	-25.22377	0
724	10.57771	-113.10013	-123.67784	49.63387	66.72094	-117.16848	62.65259	-559.80496	132.62821	81.367	70.78929	-15.45973	0
725	13.01872	-108.21811	-121.23683	47.19286	66.72094	-114.72747	72.41663	-569.569	142.39225	93.57205	80.55333	-7.32303	0
726	15.45973	-110.65912	-126.11885	47.19286	69.16195	-117.16848	79.73966	-589.09708	152.15629	100.89508	85.43535	-2.44101	0
727	17.90074	-115.54114	-133.44188	47.19286	74.04397	-124.49151	79.73966	-615.94819	154.5973	105.7771	82.99434	-7.32303	0
728	25.22377	-113.10013	-138.3239	42.31084	81.367	-124.49151	77.29865	-630.59425	147.27427	103.33609	80.55333	-10.57771	0
729	22.78276	-113.10013	-135.88289	44.75185	78.92599	-124.49151	72.41663	-623.27122	142.39225	98.45407	73.2303	-15.45973	0
730	15.45973	-113.10013	-128.55986	47.19286	71.60296	-119.60949	65.0936	-603.74314	135.06922	91.13104	65.90727	-20.34175	0
731	13.01872	-113.10013	-126.11885	49.63387	69.16195	-119.60949	55.32956	-584.21506	125.30518	81.367	53.70222	-32.5468	0
732	13.01872	-115.54114	-128.55986	49.63387	69.16195	-122.0505	48.00653	-559.80496	122.86417	76.48498	48.8202	-39.86983	0
733	25.22377	-110.65912	-135.88289	42.31084	78.92599	-122.0505	50.44754	-550.04092	122.86417	83.80801	56.14323	-37.42882	0
734	27.66478	-108.21811	-135.88289	39.86983	81.367	-122.0505	55.32956	-545.1589	125.30518	88.69003	61.02525	-30.10579	0
735	30.10579	-108.21811	-138.3239	37.42882	83.80801	-122.0505	57.77057	-562.24597	132.62821	93.57205	68.34828	-25.22377	0
736	30.10579	-115.54114	-145.64693	42.31084	86.24902	-129.37353	60.21158	-584.21506	137.51023	98.45407	70.78929	-22.78276	0
737	32.5468	-120.42316	-152.96996	42.31084	91.13104	-136.69656	67.53461	-601.30213	142.39225	108.21811	75.67131	-20.34175	0
738	30.10579	-125.30518	-155.41097	47.19286	91.13104	-139.13757	74.85764	-606.18415	147.27427	115.54114	85.43535	-13.01872	0
739	25.22377	-130.1872	-155.41097	52.07488	88.69003	-141.57858	77.29865	-591.53809	144.83326	113.10013	80.55333	-15.45973	0
740	15.45973	-139.95124	-155.41097	61.83892	83.80801	-146.4606	72.41663	-569.569	142.39225	105.7771	75.67131	-17.90074	0
741	13.01872	-149.71528	-162.734	66.72094	86.24902	-156.22464	72.41663	-537.83587	142.39225	103.33609	73.2303	-17.90074	0
742	15.45973	-142.39225	-157.85198	61.83892	86.24902	-148.90161	67.53461	-510.98476	139.95124	100.89508	68.34828	-27.66478	0
743	20.34175	-127.74619	-148.08794	52.07488	83.80801	-136.69656	62.65259	-510.98476	135.06922	98.45407	65.90727	-30.10579	0
744	25.22377	-120.42316	-145.64693	47.19286	83.80801	-131.81454	57.77057	-518.30779	132.62821	93.57205	63.46626	-34.98781	0
745	22.78276	-125.30518	-148.08794	49.63387	83.80801	-136.69656	52.88855	-547.59991	127.74619	91.13104	61.02525	-32.5468	0
746	25.22377	-125.30518	-150.52895	49.63387	86.24902	-136.69656	52.88855	-576.89203	130.1872	93.57205	63.46626	-32.5468	0
747	32.5468	-113.10013	-145.64693	39.86983	88.69003	-129.37353	55.32956	-598.86112	132.62821	100.89508	65.90727	-30.10579	0
748	37.42882	-103.33609	-140.76491	32.5468	88.69003	-122.0505	55.32956	-606.18415	132.62821	100.89508	68.34828	-25.22377	0
749	39.86983	-108.21811	-148.08794	32.5468	93.57205	-126.93252	62.65259	-586.65607	135.06922	103.33609	70.78929	-20.34175	0
750	44.75185	-113.10013	-157.85198	32.5468	100.89508	-134.25555	67.53461	-552.48193	135.06922	100.89508	70.78929	-20.34175	0
751	49.63387	-110.65912	-160.29299	30.10579	103.33609	-134.25555	72.41663	-515.86678	139.95124	100.89508	73.2303	-15.45973	0
752	52.07488	-105.7771	-157.85198	25.22377	103.33609	-131.81454	69.97562	-486.57466	139.95124	103.33609	70.78929	-20.34175	0
753	44.75185	-110.65912	-155.41097	32.5468	98.45407	-131.81454	65.0936	-489.01567	135.06922	100.89508	68.34828	-20.34175	0
754	32.5468	-120.42316	-152.96996	42.31084	91.13104	-136.69656	60.21158	-503.66173	127.74619	98.45407	68.34828	-20.34175	0
755	25.22377	-125.30518	-150.52895	49.63387	86.24902	-136.69656	52.88855	-542.71789	122.86417	96.01306	65.90727	-17.90074	0
756	15.45973	-122.86417	-138.3239	52.07488	76.48498	-129.37353	45.56552	-584.21506	115.54114	96.01306	63.46626	-20.34175	0
757	3.25468	-125.30518	-128.55986	59.39791	64.27993	-126.93252	38.24249	-618.3892	110.65912	96.01306	61.02525	-25.22377	0
758	-7.32303	-127.74619	-121.23683	66.72094	56.9569	-124.49151	35.80148	-637.91728	103.33609	93.57205	56.14323	-30.10579	0
759	-7.32303	-130.1872	-123.67784	66.72094	56.9569	-126.93252	35.80148	-623.27122	103.33609	93.57205	58.58424	-27.66478	0
760	5.69569	-122.86417	-128.55986	56.9569	66.72094	-124.49151	40.6835	-593.9791	110.65912	96.01306	58.58424	-27.66478	0
761	15.45973	-120.42316	-135.88289	52.07488	74.04397	-126.93252	43.12451	-554.92294	113.10013	96.01306	58.58424	-27.66478	0
762	22.78276	-127.74619	-150.52895	52.07488	86.24902	-139.13757	52.88855	-513.42577	120.42316	100.89508	63.46626	-27.66478	0
763	27.66478	-137.51023	-165.17501	54.51589	96.01306	-151.34262	57.77057	-503.66173	122.86417	103.33609	68.34828	-20.34175	0
764	30.10579	-149.71528	-179.82107	59.39791	103.33609	-163.54767	57.77057	-513.42577	120.42316	103.33609	68.34828	-15.45973	0
765	32.5468	-154.5973	-187.1441	59.39791	108.21811	-170.8707	55.32956	-542.71789	115.54114	100.89508	70.78929	-13.01872	0
766	32.5468	-152.15629	-184.70309	59.39791	108.21811	-168.42969	52.88855	-574.45102	110.65912	96.01306	68.34828	-15.45973	0
767	37.42882	-149.71528	-187.1441	54.51589	110.65912	-168.42969	50.44754	-601.30213	108.21811	96.01306	63.46626	-17.90074	0
768	39.86983	-144.83326	-184.70309	52.07488	110.65912	-163.54767	48.00653	-613.50718	103.33609	98.45407	63.46626	-20.34175	0
769	39.86983	-142.39225	-182.26208	49.63387	110.65912	-161.10666	43.12451	-603.74314	100.89508	93.57205	58.58424	-25.22377	0
770	42.31084	-132.62821	-174.93905	44.75185	108.21811	-153.78363	38.24249	-579.33304	100.89508	88.69003	53.70222	-30.10579	0
771	49.63387	-120.42316	-170.05703	34.98781	108.21811	-144.01959	38.24249	-547.59991	100.89508	83.80801	48.8202	-32.5468	0
772	49.63387	-115.54114	-165.17501	32.5468	105.7771	-139.13757	40.6835	-513.42577	103.33609	83.80801	48.8202	-37.42882	0
773	37.42882	-122.86417	-160.29299	42.31084	98.45407	-141.57858	40.6835	-508.54375	100.89508	83.80801	48.8202	-34.98781	0
774	25.22377	-132.62821	-157.85198	52.07488	91.13104	-144.01959	40.6835	-520.7488	100.89508	78.92599	51.26121	-30.10579	0
775	22.78276	-135.06922	-157.85198	54.51589	88.69003	-146.4606	40.6835	-550.04092	96.01306	78.92599	53.70222	-22.78276	0
776	22.78276	-137.51023	-160.29299	56.9569	91.13104	-148.90161	45.56552	-576.89203	96.01306	81.367	61.02525	-13.01872	0
777	17.90074	-144.83326	-162.734	61.83892	88.69003	-153.78363	50.44754	-596.42011	98.45407	86.24902	65.90727	-10.57771	0
778	22.78276	-149.71528	-172.49804	61.83892	96.01306	-161.10666	52.88855	-601.30213	100.89508	88.69003	70.78929	-4.88202	0
779	34.98781	-147.27427	-182.26208	54.51589	108.21811	-163.54767	55.32956	-581.77405	100.89508	88.69003	70.78929	-4.88202	0
780	44.75185	-147.27427	-192.02612	49.63387	117.98215	-168.42969	55.32956	-547.59991	103.33609	88.69003	68.34828	-7.32303	0
781	44.75185	-157.03831	-201.79016	54.51589	122.86417	-178.19373	55.32956	-508.54375	105.7771	86.24902	63.46626	-13.01872	0
782	44.75185	-154.5973	-199.34915	54.51589	120.42316	-175.75272	57.77057	-469.48759	108.21811	86.24902	63.46626	-17.90074	0
783	44.75185	-149.71528	-194.46713	52.07488	117.98215	-170.8707	57.77057	-457.28254	110.65912	91.13104	63.46626	-15.45973	0
784	42.31084	-144.83326	-187.1441	49.63387	113.10013	-165.98868	60.21158	-467.04658	113.10013	91.13104	68.34828	-10.57771	0
785	39.86983	-135.06922	-174.93905	47.19286	105.7771	-153.78363	65.0936	-489.01567	113.10013	96.01306	73.2303	-4.88202	0
786	37.42882	-117.98215	-155.41097	39.86983	96.01306	-136.69656	67.53461	-513.42577	117.98215	100.89508	78.11232	4.88202	0
787	47.19286	-91.13104	-138.3239	20.34175	91.13104	-114.72747	74.85764	-530.51284	125.30518	113.10013	90.31737	14.64606	0
788	61.83892	-64.27993	-126.11885	0	93.57205	-95.19939	79.73966	-528.07183	135.06922	125.30518	102.52242	29.29212	0
789	74.04397	-49.63387	-123.67784	-12.20505	98.45407	-85.43535	87.06269	-501.22072	142.39225	132.62821	109.84545	34.17414	0
790	71.60296	-47.19286	-118.79582	-12.20505	93.57205	-82.99434	89.5037	-462.16456	147.27427	132.62821	109.84545	31.73313	0
791	66.72094	-52.07488	-118.79582	-7.32303	91.13104	-85.43535	87.06269	-420.66739	149.71528	132.62821	104.96343	26.85111	0
792	54.51589	-64.27993	-118.79582	3.25468	86.24902	-90.31737	84.62168	-384.05224	152.15629	132.62821	102.52242	19.52808	0
793	47.19286	-76.48498	-123.67784	13.01872	83.80801	-100.08141	82.18067	-379.17022	149.71528	130.1872	102.52242	19.52808	0
794	34.98781	-91.13104	-126.11885	27.66478	78.92599	-107.40444	77.29865	-396.25729	144.83326	125.30518	97.6404	19.52808	0
795	25.22377	-98.45407	-123.67784	34.98781	74.04397	-109.84545	67.53461	-430.43143	137.51023	120.42316	95.19939	19.52808	0
796	22.78276	-98.45407	-121.23683	37.42882	71.60296	-109.84545	60.21158	-459.72355	132.62821	117.98215	95.19939	24.4101	0
797	30.10579	-91.13104	-121.23683	30.10579	74.04397	-104.96343	55.32956	-486.57466	130.1872	122.86417	100.08141	29.29212	0
798	42.31084	-78.92599	-121.23683	17.90074	81.367	-100.08141	55.32956	-493.89769	132.62821	127.74619	107.40444	39.05616	0
799	54.51589	-61.83892	-116.35481	3.25468	83.80801	-87.87636	52.88855	-471.9286	137.51023	130.1872	112.28646	41.49717	0
800	66.72094	-44.75185	-111.47279	-12.20505	88.69003	-78.11232	50.44754	-437.75446	139.95124	130.1872	112.28646	41.49717	0
801	76.48498	-30.10579	-106.59077	-24.4101	91.13104	-68.34828	48.00653	-398.6983	144.83326	130.1872	114.72747	43.93818	0
802	78.92599	-22.78276	-101.70875	-29.29212	88.69003	-61.02525	48.00653	-366.96517	149.71528	137.51023	117.16848	43.93818	0
803	74.04397	-17.90074	-91.94471	-29.29212	81.367	-53.70222	43.12451	-369.40618	149.71528	137.51023	119.60949	46.37919	0
804	71.60296	-10.57771	-82.18067	-31.73313	76.48498	-46.37919	38.24249	-393.81628	147.27427	135.06922	119.60949	46.37919	0
805	71.60296	-10.57771	-82.18067	-31.73313	76.48498	-46.37919	30.91946	-432.87244	139.95124	130.1872	117.16848	48.8202	0
806	66.72094	-13.01872	-79.73966	-26.85111	71.60296	-46.37919	23.59643	-469.48759	130.1872	127.74619	112.28646	48.8202	0
807	64.27993	-10.57771	-74.85764	-26.85111	69.16195	-41.49717	16.2734	-503.66173	125.30518	127.74619	109.84545	43.93818	0
808	61.83892	-17.90074	-79.73966	-21.96909	69.16195	-48.8202	11.39138	-518.30779	117.98215	122.86417	107.40444	41.49717	0
809	61.83892	-20.34175	-82.18067	-21.96909	71.60296	-51.26121	8.95037	-503.66173	113.10013	117.98215	104.96343	39.05616	0
810	61.83892	-30.10579	-91.94471	-17.08707	76.48498	-61.02525	4.06835	-474.36961	108.21811	113.10013	97.6404	34.17414	0
811	56.9569	-37.42882	-94.38572	-9.76404	74.04397	-65.90727	1.62734	-435.31345	105.7771	105.7771	92.75838	31.73313	0
812	64.27993	-37.42882	-101.70875	-14.64606	81.367	-68.34828	1.62734	-403.58032	105.7771	108.21811	92.75838	29.29212	0
813	66.72094	-49.63387	-116.35481	-9.76404	91.13104	-82.99434	-0.81367	-403.58032	103.33609	108.21811	92.75838	31.73313	0
814	64.27993	-61.83892	-126.11885	-2.44101	93.57205	-92.75838	-3.25468	-430.43143	98.45407	105.7771	95.19939	36.61515	0
815	69.16195	-64.27993	-133.44188	-2.44101	100.89508	-97.6404	-3.25468	-467.04658	93.57205	103.33609	92.75838	39.05616	0
816	74.04397	-69.16195	-143.20592	-2.44101	108.21811	-104.96343	-5.69569	-498.77971	88.69003	98.45407	90.31737	39.05616	0
817	71.60296	-78.92599	-150.52895	3.25468	110.65912	-114.72747	-8.1367	-528.07183	83.80801	98.45407	87.87636	36.61515	0
818	61.83892	-86.24902	-148.08794	10.57771	103.33609	-117.16848	-5.69569	-532.95385	83.80801	98.45407	87.87636	36.61515	0
819	56.9569	-88.69003	-145.64693	15.45973	100.89508	-117.16848	-5.69569	-515.86678	81.367	93.57205	85.43535	34.17414	0
820	59.39791	-81.367	-140.76491	10.57771	98.45407	-109.84545	-5.69569	-481.69264	78.92599	88.69003	80.55333	29.29212	0
821	59.39791	-83.80801	-143.20592	10.57771	100.89508	-112.28646	-5.69569	-440.19547	78.92599	83.80801	73.2303	21.96909	0
822	44.75185	-86.24902	-131.00087	20.34175	86.24902	-107.40444	-5.69569	-406.02133	78.92599	81.367	68.34828	14.64606	0
823	39.86983	-76.48498	-116.35481	17.90074	76.48498	-95.19939	-3.25468	-403.58032	78.92599	81.367	68.34828	14.64606	0
824	37.42882	-66.72094	-104.14976	13.01872	69.16195	-85.43535	1.62734	-427.99042	78.92599	78.92599	68.34828	17.08707	0
825	30.10579	-69.16195	-99.26774	17.90074	64.27993	-82.99434	6.50936	-462.16456	74.04397	76.48498	65.90727	14.64606	0
826	13.01872	-83.80801	-96.82673	34.98781	54.51589	-90.31737	11.39138	-489.01567	71.60296	76.48498	65.90727	14.64606	0
827	-2.44101	-98.45407	-96.82673	49.63387	47.19286	-97.6404	16.2734	-515.86678	71.60296	78.92599	70.78929	14.64606	0
828	-9.76404	-110.65912	-101.70875	59.39791	44.75185	-107.40444	18.71441	-518.30779	74.04397	83.80801	75.67131	19.52808	0
829	-12.20505	-120.42316	-109.03178	64.27993	47.19286	-114.72747	21.15542	-496.3387	76.48498	86.24902	75.67131	19.52808	0
830	-9.76404	-132.62821	-123.67784	69.16195	56.9569	-129.37353	18.71441	-457.28254	76.48498	83.80801	73.2303	14.64606	0
831	-12.20505	-135.06922	-123.67784	71.60296	54.51589	-129.37353	13.83239	-410.90335	76.48498	81.367	70.78929	12.20505	0
832	-9.76404	-132.62821	-123.67784	69.16195	56.9569	-129.37353	8.95037	-381.61123	78.92599	78.92599	68.34828	7.32303	0
833	-2.44101	-122.86417	-121.23683	61.83892	59.39791	-122.0505	6.50936	-381.61123	78.92599	78.92599	65.90727	7.32303	0
834	8.1367	-110.65912	-118.79582	49.63387	61.83892	-114.72747	6.50936	-410.90335	74.04397	74.04397	63.46626	4.88202	0
835	5.69569	-105.7771	-111.47279	49.63387	56.9569	-107.40444	4.06835	-447.5185	66.72094	66.72094	61.02525	4.88202	0
836	3.25468	-108.21811	-111.47279	52.07488	56.9569	-109.84545	1.62734	-479.25163	59.39791	61.83892	58.58424	4.88202	0
837	0.81367	-115.54114	-116.35481	56.9569	56.9569	-114.72747	-0.81367	-510.98476	54.51589	61.83892	56.14323	0	0
838	-2.44101	-117.98215	-116.35481	59.39791	56.9569	-117.16848	-3.25468	-518.30779	52.07488	59.39791	53.70222	0	0
839	-14.64606	-122.86417	-109.03178	66.72094	47.19286	-117.16848	-5.69569	-496.3387	47.19286	56.9569	51.26121	-4.88202	0
840	-19.52808	-132.62821	-113.9138	74.04397	47.19286	-124.49151	-10.57771	-457.28254	43.93818	49.63387	43.93818	-10.57771	0
841	-17.08707	-137.51023	-121.23683	76.48498	52.07488	-129.37353	-15.45973	-410.90335	43.93818	47.19286	39.05616	-15.45973	0
842	-7.32303	-137.51023	-131.00087	71.60296	61.83892	-134.25555	-17.90074	-376.72921	47.19286	49.63387	36.61515	-20.34175	0
843	-2.44101	-127.74619	-126.11885	64.27993	61.83892	-126.93252	-17.90074	-379.17022	49.63387	52.07488	39.05616	-17.90074	0
844	3.25468	-122.86417	-126.11885	59.39791	64.27993	-124.49151	-17.90074	-415.78537	49.63387	52.07488	39.05616	-15.45973	0
845	8.1367	-122.86417	-131.00087	56.9569	69.16195	-126.93252	-15.45973	-452.40052	49.63387	52.07488	41.49717	-10.57771	0
846	5.69569	-127.74619	-133.44188	59.39791	69.16195	-129.37353	-15.45973	-481.69264	49.63387	54.51589	41.49717	-7.32303	0
847	-2.44101	-125.30518	-123.67784	61.83892	59.39791	-124.49151	-15.45973	-510.98476	47.19286	56.9569	41.49717	-7.32303	0
848	-4.88202	-122.86417	-118.79582	61.83892	56.9569	-122.0505	-17.90074	-518.30779	43.93818	54.51589	41.49717	-2.44101	0
849	-12.20505	-122.86417	-111.47279	66.72094	49.63387	-117.16848	-17.90074	-498.77971	41.49717	47.19286	39.05616	-2.44101	0
850	-14.64606	-127.74619	-113.9138	69.16195	49.63387	-122.0505	-17.90074	-454.84153	39.05616	42.31084	36.61515	-4.88202	0
851	-9.76404	-127.74619	-118.79582	66.72094	54.51589	-124.49151	-17.90074	-398.6983	41.49717	42.31084	34.17414	-4.88202	0
852	-2.44101	-125.30518	-123.67784	61.83892	59.39791	-124.49151	-13.01872	-364.52416	43.93818	44.75185	34.17414	-7.32303	0
853	3.25468	-117.98215	-121.23683	56.9569	61.83892	-119.60949	-10.57771	-369.40618	43.93818	47.19286	34.17414	-7.32303	0
854	3.25468	-110.65912	-113.9138	52.07488	56.9569	-112.28646	-10.57771	-408.46234	43.93818	47.19286	36.61515	-4.88202	0
855	3.25468	-115.54114	-118.79582	54.51589	59.39791	-117.16848	-5.69569	-442.63648	47.19286	52.07488	41.49717	0	0
856	3.25468	-115.54114	-118.79582	54.51589	59.39791	-117.16848	-0.81367	-464.60557	52.07488	56.9569	48.8202	9.76404	0
857	-2.44101	-113.10013	-111.47279	56.9569	54.51589	-112.28646	4.06835	-491.45668	54.51589	64.27993	51.26121	14.64606	0
858	-9.76404	-113.10013	-104.14976	59.39791	47.19286	-109.84545	4.06835	-493.89769	54.51589	64.27993	56.14323	17.08707	0
859	-17.08707	-113.10013	-96.82673	64.27993	39.86983	-104.96343	-0.81367	-471.9286	52.07488	61.83892	51.26121	14.64606	0
860	-17.08707	-115.54114	-99.26774	64.27993	39.86983	-107.40444	-3.25468	-423.1084	52.07488	56.9569	51.26121	12.20505	0
861	-17.08707	-120.42316	-104.14976	66.72094	42.31084	-112.28646	-5.69569	-371.84719	49.63387	52.07488	46.37919	7.32303	0
862	-24.4101	-120.42316	-96.82673	71.60296	34.98781	-109.84545	-13.01872	-347.43709	43.93818	44.75185	36.61515	-4.88202	0
863	-26.85111	-117.98215	-91.94471	71.60296	32.5468	-104.96343	-20.34175	-364.52416	36.61515	39.86983	31.73313	-10.57771	0
864	-26.85111	-115.54114	-89.5037	69.16195	30.10579	-102.52242	-25.22377	-415.78537	31.73313	39.86983	29.29212	-10.57771	0
865	-24.4101	-115.54114	-91.94471	69.16195	32.5468	-104.96343	-25.22377	-457.28254	36.61515	44.75185	36.61515	-7.32303	0
866	-24.4101	-122.86417	-99.26774	71.60296	37.42882	-112.28646	-25.22377	-481.69264	47.19286	59.39791	51.26121	7.32303	0
867	-19.52808	-125.30518	-106.59077	71.60296	42.31084	-117.16848	-25.22377	-506.10274	66.72094	88.69003	75.67131	24.4101	0
868	-12.20505	-108.21811	-96.82673	59.39791	42.31084	-102.52242	-25.22377	-498.77971	93.57205	122.86417	112.28646	56.14323	0
869	0.81367	-91.13104	-91.94471	44.75185	44.75185	-90.31737	-27.66478	-459.72355	130.1872	169.24336	161.10666	95.19939	0
870	10.57771	-78.92599	-89.5037	32.5468	49.63387	-82.99434	-32.5468	-391.37527	181.44841	230.26861	227.01393	148.90161	0
871	20.34175	-61.83892	-82.18067	20.34175	49.63387	-70.78929	-39.86983	-315.70396	247.35568	313.26295	314.89029	222.13191	0
872	42.31084	-42.31084	-84.62168	0	61.83892	-63.46626	-52.88855	-264.44275	315.70396	413.34436	422.29473	312.44928	0
873	69.16195	-17.90074	-87.06269	-26.85111	76.48498	-51.26121	-69.97562	-269.32477	381.61123	520.7488	551.66826	424.73574	0
874	105.7771	4.88202	-101.70875	-56.14323	103.33609	-48.8202	-96.82673	-323.02699	442.63648	633.03526	695.68785	554.10927	0
875	144.83326	21.96909	-123.67784	-82.99434	135.06922	-51.26121	-131.00087	-379.17022	498.77971	750.20374	851.91249	698.12886	0
876	196.09447	46.37919	-150.52895	-122.0505	174.12538	-51.26121	-170.05703	-435.31345	542.71789	860.04919	1010.57814	849.47148	0
877	254.67871	82.99434	-172.49804	-168.42969	213.18154	-43.93818	-211.5542	-506.10274	572.01001	960.1306	1159.47975	993.49107	0
878	310.82194	126.93252	-184.70309	-219.6909	247.35568	-29.29212	-255.49238	-557.36395	579.33304	1033.3609	1288.85328	1125.30561	0
879	344.99608	170.8707	-174.93905	-258.74706	259.56073	-2.44101	-299.43056	-589.09708	564.68698	1065.09403	1366.9656	1218.06399	0
880	357.20113	212.36787	-145.64693	-285.59817	252.2377	34.98781	-338.48672	-598.86112	515.86678	1040.68393	1376.72964	1254.67914	0
881	362.08315	258.74706	-104.14976	-310.00827	232.70962	78.92599	-365.33783	-613.50718	432.87244	952.80757	1308.38136	1230.26904	0
882	349.8781	295.36221	-55.32956	-322.21332	203.4175	120.42316	-375.10187	-659.88637	308.38093	796.58293	1147.2747	1122.8646	0
883	301.0579	317.3313	16.2734	-310.00827	142.39225	166.80235	-382.4249	1690.80626	122.86417	552.48193	883.64562	932.46582	0
884	220.50457	314.89029	94.38572	-268.5111	64.27993	205.85851	-392.18894	3975.59162	-119.60949	230.26861	534.58119	671.27775	0
885	125.30518	290.48019	165.17501	-207.48585	-19.52808	227.8276	-401.95298	6248.9856	-397.88463	-134.25555	146.4606	375.91554	0
886	39.86983	266.07009	226.20026	-153.78363	-92.75838	247.35568	-409.27601	8533.77096	-676.15977	-490.64301	-225.38659	82.99434	0
887	-46.37919	217.24989	262.81541	-85.43535	-153.78363	240.03265	-416.59904	10831.57504	-925.14279	-800.65128	-557.36395	-183.88942	0
888	-129.37353	153.78363	282.34349	-12.20505	-205.04484	218.06356	-428.80409	13174.94464	-1130.18763	-1054.51632	-823.43404	-413.34436	0
889	-202.60383	78.11232	279.90248	61.83892	-241.65999	179.0074	-436.12712	14351.51146	-1279.08924	-1232.71005	-1004.06878	-581.77405	0
890	-248.98302	-0.81367	248.16935	122.86417	-248.98302	122.86417	-436.12712	14363.71651	-1352.31954	-1320.58641	-1096.82716	-681.85546	0
891	-266.07009	-61.83892	204.23117	161.92033	-236.77797	71.60296	-426.36308	14424.74176	-1357.20156	-1330.35045	-1118.79625	-725.79364	0
892	-273.39312	-125.30518	148.08794	198.53548	-212.36787	10.57771	-409.27601	14490.64903	-1315.70439	-1291.29429	-1096.82716	-745.32172	0
893	-268.5111	-176.56639	91.94471	220.50457	-180.63474	-43.93818	-394.62995	14532.1462	-1252.23813	-1225.38702	-1052.88898	-735.55768	0
894	-261.18807	-205.85851	55.32956	232.70962	-158.66565	-75.67131	-377.54288	14549.23327	-1171.6848	-1147.2747	-989.42272	-703.82455	0
895	-248.98302	-213.18154	35.80148	230.26861	-144.01959	-90.31737	-358.0148	14583.40741	-1078.92642	-1054.51632	-908.86939	-655.00435	0
896	-236.77797	-210.74053	26.03744	222.94558	-131.81454	-92.75838	-340.92773	14632.22761	-983.72703	-959.31693	-825.87505	-593.9791	0
897	-229.45494	-203.4175	26.03744	215.62255	-129.37353	-90.31737	-323.84066	13450.77877	-888.52764	-864.11754	-745.32172	-540.27688	0
898	-209.92686	-176.56639	33.36047	191.21245	-122.0505	-73.2303	-301.87157	11073.23503	-790.88724	-766.47714	-657.44536	-479.25163	0
899	-192.83979	-147.27427	45.56552	169.24336	-119.60949	-51.26121	-272.57945	8729.05176	-690.80583	-668.83674	-572.01001	-418.22638	0
900	-183.07575	-122.86417	60.21158	152.15629	-122.0505	-31.73313	-240.84632	6407.65125	-600.48846	-585.8424	-501.22072	-369.40618	0
901	-180.63474	-110.65912	69.97562	144.83326	-126.93252	-21.96909	-213.99521	4078.11404	-524.81715	-517.49412	-445.07749	-335.23204	0
902	-170.8707	-103.33609	67.53461	135.06922	-119.60949	-19.52808	-189.58511	1715.21636	-454.02786	-454.02786	-396.25729	-308.38093	0
903	-151.34262	-93.57205	57.77057	120.42316	-104.96343	-19.52808	-170.05703	-686.73748	-393.00261	-397.88463	-349.8781	-281.52982	0
904	-134.25555	-76.48498	57.77057	103.33609	-97.6404	-9.76404	-148.08794	-681.85546	-339.30039	-346.62342	-310.82194	-254.67871	0
905	-122.0505	-69.16195	52.88855	93.57205	-87.87636	-9.76404	-131.00087	-672.09142	-295.36221	-307.56726	-279.08881	-235.15063	0
906	-117.16848	-64.27993	52.88855	88.69003	-85.43535	-7.32303	-116.35481	-655.00435	-251.42403	-266.07009	-244.91467	-210.74053	0
907	-114.72747	-59.39791	55.32956	86.24902	-85.43535	-2.44101	-101.70875	-635.47627	-207.48585	-222.13191	-208.29952	-183.88942	0
908	-112.28646	-49.63387	62.65259	78.92599	-87.87636	5.69569	-84.62168	-593.9791	-165.98868	-183.07575	-171.68437	-157.03831	0
909	-117.16848	-37.42882	79.73966	76.48498	-100.08141	20.34175	-67.53461	-528.07183	-131.81454	-146.4606	-139.95124	-130.1872	0
910	-119.60949	-27.66478	91.94471	71.60296	-107.40444	32.5468	-52.88855	-437.75446	-97.6404	-117.16848	-110.65912	-108.21811	0
911	-119.60949	-25.22377	94.38572	71.60296	-107.40444	34.98781	-48.00653	-354.76012	-70.78929	-92.75838	-91.13104	-93.57205	0
912	-124.49151	-27.66478	96.82673	74.04397	-112.28646	34.98781	-44.75185	-305.93992	-56.14323	-78.11232	-78.92599	-86.24902	0
913	-119.60949	-22.78276	96.82673	69.16195	-109.84545	37.42882	-44.75185	-298.61689	-43.93818	-65.90727	-69.16195	-76.48498	0
914	-114.72747	-20.34175	94.38572	66.72094	-104.96343	37.42882	-42.31084	-337.67305	-39.05616	-58.58424	-59.39791	-64.27993	0
915	-104.96343	-10.57771	94.38572	56.9569	-100.08141	42.31084	-42.31084	-369.40618	-34.17414	-53.70222	-49.63387	-52.07488	0
916	-102.52242	-0.81367	101.70875	49.63387	-102.52242	49.63387	-39.86983	-388.93426	-29.29212	-46.37919	-37.42882	-39.86983	0
917	-104.96343	12.20505	116.35481	44.75185	-109.84545	64.27993	-37.42882	-413.34436	-21.96909	-34.17414	-25.22377	-27.66478	0
918	-112.28646	31.73313	143.20592	39.86983	-126.93252	86.24902	-32.5468	-408.46234	-17.08707	-24.4101	-13.01872	-10.57771	0
919	-117.16848	53.70222	170.05703	30.10579	-144.01959	110.65912	-27.66478	-379.17022	-12.20505	-17.08707	-3.25468	-4.88202	0
920	-122.0505	68.34828	189.58511	25.22377	-156.22464	127.74619	-25.22377	-325.468	-7.32303	-14.64606	4.06835	0	0
921	-124.49151	73.2303	196.90814	25.22377	-161.10666	135.06922	-20.34175	-266.88376	0	-9.76404	4.06835	0	0
922	-131.81454	70.78929	201.79016	30.10579	-165.98868	135.06922	-17.90074	-235.15063	2.44101	-4.88202	4.06835	0	0
923	-129.37353	70.78929	199.34915	27.66478	-163.54767	135.06922	-17.90074	-240.03265	4.88202	-4.88202	7.32303	0	0
924	-129.37353	65.90727	194.46713	30.10579	-161.10666	130.1872	-17.90074	-283.97083	4.88202	-4.88202	7.32303	0	0
925	-124.49151	63.46626	187.1441	30.10579	-156.22464	125.30518	-17.90074	-318.14497	4.88202	-4.88202	9.76404	2.44101	0
926	-119.60949	63.46626	182.26208	27.66478	-151.34262	122.86417	-15.45973	-340.11406	4.88202	-2.44101	12.20505	9.76404	0
927	-109.84545	68.34828	177.38006	20.34175	-144.01959	122.86417	-20.34175	-364.52416	4.88202	0	12.20505	9.76404	0
928	-100.08141	78.11232	177.38006	10.57771	-139.13757	127.74619	-22.78276	-366.96517	2.44101	2.44101	17.08707	14.64606	0
929	-97.6404	87.87636	184.70309	3.25468	-141.57858	135.06922	-27.66478	-344.99608	-2.44101	0	19.52808	17.08707	0
930	-95.19939	100.08141	194.46713	-2.44101	-144.01959	147.27427	-27.66478	-293.73487	-2.44101	0	19.52808	17.08707	0
931	-85.43535	114.72747	199.34915	-14.64606	-141.57858	157.03831	-27.66478	-235.15063	0	2.44101	21.96909	19.52808	0
932	-78.11232	119.60949	196.90814	-21.96909	-136.69656	157.03831	-27.66478	-205.85851	0	4.88202	24.4101	17.08707	0
933	-80.55333	117.16848	196.90814	-19.52808	-139.13757	157.03831	-30.10579	-210.74053	0	7.32303	24.4101	17.08707	0
934	-87.87636	109.84545	196.90814	-12.20505	-141.57858	152.15629	-32.5468	-259.56073	-4.88202	2.44101	19.52808	14.64606	0
935	-95.19939	97.6404	192.02612	-2.44101	-144.01959	144.83326	-34.98781	-296.17588	-12.20505	-2.44101	17.08707	12.20505	0
936	-97.6404	95.19939	192.02612	0	-144.01959	142.39225	-39.86983	-320.58598	-17.08707	-7.32303	12.20505	9.76404	0
937	-107.40444	85.43535	192.02612	10.57771	-148.90161	137.51023	-48.00653	-349.8781	-21.96909	-12.20505	9.76404	4.88202	0
938	-117.16848	80.55333	196.90814	17.90074	-156.22464	137.51023	-50.44754	-354.76012	-29.29212	-14.64606	7.32303	4.88202	0
939	-114.72747	92.75838	206.67218	10.57771	-161.10666	149.71528	-52.88855	-332.79103	-36.61515	-21.96909	4.06835	2.44101	0
940	-107.40444	104.96343	211.5542	0	-158.66565	157.03831	-50.44754	-281.52982	-36.61515	-24.4101	4.06835	2.44101	0
941	-97.6404	126.93252	223.75925	-14.64606	-161.10666	174.12538	-52.88855	-227.8276	-34.17414	-26.85111	1.62734	0	0
942	-95.19939	136.69656	231.08228	-21.96909	-163.54767	183.88942	-57.77057	-203.4175	-34.17414	-26.85111	-0.81367	-4.88202	0
943	-92.75838	141.57858	233.52329	-24.4101	-163.54767	186.33043	-62.65259	-213.18154	-39.05616	-26.85111	-3.25468	-4.88202	0
944	-82.99434	141.57858	223.75925	-29.29212	-153.78363	181.44841	-62.65259	-262.00174	-41.49717	-29.29212	-3.25468	0	0
945	-78.11232	144.01959	221.31824	-34.17414	-148.90161	181.44841	-62.65259	-296.17588	-41.49717	-29.29212	-0.81367	4.88202	0
946	-80.55333	141.57858	221.31824	-31.73313	-151.34262	181.44841	-62.65259	-318.14497	-41.49717	-26.85111	1.62734	9.76404	0
947	-85.43535	136.69656	221.31824	-26.85111	-153.78363	179.0074	-67.53461	-349.8781	-46.37919	-26.85111	1.62734	9.76404	0
948	-82.99434	134.25555	216.43622	-26.85111	-148.90161	174.12538	-65.0936	-352.31911	-51.26121	-26.85111	4.06835	12.20505	0
949	-75.67131	141.57858	216.43622	-34.17414	-146.4606	179.0074	-57.77057	-325.468	-48.8202	-24.4101	4.06835	14.64606	0
950	-75.67131	144.01959	218.87723	-34.17414	-146.4606	181.44841	-57.77057	-276.6478	-46.37919	-26.85111	4.06835	12.20505	0
951	-85.43535	144.01959	228.64127	-29.29212	-156.22464	186.33043	-62.65259	-227.8276	-51.26121	-31.73313	-0.81367	7.32303	0
952	-95.19939	136.69656	231.08228	-21.96909	-163.54767	183.88942	-65.0936	-205.85851	-51.26121	-36.61515	-5.69569	0	0
953	-97.6404	139.13757	235.9643	-21.96909	-165.98868	186.33043	-69.97562	-213.18154	-53.70222	-36.61515	-8.1367	-2.44101	0
954	-92.75838	144.01959	235.9643	-26.85111	-163.54767	188.77144	-72.41663	-259.56073	-53.70222	-39.05616	-10.57771	2.44101	0
955	-90.31737	146.4606	235.9643	-29.29212	-163.54767	191.21245	-77.29865	-293.73487	-56.14323	-43.93818	-10.57771	4.88202	0
956	-95.19939	144.01959	238.40531	-24.4101	-165.98868	191.21245	-79.73966	-318.14497	-61.02525	-46.37919	-10.57771	7.32303	0
957	-95.19939	153.78363	248.16935	-29.29212	-170.8707	200.97649	-79.73966	-347.43709	-61.02525	-46.37919	-10.57771	12.20505	0
958	-90.31737	163.54767	253.05137	-36.61515	-170.8707	208.29952	-82.18067	-352.31911	-65.90727	-46.37919	-10.57771	14.64606	0
959	-87.87636	173.31171	260.3744	-43.93818	-173.31171	215.62255	-82.18067	-330.35002	-70.78929	-48.8202	-13.01872	14.64606	0
960	-87.87636	180.63474	267.69743	-46.37919	-178.19373	222.94558	-82.18067	-288.85285	-75.67131	-56.14323	-17.90074	9.76404	0
961	-92.75838	192.83979	284.7845	-51.26121	-187.95777	237.59164	-84.62168	-240.03265	-80.55333	-65.90727	-27.66478	2.44101	0
962	-82.99434	207.48585	289.66652	-63.46626	-185.51676	247.35568	-84.62168	-215.62255	-82.99434	-68.34828	-30.10579	-4.88202	0
963	-73.2303	212.36787	284.7845	-70.78929	-178.19373	247.35568	-79.73966	-220.50457	-82.99434	-68.34828	-30.10579	-2.44101	0
964	-70.78929	205.04484	275.02046	-68.34828	-173.31171	240.03265	-79.73966	-266.88376	-85.43535	-70.78929	-30.10579	0	0
965	-70.78929	202.60383	272.57945	-65.90727	-170.8707	237.59164	-79.73966	-303.49891	-90.31737	-73.2303	-30.10579	0	0
966	-75.67131	195.2808	270.13844	-61.02525	-173.31171	232.70962	-84.62168	-332.79103	-92.75838	-75.67131	-32.5468	0	0
967	-78.11232	185.51676	262.81541	-53.70222	-170.8707	222.94558	-87.06269	-366.96517	-92.75838	-73.2303	-32.5468	0	0
968	-87.87636	173.31171	260.3744	-43.93818	-173.31171	215.62255	-87.06269	-369.40618	-87.87636	-70.78929	-27.66478	4.88202	0
