samplenr	I	II	III	aVR	aVL	aVF	V1	V2	V3	V4	V5	V6	measurement
0	-78.11232	-99.26774	-21.15542	87.06269	-30.10579	-60.21158	86.24902	161.92033	112.28646	-187.95777	-292.10753	-305.12625	0
1	-78.11232	-96.82673	-18.71441	87.06269	-30.10579	-57.77057	86.24902	161.92033	114.72747	-187.95777	-292.10753	-305.12625	0
2	-78.11232	-99.26774	-21.15542	87.06269	-30.10579	-60.21158	91.13104	166.80235	119.60949	-185.51676	-292.10753	-305.12625	0
3	-78.11232	-104.14976	-26.03744	89.5037	-27.66478	-65.0936	96.01306	166.80235	122.0505	-183.07575	-284.7845	-302.68524	0
4	-80.55333	-109.03178	-28.47845	94.38572	-27.66478	-69.97562	98.45407	166.80235	122.0505	-178.19373	-279.90248	-300.24423	0
5	-85.43535	-116.35481	-30.91946	99.26774	-27.66478	-74.85764	103.33609	176.56639	119.60949	-178.19373	-277.46147	-300.24423	0
6	-85.43535	-123.67784	-38.24249	104.14976	-25.22377	-82.18067	108.21811	174.12538	117.16848	-175.75272	-277.46147	-297.80322	0
7	-82.99434	-133.44188	-50.44754	106.59077	-17.90074	-91.94471	113.10013	176.56639	117.16848	-173.31171	-275.02046	-297.80322	0
8	-82.99434	-140.76491	-57.77057	111.47279	-13.01872	-99.26774	117.98215	171.68437	117.16848	-173.31171	-272.57945	-295.36221	0
9	-82.99434	-145.64693	-62.65259	113.9138	-10.57771	-104.14976	117.98215	166.80235	117.16848	-175.75272	-279.90248	-295.36221	0
10	-82.99434	-143.20592	-60.21158	111.47279	-13.01872	-101.70875	115.54114	169.24336	119.60949	-178.19373	-287.22551	-300.24423	0
11	-78.11232	-140.76491	-62.65259	109.03178	-8.1367	-101.70875	110.65912	169.24336	119.60949	-183.07575	-294.54854	-305.12625	0
12	-73.2303	-135.88289	-62.65259	104.14976	-5.69569	-99.26774	105.7771	169.24336	117.16848	-185.51676	-299.43056	-310.00827	0
13	-73.2303	-133.44188	-60.21158	101.70875	-8.1367	-96.82673	103.33609	169.24336	114.72747	-187.95777	-299.43056	-312.44928	0
14	-78.11232	-126.11885	-48.00653	101.70875	-15.45973	-87.06269	98.45407	164.36134	112.28646	-187.95777	-299.43056	-314.89029	0
15	-80.55333	-118.79582	-38.24249	99.26774	-22.78276	-79.73966	93.57205	169.24336	107.40444	-185.51676	-296.98955	-312.44928	0
16	-85.43535	-118.79582	-33.36047	101.70875	-27.66478	-77.29865	96.01306	164.36134	104.96343	-183.07575	-292.10753	-310.00827	0
17	-85.43535	-118.79582	-33.36047	101.70875	-27.66478	-77.29865	100.89508	164.36134	104.96343	-178.19373	-287.22551	-302.68524	0
18	-87.87636	-121.23683	-33.36047	104.14976	-27.66478	-77.29865	103.33609	159.47932	109.84545	-173.31171	-277.46147	-297.80322	0
19	-92.75838	-123.67784	-30.91946	106.59077	-32.5468	-77.29865	105.7771	157.03831	117.16848	-165.98868	-272.57945	-290.48019	0
20	-90.31737	-123.67784	-33.36047	106.59077	-30.10579	-79.73966	103.33609	161.92033	122.0505	-165.98868	-270.13844	-288.03918	0
21	-82.99434	-126.11885	-43.12451	104.14976	-20.34175	-84.62168	100.89508	166.80235	124.49151	-163.54767	-270.13844	-285.59817	0
22	-82.99434	-128.55986	-45.56552	104.14976	-20.34175	-87.06269	100.89508	171.68437	129.37353	-161.10666	-270.13844	-288.03918	0
23	-80.55333	-123.67784	-43.12451	101.70875	-20.34175	-84.62168	96.01306	171.68437	129.37353	-161.10666	-270.13844	-292.9212	0
24	-80.55333	-121.23683	-40.6835	99.26774	-20.34175	-82.18067	96.01306	171.68437	124.49151	-158.66565	-270.13844	-295.36221	0
25	-80.55333	-123.67784	-43.12451	101.70875	-20.34175	-84.62168	98.45407	181.44841	122.0505	-158.66565	-272.57945	-295.36221	0
26	-78.11232	-123.67784	-45.56552	99.26774	-17.90074	-84.62168	100.89508	176.56639	117.16848	-161.10666	-275.02046	-295.36221	0
27	-78.11232	-121.23683	-43.12451	99.26774	-17.90074	-82.18067	103.33609	176.56639	114.72747	-161.10666	-277.46147	-297.80322	0
28	-73.2303	-118.79582	-45.56552	94.38572	-15.45973	-82.18067	103.33609	171.68437	112.28646	-161.10666	-279.90248	-302.68524	0
29	-70.78929	-121.23683	-50.44754	94.38572	-10.57771	-87.06269	105.7771	169.24336	112.28646	-158.66565	-279.90248	-302.68524	0
30	-73.2303	-123.67784	-50.44754	96.82673	-13.01872	-87.06269	105.7771	171.68437	117.16848	-158.66565	-282.34349	-300.24423	0
31	-75.67131	-121.23683	-45.56552	96.82673	-15.45973	-84.62168	105.7771	174.12538	119.60949	-156.22464	-282.34349	-297.80322	0
32	-75.67131	-118.79582	-43.12451	96.82673	-17.90074	-82.18067	105.7771	179.0074	126.93252	-151.34262	-277.46147	-295.36221	0
33	-78.11232	-113.9138	-35.80148	94.38572	-22.78276	-74.85764	110.65912	181.44841	129.37353	-146.4606	-272.57945	-292.9212	0
34	-82.99434	-111.47279	-28.47845	96.82673	-27.66478	-69.97562	115.54114	183.88942	131.81454	-139.13757	-265.25642	-288.03918	0
35	-82.99434	-106.59077	-23.59643	94.38572	-30.10579	-65.0936	120.42316	191.21245	134.25555	-131.81454	-260.3744	-280.71615	0
36	-80.55333	-99.26774	-18.71441	89.5037	-32.5468	-60.21158	125.30518	188.77144	134.25555	-126.93252	-253.05137	-273.39312	0
37	-75.67131	-94.38572	-18.71441	84.62168	-30.10579	-57.77057	130.1872	191.21245	136.69656	-122.0505	-250.61036	-270.95211	0
38	-70.78929	-89.5037	-18.71441	79.73966	-27.66478	-55.32956	132.62821	191.21245	136.69656	-122.0505	-253.05137	-273.39312	0
39	-68.34828	-87.06269	-18.71441	77.29865	-25.22377	-52.88855	132.62821	191.21245	139.13757	-122.0505	-257.93339	-278.27514	0
40	-65.90727	-89.5037	-23.59643	77.29865	-22.78276	-57.77057	132.62821	200.97649	146.4606	-119.60949	-262.81541	-283.15716	0
41	-63.46626	-89.5037	-26.03744	74.85764	-20.34175	-57.77057	132.62821	203.4175	148.90161	-122.0505	-267.69743	-288.03918	0
42	-58.58424	-84.62168	-26.03744	69.97562	-17.90074	-55.32956	130.1872	210.74053	151.34262	-122.0505	-272.57945	-295.36221	0
43	-53.70222	-82.18067	-28.47845	67.53461	-13.01872	-55.32956	130.1872	213.18154	151.34262	-119.60949	-270.13844	-300.24423	0
44	-53.70222	-77.29865	-23.59643	65.0936	-15.45973	-50.44754	130.1872	215.62255	148.90161	-114.72747	-267.69743	-300.24423	0
45	-53.70222	-72.41663	-18.71441	62.65259	-17.90074	-45.56552	130.1872	218.06356	144.01959	-109.84545	-260.3744	-292.9212	0
46	-48.8202	-65.0936	-16.2734	55.32956	-17.90074	-40.6835	130.1872	215.62255	141.57858	-104.96343	-250.61036	-283.15716	0
47	-46.37919	-57.77057	-11.39138	50.44754	-17.90074	-35.80148	130.1872	215.62255	141.57858	-100.08141	-245.72834	-275.83413	0
48	-46.37919	-55.32956	-8.95037	50.44754	-20.34175	-33.36047	127.74619	213.18154	144.01959	-97.6404	-235.9643	-268.5111	0
49	-46.37919	-50.44754	-4.06835	48.00653	-22.78276	-28.47845	125.30518	215.62255	148.90161	-92.75838	-231.08228	-263.62908	0
50	-46.37919	-48.00653	-1.62734	45.56552	-22.78276	-26.03744	125.30518	220.50457	156.22464	-87.87636	-226.20026	-261.18807	0
51	-43.93818	-45.56552	-1.62734	43.12451	-22.78276	-23.59643	125.30518	225.38659	163.54767	-78.11232	-223.75925	-256.30605	0
52	-43.93818	-38.24249	6.50936	40.6835	-25.22377	-16.2734	125.30518	232.70962	168.42969	-70.78929	-221.31824	-256.30605	0
53	-41.49717	-28.47845	13.83239	33.36047	-27.66478	-8.95037	125.30518	235.15063	168.42969	-63.46626	-216.43622	-258.74706	0
54	-41.49717	-21.15542	21.15542	30.91946	-32.5468	-1.62734	125.30518	237.59164	168.42969	-53.70222	-216.43622	-256.30605	0
55	-39.05616	-16.2734	23.59643	26.03744	-32.5468	4.06835	125.30518	235.15063	168.42969	-46.37919	-211.5542	-251.42403	0
56	-36.61515	-13.83239	23.59643	23.59643	-30.10579	4.06835	125.30518	225.38659	163.54767	-41.49717	-206.67218	-246.54201	0
57	-34.17414	-11.39138	23.59643	21.15542	-30.10579	6.50936	122.86417	215.62255	161.10666	-39.05616	-201.79016	-241.65999	0
58	-34.17414	-11.39138	23.59643	21.15542	-30.10579	6.50936	115.54114	203.4175	158.66565	-41.49717	-199.34915	-239.21898	0
59	-34.17414	-11.39138	23.59643	21.15542	-30.10579	6.50936	110.65912	193.65346	156.22464	-39.05616	-194.46713	-231.89595	0
60	-34.17414	-11.39138	23.59643	21.15542	-30.10579	6.50936	103.33609	186.33043	156.22464	-36.61515	-192.02612	-227.01393	0
61	-34.17414	-8.95037	26.03744	21.15542	-30.10579	8.95037	98.45407	179.0074	156.22464	-36.61515	-189.58511	-222.13191	0
62	-31.73313	-1.62734	30.91946	16.2734	-32.5468	13.83239	91.13104	174.12538	153.78363	-39.05616	-192.02612	-222.13191	0
63	-26.85111	4.06835	30.91946	11.39138	-27.66478	16.2734	86.24902	166.80235	146.4606	-43.93818	-192.02612	-224.57292	0
64	-26.85111	16.2734	43.12451	4.06835	-34.98781	28.47845	83.80801	161.92033	141.57858	-41.49717	-192.02612	-222.13191	0
65	-19.52808	30.91946	50.44754	-6.50936	-34.98781	40.6835	81.367	157.03831	136.69656	-41.49717	-189.58511	-217.24989	0
66	-14.64606	40.6835	55.32956	-13.83239	-34.98781	48.00653	76.48498	147.27427	131.81454	-43.93818	-187.1441	-217.24989	0
67	-14.64606	45.56552	60.21158	-16.2734	-37.42882	52.88855	69.16195	142.39225	124.49151	-46.37919	-189.58511	-219.6909	0
68	-14.64606	55.32956	69.97562	-21.15542	-42.31084	62.65259	59.39791	132.62821	119.60949	-51.26121	-194.46713	-224.57292	0
69	-9.76404	67.53461	77.29865	-28.47845	-42.31084	72.41663	54.51589	132.62821	122.0505	-48.8202	-192.02612	-224.57292	0
70	-4.88202	72.41663	77.29865	-33.36047	-39.86983	74.85764	47.19286	132.62821	124.49151	-51.26121	-196.90814	-227.01393	0
71	-2.44101	67.53461	69.97562	-33.36047	-34.98781	67.53461	39.86983	132.62821	124.49151	-56.14323	-199.34915	-229.45494	0
72	-7.32303	60.21158	67.53461	-26.03744	-37.42882	62.65259	34.98781	132.62821	124.49151	-58.58424	-204.23117	-236.77797	0
73	-7.32303	57.77057	65.0936	-26.03744	-34.98781	60.21158	34.98781	130.1872	119.60949	-63.46626	-204.23117	-239.21898	0
74	0	57.77057	57.77057	-28.47845	-27.66478	57.77057	37.42882	127.74619	117.16848	-61.02525	-201.79016	-234.33696	0
75	-2.44101	40.6835	43.12451	-18.71441	-22.78276	40.6835	37.42882	125.30518	112.28646	-61.02525	-199.34915	-231.89595	0
76	-7.32303	26.03744	33.36047	-8.95037	-20.34175	28.47845	37.42882	120.42316	107.40444	-63.46626	-194.46713	-224.57292	0
77	-7.32303	18.71441	26.03744	-6.50936	-15.45973	21.15542	39.86983	115.54114	102.52242	-61.02525	-189.58511	-219.6909	0
78	-7.32303	11.39138	18.71441	-1.62734	-13.01872	13.83239	39.86983	113.10013	102.52242	-61.02525	-187.1441	-217.24989	0
79	-9.76404	4.06835	13.83239	1.62734	-10.57771	8.95037	37.42882	113.10013	104.96343	-56.14323	-184.70309	-212.36787	0
80	-9.76404	0.81367	11.39138	4.06835	-10.57771	6.50936	34.98781	117.98215	109.84545	-53.70222	-184.70309	-209.92686	0
81	-12.20505	-1.62734	11.39138	6.50936	-13.01872	4.06835	34.98781	120.42316	112.28646	-53.70222	-184.70309	-209.92686	0
82	-17.08707	-1.62734	16.2734	8.95037	-17.90074	6.50936	34.98781	125.30518	117.16848	-51.26121	-184.70309	-214.80888	0
83	-17.08707	-8.95037	8.95037	11.39138	-13.01872	-1.62734	37.42882	125.30518	119.60949	-51.26121	-184.70309	-222.13191	0
84	-17.08707	-16.2734	0.81367	16.2734	-10.57771	-8.95037	42.31084	127.74619	119.60949	-51.26121	-184.70309	-222.13191	0
85	-19.52808	-23.59643	-4.06835	21.15542	-8.1367	-13.83239	47.19286	125.30518	114.72747	-53.70222	-187.1441	-227.01393	0
86	-24.4101	-30.91946	-6.50936	26.03744	-10.57771	-18.71441	47.19286	120.42316	107.40444	-58.58424	-189.58511	-229.45494	0
87	-31.73313	-48.00653	-16.2734	38.24249	-8.1367	-33.36047	49.63387	117.98215	102.52242	-61.02525	-192.02612	-231.89595	0
88	-36.61515	-69.97562	-33.36047	52.88855	-3.25468	-52.88855	52.07488	113.10013	97.6404	-68.34828	-194.46713	-234.33696	0
89	-43.93818	-84.62168	-40.6835	62.65259	-3.25468	-62.65259	52.07488	108.21811	90.31737	-75.67131	-201.79016	-241.65999	0
90	-51.26121	-99.26774	-48.00653	74.85764	-3.25468	-74.85764	52.07488	105.7771	85.43535	-85.43535	-211.5542	-251.42403	0
91	-58.58424	-111.47279	-52.88855	84.62168	-3.25468	-82.18067	56.9569	105.7771	80.55333	-95.19939	-221.31824	-258.74706	0
92	-61.02525	-121.23683	-60.21158	89.5037	-0.81367	-91.94471	61.83892	105.7771	78.11232	-100.08141	-231.08228	-268.5111	0
93	-63.46626	-126.11885	-62.65259	94.38572	-0.81367	-94.38572	64.27993	100.89508	70.78929	-109.84545	-238.40531	-283.15716	0
94	-65.90727	-123.67784	-57.77057	94.38572	-5.69569	-91.94471	64.27993	96.01306	61.02525	-114.72747	-248.16935	-295.36221	0
95	-65.90727	-121.23683	-55.32956	91.94471	-5.69569	-89.5037	66.72094	93.57205	53.70222	-122.0505	-255.49238	-302.68524	0
96	-68.34828	-123.67784	-55.32956	94.38572	-8.1367	-89.5037	69.16195	88.69003	51.26121	-124.49151	-255.49238	-305.12625	0
97	-68.34828	-126.11885	-57.77057	96.82673	-5.69569	-91.94471	71.60296	88.69003	46.37919	-126.93252	-260.3744	-310.00827	0
98	-70.78929	-128.55986	-57.77057	99.26774	-8.1367	-94.38572	71.60296	83.80801	41.49717	-131.81454	-262.81541	-317.3313	0
99	-75.67131	-135.88289	-60.21158	104.14976	-8.1367	-99.26774	71.60296	86.24902	41.49717	-131.81454	-267.69743	-317.3313	0
100	-78.11232	-143.20592	-65.0936	109.03178	-8.1367	-104.14976	71.60296	91.13104	43.93818	-131.81454	-267.69743	-317.3313	1000	P+0
101	-80.55333	-150.52895	-69.97562	113.9138	-5.69569	-111.47279	71.60296	96.01306	51.26121	-129.37353	-267.69743	-312.44928	0
102	-80.55333	-150.52895	-69.97562	113.9138	-5.69569	-111.47279	69.16195	98.45407	56.14323	-126.93252	-267.69743	-312.44928	0
103	-78.11232	-143.20592	-65.0936	109.03178	-8.1367	-104.14976	64.27993	98.45407	56.14323	-124.49151	-262.81541	-312.44928	0
104	-73.2303	-135.88289	-62.65259	104.14976	-5.69569	-99.26774	61.83892	96.01306	56.14323	-122.0505	-262.81541	-307.56726	0
105	-65.90727	-128.55986	-62.65259	96.82673	-3.25468	-96.82673	61.83892	96.01306	58.58424	-119.60949	-257.93339	-302.68524	0
106	-61.02525	-128.55986	-67.53461	94.38572	2.44101	-99.26774	64.27993	91.13104	56.14323	-119.60949	-250.61036	-295.36221	0
107	-68.34828	-126.11885	-57.77057	96.82673	-5.69569	-91.94471	69.16195	91.13104	53.70222	-117.16848	-248.16935	-290.48019	0
108	-68.34828	-126.11885	-57.77057	96.82673	-5.69569	-91.94471	71.60296	91.13104	53.70222	-117.16848	-243.28733	-285.59817	0
109	-68.34828	-123.67784	-55.32956	94.38572	-8.1367	-89.5037	74.04397	91.13104	53.70222	-114.72747	-243.28733	-283.15716	0
110	-68.34828	-126.11885	-57.77057	96.82673	-5.69569	-91.94471	76.48498	98.45407	58.58424	-112.28646	-243.28733	-283.15716	0
111	-68.34828	-126.11885	-57.77057	96.82673	-5.69569	-91.94471	78.92599	103.33609	65.90727	-109.84545	-243.28733	-280.71615	0
112	-73.2303	-128.55986	-55.32956	99.26774	-10.57771	-91.94471	78.92599	110.65912	73.2303	-104.96343	-240.84632	-280.71615	0
113	-78.11232	-131.00087	-52.88855	104.14976	-13.01872	-91.94471	81.367	113.10013	75.67131	-104.96343	-235.9643	-283.15716	0
114	-73.2303	-123.67784	-50.44754	96.82673	-13.01872	-87.06269	81.367	113.10013	75.67131	-104.96343	-235.9643	-285.59817	0
115	-70.78929	-121.23683	-50.44754	94.38572	-10.57771	-87.06269	83.80801	113.10013	73.2303	-104.96343	-233.52329	-285.59817	0
116	-73.2303	-123.67784	-50.44754	96.82673	-13.01872	-87.06269	83.80801	110.65912	73.2303	-102.52242	-228.64127	-283.15716	0
117	-78.11232	-128.55986	-50.44754	101.70875	-15.45973	-89.5037	88.69003	113.10013	73.2303	-100.08141	-226.20026	-283.15716	0
118	-85.43535	-135.88289	-50.44754	109.03178	-17.90074	-94.38572	93.57205	113.10013	73.2303	-102.52242	-226.20026	-283.15716	0
119	-82.99434	-135.88289	-52.88855	109.03178	-15.45973	-94.38572	93.57205	113.10013	75.67131	-102.52242	-226.20026	-283.15716	0
120	-82.99434	-138.3239	-55.32956	109.03178	-15.45973	-96.82673	93.57205	117.98215	80.55333	-100.08141	-226.20026	-280.71615	0
121	-85.43535	-143.20592	-57.77057	113.9138	-15.45973	-101.70875	93.57205	122.86417	87.87636	-95.19939	-221.31824	-275.83413	0
122	-87.87636	-143.20592	-55.32956	113.9138	-17.90074	-99.26774	93.57205	127.74619	92.75838	-90.31737	-221.31824	-275.83413	0
123	-87.87636	-143.20592	-55.32956	113.9138	-17.90074	-99.26774	96.01306	127.74619	92.75838	-90.31737	-218.87723	-275.83413	0
124	-85.43535	-133.44188	-48.00653	109.03178	-20.34175	-91.94471	96.01306	127.74619	92.75838	-90.31737	-218.87723	-275.83413	0
125	-80.55333	-123.67784	-43.12451	101.70875	-20.34175	-84.62168	93.57205	127.74619	92.75838	-90.31737	-218.87723	-275.83413	0
126	-80.55333	-113.9138	-33.36047	96.82673	-25.22377	-74.85764	93.57205	125.30518	87.87636	-92.75838	-218.87723	-273.39312	0
127	-82.99434	-109.03178	-26.03744	94.38572	-30.10579	-67.53461	91.13104	125.30518	82.99434	-97.6404	-221.31824	-283.15716	0
128	-82.99434	-104.14976	-21.15542	91.94471	-32.5468	-62.65259	88.69003	122.86417	82.99434	-102.52242	-223.75925	-290.48019	0
129	-82.99434	-99.26774	-16.2734	89.5037	-34.98781	-57.77057	88.69003	125.30518	85.43535	-100.08141	-221.31824	-290.48019	0
130	-82.99434	-104.14976	-21.15542	91.94471	-32.5468	-62.65259	88.69003	135.06922	95.19939	-95.19939	-221.31824	-288.03918	0
131	-85.43535	-113.9138	-28.47845	99.26774	-30.10579	-72.41663	88.69003	149.71528	109.84545	-85.43535	-213.99521	-285.59817	0
132	-87.87636	-126.11885	-38.24249	106.59077	-25.22377	-82.18067	93.57205	174.12538	136.69656	-68.34828	-201.79016	-280.71615	0
133	-87.87636	-138.3239	-50.44754	111.47279	-20.34175	-94.38572	98.45407	205.85851	173.31171	-43.93818	-182.26208	-270.95211	0
134	-85.43535	-143.20592	-57.77057	113.9138	-15.45973	-101.70875	108.21811	252.2377	224.57292	-13.83239	-160.29299	-258.74706	0
135	-73.2303	-140.76491	-67.53461	106.59077	-3.25468	-104.14976	122.86417	313.26295	290.48019	30.10579	-131.00087	-244.101	0
136	-58.58424	-135.88289	-77.29865	96.82673	9.76404	-106.59077	139.95124	386.49325	373.47453	83.80801	-96.01306	-224.57292	0
137	-43.93818	-126.11885	-82.18067	84.62168	19.52808	-104.14976	157.03831	474.36961	480.87897	154.5973	-52.07488	-200.16282	0
138	-26.85111	-104.14976	-77.29865	65.0936	24.4101	-91.94471	174.12538	574.45102	612.69351	244.91467	8.95037	-163.54767	0
139	-2.44101	-77.29865	-74.85764	38.24249	36.61515	-77.29865	191.21245	691.6195	771.35916	366.96517	89.5037	-114.72747	0
140	25.22377	-45.56552	-69.97562	8.95037	46.37919	-57.77057	213.18154	838.0801	969.08097	525.63082	192.02612	-52.88855	0
141	59.39791	-13.83239	-72.41663	-23.59643	65.90727	-43.12451	232.70962	1004.06878	1200.97692	725.79364	333.6047	32.5468	0
142	91.13104	18.71441	-72.41663	-55.32956	82.99434	-26.03744	257.11972	1174.93948	1452.40095	962.57161	506.91641	142.39225	0
143	137.51023	65.0936	-72.41663	-101.70875	104.96343	-4.06835	281.52982	1338.48715	1717.65737	1235.96473	721.72529	279.08881	0
144	193.65346	111.47279	-82.18067	-152.96996	139.13757	16.2734	305.93992	1487.38876	1988.60948	1531.32694	960.94427	437.75446	0
145	242.47366	157.85198	-84.62168	-199.34915	163.54767	38.24249	330.35002	1606.99825	2240.03351	1828.31649	1214.80931	618.3892	0
146	281.52982	213.99521	-67.53461	-248.16935	175.75272	74.85764	344.99608	1653.37744	2427.99128	2094.38658	1466.23334	806.34697	0
147	308.38093	282.34349	-26.03744	-294.54854	168.42969	128.55986	347.43709	1619.2033	2535.39572	2299.43142	1687.55158	989.42272	0
148	330.35002	360.45581	30.91946	-345.80975	151.34262	196.90814	325.468	1477.62472	2520.74966	2401.95384	1846.21723	1148.08837	0
149	332.79103	433.68611	101.70875	-382.4249	117.16848	267.69743	281.52982	1209.11362	2320.58684	2353.13364	1907.24248	1255.49281	0
150	308.38093	494.71136	187.1441	-401.95298	61.02525	340.92773	213.18154	801.46495	1905.61514	2123.6787	1846.21723	1296.98998	0
151	271.76578	526.44449	255.49238	-399.51197	9.76404	392.18894	127.74619	310.82194	1327.90944	1750.20417	1680.22855	1270.13887	0
152	230.26861	516.68045	287.22551	-372.66086	-27.66478	401.95298	30.10579	-219.6909	624.89856	1255.49281	1410.09011	1170.05746	0
153	171.68437	465.41924	294.54854	-318.95864	-61.83892	379.98389	-65.90727	-744.50805	-122.86417	694.06051	1078.11275	1018.71484	0
154	105.7771	372.66086	267.69743	-238.40531	-81.367	321.39965	-158.66565	-1237.59207	-860.04919	130.1872	719.28428	838.0801	0
155	44.75185	260.3744	216.43622	-152.96996	-86.24902	238.40531	-251.42403	-1652.56377	-1506.91684	-375.91554	384.86591	655.00435	0
156	0	145.64693	145.64693	-72.41663	-71.60296	145.64693	-341.7414	-1947.92598	-1982.91379	-761.59512	111.47279	498.77971	0
157	-31.73313	35.80148	67.53461	-1.62734	-49.63387	50.44754	-424.73574	-2126.11971	-2283.15802	-1022.78319	-93.57205	369.40618	0
158	-53.70222	-52.88855	0.81367	52.88855	-27.66478	-26.03744	-500.40705	-2228.64213	-2434.50064	-1174.12581	-223.75925	281.52982	0
159	-56.14323	-121.23683	-65.0936	87.06269	4.88202	-94.38572	-576.07836	-2267.69829	-2463.79276	-1225.38702	-289.66652	232.70962	0
160	-39.05616	-170.05703	-131.00087	104.14976	46.37919	-150.52895	-641.98563	-2257.93425	-2419.85458	-1215.62298	-314.07662	208.29952	0
161	-14.64606	-204.23117	-189.58511	109.03178	87.87636	-196.90814	-693.24684	-2211.55506	-2327.0962	-1171.6848	-311.63561	198.53548	0
162	8.1367	-233.52329	-240.84632	111.47279	124.49151	-235.9643	-724.97997	-2131.00173	-2200.16368	-1098.4545	-287.22551	198.53548	0
163	32.5468	-248.16935	-279.90248	106.59077	156.22464	-262.81541	-734.74401	-2028.47931	-2058.5851	-1015.46016	-248.16935	208.29952	0
164	56.9569	-248.16935	-304.31258	94.38572	180.63474	-275.02046	-729.86199	-1918.63386	-1914.56551	-925.14279	-204.23117	227.8276	0
165	83.80801	-233.52329	-316.51763	74.85764	200.16282	-275.02046	-710.33391	-1796.58336	-1765.6639	-827.50239	-150.52895	254.67871	0
166	110.65912	-204.23117	-314.07662	45.56552	212.36787	-257.93339	-681.04179	-1669.65084	-1611.88027	-727.42098	-88.69003	286.41184	0
167	130.1872	-167.61602	-296.98955	18.71441	212.36787	-231.08228	-644.42664	-1530.51327	-1458.09664	-622.45755	-25.22377	320.58598	0
168	147.27427	-126.11885	-272.57945	-11.39138	209.92686	-199.34915	-598.04745	-1384.05267	-1299.43099	-512.6121	43.12451	359.64214	0
169	164.36134	-84.62168	-248.16935	-40.6835	205.04484	-165.17501	-549.22725	-1232.71005	-1135.88332	-400.32564	113.9138	398.6983	0
170	179.0074	-45.56552	-223.75925	-67.53461	200.16282	-133.44188	-500.40705	-1071.60339	-969.89464	-290.48019	179.82107	437.75446	0
171	188.77144	-11.39138	-199.34915	-89.5037	192.83979	-104.14976	-446.70483	-912.93774	-813.67	-185.51676	245.72834	471.9286	0
172	196.09447	18.71441	-177.38006	-106.59077	187.95777	-79.73966	-395.44362	-766.47714	-669.65041	-92.75838	301.87157	496.3387	0
173	196.09447	38.24249	-157.85198	-116.35481	178.19373	-60.21158	-344.18241	-639.54462	-545.1589	-16.2734	348.25076	513.42577	0
174	191.21245	48.00653	-143.20592	-118.79582	168.42969	-48.00653	-300.24423	-534.58119	-442.63648	49.63387	382.4249	523.18981	0
175	183.88942	52.88855	-131.00087	-118.79582	158.66565	-38.24249	-258.74706	-449.14584	-359.64214	96.01306	409.27601	528.07183	0
176	174.12538	52.88855	-121.23683	-113.9138	148.90161	-33.36047	-227.01393	-390.5616	-301.0579	127.74619	423.92207	525.63082	0
177	161.92033	52.88855	-109.03178	-106.59077	136.69656	-28.47845	-197.72181	-344.18241	-259.56073	147.27427	428.80409	515.86678	0
178	144.83326	50.44754	-94.38572	-96.82673	119.60949	-21.15542	-175.75272	-307.56726	-227.8276	159.47932	431.2451	501.22072	0
179	132.62821	48.00653	-84.62168	-89.5037	109.84545	-18.71441	-158.66565	-278.27514	-203.4175	169.24336	426.36308	489.01567	0
180	125.30518	55.32956	-69.97562	-89.5037	97.6404	-6.50936	-146.4606	-253.86504	-183.88942	171.68437	421.48106	476.81062	0
181	115.54114	60.21158	-55.32956	-87.06269	85.43535	4.06835	-139.13757	-234.33696	-166.80235	174.12538	414.15803	464.60557	0
182	110.65912	62.65259	-48.00653	-87.06269	80.55333	8.95037	-131.81454	-214.80888	-149.71528	176.56639	406.835	452.40052	0
183	103.33609	65.0936	-38.24249	-84.62168	70.78929	13.83239	-124.49151	-195.2808	-135.06922	179.0074	406.835	440.19547	0
184	100.89508	65.0936	-35.80148	-82.18067	68.34828	16.2734	-114.72747	-180.63474	-120.42316	183.88942	399.51197	430.43143	0
185	91.13104	65.0936	-26.03744	-77.29865	58.58424	21.15542	-102.52242	-161.10666	-105.7771	188.77144	399.51197	425.54941	0
186	83.80801	62.65259	-21.15542	-72.41663	53.70222	21.15542	-90.31737	-146.4606	-93.57205	193.65346	399.51197	418.22638	0
187	78.92599	57.77057	-21.15542	-67.53461	51.26121	18.71441	-78.11232	-131.81454	-83.80801	198.53548	399.51197	410.90335	0
188	69.16195	55.32956	-13.83239	-62.65259	41.49717	21.15542	-68.34828	-119.60949	-74.04397	198.53548	399.51197	401.13931	0
189	61.83892	52.88855	-8.95037	-57.77057	36.61515	23.59643	-63.46626	-109.84545	-69.16195	198.53548	397.07096	393.81628	0
190	54.51589	50.44754	-4.06835	-52.88855	29.29212	23.59643	-58.58424	-97.6404	-64.27993	198.53548	389.74793	381.61123	0
191	52.07488	43.12451	-8.95037	-48.00653	31.73313	18.71441	-58.58424	-90.31737	-59.39791	198.53548	384.86591	369.40618	0
192	52.07488	40.6835	-11.39138	-45.56552	31.73313	16.2734	-58.58424	-85.43535	-52.07488	198.53548	382.4249	359.64214	0
193	52.07488	40.6835	-11.39138	-45.56552	31.73313	16.2734	-56.14323	-82.99434	-52.07488	200.97649	384.86591	352.31911	0
194	52.07488	38.24249	-13.83239	-45.56552	34.17414	13.83239	-56.14323	-82.99434	-49.63387	205.85851	384.86591	352.31911	0
195	56.9569	40.6835	-16.2734	-48.00653	36.61515	13.83239	-53.70222	-82.99434	-44.75185	210.74053	392.18894	354.76012	0
196	61.83892	45.56552	-16.2734	-52.88855	39.05616	16.2734	-51.26121	-85.43535	-44.75185	218.06356	401.95298	362.08315	0
197	66.72094	57.77057	-8.95037	-62.65259	39.05616	26.03744	-48.8202	-85.43535	-44.75185	222.94558	409.27601	371.84719	0
198	74.04397	67.53461	-6.50936	-69.97562	41.49717	30.91946	-51.26121	-87.87636	-49.63387	227.8276	419.04005	379.17022	0
199	74.04397	69.97562	-4.06835	-72.41663	39.05616	33.36047	-56.14323	-90.31737	-49.63387	230.26861	423.92207	386.49325	0
200	74.04397	74.85764	0.81367	-74.85764	36.61515	38.24249	-58.58424	-85.43535	-49.63387	237.59164	428.80409	391.37527	0
201	76.48498	79.73966	4.06835	-77.29865	36.61515	43.12451	-63.46626	-85.43535	-49.63387	242.47366	433.68611	398.6983	0
202	76.48498	82.18067	6.50936	-79.73966	36.61515	45.56552	-68.34828	-85.43535	-49.63387	244.91467	436.12712	401.13931	0
203	76.48498	79.73966	4.06835	-77.29865	36.61515	43.12451	-65.90727	-85.43535	-44.75185	252.2377	448.33217	408.46234	0
204	76.48498	74.85764	-1.62734	-74.85764	39.05616	38.24249	-61.02525	-85.43535	-42.31084	266.88376	460.53722	420.66739	0
205	74.04397	72.41663	-1.62734	-72.41663	39.05616	35.80148	-56.14323	-85.43535	-39.86983	276.6478	472.74227	432.87244	0
206	71.60296	69.97562	-1.62734	-69.97562	36.61515	35.80148	-51.26121	-92.75838	-39.86983	283.97083	487.38833	447.5185	0
207	74.04397	65.0936	-8.95037	-69.97562	41.49717	28.47845	-46.37919	-95.19939	-44.75185	291.29386	497.15237	457.28254	0
208	69.16195	57.77057	-11.39138	-62.65259	41.49717	23.59643	-46.37919	-100.08141	-47.19286	296.17588	506.91641	464.60557	0
209	66.72094	57.77057	-8.95037	-62.65259	39.05616	26.03744	-48.8202	-104.96343	-52.07488	298.61689	514.23944	469.48759	0
210	66.72094	60.21158	-6.50936	-62.65259	36.61515	28.47845	-53.70222	-109.84545	-56.9569	298.61689	514.23944	471.9286	0
211	69.16195	65.0936	-4.06835	-67.53461	36.61515	30.91946	-61.02525	-112.28646	-59.39791	298.61689	514.23944	474.36961	0
212	74.04397	69.97562	-4.06835	-72.41663	39.05616	33.36047	-68.34828	-117.16848	-59.39791	303.49891	519.12146	476.81062	0
213	76.48498	72.41663	-4.06835	-74.85764	41.49717	35.80148	-73.2303	-122.0505	-61.83892	308.38093	526.44449	481.69264	0
214	83.80801	79.73966	-4.06835	-82.18067	43.93818	38.24249	-75.67131	-126.93252	-59.39791	318.14497	538.64954	493.89769	0
215	88.69003	84.62168	-4.06835	-87.06269	46.37919	40.6835	-75.67131	-131.81454	-59.39791	327.90901	550.85459	506.10274	0
216	93.57205	91.94471	-1.62734	-91.94471	48.8202	45.56552	-78.11232	-141.57858	-61.83892	335.23204	565.50065	518.30779	0
217	96.01306	91.94471	-4.06835	-94.38572	51.26121	45.56552	-80.55333	-148.90161	-66.72094	344.99608	580.14671	528.07183	0
218	100.89508	96.82673	-4.06835	-99.26774	53.70222	48.00653	-85.43535	-153.78363	-71.60296	352.31911	594.79277	540.27688	0
219	105.7771	106.59077	0.81367	-106.59077	53.70222	55.32956	-92.75838	-161.10666	-76.48498	359.64214	604.55681	552.48193	0
220	110.65912	113.9138	4.06835	-111.47279	53.70222	60.21158	-100.08141	-165.98868	-81.367	362.08315	611.87984	559.80496	0
221	105.7771	118.79582	13.83239	-111.47279	46.37919	67.53461	-104.96343	-170.8707	-83.80801	369.40618	619.20287	574.45102	0
222	103.33609	118.79582	16.2734	-111.47279	43.93818	67.53461	-109.84545	-175.75272	-83.80801	379.17022	633.84893	589.09708	0
223	100.89508	121.23683	21.15542	-111.47279	41.49717	72.41663	-109.84545	-178.19373	-83.80801	388.93426	650.936	608.62516	0
224	103.33609	126.11885	23.59643	-113.9138	41.49717	74.85764	-107.40444	-185.51676	-83.80801	401.13931	665.58206	625.71223	0
225	103.33609	126.11885	23.59643	-113.9138	41.49717	74.85764	-104.96343	-192.83979	-83.80801	410.90335	682.66913	645.24031	0
226	100.89508	126.11885	26.03744	-113.9138	39.05616	77.29865	-104.96343	-202.60383	-88.69003	420.66739	702.19721	662.32738	0
227	108.21811	131.00087	23.59643	-118.79582	43.93818	77.29865	-107.40444	-212.36787	-96.01306	427.99042	714.40226	676.97344	0
228	115.54114	140.76491	26.03744	-128.55986	46.37919	84.62168	-112.28646	-224.57292	-105.7771	430.43143	726.60731	689.17849	0
229	117.98215	152.96996	35.80148	-135.88289	41.49717	94.38572	-124.49151	-236.77797	-115.54114	435.31345	733.93034	696.50152	0
230	120.42316	167.61602	48.00653	-143.20592	36.61515	109.03178	-139.13757	-246.54201	-125.30518	437.75446	738.81236	701.38354	0
231	125.30518	179.82107	55.32956	-152.96996	36.61515	118.79582	-151.34262	-256.30605	-130.1872	440.19547	743.69438	711.14758	0
232	127.74619	189.58511	62.65259	-157.85198	34.17414	126.11885	-161.10666	-263.62908	-135.06922	442.63648	751.01741	718.47061	0
233	132.62821	201.79016	69.97562	-167.61602	31.73313	135.88289	-168.42969	-273.39312	-139.95124	447.5185	760.78145	725.79364	0
234	132.62821	213.99521	82.18067	-172.49804	26.85111	148.08794	-173.31171	-285.59817	-144.83326	457.28254	770.54549	737.99869	0
235	135.06922	223.75925	89.5037	-179.82107	24.4101	157.85198	-175.75272	-295.36221	-149.71528	462.16456	782.75054	755.08576	0
236	142.39225	228.64127	87.06269	-184.70309	29.29212	157.85198	-173.31171	-307.56726	-154.5973	471.9286	799.83761	774.61384	0
237	147.27427	235.9643	89.5037	-192.02612	29.29212	162.734	-173.31171	-317.3313	-159.47932	481.69264	816.92468	791.70091	0
238	149.71528	238.40531	89.5037	-194.46713	31.73313	165.17501	-178.19373	-327.09534	-169.24336	484.13365	831.57074	806.34697	0
239	152.15629	240.84632	89.5037	-196.90814	31.73313	165.17501	-183.07575	-336.85938	-176.56639	491.45668	843.77579	820.99303	0
240	157.03831	243.28733	87.06269	-199.34915	36.61515	165.17501	-190.39878	-341.7414	-183.88942	493.89769	853.53983	833.19808	0
241	161.92033	243.28733	82.18067	-201.79016	41.49717	162.734	-195.2808	-349.06443	-188.77144	496.3387	863.30387	845.40313	0
242	164.36134	248.16935	84.62168	-206.67218	41.49717	167.61602	-202.60383	-356.38746	-196.09447	498.77971	865.74488	850.28515	0
243	166.80235	250.61036	84.62168	-209.11319	41.49717	167.61602	-209.92686	-366.1515	-200.97649	501.22072	873.06791	855.16717	0
244	171.68437	253.05137	82.18067	-211.5542	46.37919	167.61602	-214.80888	-375.91554	-205.85851	503.66173	877.94993	860.04919	0
245	176.56639	260.3744	84.62168	-218.87723	46.37919	172.49804	-217.24989	-383.23857	-210.74053	508.54375	887.71397	869.81323	0
246	179.0074	267.69743	89.5037	-223.75925	46.37919	179.82107	-222.13191	-395.44362	-218.06356	513.42577	895.037	882.01828	0
247	181.44841	275.02046	94.38572	-228.64127	43.93818	184.70309	-224.57292	-402.76665	-227.8276	518.30779	902.36003	889.34131	0
248	183.88942	279.90248	96.82673	-231.08228	43.93818	189.58511	-231.89595	-412.53069	-237.59164	520.7488	909.68306	899.10535	0
249	186.33043	284.7845	99.26774	-235.9643	43.93818	192.02612	-241.65999	-419.85372	-244.91467	523.18981	919.4471	911.3104	0
250	191.21245	294.54854	104.14976	-243.28733	43.93818	199.34915	-251.42403	-424.73574	-254.67871	523.18981	924.32912	921.07444	0
251	193.65346	304.31258	111.47279	-248.16935	41.49717	209.11319	-263.62908	-432.05877	-264.44275	523.18981	926.77013	930.83848	0
252	198.53548	314.07662	116.35481	-255.49238	41.49717	216.43622	-275.83413	-439.3818	-269.32477	523.18981	934.09316	938.16151	0
253	200.97649	321.39965	121.23683	-260.3744	41.49717	221.31824	-280.71615	-444.26382	-271.76578	528.07183	943.8572	947.92555	0
254	203.4175	328.72268	126.11885	-265.25642	39.05616	228.64127	-283.15716	-451.58685	-274.20679	532.95385	951.18023	960.1306	0
255	208.29952	333.6047	126.11885	-270.13844	41.49717	231.08228	-285.59817	-458.90988	-279.08881	535.39486	958.50326	967.45363	0
256	208.29952	338.48672	131.00087	-272.57945	39.05616	235.9643	-288.03918	-468.67392	-286.41184	535.39486	963.38528	974.77666	0
257	210.74053	343.36874	133.44188	-277.46147	39.05616	238.40531	-288.03918	-475.99695	-293.73487	535.39486	965.82629	974.77666	0
258	213.18154	345.80975	133.44188	-279.90248	41.49717	240.84632	-290.48019	-480.87897	-301.0579	530.51284	968.2673	974.77666	0
259	218.06356	345.80975	128.55986	-282.34349	46.37919	238.40531	-297.80322	-488.202	-313.26295	523.18981	960.94427	969.89464	0
260	215.62255	348.25076	133.44188	-282.34349	41.49717	240.84632	-305.12625	-488.202	-323.02699	513.42577	953.62124	962.57161	0
261	213.18154	355.57379	143.20592	-284.7845	36.61515	250.61036	-312.44928	-490.64301	-330.35002	503.66173	946.29821	957.68959	0
262	210.74053	362.89682	152.96996	-287.22551	29.29212	257.93339	-319.77231	-495.52503	-335.23204	496.3387	936.53417	950.36656	0
263	215.62255	375.10187	160.29299	-294.54854	29.29212	267.69743	-324.65433	-495.52503	-337.67305	489.01567	934.09316	945.48454	0
264	213.18154	382.4249	170.05703	-296.98955	21.96909	277.46147	-324.65433	-497.96604	-340.11406	486.57466	926.77013	945.48454	0
265	213.18154	384.86591	172.49804	-299.43056	21.96909	279.90248	-324.65433	-497.96604	-340.11406	484.13365	924.32912	945.48454	0
266	213.18154	389.74793	177.38006	-301.87157	19.52808	284.7845	-322.21332	-500.40705	-342.55507	479.25163	921.88811	945.48454	0
267	218.06356	392.18894	174.93905	-304.31258	21.96909	284.7845	-319.77231	-500.40705	-349.8781	474.36961	914.56508	940.60252	0
268	222.94558	389.74793	167.61602	-306.75359	29.29212	279.90248	-317.3313	-497.96604	-349.8781	467.04658	909.68306	935.7205	0
269	220.50457	382.4249	162.734	-301.87157	29.29212	272.57945	-314.89029	-493.08402	-352.31911	462.16456	897.47801	928.39747	0
270	215.62255	370.21985	155.41097	-292.10753	31.73313	262.81541	-314.89029	-483.31998	-352.31911	452.40052	885.27296	916.19242	0
271	213.18154	365.33783	152.96996	-289.66652	31.73313	260.3744	-314.89029	-478.43796	-352.31911	440.19547	868.18589	903.98737	0
272	208.29952	365.33783	157.85198	-287.22551	26.85111	262.81541	-314.89029	-473.55594	-349.8781	427.99042	851.09882	886.9003	0
273	203.4175	372.66086	170.05703	-287.22551	17.08707	272.57945	-312.44928	-466.23291	-347.43709	415.78537	834.01175	867.37222	0
274	198.53548	377.54288	179.82107	-287.22551	9.76404	279.90248	-310.00827	-463.7919	-344.99608	403.58032	814.48367	847.84414	0
275	193.65346	379.98389	187.1441	-287.22551	4.88202	284.7845	-305.12625	-461.35089	-342.55507	391.37527	792.51458	828.31606	0
276	188.77144	384.86591	196.90814	-287.22551	-3.25468	292.10753	-300.24423	-461.35089	-342.55507	376.72921	775.42751	811.22899	0
277	183.88942	387.30692	204.23117	-284.7845	-10.57771	296.98955	-295.36221	-456.46887	-342.55507	366.96517	755.89943	789.2599	0
278	179.0074	384.86591	206.67218	-282.34349	-13.01872	296.98955	-290.48019	-451.58685	-340.11406	354.76012	738.81236	769.73182	0
279	176.56639	379.98389	204.23117	-277.46147	-13.01872	292.10753	-288.03918	-441.82281	-337.67305	344.99608	719.28428	750.20374	0
280	169.24336	370.21985	201.79016	-270.13844	-15.45973	287.22551	-285.59817	-429.61776	-332.79103	332.79103	694.87418	730.67566	0
281	164.36134	358.0148	194.46713	-260.3744	-15.45973	277.46147	-280.71615	-417.41271	-323.02699	320.58598	675.3461	711.14758	0
282	161.92033	348.25076	187.1441	-255.49238	-13.01872	267.69743	-273.39312	-402.76665	-310.82194	310.82194	653.37701	689.17849	0
283	157.03831	338.48672	182.26208	-248.16935	-13.01872	260.3744	-266.07009	-390.5616	-301.0579	298.61689	631.40792	664.76839	0
284	154.5973	336.04571	182.26208	-245.72834	-13.01872	260.3744	-258.74706	-378.35655	-293.73487	286.41184	606.99782	642.7993	0
285	149.71528	326.28167	177.38006	-238.40531	-13.01872	253.05137	-251.42403	-368.59251	-283.97083	276.6478	585.02873	623.27122	0
286	144.83326	316.51763	172.49804	-231.08228	-13.01872	245.72834	-246.54201	-361.26948	-276.6478	262.00174	563.05964	598.86112	0
287	137.51023	311.63561	174.93905	-223.75925	-17.90074	243.28733	-239.21898	-351.50544	-269.32477	247.35568	538.64954	574.45102	0
288	130.1872	306.75359	177.38006	-218.87723	-22.78276	243.28733	-239.21898	-341.7414	-264.44275	230.26861	511.79843	547.59991	0
289	117.98215	294.54854	177.38006	-206.67218	-30.10579	235.9643	-234.33696	-327.09534	-257.11972	215.62255	487.38833	523.18981	0
290	108.21811	279.90248	172.49804	-194.46713	-32.5468	226.20026	-229.45494	-307.56726	-242.47366	203.4175	460.53722	496.3387	1500	QRS+0
291	98.45407	270.13844	172.49804	-184.70309	-37.42882	221.31824	-227.01393	-290.48019	-230.26861	186.33043	428.80409	464.60557	0
292	93.57205	270.13844	177.38006	-182.26208	-42.31084	223.75925	-219.6909	-270.95211	-215.62255	171.68437	397.07096	430.43143	0
293	88.69003	262.81541	174.93905	-174.93905	-42.31084	218.87723	-207.48585	-251.42403	-200.97649	154.5973	370.21985	396.25729	0
294	83.80801	248.16935	165.17501	-165.17501	-39.86983	206.67218	-192.83979	-234.33696	-186.33043	142.39225	343.36874	364.52416	0
295	78.92599	238.40531	160.29299	-157.85198	-39.86983	199.34915	-175.75272	-212.36787	-171.68437	130.1872	316.51763	335.23204	0
296	76.48498	228.64127	152.96996	-152.96996	-37.42882	192.02612	-163.54767	-197.72181	-157.03831	115.54114	289.66652	303.49891	0
297	74.04397	218.87723	145.64693	-145.64693	-34.98781	182.26208	-148.90161	-175.75272	-142.39225	100.89508	262.81541	271.76578	0
298	69.16195	206.67218	138.3239	-138.3239	-34.98781	172.49804	-139.13757	-156.22464	-125.30518	88.69003	238.40531	242.47366	0
299	64.27993	194.46713	131.00087	-128.55986	-32.5468	162.734	-134.25555	-131.81454	-108.21811	74.04397	209.11319	213.18154	0
300	56.9569	184.70309	128.55986	-121.23683	-34.98781	157.85198	-129.37353	-102.52242	-83.80801	64.27993	179.82107	183.88942	0
301	49.63387	174.93905	126.11885	-111.47279	-37.42882	150.52895	-122.0505	-75.67131	-61.83892	49.63387	150.52895	152.15629	0
302	44.75185	165.17501	121.23683	-104.14976	-37.42882	143.20592	-117.16848	-48.8202	-39.86983	34.98781	118.79582	120.42316	0
303	39.86983	160.29299	121.23683	-99.26774	-39.86983	140.76491	-109.84545	-24.4101	-20.34175	22.78276	94.38572	91.13104	0
304	32.5468	148.08794	116.35481	-89.5037	-42.31084	133.44188	-100.08141	0	-0.81367	13.01872	72.41663	66.72094	0
305	22.78276	131.00087	109.03178	-77.29865	-42.31084	121.23683	-82.99434	24.4101	17.08707	5.69569	50.44754	44.75185	0
306	17.90074	116.35481	99.26774	-67.53461	-39.86983	109.03178	-70.78929	43.93818	34.17414	-4.06835	33.36047	22.78276	0
307	17.90074	104.14976	87.06269	-60.21158	-34.98781	96.82673	-58.58424	59.39791	46.37919	-13.83239	11.39138	-1.62734	0
308	17.90074	91.94471	74.85764	-55.32956	-27.66478	84.62168	-48.8202	78.92599	58.58424	-24.4101	-5.69569	-23.59643	0
309	8.1367	72.41663	65.0936	-40.6835	-27.66478	69.97562	-36.61515	100.89508	75.67131	-29.29212	-25.22377	-40.6835	0
310	3.25468	55.32956	52.88855	-28.47845	-25.22377	55.32956	-26.85111	122.86417	90.31737	-39.05616	-44.75185	-62.65259	0
311	0	45.56552	45.56552	-23.59643	-22.78276	45.56552	-19.52808	142.39225	104.96343	-48.8202	-66.72094	-82.18067	0
312	-2.44101	33.36047	35.80148	-16.2734	-17.90074	33.36047	-12.20505	161.92033	119.60949	-58.58424	-83.80801	-100.08141	0
313	-9.76404	23.59643	33.36047	-6.50936	-20.34175	28.47845	0	176.56639	129.37353	-65.90727	-100.89508	-117.16848	0
314	-19.52808	13.83239	33.36047	1.62734	-25.22377	23.59643	9.76404	188.77144	136.69656	-75.67131	-113.9138	-134.25555	0
315	-24.4101	6.50936	30.91946	8.95037	-27.66478	18.71441	17.90074	198.53548	139.13757	-87.87636	-131.00087	-153.78363	0
316	-24.4101	6.50936	30.91946	8.95037	-27.66478	18.71441	27.66478	200.97649	136.69656	-102.52242	-150.52895	-173.31171	0
317	-29.29212	-1.62734	28.47845	13.83239	-30.10579	13.83239	37.42882	205.85851	134.25555	-114.72747	-167.61602	-190.39878	0
318	-31.73313	-8.95037	23.59643	18.71441	-27.66478	6.50936	47.19286	210.74053	129.37353	-129.37353	-184.70309	-207.48585	0
319	-31.73313	-8.95037	23.59643	18.71441	-27.66478	6.50936	52.07488	215.62255	126.93252	-139.13757	-201.79016	-222.13191	0
320	-34.17414	-16.2734	18.71441	23.59643	-27.66478	0.81367	54.51589	220.50457	126.93252	-153.78363	-218.87723	-234.33696	0
321	-36.61515	-21.15542	16.2734	28.47845	-27.66478	-4.06835	56.9569	225.38659	126.93252	-163.54767	-233.52329	-246.54201	0
322	-41.49717	-33.36047	8.95037	35.80148	-25.22377	-13.83239	59.39791	230.26861	124.49151	-173.31171	-248.16935	-256.30605	0
323	-46.37919	-45.56552	0.81367	45.56552	-25.22377	-23.59643	64.27993	232.70962	124.49151	-178.19373	-253.05137	-263.62908	0
324	-43.93818	-48.00653	-4.06835	45.56552	-20.34175	-26.03744	71.60296	237.59164	124.49151	-178.19373	-257.93339	-263.62908	0
325	-46.37919	-50.44754	-4.06835	48.00653	-22.78276	-28.47845	78.92599	237.59164	122.0505	-183.07575	-260.3744	-266.07009	0
326	-53.70222	-57.77057	-4.06835	55.32956	-25.22377	-30.91946	83.80801	232.70962	114.72747	-190.39878	-265.25642	-268.5111	0
327	-56.14323	-67.53461	-11.39138	60.21158	-22.78276	-40.6835	91.13104	230.26861	109.84545	-195.2808	-272.57945	-273.39312	0
328	-58.58424	-74.85764	-16.2734	65.0936	-22.78276	-45.56552	96.01306	230.26861	104.96343	-202.60383	-275.02046	-275.83413	0
329	-56.14323	-77.29865	-21.15542	65.0936	-17.90074	-50.44754	103.33609	230.26861	102.52242	-202.60383	-277.46147	-275.83413	0
330	-56.14323	-79.73966	-23.59643	67.53461	-17.90074	-52.88855	105.7771	230.26861	100.08141	-212.36787	-287.22551	-283.15716	0
331	-61.02525	-87.06269	-26.03744	72.41663	-17.90074	-57.77057	105.7771	227.8276	92.75838	-222.13191	-296.98955	-290.48019	0
332	-61.02525	-94.38572	-33.36047	77.29865	-15.45973	-65.0936	105.7771	225.38659	87.87636	-227.01393	-301.87157	-297.80322	0
333	-58.58424	-94.38572	-35.80148	74.85764	-13.01872	-65.0936	105.7771	222.94558	82.99434	-231.89595	-306.75359	-302.68524	0
334	-58.58424	-94.38572	-35.80148	74.85764	-13.01872	-65.0936	105.7771	218.06356	73.2303	-234.33696	-306.75359	-305.12625	0
335	-56.14323	-89.5037	-33.36047	72.41663	-13.01872	-62.65259	105.7771	210.74053	63.46626	-239.21898	-309.1946	-307.56726	0
336	-56.14323	-89.5037	-33.36047	72.41663	-13.01872	-62.65259	103.33609	200.97649	53.70222	-244.101	-311.63561	-312.44928	0
337	-61.02525	-87.06269	-26.03744	72.41663	-17.90074	-57.77057	103.33609	196.09447	48.8202	-248.98302	-316.51763	-317.3313	0
338	-63.46626	-84.62168	-21.15542	72.41663	-22.78276	-52.88855	105.7771	188.77144	43.93818	-256.30605	-321.39965	-322.21332	0
339	-68.34828	-84.62168	-16.2734	74.85764	-27.66478	-50.44754	105.7771	183.88942	41.49717	-258.74706	-323.84066	-327.09534	0
340	-68.34828	-84.62168	-16.2734	74.85764	-27.66478	-50.44754	110.65912	183.88942	41.49717	-263.62908	-328.72268	-331.97736	0
341	-70.78929	-87.06269	-16.2734	77.29865	-27.66478	-52.88855	110.65912	183.88942	41.49717	-268.5111	-336.04571	-336.85938	0
342	-73.2303	-91.94471	-18.71441	82.18067	-27.66478	-55.32956	110.65912	183.88942	36.61515	-273.39312	-343.36874	-341.7414	0
343	-73.2303	-96.82673	-23.59643	84.62168	-25.22377	-60.21158	113.10013	183.88942	31.73313	-275.83413	-343.36874	-346.62342	0
344	-73.2303	-101.70875	-28.47845	87.06269	-22.78276	-65.0936	115.54114	181.44841	24.4101	-275.83413	-345.80975	-346.62342	0
345	-73.2303	-109.03178	-35.80148	89.5037	-20.34175	-72.41663	115.54114	176.56639	17.08707	-278.27514	-345.80975	-346.62342	0
346	-75.67131	-111.47279	-35.80148	91.94471	-20.34175	-74.85764	115.54114	166.80235	9.76404	-283.15716	-348.25076	-346.62342	0
347	-68.34828	-113.9138	-45.56552	89.5037	-13.01872	-79.73966	115.54114	161.92033	6.50936	-283.15716	-350.69177	-346.62342	0
348	-70.78929	-111.47279	-40.6835	89.5037	-15.45973	-77.29865	115.54114	157.03831	6.50936	-285.59817	-348.25076	-346.62342	0
349	-78.11232	-109.03178	-30.91946	91.94471	-25.22377	-69.97562	113.10013	154.5973	6.50936	-285.59817	-350.69177	-344.18241	0
350	-80.55333	-109.03178	-28.47845	94.38572	-27.66478	-69.97562	110.65912	154.5973	6.50936	-285.59817	-353.13278	-344.18241	0
351	-82.99434	-106.59077	-23.59643	94.38572	-30.10579	-65.0936	108.21811	157.03831	6.50936	-285.59817	-355.57379	-344.18241	0
352	-85.43535	-106.59077	-21.15542	94.38572	-32.5468	-65.0936	108.21811	159.47932	9.76404	-285.59817	-355.57379	-346.62342	0
353	-87.87636	-106.59077	-18.71441	96.82673	-34.98781	-62.65259	108.21811	159.47932	6.50936	-283.15716	-353.13278	-349.06443	0
354	-90.31737	-104.14976	-13.83239	96.82673	-39.86983	-60.21158	110.65912	159.47932	4.06835	-278.27514	-353.13278	-346.62342	0
355	-85.43535	-106.59077	-21.15542	94.38572	-32.5468	-65.0936	110.65912	157.03831	1.62734	-278.27514	-350.69177	-346.62342	0
356	-85.43535	-111.47279	-26.03744	96.82673	-30.10579	-69.97562	113.10013	149.71528	-0.81367	-275.83413	-348.25076	-344.18241	0
357	-80.55333	-111.47279	-30.91946	94.38572	-25.22377	-72.41663	117.98215	149.71528	-0.81367	-275.83413	-345.80975	-341.7414	0
358	-75.67131	-111.47279	-35.80148	91.94471	-20.34175	-74.85764	117.98215	144.83326	-3.25468	-278.27514	-348.25076	-341.7414	0
359	-78.11232	-111.47279	-33.36047	94.38572	-22.78276	-72.41663	115.54114	142.39225	-3.25468	-278.27514	-350.69177	-341.7414	0
360	-80.55333	-109.03178	-28.47845	94.38572	-27.66478	-69.97562	113.10013	144.83326	-0.81367	-280.71615	-355.57379	-346.62342	0
361	-82.99434	-109.03178	-26.03744	94.38572	-30.10579	-67.53461	113.10013	144.83326	-0.81367	-285.59817	-360.45581	-346.62342	0
362	-82.99434	-109.03178	-26.03744	94.38572	-30.10579	-67.53461	110.65912	144.83326	-3.25468	-288.03918	-365.33783	-353.94645	0
363	-82.99434	-106.59077	-23.59643	94.38572	-30.10579	-65.0936	110.65912	144.83326	-8.1367	-290.48019	-367.77884	-356.38746	0
364	-87.87636	-111.47279	-23.59643	99.26774	-32.5468	-67.53461	113.10013	144.83326	-13.01872	-290.48019	-365.33783	-356.38746	0
365	-87.87636	-111.47279	-23.59643	99.26774	-32.5468	-67.53461	115.54114	144.83326	-13.01872	-288.03918	-360.45581	-351.50544	0
366	-85.43535	-111.47279	-26.03744	96.82673	-30.10579	-69.97562	117.98215	142.39225	-15.45973	-285.59817	-355.57379	-344.18241	0
367	-85.43535	-111.47279	-26.03744	96.82673	-30.10579	-69.97562	117.98215	142.39225	-15.45973	-283.15716	-355.57379	-344.18241	0
368	-87.87636	-111.47279	-23.59643	99.26774	-32.5468	-67.53461	117.98215	142.39225	-13.01872	-283.15716	-353.13278	-344.18241	0
369	-87.87636	-113.9138	-26.03744	99.26774	-32.5468	-69.97562	117.98215	144.83326	-8.1367	-280.71615	-350.69177	-339.30039	0
370	-85.43535	-109.03178	-23.59643	96.82673	-32.5468	-67.53461	115.54114	149.71528	-0.81367	-278.27514	-350.69177	-339.30039	0
371	-80.55333	-101.70875	-21.15542	89.5037	-30.10579	-62.65259	113.10013	154.5973	1.62734	-280.71615	-353.13278	-339.30039	0
372	-80.55333	-101.70875	-21.15542	89.5037	-30.10579	-62.65259	113.10013	157.03831	6.50936	-280.71615	-355.57379	-344.18241	0
373	-87.87636	-101.70875	-13.83239	94.38572	-37.42882	-57.77057	113.10013	159.47932	6.50936	-280.71615	-355.57379	-349.06443	0
374	-87.87636	-104.14976	-16.2734	94.38572	-37.42882	-60.21158	113.10013	159.47932	4.06835	-278.27514	-358.0148	-351.50544	0
375	-87.87636	-104.14976	-16.2734	94.38572	-37.42882	-60.21158	115.54114	161.92033	4.06835	-275.83413	-358.0148	-351.50544	0
376	-87.87636	-106.59077	-18.71441	96.82673	-34.98781	-62.65259	115.54114	159.47932	1.62734	-275.83413	-355.57379	-353.94645	0
377	-92.75838	-111.47279	-18.71441	101.70875	-37.42882	-65.0936	117.98215	157.03831	-0.81367	-275.83413	-358.0148	-356.38746	0
378	-97.6404	-118.79582	-21.15542	106.59077	-39.86983	-69.97562	117.98215	157.03831	-0.81367	-275.83413	-358.0148	-358.82847	0
379	-100.08141	-121.23683	-21.15542	109.03178	-39.86983	-72.41663	115.54114	157.03831	1.62734	-275.83413	-358.0148	-358.82847	0
380	-100.08141	-123.67784	-23.59643	111.47279	-39.86983	-74.85764	115.54114	161.92033	6.50936	-278.27514	-360.45581	-356.38746	0
381	-102.52242	-126.11885	-23.59643	113.9138	-39.86983	-74.85764	115.54114	169.24336	12.20505	-278.27514	-358.0148	-351.50544	0
382	-104.96343	-128.55986	-23.59643	116.35481	-42.31084	-77.29865	115.54114	176.56639	17.08707	-275.83413	-360.45581	-351.50544	0
383	-107.40444	-128.55986	-21.15542	116.35481	-44.75185	-74.85764	117.98215	181.44841	17.08707	-275.83413	-360.45581	-351.50544	0
384	-102.52242	-128.55986	-26.03744	113.9138	-39.86983	-77.29865	117.98215	181.44841	19.52808	-273.39312	-360.45581	-351.50544	0
385	-100.08141	-123.67784	-23.59643	111.47279	-39.86983	-74.85764	120.42316	186.33043	21.96909	-268.5111	-360.45581	-351.50544	0
386	-95.19939	-121.23683	-26.03744	106.59077	-34.98781	-74.85764	122.86417	188.77144	21.96909	-266.07009	-358.0148	-356.38746	0
387	-95.19939	-126.11885	-30.91946	109.03178	-32.5468	-79.73966	125.30518	186.33043	21.96909	-263.62908	-358.0148	-358.82847	0
388	-92.75838	-123.67784	-30.91946	106.59077	-32.5468	-77.29865	125.30518	186.33043	21.96909	-263.62908	-360.45581	-363.71049	0
389	-90.31737	-121.23683	-30.91946	104.14976	-30.10579	-77.29865	127.74619	186.33043	26.85111	-261.18807	-355.57379	-363.71049	0
390	-92.75838	-128.55986	-35.80148	109.03178	-30.10579	-82.18067	127.74619	191.21245	31.73313	-261.18807	-353.13278	-363.71049	0
391	-97.6404	-138.3239	-40.6835	116.35481	-30.10579	-89.5037	125.30518	193.65346	34.17414	-263.62908	-350.69177	-363.71049	0
392	-97.6404	-143.20592	-45.56552	118.79582	-27.66478	-94.38572	125.30518	198.53548	36.61515	-266.07009	-350.69177	-363.71049	0
393	-90.31737	-133.44188	-43.12451	111.47279	-25.22377	-89.5037	125.30518	200.97649	39.05616	-266.07009	-350.69177	-361.26948	0
394	-90.31737	-126.11885	-35.80148	106.59077	-27.66478	-82.18067	130.1872	203.4175	41.49717	-261.18807	-348.25076	-358.82847	0
395	-90.31737	-121.23683	-30.91946	104.14976	-30.10579	-77.29865	132.62821	208.29952	41.49717	-256.30605	-345.80975	-361.26948	0
396	-95.19939	-116.35481	-21.15542	104.14976	-37.42882	-69.97562	135.06922	205.85851	41.49717	-251.42403	-345.80975	-363.71049	0
397	-95.19939	-109.03178	-13.83239	101.70875	-42.31084	-62.65259	139.95124	205.85851	41.49717	-246.54201	-345.80975	-368.59251	0
398	-90.31737	-99.26774	-8.95037	94.38572	-42.31084	-55.32956	142.39225	205.85851	43.93818	-239.21898	-343.36874	-373.47453	0
399	-97.6404	-96.82673	0.81367	96.82673	-49.63387	-48.00653	144.83326	205.85851	48.8202	-236.77797	-343.36874	-378.35655	0
400	-100.08141	-104.14976	-4.06835	101.70875	-49.63387	-55.32956	144.83326	205.85851	51.26121	-236.77797	-343.36874	-380.79756	0
401	-100.08141	-109.03178	-8.95037	104.14976	-47.19286	-60.21158	144.83326	208.29952	56.14323	-236.77797	-345.80975	-383.23857	0
402	-97.6404	-111.47279	-13.83239	104.14976	-42.31084	-62.65259	142.39225	210.74053	61.02525	-239.21898	-348.25076	-383.23857	0
403	-97.6404	-113.9138	-16.2734	104.14976	-42.31084	-65.0936	142.39225	213.18154	63.46626	-241.65999	-350.69177	-385.67958	0
404	-97.6404	-116.35481	-18.71441	106.59077	-39.86983	-67.53461	139.95124	215.62255	65.90727	-244.101	-353.13278	-388.12059	-1500	QRS-0
405	-100.08141	-116.35481	-16.2734	106.59077	-42.31084	-67.53461	139.95124	218.06356	68.34828	-241.65999	-358.0148	-388.12059	0
406	-100.08141	-116.35481	-16.2734	106.59077	-42.31084	-67.53461	139.95124	218.06356	68.34828	-236.77797	-358.0148	-388.12059	0
407	-97.6404	-113.9138	-16.2734	104.14976	-42.31084	-65.0936	139.95124	218.06356	68.34828	-234.33696	-360.45581	-388.12059	0
408	-97.6404	-113.9138	-16.2734	104.14976	-42.31084	-65.0936	139.95124	218.06356	70.78929	-229.45494	-360.45581	-388.12059	0
409	-97.6404	-111.47279	-13.83239	104.14976	-42.31084	-62.65259	144.83326	218.06356	70.78929	-227.01393	-358.0148	-390.5616	0
410	-97.6404	-106.59077	-8.95037	101.70875	-44.75185	-57.77057	144.83326	218.06356	73.2303	-222.13191	-358.0148	-390.5616	0
411	-95.19939	-109.03178	-13.83239	101.70875	-42.31084	-62.65259	142.39225	218.06356	78.11232	-222.13191	-355.57379	-385.67958	0
412	-95.19939	-113.9138	-18.71441	104.14976	-39.86983	-67.53461	139.95124	220.50457	80.55333	-224.57292	-355.57379	-380.79756	0
413	-92.75838	-118.79582	-26.03744	104.14976	-34.98781	-72.41663	137.51023	225.38659	82.99434	-227.01393	-353.13278	-378.35655	0
414	-92.75838	-118.79582	-26.03744	104.14976	-34.98781	-72.41663	137.51023	225.38659	85.43535	-229.45494	-353.13278	-378.35655	0
415	-90.31737	-118.79582	-28.47845	104.14976	-32.5468	-74.85764	132.62821	227.8276	85.43535	-229.45494	-355.57379	-378.35655	0
416	-90.31737	-116.35481	-26.03744	101.70875	-32.5468	-72.41663	127.74619	227.8276	85.43535	-227.01393	-355.57379	-378.35655	0
417	-92.75838	-116.35481	-23.59643	104.14976	-34.98781	-69.97562	127.74619	225.38659	85.43535	-224.57292	-355.57379	-375.91554	0
418	-92.75838	-111.47279	-18.71441	101.70875	-37.42882	-65.0936	127.74619	220.50457	82.99434	-222.13191	-355.57379	-378.35655	0
419	-92.75838	-104.14976	-11.39138	96.82673	-42.31084	-57.77057	125.30518	213.18154	75.67131	-224.57292	-358.0148	-383.23857	0
420	-92.75838	-101.70875	-8.95037	96.82673	-42.31084	-55.32956	122.86417	208.29952	75.67131	-224.57292	-358.0148	-380.79756	0
421	-90.31737	-101.70875	-11.39138	94.38572	-39.86983	-57.77057	120.42316	203.4175	75.67131	-222.13191	-358.0148	-378.35655	0
422	-90.31737	-104.14976	-13.83239	96.82673	-39.86983	-60.21158	120.42316	203.4175	78.11232	-224.57292	-355.57379	-371.03352	0
423	-90.31737	-106.59077	-16.2734	96.82673	-37.42882	-62.65259	120.42316	203.4175	80.55333	-222.13191	-353.13278	-368.59251	0
424	-90.31737	-113.9138	-23.59643	101.70875	-34.98781	-69.97562	120.42316	205.85851	82.99434	-222.13191	-348.25076	-363.71049	0
425	-90.31737	-118.79582	-28.47845	104.14976	-32.5468	-74.85764	120.42316	208.29952	87.87636	-217.24989	-343.36874	-358.82847	0
426	-92.75838	-121.23683	-28.47845	106.59077	-32.5468	-74.85764	120.42316	210.74053	90.31737	-209.92686	-338.48672	-356.38746	0
427	-95.19939	-121.23683	-26.03744	106.59077	-34.98781	-74.85764	120.42316	210.74053	90.31737	-207.48585	-333.6047	-356.38746	0
428	-95.19939	-118.79582	-23.59643	106.59077	-37.42882	-72.41663	125.30518	210.74053	92.75838	-202.60383	-333.6047	-358.82847	0
429	-90.31737	-113.9138	-23.59643	101.70875	-34.98781	-69.97562	127.74619	203.4175	87.87636	-205.04484	-333.6047	-366.1515	0
430	-90.31737	-111.47279	-21.15542	99.26774	-34.98781	-67.53461	125.30518	198.53548	85.43535	-205.04484	-338.48672	-373.47453	0
431	-87.87636	-109.03178	-21.15542	96.82673	-34.98781	-65.0936	125.30518	193.65346	80.55333	-209.92686	-343.36874	-378.35655	0
432	-82.99434	-109.03178	-26.03744	94.38572	-30.10579	-67.53461	125.30518	191.21245	80.55333	-212.36787	-350.69177	-380.79756	0
433	-82.99434	-113.9138	-30.91946	96.82673	-27.66478	-72.41663	122.86417	188.77144	78.11232	-214.80888	-355.57379	-385.67958	0
434	-75.67131	-116.35481	-40.6835	94.38572	-17.90074	-79.73966	117.98215	186.33043	75.67131	-219.6909	-358.0148	-390.5616	0
435	-73.2303	-118.79582	-45.56552	94.38572	-15.45973	-82.18067	110.65912	186.33043	75.67131	-219.6909	-360.45581	-393.00261	0
436	-78.11232	-121.23683	-43.12451	99.26774	-17.90074	-82.18067	108.21811	188.77144	80.55333	-212.36787	-355.57379	-390.5616	0
437	-82.99434	-121.23683	-38.24249	101.70875	-22.78276	-79.73966	108.21811	188.77144	82.99434	-205.04484	-350.69177	-388.12059	0
438	-87.87636	-121.23683	-33.36047	104.14976	-27.66478	-77.29865	108.21811	188.77144	85.43535	-195.2808	-343.36874	-385.67958	0
439	-87.87636	-121.23683	-33.36047	104.14976	-27.66478	-77.29865	110.65912	186.33043	85.43535	-190.39878	-336.04571	-380.79756	0
440	-92.75838	-121.23683	-28.47845	106.59077	-32.5468	-74.85764	110.65912	183.88942	87.87636	-187.95777	-331.16369	-375.91554	0
441	-97.6404	-116.35481	-18.71441	106.59077	-39.86983	-67.53461	115.54114	183.88942	92.75838	-180.63474	-326.28167	-366.1515	0
442	-92.75838	-109.03178	-16.2734	99.26774	-39.86983	-62.65259	117.98215	183.88942	95.19939	-180.63474	-321.39965	-358.82847	0
443	-87.87636	-109.03178	-21.15542	96.82673	-34.98781	-65.0936	115.54114	181.44841	95.19939	-180.63474	-321.39965	-353.94645	0
444	-87.87636	-111.47279	-23.59643	99.26774	-32.5468	-67.53461	113.10013	181.44841	95.19939	-183.07575	-321.39965	-351.50544	0
445	-87.87636	-111.47279	-23.59643	99.26774	-32.5468	-67.53461	108.21811	181.44841	95.19939	-183.07575	-323.84066	-349.06443	0
446	-87.87636	-109.03178	-21.15542	96.82673	-34.98781	-65.0936	105.7771	183.88942	97.6404	-178.19373	-321.39965	-346.62342	0
447	-85.43535	-106.59077	-21.15542	94.38572	-32.5468	-65.0936	105.7771	183.88942	97.6404	-173.31171	-318.95864	-344.18241	0
448	-87.87636	-109.03178	-21.15542	96.82673	-34.98781	-65.0936	105.7771	183.88942	97.6404	-173.31171	-316.51763	-344.18241	0
449	-87.87636	-113.9138	-26.03744	99.26774	-32.5468	-69.97562	108.21811	183.88942	97.6404	-170.8707	-316.51763	-346.62342	0
450	-80.55333	-113.9138	-33.36047	96.82673	-25.22377	-74.85764	113.10013	181.44841	97.6404	-168.42969	-314.07662	-349.06443	0
451	-75.67131	-116.35481	-40.6835	94.38572	-17.90074	-79.73966	113.10013	179.0074	97.6404	-170.8707	-316.51763	-353.94645	0
452	-75.67131	-113.9138	-38.24249	94.38572	-20.34175	-77.29865	113.10013	176.56639	95.19939	-178.19373	-321.39965	-358.82847	0
453	-73.2303	-111.47279	-38.24249	91.94471	-17.90074	-74.85764	113.10013	176.56639	95.19939	-180.63474	-323.84066	-366.1515	0
454	-73.2303	-109.03178	-35.80148	89.5037	-20.34175	-72.41663	110.65912	176.56639	92.75838	-187.95777	-328.72268	-373.47453	0
455	-73.2303	-106.59077	-33.36047	89.5037	-20.34175	-69.97562	105.7771	176.56639	90.31737	-187.95777	-333.6047	-380.79756	0
456	-75.67131	-104.14976	-28.47845	89.5037	-25.22377	-67.53461	100.89508	176.56639	90.31737	-187.95777	-333.6047	-385.67958	0
457	-78.11232	-99.26774	-21.15542	87.06269	-30.10579	-60.21158	100.89508	174.12538	90.31737	-185.51676	-333.6047	-385.67958	0
458	-78.11232	-99.26774	-21.15542	87.06269	-30.10579	-60.21158	105.7771	174.12538	90.31737	-180.63474	-326.28167	-385.67958	0
459	-78.11232	-99.26774	-21.15542	87.06269	-30.10579	-60.21158	108.21811	174.12538	90.31737	-180.63474	-323.84066	-385.67958	0
460	-80.55333	-104.14976	-23.59643	91.94471	-30.10579	-65.0936	113.10013	171.68437	92.75838	-175.75272	-321.39965	-383.23857	0
461	-80.55333	-111.47279	-30.91946	94.38572	-25.22377	-72.41663	113.10013	171.68437	95.19939	-175.75272	-318.95864	-378.35655	0
462	-82.99434	-118.79582	-35.80148	99.26774	-25.22377	-77.29865	115.54114	171.68437	95.19939	-175.75272	-316.51763	-371.03352	0
463	-82.99434	-123.67784	-40.6835	101.70875	-22.78276	-82.18067	113.10013	171.68437	95.19939	-178.19373	-316.51763	-368.59251	0
464	-85.43535	-128.55986	-43.12451	106.59077	-22.78276	-87.06269	110.65912	171.68437	95.19939	-180.63474	-316.51763	-366.1515	0
465	-87.87636	-133.44188	-45.56552	109.03178	-22.78276	-89.5037	108.21811	169.24336	95.19939	-180.63474	-314.07662	-366.1515	0
466	-82.99434	-131.00087	-48.00653	106.59077	-17.90074	-89.5037	105.7771	174.12538	97.6404	-178.19373	-309.1946	-363.71049	0
467	-80.55333	-123.67784	-43.12451	101.70875	-20.34175	-84.62168	105.7771	174.12538	97.6404	-173.31171	-304.31258	-363.71049	0
468	-78.11232	-116.35481	-38.24249	96.82673	-20.34175	-77.29865	105.7771	174.12538	97.6404	-170.8707	-301.87157	-363.71049	0
469	-75.67131	-111.47279	-35.80148	91.94471	-20.34175	-74.85764	110.65912	171.68437	97.6404	-170.8707	-296.98955	-363.71049	0
470	-70.78929	-101.70875	-30.91946	84.62168	-20.34175	-67.53461	110.65912	169.24336	95.19939	-170.8707	-296.98955	-363.71049	0
471	-68.34828	-101.70875	-33.36047	84.62168	-17.90074	-67.53461	113.10013	166.80235	92.75838	-170.8707	-296.98955	-358.82847	0
472	-68.34828	-101.70875	-33.36047	84.62168	-17.90074	-67.53461	113.10013	164.36134	92.75838	-175.75272	-299.43056	-356.38746	0
473	-70.78929	-106.59077	-35.80148	87.06269	-17.90074	-72.41663	110.65912	164.36134	87.87636	-180.63474	-301.87157	-353.94645	0
474	-70.78929	-113.9138	-43.12451	91.94471	-15.45973	-79.73966	108.21811	164.36134	87.87636	-185.51676	-301.87157	-353.94645	0
475	-75.67131	-121.23683	-45.56552	96.82673	-15.45973	-84.62168	108.21811	164.36134	87.87636	-185.51676	-301.87157	-353.94645	0
476	-78.11232	-123.67784	-45.56552	99.26774	-17.90074	-84.62168	105.7771	166.80235	92.75838	-180.63474	-299.43056	-353.94645	0
477	-78.11232	-126.11885	-48.00653	101.70875	-15.45973	-87.06269	108.21811	169.24336	97.6404	-175.75272	-296.98955	-351.50544	0
478	-80.55333	-128.55986	-48.00653	104.14976	-17.90074	-89.5037	110.65912	171.68437	97.6404	-170.8707	-292.10753	-351.50544	0
479	-80.55333	-128.55986	-48.00653	104.14976	-17.90074	-89.5037	115.54114	171.68437	100.08141	-170.8707	-289.66652	-351.50544	0
480	-82.99434	-131.00087	-48.00653	106.59077	-17.90074	-89.5037	117.98215	171.68437	100.08141	-165.98868	-289.66652	-351.50544	0
481	-85.43535	-131.00087	-45.56552	106.59077	-20.34175	-89.5037	120.42316	171.68437	102.52242	-163.54767	-289.66652	-349.06443	0
482	-82.99434	-131.00087	-48.00653	106.59077	-17.90074	-89.5037	117.98215	169.24336	102.52242	-168.42969	-292.10753	-349.06443	0
483	-82.99434	-131.00087	-48.00653	106.59077	-17.90074	-89.5037	115.54114	169.24336	100.08141	-173.31171	-296.98955	-353.94645	0
484	-78.11232	-128.55986	-50.44754	101.70875	-15.45973	-89.5037	113.10013	169.24336	100.08141	-178.19373	-296.98955	-358.82847	0
485	-75.67131	-128.55986	-52.88855	101.70875	-13.01872	-91.94471	108.21811	169.24336	100.08141	-178.19373	-296.98955	-361.26948	0
486	-70.78929	-128.55986	-57.77057	99.26774	-8.1367	-94.38572	103.33609	169.24336	100.08141	-178.19373	-296.98955	-363.71049	0
487	-70.78929	-128.55986	-57.77057	99.26774	-8.1367	-94.38572	103.33609	166.80235	100.08141	-175.75272	-294.54854	-361.26948	0
488	-73.2303	-126.11885	-52.88855	99.26774	-10.57771	-89.5037	105.7771	171.68437	102.52242	-168.42969	-287.22551	-356.38746	0
489	-73.2303	-126.11885	-52.88855	99.26774	-10.57771	-89.5037	105.7771	169.24336	104.96343	-165.98868	-284.7845	-351.50544	0
490	-73.2303	-126.11885	-52.88855	99.26774	-10.57771	-89.5037	105.7771	169.24336	104.96343	-163.54767	-282.34349	-346.62342	0
491	-73.2303	-128.55986	-55.32956	99.26774	-10.57771	-91.94471	105.7771	166.80235	104.96343	-163.54767	-279.90248	-344.18241	0
492	-78.11232	-128.55986	-50.44754	101.70875	-15.45973	-89.5037	108.21811	166.80235	107.40444	-163.54767	-277.46147	-339.30039	0
493	-82.99434	-128.55986	-45.56552	104.14976	-20.34175	-87.06269	108.21811	171.68437	109.84545	-161.10666	-275.02046	-336.85938	0
494	-80.55333	-126.11885	-45.56552	101.70875	-17.90074	-87.06269	105.7771	171.68437	107.40444	-165.98868	-275.02046	-339.30039	0
495	-80.55333	-126.11885	-45.56552	101.70875	-17.90074	-87.06269	100.89508	169.24336	107.40444	-168.42969	-277.46147	-341.7414	0
496	-82.99434	-128.55986	-45.56552	104.14976	-20.34175	-87.06269	100.89508	171.68437	109.84545	-163.54767	-275.02046	-344.18241	0
497	-82.99434	-128.55986	-45.56552	104.14976	-20.34175	-87.06269	103.33609	174.12538	109.84545	-158.66565	-272.57945	-344.18241	0
498	-82.99434	-128.55986	-45.56552	104.14976	-20.34175	-87.06269	108.21811	176.56639	109.84545	-156.22464	-267.69743	-341.7414	0
499	-78.11232	-131.00087	-52.88855	104.14976	-13.01872	-91.94471	108.21811	174.12538	107.40444	-156.22464	-267.69743	-341.7414	0
500	-78.11232	-131.00087	-52.88855	104.14976	-13.01872	-91.94471	110.65912	171.68437	104.96343	-156.22464	-270.13844	-341.7414	0
501	-80.55333	-133.44188	-52.88855	106.59077	-15.45973	-94.38572	110.65912	171.68437	104.96343	-156.22464	-272.57945	-341.7414	0
502	-80.55333	-135.88289	-55.32956	106.59077	-13.01872	-96.82673	110.65912	169.24336	104.96343	-158.66565	-270.13844	-339.30039	0
503	-82.99434	-135.88289	-52.88855	109.03178	-15.45973	-94.38572	110.65912	166.80235	104.96343	-163.54767	-275.02046	-336.85938	0
504	-85.43535	-138.3239	-52.88855	111.47279	-17.90074	-96.82673	110.65912	166.80235	104.96343	-168.42969	-277.46147	-336.85938	0
505	-82.99434	-133.44188	-50.44754	106.59077	-17.90074	-91.94471	108.21811	169.24336	104.96343	-168.42969	-277.46147	-336.85938	0
506	-82.99434	-133.44188	-50.44754	106.59077	-17.90074	-91.94471	108.21811	171.68437	107.40444	-165.98868	-275.02046	-341.7414	0
507	-82.99434	-133.44188	-50.44754	106.59077	-17.90074	-91.94471	108.21811	171.68437	107.40444	-163.54767	-275.02046	-344.18241	0
508	-80.55333	-126.11885	-45.56552	101.70875	-17.90074	-87.06269	108.21811	171.68437	104.96343	-161.10666	-275.02046	-346.62342	0
509	-78.11232	-126.11885	-48.00653	101.70875	-15.45973	-87.06269	108.21811	169.24336	100.08141	-161.10666	-275.02046	-349.06443	0
510	-75.67131	-121.23683	-45.56552	96.82673	-15.45973	-84.62168	108.21811	164.36134	95.19939	-158.66565	-275.02046	-351.50544	0
511	-75.67131	-118.79582	-43.12451	96.82673	-17.90074	-82.18067	105.7771	161.92033	92.75838	-156.22464	-279.90248	-356.38746	0
512	-73.2303	-118.79582	-45.56552	94.38572	-15.45973	-82.18067	105.7771	159.47932	95.19939	-156.22464	-279.90248	-356.38746	0
513	-70.78929	-121.23683	-50.44754	94.38572	-10.57771	-87.06269	105.7771	161.92033	100.08141	-156.22464	-282.34349	-351.50544	0
514	-70.78929	-121.23683	-50.44754	94.38572	-10.57771	-87.06269	105.7771	161.92033	102.52242	-156.22464	-282.34349	-351.50544	0
515	-70.78929	-121.23683	-50.44754	94.38572	-10.57771	-87.06269	105.7771	166.80235	107.40444	-156.22464	-282.34349	-351.50544	0
516	-68.34828	-118.79582	-50.44754	91.94471	-10.57771	-84.62168	105.7771	171.68437	114.72747	-148.90161	-279.90248	-351.50544	0
517	-63.46626	-111.47279	-48.00653	87.06269	-8.1367	-79.73966	110.65912	176.56639	119.60949	-141.57858	-272.57945	-346.62342	0
518	-63.46626	-109.03178	-45.56552	84.62168	-10.57771	-77.29865	110.65912	179.0074	122.0505	-136.69656	-267.69743	-346.62342	0
519	-63.46626	-96.82673	-33.36047	79.73966	-15.45973	-65.0936	113.10013	181.44841	119.60949	-131.81454	-265.25642	-344.18241	0
520	-63.46626	-89.5037	-26.03744	74.85764	-20.34175	-57.77057	115.54114	179.0074	119.60949	-129.37353	-262.81541	-341.7414	0
521	-61.02525	-89.5037	-28.47845	74.85764	-17.90074	-60.21158	117.98215	181.44841	122.0505	-124.49151	-262.81541	-336.85938	0
522	-61.02525	-87.06269	-26.03744	72.41663	-17.90074	-57.77057	122.86417	183.88942	129.37353	-122.0505	-257.93339	-329.53635	0
523	-63.46626	-87.06269	-23.59643	74.85764	-20.34175	-55.32956	125.30518	188.77144	134.25555	-122.0505	-260.3744	-324.65433	0
524	-61.02525	-89.5037	-28.47845	74.85764	-17.90074	-60.21158	130.1872	191.21245	136.69656	-122.0505	-262.81541	-324.65433	0
525	-56.14323	-89.5037	-33.36047	72.41663	-13.01872	-62.65259	132.62821	198.53548	139.13757	-122.0505	-262.81541	-327.09534	0
526	-51.26121	-84.62168	-33.36047	67.53461	-10.57771	-60.21158	132.62821	200.97649	144.01959	-117.16848	-262.81541	-329.53635	0
527	-53.70222	-74.85764	-21.15542	62.65259	-17.90074	-48.00653	132.62821	205.85851	146.4606	-112.28646	-255.49238	-331.97736	0
528	-56.14323	-69.97562	-13.83239	62.65259	-22.78276	-43.12451	132.62821	205.85851	146.4606	-112.28646	-253.05137	-331.97736	0
529	-56.14323	-60.21158	-4.06835	57.77057	-27.66478	-33.36047	135.06922	203.4175	141.57858	-109.84545	-250.61036	-329.53635	0
530	-56.14323	-50.44754	6.50936	52.88855	-32.5468	-23.59643	135.06922	200.97649	139.13757	-107.40444	-245.72834	-327.09534	0
531	-58.58424	-48.00653	11.39138	52.88855	-34.98781	-18.71441	135.06922	200.97649	141.57858	-102.52242	-240.84632	-319.77231	0
532	-65.90727	-48.00653	18.71441	55.32956	-42.31084	-16.2734	135.06922	203.4175	146.4606	-100.08141	-235.9643	-307.56726	0
533	-63.46626	-48.00653	16.2734	55.32956	-39.86983	-16.2734	137.51023	205.85851	151.34262	-97.6404	-233.52329	-297.80322	0
534	-56.14323	-45.56552	11.39138	50.44754	-34.98781	-18.71441	137.51023	213.18154	158.66565	-95.19939	-231.08228	-292.9212	0
535	-53.70222	-43.12451	11.39138	48.00653	-32.5468	-16.2734	139.95124	220.50457	163.54767	-90.31737	-226.20026	-290.48019	0
536	-46.37919	-38.24249	8.95037	40.6835	-27.66478	-16.2734	137.51023	225.38659	168.42969	-85.43535	-221.31824	-290.48019	0
537	-43.93818	-28.47845	16.2734	35.80148	-30.10579	-6.50936	137.51023	225.38659	168.42969	-82.99434	-218.87723	-292.9212	0
538	-41.49717	-16.2734	26.03744	28.47845	-34.98781	4.06835	132.62821	218.06356	163.54767	-82.99434	-213.99521	-295.36221	0
539	-39.05616	-8.95037	30.91946	23.59643	-34.98781	11.39138	127.74619	208.29952	156.22464	-82.99434	-211.5542	-295.36221	0
540	-36.61515	-6.50936	30.91946	21.15542	-34.98781	11.39138	120.42316	196.09447	151.34262	-82.99434	-209.11319	-295.36221	0
541	-29.29212	-4.06835	26.03744	16.2734	-27.66478	11.39138	108.21811	181.44841	144.01959	-82.99434	-209.11319	-290.48019	0
542	-29.29212	0.81367	30.91946	13.83239	-30.10579	16.2734	98.45407	166.80235	139.13757	-87.87636	-209.11319	-285.59817	0
543	-29.29212	6.50936	35.80148	11.39138	-32.5468	21.15542	88.69003	157.03831	136.69656	-87.87636	-209.11319	-278.27514	0
544	-24.4101	11.39138	35.80148	6.50936	-30.10579	23.59643	81.367	152.15629	134.25555	-87.87636	-211.5542	-273.39312	0
545	-19.52808	18.71441	38.24249	-1.62734	-27.66478	28.47845	78.92599	149.71528	139.13757	-87.87636	-209.11319	-273.39312	0
546	-19.52808	23.59643	43.12451	-1.62734	-30.10579	33.36047	71.60296	147.27427	141.57858	-82.99434	-206.67218	-278.27514	0
547	-17.08707	33.36047	50.44754	-8.95037	-32.5468	40.6835	69.16195	142.39225	139.13757	-80.55333	-201.79016	-278.27514	0
548	-17.08707	43.12451	60.21158	-13.83239	-37.42882	50.44754	66.72094	139.95124	136.69656	-75.67131	-194.46713	-278.27514	0
549	-12.20505	45.56552	57.77057	-16.2734	-34.98781	50.44754	64.27993	135.06922	131.81454	-73.2303	-189.58511	-275.83413	0
550	-7.32303	45.56552	52.88855	-18.71441	-30.10579	48.00653	61.83892	125.30518	126.93252	-73.2303	-189.58511	-273.39312	0
551	-4.88202	48.00653	52.88855	-21.15542	-27.66478	50.44754	56.9569	120.42316	122.0505	-73.2303	-187.1441	-268.5111	0
552	-7.32303	50.44754	57.77057	-21.15542	-32.5468	52.88855	52.07488	113.10013	122.0505	-78.11232	-187.1441	-261.18807	0
553	-7.32303	48.00653	55.32956	-21.15542	-30.10579	50.44754	49.63387	113.10013	122.0505	-80.55333	-189.58511	-253.86504	0
554	-7.32303	40.6835	48.00653	-16.2734	-27.66478	43.12451	47.19286	113.10013	124.49151	-82.99434	-194.46713	-251.42403	0
555	-12.20505	30.91946	43.12451	-8.95037	-27.66478	35.80148	44.75185	115.54114	126.93252	-85.43535	-194.46713	-251.42403	0
556	-14.64606	23.59643	38.24249	-4.06835	-25.22377	30.91946	39.86983	113.10013	126.93252	-85.43535	-196.90814	-258.74706	0
557	-17.08707	18.71441	35.80148	-1.62734	-25.22377	26.03744	37.42882	110.65912	122.0505	-87.87636	-196.90814	-261.18807	0
558	-14.64606	6.50936	21.15542	4.06835	-17.90074	13.83239	32.5468	108.21811	114.72747	-87.87636	-196.90814	-263.62908	0
559	-9.76404	0.81367	11.39138	4.06835	-10.57771	6.50936	32.5468	105.7771	107.40444	-87.87636	-196.90814	-266.07009	0
560	-7.32303	0.81367	8.95037	1.62734	-8.1367	4.06835	30.10579	98.45407	102.52242	-87.87636	-196.90814	-266.07009	0
561	-4.88202	0.81367	6.50936	1.62734	-5.69569	4.06835	27.66478	96.01306	97.6404	-90.31737	-201.79016	-268.5111	0
562	-2.44101	0.81367	4.06835	-1.62734	-3.25468	0.81367	22.78276	91.13104	95.19939	-95.19939	-204.23117	-266.07009	0
563	0	-1.62734	-1.62734	-1.62734	-0.81367	-1.62734	22.78276	93.57205	97.6404	-95.19939	-204.23117	-261.18807	0
564	0	-6.50936	-6.50936	1.62734	2.44101	-6.50936	25.22377	96.01306	100.08141	-95.19939	-206.67218	-263.62908	0
565	-7.32303	-13.83239	-6.50936	8.95037	-0.81367	-11.39138	27.66478	100.89508	102.52242	-95.19939	-206.67218	-270.95211	0
566	-17.08707	-28.47845	-11.39138	21.15542	-3.25468	-21.15542	27.66478	103.33609	104.96343	-92.75838	-206.67218	-278.27514	0
567	-19.52808	-33.36047	-13.83239	26.03744	-3.25468	-23.59643	30.10579	105.7771	104.96343	-92.75838	-204.23117	-283.15716	0
568	-21.96909	-38.24249	-16.2734	28.47845	-3.25468	-28.47845	34.98781	105.7771	102.52242	-92.75838	-204.23117	-290.48019	0
569	-26.85111	-48.00653	-21.15542	35.80148	-3.25468	-35.80148	42.31084	100.89508	97.6404	-95.19939	-206.67218	-295.36221	0
570	-34.17414	-60.21158	-26.03744	45.56552	-5.69569	-43.12451	47.19286	93.57205	90.31737	-100.08141	-211.5542	-302.68524	0
571	-46.37919	-74.85764	-28.47845	60.21158	-10.57771	-52.88855	52.07488	86.24902	82.99434	-104.96343	-218.87723	-305.12625	0
572	-53.70222	-84.62168	-30.91946	67.53461	-13.01872	-57.77057	54.51589	78.92599	73.2303	-114.72747	-226.20026	-307.56726	0
573	-58.58424	-91.94471	-33.36047	74.85764	-13.01872	-62.65259	56.9569	71.60296	65.90727	-126.93252	-238.40531	-312.44928	0
574	-68.34828	-106.59077	-38.24249	87.06269	-15.45973	-72.41663	59.39791	71.60296	61.02525	-136.69656	-250.61036	-319.77231	0
575	-73.2303	-121.23683	-48.00653	96.82673	-13.01872	-84.62168	64.27993	71.60296	61.02525	-144.01959	-255.49238	-327.09534	0
576	-80.55333	-133.44188	-52.88855	106.59077	-15.45973	-94.38572	66.72094	74.04397	58.58424	-144.01959	-260.3744	-336.85938	0
577	-80.55333	-138.3239	-57.77057	109.03178	-13.01872	-99.26774	69.16195	74.04397	53.70222	-146.4606	-265.25642	-346.62342	0
578	-75.67131	-140.76491	-65.0936	106.59077	-5.69569	-104.14976	71.60296	76.48498	53.70222	-146.4606	-265.25642	-349.06443	0
579	-73.2303	-148.08794	-74.85764	109.03178	-0.81367	-111.47279	74.04397	78.92599	51.26121	-146.4606	-262.81541	-351.50544	0
580	-75.67131	-157.85198	-82.18067	116.35481	2.44101	-121.23683	76.48498	78.92599	48.8202	-144.01959	-262.81541	-351.50544	0
581	-75.67131	-162.734	-87.06269	118.79582	4.88202	-126.11885	74.04397	78.92599	48.8202	-144.01959	-265.25642	-349.06443	0
582	-78.11232	-162.734	-84.62168	118.79582	2.44101	-123.67784	71.60296	76.48498	46.37919	-146.4606	-267.69743	-346.62342	0
583	-75.67131	-165.17501	-89.5037	118.79582	7.32303	-128.55986	69.16195	76.48498	51.26121	-148.90161	-270.13844	-341.7414	0
584	-75.67131	-165.17501	-89.5037	118.79582	7.32303	-128.55986	69.16195	81.367	53.70222	-151.34262	-272.57945	-341.7414	0
585	-75.67131	-157.85198	-82.18067	116.35481	2.44101	-121.23683	64.27993	81.367	56.14323	-153.78363	-275.02046	-344.18241	0
586	-75.67131	-148.08794	-72.41663	111.47279	-3.25468	-111.47279	61.83892	83.80801	56.14323	-153.78363	-272.57945	-349.06443	0
587	-75.67131	-143.20592	-67.53461	109.03178	-5.69569	-106.59077	59.39791	83.80801	56.14323	-151.34262	-267.69743	-351.50544	0
588	-75.67131	-138.3239	-62.65259	106.59077	-8.1367	-101.70875	59.39791	86.24902	56.14323	-144.01959	-262.81541	-349.06443	0
589	-75.67131	-135.88289	-60.21158	104.14976	-8.1367	-99.26774	61.83892	91.13104	56.14323	-139.13757	-257.93339	-344.18241	0
590	-78.11232	-135.88289	-57.77057	106.59077	-10.57771	-96.82673	61.83892	86.24902	51.26121	-139.13757	-255.49238	-341.7414	0
591	-78.11232	-140.76491	-62.65259	109.03178	-8.1367	-101.70875	64.27993	86.24902	51.26121	-134.25555	-255.49238	-336.85938	0
592	-78.11232	-145.64693	-67.53461	111.47279	-5.69569	-106.59077	66.72094	88.69003	56.14323	-134.25555	-255.49238	-329.53635	0
593	-75.67131	-150.52895	-74.85764	111.47279	-0.81367	-113.9138	69.16195	91.13104	61.02525	-134.25555	-255.49238	-319.77231	0
594	-73.2303	-157.85198	-84.62168	113.9138	4.88202	-121.23683	71.60296	96.01306	68.34828	-131.81454	-257.93339	-317.3313	0
595	-70.78929	-160.29299	-89.5037	113.9138	9.76404	-126.11885	71.60296	98.45407	73.2303	-134.25555	-257.93339	-319.77231	0
596	-70.78929	-155.41097	-84.62168	111.47279	7.32303	-121.23683	69.16195	98.45407	75.67131	-131.81454	-257.93339	-324.65433	0
597	-68.34828	-152.96996	-84.62168	109.03178	7.32303	-118.79582	69.16195	100.89508	75.67131	-129.37353	-257.93339	-329.53635	0
598	-68.34828	-152.96996	-84.62168	109.03178	7.32303	-118.79582	69.16195	100.89508	73.2303	-126.93252	-255.49238	-331.97736	0
599	-73.2303	-150.52895	-77.29865	111.47279	2.44101	-113.9138	69.16195	100.89508	68.34828	-126.93252	-253.05137	-331.97736	0
600	-78.11232	-143.20592	-65.0936	109.03178	-8.1367	-104.14976	71.60296	98.45407	63.46626	-126.93252	-253.05137	-331.97736	0
601	-78.11232	-133.44188	-55.32956	104.14976	-13.01872	-94.38572	66.72094	96.01306	61.02525	-126.93252	-257.93339	-331.97736	0
602	-78.11232	-131.00087	-52.88855	104.14976	-13.01872	-91.94471	66.72094	96.01306	63.46626	-126.93252	-257.93339	-324.65433	0
603	-82.99434	-131.00087	-48.00653	106.59077	-17.90074	-89.5037	66.72094	98.45407	68.34828	-126.93252	-257.93339	-317.3313	0
604	-82.99434	-131.00087	-48.00653	106.59077	-17.90074	-89.5037	69.16195	100.89508	73.2303	-129.37353	-260.3744	-312.44928	0
605	-82.99434	-123.67784	-40.6835	101.70875	-22.78276	-82.18067	69.16195	100.89508	78.11232	-129.37353	-260.3744	-312.44928	0
606	-80.55333	-121.23683	-40.6835	99.26774	-20.34175	-82.18067	66.72094	103.33609	82.99434	-126.93252	-257.93339	-314.89029	0
607	-78.11232	-126.11885	-48.00653	101.70875	-15.45973	-87.06269	69.16195	105.7771	82.99434	-122.0505	-255.49238	-314.89029	0
608	-78.11232	-126.11885	-48.00653	101.70875	-15.45973	-87.06269	69.16195	105.7771	82.99434	-119.60949	-250.61036	-314.89029	0
609	-73.2303	-126.11885	-52.88855	99.26774	-10.57771	-89.5037	71.60296	103.33609	78.11232	-117.16848	-250.61036	-314.89029	0
610	-75.67131	-126.11885	-50.44754	99.26774	-13.01872	-89.5037	74.04397	103.33609	75.67131	-114.72747	-245.72834	-307.56726	0
611	-78.11232	-131.00087	-52.88855	104.14976	-13.01872	-91.94471	76.48498	103.33609	78.11232	-109.84545	-245.72834	-302.68524	0
612	-78.11232	-133.44188	-55.32956	104.14976	-13.01872	-94.38572	78.92599	103.33609	82.99434	-107.40444	-243.28733	-297.80322	0
613	-78.11232	-133.44188	-55.32956	104.14976	-13.01872	-94.38572	78.92599	105.7771	87.87636	-107.40444	-248.16935	-295.36221	0
614	-78.11232	-133.44188	-55.32956	104.14976	-13.01872	-94.38572	81.367	113.10013	97.6404	-107.40444	-250.61036	-295.36221	0
615	-82.99434	-133.44188	-50.44754	106.59077	-17.90074	-91.94471	88.69003	130.1872	114.72747	-100.08141	-245.72834	-297.80322	0
616	-82.99434	-135.88289	-52.88855	109.03178	-15.45973	-94.38572	93.57205	152.15629	139.13757	-87.87636	-240.84632	-305.12625	0
617	-78.11232	-135.88289	-57.77057	106.59077	-10.57771	-96.82673	98.45407	181.44841	168.42969	-70.78929	-231.08228	-307.56726	0
618	-75.67131	-135.88289	-60.21158	104.14976	-8.1367	-99.26774	108.21811	227.8276	217.24989	-43.93818	-216.43622	-307.56726	0
619	-73.2303	-138.3239	-65.0936	104.14976	-5.69569	-101.70875	122.86417	288.85285	278.27514	-6.50936	-196.90814	-300.24423	0
620	-68.34828	-135.88289	-67.53461	101.70875	-0.81367	-101.70875	139.95124	364.52416	361.26948	39.86983	-165.17501	-290.48019	0
621	-56.14323	-126.11885	-69.97562	89.5037	7.32303	-99.26774	154.5973	457.28254	468.67392	108.21811	-128.55986	-268.5111	0
622	-41.49717	-113.9138	-72.41663	77.29865	14.64606	-94.38572	171.68437	562.24597	605.37048	200.97649	-74.04397	-231.89595	0
623	-21.96909	-94.38572	-72.41663	57.77057	24.4101	-84.62168	196.09447	698.94253	776.24118	325.468	8.95037	-178.19373	0
624	10.57771	-60.21158	-69.97562	23.59643	39.05616	-65.0936	225.38659	862.4902	988.60905	489.01567	121.23683	-107.40444	0
625	49.63387	-21.15542	-69.97562	-13.83239	58.58424	-45.56552	257.11972	1043.12494	1232.71005	694.06051	270.13844	-16.2734	0
626	93.57205	21.15542	-72.41663	-57.77057	82.99434	-26.03744	288.85285	1221.31867	1496.33913	940.60252	450.77318	100.89508	0
627	139.95124	65.0936	-74.85764	-101.70875	107.40444	-4.06835	318.14497	1384.86634	1768.91858	1218.87766	668.02307	242.47366	0
628	193.65346	113.9138	-79.73966	-152.96996	136.69656	18.71441	340.11406	1526.44492	2047.19372	1516.68088	912.12407	406.02133	0
629	247.35568	179.82107	-67.53461	-213.99521	158.66565	57.77057	354.76012	1614.32128	2291.29472	1808.78841	1163.5481	584.21506	0
630	286.41184	248.16935	-38.24249	-267.69743	163.54767	106.59077	352.31911	1614.32128	2464.60643	2062.65345	1400.32607	769.73182	0
631	315.70396	326.28167	11.39138	-321.39965	153.78363	170.05703	332.79103	1524.00391	2554.9238	2255.49324	1604.55724	947.92555	0
632	335.23204	409.27601	74.85764	-372.66086	131.81454	243.28733	288.85285	1333.60513	2528.07269	2348.25162	1751.01784	1096.82716	0
633	335.23204	477.62429	143.20592	-406.835	97.6404	311.63561	220.50457	1016.27383	2318.14583	2292.10839	1802.27905	1196.90857	0
634	313.26295	524.00348	211.5542	-419.04005	51.26121	367.77884	130.1872	567.12799	1893.41009	2065.09446	1736.37178	1228.6417	0
635	279.08881	528.8855	250.61036	-404.39399	14.64606	389.74793	20.34175	52.07488	1313.26338	1698.94296	1570.3831	1189.58554	0
636	232.70962	489.82934	257.93339	-360.45581	-13.01872	375.10187	-95.19939	-480.87897	622.45755	1228.6417	1317.33173	1082.1811	0
637	171.68437	416.59904	245.72834	-294.54854	-37.42882	331.16369	-205.04484	-1008.13713	-110.65912	696.50152	1000.00043	925.95646	0
638	103.33609	306.75359	204.23117	-204.23117	-49.63387	255.49238	-310.00827	-1496.33913	-835.63909	157.03831	660.70004	747.76273	0
639	42.31084	187.1441	145.64693	-113.9138	-52.07488	167.61602	-407.64867	-1908.86982	-1472.7427	-322.21332	345.80975	576.89203	0
640	0	77.29865	77.29865	-38.24249	-37.42882	77.29865	-495.52503	-2194.46799	-1934.09359	-685.92381	89.5037	427.99042	0
641	-31.73313	-16.2734	16.2734	23.59643	-25.22377	-1.62734	-573.63735	-2367.7797	-2224.57378	-927.5838	-96.01306	318.14497	0
642	-48.8202	-84.62168	-35.80148	65.0936	-8.1367	-60.21158	-639.54462	-2467.86111	-2368.59337	-1069.16238	-213.99521	247.35568	0
643	-48.8202	-135.88289	-87.06269	91.94471	19.52808	-111.47279	-698.12886	-2499.59424	-2393.00347	-1113.10056	-270.13844	213.18154	0
644	-34.17414	-172.49804	-138.3239	101.70875	51.26121	-155.41097	-746.94906	-2477.62515	-2344.18327	-1100.89551	-284.7845	200.97649	0
645	-4.88202	-192.02612	-187.1441	96.82673	90.31737	-189.58511	-783.56421	-2411.71788	-2239.21984	-1047.19329	-267.69743	200.97649	0
646	22.78276	-204.23117	-226.20026	89.5037	124.49151	-213.99521	-800.65128	-2309.19546	-2102.52328	-966.63996	-233.52329	208.29952	0
647	54.51589	-204.23117	-257.93339	74.85764	156.22464	-231.08228	-800.65128	-2194.46799	-1960.9447	-883.64562	-194.46713	215.62255	0
648	86.24902	-192.02612	-277.46147	52.88855	180.63474	-233.52329	-786.00522	-2069.97648	-1821.80713	-795.76926	-145.64693	232.70962	0
649	110.65912	-174.93905	-284.7845	30.91946	197.72181	-228.64127	-756.7131	-1923.51588	-1670.46451	-695.68785	-88.69003	262.00174	0
650	135.06922	-150.52895	-284.7845	6.50936	209.92686	-216.43622	-720.09795	-1769.73225	-1511.79886	-593.16543	-27.66478	296.17588	0
651	154.5973	-113.9138	-267.69743	-21.15542	209.92686	-189.58511	-676.15977	-1608.62559	-1353.13321	-488.202	35.80148	335.23204	0
652	171.68437	-74.85764	-245.72834	-48.00653	207.48585	-160.29299	-624.89856	-1445.07792	-1192.02655	-380.79756	101.70875	379.17022	0
653	183.88942	-38.24249	-221.31824	-72.41663	202.60383	-128.55986	-566.31432	-1274.20722	-1023.59686	-273.39312	172.49804	427.99042	0
654	193.65346	-8.95037	-201.79016	-91.94471	197.72181	-104.14976	-505.28907	-1093.57248	-852.72616	-161.10666	243.28733	471.9286	0
655	198.53548	18.71441	-179.82107	-109.03178	190.39878	-79.73966	-449.14584	-927.5838	-698.94253	-65.90727	304.31258	503.66173	0
656	205.85851	50.44754	-155.41097	-128.55986	180.63474	-52.88855	-400.32564	-788.44623	-567.12799	17.90074	355.57379	523.18981	0
657	208.29952	74.85764	-133.44188	-140.76491	170.8707	-28.47845	-353.94645	-668.83674	-459.72355	86.24902	397.07096	532.95385	0
658	205.85851	84.62168	-121.23683	-145.64693	163.54767	-18.71441	-314.89029	-571.19634	-371.84719	142.39225	428.80409	537.83587	0
659	196.09447	91.94471	-104.14976	-143.20592	151.34262	-6.50936	-278.27514	-493.08402	-305.93992	179.0074	445.89116	537.83587	0
660	183.88942	94.38572	-89.5037	-138.3239	136.69656	4.06835	-248.98302	-439.3818	-262.00174	198.53548	448.33217	525.63082	0
661	169.24336	91.94471	-77.29865	-131.00087	124.49151	8.95037	-224.57292	-393.00261	-225.38659	213.18154	445.89116	510.98476	0
662	154.5973	84.62168	-69.97562	-118.79582	112.28646	8.95037	-200.16282	-353.94645	-193.65346	218.06356	441.00914	496.3387	0
663	137.51023	72.41663	-65.0936	-104.14976	102.52242	4.06835	-180.63474	-319.77231	-164.36134	218.06356	428.80409	481.69264	0
664	122.86417	62.65259	-60.21158	-91.94471	92.75838	0.81367	-165.98868	-292.9212	-142.39225	215.62255	411.71702	459.72355	0
665	115.54114	60.21158	-55.32956	-87.06269	85.43535	4.06835	-153.78363	-268.5111	-125.30518	210.74053	399.51197	435.31345	0
666	108.21811	57.77057	-50.44754	-82.18067	80.55333	4.06835	-144.01959	-244.101	-108.21811	210.74053	387.30692	413.34436	0
667	100.89508	52.88855	-48.00653	-77.29865	75.67131	4.06835	-131.81454	-222.13191	-96.01306	210.74053	379.98389	393.81628	0
668	96.01306	50.44754	-45.56552	-72.41663	70.78929	4.06835	-122.0505	-202.60383	-86.24902	213.18154	375.10187	379.17022	0
669	88.69003	50.44754	-38.24249	-69.97562	63.46626	6.50936	-109.84545	-183.07575	-78.92599	215.62255	372.66086	366.96517	0
670	83.80801	52.88855	-30.91946	-67.53461	58.58424	11.39138	-97.6404	-168.42969	-71.60296	220.50457	370.21985	357.20113	0
671	78.92599	50.44754	-28.47845	-65.0936	53.70222	11.39138	-90.31737	-151.34262	-64.27993	222.94558	365.33783	352.31911	0
672	74.04397	48.00653	-26.03744	-60.21158	51.26121	11.39138	-82.99434	-141.57858	-54.51589	222.94558	360.45581	349.8781	0
673	69.16195	50.44754	-18.71441	-60.21158	43.93818	16.2734	-78.11232	-131.81454	-47.19286	225.38659	355.57379	347.43709	0
674	64.27993	50.44754	-13.83239	-57.77057	39.05616	18.71441	-73.2303	-119.60949	-37.42882	225.38659	353.13278	344.99608	0
675	59.39791	50.44754	-8.95037	-55.32956	34.17414	21.15542	-73.2303	-114.72747	-30.10579	225.38659	353.13278	337.67305	0
676	59.39791	55.32956	-4.06835	-57.77057	31.73313	26.03744	-73.2303	-107.40444	-25.22377	232.70962	353.13278	330.35002	0
677	56.9569	57.77057	0.81367	-57.77057	29.29212	30.91946	-70.78929	-104.96343	-25.22377	235.15063	355.57379	325.468	0
678	56.9569	65.0936	8.95037	-60.21158	24.4101	38.24249	-70.78929	-102.52242	-22.78276	240.03265	360.45581	320.58598	0
679	56.9569	65.0936	8.95037	-60.21158	24.4101	38.24249	-65.90727	-102.52242	-22.78276	247.35568	367.77884	320.58598	0
680	56.9569	65.0936	8.95037	-60.21158	24.4101	38.24249	-63.46626	-102.52242	-22.78276	249.79669	370.21985	325.468	0
681	59.39791	65.0936	6.50936	-62.65259	26.85111	35.80148	-61.02525	-100.08141	-22.78276	257.11972	375.10187	327.90901	0
682	59.39791	65.0936	6.50936	-62.65259	26.85111	35.80148	-61.02525	-100.08141	-22.78276	259.56073	377.54288	335.23204	0
683	61.83892	62.65259	0.81367	-62.65259	31.73313	33.36047	-61.02525	-100.08141	-20.34175	262.00174	377.54288	342.55507	0
684	66.72094	60.21158	-6.50936	-62.65259	36.61515	28.47845	-58.58424	-97.6404	-17.90074	264.44275	382.4249	347.43709	0
685	71.60296	62.65259	-8.95037	-67.53461	41.49717	28.47845	-61.02525	-97.6404	-17.90074	266.88376	387.30692	349.8781	0
686	74.04397	72.41663	-1.62734	-72.41663	39.05616	35.80148	-65.90727	-100.08141	-15.45973	274.20679	394.62995	349.8781	0
687	74.04397	72.41663	-1.62734	-72.41663	39.05616	35.80148	-68.34828	-104.96343	-15.45973	279.08881	399.51197	352.31911	0
688	74.04397	79.73966	6.50936	-77.29865	34.17414	43.12451	-70.78929	-109.84545	-17.90074	283.97083	409.27601	354.76012	0
689	71.60296	84.62168	13.83239	-77.29865	29.29212	50.44754	-73.2303	-117.16848	-25.22377	288.85285	416.59904	359.64214	0
690	71.60296	89.5037	18.71441	-79.73966	26.85111	55.32956	-75.67131	-124.49151	-30.10579	293.73487	423.92207	366.96517	0
691	71.60296	91.94471	21.15542	-82.18067	26.85111	57.77057	-78.11232	-126.93252	-30.10579	301.0579	431.2451	379.17022	0
692	69.16195	87.06269	18.71441	-77.29865	26.85111	52.88855	-80.55333	-131.81454	-27.66478	308.38093	441.00914	393.81628	0
693	69.16195	87.06269	18.71441	-77.29865	26.85111	52.88855	-80.55333	-131.81454	-25.22377	313.26295	448.33217	406.02133	0
694	71.60296	94.38572	23.59643	-82.18067	24.4101	60.21158	-82.99434	-131.81454	-22.78276	318.14497	455.6552	418.22638	0
695	78.92599	96.82673	18.71441	-87.06269	31.73313	57.77057	-85.43535	-131.81454	-15.45973	327.90901	465.41924	427.99042	0
696	81.367	96.82673	16.2734	-89.5037	34.17414	57.77057	-87.87636	-129.37353	-10.57771	337.67305	477.62429	432.87244	0
697	83.80801	94.38572	11.39138	-89.5037	36.61515	52.88855	-90.31737	-134.25555	-13.01872	344.99608	489.82934	435.31345	0
698	88.69003	96.82673	8.95037	-91.94471	41.49717	52.88855	-92.75838	-139.13757	-17.90074	352.31911	502.03439	442.63648	0
699	86.24902	99.26774	13.83239	-91.94471	36.61515	57.77057	-90.31737	-141.57858	-25.22377	362.08315	511.79843	454.84153	0
700	88.69003	104.14976	16.2734	-96.82673	36.61515	60.21158	-92.75838	-151.34262	-32.5468	366.96517	524.00348	464.60557	0
701	93.57205	109.03178	16.2734	-101.70875	39.05616	62.65259	-95.19939	-158.66565	-39.86983	371.84719	531.32651	474.36961	0
702	93.57205	111.47279	18.71441	-101.70875	39.05616	65.0936	-97.6404	-165.98868	-42.31084	376.72921	538.64954	489.01567	0
703	98.45407	121.23683	23.59643	-109.03178	39.05616	72.41663	-102.52242	-170.8707	-42.31084	379.17022	548.41358	503.66173	0
704	98.45407	128.55986	30.91946	-113.9138	34.17414	79.73966	-104.96343	-175.75272	-39.86983	384.05224	555.73661	513.42577	0
705	105.7771	135.88289	30.91946	-121.23683	39.05616	84.62168	-112.28646	-183.07575	-39.86983	386.49325	563.05964	518.30779	0
706	110.65912	145.64693	35.80148	-128.55986	39.05616	91.94471	-119.60949	-187.95777	-39.86983	393.81628	575.26469	523.18981	-1250	T-0
707	103.33609	148.08794	45.56552	-126.11885	29.29212	96.82673	-122.0505	-192.83979	-42.31084	403.58032	589.91075	530.51284	0
708	103.33609	157.85198	55.32956	-131.00087	24.4101	106.59077	-126.93252	-200.16282	-49.63387	413.34436	602.1158	540.27688	0
709	103.33609	165.17501	62.65259	-133.44188	21.96909	113.9138	-129.37353	-209.92686	-59.39791	420.66739	611.87984	550.04092	0
710	103.33609	172.49804	69.97562	-138.3239	17.08707	121.23683	-134.25555	-219.6909	-69.16195	427.99042	626.5259	562.24597	0
711	108.21811	177.38006	69.97562	-143.20592	19.52808	123.67784	-139.13757	-227.01393	-74.04397	435.31345	636.28994	576.89203	0
712	110.65912	182.26208	72.41663	-145.64693	19.52808	128.55986	-144.01959	-239.21898	-78.92599	440.19547	643.61297	591.53809	0
713	113.10013	192.02612	79.73966	-152.96996	17.08707	135.88289	-148.90161	-248.98302	-81.367	445.07749	650.936	606.18415	0
714	120.42316	194.46713	74.85764	-157.85198	24.4101	135.88289	-153.78363	-258.74706	-83.80801	449.95951	660.70004	618.3892	0
715	125.30518	199.34915	74.85764	-162.734	26.85111	138.3239	-158.66565	-266.07009	-83.80801	457.28254	672.90509	628.15324	0
716	127.74619	201.79016	74.85764	-165.17501	26.85111	138.3239	-165.98868	-273.39312	-83.80801	469.48759	687.55115	637.91728	0
717	130.1872	206.67218	77.29865	-167.61602	26.85111	143.20592	-170.8707	-280.71615	-88.69003	479.25163	702.19721	645.24031	0
718	132.62821	211.5542	79.73966	-172.49804	26.85111	145.64693	-175.75272	-288.03918	-93.57205	491.45668	721.72529	659.88637	0
719	135.06922	216.43622	82.18067	-174.93905	26.85111	150.52895	-175.75272	-295.36221	-100.89508	503.66173	738.81236	676.97344	0
720	137.51023	218.87723	82.18067	-177.38006	29.29212	150.52895	-178.19373	-307.56726	-105.7771	513.42577	755.89943	694.06051	0
721	139.95124	226.20026	87.06269	-182.26208	26.85111	157.85198	-185.51676	-317.3313	-110.65912	523.18981	765.66347	711.14758	0
722	147.27427	235.9643	89.5037	-192.02612	29.29212	162.734	-192.83979	-329.53635	-115.54114	528.07183	775.42751	730.67566	0
723	152.15629	248.16935	96.82673	-199.34915	29.29212	172.49804	-200.16282	-339.30039	-117.98215	532.95385	785.19155	747.76273	0
724	154.5973	257.93339	104.14976	-206.67218	26.85111	182.26208	-207.48585	-346.62342	-122.86417	535.39486	792.51458	764.8498	0
725	159.47932	272.57945	113.9138	-216.43622	24.4101	194.46713	-214.80888	-358.82847	-130.1872	537.83587	797.3966	774.61384	0
726	164.36134	287.22551	123.67784	-226.20026	21.96909	206.67218	-224.57292	-368.59251	-135.06922	542.71789	804.71963	784.37788	0
727	171.68437	299.43056	128.55986	-235.9643	21.96909	213.99521	-229.45494	-378.35655	-142.39225	550.04092	814.48367	796.58293	0
728	174.12538	306.75359	133.44188	-240.84632	21.96909	221.31824	-234.33696	-388.12059	-152.15629	557.36395	829.12973	813.67	0
729	174.12538	311.63561	138.3239	-243.28733	19.52808	226.20026	-236.77797	-397.88463	-166.80235	564.68698	838.89377	833.19808	0
730	179.0074	321.39965	143.20592	-250.61036	19.52808	233.52329	-239.21898	-410.08968	-179.0074	569.569	848.65781	850.28515	0
731	181.44841	323.84066	143.20592	-253.05137	19.52808	233.52329	-244.101	-417.41271	-186.33043	574.45102	858.42185	872.25424	0
732	186.33043	323.84066	138.3239	-255.49238	24.4101	231.08228	-246.54201	-427.17675	-191.21245	579.33304	868.18589	894.22333	0
733	186.33043	326.28167	140.76491	-255.49238	24.4101	233.52329	-251.42403	-434.49978	-196.09447	579.33304	873.06791	916.19242	0
734	191.21245	333.6047	143.20592	-262.81541	24.4101	238.40531	-256.30605	-439.3818	-200.97649	579.33304	877.94993	928.39747	0
735	191.21245	343.36874	152.96996	-267.69743	19.52808	248.16935	-263.62908	-446.70483	-205.85851	576.89203	880.39094	933.27949	0
736	193.65346	353.13278	160.29299	-272.57945	17.08707	257.93339	-270.95211	-454.02786	-213.18154	576.89203	882.83195	935.7205	0
737	196.09447	360.45581	165.17501	-277.46147	17.08707	262.81541	-275.83413	-461.35089	-222.94558	576.89203	887.71397	940.60252	0
738	198.53548	370.21985	172.49804	-284.7845	14.64606	272.57945	-280.71615	-468.67392	-232.70962	576.89203	895.037	945.48454	0
739	200.97649	384.86591	184.70309	-292.10753	9.76404	284.7845	-283.15716	-478.43796	-247.35568	576.89203	897.47801	950.36656	0
740	208.29952	397.07096	189.58511	-301.87157	9.76404	294.54854	-288.03918	-488.202	-259.56073	574.45102	897.47801	955.24858	0
741	210.74053	404.39399	194.46713	-306.75359	9.76404	299.43056	-292.9212	-495.52503	-269.32477	572.01001	897.47801	965.01262	0
742	210.74053	404.39399	194.46713	-306.75359	9.76404	299.43056	-292.9212	-502.84806	-276.6478	569.569	897.47801	974.77666	0
743	210.74053	409.27601	199.34915	-309.1946	7.32303	304.31258	-297.80322	-505.28907	-281.52982	562.24597	895.037	984.5407	0
744	208.29952	411.71702	204.23117	-309.1946	2.44101	309.1946	-300.24423	-507.73008	-286.41184	557.36395	892.59599	989.42272	0
745	205.85851	411.71702	206.67218	-309.1946	-0.81367	309.1946	-305.12625	-510.17109	-291.29386	552.48193	887.71397	989.42272	0
746	205.85851	414.15803	209.11319	-309.1946	-0.81367	311.63561	-307.56726	-510.17109	-293.73487	552.48193	885.27296	989.42272	0
747	203.4175	416.59904	213.99521	-309.1946	-5.69569	316.51763	-307.56726	-507.73008	-296.17588	552.48193	885.27296	986.98171	0
748	205.85851	421.48106	216.43622	-314.07662	-5.69569	318.95864	-310.00827	-510.17109	-305.93992	547.59991	882.83195	982.09969	0
749	208.29952	428.80409	221.31824	-318.95864	-5.69569	326.28167	-310.00827	-512.6121	-313.26295	540.27688	875.50892	977.21767	0
750	213.18154	436.12712	223.75925	-323.84066	-5.69569	331.16369	-307.56726	-515.05311	-320.58598	535.39486	870.6269	974.77666	0
751	218.06356	443.45015	226.20026	-331.16369	-3.25468	336.04571	-305.12625	-515.05311	-325.468	528.07183	860.86286	969.89464	0
752	213.18154	441.00914	228.64127	-326.28167	-8.1367	336.04571	-305.12625	-515.05311	-330.35002	513.42577	846.2168	962.57161	0
753	205.85851	438.56813	233.52329	-321.39965	-13.01872	336.04571	-305.12625	-515.05311	-332.79103	498.77971	831.57074	952.80757	0
754	200.97649	438.56813	238.40531	-318.95864	-17.90074	338.48672	-302.68524	-507.73008	-332.79103	486.57466	814.48367	940.60252	0
755	198.53548	431.2451	233.52329	-314.07662	-17.90074	333.6047	-297.80322	-500.40705	-330.35002	476.81062	799.83761	923.51545	0
756	196.09447	426.36308	231.08228	-311.63561	-17.90074	328.72268	-297.80322	-495.52503	-330.35002	467.04658	785.19155	903.98737	0
757	193.65346	426.36308	233.52329	-309.1946	-20.34175	331.16369	-297.80322	-490.64301	-332.79103	457.28254	770.54549	884.45929	0
758	191.21245	431.2451	240.84632	-311.63561	-25.22377	336.04571	-295.36221	-485.76099	-335.23204	449.95951	755.89943	867.37222	0
759	191.21245	438.56813	248.16935	-314.07662	-27.66478	343.36874	-290.48019	-480.87897	-340.11406	440.19547	743.69438	850.28515	0
760	188.77144	441.00914	253.05137	-314.07662	-32.5468	348.25076	-285.59817	-475.99695	-340.11406	430.43143	729.04832	838.0801	0
761	183.88942	441.00914	257.93339	-311.63561	-37.42882	350.69177	-280.71615	-471.11493	-340.11406	418.22638	709.52024	823.43404	0
762	181.44841	438.56813	257.93339	-309.1946	-37.42882	348.25076	-275.83413	-463.7919	-337.67305	406.02133	692.43317	811.22899	0
763	176.56639	431.2451	255.49238	-304.31258	-39.86983	343.36874	-268.5111	-454.02786	-330.35002	391.37527	672.90509	799.02394	0
764	174.12538	423.92207	250.61036	-299.43056	-37.42882	338.48672	-263.62908	-441.82281	-323.02699	376.72921	650.936	781.93687	0
765	166.80235	414.15803	248.16935	-289.66652	-39.86983	331.16369	-256.30605	-429.61776	-313.26295	362.08315	628.96691	757.52677	0
766	161.92033	399.51197	238.40531	-279.90248	-37.42882	318.95864	-251.42403	-417.41271	-305.93992	349.8781	604.55681	730.67566	0
767	157.03831	392.18894	235.9643	-275.02046	-39.86983	314.07662	-246.54201	-405.20766	-301.0579	337.67305	585.02873	701.38354	0
768	147.27427	387.30692	240.84632	-267.69743	-47.19286	314.07662	-241.65999	-395.44362	-301.0579	323.02699	560.61863	672.09142	0
769	137.51023	382.4249	245.72834	-260.3744	-54.51589	314.07662	-236.77797	-385.67958	-303.49891	305.93992	536.20853	645.24031	0
770	135.06922	379.98389	245.72834	-257.93339	-54.51589	314.07662	-229.45494	-373.47453	-301.0579	291.29386	514.23944	620.83021	0
771	130.1872	367.77884	238.40531	-248.16935	-54.51589	304.31258	-222.13191	-358.82847	-296.17588	276.6478	489.82934	598.86112	0
772	125.30518	360.45581	235.9643	-243.28733	-54.51589	299.43056	-214.80888	-346.62342	-288.85285	257.11972	460.53722	576.89203	0
773	117.98215	350.69177	233.52329	-233.52329	-56.9569	292.10753	-207.48585	-329.53635	-276.6478	237.59164	433.68611	557.36395	0
774	115.54114	338.48672	223.75925	-226.20026	-54.51589	282.34349	-197.72181	-307.56726	-262.00174	220.50457	404.39399	535.39486	0
775	115.54114	326.28167	211.5542	-221.31824	-47.19286	270.13844	-187.95777	-285.59817	-244.91467	205.85851	379.98389	508.54375	0
776	105.7771	314.07662	209.11319	-209.11319	-52.07488	262.81541	-180.63474	-263.62908	-230.26861	191.21245	355.57379	476.81062	0
777	93.57205	301.87157	209.11319	-196.90814	-56.9569	255.49238	-173.31171	-244.101	-220.50457	176.56639	331.16369	442.63648	0
778	86.24902	294.54854	209.11319	-189.58511	-61.83892	253.05137	-165.98868	-222.13191	-208.29952	159.47932	306.75359	410.90335	0
779	81.367	282.34349	201.79016	-182.26208	-59.39791	243.28733	-153.78363	-200.16282	-198.53548	144.83326	282.34349	379.17022	0
780	74.04397	267.69743	194.46713	-170.05703	-59.39791	231.08228	-141.57858	-178.19373	-183.88942	132.62821	257.93339	349.8781	0
781	66.72094	253.05137	187.1441	-160.29299	-59.39791	221.31824	-129.37353	-151.34262	-169.24336	120.42316	228.64127	323.02699	0
782	59.39791	238.40531	179.82107	-148.08794	-59.39791	209.11319	-117.16848	-124.49151	-149.71528	103.33609	201.79016	296.17588	0
783	54.51589	221.31824	167.61602	-138.3239	-56.9569	194.46713	-104.96343	-97.6404	-130.1872	86.24902	170.05703	271.76578	0
784	49.63387	206.67218	157.85198	-128.55986	-54.51589	182.26208	-92.75838	-65.90727	-108.21811	71.60296	140.76491	242.47366	0
785	44.75185	187.1441	143.20592	-116.35481	-49.63387	165.17501	-80.55333	-31.73313	-83.80801	59.39791	116.35481	213.18154	0
786	42.31084	172.49804	131.00087	-106.59077	-44.75185	152.96996	-70.78929	0	-61.83892	49.63387	91.94471	181.44841	0
787	39.86983	160.29299	121.23683	-99.26774	-39.86983	140.76491	-61.02525	26.85111	-44.75185	37.42882	69.97562	149.71528	0
788	34.98781	150.52895	116.35481	-91.94471	-39.86983	133.44188	-51.26121	52.07488	-27.66478	27.66478	48.00653	122.86417	0
789	34.98781	140.76491	106.59077	-87.06269	-34.98781	123.67784	-39.05616	78.92599	-10.57771	17.90074	30.91946	98.45407	0
790	27.66478	131.00087	104.14976	-79.73966	-37.42882	118.79582	-29.29212	100.89508	6.50936	5.69569	11.39138	76.48498	0
791	22.78276	113.9138	91.94471	-67.53461	-34.98781	104.14976	-19.52808	122.86417	19.52808	-4.06835	-10.57771	54.51589	0
792	17.90074	104.14976	87.06269	-60.21158	-34.98781	96.82673	-12.20505	142.39225	36.61515	-18.71441	-30.10579	34.98781	0
793	13.01872	91.94471	79.73966	-52.88855	-32.5468	87.06269	-4.88202	161.92033	51.26121	-31.73313	-52.07488	17.90074	0
794	5.69569	82.18067	77.29865	-43.12451	-34.98781	79.73966	2.44101	183.88942	65.90727	-43.93818	-74.04397	-4.06835	0
795	0	65.0936	65.0936	-33.36047	-32.5468	65.0936	9.76404	200.97649	78.11232	-58.58424	-93.57205	-28.47845	0
796	-4.88202	48.00653	52.88855	-21.15542	-27.66478	50.44754	12.20505	218.06356	87.87636	-68.34828	-111.47279	-52.88855	0
797	-4.88202	40.6835	45.56552	-18.71441	-25.22377	43.12451	22.78276	235.15063	100.08141	-75.67131	-121.23683	-72.41663	0
798	-7.32303	33.36047	40.6835	-13.83239	-22.78276	35.80148	30.10579	247.35568	107.40444	-80.55333	-133.44188	-87.87636	0
799	-12.20505	21.15542	33.36047	-4.06835	-22.78276	26.03744	42.31084	259.56073	109.84545	-90.31737	-145.64693	-100.08141	0
800	-14.64606	6.50936	21.15542	4.06835	-17.90074	13.83239	54.51589	269.32477	114.72747	-95.19939	-155.41097	-112.28646	0
801	-19.52808	-8.95037	11.39138	13.83239	-15.45973	0.81367	61.83892	279.08881	119.60949	-102.52242	-167.61602	-119.60949	0
802	-24.4101	-16.2734	8.95037	18.71441	-17.90074	-4.06835	69.16195	283.97083	124.49151	-112.28646	-179.82107	-124.49151	0
803	-29.29212	-26.03744	4.06835	26.03744	-17.90074	-11.39138	76.48498	291.29386	124.49151	-126.93252	-194.46713	-131.81454	0
804	-36.61515	-38.24249	-1.62734	35.80148	-17.90074	-21.15542	81.367	296.17588	122.0505	-139.13757	-211.5542	-141.57858	0
805	-39.05616	-48.00653	-8.95037	43.12451	-15.45973	-28.47845	83.80801	301.0579	122.0505	-151.34262	-223.75925	-153.78363	0
806	-41.49717	-55.32956	-13.83239	48.00653	-15.45973	-35.80148	83.80801	305.93992	122.0505	-158.66565	-233.52329	-168.42969	0
807	-41.49717	-57.77057	-16.2734	48.00653	-13.01872	-38.24249	86.24902	305.93992	117.16848	-168.42969	-243.28733	-185.51676	0
808	-41.49717	-55.32956	-13.83239	48.00653	-15.45973	-35.80148	86.24902	301.0579	109.84545	-178.19373	-253.05137	-197.72181	0
809	-41.49717	-60.21158	-18.71441	50.44754	-13.01872	-40.6835	91.13104	298.61689	102.52242	-185.51676	-260.3744	-207.48585	0
810	-53.70222	-79.73966	-26.03744	65.0936	-15.45973	-52.88855	93.57205	288.85285	95.19939	-197.72181	-267.69743	-219.6909	0
811	-61.02525	-89.5037	-28.47845	74.85764	-17.90074	-60.21158	93.57205	281.52982	85.43535	-207.48585	-279.90248	-227.01393	0
812	-58.58424	-84.62168	-26.03744	69.97562	-17.90074	-55.32956	96.01306	276.6478	80.55333	-217.24989	-289.66652	-234.33696	0
813	-58.58424	-84.62168	-26.03744	69.97562	-17.90074	-55.32956	96.01306	271.76578	73.2303	-227.01393	-299.43056	-241.65999	0
814	-58.58424	-87.06269	-28.47845	72.41663	-15.45973	-57.77057	98.45407	269.32477	68.34828	-236.77797	-311.63561	-248.98302	0
815	-56.14323	-89.5037	-33.36047	72.41663	-13.01872	-62.65259	96.01306	266.88376	63.46626	-246.54201	-318.95864	-261.18807	0
816	-51.26121	-82.18067	-30.91946	65.0936	-10.57771	-57.77057	93.57205	264.44275	58.58424	-251.42403	-326.28167	-273.39312	0
817	-39.05616	-65.0936	-26.03744	50.44754	-8.1367	-45.56552	98.45407	264.44275	58.58424	-251.42403	-323.84066	-280.71615	0
818	-43.93818	-74.85764	-30.91946	57.77057	-8.1367	-52.88855	96.01306	259.56073	51.26121	-253.86504	-326.28167	-288.03918	0
819	-43.93818	-79.73966	-35.80148	60.21158	-5.69569	-57.77057	98.45407	252.2377	43.93818	-256.30605	-328.72268	-290.48019	0
820	-51.26121	-84.62168	-33.36047	67.53461	-10.57771	-60.21158	103.33609	247.35568	41.49717	-256.30605	-326.28167	-288.03918	0
821	-56.14323	-94.38572	-38.24249	74.85764	-10.57771	-67.53461	105.7771	244.91467	39.05616	-256.30605	-326.28167	-283.15716	0
822	-61.02525	-104.14976	-43.12451	82.18067	-10.57771	-74.85764	110.65912	244.91467	36.61515	-258.74706	-326.28167	-278.27514	0
823	-65.90727	-109.03178	-43.12451	87.06269	-13.01872	-77.29865	110.65912	240.03265	34.17414	-263.62908	-331.16369	-273.39312	0
824	-68.34828	-113.9138	-45.56552	89.5037	-13.01872	-79.73966	110.65912	237.59164	31.73313	-268.5111	-336.04571	-273.39312	0
825	-70.78929	-121.23683	-50.44754	94.38572	-10.57771	-87.06269	113.10013	237.59164	31.73313	-268.5111	-336.04571	-275.83413	0
826	-73.2303	-123.67784	-50.44754	96.82673	-13.01872	-87.06269	108.21811	237.59164	26.85111	-270.95211	-336.04571	-280.71615	0
827	-70.78929	-123.67784	-52.88855	96.82673	-10.57771	-89.5037	108.21811	232.70962	24.4101	-270.95211	-336.04571	-285.59817	0
828	-68.34828	-126.11885	-57.77057	96.82673	-5.69569	-91.94471	108.21811	227.8276	21.96909	-270.95211	-333.6047	-288.03918	0
829	-68.34828	-126.11885	-57.77057	96.82673	-5.69569	-91.94471	108.21811	225.38659	17.08707	-268.5111	-331.16369	-288.03918	0
830	-68.34828	-123.67784	-55.32956	94.38572	-8.1367	-89.5037	108.21811	218.06356	12.20505	-273.39312	-328.72268	-288.03918	0
831	-70.78929	-123.67784	-52.88855	96.82673	-10.57771	-89.5037	108.21811	213.18154	6.50936	-275.83413	-331.16369	-288.03918	0
832	-75.67131	-126.11885	-50.44754	99.26774	-13.01872	-89.5037	105.7771	205.85851	4.06835	-280.71615	-333.6047	-288.03918	0
833	-75.67131	-128.55986	-52.88855	101.70875	-13.01872	-91.94471	105.7771	203.4175	4.06835	-285.59817	-338.48672	-285.59817	0
834	-75.67131	-133.44188	-57.77057	104.14976	-10.57771	-96.82673	105.7771	203.4175	1.62734	-288.03918	-340.92773	-285.59817	0
835	-75.67131	-138.3239	-62.65259	106.59077	-8.1367	-101.70875	105.7771	203.4175	-0.81367	-292.9212	-343.36874	-292.9212	0
836	-78.11232	-143.20592	-65.0936	109.03178	-8.1367	-104.14976	105.7771	203.4175	-0.81367	-290.48019	-345.80975	-300.24423	0
837	-78.11232	-145.64693	-67.53461	111.47279	-5.69569	-106.59077	105.7771	205.85851	-0.81367	-288.03918	-340.92773	-305.12625	0
838	-73.2303	-143.20592	-69.97562	106.59077	-3.25468	-106.59077	108.21811	205.85851	-3.25468	-285.59817	-338.48672	-305.12625	0
839	-68.34828	-138.3239	-69.97562	101.70875	-0.81367	-104.14976	110.65912	203.4175	-8.1367	-283.15716	-333.6047	-307.56726	0
840	-68.34828	-135.88289	-67.53461	101.70875	-0.81367	-101.70875	110.65912	198.53548	-13.01872	-283.15716	-333.6047	-307.56726	0
841	-70.78929	-133.44188	-62.65259	101.70875	-5.69569	-99.26774	108.21811	196.09447	-15.45973	-285.59817	-336.04571	-305.12625	0
842	-73.2303	-131.00087	-57.77057	101.70875	-8.1367	-94.38572	108.21811	193.65346	-15.45973	-288.03918	-336.04571	-300.24423	0
843	-75.67131	-131.00087	-55.32956	101.70875	-10.57771	-94.38572	108.21811	193.65346	-15.45973	-288.03918	-336.04571	-292.9212	0
844	-80.55333	-135.88289	-55.32956	106.59077	-13.01872	-96.82673	108.21811	193.65346	-15.45973	-292.9212	-340.92773	-292.9212	0
845	-82.99434	-135.88289	-52.88855	109.03178	-15.45973	-94.38572	108.21811	196.09447	-13.01872	-295.36221	-340.92773	-292.9212	0
846	-80.55333	-133.44188	-52.88855	106.59077	-15.45973	-94.38572	108.21811	200.97649	-10.57771	-290.48019	-338.48672	-297.80322	0
847	-80.55333	-135.88289	-55.32956	106.59077	-13.01872	-96.82673	108.21811	203.4175	-10.57771	-288.03918	-336.04571	-300.24423	0
848	-82.99434	-138.3239	-55.32956	109.03178	-15.45973	-96.82673	108.21811	203.4175	-8.1367	-283.15716	-331.16369	-300.24423	0
849	-80.55333	-138.3239	-57.77057	109.03178	-13.01872	-99.26774	110.65912	203.4175	-10.57771	-280.71615	-326.28167	-297.80322	0
850	-78.11232	-135.88289	-57.77057	106.59077	-10.57771	-96.82673	110.65912	200.97649	-13.01872	-280.71615	-323.84066	-295.36221	0
851	-75.67131	-133.44188	-57.77057	104.14976	-10.57771	-96.82673	113.10013	203.4175	-10.57771	-275.83413	-323.84066	-285.59817	0
852	-82.99434	-143.20592	-60.21158	111.47279	-13.01872	-101.70875	113.10013	200.97649	-10.57771	-278.27514	-323.84066	-280.71615	0
853	-85.43535	-150.52895	-65.0936	116.35481	-10.57771	-109.03178	113.10013	200.97649	-10.57771	-280.71615	-323.84066	-273.39312	0
854	-85.43535	-150.52895	-65.0936	116.35481	-10.57771	-109.03178	115.54114	203.4175	-8.1367	-283.15716	-326.28167	-273.39312	0
855	-85.43535	-148.08794	-62.65259	116.35481	-13.01872	-106.59077	115.54114	205.85851	-5.69569	-285.59817	-328.72268	-275.83413	0
856	-85.43535	-145.64693	-60.21158	113.9138	-13.01872	-104.14976	113.10013	205.85851	-3.25468	-285.59817	-331.16369	-283.15716	0
857	-85.43535	-143.20592	-57.77057	113.9138	-15.45973	-101.70875	113.10013	208.29952	-3.25468	-283.15716	-331.16369	-288.03918	0
858	-85.43535	-140.76491	-55.32956	111.47279	-15.45973	-99.26774	115.54114	205.85851	-5.69569	-280.71615	-331.16369	-290.48019	0
859	-80.55333	-131.00087	-50.44754	104.14976	-15.45973	-91.94471	117.98215	205.85851	-10.57771	-280.71615	-331.16369	-292.9212	0
860	-80.55333	-121.23683	-40.6835	99.26774	-20.34175	-82.18067	115.54114	200.97649	-13.01872	-280.71615	-333.6047	-295.36221	0
861	-78.11232	-118.79582	-40.6835	96.82673	-20.34175	-79.73966	113.10013	198.53548	-17.90074	-280.71615	-336.04571	-295.36221	0
862	-75.67131	-123.67784	-48.00653	99.26774	-15.45973	-87.06269	113.10013	196.09447	-17.90074	-283.15716	-338.48672	-292.9212	0
863	-78.11232	-128.55986	-50.44754	101.70875	-15.45973	-89.5037	113.10013	200.97649	-13.01872	-285.59817	-340.92773	-288.03918	0
864	-82.99434	-135.88289	-52.88855	109.03178	-15.45973	-94.38572	115.54114	205.85851	-8.1367	-285.59817	-343.36874	-288.03918	0
865	-82.99434	-140.76491	-57.77057	111.47279	-13.01872	-99.26774	115.54114	210.74053	-3.25468	-285.59817	-340.92773	-290.48019	0
866	-82.99434	-148.08794	-65.0936	113.9138	-10.57771	-106.59077	115.54114	215.62255	4.06835	-278.27514	-338.48672	-295.36221	0
867	-82.99434	-150.52895	-67.53461	116.35481	-8.1367	-109.03178	117.98215	220.50457	6.50936	-275.83413	-336.04571	-297.80322	0
868	-87.87636	-150.52895	-62.65259	118.79582	-13.01872	-106.59077	120.42316	225.38659	12.20505	-268.5111	-328.72268	-297.80322	0
869	-85.43535	-148.08794	-62.65259	116.35481	-13.01872	-106.59077	125.30518	227.8276	12.20505	-263.62908	-323.84066	-297.80322	0
870	-80.55333	-140.76491	-60.21158	109.03178	-10.57771	-101.70875	125.30518	227.8276	12.20505	-263.62908	-323.84066	-297.80322	0
871	-80.55333	-133.44188	-52.88855	106.59077	-15.45973	-94.38572	125.30518	225.38659	6.50936	-263.62908	-326.28167	-297.80322	0
872	-82.99434	-133.44188	-50.44754	106.59077	-17.90074	-91.94471	122.86417	220.50457	6.50936	-263.62908	-326.28167	-295.36221	0
873	-85.43535	-133.44188	-48.00653	109.03178	-20.34175	-91.94471	122.86417	220.50457	9.76404	-266.07009	-328.72268	-292.9212	0
874	-82.99434	-133.44188	-50.44754	106.59077	-17.90074	-91.94471	125.30518	220.50457	12.20505	-270.95211	-331.16369	-292.9212	0
875	-85.43535	-131.00087	-45.56552	106.59077	-20.34175	-89.5037	125.30518	222.94558	12.20505	-273.39312	-331.16369	-297.80322	0
876	-87.87636	-133.44188	-45.56552	109.03178	-22.78276	-89.5037	120.42316	225.38659	12.20505	-273.39312	-333.6047	-305.12625	0
877	-85.43535	-133.44188	-48.00653	109.03178	-20.34175	-91.94471	122.86417	230.26861	17.08707	-270.95211	-331.16369	-310.00827	0
878	-80.55333	-128.55986	-48.00653	104.14976	-17.90074	-89.5037	122.86417	235.15063	17.08707	-268.5111	-331.16369	-310.00827	0
879	-80.55333	-123.67784	-43.12451	101.70875	-20.34175	-84.62168	127.74619	237.59164	19.52808	-266.07009	-328.72268	-310.00827	0
880	-85.43535	-123.67784	-38.24249	104.14976	-25.22377	-82.18067	127.74619	237.59164	19.52808	-263.62908	-328.72268	-312.44928	0
881	-87.87636	-123.67784	-35.80148	104.14976	-27.66478	-79.73966	127.74619	240.03265	19.52808	-261.18807	-331.16369	-312.44928	0
882	-85.43535	-121.23683	-35.80148	101.70875	-25.22377	-79.73966	127.74619	240.03265	21.96909	-258.74706	-328.72268	-307.56726	0
883	-87.87636	-121.23683	-33.36047	104.14976	-27.66478	-77.29865	127.74619	237.59164	24.4101	-258.74706	-328.72268	-302.68524	0
884	-87.87636	-123.67784	-35.80148	104.14976	-27.66478	-79.73966	125.30518	235.15063	24.4101	-261.18807	-333.6047	-300.24423	0
885	-87.87636	-123.67784	-35.80148	104.14976	-27.66478	-79.73966	122.86417	237.59164	29.29212	-263.62908	-333.6047	-302.68524	0
886	-87.87636	-123.67784	-35.80148	104.14976	-27.66478	-79.73966	120.42316	240.03265	31.73313	-261.18807	-331.16369	-302.68524	0
887	-87.87636	-123.67784	-35.80148	104.14976	-27.66478	-79.73966	120.42316	242.47366	36.61515	-258.74706	-331.16369	-302.68524	0
888	-87.87636	-123.67784	-35.80148	104.14976	-27.66478	-79.73966	120.42316	244.91467	39.05616	-256.30605	-328.72268	-302.68524	0
889	-85.43535	-123.67784	-38.24249	104.14976	-25.22377	-82.18067	120.42316	247.35568	41.49717	-253.86504	-328.72268	-305.12625	0
890	-82.99434	-118.79582	-35.80148	99.26774	-25.22377	-77.29865	122.86417	247.35568	43.93818	-248.98302	-328.72268	-305.12625	0
891	-82.99434	-118.79582	-35.80148	99.26774	-25.22377	-77.29865	125.30518	249.79669	48.8202	-241.65999	-326.28167	-305.12625	0
892	-82.99434	-118.79582	-35.80148	99.26774	-25.22377	-77.29865	125.30518	247.35568	48.8202	-239.21898	-328.72268	-305.12625	0
893	-82.99434	-116.35481	-33.36047	99.26774	-25.22377	-74.85764	127.74619	247.35568	51.26121	-236.77797	-328.72268	-300.24423	0
894	-85.43535	-113.9138	-28.47845	99.26774	-30.10579	-72.41663	127.74619	244.91467	53.70222	-236.77797	-328.72268	-297.80322	0
895	-87.87636	-116.35481	-28.47845	101.70875	-30.10579	-72.41663	122.86417	244.91467	53.70222	-236.77797	-323.84066	-297.80322	0
896	-87.87636	-113.9138	-26.03744	99.26774	-32.5468	-69.97562	120.42316	244.91467	56.14323	-236.77797	-318.95864	-295.36221	0
897	-87.87636	-118.79582	-30.91946	101.70875	-30.10579	-74.85764	117.98215	247.35568	56.14323	-239.21898	-314.07662	-292.9212	0
898	-82.99434	-123.67784	-40.6835	101.70875	-22.78276	-82.18067	115.54114	247.35568	58.58424	-236.77797	-309.1946	-292.9212	0
899	-82.99434	-128.55986	-45.56552	104.14976	-20.34175	-87.06269	115.54114	252.2377	63.46626	-231.89595	-304.31258	-290.48019	0
900	-85.43535	-128.55986	-43.12451	106.59077	-22.78276	-87.06269	115.54114	252.2377	65.90727	-227.01393	-304.31258	-292.9212	0
901	-78.11232	-121.23683	-43.12451	99.26774	-17.90074	-82.18067	117.98215	252.2377	65.90727	-219.6909	-304.31258	-292.9212	0
902	-78.11232	-118.79582	-40.6835	96.82673	-20.34175	-79.73966	117.98215	249.79669	65.90727	-214.80888	-301.87157	-290.48019	0
903	-78.11232	-113.9138	-35.80148	94.38572	-22.78276	-74.85764	117.98215	244.91467	63.46626	-212.36787	-301.87157	-290.48019	0
904	-78.11232	-106.59077	-28.47845	91.94471	-25.22377	-67.53461	117.98215	240.03265	61.02525	-209.92686	-301.87157	-290.48019	0
905	-80.55333	-101.70875	-21.15542	89.5037	-30.10579	-62.65259	115.54114	237.59164	58.58424	-209.92686	-296.98955	-292.9212	0
906	-73.2303	-101.70875	-28.47845	87.06269	-22.78276	-65.0936	115.54114	232.70962	56.14323	-214.80888	-296.98955	-292.9212	0
907	-73.2303	-109.03178	-35.80148	89.5037	-20.34175	-72.41663	115.54114	230.26861	58.58424	-217.24989	-296.98955	-292.9212	0
908	-78.11232	-111.47279	-33.36047	94.38572	-22.78276	-72.41663	113.10013	230.26861	58.58424	-219.6909	-294.54854	-297.80322	0
909	-78.11232	-111.47279	-33.36047	94.38572	-22.78276	-72.41663	108.21811	230.26861	58.58424	-222.13191	-296.98955	-302.68524	0
910	-80.55333	-111.47279	-30.91946	94.38572	-25.22377	-72.41663	105.7771	230.26861	58.58424	-222.13191	-301.87157	-307.56726	0
911	-85.43535	-116.35481	-30.91946	99.26774	-27.66478	-74.85764	103.33609	227.8276	61.02525	-219.6909	-306.75359	-310.00827	0
912	-85.43535	-109.03178	-23.59643	96.82673	-32.5468	-67.53461	103.33609	225.38659	58.58424	-219.6909	-306.75359	-310.00827	0
913	-78.11232	-94.38572	-16.2734	84.62168	-32.5468	-55.32956	103.33609	222.94558	51.26121	-217.24989	-309.1946	-307.56726	0
914	-75.67131	-87.06269	-11.39138	79.73966	-32.5468	-50.44754	100.89508	218.06356	48.8202	-214.80888	-306.75359	-302.68524	0
915	-75.67131	-91.94471	-16.2734	82.18067	-30.10579	-55.32956	100.89508	215.62255	46.37919	-212.36787	-299.43056	-302.68524	0
916	-73.2303	-96.82673	-23.59643	84.62168	-25.22377	-60.21158	100.89508	215.62255	48.8202	-212.36787	-296.98955	-297.80322	0
917	-73.2303	-96.82673	-23.59643	84.62168	-25.22377	-60.21158	100.89508	213.18154	51.26121	-212.36787	-289.66652	-295.36221	0
918	-65.90727	-94.38572	-28.47845	79.73966	-20.34175	-62.65259	103.33609	215.62255	56.14323	-209.92686	-284.7845	-292.9212	0
919	-70.78929	-99.26774	-28.47845	84.62168	-22.78276	-65.0936	98.45407	215.62255	58.58424	-209.92686	-287.22551	-295.36221	0
920	-75.67131	-99.26774	-23.59643	87.06269	-27.66478	-62.65259	96.01306	213.18154	58.58424	-207.48585	-289.66652	-300.24423	0
921	-78.11232	-96.82673	-18.71441	87.06269	-30.10579	-57.77057	96.01306	215.62255	63.46626	-205.04484	-289.66652	-300.24423	0
922	-78.11232	-91.94471	-13.83239	84.62168	-32.5468	-52.88855	96.01306	215.62255	63.46626	-200.16282	-292.10753	-300.24423	0
923	-75.67131	-87.06269	-11.39138	79.73966	-32.5468	-50.44754	98.45407	213.18154	61.02525	-197.72181	-294.54854	-300.24423	0
924	-73.2303	-91.94471	-18.71441	82.18067	-27.66478	-55.32956	98.45407	208.29952	58.58424	-197.72181	-296.98955	-300.24423	0
925	-70.78929	-94.38572	-23.59643	82.18067	-25.22377	-60.21158	100.89508	208.29952	58.58424	-192.83979	-289.66652	-302.68524	0
926	-70.78929	-99.26774	-28.47845	84.62168	-22.78276	-65.0936	100.89508	208.29952	61.02525	-192.83979	-284.7845	-302.68524	0
927	-70.78929	-106.59077	-35.80148	87.06269	-17.90074	-72.41663	98.45407	205.85851	61.02525	-195.2808	-284.7845	-305.12625	0
928	-68.34828	-104.14976	-35.80148	84.62168	-17.90074	-69.97562	98.45407	203.4175	63.46626	-197.72181	-284.7845	-307.56726	0
929	-68.34828	-106.59077	-38.24249	87.06269	-15.45973	-72.41663	96.01306	203.4175	68.34828	-195.2808	-282.34349	-307.56726	0
930	-68.34828	-109.03178	-40.6835	87.06269	-15.45973	-74.85764	93.57205	205.85851	68.34828	-192.83979	-282.34349	-310.00827	0
931	-70.78929	-106.59077	-35.80148	87.06269	-17.90074	-72.41663	93.57205	203.4175	70.78929	-190.39878	-284.7845	-310.00827	0
932	-73.2303	-104.14976	-30.91946	87.06269	-22.78276	-67.53461	91.13104	200.97649	70.78929	-187.95777	-289.66652	-307.56726	0
933	-73.2303	-106.59077	-33.36047	89.5037	-20.34175	-69.97562	93.57205	198.53548	68.34828	-183.07575	-289.66652	-302.68524	0
934	-70.78929	-106.59077	-35.80148	87.06269	-17.90074	-72.41663	96.01306	196.09447	65.90727	-180.63474	-284.7845	-297.80322	0
935	-68.34828	-113.9138	-45.56552	89.5037	-13.01872	-79.73966	96.01306	196.09447	65.90727	-178.19373	-279.90248	-297.80322	0
936	-68.34828	-116.35481	-48.00653	91.94471	-10.57771	-82.18067	96.01306	193.65346	65.90727	-180.63474	-275.02046	-295.36221	0
937	-70.78929	-118.79582	-48.00653	94.38572	-13.01872	-84.62168	96.01306	191.21245	68.34828	-183.07575	-270.13844	-295.36221	0
938	-70.78929	-118.79582	-48.00653	94.38572	-13.01872	-84.62168	96.01306	193.65346	68.34828	-183.07575	-267.69743	-295.36221	0
939	-70.78929	-121.23683	-50.44754	94.38572	-10.57771	-87.06269	96.01306	196.09447	75.67131	-178.19373	-262.81541	-290.48019	0
940	-70.78929	-126.11885	-55.32956	96.82673	-8.1367	-91.94471	93.57205	203.4175	80.55333	-173.31171	-260.3744	-290.48019	0
941	-70.78929	-126.11885	-55.32956	96.82673	-8.1367	-91.94471	93.57205	203.4175	82.99434	-170.8707	-265.25642	-290.48019	0
942	-70.78929	-123.67784	-52.88855	96.82673	-10.57771	-89.5037	93.57205	198.53548	80.55333	-165.98868	-267.69743	-288.03918	0
943	-65.90727	-121.23683	-55.32956	91.94471	-5.69569	-89.5037	93.57205	196.09447	75.67131	-165.98868	-270.13844	-285.59817	0
944	-65.90727	-116.35481	-50.44754	89.5037	-8.1367	-84.62168	91.13104	191.21245	70.78929	-165.98868	-270.13844	-285.59817	0
945	-65.90727	-111.47279	-45.56552	87.06269	-10.57771	-79.73966	91.13104	188.77144	70.78929	-168.42969	-267.69743	-288.03918	0
946	-65.90727	-106.59077	-40.6835	84.62168	-13.01872	-74.85764	88.69003	183.88942	68.34828	-173.31171	-267.69743	-290.48019	0
947	-65.90727	-104.14976	-38.24249	84.62168	-15.45973	-72.41663	86.24902	181.44841	68.34828	-178.19373	-267.69743	-292.9212	0
948	-65.90727	-101.70875	-35.80148	82.18067	-15.45973	-69.97562	86.24902	181.44841	68.34828	-178.19373	-265.25642	-292.9212	0
949	-68.34828	-99.26774	-30.91946	82.18067	-20.34175	-65.0936	83.80801	183.88942	70.78929	-178.19373	-265.25642	-295.36221	0
950	-73.2303	-99.26774	-26.03744	84.62168	-25.22377	-62.65259	83.80801	186.33043	73.2303	-175.75272	-265.25642	-295.36221	0
951	-70.78929	-104.14976	-33.36047	87.06269	-20.34175	-69.97562	81.367	186.33043	73.2303	-175.75272	-270.13844	-297.80322	0
952	-70.78929	-109.03178	-38.24249	89.5037	-17.90074	-74.85764	81.367	186.33043	70.78929	-173.31171	-270.13844	-295.36221	0
953	-70.78929	-111.47279	-40.6835	89.5037	-15.45973	-77.29865	83.80801	186.33043	68.34828	-168.42969	-270.13844	-292.9212	0
