samplenr	I	II	III	aVR	aVL	aVF	V1	V2	V3	V4	V5	V6	measurement
0	-92.75838	22.78276	113.9138	33.36047	-102.52242	68.34828	34.17414	-31.73313	-112.28646	-156.22464	-55.32956	466.23291	0
1	-92.75838	27.66478	118.79582	30.91946	-104.96343	73.2303	31.73313	-34.17414	-114.72747	-158.66565	-57.77057	483.31998	0
2	-92.75838	37.42882	128.55986	26.03744	-109.84545	82.99434	26.85111	-39.05616	-117.16848	-161.10666	-62.65259	517.49412	0
3	-97.6404	39.86983	135.88289	28.47845	-117.16848	87.87636	21.96909	-41.49717	-117.16848	-163.54767	-65.0936	515.05311	0
4	-100.08141	42.31084	140.76491	28.47845	-119.60949	90.31737	19.52808	-41.49717	-114.72747	-163.54767	-65.0936	517.49412	0
5	-102.52242	37.42882	138.3239	30.91946	-119.60949	87.87636	17.08707	-41.49717	-112.28646	-163.54767	-65.0936	519.93513	0
6	-97.6404	37.42882	133.44188	28.47845	-114.72747	85.43535	17.08707	-41.49717	-114.72747	-163.54767	-62.65259	515.05311	0
7	-90.31737	34.98781	123.67784	26.03744	-107.40444	78.11232	12.20505	-41.49717	-119.60949	-165.98868	-60.21158	490.64301	0
8	-92.75838	34.98781	126.11885	28.47845	-109.84545	80.55333	9.76404	-43.93818	-122.0505	-165.98868	-57.77057	444.26382	0
9	-95.19939	34.98781	128.55986	28.47845	-112.28646	80.55333	7.32303	-41.49717	-124.49151	-168.42969	-55.32956	444.26382	0
10	-90.31737	32.5468	121.23683	28.47845	-104.96343	75.67131	7.32303	-46.37919	-126.93252	-170.8707	-57.77057	446.70483	0
11	-90.31737	32.5468	121.23683	28.47845	-104.96343	75.67131	7.32303	-48.8202	-129.37353	-173.31171	-60.21158	466.23291	0
12	-90.31737	30.10579	118.79582	28.47845	-104.96343	73.2303	7.32303	-48.8202	-129.37353	-173.31171	-65.0936	502.84806	0
13	-90.31737	27.66478	116.35481	30.91946	-102.52242	70.78929	2.44101	-51.26121	-129.37353	-175.75272	-69.97562	502.84806	0
14	-97.6404	27.66478	123.67784	33.36047	-109.84545	75.67131	2.44101	-51.26121	-126.93252	-173.31171	-74.85764	505.28907	0
15	-97.6404	27.66478	123.67784	33.36047	-109.84545	75.67131	0	-51.26121	-124.49151	-173.31171	-79.73966	505.28907	0
16	-97.6404	27.66478	123.67784	33.36047	-109.84545	75.67131	0	-51.26121	-124.49151	-170.8707	-79.73966	505.28907	0
17	-97.6404	27.66478	123.67784	33.36047	-109.84545	75.67131	2.44101	-51.26121	-124.49151	-168.42969	-79.73966	485.76099	0
18	-100.08141	25.22377	123.67784	35.80148	-112.28646	73.2303	2.44101	-48.8202	-126.93252	-168.42969	-77.29865	439.3818	0
19	-100.08141	25.22377	123.67784	35.80148	-112.28646	73.2303	2.44101	-48.8202	-129.37353	-170.8707	-74.85764	436.94079	0
20	-102.52242	25.22377	126.11885	38.24249	-114.72747	75.67131	2.44101	-51.26121	-131.81454	-173.31171	-72.41663	439.3818	0
21	-107.40444	20.34175	126.11885	43.12451	-117.16848	73.2303	2.44101	-53.70222	-131.81454	-175.75272	-72.41663	454.02786	0
22	-102.52242	20.34175	121.23683	40.6835	-112.28646	70.78929	2.44101	-53.70222	-131.81454	-178.19373	-69.97562	488.202	0
23	-100.08141	22.78276	121.23683	38.24249	-109.84545	70.78929	0	-53.70222	-131.81454	-178.19373	-72.41663	485.76099	0
24	-102.52242	20.34175	121.23683	40.6835	-112.28646	70.78929	-2.44101	-53.70222	-131.81454	-178.19373	-77.29865	483.31998	0
25	-104.96343	20.34175	123.67784	40.6835	-114.72747	70.78929	-2.44101	-53.70222	-131.81454	-180.63474	-84.62168	480.87897	0
26	-97.6404	20.34175	116.35481	38.24249	-107.40444	68.34828	-4.88202	-56.14323	-134.25555	-183.07575	-91.94471	475.99695	0
27	-95.19939	20.34175	113.9138	35.80148	-104.96343	65.90727	-7.32303	-56.14323	-136.69656	-183.07575	-94.38572	451.58685	0
28	-97.6404	20.34175	116.35481	38.24249	-107.40444	68.34828	-7.32303	-56.14323	-139.13757	-180.63474	-94.38572	407.64867	0
29	-100.08141	20.34175	118.79582	38.24249	-109.84545	68.34828	-4.88202	-56.14323	-139.13757	-180.63474	-94.38572	414.9717	0
30	-102.52242	22.78276	123.67784	38.24249	-112.28646	73.2303	-2.44101	-56.14323	-139.13757	-180.63474	-91.94471	424.73574	0
31	-112.28646	17.90074	128.55986	45.56552	-119.60949	73.2303	0	-58.58424	-141.57858	-180.63474	-87.06269	446.70483	0
32	-117.16848	15.45973	131.00087	50.44754	-124.49151	73.2303	0	-61.02525	-144.01959	-178.19373	-84.62168	485.76099	0
33	-119.60949	15.45973	133.44188	50.44754	-126.93252	73.2303	-2.44101	-63.46626	-146.4606	-178.19373	-82.18067	483.31998	0
34	-119.60949	13.01872	131.00087	52.88855	-124.49151	70.78929	-4.88202	-65.90727	-146.4606	-178.19373	-84.62168	485.76099	0
35	-126.93252	10.57771	135.88289	57.77057	-131.81454	73.2303	-4.88202	-65.90727	-144.01959	-173.31171	-87.06269	490.64301	0
36	-126.93252	8.1367	133.44188	57.77057	-129.37353	70.78929	-7.32303	-68.34828	-144.01959	-173.31171	-91.94471	490.64301	0
37	-117.16848	8.1367	123.67784	52.88855	-119.60949	65.90727	-9.76404	-73.2303	-146.4606	-170.8707	-96.82673	466.23291	0
38	-126.93252	5.69569	131.00087	60.21158	-129.37353	68.34828	-9.76404	-70.78929	-146.4606	-165.98868	-99.26774	422.29473	0
39	-122.0505	5.69569	126.11885	57.77057	-124.49151	65.90727	-9.76404	-70.78929	-146.4606	-168.42969	-104.14976	424.73574	0
40	-107.40444	5.69569	111.47279	50.44754	-109.84545	58.58424	-14.64606	-78.11232	-153.78363	-173.31171	-111.47279	422.29473	0
41	-109.84545	3.25468	111.47279	52.88855	-109.84545	56.14323	-14.64606	-80.55333	-153.78363	-175.75272	-113.9138	441.82281	0
42	-117.16848	0.81367	116.35481	57.77057	-117.16848	58.58424	-14.64606	-80.55333	-153.78363	-173.31171	-111.47279	480.87897	0
43	-119.60949	-1.62734	116.35481	60.21158	-117.16848	56.14323	-14.64606	-80.55333	-153.78363	-173.31171	-109.03178	480.87897	0
44	-119.60949	-1.62734	116.35481	60.21158	-117.16848	56.14323	-14.64606	-80.55333	-153.78363	-173.31171	-106.59077	480.87897	0
45	-129.37353	-1.62734	126.11885	65.0936	-126.93252	61.02525	-12.20505	-80.55333	-151.34262	-170.8707	-104.14976	480.87897	0
46	-124.49151	-1.62734	121.23683	62.65259	-122.0505	58.58424	-14.64606	-80.55333	-151.34262	-170.8707	-109.03178	475.99695	0
47	-112.28646	-4.88202	106.59077	57.77057	-109.84545	51.26121	-19.52808	-85.43535	-158.66565	-173.31171	-116.35481	446.70483	0
48	-126.93252	-4.88202	121.23683	65.0936	-124.49151	58.58424	-14.64606	-80.55333	-158.66565	-168.42969	-118.79582	405.20766	0
49	-139.13757	-7.32303	131.00087	72.41663	-136.69656	61.02525	-14.64606	-75.67131	-156.22464	-168.42969	-121.23683	412.53069	0
50	-129.37353	-7.32303	121.23683	67.53461	-126.93252	56.14323	-14.64606	-78.11232	-161.10666	-170.8707	-128.55986	419.85372	0
51	-119.60949	-4.88202	113.9138	60.21158	-117.16848	53.70222	-14.64606	-82.99434	-165.98868	-175.75272	-133.44188	439.3818	0
52	-114.72747	-4.88202	109.03178	57.77057	-112.28646	51.26121	-19.52808	-85.43535	-170.8707	-178.19373	-143.20592	480.87897	0
53	-114.72747	-9.76404	104.14976	60.21158	-109.84545	46.37919	-21.96909	-90.31737	-175.75272	-178.19373	-148.08794	478.43796	0
54	-114.72747	-9.76404	104.14976	60.21158	-109.84545	46.37919	-24.4101	-92.75838	-175.75272	-180.63474	-155.41097	475.99695	0
55	-119.60949	-9.76404	109.03178	62.65259	-114.72747	48.8202	-24.4101	-95.19939	-175.75272	-180.63474	-155.41097	475.99695	0
56	-112.28646	-4.88202	106.59077	57.77057	-109.84545	51.26121	-24.4101	-97.6404	-178.19373	-180.63474	-155.41097	471.11493	0
57	-100.08141	-4.88202	94.38572	50.44754	-97.6404	43.93818	-26.85111	-102.52242	-183.07575	-183.07575	-152.96996	446.70483	0
58	-97.6404	-4.88202	91.94471	50.44754	-95.19939	43.93818	-26.85111	-104.96343	-185.51676	-183.07575	-150.52895	397.88463	0
59	-102.52242	-4.88202	96.82673	52.88855	-100.08141	46.37919	-26.85111	-104.96343	-185.51676	-183.07575	-148.08794	402.76665	0
60	-104.96343	-4.88202	99.26774	52.88855	-102.52242	46.37919	-26.85111	-104.96343	-185.51676	-185.51676	-148.08794	402.76665	0
61	-107.40444	-4.88202	101.70875	55.32956	-104.96343	48.8202	-24.4101	-107.40444	-185.51676	-187.95777	-150.52895	419.85372	0
62	-100.08141	-4.88202	94.38572	50.44754	-97.6404	43.93818	-24.4101	-107.40444	-185.51676	-190.39878	-155.41097	458.90988	0
63	-95.19939	-4.88202	89.5037	48.00653	-92.75838	41.49717	-26.85111	-107.40444	-185.51676	-190.39878	-162.734	456.46887	0
64	-92.75838	-4.88202	87.06269	48.00653	-90.31737	41.49717	-31.73313	-107.40444	-187.95777	-192.83979	-170.05703	451.58685	0
65	-104.96343	-9.76404	94.38572	55.32956	-100.08141	41.49717	-31.73313	-107.40444	-187.95777	-195.2808	-174.93905	446.70483	0
66	-107.40444	-9.76404	96.82673	57.77057	-102.52242	43.93818	-29.29212	-104.96343	-185.51676	-195.2808	-174.93905	439.3818	0
67	-104.96343	-7.32303	96.82673	55.32956	-102.52242	43.93818	-29.29212	-102.52242	-187.95777	-192.83979	-177.38006	407.64867	0
68	-104.96343	-7.32303	96.82673	55.32956	-102.52242	43.93818	-29.29212	-100.08141	-187.95777	-192.83979	-174.93905	353.94645	0
69	-109.84545	-7.32303	101.70875	57.77057	-107.40444	46.37919	-29.29212	-97.6404	-187.95777	-192.83979	-172.49804	356.38746	0
70	-117.16848	-9.76404	106.59077	62.65259	-112.28646	48.8202	-26.85111	-97.6404	-187.95777	-192.83979	-165.17501	366.1515	0
71	-122.0505	-9.76404	111.47279	65.0936	-117.16848	51.26121	-21.96909	-97.6404	-187.95777	-195.2808	-160.29299	390.5616	0
72	-124.49151	-9.76404	113.9138	65.0936	-119.60949	51.26121	-21.96909	-95.19939	-185.51676	-192.83979	-155.41097	436.94079	0
73	-114.72747	-4.88202	109.03178	57.77057	-112.28646	51.26121	-21.96909	-95.19939	-183.07575	-192.83979	-160.29299	436.94079	0
74	-112.28646	-4.88202	106.59077	57.77057	-109.84545	51.26121	-24.4101	-92.75838	-180.63474	-187.95777	-165.17501	436.94079	0
75	-114.72747	-1.62734	111.47279	57.77057	-112.28646	53.70222	-21.96909	-87.87636	-178.19373	-187.95777	-170.05703	436.94079	0
76	-114.72747	3.25468	116.35481	55.32956	-114.72747	58.58424	-17.08707	-85.43535	-175.75272	-183.07575	-172.49804	436.94079	0
77	-114.72747	5.69569	118.79582	52.88855	-117.16848	61.02525	-9.76404	-80.55333	-175.75272	-180.63474	-172.49804	410.08968	0
78	-112.28646	10.57771	121.23683	50.44754	-117.16848	65.90727	-4.88202	-78.11232	-175.75272	-175.75272	-174.93905	358.82847	0
79	-109.84545	13.01872	121.23683	48.00653	-114.72747	65.90727	0	-75.67131	-173.31171	-173.31171	-174.93905	361.26948	0
80	-104.96343	13.01872	116.35481	45.56552	-109.84545	63.46626	2.44101	-75.67131	-173.31171	-173.31171	-170.05703	366.1515	0
81	-114.72747	13.01872	126.11885	50.44754	-119.60949	68.34828	12.20505	-70.78929	-168.42969	-168.42969	-160.29299	393.00261	0
82	-124.49151	13.01872	135.88289	55.32956	-129.37353	73.2303	19.52808	-65.90727	-161.10666	-163.54767	-152.96996	441.82281	0
83	-119.60949	13.01872	131.00087	52.88855	-124.49151	70.78929	19.52808	-63.46626	-158.66565	-158.66565	-150.52895	441.82281	0
84	-117.16848	13.01872	128.55986	50.44754	-122.0505	70.78929	19.52808	-61.02525	-151.34262	-153.78363	-150.52895	446.70483	0
85	-112.28646	10.57771	121.23683	50.44754	-117.16848	65.90727	17.08707	-61.02525	-148.90161	-151.34262	-152.96996	446.70483	0
86	-100.08141	10.57771	109.03178	43.12451	-104.96343	58.58424	12.20505	-63.46626	-146.4606	-151.34262	-155.41097	444.26382	0
87	-97.6404	10.57771	106.59077	43.12451	-102.52242	58.58424	12.20505	-58.58424	-144.01959	-146.4606	-152.96996	419.85372	0
88	-97.6404	10.57771	106.59077	43.12451	-102.52242	58.58424	12.20505	-53.70222	-141.57858	-141.57858	-150.52895	373.47453	0
89	-95.19939	15.45973	109.03178	38.24249	-102.52242	61.02525	9.76404	-51.26121	-139.13757	-141.57858	-143.20592	383.23857	0
90	-90.31737	17.90074	106.59077	35.80148	-97.6404	61.02525	7.32303	-51.26121	-141.57858	-146.4606	-138.3239	390.5616	0
91	-85.43535	17.90074	101.70875	33.36047	-92.75838	58.58424	2.44101	-58.58424	-146.4606	-151.34262	-133.44188	417.41271	0
92	-82.99434	20.34175	101.70875	30.91946	-92.75838	61.02525	-2.44101	-63.46626	-151.34262	-151.34262	-128.55986	463.7919	0
93	-87.87636	25.22377	111.47279	30.91946	-100.08141	68.34828	-7.32303	-68.34828	-153.78363	-151.34262	-126.11885	463.7919	0
94	-104.96343	25.22377	128.55986	38.24249	-117.16848	75.67131	-9.76404	-70.78929	-151.34262	-151.34262	-121.23683	468.67392	0
95	-114.72747	25.22377	138.3239	43.12451	-126.93252	80.55333	-14.64606	-75.67131	-153.78363	-151.34262	-123.67784	466.23291	0
96	-114.72747	25.22377	138.3239	43.12451	-126.93252	80.55333	-21.96909	-80.55333	-156.22464	-153.78363	-128.55986	458.90988	0
97	-112.28646	22.78276	133.44188	43.12451	-122.0505	78.11232	-29.29212	-90.31737	-165.98868	-158.66565	-135.88289	422.29473	0
98	-112.28646	15.45973	126.11885	48.00653	-119.60949	70.78929	-36.61515	-95.19939	-170.8707	-161.10666	-143.20592	363.71049	0
99	-112.28646	10.57771	121.23683	50.44754	-117.16848	65.90727	-41.49717	-97.6404	-173.31171	-163.54767	-150.52895	361.26948	0
100	-114.72747	5.69569	118.79582	52.88855	-117.16848	61.02525	-41.49717	-102.52242	-173.31171	-168.42969	-155.41097	363.71049	1000	P+0
101	-112.28646	0.81367	111.47279	55.32956	-112.28646	56.14323	-43.93818	-107.40444	-178.19373	-175.75272	-160.29299	383.23857	0
102	-109.84545	-4.88202	104.14976	55.32956	-107.40444	48.8202	-46.37919	-107.40444	-180.63474	-180.63474	-162.734	422.29473	0
103	-109.84545	-12.20505	96.82673	60.21158	-104.96343	41.49717	-48.8202	-109.84545	-185.51676	-183.07575	-162.734	417.41271	0
104	-104.96343	-14.64606	89.5037	57.77057	-97.6404	36.61515	-51.26121	-109.84545	-185.51676	-185.51676	-165.17501	412.53069	0
105	-102.52242	-17.08707	84.62168	57.77057	-95.19939	34.17414	-51.26121	-109.84545	-187.95777	-185.51676	-167.61602	407.64867	0
106	-107.40444	-19.52808	87.06269	62.65259	-97.6404	34.17414	-48.8202	-109.84545	-187.95777	-185.51676	-170.05703	402.76665	0
107	-112.28646	-21.96909	89.5037	65.0936	-102.52242	34.17414	-46.37919	-112.28646	-190.39878	-187.95777	-170.05703	368.59251	0
108	-114.72747	-24.4101	89.5037	67.53461	-102.52242	31.73313	-46.37919	-112.28646	-192.83979	-187.95777	-167.61602	310.00827	0
109	-124.49151	-26.85111	96.82673	74.85764	-112.28646	34.17414	-43.93818	-109.84545	-192.83979	-187.95777	-165.17501	307.56726	0
110	-117.16848	-26.85111	89.5037	69.97562	-104.96343	31.73313	-43.93818	-114.72747	-195.2808	-192.83979	-170.05703	307.56726	0
111	-114.72747	-26.85111	87.06269	69.97562	-102.52242	29.29212	-43.93818	-117.16848	-200.16282	-197.72181	-170.05703	331.97736	0
112	-122.0505	-31.73313	89.5037	74.85764	-107.40444	29.29212	-43.93818	-119.60949	-202.60383	-200.16282	-174.93905	373.47453	0
113	-129.37353	-31.73313	96.82673	79.73966	-114.72747	31.73313	-41.49717	-119.60949	-202.60383	-197.72181	-182.26208	371.03352	0
114	-131.81454	-31.73313	99.26774	79.73966	-117.16848	34.17414	-41.49717	-122.0505	-200.16282	-197.72181	-189.58511	366.1515	0
115	-129.37353	-31.73313	96.82673	79.73966	-114.72747	31.73313	-41.49717	-122.0505	-197.72181	-200.16282	-196.90814	361.26948	0
116	-129.37353	-34.17414	94.38572	79.73966	-112.28646	29.29212	-43.93818	-124.49151	-200.16282	-200.16282	-204.23117	353.94645	0
117	-126.93252	-34.17414	91.94471	79.73966	-109.84545	29.29212	-46.37919	-126.93252	-202.60383	-202.60383	-209.11319	324.65433	0
118	-134.25555	-36.61515	96.82673	84.62168	-117.16848	29.29212	-46.37919	-124.49151	-205.04484	-200.16282	-206.67218	266.07009	0
119	-146.4606	-36.61515	109.03178	89.5037	-129.37353	36.61515	-41.49717	-119.60949	-200.16282	-197.72181	-199.34915	266.07009	0
120	-158.66565	-36.61515	121.23683	96.82673	-141.57858	41.49717	-39.05616	-117.16848	-195.2808	-192.83979	-194.46713	270.95211	0
121	-151.34262	-36.61515	113.9138	91.94471	-134.25555	39.05616	-41.49717	-122.0505	-195.2808	-195.2808	-192.02612	292.9212	0
122	-144.01959	-43.93818	99.26774	91.94471	-122.0505	26.85111	-48.8202	-126.93252	-200.16282	-200.16282	-196.90814	334.41837	0
123	-144.01959	-43.93818	99.26774	91.94471	-122.0505	26.85111	-51.26121	-126.93252	-202.60383	-200.16282	-196.90814	331.97736	0
124	-144.01959	-46.37919	96.82673	94.38572	-122.0505	24.4101	-53.70222	-126.93252	-202.60383	-200.16282	-199.34915	331.97736	0
125	-144.01959	-48.8202	94.38572	94.38572	-119.60949	21.96909	-56.14323	-129.37353	-202.60383	-200.16282	-204.23117	327.09534	0
126	-136.69656	-48.8202	87.06269	91.94471	-112.28646	19.52808	-56.14323	-129.37353	-202.60383	-200.16282	-206.67218	322.21332	0
127	-126.93252	-48.8202	77.29865	87.06269	-102.52242	14.64606	-58.58424	-131.81454	-207.48585	-200.16282	-211.5542	297.80322	0
128	-114.72747	-48.8202	65.0936	79.73966	-90.31737	7.32303	-63.46626	-134.25555	-212.36787	-200.16282	-216.43622	241.65999	0
129	-104.96343	-48.8202	55.32956	74.85764	-80.55333	2.44101	-65.90727	-136.69656	-214.80888	-207.48585	-218.87723	241.65999	0
130	-119.60949	-48.8202	69.97562	82.18067	-95.19939	9.76404	-58.58424	-131.81454	-209.92686	-202.60383	-213.99521	251.42403	0
131	-122.0505	-48.8202	72.41663	84.62168	-97.6404	12.20505	-56.14323	-129.37353	-207.48585	-202.60383	-209.11319	275.83413	0
132	-114.72747	-48.8202	65.0936	79.73966	-90.31737	7.32303	-58.58424	-129.37353	-209.92686	-202.60383	-209.11319	319.77231	0
133	-114.72747	-48.8202	65.0936	79.73966	-90.31737	7.32303	-58.58424	-124.49151	-209.92686	-200.16282	-211.5542	319.77231	0
134	-117.16848	-46.37919	69.97562	79.73966	-95.19939	12.20505	-58.58424	-119.60949	-207.48585	-197.72181	-211.5542	319.77231	0
135	-122.0505	-46.37919	74.85764	82.18067	-100.08141	14.64606	-56.14323	-114.72747	-205.04484	-197.72181	-213.99521	317.3313	0
136	-122.0505	-48.8202	72.41663	84.62168	-97.6404	12.20505	-53.70222	-112.28646	-205.04484	-195.2808	-216.43622	307.56726	0
137	-114.72747	-46.37919	67.53461	79.73966	-92.75838	9.76404	-56.14323	-109.84545	-209.92686	-195.2808	-221.31824	280.71615	0
138	-107.40444	-43.93818	62.65259	74.85764	-85.43535	9.76404	-56.14323	-107.40444	-212.36787	-195.2808	-226.20026	227.01393	0
139	-107.40444	-43.93818	62.65259	74.85764	-85.43535	9.76404	-56.14323	-102.52242	-212.36787	-195.2808	-231.08228	227.01393	0
140	-112.28646	-43.93818	67.53461	77.29865	-90.31737	12.20505	-53.70222	-97.6404	-212.36787	-195.2808	-231.08228	231.89595	0
141	-119.60949	-43.93818	74.85764	79.73966	-97.6404	14.64606	-48.8202	-97.6404	-209.92686	-192.83979	-228.64127	256.30605	0
142	-119.60949	-46.37919	72.41663	82.18067	-97.6404	12.20505	-48.8202	-95.19939	-209.92686	-192.83979	-226.20026	297.80322	0
143	-119.60949	-46.37919	72.41663	82.18067	-97.6404	12.20505	-48.8202	-92.75838	-207.48585	-187.95777	-226.20026	297.80322	0
144	-124.49151	-46.37919	77.29865	84.62168	-102.52242	14.64606	-46.37919	-87.87636	-200.16282	-183.07575	-226.20026	300.24423	0
145	-124.49151	-46.37919	77.29865	84.62168	-102.52242	14.64606	-46.37919	-87.87636	-200.16282	-185.51676	-231.08228	295.36221	0
146	-122.0505	-46.37919	74.85764	82.18067	-100.08141	14.64606	-46.37919	-87.87636	-200.16282	-185.51676	-231.08228	288.03918	0
147	-122.0505	-48.8202	72.41663	84.62168	-97.6404	12.20505	-46.37919	-87.87636	-205.04484	-185.51676	-228.64127	256.30605	0
148	-122.0505	-48.8202	72.41663	84.62168	-97.6404	12.20505	-46.37919	-85.43535	-207.48585	-183.07575	-226.20026	200.16282	0
149	-117.16848	-48.8202	67.53461	82.18067	-92.75838	9.76404	-48.8202	-85.43535	-207.48585	-187.95777	-226.20026	200.16282	0
150	-114.72747	-48.8202	65.0936	79.73966	-90.31737	7.32303	-51.26121	-85.43535	-209.92686	-190.39878	-226.20026	202.60383	0
151	-119.60949	-48.8202	69.97562	82.18067	-95.19939	9.76404	-46.37919	-82.99434	-209.92686	-192.83979	-223.75925	229.45494	0
152	-117.16848	-46.37919	69.97562	79.73966	-95.19939	12.20505	-43.93818	-82.99434	-214.80888	-195.2808	-226.20026	270.95211	0
153	-114.72747	-43.93818	69.97562	77.29865	-92.75838	12.20505	-41.49717	-78.11232	-217.24989	-195.2808	-228.64127	266.07009	0
154	-122.0505	-41.49717	79.73966	79.73966	-102.52242	19.52808	-31.73313	-68.34828	-209.92686	-190.39878	-226.20026	266.07009	0
155	-129.37353	-41.49717	87.06269	84.62168	-109.84545	21.96909	-19.52808	-53.70222	-202.60383	-190.39878	-228.64127	261.18807	0
156	-136.69656	-41.49717	94.38572	87.06269	-117.16848	26.85111	-2.44101	-34.17414	-197.72181	-190.39878	-233.52329	251.42403	0
157	-146.4606	-43.93818	101.70875	94.38572	-124.49151	29.29212	17.08707	-12.20505	-195.2808	-192.83979	-243.28733	217.24989	0
158	-153.78363	-46.37919	106.59077	99.26774	-131.81454	29.29212	39.05616	13.01872	-195.2808	-200.16282	-257.93339	151.34262	0
159	-158.66565	-48.8202	109.03178	101.70875	-134.25555	29.29212	59.39791	42.31084	-192.83979	-209.92686	-275.02046	141.57858	0
160	-165.98868	-51.26121	113.9138	106.59077	-141.57858	31.73313	83.80801	69.16195	-190.39878	-222.13191	-253.05137	4.06835	0
161	-163.54767	-75.67131	87.06269	118.79582	-126.93252	4.88202	113.10013	113.10013	-187.95777	-241.65999	-331.16369	-15.45973	0
162	-190.39878	-80.55333	109.03178	133.44188	-151.34262	14.64606	132.62821	137.51023	-187.95777	-268.5111	-370.21985	-30.10579	0
163	-212.36787	-68.34828	143.20592	138.3239	-178.19373	36.61515	159.47932	179.0074	-185.51676	-275.83413	-370.21985	436.94079	0
164	-207.48585	-70.78929	135.88289	138.3239	-173.31171	31.73313	186.33043	183.88942	-180.63474	-283.15716	-384.86591	417.41271	0
165	-253.86504	-39.05616	213.99521	145.64693	-234.33696	87.87636	232.70962	198.53548	-183.07575	-266.07009	-340.92773	393.00261	0
166	-173.31171	-19.52808	152.96996	94.38572	-163.54767	65.90727	191.21245	154.5973	-207.48585	-258.74706	-326.28167	400.32564	0
167	-124.49151	0.81367	123.67784	60.21158	-124.49151	61.02525	159.47932	122.86417	-165.98868	-192.83979	-243.28733	73.2303	0
168	-109.84545	37.42882	145.64693	35.80148	-126.93252	90.31737	117.98215	61.83892	-114.72747	-112.28646	-135.88289	170.8707	0
169	-85.43535	56.9569	140.76491	13.83239	-112.28646	97.6404	78.92599	-14.64606	-87.87636	-23.59643	-30.10579	251.42403	0
170	-26.85111	96.01306	121.23683	-35.80148	-73.2303	107.40444	-14.64606	-122.0505	-61.02525	54.51589	69.97562	353.94645	0
171	159.47932	161.92033	1.62734	-160.29299	78.92599	82.99434	-148.90161	-290.48019	-56.14323	120.42316	160.29299	473.55594	0
172	127.74619	220.50457	91.94471	-174.93905	17.90074	156.22464	-231.89595	-414.9717	22.78276	262.00174	340.92773	637.10361	0
173	276.6478	318.14497	40.6835	-296.98955	117.98215	180.63474	-393.00261	-649.30866	-8.95037	332.79103	465.41924	-14816.9307	0
174	393.81628	432.87244	38.24249	-414.15803	179.0074	236.77797	-534.58119	-837.26643	20.34175	496.3387	643.61297	-14672.91111	0
175	420.66739	508.54375	87.06269	-465.41924	166.80235	297.80322	-649.30866	-951.9939	100.89508	676.97344	843.77579	-14528.89152	0
176	550.04092	591.53809	40.6835	-570.38267	254.67871	317.3313	-839.70744	-1069.16238	154.5973	842.96212	1004.88245	-14379.98991	0
177	625.71223	615.94819	-11.39138	-621.64388	318.14497	302.68524	-981.28602	-1193.65389	203.4175	996.74575	1146.46103	-14668.02909	0
178	647.68132	618.3892	-30.91946	-633.84893	340.11406	295.36221	-1081.36743	-1288.85328	291.29386	1174.93948	1327.09577	-14555.74263	0
179	691.6195	557.36395	-135.88289	-624.08489	413.34436	212.36787	-1154.59773	-1357.20156	352.31911	1338.48715	1463.79233	-14526.45051	0
180	762.40879	523.18981	-240.84632	-643.61297	501.22072	141.57858	-1257.12015	-1391.3757	413.34436	1455.65563	1558.99172	-14524.0095	0
181	716.0296	481.69264	-235.9643	-599.67479	476.81062	124.49151	-1274.20722	-1293.7353	562.24597	1628.15367	1665.58249	-14497.15839	0
182	691.6195	437.75446	-255.49238	-565.50065	474.36961	92.75838	-1242.47409	-1198.53591	662.32738	1725.79407	1697.31562	-14543.53758	0
183	569.569	364.52416	-206.67218	-467.86025	388.93426	80.55333	-1144.83369	-1074.0444	757.52677	1796.58336	1670.46451	-14211.56022	0
184	530.51284	293.73487	-238.40531	-411.71702	384.05224	29.29212	-1010.57814	-905.61471	864.93121	1847.84457	1539.46364	-14401.959	0
185	545.1589	235.15063	-311.63561	-389.74793	427.99042	-37.42882	-930.02481	-788.44623	882.01828	1799.02437	1373.47496	-14658.26505	0
186	476.81062	176.56639	-301.87157	-326.28167	388.93426	-61.83892	-876.32259	-688.36482	857.60818	1747.76316	1214.80931	-14824.25373	0
187	393.81628	130.1872	-265.25642	-262.81541	330.35002	-66.72094	-803.09229	-624.89856	789.2599	1613.50761	1046.37962	622.45755	0
188	269.32477	88.69003	-182.26208	-179.82107	225.38659	-47.19286	-693.24684	-512.6121	733.11667	1487.38876	938.97518	510.17109	0
189	198.53548	91.13104	-109.03178	-145.64693	154.5973	-8.1367	-590.72442	-422.29473	647.68132	1360.45624	851.09882	432.05877	0
190	157.03831	105.7771	-52.88855	-131.00087	105.7771	26.85111	-480.87897	-302.68524	603.74314	1233.52372	772.9865	368.59251	0
191	52.07488	127.74619	74.85764	-89.5037	-12.20505	102.52242	-366.1515	-202.60383	530.51284	1062.65302	648.49499	327.09534	0
192	-29.29212	142.39225	170.05703	-57.77057	-100.08141	156.22464	-307.56726	-165.98868	401.13931	811.22899	489.82934	256.30605	0
193	-90.31737	115.54114	204.23117	-13.83239	-146.4606	158.66565	-229.45494	-117.16848	286.41184	593.9791	350.69177	637.10361	0
194	-48.8202	93.57205	140.76491	-23.59643	-95.19939	117.16848	-205.04484	-117.16848	169.24336	391.37527	177.38006	563.87331	0
195	-17.08707	88.69003	104.14976	-35.80148	-61.02525	95.19939	-180.63474	-95.19939	78.92599	220.50457	50.44754	461.35089	0
196	-1.62734	76.48498	77.29865	-38.24249	-39.05616	78.11232	-180.63474	-61.02525	0.81367	83.80801	-74.85764	412.53069	0
197	-75.67131	56.9569	131.00087	8.95037	-102.52242	92.75838	-134.25555	-19.52808	-33.36047	-13.83239	-148.08794	26.85111	0
198	-68.34828	44.75185	111.47279	11.39138	-90.31737	78.11232	-109.84545	13.01872	-30.91946	-52.88855	-157.85198	13.83239	0
199	-26.85111	32.5468	57.77057	-4.06835	-41.49717	43.93818	-70.78929	49.63387	-6.50936	-21.15542	-131.00087	-0.81367	0
200	-29.29212	20.34175	48.00653	3.25468	-39.05616	34.17414	-56.14323	76.48498	17.90074	13.01872	-113.9138	-13.01872	0
201	-29.29212	5.69569	33.36047	11.39138	-31.73313	19.52808	-48.8202	83.80801	22.78276	25.22377	-131.00087	-25.22377	0
202	-24.4101	-4.88202	18.71441	13.83239	-21.96909	7.32303	-26.85111	100.89508	52.07488	37.42882	-131.00087	-30.10579	0
203	-29.29212	-17.08707	11.39138	21.15542	-21.96909	-3.25468	-9.76404	120.42316	66.72094	42.31084	-126.11885	151.34262	0
204	-36.61515	-29.29212	6.50936	30.91946	-21.96909	-13.01872	4.88202	135.06922	81.367	81.367	-121.23683	148.90161	0
205	-43.93818	-41.49717	1.62734	40.6835	-24.4101	-20.34175	17.08707	147.27427	93.57205	88.69003	-109.03178	144.01959	0
206	-53.70222	-48.8202	4.06835	50.44754	-29.29212	-22.78276	31.73313	159.47932	105.7771	100.89508	-101.70875	141.57858	0
207	-58.58424	-56.14323	1.62734	55.32956	-31.73313	-27.66478	43.93818	169.24336	110.65912	110.65912	-99.26774	114.72747	0
208	-58.58424	-63.46626	-6.50936	60.21158	-26.85111	-34.98781	48.8202	176.56639	113.10013	115.54114	-101.70875	61.02525	0
209	-58.58424	-70.78929	-13.83239	62.65259	-24.4101	-42.31084	54.51589	181.44841	113.10013	115.54114	-104.14976	58.58424	0
210	-58.58424	-75.67131	-18.71441	65.0936	-21.96909	-47.19286	61.83892	186.33043	115.54114	117.98215	-106.59077	58.58424	0
211	-58.58424	-78.11232	-21.15542	67.53461	-19.52808	-49.63387	66.72094	188.77144	117.98215	117.98215	-109.03178	73.2303	0
212	-58.58424	-82.99434	-26.03744	69.97562	-17.08707	-54.51589	71.60296	193.65346	117.98215	117.98215	-111.47279	109.84545	0
213	-61.02525	-85.43535	-26.03744	72.41663	-19.52808	-56.9569	74.04397	198.53548	117.98215	120.42316	-113.9138	107.40444	0
214	-53.70222	-87.87636	-35.80148	69.97562	-9.76404	-61.83892	76.48498	203.4175	120.42316	120.42316	-116.35481	102.52242	0
215	-51.26121	-90.31737	-40.6835	69.97562	-7.32303	-66.72094	78.92599	205.85851	122.86417	120.42316	-118.79582	100.08141	0
216	-53.70222	-92.75838	-40.6835	72.41663	-7.32303	-66.72094	81.367	210.74053	125.30518	125.30518	-113.9138	95.19939	0
217	-53.70222	-92.75838	-40.6835	72.41663	-7.32303	-66.72094	86.24902	215.62255	125.30518	130.1872	-109.03178	68.34828	0
218	-63.46626	-95.19939	-33.36047	77.29865	-17.08707	-64.27993	93.57205	220.50457	127.74619	139.95124	-99.26774	21.15542	0
219	-63.46626	-97.6404	-35.80148	79.73966	-14.64606	-66.72094	96.01306	225.38659	130.1872	139.95124	-94.38572	18.71441	0
220	-58.58424	-97.6404	-40.6835	77.29865	-9.76404	-69.16195	100.89508	225.38659	132.62821	142.39225	-91.94471	16.2734	0
221	-53.70222	-100.08141	-48.00653	74.85764	-4.88202	-74.04397	103.33609	225.38659	135.06922	142.39225	-89.5037	26.85111	0
222	-48.8202	-100.08141	-52.88855	72.41663	0.81367	-76.48498	103.33609	225.38659	132.62821	142.39225	-94.38572	58.58424	0
223	-51.26121	-102.52242	-52.88855	74.85764	0.81367	-78.92599	105.7771	227.8276	135.06922	147.27427	-94.38572	53.70222	0
224	-48.8202	-102.52242	-55.32956	74.85764	3.25468	-78.92599	105.7771	227.8276	137.51023	149.71528	-96.82673	51.26121	0
225	-48.8202	-102.52242	-55.32956	74.85764	3.25468	-78.92599	110.65912	230.26861	142.39225	154.5973	-96.82673	46.37919	0
226	-34.17414	-104.96343	-72.41663	67.53461	17.90074	-88.69003	110.65912	230.26861	142.39225	154.5973	-96.82673	36.61515	0
227	-29.29212	-109.84545	-82.18067	67.53461	25.22377	-96.01306	113.10013	235.15063	142.39225	159.47932	-94.38572	11.39138	0
228	-29.29212	-109.84545	-82.18067	67.53461	25.22377	-96.01306	115.54114	240.03265	147.27427	166.80235	-94.38572	-32.5468	0
229	-24.4101	-112.28646	-89.5037	67.53461	32.5468	-100.89508	120.42316	247.35568	152.15629	169.24336	-94.38572	-37.42882	0
230	-29.29212	-114.72747	-87.06269	69.97562	27.66478	-100.89508	125.30518	252.2377	159.47932	174.12538	-89.5037	-37.42882	0
231	-29.29212	-119.60949	-91.94471	72.41663	30.10579	-105.7771	130.1872	257.11972	164.36134	179.0074	-82.18067	-22.78276	0
232	-26.85111	-122.0505	-96.82673	72.41663	34.98781	-110.65912	135.06922	264.44275	171.68437	183.88942	-77.29865	11.39138	0
233	-21.96909	-122.0505	-101.70875	69.97562	39.86983	-113.10013	137.51023	271.76578	179.0074	193.65346	-69.97562	11.39138	0
234	-24.4101	-122.0505	-99.26774	72.41663	37.42882	-110.65912	142.39225	281.52982	191.21245	203.4175	-62.65259	11.39138	0
235	-26.85111	-119.60949	-94.38572	72.41663	32.5468	-108.21811	144.83326	288.85285	198.53548	210.74053	-55.32956	11.39138	0
236	-39.05616	-119.60949	-82.18067	77.29865	20.34175	-100.89508	152.15629	298.61689	208.29952	220.50457	-45.56552	11.39138	0
237	-43.93818	-119.60949	-77.29865	79.73966	15.45973	-98.45407	157.03831	303.49891	213.18154	230.26861	-34.98781	-13.01872	0
238	-34.17414	-119.60949	-87.06269	74.85764	25.22377	-103.33609	157.03831	305.93992	215.62255	235.15063	-32.5468	-59.39791	0
239	-34.17414	-119.60949	-87.06269	74.85764	25.22377	-103.33609	159.47932	313.26295	220.50457	240.03265	-25.22377	-64.27993	0
240	-31.73313	-119.60949	-89.5037	74.85764	27.66478	-105.7771	164.36134	318.14497	225.38659	244.91467	-17.90074	-64.27993	0
241	-34.17414	-119.60949	-87.06269	74.85764	25.22377	-103.33609	171.68437	323.02699	232.70962	252.2377	-8.1367	-49.63387	0
242	-39.05616	-119.60949	-82.18067	77.29865	20.34175	-100.89508	174.12538	327.90901	240.03265	262.00174	4.06835	-15.45973	0
243	-43.93818	-122.0505	-79.73966	82.18067	17.90074	-100.89508	176.56639	332.79103	247.35568	271.76578	18.71441	-15.45973	0
244	-31.73313	-122.0505	-91.94471	74.85764	30.10579	-108.21811	174.12538	335.23204	249.79669	276.6478	26.03744	-17.90074	0
245	-12.20505	-119.60949	-109.03178	65.0936	47.19286	-115.54114	171.68437	332.79103	254.67871	279.08881	30.91946	-20.34175	0
246	-12.20505	-119.60949	-109.03178	65.0936	47.19286	-115.54114	174.12538	340.11406	262.00174	288.85285	45.56552	-22.78276	0
247	-14.64606	-117.16848	-104.14976	65.0936	44.75185	-110.65912	176.56639	349.8781	271.76578	303.49891	60.21158	-34.98781	0
248	-12.20505	-112.28646	-101.70875	60.21158	44.75185	-108.21811	179.0074	354.76012	281.52982	313.26295	69.97562	-66.72094	0
249	-9.76404	-112.28646	-104.14976	60.21158	47.19286	-108.21811	181.44841	362.08315	288.85285	320.58598	74.85764	-66.72094	0
250	-4.88202	-107.40444	-104.14976	55.32956	49.63387	-105.7771	183.88942	369.40618	298.61689	327.90901	82.18067	-59.39791	0
251	8.1367	-102.52242	-111.47279	45.56552	59.39791	-105.7771	186.33043	371.84719	303.49891	332.79103	87.06269	-42.31084	0
252	13.01872	-100.08141	-113.9138	43.12451	61.83892	-105.7771	188.77144	381.61123	313.26295	344.99608	89.5037	-5.69569	0
253	5.69569	-97.6404	-104.14976	45.56552	54.51589	-100.89508	191.21245	393.81628	327.90901	357.20113	96.82673	1.62734	0
254	8.1367	-95.19939	-104.14976	43.12451	54.51589	-98.45407	191.21245	401.13931	337.67305	366.96517	104.14976	6.50936	0
255	20.34175	-85.43535	-106.59077	30.91946	61.83892	-96.01306	191.21245	408.46234	347.43709	374.2882	111.47279	11.39138	0
256	32.5468	-80.55333	-113.9138	23.59643	71.60296	-96.01306	188.77144	413.34436	352.31911	379.17022	121.23683	11.39138	0
257	37.42882	-80.55333	-118.79582	21.15542	76.48498	-98.45407	188.77144	423.1084	359.64214	391.37527	135.88289	-0.81367	0
258	44.75185	-75.67131	-121.23683	13.83239	81.367	-98.45407	188.77144	432.87244	366.96517	398.6983	148.08794	-30.10579	0
259	44.75185	-73.2303	-118.79582	13.83239	81.367	-96.01306	191.21245	442.63648	376.72921	408.46234	167.61602	-20.34175	0
260	34.98781	-70.78929	-106.59077	16.2734	69.16195	-88.69003	196.09447	454.84153	391.37527	420.66739	182.26208	-3.25468	0
261	37.42882	-65.90727	-104.14976	13.83239	69.16195	-83.80801	198.53548	459.72355	398.6983	430.43143	196.90814	21.15542	0
262	39.86983	-61.02525	-101.70875	8.95037	69.16195	-81.367	200.97649	469.48759	410.90335	442.63648	216.43622	58.58424	0
263	34.98781	-58.58424	-94.38572	11.39138	64.27993	-76.48498	205.85851	479.25163	425.54941	459.72355	238.40531	70.78929	0
264	30.10579	-58.58424	-89.5037	13.83239	59.39791	-74.04397	208.29952	491.45668	442.63648	476.81062	257.93339	85.43535	0
265	22.78276	-53.70222	-77.29865	13.83239	49.63387	-64.27993	210.74053	501.22072	457.28254	491.45668	275.02046	97.6404	0
266	22.78276	-48.8202	-72.41663	11.39138	47.19286	-59.39791	213.18154	506.10274	467.04658	503.66173	287.22551	104.96343	0
267	20.34175	-46.37919	-67.53461	11.39138	42.31084	-56.9569	213.18154	513.42577	476.81062	518.30779	294.54854	97.6404	0
268	27.66478	-39.05616	-67.53461	3.25468	47.19286	-52.07488	215.62255	520.7488	486.57466	530.51284	299.43056	70.78929	0
269	39.86983	-34.17414	-74.85764	-4.06835	56.9569	-54.51589	215.62255	525.63082	498.77971	540.27688	306.75359	75.67131	0
270	39.86983	-29.29212	-69.97562	-6.50936	54.51589	-49.63387	218.06356	532.95385	510.98476	552.48193	316.51763	87.87636	0
271	37.42882	-26.85111	-65.0936	-6.50936	49.63387	-44.75185	220.50457	542.71789	523.18981	564.68698	326.28167	114.72747	0
272	34.98781	-21.96909	-57.77057	-6.50936	44.75185	-39.86983	222.94558	550.04092	537.83587	579.33304	338.48672	153.78363	0
273	34.98781	-17.08707	-52.88855	-8.95037	42.31084	-34.98781	222.94558	557.36395	550.04092	593.9791	350.69177	165.98868	0
274	39.86983	-9.76404	-50.44754	-16.2734	44.75185	-30.10579	222.94558	564.68698	564.68698	608.62516	365.33783	180.63474	0
275	42.31084	-4.88202	-48.00653	-18.71441	44.75185	-25.22377	222.94558	572.01001	576.89203	623.27122	382.4249	192.83979	0
276	49.63387	0.81367	-50.44754	-26.03744	49.63387	-25.22377	222.94558	574.45102	586.65607	635.47627	397.07096	202.60383	0
277	52.07488	5.69569	-48.00653	-28.47845	49.63387	-20.34175	220.50457	579.33304	593.9791	647.68132	414.15803	200.16282	0
278	56.9569	10.57771	-48.00653	-33.36047	52.07488	-17.90074	218.06356	581.77405	601.30213	662.32738	426.36308	178.19373	0
279	64.27993	15.45973	-50.44754	-40.6835	56.9569	-17.90074	215.62255	581.77405	606.18415	669.65041	436.12712	185.51676	0
280	66.72094	22.78276	-45.56552	-45.56552	56.9569	-10.57771	215.62255	581.77405	613.50718	676.97344	445.89116	200.16282	0
281	69.16195	27.66478	-43.12451	-48.00653	56.9569	-8.1367	215.62255	584.21506	620.83021	686.73748	455.6552	222.13191	0
282	76.48498	32.5468	-45.56552	-55.32956	61.83892	-5.69569	215.62255	589.09708	628.15324	696.50152	465.41924	256.30605	1500	QRS+0
283	83.80801	39.86983	-45.56552	-62.65259	64.27993	-3.25468	210.74053	593.9791	633.03526	708.70657	477.62429	266.07009	0
284	96.01306	44.75185	-52.88855	-69.97562	74.04397	-3.25468	205.85851	598.86112	640.35829	718.47061	487.38833	275.83413	0
285	103.33609	47.19286	-57.77057	-74.85764	81.367	-5.69569	200.97649	601.30213	645.24031	725.79364	494.71136	283.15716	0
286	115.54114	52.07488	-65.0936	-84.62168	91.13104	-5.69569	196.09447	606.18415	650.12233	733.11667	506.91641	288.03918	0
287	125.30518	59.39791	-67.53461	-91.94471	96.01306	-3.25468	193.65346	611.06617	652.56334	742.88071	516.68045	280.71615	0
288	137.51023	64.27993	-74.85764	-101.70875	105.7771	-5.69569	188.77144	615.94819	655.00435	750.20374	526.44449	253.86504	0
289	157.03831	74.04397	-84.62168	-116.35481	120.42316	-5.69569	179.0074	618.3892	657.44536	752.64475	528.8855	256.30605	0
290	166.80235	78.92599	-89.5037	-123.67784	127.74619	-5.69569	174.12538	618.3892	657.44536	755.08576	531.32651	263.62908	0
291	176.56639	81.367	-96.82673	-128.55986	137.51023	-8.1367	166.80235	611.06617	652.56334	755.08576	531.32651	278.27514	0
292	179.0074	83.80801	-96.82673	-131.00087	137.51023	-5.69569	164.36134	606.18415	652.56334	757.52677	536.20853	305.12625	0
293	183.88942	91.13104	-94.38572	-138.3239	139.95124	0	159.47932	601.30213	652.56334	762.40879	538.64954	312.44928	0
294	188.77144	96.01306	-94.38572	-143.20592	142.39225	2.44101	154.5973	596.42011	655.00435	764.8498	545.97257	319.77231	0
295	183.88942	103.33609	-82.18067	-143.20592	132.62821	12.20505	154.5973	593.9791	657.44536	769.73182	553.2956	327.09534	0
296	183.88942	105.7771	-79.73966	-145.64693	132.62821	14.64606	149.71528	586.65607	655.00435	769.73182	560.61863	329.53635	0
297	186.33043	108.21811	-79.73966	-148.08794	132.62821	14.64606	147.27427	576.89203	647.68132	772.17283	563.05964	319.77231	0
298	191.21245	110.65912	-82.18067	-150.52895	137.51023	14.64606	142.39225	564.68698	640.35829	772.17283	563.05964	292.9212	0
299	196.09447	115.54114	-82.18067	-155.41097	139.95124	17.08707	137.51023	554.92294	637.91728	767.29081	563.05964	295.36221	0
300	200.97649	115.54114	-87.06269	-157.85198	144.83326	14.64606	132.62821	542.71789	630.59425	762.40879	560.61863	300.24423	0
301	203.4175	120.42316	-84.62168	-162.734	144.83326	19.52808	130.1872	530.51284	623.27122	757.52677	560.61863	312.44928	0
302	203.4175	122.86417	-82.18067	-162.734	142.39225	21.96909	127.74619	518.30779	618.3892	752.64475	563.05964	334.41837	0
303	200.97649	125.30518	-77.29865	-162.734	139.95124	24.4101	122.86417	506.10274	608.62516	750.20374	565.50065	339.30039	0
304	198.53548	125.30518	-74.85764	-162.734	137.51023	26.85111	117.98215	491.45668	601.30213	745.32172	567.94166	341.7414	0
305	213.18154	127.74619	-87.06269	-170.05703	149.71528	21.96909	108.21811	471.9286	586.65607	733.11667	560.61863	339.30039	0
306	220.50457	130.1872	-91.94471	-174.93905	157.03831	19.52808	100.89508	454.84153	572.01001	720.91162	560.61863	334.41837	0
307	222.94558	132.62821	-91.94471	-177.38006	157.03831	21.96909	93.57205	437.75446	557.36395	711.14758	555.73661	319.77231	0
308	225.38659	135.06922	-91.94471	-179.82107	159.47932	21.96909	88.69003	420.66739	540.27688	698.94253	550.85459	292.9212	0
309	227.8276	137.51023	-91.94471	-182.26208	159.47932	24.4101	81.367	406.02133	523.18981	681.85546	538.64954	285.59817	0
310	232.70962	139.95124	-94.38572	-187.1441	164.36134	24.4101	74.04397	384.05224	503.66173	664.76839	521.56247	278.27514	0
311	244.91467	142.39225	-104.14976	-194.46713	174.12538	19.52808	64.27993	359.64214	481.69264	640.35829	504.4754	270.95211	0
312	257.11972	144.83326	-113.9138	-201.79016	186.33043	17.08707	52.07488	337.67305	457.28254	618.3892	487.38833	278.27514	0
313	252.2377	144.83326	-109.03178	-199.34915	181.44841	19.52808	48.8202	320.58598	440.19547	603.74314	480.0653	273.39312	0
314	242.47366	139.95124	-104.14976	-192.02612	174.12538	19.52808	43.93818	301.0579	420.66739	586.65607	472.74227	268.5111	0
315	232.70962	137.51023	-96.82673	-184.70309	164.36134	21.96909	41.49717	279.08881	403.58032	567.12799	462.97823	261.18807	0
316	232.70962	137.51023	-96.82673	-184.70309	164.36134	21.96909	34.17414	254.67871	379.17022	545.1589	453.21419	248.98302	0
317	230.26861	137.51023	-94.38572	-184.70309	161.92033	21.96909	29.29212	232.70962	354.76012	525.63082	441.00914	227.01393	0
318	222.94558	132.62821	-91.94471	-177.38006	157.03831	21.96909	26.85111	210.74053	332.79103	508.54375	426.36308	195.2808	0
319	218.06356	130.1872	-89.5037	-174.93905	154.5973	21.96909	21.96909	191.21245	310.82194	484.13365	409.27601	185.51676	0
320	210.74053	125.30518	-87.06269	-167.61602	149.71528	19.52808	17.08707	166.80235	288.85285	459.72355	389.74793	180.63474	0
321	208.29952	122.86417	-87.06269	-165.17501	147.27427	19.52808	14.64606	142.39225	264.44275	435.31345	367.77884	175.75272	0
322	203.4175	122.86417	-82.18067	-162.734	142.39225	21.96909	7.32303	120.42316	240.03265	410.90335	345.80975	178.19373	0
323	203.4175	122.86417	-82.18067	-162.734	142.39225	21.96909	2.44101	100.89508	218.06356	388.93426	323.84066	168.42969	0
324	200.97649	117.98215	-84.62168	-160.29299	142.39225	17.08707	-2.44101	81.367	198.53548	364.52416	304.31258	158.66565	0
325	191.21245	113.10013	-79.73966	-152.96996	135.06922	17.08707	-4.88202	59.39791	179.0074	340.11406	289.66652	148.90161	0
326	191.21245	110.65912	-82.18067	-150.52895	137.51023	14.64606	-9.76404	39.86983	154.5973	313.26295	275.02046	136.69656	0
327	186.33043	105.7771	-82.18067	-145.64693	135.06922	12.20505	-9.76404	20.34175	132.62821	291.29386	260.3744	117.16848	0
328	181.44841	100.89508	-82.18067	-140.76491	132.62821	9.76404	-12.20505	3.25468	110.65912	269.32477	245.72834	85.43535	0
329	186.33043	96.01306	-91.94471	-140.76491	139.95124	2.44101	-17.08707	-14.64606	86.24902	242.47366	223.75925	70.78929	0
330	183.88942	91.13104	-94.38572	-138.3239	139.95124	0	-19.52808	-34.17414	64.27993	215.62255	201.79016	63.46626	0
331	181.44841	86.24902	-96.82673	-133.44188	139.95124	-5.69569	-19.52808	-53.70222	44.75185	193.65346	184.70309	58.58424	0
332	176.56639	78.92599	-99.26774	-128.55986	137.51023	-10.57771	-19.52808	-68.34828	27.66478	171.68437	167.61602	61.02525	0
333	174.12538	74.04397	-101.70875	-123.67784	137.51023	-13.01872	-19.52808	-82.99434	10.57771	154.5973	150.52895	48.8202	0
334	169.24336	69.16195	-101.70875	-118.79582	135.06922	-15.45973	-21.96909	-97.6404	-4.06835	135.06922	133.44188	39.05616	0
335	157.03831	61.83892	-96.82673	-109.03178	127.74619	-17.90074	-19.52808	-107.40444	-18.71441	117.98215	118.79582	31.73313	0
336	147.27427	56.9569	-91.94471	-101.70875	120.42316	-17.90074	-17.08707	-119.60949	-33.36047	100.89508	104.14976	21.15542	0
337	147.27427	52.07488	-96.82673	-99.26774	122.86417	-22.78276	-17.08707	-131.81454	-51.26121	83.80801	87.06269	4.06835	0
338	135.06922	47.19286	-89.5037	-91.94471	113.10013	-20.34175	-17.08707	-139.13757	-65.90727	69.16195	72.41663	-20.34175	0
339	132.62821	42.31084	-91.94471	-87.06269	113.10013	-25.22377	-17.08707	-148.90161	-78.11232	49.63387	52.88855	-34.98781	0
340	130.1872	34.98781	-96.82673	-82.18067	113.10013	-30.10579	-17.08707	-158.66565	-95.19939	30.10579	35.80148	-42.31084	0
341	120.42316	30.10579	-91.94471	-74.85764	105.7771	-30.10579	-14.64606	-168.42969	-109.84545	13.01872	18.71441	-44.75185	0
342	110.65912	22.78276	-89.5037	-67.53461	100.89508	-32.5468	-9.76404	-173.31171	-122.0505	0.81367	6.50936	-39.86983	0
343	108.21811	20.34175	-89.5037	-65.0936	98.45407	-34.98781	-9.76404	-180.63474	-131.81454	-13.83239	-8.1367	-49.63387	0
344	115.54114	15.45973	-101.70875	-65.0936	108.21811	-42.31084	-12.20505	-187.95777	-144.01959	-28.47845	-25.22377	-61.83892	0
345	100.89508	13.01872	-89.5037	-57.77057	96.01306	-37.42882	-7.32303	-190.39878	-146.4606	-35.80148	-32.5468	-69.16195	0
346	96.01306	8.1367	-89.5037	-52.88855	93.57205	-39.86983	-2.44101	-192.83979	-153.78363	-45.56552	-39.86983	-76.48498	0
347	96.01306	5.69569	-91.94471	-50.44754	93.57205	-42.31084	-2.44101	-195.2808	-165.98868	-56.14323	-50.44754	-93.57205	0
348	93.57205	5.69569	-89.5037	-50.44754	91.13104	-42.31084	0	-195.2808	-178.19373	-65.90727	-62.65259	-117.98215	0
349	86.24902	5.69569	-82.18067	-45.56552	83.80801	-37.42882	4.88202	-195.2808	-183.07575	-75.67131	-72.41663	-125.30518	0
350	83.80801	0.81367	-84.62168	-43.12451	83.80801	-42.31084	7.32303	-200.16282	-190.39878	-87.87636	-84.62168	-127.74619	0
351	81.367	-1.62734	-84.62168	-40.6835	83.80801	-42.31084	9.76404	-205.04484	-200.16282	-97.6404	-94.38572	-125.30518	0
352	78.92599	-4.88202	-84.62168	-38.24249	81.367	-44.75185	9.76404	-209.92686	-207.48585	-107.40444	-104.14976	-120.42316	0
353	78.92599	-9.76404	-89.5037	-35.80148	83.80801	-49.63387	7.32303	-214.80888	-214.80888	-114.72747	-111.47279	-127.74619	0
354	71.60296	-12.20505	-84.62168	-30.91946	76.48498	-47.19286	7.32303	-217.24989	-219.6909	-119.60949	-113.9138	-127.74619	0
355	61.83892	-17.08707	-79.73966	-23.59643	69.16195	-47.19286	9.76404	-219.6909	-222.13191	-124.49151	-113.9138	-130.1872	0
356	54.51589	-21.96909	-77.29865	-16.2734	64.27993	-49.63387	12.20505	-219.6909	-224.57292	-129.37353	-113.9138	-130.1872	0
357	52.07488	-26.85111	-79.73966	-13.83239	64.27993	-52.07488	12.20505	-222.13191	-229.45494	-131.81454	-118.79582	-137.51023	0
358	49.63387	-31.73313	-82.18067	-8.95037	64.27993	-56.9569	12.20505	-224.57292	-234.33696	-136.69656	-123.67784	-154.5973	0
359	54.51589	-31.73313	-87.06269	-11.39138	69.16195	-59.39791	12.20505	-224.57292	-236.77797	-144.01959	-131.00087	-161.92033	0
360	54.51589	-31.73313	-87.06269	-11.39138	69.16195	-59.39791	17.08707	-224.57292	-239.21898	-148.90161	-138.3239	-159.47932	0
361	47.19286	-31.73313	-79.73966	-8.95037	61.83892	-54.51589	26.85111	-224.57292	-241.65999	-151.34262	-140.76491	-152.15629	0
362	47.19286	-34.17414	-82.18067	-6.50936	64.27993	-56.9569	26.85111	-224.57292	-244.101	-156.22464	-145.64693	-147.27427	0
363	47.19286	-34.17414	-82.18067	-6.50936	64.27993	-56.9569	29.29212	-229.45494	-248.98302	-161.10666	-150.52895	-147.27427	0
364	47.19286	-34.17414	-82.18067	-6.50936	64.27993	-56.9569	29.29212	-231.89595	-248.98302	-161.10666	-152.96996	-149.71528	0
365	39.86983	-34.17414	-74.85764	-4.06835	56.9569	-54.51589	31.73313	-234.33696	-248.98302	-161.10666	-152.96996	-149.71528	0
366	30.10579	-36.61515	-67.53461	3.25468	47.19286	-52.07488	34.17414	-236.77797	-248.98302	-161.10666	-148.08794	-147.27427	0
367	17.90074	-39.05616	-57.77057	8.95037	37.42882	-47.19286	39.05616	-236.77797	-248.98302	-158.66565	-143.20592	-147.27427	0
368	15.45973	-39.05616	-55.32956	11.39138	34.98781	-47.19286	39.05616	-239.21898	-248.98302	-156.22464	-143.20592	-157.03831	0
369	17.90074	-39.05616	-57.77057	8.95037	37.42882	-47.19286	39.05616	-239.21898	-248.98302	-161.10666	-148.08794	-161.92033	0
370	20.34175	-41.49717	-62.65259	8.95037	39.86983	-52.07488	36.61515	-241.65999	-248.98302	-163.54767	-155.41097	-159.47932	0
371	22.78276	-41.49717	-65.0936	8.95037	42.31084	-52.07488	36.61515	-241.65999	-248.98302	-165.98868	-160.29299	-154.5973	0
372	25.22377	-41.49717	-67.53461	6.50936	44.75185	-54.51589	39.05616	-241.65999	-248.98302	-165.98868	-160.29299	-144.83326	0
373	30.10579	-41.49717	-72.41663	3.25468	49.63387	-56.9569	39.05616	-239.21898	-248.98302	-165.98868	-160.29299	-144.83326	0
374	32.5468	-41.49717	-74.85764	3.25468	52.07488	-56.9569	36.61515	-239.21898	-248.98302	-165.98868	-162.734	-144.83326	0
375	32.5468	-46.37919	-79.73966	6.50936	54.51589	-61.83892	36.61515	-239.21898	-246.54201	-168.42969	-162.734	-144.83326	0
376	30.10579	-48.8202	-79.73966	8.95037	54.51589	-64.27993	34.17414	-239.21898	-246.54201	-168.42969	-160.29299	-144.83326	0
377	20.34175	-51.26121	-72.41663	13.83239	44.75185	-61.83892	36.61515	-239.21898	-246.54201	-165.98868	-155.41097	-144.83326	0
378	20.34175	-53.70222	-74.85764	16.2734	47.19286	-64.27993	34.17414	-241.65999	-251.42403	-165.98868	-155.41097	-154.5973	0
379	20.34175	-53.70222	-74.85764	16.2734	47.19286	-64.27993	34.17414	-241.65999	-251.42403	-168.42969	-155.41097	-157.03831	0
380	20.34175	-53.70222	-74.85764	16.2734	47.19286	-64.27993	34.17414	-246.54201	-251.42403	-170.8707	-160.29299	-157.03831	0
381	15.45973	-56.14323	-72.41663	18.71441	42.31084	-64.27993	36.61515	-246.54201	-246.54201	-170.8707	-160.29299	-149.71528	0
382	-1.62734	-56.14323	-55.32956	28.47845	25.22377	-54.51589	41.49717	-239.21898	-239.21898	-163.54767	-155.41097	-135.06922	0
383	0.81367	-56.14323	-57.77057	26.03744	27.66478	-56.9569	41.49717	-239.21898	-239.21898	-163.54767	-152.96996	-135.06922	0
384	8.1367	-56.14323	-65.0936	23.59643	34.98781	-59.39791	39.05616	-239.21898	-239.21898	-163.54767	-150.52895	-132.62821	-1500	QRS-0
385	22.78276	-56.14323	-79.73966	16.2734	49.63387	-66.72094	36.61515	-241.65999	-239.21898	-165.98868	-150.52895	-135.06922	0
386	27.66478	-53.70222	-82.18067	11.39138	54.51589	-66.72094	36.61515	-239.21898	-239.21898	-163.54767	-148.08794	-130.1872	0
387	20.34175	-51.26121	-72.41663	13.83239	44.75185	-61.83892	41.49717	-236.77797	-236.77797	-158.66565	-145.64693	-127.74619	0
388	17.90074	-51.26121	-69.97562	16.2734	42.31084	-59.39791	46.37919	-234.33696	-234.33696	-153.78363	-143.20592	-127.74619	0
389	10.57771	-53.70222	-65.0936	21.15542	37.42882	-59.39791	46.37919	-229.45494	-231.89595	-153.78363	-143.20592	-115.54114	0
390	17.90074	-53.70222	-72.41663	16.2734	44.75185	-61.83892	46.37919	-231.89595	-234.33696	-158.66565	-150.52895	-108.21811	0
391	22.78276	-53.70222	-77.29865	13.83239	49.63387	-64.27993	46.37919	-231.89595	-236.77797	-161.10666	-155.41097	-98.45407	0
392	20.34175	-53.70222	-74.85764	16.2734	47.19286	-64.27993	48.8202	-231.89595	-234.33696	-161.10666	-155.41097	-86.24902	0
393	13.01872	-53.70222	-67.53461	18.71441	39.86983	-59.39791	48.8202	-231.89595	-231.89595	-161.10666	-160.29299	-83.80801	0
394	0.81367	-56.14323	-57.77057	26.03744	27.66478	-56.9569	46.37919	-227.01393	-229.45494	-161.10666	-160.29299	-83.80801	0
395	-4.88202	-56.14323	-52.88855	28.47845	22.78276	-54.51589	48.8202	-222.13191	-227.01393	-161.10666	-157.85198	-83.80801	0
396	-4.88202	-56.14323	-52.88855	28.47845	22.78276	-54.51589	48.8202	-222.13191	-227.01393	-161.10666	-157.85198	-83.80801	0
397	-4.88202	-56.14323	-52.88855	28.47845	22.78276	-54.51589	52.07488	-222.13191	-229.45494	-161.10666	-157.85198	-88.69003	0
398	-7.32303	-58.58424	-52.88855	30.91946	22.78276	-56.9569	52.07488	-219.6909	-231.89595	-158.66565	-157.85198	-98.45407	0
399	-4.88202	-56.14323	-52.88855	28.47845	22.78276	-54.51589	52.07488	-217.24989	-229.45494	-158.66565	-157.85198	-98.45407	0
400	0.81367	-56.14323	-57.77057	26.03744	27.66478	-56.9569	54.51589	-217.24989	-229.45494	-158.66565	-160.29299	-93.57205	0
401	3.25468	-58.58424	-62.65259	26.03744	32.5468	-59.39791	56.9569	-217.24989	-229.45494	-158.66565	-162.734	-81.367	0
402	3.25468	-61.02525	-65.0936	28.47845	32.5468	-61.83892	59.39791	-217.24989	-224.57292	-156.22464	-160.29299	-66.72094	0
403	-1.62734	-63.46626	-62.65259	30.91946	30.10579	-61.83892	59.39791	-214.80888	-222.13191	-153.78363	-157.85198	-64.27993	0
404	0.81367	-68.34828	-69.97562	33.36047	34.98781	-69.16195	56.9569	-214.80888	-222.13191	-153.78363	-157.85198	-61.83892	0
405	3.25468	-68.34828	-72.41663	30.91946	37.42882	-69.16195	56.9569	-214.80888	-219.6909	-153.78363	-155.41097	-64.27993	0
406	8.1367	-65.90727	-74.85764	28.47845	39.86983	-69.16195	56.9569	-212.36787	-217.24989	-153.78363	-150.52895	-59.39791	0
407	8.1367	-65.90727	-74.85764	28.47845	39.86983	-69.16195	59.39791	-207.48585	-219.6909	-153.78363	-150.52895	-64.27993	0
408	0.81367	-68.34828	-69.97562	33.36047	34.98781	-69.16195	61.83892	-205.04484	-219.6909	-153.78363	-152.96996	-69.16195	0
409	-1.62734	-68.34828	-67.53461	33.36047	32.5468	-66.72094	64.27993	-197.72181	-219.6909	-158.66565	-157.85198	-66.72094	0
410	-4.88202	-65.90727	-62.65259	33.36047	27.66478	-64.27993	69.16195	-195.2808	-219.6909	-161.10666	-160.29299	-61.83892	0
411	-4.88202	-65.90727	-62.65259	33.36047	27.66478	-64.27993	71.60296	-195.2808	-222.13191	-165.98868	-165.17501	-54.51589	0
412	-4.88202	-61.02525	-57.77057	30.91946	25.22377	-59.39791	71.60296	-192.83979	-224.57292	-168.42969	-167.61602	-44.75185	0
413	-4.88202	-58.58424	-55.32956	30.91946	25.22377	-56.9569	71.60296	-192.83979	-227.01393	-168.42969	-167.61602	-44.75185	0
414	-9.76404	-58.58424	-50.44754	33.36047	20.34175	-54.51589	69.16195	-192.83979	-224.57292	-168.42969	-165.17501	-44.75185	0
415	-12.20505	-56.14323	-45.56552	33.36047	15.45973	-52.07488	66.72094	-192.83979	-227.01393	-170.8707	-165.17501	-49.63387	0
416	-12.20505	-51.26121	-40.6835	30.91946	13.01872	-47.19286	69.16195	-192.83979	-229.45494	-170.8707	-160.29299	-47.19286	0
417	-17.08707	-48.8202	-33.36047	30.91946	8.1367	-42.31084	71.60296	-192.83979	-229.45494	-170.8707	-152.96996	-49.63387	0
418	-17.08707	-46.37919	-30.91946	30.91946	5.69569	-39.86983	71.60296	-192.83979	-229.45494	-165.98868	-152.96996	-56.9569	0
419	-17.08707	-43.93818	-28.47845	28.47845	5.69569	-37.42882	71.60296	-192.83979	-229.45494	-165.98868	-150.52895	-56.9569	0
420	-19.52808	-43.93818	-26.03744	30.91946	3.25468	-34.98781	74.04397	-192.83979	-224.57292	-163.54767	-150.52895	-52.07488	0
421	-31.73313	-41.49717	-11.39138	35.80148	-12.20505	-27.66478	78.92599	-192.83979	-219.6909	-158.66565	-145.64693	-39.86983	0
422	-29.29212	-41.49717	-13.83239	33.36047	-9.76404	-27.66478	81.367	-190.39878	-217.24989	-156.22464	-145.64693	-30.10579	0
423	-19.52808	-39.05616	-21.15542	28.47845	0.81367	-30.10579	81.367	-192.83979	-214.80888	-156.22464	-148.08794	-30.10579	0
424	-21.96909	-36.61515	-16.2734	28.47845	-4.88202	-27.66478	83.80801	-190.39878	-209.92686	-156.22464	-145.64693	-27.66478	0
425	-17.08707	-36.61515	-21.15542	26.03744	0.81367	-30.10579	83.80801	-190.39878	-207.48585	-158.66565	-145.64693	-32.5468	0
426	-17.08707	-36.61515	-21.15542	26.03744	0.81367	-30.10579	86.24902	-190.39878	-207.48585	-161.10666	-143.20592	-32.5468	0
427	-21.96909	-39.05616	-18.71441	28.47845	-2.44101	-30.10579	86.24902	-192.83979	-209.92686	-161.10666	-143.20592	-34.98781	0
428	-21.96909	-41.49717	-21.15542	30.91946	-2.44101	-32.5468	86.24902	-192.83979	-209.92686	-161.10666	-143.20592	-42.31084	0
429	-21.96909	-41.49717	-21.15542	30.91946	-2.44101	-32.5468	86.24902	-192.83979	-205.04484	-161.10666	-143.20592	-42.31084	0
430	-17.08707	-39.05616	-23.59643	26.03744	3.25468	-32.5468	86.24902	-192.83979	-205.04484	-161.10666	-143.20592	-39.86983	0
431	-24.4101	-39.05616	-16.2734	30.91946	-4.88202	-27.66478	88.69003	-190.39878	-202.60383	-158.66565	-140.76491	-27.66478	0
432	-29.29212	-39.05616	-11.39138	33.36047	-9.76404	-25.22377	91.13104	-190.39878	-200.16282	-153.78363	-135.88289	-15.45973	0
433	-36.61515	-41.49717	-6.50936	38.24249	-17.08707	-25.22377	93.57205	-190.39878	-197.72181	-148.90161	-131.00087	-10.57771	0
434	-46.37919	-43.93818	1.62734	43.12451	-24.4101	-22.78276	93.57205	-190.39878	-190.39878	-144.01959	-123.67784	-8.1367	0
435	-41.49717	-43.93818	-4.06835	40.6835	-19.52808	-25.22377	93.57205	-190.39878	-187.95777	-144.01959	-118.79582	-8.1367	0
436	-34.17414	-39.05616	-6.50936	35.80148	-14.64606	-22.78276	93.57205	-190.39878	-187.95777	-146.4606	-113.9138	-5.69569	0
437	-29.29212	-36.61515	-8.95037	30.91946	-12.20505	-22.78276	91.13104	-192.83979	-190.39878	-148.90161	-113.9138	-8.1367	0
438	-36.61515	-39.05616	-4.06835	35.80148	-17.08707	-22.78276	91.13104	-192.83979	-190.39878	-148.90161	-111.47279	-10.57771	0
439	-39.05616	-39.05616	-1.62734	38.24249	-19.52808	-20.34175	91.13104	-192.83979	-190.39878	-148.90161	-111.47279	-10.57771	0
440	-36.61515	-36.61515	-1.62734	35.80148	-19.52808	-20.34175	91.13104	-192.83979	-192.83979	-153.78363	-111.47279	-10.57771	0
441	-36.61515	-34.17414	1.62734	33.36047	-19.52808	-17.90074	91.13104	-190.39878	-192.83979	-153.78363	-111.47279	-0.81367	0
442	-34.17414	-31.73313	1.62734	30.91946	-19.52808	-15.45973	88.69003	-190.39878	-195.2808	-153.78363	-109.03178	6.50936	0
443	-36.61515	-31.73313	4.06835	33.36047	-21.96909	-15.45973	88.69003	-190.39878	-195.2808	-151.34262	-104.14976	6.50936	0
444	-41.49717	-31.73313	8.95037	35.80148	-26.85111	-13.01872	88.69003	-187.95777	-195.2808	-148.90161	-99.26774	8.95037	0
445	-43.93818	-34.17414	8.95037	38.24249	-26.85111	-13.01872	88.69003	-187.95777	-192.83979	-146.4606	-94.38572	8.95037	0
446	-41.49717	-34.17414	6.50936	35.80148	-24.4101	-15.45973	91.13104	-187.95777	-192.83979	-146.4606	-91.94471	13.83239	0
447	-41.49717	-34.17414	6.50936	35.80148	-24.4101	-15.45973	91.13104	-187.95777	-195.2808	-146.4606	-91.94471	13.83239	0
448	-48.8202	-34.17414	13.83239	40.6835	-31.73313	-10.57771	91.13104	-187.95777	-192.83979	-144.01959	-89.5037	13.83239	0
449	-58.58424	-36.61515	21.15542	45.56552	-41.49717	-8.1367	91.13104	-187.95777	-190.39878	-144.01959	-89.5037	13.83239	0
450	-51.26121	-36.61515	13.83239	43.12451	-34.17414	-13.01872	88.69003	-187.95777	-192.83979	-148.90161	-94.38572	16.2734	0
451	-41.49717	-34.17414	6.50936	35.80148	-24.4101	-15.45973	88.69003	-187.95777	-197.72181	-153.78363	-101.70875	24.4101	0
452	-39.05616	-29.29212	8.95037	33.36047	-24.4101	-10.57771	86.24902	-187.95777	-197.72181	-156.22464	-106.59077	29.29212	0
453	-41.49717	-29.29212	11.39138	33.36047	-26.85111	-10.57771	88.69003	-187.95777	-200.16282	-153.78363	-106.59077	31.73313	0
454	-46.37919	-29.29212	16.2734	35.80148	-31.73313	-8.1367	88.69003	-187.95777	-200.16282	-153.78363	-104.14976	29.29212	0
455	-43.93818	-31.73313	11.39138	35.80148	-29.29212	-10.57771	88.69003	-187.95777	-200.16282	-158.66565	-104.14976	29.29212	0
456	-41.49717	-31.73313	8.95037	35.80148	-26.85111	-13.01872	88.69003	-187.95777	-200.16282	-161.10666	-104.14976	36.61515	0
457	-36.61515	-31.73313	4.06835	33.36047	-21.96909	-15.45973	88.69003	-192.83979	-207.48585	-163.54767	-106.59077	39.05616	0
458	-31.73313	-34.17414	-4.06835	30.91946	-14.64606	-20.34175	83.80801	-200.16282	-209.92686	-165.98868	-109.03178	36.61515	0
459	-46.37919	-36.61515	8.95037	40.6835	-29.29212	-15.45973	86.24902	-200.16282	-207.48585	-165.98868	-109.03178	48.8202	0
460	-68.34828	-36.61515	30.91946	50.44754	-51.26121	-3.25468	91.13104	-192.83979	-202.60383	-163.54767	-106.59077	65.90727	0
461	-63.46626	-36.61515	26.03744	48.00653	-46.37919	-5.69569	91.13104	-192.83979	-205.04484	-165.98868	-111.47279	82.99434	0
462	-53.70222	-36.61515	16.2734	43.12451	-36.61515	-10.57771	86.24902	-195.2808	-209.92686	-170.8707	-116.35481	90.31737	0
463	-53.70222	-36.61515	16.2734	43.12451	-36.61515	-10.57771	86.24902	-195.2808	-212.36787	-168.42969	-116.35481	90.31737	0
464	-58.58424	-39.05616	18.71441	48.00653	-39.05616	-10.57771	86.24902	-195.2808	-212.36787	-170.8707	-116.35481	87.87636	0
465	-58.58424	-39.05616	18.71441	48.00653	-39.05616	-10.57771	88.69003	-195.2808	-212.36787	-173.31171	-113.9138	80.55333	0
466	-58.58424	-39.05616	18.71441	48.00653	-39.05616	-10.57771	91.13104	-197.72181	-214.80888	-173.31171	-113.9138	85.43535	0
467	-58.58424	-39.05616	18.71441	48.00653	-39.05616	-10.57771	91.13104	-200.16282	-217.24989	-175.75272	-116.35481	85.43535	0
468	-53.70222	-39.05616	13.83239	45.56552	-34.17414	-13.01872	91.13104	-205.04484	-217.24989	-178.19373	-116.35481	82.99434	0
469	-53.70222	-43.93818	8.95037	48.00653	-31.73313	-17.90074	88.69003	-209.92686	-219.6909	-178.19373	-116.35481	82.99434	0
470	-63.46626	-46.37919	16.2734	52.88855	-41.49717	-15.45973	88.69003	-212.36787	-219.6909	-175.75272	-116.35481	92.75838	0
471	-61.02525	-43.93818	16.2734	50.44754	-39.05616	-15.45973	86.24902	-217.24989	-219.6909	-175.75272	-116.35481	109.84545	0
472	-56.14323	-41.49717	13.83239	48.00653	-36.61515	-15.45973	83.80801	-219.6909	-219.6909	-173.31171	-116.35481	122.0505	0
473	-53.70222	-41.49717	11.39138	45.56552	-34.17414	-15.45973	78.92599	-222.13191	-219.6909	-173.31171	-116.35481	122.0505	0
474	-53.70222	-41.49717	11.39138	45.56552	-34.17414	-15.45973	78.92599	-222.13191	-219.6909	-170.8707	-111.47279	119.60949	0
475	-63.46626	-39.05616	23.59643	50.44754	-43.93818	-8.1367	83.80801	-219.6909	-214.80888	-170.8707	-106.59077	112.28646	0
476	-58.58424	-36.61515	21.15542	45.56552	-41.49717	-8.1367	83.80801	-219.6909	-214.80888	-170.8707	-104.14976	112.28646	0
477	-51.26121	-34.17414	16.2734	40.6835	-34.17414	-10.57771	81.367	-219.6909	-222.13191	-175.75272	-109.03178	104.96343	0
478	-43.93818	-34.17414	8.95037	38.24249	-26.85111	-13.01872	76.48498	-222.13191	-222.13191	-180.63474	-111.47279	95.19939	0
479	-43.93818	-36.61515	6.50936	38.24249	-26.85111	-15.45973	76.48498	-224.57292	-222.13191	-183.07575	-113.9138	90.31737	0
480	-41.49717	-36.61515	4.06835	38.24249	-24.4101	-17.90074	76.48498	-224.57292	-224.57292	-187.95777	-121.23683	92.75838	0
481	-39.05616	-34.17414	4.06835	35.80148	-21.96909	-15.45973	76.48498	-222.13191	-227.01393	-190.39878	-126.11885	104.96343	0
482	-41.49717	-34.17414	6.50936	35.80148	-24.4101	-15.45973	76.48498	-219.6909	-227.01393	-190.39878	-128.55986	112.28646	0
483	-31.73313	-34.17414	-4.06835	30.91946	-14.64606	-20.34175	71.60296	-224.57292	-229.45494	-190.39878	-131.00087	104.96343	0
484	-24.4101	-34.17414	-11.39138	28.47845	-7.32303	-22.78276	69.16195	-224.57292	-229.45494	-190.39878	-131.00087	95.19939	0
485	-17.08707	-39.05616	-23.59643	26.03744	3.25468	-32.5468	66.72094	-227.01393	-231.89595	-192.83979	-131.00087	80.55333	0
486	-21.96909	-41.49717	-21.15542	30.91946	-2.44101	-32.5468	66.72094	-227.01393	-231.89595	-192.83979	-128.55986	80.55333	0
487	-24.4101	-41.49717	-18.71441	30.91946	-4.88202	-30.10579	66.72094	-227.01393	-231.89595	-192.83979	-128.55986	75.67131	0
488	-24.4101	-43.93818	-21.15542	33.36047	-2.44101	-32.5468	66.72094	-227.01393	-231.89595	-192.83979	-128.55986	63.46626	0
489	-19.52808	-43.93818	-26.03744	30.91946	3.25468	-34.98781	66.72094	-229.45494	-231.89595	-195.2808	-128.55986	56.14323	0
490	-12.20505	-43.93818	-33.36047	26.03744	10.57771	-39.86983	64.27993	-231.89595	-234.33696	-202.60383	-133.44188	56.14323	0
491	-14.64606	-43.93818	-30.91946	28.47845	8.1367	-37.42882	64.27993	-229.45494	-239.21898	-205.04484	-138.3239	73.2303	0
492	-19.52808	-43.93818	-26.03744	30.91946	3.25468	-34.98781	64.27993	-229.45494	-239.21898	-205.04484	-140.76491	87.87636	0
493	-19.52808	-43.93818	-26.03744	30.91946	3.25468	-34.98781	61.83892	-229.45494	-241.65999	-205.04484	-140.76491	92.75838	0
494	-17.08707	-43.93818	-28.47845	28.47845	5.69569	-37.42882	61.83892	-231.89595	-244.101	-209.92686	-143.20592	90.31737	0
495	-12.20505	-43.93818	-33.36047	26.03744	10.57771	-39.86983	59.39791	-234.33696	-246.54201	-212.36787	-145.64693	78.11232	0
496	-12.20505	-43.93818	-33.36047	26.03744	10.57771	-39.86983	59.39791	-234.33696	-246.54201	-214.80888	-145.64693	82.99434	0
497	-12.20505	-43.93818	-33.36047	26.03744	10.57771	-39.86983	59.39791	-234.33696	-246.54201	-214.80888	-145.64693	82.99434	0
498	-14.64606	-46.37919	-33.36047	28.47845	8.1367	-39.86983	59.39791	-234.33696	-246.54201	-214.80888	-145.64693	78.11232	0
499	-21.96909	-46.37919	-26.03744	33.36047	0.81367	-37.42882	59.39791	-231.89595	-241.65999	-212.36787	-143.20592	78.11232	0
500	-19.52808	-46.37919	-28.47845	30.91946	3.25468	-37.42882	61.83892	-229.45494	-241.65999	-214.80888	-145.64693	82.99434	0
501	-19.52808	-46.37919	-28.47845	30.91946	3.25468	-37.42882	61.83892	-229.45494	-241.65999	-214.80888	-145.64693	87.87636	0
502	-21.96909	-43.93818	-23.59643	30.91946	0.81367	-34.98781	61.83892	-222.13191	-241.65999	-214.80888	-145.64693	102.52242	0
503	-24.4101	-43.93818	-21.15542	33.36047	-2.44101	-32.5468	61.83892	-219.6909	-239.21898	-209.92686	-145.64693	107.40444	0
504	-26.85111	-43.93818	-18.71441	33.36047	-4.88202	-32.5468	61.83892	-217.24989	-239.21898	-207.48585	-143.20592	112.28646	0
505	-26.85111	-43.93818	-18.71441	33.36047	-4.88202	-32.5468	61.83892	-217.24989	-239.21898	-207.48585	-143.20592	104.96343	0
506	-24.4101	-43.93818	-21.15542	33.36047	-2.44101	-32.5468	61.83892	-217.24989	-241.65999	-212.36787	-143.20592	104.96343	0
507	-17.08707	-41.49717	-26.03744	28.47845	3.25468	-34.98781	61.83892	-212.36787	-241.65999	-214.80888	-143.20592	109.84545	0
508	-14.64606	-43.93818	-30.91946	28.47845	8.1367	-37.42882	61.83892	-212.36787	-244.101	-214.80888	-143.20592	107.40444	0
509	-17.08707	-46.37919	-30.91946	30.91946	5.69569	-39.86983	61.83892	-207.48585	-241.65999	-217.24989	-143.20592	100.08141	0
510	-7.32303	-46.37919	-40.6835	26.03744	15.45973	-44.75185	59.39791	-209.92686	-244.101	-224.57292	-150.52895	92.75838	0
511	-4.88202	-46.37919	-43.12451	23.59643	17.90074	-44.75185	59.39791	-207.48585	-246.54201	-224.57292	-152.96996	95.19939	0
512	-1.62734	-46.37919	-45.56552	23.59643	20.34175	-44.75185	61.83892	-202.60383	-246.54201	-227.01393	-155.41097	104.96343	0
513	0.81367	-46.37919	-48.00653	21.15542	22.78276	-47.19286	61.83892	-200.16282	-246.54201	-224.57292	-155.41097	107.40444	0
514	0.81367	-46.37919	-48.00653	21.15542	22.78276	-47.19286	61.83892	-197.72181	-248.98302	-219.6909	-152.96996	109.84545	0
515	-4.88202	-51.26121	-48.00653	26.03744	20.34175	-49.63387	61.83892	-197.72181	-248.98302	-219.6909	-150.52895	100.08141	0
516	-7.32303	-53.70222	-48.00653	28.47845	20.34175	-52.07488	64.27993	-200.16282	-251.42403	-219.6909	-150.52895	97.6404	0
517	3.25468	-53.70222	-57.77057	23.59643	30.10579	-54.51589	61.83892	-205.04484	-256.30605	-224.57292	-152.96996	100.08141	0
518	3.25468	-53.70222	-57.77057	23.59643	30.10579	-54.51589	61.83892	-207.48585	-253.86504	-222.13191	-150.52895	102.52242	0
519	-1.62734	-53.70222	-52.88855	26.03744	25.22377	-52.07488	61.83892	-205.04484	-246.54201	-219.6909	-148.08794	107.40444	0
520	-4.88202	-56.14323	-52.88855	28.47845	22.78276	-54.51589	59.39791	-207.48585	-244.101	-219.6909	-150.52895	109.84545	0
521	-4.88202	-53.70222	-50.44754	28.47845	22.78276	-52.07488	59.39791	-205.04484	-239.21898	-219.6909	-152.96996	124.49151	0
522	-4.88202	-51.26121	-48.00653	26.03744	20.34175	-49.63387	59.39791	-197.72181	-234.33696	-219.6909	-152.96996	144.01959	0
523	-4.88202	-51.26121	-48.00653	26.03744	20.34175	-49.63387	59.39791	-195.2808	-229.45494	-217.24989	-155.41097	151.34262	0
524	-4.88202	-48.8202	-45.56552	26.03744	20.34175	-47.19286	56.9569	-192.83979	-229.45494	-217.24989	-152.96996	153.78363	0
525	-4.88202	-46.37919	-43.12451	23.59643	17.90074	-44.75185	54.51589	-185.51676	-227.01393	-217.24989	-150.52895	146.4606	0
526	-12.20505	-46.37919	-35.80148	28.47845	10.57771	-42.31084	56.9569	-183.07575	-227.01393	-217.24989	-148.08794	151.34262	0
527	-12.20505	-46.37919	-35.80148	28.47845	10.57771	-42.31084	56.9569	-183.07575	-229.45494	-219.6909	-148.08794	161.10666	0
528	-12.20505	-46.37919	-35.80148	28.47845	10.57771	-42.31084	56.9569	-178.19373	-229.45494	-219.6909	-145.64693	163.54767	0
529	-12.20505	-48.8202	-38.24249	28.47845	13.01872	-44.75185	54.51589	-178.19373	-227.01393	-222.13191	-145.64693	163.54767	0
530	-14.64606	-48.8202	-35.80148	30.91946	10.57771	-42.31084	54.51589	-178.19373	-224.57292	-224.57292	-148.08794	158.66565	0
531	-17.08707	-48.8202	-33.36047	30.91946	8.1367	-42.31084	56.9569	-173.31171	-222.13191	-227.01393	-150.52895	165.98868	0
532	-17.08707	-48.8202	-33.36047	30.91946	8.1367	-42.31084	59.39791	-168.42969	-222.13191	-229.45494	-155.41097	173.31171	0
533	-14.64606	-46.37919	-33.36047	28.47845	8.1367	-39.86983	59.39791	-165.98868	-219.6909	-229.45494	-155.41097	173.31171	0
534	-19.52808	-48.8202	-30.91946	33.36047	5.69569	-39.86983	61.83892	-161.10666	-217.24989	-227.01393	-152.96996	173.31171	0
535	-24.4101	-48.8202	-26.03744	35.80148	0.81367	-37.42882	64.27993	-153.78363	-212.36787	-227.01393	-150.52895	156.22464	0
536	-26.85111	-51.26121	-26.03744	38.24249	-2.44101	-39.86983	66.72094	-151.34262	-212.36787	-227.01393	-150.52895	153.78363	0
537	-34.17414	-51.26121	-18.71441	40.6835	-9.76404	-34.98781	69.16195	-146.4606	-212.36787	-227.01393	-150.52895	161.10666	0
538	-36.61515	-51.26121	-16.2734	43.12451	-12.20505	-34.98781	71.60296	-144.01959	-212.36787	-227.01393	-148.08794	168.42969	0
539	-29.29212	-56.14323	-28.47845	40.6835	-2.44101	-42.31084	66.72094	-146.4606	-214.80888	-231.89595	-155.41097	170.8707	0
540	-34.17414	-53.70222	-21.15542	43.12451	-7.32303	-37.42882	69.16195	-144.01959	-212.36787	-231.89595	-155.41097	170.8707	0
541	-36.61515	-53.70222	-18.71441	43.12451	-9.76404	-37.42882	69.16195	-139.13757	-209.92686	-229.45494	-160.29299	183.07575	0
542	-39.05616	-51.26121	-13.83239	43.12451	-14.64606	-32.5468	71.60296	-134.25555	-207.48585	-229.45494	-162.734	195.2808	0
543	-36.61515	-48.8202	-13.83239	40.6835	-12.20505	-32.5468	71.60296	-129.37353	-202.60383	-229.45494	-162.734	197.72181	0
544	-36.61515	-46.37919	-11.39138	40.6835	-14.64606	-30.10579	74.04397	-122.0505	-197.72181	-224.57292	-160.29299	200.16282	0
545	-39.05616	-43.93818	-6.50936	40.6835	-17.08707	-25.22377	78.92599	-114.72747	-192.83979	-222.13191	-155.41097	185.51676	0
546	-34.17414	-43.93818	-11.39138	38.24249	-12.20505	-27.66478	78.92599	-112.28646	-190.39878	-222.13191	-155.41097	175.75272	0
547	-39.05616	-43.93818	-6.50936	40.6835	-17.08707	-25.22377	83.80801	-104.96343	-187.95777	-219.6909	-148.08794	180.63474	0
548	-43.93818	-41.49717	1.62734	40.6835	-24.4101	-20.34175	86.24902	-97.6404	-185.51676	-217.24989	-143.20592	183.07575	0
549	-46.37919	-43.93818	1.62734	43.12451	-24.4101	-22.78276	86.24902	-97.6404	-183.07575	-217.24989	-140.76491	187.95777	0
550	-51.26121	-46.37919	4.06835	48.00653	-29.29212	-22.78276	86.24902	-95.19939	-183.07575	-217.24989	-140.76491	190.39878	0
551	-53.70222	-46.37919	6.50936	48.00653	-31.73313	-20.34175	88.69003	-92.75838	-180.63474	-219.6909	-143.20592	207.48585	0
552	-48.8202	-46.37919	1.62734	45.56552	-26.85111	-22.78276	83.80801	-92.75838	-180.63474	-224.57292	-150.52895	214.80888	0
553	-43.93818	-46.37919	-4.06835	43.12451	-21.96909	-25.22377	81.367	-95.19939	-183.07575	-227.01393	-155.41097	214.80888	0
554	-36.61515	-43.93818	-8.95037	38.24249	-14.64606	-27.66478	78.92599	-95.19939	-183.07575	-229.45494	-155.41097	212.36787	0
555	-34.17414	-43.93818	-11.39138	38.24249	-12.20505	-27.66478	78.92599	-92.75838	-183.07575	-229.45494	-155.41097	197.72181	0
556	-29.29212	-41.49717	-13.83239	33.36047	-9.76404	-27.66478	78.92599	-90.31737	-180.63474	-229.45494	-155.41097	192.83979	0
557	-24.4101	-39.05616	-16.2734	30.91946	-4.88202	-27.66478	78.92599	-87.87636	-178.19373	-229.45494	-155.41097	200.16282	0
558	-24.4101	-39.05616	-16.2734	30.91946	-4.88202	-27.66478	78.92599	-85.43535	-175.75272	-224.57292	-152.96996	209.92686	0
559	-24.4101	-39.05616	-16.2734	30.91946	-4.88202	-27.66478	78.92599	-85.43535	-175.75272	-224.57292	-155.41097	212.36787	0
560	-26.85111	-41.49717	-16.2734	33.36047	-7.32303	-30.10579	76.48498	-87.87636	-173.31171	-224.57292	-155.41097	214.80888	0
561	-31.73313	-41.49717	-11.39138	35.80148	-12.20505	-27.66478	81.367	-80.55333	-170.8707	-224.57292	-155.41097	236.77797	0
562	-39.05616	-41.49717	-4.06835	38.24249	-19.52808	-22.78276	83.80801	-78.11232	-168.42969	-222.13191	-155.41097	253.86504	0
563	-41.49717	-43.93818	-4.06835	40.6835	-19.52808	-25.22377	86.24902	-78.11232	-168.42969	-219.6909	-152.96996	256.30605	0
564	-43.93818	-46.37919	-4.06835	43.12451	-21.96909	-25.22377	86.24902	-82.99434	-170.8707	-219.6909	-148.08794	258.74706	0
565	-46.37919	-46.37919	-1.62734	45.56552	-24.4101	-25.22377	86.24902	-82.99434	-170.8707	-219.6909	-145.64693	241.65999	0
566	-51.26121	-46.37919	4.06835	48.00653	-29.29212	-22.78276	86.24902	-85.43535	-170.8707	-219.6909	-143.20592	234.33696	0
567	-48.8202	-46.37919	1.62734	45.56552	-26.85111	-22.78276	83.80801	-92.75838	-173.31171	-222.13191	-143.20592	234.33696	0
568	-41.49717	-46.37919	-6.50936	43.12451	-19.52808	-27.66478	81.367	-95.19939	-173.31171	-222.13191	-143.20592	234.33696	0
569	-39.05616	-43.93818	-6.50936	40.6835	-17.08707	-25.22377	74.04397	-100.08141	-175.75272	-222.13191	-143.20592	234.33696	0
570	-39.05616	-43.93818	-6.50936	40.6835	-17.08707	-25.22377	71.60296	-102.52242	-175.75272	-222.13191	-145.64693	231.89595	0
571	-41.49717	-41.49717	-1.62734	40.6835	-21.96909	-22.78276	71.60296	-100.08141	-168.42969	-222.13191	-148.08794	251.42403	0
572	-41.49717	-36.61515	4.06835	38.24249	-24.4101	-17.90074	69.16195	-95.19939	-165.98868	-219.6909	-152.96996	266.07009	0
573	-46.37919	-36.61515	8.95037	40.6835	-29.29212	-15.45973	74.04397	-87.87636	-161.10666	-214.80888	-150.52895	268.5111	0
574	-51.26121	-34.17414	16.2734	40.6835	-34.17414	-10.57771	76.48498	-82.99434	-156.22464	-214.80888	-145.64693	270.95211	0
575	-48.8202	-31.73313	16.2734	38.24249	-34.17414	-8.1367	78.92599	-75.67131	-153.78363	-209.92686	-138.3239	251.42403	0
576	-51.26121	-31.73313	18.71441	40.6835	-36.61515	-8.1367	88.69003	-65.90727	-146.4606	-207.48585	-131.00087	251.42403	0
577	-53.70222	-29.29212	23.59643	40.6835	-39.05616	-3.25468	96.01306	-58.58424	-141.57858	-202.60383	-123.67784	263.62908	0
578	-53.70222	-26.85111	26.03744	38.24249	-41.49717	0	100.89508	-53.70222	-139.13757	-197.72181	-116.35481	273.39312	0
579	-48.8202	-24.4101	23.59643	35.80148	-36.61515	0	105.7771	-51.26121	-136.69656	-195.2808	-116.35481	268.5111	0
580	-53.70222	-21.96909	30.91946	35.80148	-43.93818	4.88202	113.10013	-46.37919	-131.81454	-192.83979	-116.35481	266.07009	0
581	-56.14323	-19.52808	35.80148	35.80148	-46.37919	7.32303	117.98215	-41.49717	-126.93252	-192.83979	-116.35481	283.15716	0
582	-53.70222	-14.64606	38.24249	33.36047	-46.37919	12.20505	117.98215	-34.17414	-126.93252	-190.39878	-118.79582	292.9212	0
583	-56.14323	-12.20505	43.12451	33.36047	-51.26121	14.64606	120.42316	-29.29212	-122.0505	-187.95777	-118.79582	297.80322	0
584	-53.70222	-9.76404	43.12451	30.91946	-48.8202	17.08707	120.42316	-24.4101	-117.16848	-183.07575	-116.35481	302.68524	0
585	-48.8202	-7.32303	40.6835	26.03744	-46.37919	17.08707	115.54114	-24.4101	-117.16848	-183.07575	-111.47279	280.71615	0
586	-48.8202	-7.32303	40.6835	26.03744	-46.37919	17.08707	115.54114	-19.52808	-114.72747	-178.19373	-106.59077	273.39312	0
587	-48.8202	-9.76404	38.24249	28.47845	-43.93818	14.64606	113.10013	-19.52808	-112.28646	-178.19373	-104.14976	280.71615	0
588	-48.8202	-9.76404	38.24249	28.47845	-43.93818	14.64606	113.10013	-17.08707	-107.40444	-170.8707	-96.82673	295.36221	0
589	-46.37919	-9.76404	35.80148	26.03744	-41.49717	12.20505	110.65912	-14.64606	-102.52242	-165.98868	-91.94471	300.24423	0
590	-46.37919	-7.32303	38.24249	26.03744	-43.93818	14.64606	108.21811	-14.64606	-100.08141	-163.54767	-91.94471	305.12625	0
591	-48.8202	-4.88202	43.12451	26.03744	-46.37919	19.52808	108.21811	-14.64606	-97.6404	-163.54767	-94.38572	327.09534	0
592	-53.70222	-1.62734	50.44754	26.03744	-51.26121	24.4101	105.7771	-14.64606	-97.6404	-161.10666	-94.38572	341.7414	0
593	-68.34828	-1.62734	65.0936	33.36047	-65.90727	31.73313	105.7771	-14.64606	-100.08141	-158.66565	-91.94471	346.62342	0
594	-87.87636	0.81367	87.06269	43.12451	-87.87636	43.93818	108.21811	-14.64606	-97.6404	-156.22464	-84.62168	349.06443	0
595	-90.31737	3.25468	91.94471	43.12451	-90.31737	46.37919	103.33609	-19.52808	-102.52242	-156.22464	-82.18067	324.65433	0
596	-97.6404	5.69569	101.70875	45.56552	-100.08141	53.70222	100.89508	-19.52808	-102.52242	-156.22464	-77.29865	314.89029	0
597	-97.6404	0.81367	96.82673	48.00653	-97.6404	48.8202	93.57205	-24.4101	-107.40444	-158.66565	-79.73966	310.00827	0
598	-90.31737	-1.62734	87.06269	45.56552	-87.87636	41.49717	83.80801	-31.73313	-112.28646	-161.10666	-79.73966	300.24423	0
599	-90.31737	-7.32303	82.18067	48.00653	-87.87636	36.61515	76.48498	-39.05616	-114.72747	-163.54767	-82.18067	275.83413	0
600	-85.43535	-9.76404	74.85764	45.56552	-80.55333	31.73313	71.60296	-46.37919	-119.60949	-168.42969	-91.94471	251.42403	0
601	-75.67131	-12.20505	62.65259	43.12451	-70.78929	24.4101	64.27993	-51.26121	-122.0505	-175.75272	-104.14976	241.65999	0
602	-63.46626	-14.64606	48.00653	38.24249	-56.14323	17.08707	59.39791	-53.70222	-126.93252	-183.07575	-118.79582	224.57292	0
603	-56.14323	-17.08707	38.24249	35.80148	-48.8202	9.76404	59.39791	-53.70222	-129.37353	-183.07575	-123.67784	205.04484	0
604	-56.14323	-19.52808	35.80148	35.80148	-46.37919	7.32303	59.39791	-51.26121	-129.37353	-185.51676	-123.67784	190.39878	0
605	-56.14323	-24.4101	30.91946	38.24249	-43.93818	2.44101	59.39791	-51.26121	-134.25555	-190.39878	-126.11885	151.34262	0
606	-58.58424	-29.29212	28.47845	43.12451	-43.93818	0	59.39791	-51.26121	-136.69656	-195.2808	-128.55986	131.81454	0
607	-56.14323	-29.29212	26.03744	40.6835	-41.49717	-3.25468	59.39791	-56.14323	-141.57858	-195.2808	-128.55986	134.25555	0
608	-56.14323	-34.17414	21.15542	43.12451	-39.05616	-8.1367	59.39791	-58.58424	-144.01959	-197.72181	-128.55986	144.01959	0
609	-63.46626	-39.05616	23.59643	50.44754	-43.93818	-8.1367	59.39791	-58.58424	-144.01959	-197.72181	-126.11885	151.34262	0
610	-73.2303	-41.49717	30.91946	55.32956	-53.70222	-5.69569	61.83892	-63.46626	-146.4606	-202.60383	-128.55986	161.10666	0
611	-80.55333	-43.93818	35.80148	60.21158	-58.58424	-5.69569	61.83892	-65.90727	-151.34262	-207.48585	-135.88289	187.95777	0
612	-82.99434	-43.93818	38.24249	62.65259	-61.02525	-3.25468	61.83892	-65.90727	-156.22464	-212.36787	-143.20592	207.48585	0
613	-90.31737	-43.93818	45.56552	65.0936	-68.34828	0	64.27993	-65.90727	-156.22464	-212.36787	-148.08794	217.24989	0
614	-92.75838	-43.93818	48.00653	67.53461	-70.78929	2.44101	64.27993	-65.90727	-156.22464	-214.80888	-150.52895	227.01393	0
615	-102.52242	-46.37919	55.32956	72.41663	-80.55333	4.88202	66.72094	-65.90727	-156.22464	-214.80888	-152.96996	207.48585	0
616	-112.28646	-46.37919	65.0936	77.29865	-90.31737	9.76404	69.16195	-61.02525	-156.22464	-214.80888	-152.96996	197.72181	0
617	-114.72747	-46.37919	67.53461	79.73966	-92.75838	9.76404	71.60296	-58.58424	-156.22464	-209.92686	-148.08794	200.16282	0
618	-112.28646	-46.37919	65.0936	77.29865	-90.31737	9.76404	71.60296	-56.14323	-153.78363	-207.48585	-138.3239	205.04484	0
619	-114.72747	-46.37919	67.53461	79.73966	-92.75838	9.76404	71.60296	-53.70222	-151.34262	-202.60383	-123.67784	205.04484	0
620	-112.28646	-43.93818	67.53461	77.29865	-90.31737	12.20505	71.60296	-53.70222	-148.90161	-202.60383	-113.9138	205.04484	0
621	-107.40444	-43.93818	62.65259	74.85764	-85.43535	9.76404	71.60296	-53.70222	-151.34262	-207.48585	-111.47279	222.13191	0
622	-107.40444	-41.49717	65.0936	72.41663	-87.87636	12.20505	71.60296	-51.26121	-151.34262	-207.48585	-111.47279	229.45494	0
623	-104.96343	-41.49717	62.65259	72.41663	-85.43535	9.76404	71.60296	-48.8202	-153.78363	-209.92686	-116.35481	229.45494	0
624	-92.75838	-41.49717	50.44754	65.0936	-73.2303	4.88202	66.72094	-53.70222	-158.66565	-217.24989	-128.55986	231.89595	0
625	-85.43535	-41.49717	43.12451	62.65259	-65.90727	0	64.27993	-56.14323	-163.54767	-222.13191	-140.76491	212.36787	0
626	-85.43535	-43.93818	40.6835	62.65259	-63.46626	-3.25468	66.72094	-51.26121	-163.54767	-222.13191	-150.52895	207.48585	0
627	-85.43535	-43.93818	40.6835	62.65259	-63.46626	-3.25468	69.16195	-51.26121	-163.54767	-224.57292	-160.29299	212.36787	0
628	-78.11232	-48.8202	28.47845	62.65259	-53.70222	-10.57771	66.72094	-53.70222	-165.98868	-224.57292	-167.61602	214.80888	0
629	-73.2303	-51.26121	21.15542	60.21158	-48.8202	-15.45973	61.83892	-56.14323	-168.42969	-227.01393	-170.05703	212.36787	0
630	-63.46626	-51.26121	11.39138	55.32956	-39.05616	-20.34175	61.83892	-58.58424	-170.8707	-231.89595	-165.17501	212.36787	0
631	-61.02525	-51.26121	8.95037	55.32956	-36.61515	-22.78276	61.83892	-58.58424	-173.31171	-234.33696	-160.29299	231.89595	0
632	-65.90727	-46.37919	18.71441	55.32956	-43.93818	-15.45973	64.27993	-53.70222	-170.8707	-231.89595	-150.52895	248.98302	0
633	-68.34828	-43.93818	23.59643	55.32956	-46.37919	-10.57771	64.27993	-48.8202	-168.42969	-229.45494	-143.20592	256.30605	0
634	-70.78929	-43.93818	26.03744	55.32956	-48.8202	-10.57771	66.72094	-48.8202	-165.98868	-227.01393	-138.3239	263.62908	0
635	-68.34828	-43.93818	23.59643	55.32956	-46.37919	-10.57771	66.72094	-43.93818	-165.98868	-227.01393	-140.76491	244.101	0
636	-70.78929	-43.93818	26.03744	55.32956	-48.8202	-10.57771	69.16195	-41.49717	-163.54767	-229.45494	-145.64693	239.21898	0
637	-70.78929	-43.93818	26.03744	55.32956	-48.8202	-10.57771	71.60296	-39.05616	-161.10666	-224.57292	-152.96996	246.54201	0
638	-73.2303	-46.37919	26.03744	57.77057	-51.26121	-10.57771	71.60296	-36.61515	-158.66565	-222.13191	-155.41097	253.86504	0
639	-70.78929	-48.8202	21.15542	57.77057	-46.37919	-15.45973	69.16195	-39.05616	-158.66565	-222.13191	-157.85198	248.98302	0
640	-68.34828	-48.8202	18.71441	57.77057	-43.93818	-15.45973	66.72094	-39.05616	-158.66565	-227.01393	-155.41097	244.101	0
641	-68.34828	-48.8202	18.71441	57.77057	-43.93818	-15.45973	66.72094	-34.17414	-158.66565	-231.89595	-152.96996	258.74706	0
642	-68.34828	-48.8202	18.71441	57.77057	-43.93818	-15.45973	66.72094	-31.73313	-158.66565	-234.33696	-150.52895	263.62908	0
643	-65.90727	-46.37919	18.71441	55.32956	-43.93818	-15.45973	66.72094	-31.73313	-161.10666	-236.77797	-145.64693	258.74706	0
644	-73.2303	-46.37919	26.03744	57.77057	-51.26121	-10.57771	66.72094	-29.29212	-161.10666	-236.77797	-143.20592	258.74706	0
645	-85.43535	-46.37919	38.24249	65.0936	-63.46626	-5.69569	69.16195	-24.4101	-158.66565	-234.33696	-143.20592	239.21898	0
646	-85.43535	-43.93818	40.6835	62.65259	-63.46626	-3.25468	69.16195	-24.4101	-161.10666	-236.77797	-145.64693	229.45494	0
647	-80.55333	-41.49717	38.24249	60.21158	-61.02525	-3.25468	69.16195	-24.4101	-163.54767	-236.77797	-152.96996	231.89595	0
648	-80.55333	-41.49717	38.24249	60.21158	-61.02525	-3.25468	69.16195	-24.4101	-163.54767	-234.33696	-155.41097	236.77797	0
649	-85.43535	-41.49717	43.12451	62.65259	-65.90727	0	66.72094	-24.4101	-161.10666	-231.89595	-155.41097	236.77797	0
650	-87.87636	-41.49717	45.56552	62.65259	-68.34828	2.44101	66.72094	-26.85111	-158.66565	-229.45494	-157.85198	236.77797	-1250	T-0
651	-87.87636	-41.49717	45.56552	62.65259	-68.34828	2.44101	66.72094	-24.4101	-156.22464	-229.45494	-160.29299	256.30605	0
652	-87.87636	-36.61515	50.44754	60.21158	-70.78929	7.32303	66.72094	-19.52808	-156.22464	-229.45494	-160.29299	266.07009	0
653	-70.78929	-34.17414	35.80148	50.44754	-53.70222	0	61.83892	-21.96909	-156.22464	-234.33696	-162.734	258.74706	0
654	-63.46626	-34.17414	28.47845	48.00653	-46.37919	-3.25468	56.9569	-21.96909	-158.66565	-234.33696	-165.17501	253.86504	0
655	-68.34828	-31.73313	35.80148	48.00653	-53.70222	2.44101	59.39791	-17.08707	-156.22464	-234.33696	-167.61602	229.45494	0
656	-70.78929	-31.73313	38.24249	50.44754	-56.14323	2.44101	59.39791	-14.64606	-156.22464	-236.77797	-172.49804	219.6909	0
657	-70.78929	-31.73313	38.24249	50.44754	-56.14323	2.44101	59.39791	-12.20505	-156.22464	-236.77797	-179.82107	222.13191	0
658	-68.34828	-34.17414	33.36047	50.44754	-51.26121	0	56.9569	-12.20505	-156.22464	-236.77797	-177.38006	224.57292	0
659	-58.58424	-31.73313	26.03744	43.12451	-43.93818	-3.25468	52.07488	-12.20505	-156.22464	-234.33696	-167.61602	219.6909	0
660	-56.14323	-31.73313	23.59643	43.12451	-41.49717	-5.69569	52.07488	-9.76404	-151.34262	-234.33696	-157.85198	214.80888	0
661	-63.46626	-31.73313	30.91946	45.56552	-48.8202	0	54.51589	0.81367	-146.4606	-229.45494	-145.64693	229.45494	0
662	-80.55333	-31.73313	48.00653	55.32956	-65.90727	7.32303	66.72094	22.78276	-134.25555	-224.57292	-135.88289	239.21898	0
663	-85.43535	-26.85111	57.77057	55.32956	-73.2303	14.64606	81.367	47.19286	-124.49151	-222.13191	-133.44188	239.21898	0
664	-92.75838	-21.96909	69.97562	55.32956	-82.99434	24.4101	98.45407	49.63387	-112.28646	-219.6909	-133.44188	236.77797	0
665	-107.40444	-19.52808	87.06269	62.65259	-97.6404	34.17414	122.86417	135.06922	-102.52242	-219.6909	-140.76491	209.92686	0
666	-122.0505	-14.64606	106.59077	67.53461	-114.72747	46.37919	152.15629	188.77144	-92.75838	-217.24989	-150.52895	195.2808	0
667	-144.01959	-12.20505	131.00087	77.29865	-139.13757	58.58424	186.33043	205.85851	-85.43535	-214.80888	-189.58511	107.40444	0
668	-161.10666	-9.76404	150.52895	84.62168	-156.22464	70.78929	227.8276	220.50457	-82.99434	-214.80888	-221.31824	107.40444	0
669	-183.07575	0.81367	182.26208	89.5037	-183.07575	90.31737	276.6478	225.38659	-70.78929	-217.24989	-228.64127	95.19939	0
670	-183.07575	3.25468	184.70309	89.5037	-183.07575	92.75838	281.52982	164.36134	-80.55333	-227.01393	-223.75925	275.83413	0
671	-224.57292	-12.20505	211.5542	116.35481	-219.6909	100.08141	269.32477	105.7771	-78.11232	-212.36787	-194.46713	253.86504	0
672	-161.10666	5.69569	165.17501	77.29865	-163.54767	85.43535	232.70962	-7.32303	-134.25555	-251.42403	-182.26208	217.24989	0
673	-114.72747	22.78276	135.88289	45.56552	-124.49151	78.11232	171.68437	-168.42969	-192.83979	-288.03918	-155.41097	190.39878	0
674	-134.25555	49.63387	182.26208	40.6835	-158.66565	114.72747	135.06922	-285.59817	-214.80888	-261.18807	-96.82673	256.30605	0
675	-56.14323	83.80801	138.3239	-13.83239	-97.6404	109.84545	61.83892	-449.14584	-244.101	-239.21898	-48.00653	302.68524	0
676	-26.85111	135.06922	160.29299	-55.32956	-92.75838	146.4606	-14.64606	-634.6626	-278.27514	-180.63474	21.15542	261.18807	0
677	-9.76404	179.0074	187.1441	-84.62168	-97.6404	183.07575	-107.40444	-812.85633	-317.3313	-107.40444	118.79582	383.23857	0
678	86.24902	247.35568	160.29299	-167.61602	-36.61515	205.04484	-236.77797	-956.87592	-356.38746	-33.36047	228.64127	524.81715	0
679	171.68437	347.43709	174.93905	-260.3744	-2.44101	261.18807	-395.44362	-1122.8646	-353.94645	59.39791	375.10187	676.15977	0
680	222.94558	403.58032	179.82107	-314.07662	22.78276	292.9212	-551.66826	-1305.94035	-390.5616	135.06922	514.23944	-14988.61507	0
681	320.58598	498.77971	177.38006	-409.27601	71.60296	339.30039	-749.39007	-1576.89246	-497.96604	169.24336	653.37701	-14851.10484	0
682	406.02133	576.89203	170.05703	-492.27035	117.98215	373.47453	-956.87592	-1811.22942	-546.78624	259.56073	860.86286	-14680.23414	0
683	474.36961	664.76839	189.58511	-570.38267	142.39225	427.17675	-1147.2747	-1940.60295	-527.25816	379.17022	1085.43578	-14514.24546	0
684	545.1589	759.96778	213.99521	-653.37701	166.80235	488.202	-1298.61732	-2021.15628	-493.08402	528.07183	1297.80365	-14275.02648	0
685	589.09708	828.31606	238.40531	-709.52024	176.56639	534.58119	-1371.84762	-2021.15628	-434.49978	672.09142	1473.55637	-14109.0378	0
686	603.74314	791.70091	187.1441	-697.31519	208.29952	490.64301	-1357.20156	-1974.77709	-378.35655	784.37788	1539.46364	-14211.56022	0
687	630.59425	669.65041	38.24249	-650.936	296.17588	353.94645	-1313.26338	-1891.78275	-288.03918	916.19242	1612.69394	-14218.88325	0
688	674.53243	618.3892	-57.77057	-646.05398	366.96517	280.71615	-1274.20722	-1769.73225	-165.98868	1077.29908	1729.04875	-14179.82709	0
689	498.77971	542.71789	43.12451	-521.56247	227.8276	292.9212	-1174.12581	-1581.77448	-8.95037	1255.49281	1848.65824	-14165.18103	0
690	491.45668	471.9286	-21.15542	-482.50631	257.11972	227.01393	-1105.77753	-1435.31388	96.01306	1340.92816	1877.95036	-14045.57154	0
691	557.36395	408.46234	-150.52895	-482.50631	354.76012	129.37353	-1042.31127	-1276.64823	210.74053	1409.27644	1868.18632	-14184.70911	0
692	471.9286	342.55507	-131.00087	-406.835	301.0579	107.40444	-925.14279	-1037.42925	359.64214	1480.06573	1880.39137	-14314.08264	0
693	393.81628	274.20679	-121.23683	-333.6047	257.11972	78.11232	-798.21027	-810.41532	476.81062	1494.71179	1812.04309	-14511.80445	0
694	357.20113	237.59164	-121.23683	-296.98955	240.03265	58.58424	-676.15977	-644.42664	498.77971	1399.5124	1602.9299	-14704.64424	0
695	237.59164	210.74053	-28.47845	-223.75925	132.62821	92.75838	-544.34523	-490.64301	484.13365	1248.16978	1351.50587	-14921.89413	0
696	71.60296	193.65346	121.23683	-133.44188	-24.4101	158.66565	-410.08968	-346.62342	479.25163	1133.44231	1165.98911	805.5333	0
697	39.86983	164.36134	123.67784	-101.70875	-41.49717	144.01959	-327.09534	-263.62908	418.22638	938.16151	953.62124	666.39573	0
698	37.42882	159.47932	121.23683	-99.26774	-41.49717	141.57858	-268.5111	-185.51676	330.35002	694.06051	716.84327	558.99129	0
699	-34.17414	152.15629	184.70309	-60.21158	-109.84545	168.42969	-207.48585	-114.72747	242.47366	467.04658	506.91641	461.35089	0
700	-102.52242	135.06922	235.9643	-16.2734	-168.42969	185.51676	-141.57858	-46.37919	193.65346	210.74053	279.90248	554.10927	0
701	-131.81454	103.33609	233.52329	13.83239	-183.07575	168.42969	-104.96343	-12.20505	154.5973	-52.88855	45.56552	429.61776	0
702	-136.69656	88.69003	223.75925	23.59643	-180.63474	156.22464	-56.14323	47.19286	8.1367	-200.16282	-79.73966	341.7414	0
703	-161.10666	71.60296	231.08228	43.12451	-195.2808	151.34262	-26.85111	100.89508	30.10579	-214.80888	-91.94471	288.03918	0
704	-146.4606	81.367	226.20026	30.91946	-185.51676	153.78363	2.44101	164.36134	83.80801	-156.22464	-45.56552	334.41837	0
705	-161.10666	64.27993	223.75925	48.00653	-192.83979	144.01959	29.29212	235.15063	154.5973	-68.34828	4.06835	358.82847	0
706	-144.01959	44.75185	187.1441	48.00653	-165.98868	114.72747	41.49717	276.6478	183.88942	8.1367	23.59643	222.13191	0
707	-144.01959	34.98781	177.38006	52.88855	-161.10666	104.96343	74.04397	315.70396	220.50457	69.16195	35.80148	234.33696	0
708	-141.57858	22.78276	162.734	57.77057	-151.34262	92.75838	91.13104	344.99608	252.2377	96.01306	38.24249	234.33696	0
709	-144.01959	10.57771	152.96996	65.0936	-148.90161	80.55333	115.54114	376.72921	279.08881	125.30518	38.24249	295.36221	0
710	-144.01959	-1.62734	140.76491	72.41663	-141.57858	68.34828	137.51023	403.58032	296.17588	108.21811	55.32956	288.03918	0
711	-153.78363	-4.88202	148.08794	77.29865	-151.34262	70.78929	120.42316	388.93426	313.26295	125.30518	65.0936	300.24423	0
712	-156.22464	-7.32303	148.08794	79.73966	-153.78363	70.78929	130.1872	403.58032	318.14497	139.95124	67.53461	305.12625	0
713	-161.10666	-12.20505	148.08794	84.62168	-156.22464	68.34828	139.95124	413.34436	315.70396	122.86417	69.97562	300.24423	0
714	-165.98868	-17.08707	148.08794	89.5037	-158.66565	65.90727	147.27427	442.63648	332.79103	144.83326	72.41663	295.36221	0
715	-170.8707	-21.96909	148.08794	94.38572	-161.10666	63.46626	152.15629	454.84153	335.23204	147.27427	67.53461	268.5111	0
716	-180.63474	-26.85111	152.96996	101.70875	-168.42969	63.46626	161.92033	467.04658	340.11406	152.15629	65.0936	258.74706	0
717	-190.39878	-31.73313	157.85198	109.03178	-175.75272	63.46626	169.24336	476.81062	347.43709	159.47932	62.65259	261.18807	0
718	-195.2808	-31.73313	162.734	111.47279	-180.63474	65.90727	176.56639	489.01567	357.20113	171.68437	62.65259	266.07009	0
719	-200.16282	-36.61515	162.734	116.35481	-183.07575	63.46626	181.44841	496.3387	364.52416	179.0074	62.65259	261.18807	0
720	-214.80888	-43.93818	170.05703	128.55986	-192.83979	63.46626	186.33043	503.66173	371.84719	186.33043	67.53461	258.74706	0
721	-219.6909	-48.8202	170.05703	133.44188	-195.2808	61.02525	193.65346	510.98476	376.72921	191.21245	69.97562	270.95211	0
722	-207.48585	-48.8202	157.85198	126.11885	-183.07575	53.70222	193.65346	515.86678	376.72921	191.21245	69.97562	273.39312	0
723	-200.16282	-51.26121	148.08794	123.67784	-175.75272	48.8202	193.65346	518.30779	381.61123	191.21245	67.53461	266.07009	0
724	-192.83979	-51.26121	140.76491	121.23683	-168.42969	43.93818	193.65346	523.18981	384.05224	196.09447	65.0936	263.62908	0
725	-190.39878	-51.26121	138.3239	118.79582	-165.98868	43.93818	198.53548	530.51284	388.93426	198.53548	60.21158	236.77797	0
726	-180.63474	-51.26121	128.55986	113.9138	-156.22464	39.05616	200.97649	537.83587	388.93426	196.09447	50.44754	224.57292	0
727	-183.07575	-53.70222	128.55986	116.35481	-156.22464	36.61515	205.85851	542.71789	391.37527	198.53548	43.12451	224.57292	0
728	-175.75272	-53.70222	121.23683	113.9138	-148.90161	34.17414	205.85851	545.1589	388.93426	198.53548	35.80148	222.13191	0
729	-168.42969	-56.14323	111.47279	111.47279	-141.57858	26.85111	205.85851	547.59991	388.93426	198.53548	30.91946	212.36787	0
730	-170.8707	-58.58424	111.47279	113.9138	-141.57858	26.85111	205.85851	552.48193	391.37527	198.53548	30.91946	207.48585	0
731	-183.07575	-58.58424	123.67784	118.79582	-153.78363	31.73313	210.74053	559.80496	398.6983	200.97649	35.80148	222.13191	0
732	-192.83979	-58.58424	133.44188	123.67784	-163.54767	36.61515	215.62255	569.569	403.58032	205.85851	43.12451	229.45494	0
733	-197.72181	-58.58424	138.3239	126.11885	-168.42969	39.05616	218.06356	576.89203	406.02133	208.29952	45.56552	224.57292	0
734	-195.2808	-58.58424	135.88289	126.11885	-165.98868	39.05616	218.06356	579.33304	408.46234	210.74053	45.56552	219.6909	0
735	-200.16282	-58.58424	140.76491	128.55986	-170.8707	41.49717	218.06356	586.65607	413.34436	215.62255	45.56552	197.72181	0
736	-200.16282	-58.58424	140.76491	128.55986	-170.8707	41.49717	222.94558	593.9791	420.66739	220.50457	43.12451	187.95777	0
737	-212.36787	-58.58424	152.96996	133.44188	-183.07575	46.37919	230.26861	606.18415	430.43143	230.26861	45.56552	197.72181	0
738	-214.80888	-58.58424	155.41097	135.88289	-185.51676	48.8202	235.15063	613.50718	437.75446	240.03265	48.00653	207.48585	0
739	-219.6909	-58.58424	160.29299	138.3239	-190.39878	51.26121	235.15063	620.83021	445.07749	247.35568	50.44754	207.48585	0
740	-222.13191	-58.58424	162.734	138.3239	-192.83979	51.26121	240.03265	625.71223	452.40052	252.2377	55.32956	205.04484	0
741	-224.57292	-61.02525	162.734	140.76491	-195.2808	51.26121	242.47366	633.03526	457.28254	254.67871	62.65259	219.6909	0
742	-229.45494	-61.02525	167.61602	143.20592	-200.16282	53.70222	244.91467	645.24031	464.60557	262.00174	69.97562	231.89595	0
743	-231.89595	-58.58424	172.49804	143.20592	-202.60383	56.14323	249.79669	655.00435	474.36961	266.88376	77.29865	234.33696	0
744	-234.33696	-58.58424	174.93905	145.64693	-205.04484	58.58424	249.79669	662.32738	479.25163	274.20679	84.62168	236.77797	0
745	-227.01393	-58.58424	167.61602	140.76491	-197.72181	53.70222	247.35568	667.2094	484.13365	276.6478	87.06269	212.36787	0
746	-222.13191	-61.02525	160.29299	140.76491	-192.83979	48.8202	247.35568	672.09142	486.57466	281.52982	84.62168	205.04484	0
747	-217.24989	-61.02525	155.41097	138.3239	-187.95777	46.37919	244.91467	676.97344	493.89769	286.41184	84.62168	214.80888	0
748	-214.80888	-61.02525	152.96996	135.88289	-185.51676	46.37919	244.91467	684.29647	498.77971	296.17588	89.5037	224.57292	0
749	-209.92686	-61.02525	148.08794	133.44188	-180.63474	43.93818	240.03265	686.73748	506.10274	303.49891	94.38572	227.01393	0
750	-205.04484	-56.14323	148.08794	128.55986	-178.19373	46.37919	240.03265	689.17849	513.42577	308.38093	101.70875	229.45494	0
751	-205.04484	-53.70222	150.52895	128.55986	-178.19373	48.8202	242.47366	698.94253	520.7488	315.70396	111.47279	251.42403	0
752	-205.04484	-53.70222	150.52895	128.55986	-178.19373	48.8202	242.47366	708.70657	530.51284	325.468	121.23683	266.07009	0
753	-205.04484	-53.70222	150.52895	128.55986	-178.19373	48.8202	242.47366	716.0296	537.83587	332.79103	131.00087	270.95211	0
754	-205.04484	-51.26121	152.96996	126.11885	-180.63474	51.26121	242.47366	725.79364	547.59991	342.55507	138.3239	278.27514	0
755	-207.48585	-48.8202	157.85198	126.11885	-183.07575	53.70222	242.47366	735.55768	554.92294	349.8781	145.64693	261.18807	0
756	-205.04484	-48.8202	155.41097	126.11885	-180.63474	53.70222	244.91467	745.32172	562.24597	354.76012	145.64693	256.30605	0
757	-202.60383	-43.93818	157.85198	121.23683	-180.63474	56.14323	244.91467	757.52677	572.01001	364.52416	150.52895	268.5111	0
758	-205.04484	-41.49717	162.734	121.23683	-185.51676	61.02525	249.79669	769.73182	584.21506	376.72921	155.41097	283.15716	0
759	-207.48585	-41.49717	165.17501	123.67784	-187.95777	61.02525	249.79669	781.93687	596.42011	388.93426	165.17501	292.9212	0
760	-205.04484	-36.61515	167.61602	118.79582	-187.95777	65.90727	249.79669	789.2599	606.18415	398.6983	174.93905	297.80322	0
761	-200.16282	-36.61515	162.734	116.35481	-183.07575	63.46626	249.79669	799.02394	613.50718	403.58032	184.70309	312.44928	0
762	-197.72181	-34.17414	162.734	113.9138	-180.63474	63.46626	249.79669	808.78798	620.83021	413.34436	194.46713	327.09534	0
763	-187.95777	-26.85111	160.29299	106.59077	-175.75272	65.90727	249.79669	816.11101	630.59425	423.1084	204.23117	329.53635	0
764	-187.95777	-21.96909	165.17501	104.14976	-178.19373	70.78929	252.2377	825.87505	642.7993	437.75446	218.87723	341.7414	0
765	-190.39878	-19.52808	170.05703	104.14976	-180.63474	75.67131	254.67871	838.0801	655.00435	449.95951	231.08228	329.53635	0
766	-192.83979	-17.08707	174.93905	104.14976	-185.51676	78.11232	259.56073	847.84414	664.76839	462.16456	240.84632	329.53635	0
767	-187.95777	-14.64606	172.49804	99.26774	-180.63474	78.11232	259.56073	852.72616	672.09142	471.9286	245.72834	336.85938	0
768	-183.07575	-14.64606	167.61602	96.82673	-175.75272	75.67131	257.11972	855.16717	679.41445	486.57466	253.05137	339.30039	0
769	-187.95777	-12.20505	174.93905	99.26774	-183.07575	80.55333	257.11972	862.4902	694.06051	501.22072	265.25642	344.18241	0
770	-187.95777	-4.88202	182.26208	94.38572	-185.51676	87.87636	262.00174	872.25424	711.14758	518.30779	282.34349	353.94645	0
771	-192.83979	-1.62734	189.58511	96.82673	-190.39878	92.75838	262.00174	882.01828	725.79364	530.51284	296.98955	378.35655	0
772	-192.83979	3.25468	194.46713	94.38572	-192.83979	97.6404	264.44275	894.22333	740.4397	542.71789	311.63561	395.44362	0
773	-195.2808	8.1367	201.79016	91.94471	-197.72181	104.96343	264.44275	906.42838	752.64475	554.92294	326.28167	402.76665	0
774	-197.72181	13.01872	209.11319	91.94471	-202.60383	109.84545	264.44275	916.19242	764.8498	567.12799	336.04571	410.08968	0
775	-187.95777	17.90074	204.23117	84.62168	-195.2808	109.84545	262.00174	923.51545	772.17283	576.89203	343.36874	395.44362	0
776	-178.19373	27.66478	204.23117	74.85764	-190.39878	114.72747	262.00174	933.27949	784.37788	584.21506	350.69177	397.88463	0
777	-175.75272	34.98781	209.11319	69.97562	-192.83979	122.0505	264.44275	940.60252	794.14192	596.42011	360.45581	419.85372	0
778	-173.31171	37.42882	209.11319	67.53461	-190.39878	122.0505	264.44275	947.92555	801.46495	606.18415	367.77884	434.49978	0
779	-173.31171	39.86983	211.5542	65.0936	-192.83979	124.49151	262.00174	952.80757	811.22899	615.94819	377.54288	444.26382	0
780	-173.31171	44.75185	216.43622	62.65259	-195.2808	129.37353	259.56073	952.80757	818.55202	625.71223	389.74793	449.14584	0
781	-165.98868	47.19286	211.5542	57.77057	-187.95777	129.37353	254.67871	955.24858	823.43404	630.59425	399.51197	473.55594	0
782	-156.22464	52.07488	206.67218	50.44754	-180.63474	129.37353	252.2377	957.68959	825.87505	637.91728	409.27601	490.64301	0
783	-151.34262	59.39791	209.11319	45.56552	-180.63474	134.25555	249.79669	960.1306	833.19808	647.68132	421.48106	500.40705	0
784	-163.54767	59.39791	221.31824	50.44754	-192.83979	139.13757	252.2377	967.45363	845.40313	662.32738	436.12712	517.49412	0
785	-165.98868	64.27993	228.64127	50.44754	-197.72181	146.4606	249.79669	969.89464	850.28515	672.09142	445.89116	505.28907	0
786	-158.66565	71.60296	228.64127	43.12451	-192.83979	148.90161	249.79669	972.33565	855.16717	679.41445	450.77318	512.6121	0
787	-156.22464	76.48498	231.08228	38.24249	-192.83979	153.78363	247.35568	972.33565	860.04919	686.73748	458.09621	527.25816	0
788	-151.34262	81.367	231.08228	33.36047	-190.39878	156.22464	244.91467	969.89464	864.93121	698.94253	465.41924	544.34523	0
789	-156.22464	83.80801	238.40531	35.80148	-197.72181	161.10666	244.91467	972.33565	872.25424	708.70657	480.0653	556.55028	0
790	-151.34262	91.13104	240.84632	28.47845	-195.2808	165.98868	240.03265	969.89464	877.13626	713.58859	489.82934	563.87331	0
791	-151.34262	96.01306	245.72834	26.03744	-197.72181	170.8707	240.03265	967.45363	879.57727	718.47061	502.03439	588.28341	0
792	-148.90161	103.33609	250.61036	21.15542	-200.16282	175.75272	235.15063	965.01262	882.01828	725.79364	511.79843	605.37048	0
793	-141.57858	108.21811	248.16935	16.2734	-195.2808	178.19373	230.26861	960.1306	879.57727	728.23465	519.12146	607.81149	0
794	-141.57858	113.10013	253.05137	13.83239	-197.72181	183.07575	225.38659	952.80757	879.57727	730.67566	526.44449	612.69351	0
795	-141.57858	115.54114	255.49238	11.39138	-197.72181	185.51676	220.50457	945.48454	877.13626	733.11667	531.32651	595.60644	0
796	-139.13757	120.42316	257.93339	8.95037	-197.72181	187.95777	218.06356	940.60252	877.13626	733.11667	531.32651	595.60644	0
797	-134.25555	125.30518	257.93339	3.25468	-195.2808	190.39878	213.18154	930.83848	872.25424	733.11667	531.32651	602.92947	0
798	-126.93252	127.74619	253.05137	-1.62734	-190.39878	190.39878	205.85851	918.63343	864.93121	733.11667	531.32651	610.2525	0
799	-126.93252	127.74619	253.05137	-1.62734	-190.39878	190.39878	198.53548	906.42838	860.04919	728.23465	531.32651	607.81149	0
800	-124.49151	127.74619	250.61036	-1.62734	-187.95777	187.95777	188.77144	889.34131	850.28515	720.91162	531.32651	605.37048	0
801	-124.49151	132.62821	255.49238	-4.06835	-190.39878	192.83979	186.33043	879.57727	842.96212	716.0296	533.76752	622.45755	0
802	-124.49151	139.95124	262.81541	-8.95037	-192.83979	200.16282	181.44841	872.25424	835.63909	711.14758	538.64954	632.22159	0
803	-119.60949	144.83326	262.81541	-13.83239	-190.39878	202.60383	174.12538	855.16717	823.43404	703.82455	538.64954	634.6626	0
804	-119.60949	147.27427	265.25642	-13.83239	-192.83979	205.04484	166.80235	840.52111	811.22899	698.94253	538.64954	639.54462	0
805	-119.60949	152.15629	270.13844	-16.2734	-195.2808	209.92686	161.92033	823.43404	799.02394	694.06051	538.64954	620.01654	0
806	-126.93252	152.15629	277.46147	-13.83239	-202.60383	214.80888	159.47932	808.78798	789.2599	689.17849	536.20853	620.01654	0
807	-134.25555	157.03831	289.66652	-11.39138	-212.36787	222.13191	154.5973	791.70091	779.49586	681.85546	531.32651	629.78058	0
808	-131.81454	159.47932	289.66652	-13.83239	-209.92686	224.57292	147.27427	772.17283	767.29081	674.53243	528.8855	634.6626	0
809	-124.49151	161.92033	284.7845	-18.71441	-205.04484	222.13191	137.51023	747.76273	750.20374	662.32738	516.68045	632.22159	0
810	-122.0505	161.92033	282.34349	-21.15542	-202.60383	222.13191	127.74619	723.35263	730.67566	647.68132	504.4754	627.33957	0
811	-129.37353	161.92033	289.66652	-16.2734	-209.92686	224.57292	120.42316	701.38354	713.58859	633.03526	497.15237	641.98563	0
812	-134.25555	166.80235	299.43056	-16.2734	-217.24989	231.89595	113.10013	679.41445	696.50152	618.3892	489.82934	646.86765	0
813	-124.49151	169.24336	292.10753	-23.59643	-207.48585	229.45494	100.89508	652.56334	674.53243	598.86112	477.62429	639.54462	0
814	-117.16848	166.80235	282.34349	-26.03744	-200.16282	224.57292	86.24902	645.24031	655.00435	576.89203	465.41924	632.22159	0
815	-112.28646	166.80235	277.46147	-28.47845	-195.2808	222.13191	74.04397	628.15324	633.03526	554.92294	450.77318	602.92947	0
816	-119.60949	166.80235	284.7845	-23.59643	-202.60383	224.57292	69.16195	584.21506	601.30213	532.95385	438.56813	595.60644	0
817	-131.81454	166.80235	296.98955	-18.71441	-214.80888	231.89595	64.27993	528.07183	562.24597	498.77971	423.92207	602.92947	0
818	-139.13757	161.92033	299.43056	-11.39138	-219.6909	229.45494	56.9569	518.30779	554.92294	491.45668	419.04005	607.81149	0
819	-136.69656	166.80235	301.87157	-16.2734	-219.6909	234.33696	43.93818	513.42577	552.48193	493.89769	399.51197	595.60644	0
820	-212.36787	157.03831	367.77884	26.03744	-290.48019	261.18807	31.73313	501.22072	540.27688	484.13365	406.835	729.86199	0
821	-185.51676	157.03831	340.92773	13.83239	-263.62908	248.98302	19.52808	454.84153	508.54375	454.84153	397.07096	698.12886	0
822	-122.0505	147.27427	267.69743	-13.83239	-195.2808	207.48585	4.88202	401.13931	449.95951	403.58032	384.86591	624.89856	0
823	-92.75838	147.27427	238.40531	-28.47845	-165.98868	192.83979	-9.76404	374.2882	413.34436	359.64214	362.89682	588.28341	0
824	-70.78929	159.47932	228.64127	-45.56552	-148.90161	192.83979	-29.29212	357.20113	376.72921	318.14497	345.80975	544.34523	0
825	10.57771	149.71528	138.3239	-79.73966	-63.46626	144.01959	-48.8202	313.26295	320.58598	262.00174	275.02046	493.08402	0
826	52.07488	147.27427	94.38572	-99.26774	-21.96909	122.0505	-68.34828	283.97083	293.73487	240.03265	238.40531	456.46887	0
827	86.24902	147.27427	60.21158	-116.35481	13.01872	104.96343	-82.99434	235.15063	252.2377	198.53548	204.23117	432.05877	0
828	120.42316	142.39225	21.15542	-131.00087	49.63387	82.99434	-100.08141	198.53548	213.18154	159.47932	172.49804	405.20766	0
829	157.03831	132.62821	-26.03744	-145.64693	91.13104	53.70222	-117.16848	166.80235	174.12538	127.74619	106.59077	373.47453	0
830	205.85851	132.62821	-74.85764	-170.05703	139.95124	29.29212	-129.37353	127.74619	144.83326	96.01306	79.73966	446.70483	0
831	171.68437	127.74619	-45.56552	-150.52895	108.21811	41.49717	-136.69656	98.45407	132.62821	86.24902	82.18067	385.67958	0
832	176.56639	120.42316	-57.77057	-148.08794	117.98215	31.73313	-146.4606	78.92599	98.45407	59.39791	89.5037	349.06443	0
833	225.38659	103.33609	-123.67784	-165.17501	174.12538	-10.57771	-153.78363	47.19286	61.83892	3.25468	65.0936	305.12625	0
834	235.15063	113.10013	-123.67784	-174.93905	179.0074	-5.69569	-158.66565	61.83892	52.07488	-13.83239	52.88855	290.48019	0
835	203.4175	96.01306	-109.03178	-150.52895	157.03831	-5.69569	-163.54767	44.75185	32.5468	-38.24249	16.2734	251.42403	0
836	213.18154	88.69003	-126.11885	-150.52895	169.24336	-17.90074	-165.98868	30.10579	3.25468	-61.02525	-8.1367	231.89595	0
837	222.94558	81.367	-143.20592	-152.96996	183.88942	-30.10579	-170.8707	15.45973	-16.2734	-75.67131	-34.98781	219.6909	0
838	222.94558	74.04397	-150.52895	-148.08794	186.33043	-37.42882	-173.31171	3.25468	-33.36047	-90.31737	-52.88855	207.48585	0
839	215.62255	69.16195	-148.08794	-143.20592	181.44841	-39.86983	-175.75272	-9.76404	-48.8202	-107.40444	-67.53461	197.72181	0
840	213.18154	61.83892	-152.96996	-138.3239	183.88942	-44.75185	-175.75272	-24.4101	-61.02525	-124.49151	-84.62168	192.83979	0
841	208.29952	56.9569	-152.96996	-133.44188	181.44841	-47.19286	-175.75272	-31.73313	-73.2303	-141.57858	-99.26774	200.16282	0
842	210.74053	54.51589	-157.85198	-133.44188	183.88942	-52.07488	-175.75272	-41.49717	-87.87636	-156.22464	-111.47279	197.72181	0
843	213.18154	49.63387	-165.17501	-131.00087	188.77144	-56.9569	-178.19373	-51.26121	-100.08141	-170.8707	-126.11885	183.07575	0
844	215.62255	42.31084	-174.93905	-128.55986	196.09447	-66.72094	-180.63474	-63.46626	-114.72747	-187.95777	-138.3239	165.98868	0
845	208.29952	34.98781	-174.93905	-121.23683	191.21245	-69.16195	-180.63474	-68.34828	-124.49151	-200.16282	-150.52895	134.25555	0
846	200.97649	30.10579	-172.49804	-116.35481	186.33043	-71.60296	-175.75272	-70.78929	-134.25555	-209.92686	-162.734	114.72747	0
847	203.4175	22.78276	-182.26208	-113.9138	193.65346	-78.92599	-175.75272	-80.55333	-148.90161	-224.57292	-182.26208	102.52242	0
848	205.85851	17.90074	-189.58511	-111.47279	198.53548	-86.24902	-175.75272	-87.87636	-161.10666	-234.33696	-194.46713	90.31737	0
849	203.4175	13.01872	-192.02612	-109.03178	198.53548	-88.69003	-175.75272	-92.75838	-168.42969	-244.101	-204.23117	78.11232	0
850	200.97649	8.1367	-194.46713	-104.14976	198.53548	-93.57205	-178.19373	-100.08141	-178.19373	-253.86504	-211.5542	70.78929	0
851	198.53548	3.25468	-196.90814	-101.70875	198.53548	-96.01306	-178.19373	-104.96343	-185.51676	-263.62908	-221.31824	78.11232	0
852	193.65346	3.25468	-192.02612	-99.26774	193.65346	-93.57205	-175.75272	-104.96343	-190.39878	-270.95211	-226.20026	75.67131	0
853	191.21245	0.81367	-192.02612	-96.82673	191.21245	-96.01306	-175.75272	-107.40444	-197.72181	-275.83413	-233.52329	68.34828	0
854	191.21245	-4.88202	-196.90814	-94.38572	193.65346	-100.89508	-173.31171	-109.84545	-202.60383	-283.15716	-238.40531	61.02525	0
855	191.21245	-4.88202	-196.90814	-94.38572	193.65346	-100.89508	-173.31171	-112.28646	-207.48585	-290.48019	-245.72834	34.17414	0
856	188.77144	-9.76404	-199.34915	-89.5037	193.65346	-103.33609	-173.31171	-114.72747	-212.36787	-297.80322	-253.05137	18.71441	0
857	191.21245	-14.64606	-206.67218	-89.5037	198.53548	-110.65912	-173.31171	-119.60949	-219.6909	-305.12625	-262.81541	4.06835	0
858	188.77144	-17.08707	-206.67218	-87.06269	196.09447	-110.65912	-173.31171	-122.0505	-224.57292	-307.56726	-267.69743	-10.57771	0
859	188.77144	-21.96909	-211.5542	-84.62168	198.53548	-115.54114	-170.8707	-129.37353	-227.01393	-312.44928	-272.57945	-22.78276	0
860	188.77144	-21.96909	-211.5542	-84.62168	198.53548	-115.54114	-173.31171	-134.25555	-229.45494	-317.3313	-275.02046	-30.10579	0
861	183.88942	-26.85111	-211.5542	-79.73966	196.09447	-117.98215	-168.42969	-136.69656	-229.45494	-319.77231	-275.02046	-17.90074	0
862	176.56639	-29.29212	-206.67218	-74.85764	191.21245	-117.98215	-168.42969	-134.25555	-229.45494	-319.77231	-275.02046	-10.57771	0
863	171.68437	-31.73313	-204.23117	-69.97562	186.33043	-117.98215	-165.98868	-134.25555	-229.45494	-319.77231	-275.02046	-15.45973	0
864	169.24336	-31.73313	-201.79016	-69.97562	183.88942	-115.54114	-165.98868	-134.25555	-234.33696	-324.65433	-275.02046	-17.90074	0
865	157.03831	-36.61515	-194.46713	-60.21158	174.12538	-115.54114	-161.10666	-131.81454	-234.33696	-327.09534	-275.02046	-37.42882	0
866	154.5973	-36.61515	-192.02612	-60.21158	171.68437	-113.10013	-161.10666	-131.81454	-236.77797	-329.53635	-279.90248	-42.31084	0
867	164.36134	-39.05616	-204.23117	-62.65259	183.88942	-120.42316	-161.10666	-136.69656	-244.101	-336.85938	-287.22551	-37.42882	0
868	154.5973	-41.49717	-196.90814	-57.77057	174.12538	-117.98215	-161.10666	-136.69656	-246.54201	-336.85938	-287.22551	-34.98781	0
869	144.83326	-43.93818	-189.58511	-50.44754	166.80235	-115.54114	-161.10666	-139.13757	-246.54201	-336.85938	-287.22551	-27.66478	0
870	142.39225	-43.93818	-187.1441	-50.44754	164.36134	-115.54114	-161.10666	-141.57858	-246.54201	-336.85938	-287.22551	-25.22377	0
871	142.39225	-43.93818	-187.1441	-50.44754	164.36134	-115.54114	-158.66565	-141.57858	-248.98302	-336.85938	-287.22551	-8.1367	0
872	142.39225	-43.93818	-187.1441	-50.44754	164.36134	-115.54114	-158.66565	-141.57858	-248.98302	-336.85938	-287.22551	1.62734	0
873	144.83326	-41.49717	-187.1441	-52.88855	164.36134	-113.10013	-158.66565	-139.13757	-246.54201	-334.41837	-287.22551	1.62734	0
874	152.15629	-41.49717	-194.46713	-55.32956	171.68437	-117.98215	-161.10666	-139.13757	-246.54201	-334.41837	-287.22551	-5.69569	0
875	152.15629	-43.93818	-196.90814	-55.32956	174.12538	-120.42316	-161.10666	-139.13757	-246.54201	-334.41837	-287.22551	-30.10579	0
876	149.71528	-43.93818	-194.46713	-52.88855	171.68437	-117.98215	-156.22464	-136.69656	-246.54201	-334.41837	-289.66652	-39.86983	0
877	149.71528	-43.93818	-194.46713	-52.88855	171.68437	-117.98215	-153.78363	-136.69656	-246.54201	-334.41837	-292.10753	-37.42882	0
878	149.71528	-43.93818	-194.46713	-52.88855	171.68437	-117.98215	-153.78363	-136.69656	-246.54201	-334.41837	-292.10753	-34.98781	0
879	144.83326	-46.37919	-192.02612	-50.44754	166.80235	-117.98215	-153.78363	-139.13757	-248.98302	-334.41837	-292.10753	-27.66478	0
880	142.39225	-48.8202	-192.02612	-48.00653	166.80235	-120.42316	-156.22464	-144.01959	-251.42403	-334.41837	-292.10753	-20.34175	0
881	139.95124	-48.8202	-189.58511	-45.56552	164.36134	-117.98215	-153.78363	-148.90161	-251.42403	-334.41837	-289.66652	1.62734	0
882	142.39225	-46.37919	-189.58511	-48.00653	164.36134	-117.98215	-153.78363	-148.90161	-251.42403	-331.97736	-287.22551	18.71441	0
883	132.62821	-46.37919	-179.82107	-43.12451	154.5973	-113.10013	-151.34262	-148.90161	-248.98302	-329.53635	-282.34349	21.15542	0
884	127.74619	-48.8202	-177.38006	-40.6835	152.15629	-113.10013	-148.90161	-148.90161	-246.54201	-327.09534	-277.46147	21.15542	0
885	125.30518	-48.8202	-174.93905	-38.24249	149.71528	-110.65912	-148.90161	-148.90161	-246.54201	-324.65433	-277.46147	-0.81367	0
886	127.74619	-48.8202	-177.38006	-40.6835	152.15629	-113.10013	-148.90161	-146.4606	-246.54201	-324.65433	-282.34349	-15.45973	0
887	127.74619	-51.26121	-179.82107	-38.24249	152.15629	-115.54114	-146.4606	-146.4606	-244.101	-322.21332	-282.34349	-20.34175	0
888	135.06922	-51.26121	-187.1441	-43.12451	159.47932	-117.98215	-146.4606	-146.4606	-241.65999	-322.21332	-284.7845	-25.22377	0
889	135.06922	-51.26121	-187.1441	-43.12451	159.47932	-117.98215	-146.4606	-146.4606	-236.77797	-319.77231	-287.22551	-27.66478	0
890	127.74619	-56.14323	-184.70309	-35.80148	154.5973	-120.42316	-146.4606	-146.4606	-236.77797	-319.77231	-284.7845	-25.22377	0
891	127.74619	-56.14323	-184.70309	-35.80148	154.5973	-120.42316	-146.4606	-146.4606	-236.77797	-322.21332	-284.7845	-5.69569	0
892	130.1872	-56.14323	-187.1441	-38.24249	157.03831	-120.42316	-146.4606	-146.4606	-239.21898	-322.21332	-282.34349	11.39138	0
893	130.1872	-56.14323	-187.1441	-38.24249	157.03831	-120.42316	-144.01959	-144.01959	-239.21898	-322.21332	-279.90248	18.71441	0
894	125.30518	-56.14323	-182.26208	-35.80148	152.15629	-117.98215	-144.01959	-144.01959	-236.77797	-319.77231	-277.46147	21.15542	0
895	122.86417	-58.58424	-182.26208	-33.36047	152.15629	-120.42316	-144.01959	-144.01959	-236.77797	-319.77231	-277.46147	6.50936	0
896	120.42316	-58.58424	-179.82107	-30.91946	149.71528	-117.98215	-139.13757	-139.13757	-234.33696	-319.77231	-277.46147	-5.69569	0
897	115.54114	-58.58424	-174.93905	-28.47845	144.83326	-115.54114	-134.25555	-136.69656	-231.89595	-317.3313	-277.46147	-5.69569	0
898	113.10013	-61.02525	-174.93905	-26.03744	142.39225	-117.98215	-131.81454	-134.25555	-229.45494	-312.44928	-279.90248	-10.57771	0
899	103.33609	-61.02525	-165.17501	-21.15542	132.62821	-113.10013	-126.93252	-129.37353	-224.57292	-307.56726	-275.02046	-10.57771	0
900	100.89508	-61.02525	-162.734	-21.15542	130.1872	-110.65912	-126.93252	-129.37353	-222.13191	-307.56726	-275.02046	-13.01872	0
901	108.21811	-61.02525	-170.05703	-23.59643	137.51023	-115.54114	-126.93252	-129.37353	-222.13191	-307.56726	-275.02046	1.62734	0
902	110.65912	-61.02525	-172.49804	-26.03744	139.95124	-115.54114	-124.49151	-124.49151	-222.13191	-307.56726	-275.02046	11.39138	0
903	110.65912	-61.02525	-172.49804	-26.03744	139.95124	-115.54114	-124.49151	-119.60949	-222.13191	-307.56726	-275.02046	13.83239	0
904	113.10013	-58.58424	-172.49804	-28.47845	142.39225	-115.54114	-122.0505	-119.60949	-222.13191	-307.56726	-272.57945	13.83239	0
905	113.10013	-56.14323	-170.05703	-28.47845	139.95124	-113.10013	-122.0505	-117.16848	-222.13191	-310.00827	-275.02046	-8.1367	0
906	117.98215	-56.14323	-174.93905	-30.91946	144.83326	-115.54114	-119.60949	-114.72747	-224.57292	-310.00827	-277.46147	-17.90074	0
907	115.54114	-56.14323	-172.49804	-30.91946	142.39225	-113.10013	-119.60949	-114.72747	-224.57292	-312.44928	-282.34349	-17.90074	0
908	117.98215	-56.14323	-174.93905	-30.91946	144.83326	-115.54114	-119.60949	-112.28646	-224.57292	-312.44928	-284.7845	-17.90074	0
909	113.10013	-58.58424	-172.49804	-28.47845	142.39225	-115.54114	-119.60949	-109.84545	-222.13191	-310.00827	-284.7845	-13.01872	0
910	110.65912	-56.14323	-167.61602	-28.47845	137.51023	-110.65912	-117.16848	-107.40444	-219.6909	-310.00827	-284.7845	-5.69569	0
911	105.7771	-53.70222	-160.29299	-26.03744	132.62821	-105.7771	-114.72747	-102.52242	-217.24989	-310.00827	-284.7845	16.2734	0
912	103.33609	-53.70222	-157.85198	-26.03744	130.1872	-105.7771	-114.72747	-95.19939	-214.80888	-310.00827	-282.34349	24.4101	0
913	96.01306	-51.26121	-148.08794	-23.59643	120.42316	-98.45407	-112.28646	-90.31737	-214.80888	-310.00827	-279.90248	26.85111	0
914	96.01306	-51.26121	-148.08794	-23.59643	120.42316	-98.45407	-112.28646	-87.87636	-214.80888	-310.00827	-275.02046	26.85111	0
915	93.57205	-48.8202	-143.20592	-23.59643	117.98215	-96.01306	-109.84545	-85.43535	-214.80888	-310.00827	-275.02046	6.50936	0
916	98.45407	-48.8202	-148.08794	-26.03744	122.86417	-98.45407	-109.84545	-85.43535	-217.24989	-312.44928	-275.02046	-10.57771	0
917	98.45407	-46.37919	-145.64693	-26.03744	120.42316	-96.01306	-109.84545	-85.43535	-217.24989	-310.00827	-275.02046	-10.57771	0
918	91.13104	-48.8202	-140.76491	-21.15542	115.54114	-93.57205	-109.84545	-90.31737	-217.24989	-307.56726	-275.02046	-13.01872	0
919	91.13104	-51.26121	-143.20592	-21.15542	115.54114	-96.01306	-114.72747	-95.19939	-217.24989	-307.56726	-272.57945	-17.90074	0
920	98.45407	-51.26121	-150.52895	-23.59643	122.86417	-100.89508	-117.16848	-100.08141	-219.6909	-310.00827	-272.57945	-17.90074	0
921	98.45407	-51.26121	-150.52895	-23.59643	122.86417	-100.89508	-117.16848	-102.52242	-219.6909	-310.00827	-267.69743	-0.81367	0
922	93.57205	-51.26121	-145.64693	-21.15542	117.98215	-98.45407	-117.16848	-102.52242	-219.6909	-307.56726	-265.25642	11.39138	0
923	93.57205	-51.26121	-145.64693	-21.15542	117.98215	-98.45407	-117.16848	-100.08141	-219.6909	-305.12625	-260.3744	11.39138	0
924	91.13104	-53.70222	-145.64693	-18.71441	117.98215	-98.45407	-117.16848	-100.08141	-222.13191	-302.68524	-257.93339	13.83239	0
925	88.69003	-51.26121	-140.76491	-18.71441	113.10013	-96.01306	-117.16848	-100.08141	-219.6909	-297.80322	-253.05137	-3.25468	0
926	88.69003	-46.37919	-135.88289	-21.15542	110.65912	-91.13104	-117.16848	-97.6404	-217.24989	-292.9212	-248.16935	-13.01872	0
927	88.69003	-41.49717	-131.00087	-23.59643	108.21811	-86.24902	-112.28646	-95.19939	-217.24989	-288.03918	-245.72834	-15.45973	0
928	81.367	-41.49717	-123.67784	-21.15542	100.89508	-81.367	-107.40444	-92.75838	-214.80888	-280.71615	-243.28733	-17.90074	0
929	81.367	-41.49717	-123.67784	-21.15542	100.89508	-81.367	-107.40444	-95.19939	-214.80888	-278.27514	-240.84632	-22.78276	0
930	74.04397	-43.93818	-118.79582	-16.2734	96.01306	-81.367	-104.96343	-95.19939	-212.36787	-273.39312	-235.9643	-22.78276	0
931	81.367	-43.93818	-126.11885	-18.71441	103.33609	-83.80801	-104.96343	-102.52242	-214.80888	-273.39312	-235.9643	-10.57771	0
932	83.80801	-41.49717	-126.11885	-21.15542	103.33609	-83.80801	-104.96343	-102.52242	-214.80888	-270.95211	-233.52329	-3.25468	0
933	78.92599	-41.49717	-121.23683	-18.71441	98.45407	-81.367	-100.08141	-104.96343	-212.36787	-270.95211	-231.08228	1.62734	0
934	76.48498	-41.49717	-118.79582	-18.71441	96.01306	-78.92599	-100.08141	-107.40444	-212.36787	-268.5111	-231.08228	6.50936	0
935	71.60296	-43.93818	-116.35481	-13.83239	93.57205	-78.92599	-100.08141	-107.40444	-212.36787	-270.95211	-231.08228	-10.57771	0
936	74.04397	-43.93818	-118.79582	-16.2734	96.01306	-81.367	-102.52242	-109.84545	-212.36787	-273.39312	-231.08228	-17.90074	0
937	74.04397	-46.37919	-121.23683	-13.83239	96.01306	-83.80801	-102.52242	-114.72747	-212.36787	-273.39312	-228.64127	-13.01872	0
938	78.92599	-46.37919	-126.11885	-16.2734	100.89508	-86.24902	-102.52242	-117.16848	-212.36787	-273.39312	-228.64127	-10.57771	0
939	88.69003	-43.93818	-133.44188	-23.59643	110.65912	-88.69003	-104.96343	-119.60949	-209.92686	-273.39312	-226.20026	-10.57771	0
940	83.80801	-43.93818	-128.55986	-21.15542	105.7771	-86.24902	-104.96343	-122.0505	-207.48585	-270.95211	-221.31824	-5.69569	0
941	81.367	-43.93818	-126.11885	-18.71441	103.33609	-83.80801	-104.96343	-122.0505	-205.04484	-270.95211	-218.87723	11.39138	0
942	81.367	-43.93818	-126.11885	-18.71441	103.33609	-83.80801	-104.96343	-124.49151	-205.04484	-268.5111	-216.43622	18.71441	0
943	78.92599	-46.37919	-126.11885	-16.2734	100.89508	-86.24902	-104.96343	-126.93252	-202.60383	-266.07009	-213.99521	21.15542	0
944	74.04397	-46.37919	-121.23683	-13.83239	96.01306	-83.80801	-102.52242	-126.93252	-202.60383	-263.62908	-209.11319	24.4101	0
945	69.16195	-46.37919	-116.35481	-11.39138	91.13104	-81.367	-100.08141	-126.93252	-200.16282	-261.18807	-206.67218	11.39138	0
946	61.83892	-46.37919	-109.03178	-8.95037	83.80801	-76.48498	-97.6404	-122.0505	-197.72181	-256.30605	-201.79016	8.95037	0
947	49.63387	-48.8202	-99.26774	-1.62734	74.04397	-74.04397	-95.19939	-122.0505	-197.72181	-253.86504	-199.34915	13.83239	0
948	42.31084	-53.70222	-96.82673	3.25468	69.16195	-74.04397	-95.19939	-124.49151	-200.16282	-251.42403	-199.34915	16.2734	0
949	52.07488	-53.70222	-106.59077	0.81367	78.92599	-78.92599	-100.08141	-126.93252	-205.04484	-253.86504	-199.34915	8.95037	0
950	61.83892	-53.70222	-116.35481	-4.06835	88.69003	-83.80801	-100.08141	-129.37353	-207.48585	-258.74706	-199.34915	6.50936	0
951	66.72094	-51.26121	-118.79582	-8.95037	91.13104	-83.80801	-100.08141	-131.81454	-209.92686	-258.74706	-199.34915	16.2734	0
952	71.60296	-51.26121	-123.67784	-11.39138	96.01306	-86.24902	-100.08141	-131.81454	-212.36787	-258.74706	-199.34915	21.15542	0
953	74.04397	-48.8202	-123.67784	-13.83239	98.45407	-86.24902	-97.6404	-131.81454	-212.36787	-261.18807	-199.34915	21.15542	0
954	76.48498	-51.26121	-128.55986	-13.83239	100.89508	-88.69003	-97.6404	-134.25555	-217.24989	-266.07009	-201.79016	21.15542	0
955	88.69003	-51.26121	-140.76491	-18.71441	113.10013	-96.01306	-100.08141	-139.13757	-222.13191	-268.5111	-204.23117	8.95037	0
956	96.01306	-48.8202	-145.64693	-23.59643	120.42316	-96.01306	-100.08141	-139.13757	-222.13191	-268.5111	-206.67218	6.50936	0
