samplenr	I	II	III	aVR	aVL	aVF	V1	V2	V3	V4	V5	V6	measurement
0	56.14323	82.99434	26.85111	-69.16195	15.45973	56.14323	69.16195	149.71528	73.2303	17.90074	21.96909	25.22377	0
1	51.26121	75.67131	24.4101	-64.27993	15.45973	51.26121	69.16195	149.71528	70.78929	17.90074	21.96909	25.22377	0
2	46.37919	58.58424	12.20505	-52.07488	17.90074	36.61515	69.16195	149.71528	65.90727	17.90074	21.96909	25.22377	0
3	41.49717	43.93818	2.44101	-42.31084	20.34175	24.4101	69.16195	152.15629	58.58424	17.90074	24.4101	25.22377	0
4	36.61515	24.4101	-13.01872	-30.10579	25.22377	7.32303	64.27993	152.15629	53.70222	17.90074	24.4101	25.22377	0
5	36.61515	7.32303	-30.10579	-22.78276	34.98781	-10.57771	64.27993	154.5973	51.26121	17.90074	24.4101	25.22377	0
6	29.29212	-5.69569	-34.98781	-13.01872	32.5468	-20.34175	59.39791	154.5973	51.26121	17.90074	26.85111	22.78276	0
7	21.96909	-25.22377	-47.19286	-0.81367	34.98781	-34.98781	56.9569	157.03831	51.26121	17.90074	26.85111	20.34175	0
8	14.64606	-37.42882	-52.07488	9.76404	32.5468	-44.75185	52.07488	152.15629	48.8202	17.90074	24.4101	15.45973	0
9	7.32303	-47.19286	-54.51589	19.52808	30.10579	-49.63387	52.07488	149.71528	48.8202	17.90074	24.4101	13.01872	0
10	2.44101	-59.39791	-61.83892	26.85111	32.5468	-59.39791	52.07488	142.39225	48.8202	15.45973	19.52808	10.57771	0
11	-0.81367	-69.16195	-69.16195	34.17414	34.98781	-69.16195	54.51589	137.51023	51.26121	15.45973	19.52808	8.1367	0
12	-0.81367	-74.04397	-74.04397	36.61515	37.42882	-74.04397	56.9569	135.06922	53.70222	15.45973	19.52808	10.57771	0
13	4.88202	-74.04397	-78.92599	34.17414	42.31084	-76.48498	59.39791	135.06922	53.70222	15.45973	21.96909	10.57771	0
14	14.64606	-74.04397	-88.69003	29.29212	52.07488	-81.367	59.39791	135.06922	53.70222	15.45973	21.96909	10.57771	0
15	17.08707	-78.92599	-96.01306	29.29212	56.9569	-86.24902	59.39791	132.62821	53.70222	15.45973	21.96909	10.57771	0
16	17.08707	-83.80801	-100.89508	31.73313	59.39791	-91.13104	59.39791	127.74619	48.8202	15.45973	19.52808	10.57771	0
17	14.64606	-88.69003	-103.33609	36.61515	59.39791	-96.01306	54.51589	122.86417	46.37919	13.01872	19.52808	8.1367	0
18	9.76404	-93.57205	-103.33609	41.49717	56.9569	-98.45407	49.63387	117.98215	43.93818	10.57771	14.64606	3.25468	0
19	9.76404	-98.45407	-108.21811	43.93818	59.39791	-103.33609	47.19286	115.54114	41.49717	10.57771	14.64606	3.25468	0
20	4.88202	-100.89508	-105.7771	46.37919	54.51589	-103.33609	44.75185	110.65912	41.49717	10.57771	12.20505	3.25468	0
21	-0.81367	-103.33609	-103.33609	51.26121	52.07488	-103.33609	44.75185	105.7771	41.49717	10.57771	12.20505	3.25468	0
22	4.88202	-98.45407	-103.33609	46.37919	54.51589	-100.89508	47.19286	105.7771	43.93818	13.01872	14.64606	8.1367	0
23	9.76404	-93.57205	-103.33609	41.49717	56.9569	-98.45407	47.19286	108.21811	46.37919	15.45973	17.08707	10.57771	0
24	14.64606	-88.69003	-103.33609	36.61515	59.39791	-96.01306	47.19286	108.21811	46.37919	17.90074	17.08707	13.01872	0
25	14.64606	-88.69003	-103.33609	36.61515	59.39791	-96.01306	47.19286	108.21811	43.93818	17.90074	17.08707	15.45973	0
26	12.20505	-88.69003	-100.89508	36.61515	56.9569	-93.57205	47.19286	105.7771	41.49717	17.90074	17.08707	15.45973	0
27	9.76404	-91.13104	-100.89508	39.05616	54.51589	-96.01306	44.75185	100.89508	39.05616	15.45973	14.64606	15.45973	0
28	7.32303	-93.57205	-100.89508	41.49717	54.51589	-96.01306	39.86983	98.45407	31.73313	13.01872	9.76404	10.57771	0
29	-0.81367	-98.45407	-98.45407	48.8202	49.63387	-98.45407	34.98781	98.45407	26.85111	13.01872	7.32303	8.1367	0
30	-0.81367	-96.01306	-96.01306	46.37919	47.19286	-96.01306	32.5468	96.01306	26.85111	13.01872	7.32303	8.1367	0
31	2.44101	-93.57205	-96.01306	43.93818	49.63387	-93.57205	27.66478	96.01306	26.85111	13.01872	7.32303	8.1367	0
32	2.44101	-93.57205	-96.01306	43.93818	49.63387	-93.57205	22.78276	96.01306	21.96909	13.01872	4.88202	8.1367	0
33	4.88202	-91.13104	-96.01306	41.49717	49.63387	-93.57205	17.90074	96.01306	21.96909	13.01872	4.88202	8.1367	0
34	9.76404	-88.69003	-98.45407	39.05616	54.51589	-93.57205	17.90074	103.33609	26.85111	15.45973	7.32303	10.57771	0
35	12.20505	-88.69003	-100.89508	36.61515	56.9569	-93.57205	20.34175	105.7771	31.73313	17.90074	9.76404	13.01872	0
36	12.20505	-88.69003	-100.89508	36.61515	56.9569	-93.57205	22.78276	108.21811	36.61515	20.34175	12.20505	13.01872	0
37	9.76404	-91.13104	-100.89508	39.05616	54.51589	-96.01306	25.22377	108.21811	39.05616	20.34175	14.64606	15.45973	0
38	7.32303	-93.57205	-100.89508	41.49717	54.51589	-96.01306	27.66478	110.65912	43.93818	20.34175	14.64606	17.90074	0
39	7.32303	-93.57205	-100.89508	41.49717	54.51589	-96.01306	30.10579	115.54114	46.37919	22.78276	17.08707	20.34175	0
40	4.88202	-96.01306	-100.89508	43.93818	52.07488	-98.45407	30.10579	115.54114	46.37919	25.22377	17.08707	20.34175	0
41	2.44101	-100.89508	-103.33609	48.8202	52.07488	-100.89508	30.10579	115.54114	46.37919	22.78276	14.64606	20.34175	0
42	2.44101	-100.89508	-103.33609	48.8202	52.07488	-100.89508	30.10579	115.54114	43.93818	22.78276	12.20505	20.34175	0
43	2.44101	-103.33609	-105.7771	48.8202	54.51589	-103.33609	30.10579	117.98215	41.49717	20.34175	12.20505	17.90074	0
44	-0.81367	-103.33609	-103.33609	51.26121	52.07488	-103.33609	34.98781	122.86417	39.05616	20.34175	12.20505	17.90074	0
45	-0.81367	-105.7771	-105.7771	51.26121	52.07488	-105.7771	37.42882	127.74619	39.05616	20.34175	14.64606	17.90074	0
46	-3.25468	-108.21811	-105.7771	53.70222	52.07488	-108.21811	37.42882	127.74619	39.05616	22.78276	14.64606	20.34175	0
47	-3.25468	-110.65912	-108.21811	56.14323	52.07488	-110.65912	39.86983	127.74619	39.05616	20.34175	14.64606	20.34175	0
48	-0.81367	-103.33609	-103.33609	51.26121	52.07488	-103.33609	42.31084	130.1872	39.05616	20.34175	14.64606	20.34175	0
49	-0.81367	-100.89508	-100.89508	48.8202	49.63387	-100.89508	44.75185	132.62821	41.49717	22.78276	14.64606	20.34175	0
50	-3.25468	-103.33609	-100.89508	51.26121	49.63387	-103.33609	42.31084	132.62821	41.49717	22.78276	14.64606	20.34175	0
51	-5.69569	-105.7771	-100.89508	53.70222	47.19286	-103.33609	42.31084	132.62821	41.49717	22.78276	14.64606	17.90074	0
52	-5.69569	-105.7771	-100.89508	53.70222	47.19286	-103.33609	42.31084	132.62821	43.93818	20.34175	9.76404	13.01872	0
53	-5.69569	-108.21811	-103.33609	56.14323	49.63387	-105.7771	42.31084	137.51023	43.93818	20.34175	9.76404	10.57771	0
54	-10.57771	-115.54114	-105.7771	61.02525	47.19286	-110.65912	42.31084	139.95124	46.37919	17.90074	7.32303	8.1367	0
55	-13.01872	-122.86417	-110.65912	65.90727	49.63387	-117.98215	44.75185	139.95124	46.37919	17.90074	7.32303	5.69569	0
56	-13.01872	-122.86417	-110.65912	65.90727	49.63387	-117.98215	44.75185	142.39225	48.8202	17.90074	7.32303	5.69569	0
57	-13.01872	-122.86417	-110.65912	65.90727	49.63387	-117.98215	47.19286	142.39225	51.26121	17.90074	7.32303	5.69569	0
58	-10.57771	-120.42316	-110.65912	63.46626	49.63387	-115.54114	49.63387	142.39225	51.26121	17.90074	7.32303	5.69569	0
59	-5.69569	-115.54114	-110.65912	58.58424	52.07488	-113.10013	52.07488	144.83326	51.26121	20.34175	9.76404	8.1367	0
60	-0.81367	-105.7771	-105.7771	51.26121	52.07488	-105.7771	54.51589	144.83326	51.26121	22.78276	12.20505	8.1367	0
61	7.32303	-100.89508	-108.21811	46.37919	56.9569	-103.33609	54.51589	144.83326	51.26121	25.22377	12.20505	10.57771	0
62	14.64606	-96.01306	-110.65912	39.05616	61.83892	-103.33609	54.51589	144.83326	48.8202	25.22377	14.64606	13.01872	0
63	17.08707	-93.57205	-110.65912	36.61515	64.27993	-100.89508	52.07488	149.71528	48.8202	25.22377	14.64606	13.01872	0
64	21.96909	-86.24902	-108.21811	31.73313	64.27993	-96.01306	52.07488	152.15629	48.8202	25.22377	17.08707	13.01872	0
65	24.4101	-86.24902	-110.65912	29.29212	66.72094	-98.45407	49.63387	152.15629	48.8202	25.22377	19.52808	15.45973	0
66	19.52808	-91.13104	-110.65912	34.17414	64.27993	-100.89508	49.63387	152.15629	48.8202	25.22377	19.52808	17.90074	0
67	12.20505	-96.01306	-108.21811	41.49717	59.39791	-100.89508	49.63387	149.71528	51.26121	27.66478	21.96909	17.90074	0
68	9.76404	-96.01306	-105.7771	41.49717	56.9569	-100.89508	44.75185	149.71528	53.70222	30.10579	21.96909	20.34175	0
69	9.76404	-96.01306	-105.7771	41.49717	56.9569	-100.89508	42.31084	149.71528	56.14323	30.10579	24.4101	20.34175	0
70	12.20505	-96.01306	-108.21811	41.49717	59.39791	-100.89508	44.75185	144.83326	56.14323	30.10579	21.96909	22.78276	0
71	7.32303	-100.89508	-108.21811	46.37919	56.9569	-103.33609	42.31084	139.95124	56.14323	27.66478	19.52808	22.78276	0
72	9.76404	-105.7771	-115.54114	46.37919	61.83892	-110.65912	39.86983	139.95124	56.14323	27.66478	14.64606	20.34175	0
73	14.64606	-105.7771	-120.42316	43.93818	66.72094	-113.10013	34.98781	137.51023	53.70222	25.22377	12.20505	20.34175	0
74	17.08707	-103.33609	-120.42316	41.49717	69.16195	-110.65912	34.98781	139.95124	53.70222	22.78276	9.76404	20.34175	0
75	17.08707	-105.7771	-122.86417	43.93818	69.16195	-113.10013	32.5468	139.95124	48.8202	22.78276	9.76404	20.34175	0
76	17.08707	-108.21811	-125.30518	43.93818	71.60296	-115.54114	25.22377	135.06922	46.37919	20.34175	7.32303	20.34175	0
77	17.08707	-105.7771	-122.86417	43.93818	69.16195	-113.10013	20.34175	132.62821	43.93818	20.34175	7.32303	22.78276	0
78	17.08707	-100.89508	-117.98215	41.49717	66.72094	-108.21811	17.90074	132.62821	46.37919	22.78276	9.76404	25.22377	0
79	14.64606	-96.01306	-110.65912	39.05616	61.83892	-103.33609	13.01872	132.62821	43.93818	22.78276	7.32303	27.66478	0
80	19.52808	-91.13104	-110.65912	34.17414	64.27993	-100.89508	10.57771	125.30518	41.49717	20.34175	4.88202	27.66478	0
81	21.96909	-91.13104	-113.10013	34.17414	66.72094	-100.89508	8.1367	122.86417	41.49717	20.34175	4.88202	27.66478	0
82	21.96909	-91.13104	-113.10013	34.17414	66.72094	-100.89508	5.69569	117.98215	41.49717	17.90074	4.88202	27.66478	0
83	17.08707	-96.01306	-113.10013	39.05616	64.27993	-103.33609	3.25468	117.98215	41.49717	17.90074	1.62734	27.66478	0
84	14.64606	-100.89508	-115.54114	41.49717	64.27993	-108.21811	0.81367	115.54114	39.05616	15.45973	1.62734	27.66478	0
85	14.64606	-103.33609	-117.98215	43.93818	66.72094	-110.65912	-2.44101	113.10013	39.05616	15.45973	1.62734	25.22377	0
86	12.20505	-105.7771	-117.98215	46.37919	64.27993	-110.65912	0.81367	110.65912	39.05616	17.90074	1.62734	25.22377	0
87	12.20505	-103.33609	-115.54114	43.93818	64.27993	-108.21811	3.25468	105.7771	39.05616	17.90074	1.62734	25.22377	0
88	9.76404	-98.45407	-108.21811	43.93818	59.39791	-103.33609	5.69569	103.33609	39.05616	17.90074	1.62734	25.22377	0
89	9.76404	-98.45407	-108.21811	43.93818	59.39791	-103.33609	10.57771	103.33609	39.05616	15.45973	1.62734	25.22377	0
90	14.64606	-98.45407	-113.10013	41.49717	64.27993	-105.7771	8.1367	96.01306	36.61515	13.01872	1.62734	22.78276	0
91	14.64606	-100.89508	-115.54114	41.49717	64.27993	-108.21811	5.69569	93.57205	34.17414	13.01872	1.62734	20.34175	0
92	14.64606	-105.7771	-120.42316	43.93818	66.72094	-113.10013	3.25468	88.69003	34.17414	13.01872	1.62734	17.90074	0
93	12.20505	-113.10013	-125.30518	48.8202	69.16195	-117.98215	-2.44101	88.69003	29.29212	13.01872	1.62734	15.45973	0
94	9.76404	-122.86417	-132.62821	56.14323	71.60296	-127.74619	-7.32303	88.69003	26.85111	10.57771	1.62734	10.57771	0
95	7.32303	-135.06922	-142.39225	63.46626	74.04397	-137.51023	-14.64606	86.24902	21.96909	8.1367	1.62734	3.25468	0
96	4.88202	-139.95124	-144.83326	65.90727	74.04397	-142.39225	-21.96909	81.367	19.52808	8.1367	-0.81367	0	0
97	2.44101	-139.95124	-142.39225	68.34828	71.60296	-139.95124	-21.96909	81.367	17.08707	8.1367	-0.81367	-2.44101	0
98	2.44101	-137.51023	-139.95124	65.90727	71.60296	-137.51023	-21.96909	81.367	17.08707	8.1367	1.62734	-4.88202	0
99	2.44101	-137.51023	-139.95124	65.90727	71.60296	-137.51023	-19.52808	83.80801	17.08707	10.57771	1.62734	-4.88202	0
100	4.88202	-130.1872	-135.06922	61.02525	69.16195	-132.62821	-19.52808	81.367	17.08707	10.57771	4.88202	-7.32303	1000	P+0
101	9.76404	-130.1872	-139.95124	58.58424	74.04397	-135.06922	-19.52808	81.367	19.52808	10.57771	7.32303	-7.32303	0
102	12.20505	-122.86417	-135.06922	53.70222	74.04397	-127.74619	-19.52808	81.367	21.96909	10.57771	9.76404	-7.32303	0
103	21.96909	-117.98215	-139.95124	46.37919	81.367	-127.74619	-19.52808	83.80801	21.96909	13.01872	12.20505	-4.88202	0
104	26.85111	-120.42316	-147.27427	46.37919	86.24902	-132.62821	-21.96909	86.24902	21.96909	10.57771	12.20505	-9.76404	0
105	26.85111	-125.30518	-152.15629	48.8202	88.69003	-137.51023	-26.85111	83.80801	21.96909	10.57771	9.76404	-12.20505	0
106	29.29212	-122.86417	-152.15629	46.37919	91.13104	-137.51023	-31.73313	81.367	19.52808	10.57771	9.76404	-14.64606	0
107	34.17414	-117.98215	-152.15629	41.49717	93.57205	-135.06922	-36.61515	78.92599	17.08707	10.57771	9.76404	-14.64606	0
108	39.05616	-115.54114	-154.5973	36.61515	96.01306	-135.06922	-41.49717	76.48498	12.20505	10.57771	9.76404	-14.64606	0
109	41.49717	-115.54114	-157.03831	36.61515	98.45407	-135.06922	-46.37919	76.48498	4.88202	8.1367	9.76404	-17.08707	0
110	39.05616	-115.54114	-154.5973	36.61515	96.01306	-135.06922	-53.70222	71.60296	1.62734	5.69569	7.32303	-19.52808	0
111	41.49717	-117.98215	-159.47932	36.61515	100.89508	-137.51023	-58.58424	71.60296	-3.25468	2.44101	4.88202	-21.96909	0
112	46.37919	-110.65912	-157.03831	31.73313	100.89508	-132.62821	-61.02525	69.16195	-3.25468	2.44101	4.88202	-21.96909	0
113	43.93818	-110.65912	-154.5973	31.73313	98.45407	-132.62821	-63.46626	69.16195	-3.25468	2.44101	4.88202	-21.96909	0
114	43.93818	-108.21811	-152.15629	31.73313	98.45407	-130.1872	-65.90727	71.60296	1.62734	2.44101	1.62734	-21.96909	0
115	43.93818	-105.7771	-149.71528	29.29212	96.01306	-127.74619	-65.90727	71.60296	7.32303	2.44101	4.88202	-19.52808	0
116	43.93818	-105.7771	-149.71528	29.29212	96.01306	-127.74619	-65.90727	71.60296	12.20505	8.1367	7.32303	-14.64606	0
117	43.93818	-108.21811	-152.15629	31.73313	98.45407	-130.1872	-65.90727	71.60296	17.08707	13.01872	9.76404	-12.20505	0
118	39.05616	-113.10013	-152.15629	36.61515	96.01306	-132.62821	-63.46626	71.60296	21.96909	15.45973	9.76404	-12.20505	0
119	39.05616	-117.98215	-157.03831	39.05616	98.45407	-137.51023	-63.46626	74.04397	24.4101	15.45973	9.76404	-12.20505	0
120	41.49717	-120.42316	-161.92033	39.05616	100.89508	-139.95124	-63.46626	74.04397	26.85111	15.45973	9.76404	-12.20505	0
121	41.49717	-125.30518	-166.80235	41.49717	103.33609	-144.83326	-63.46626	74.04397	26.85111	13.01872	7.32303	-12.20505	0
122	41.49717	-125.30518	-166.80235	41.49717	103.33609	-144.83326	-63.46626	74.04397	26.85111	13.01872	4.88202	-14.64606	0
123	41.49717	-122.86417	-164.36134	39.05616	103.33609	-142.39225	-63.46626	76.48498	26.85111	13.01872	7.32303	-12.20505	0
124	41.49717	-120.42316	-161.92033	39.05616	100.89508	-139.95124	-63.46626	76.48498	26.85111	10.57771	7.32303	-12.20505	0
125	36.61515	-125.30518	-161.92033	43.93818	98.45407	-142.39225	-65.90727	74.04397	26.85111	8.1367	4.88202	-12.20505	0
126	31.73313	-130.1872	-161.92033	48.8202	96.01306	-144.83326	-65.90727	69.16195	26.85111	5.69569	1.62734	-12.20505	0
127	29.29212	-132.62821	-161.92033	51.26121	96.01306	-147.27427	-65.90727	64.27993	26.85111	5.69569	1.62734	-12.20505	0
128	26.85111	-132.62821	-159.47932	51.26121	93.57205	-144.83326	-63.46626	61.83892	29.29212	5.69569	1.62734	-9.76404	0
129	26.85111	-132.62821	-159.47932	51.26121	93.57205	-144.83326	-63.46626	61.83892	31.73313	5.69569	1.62734	-9.76404	0
130	29.29212	-130.1872	-159.47932	48.8202	93.57205	-144.83326	-63.46626	61.83892	31.73313	5.69569	1.62734	-7.32303	0
131	34.17414	-125.30518	-159.47932	43.93818	96.01306	-142.39225	-61.02525	61.83892	34.17414	5.69569	4.88202	-7.32303	0
132	39.05616	-122.86417	-161.92033	41.49717	100.89508	-142.39225	-61.02525	59.39791	34.17414	5.69569	4.88202	-7.32303	0
133	36.61515	-125.30518	-161.92033	43.93818	98.45407	-142.39225	-61.02525	59.39791	34.17414	5.69569	7.32303	-7.32303	0
134	34.17414	-125.30518	-159.47932	43.93818	96.01306	-142.39225	-61.02525	59.39791	34.17414	8.1367	7.32303	-7.32303	0
135	36.61515	-125.30518	-161.92033	43.93818	98.45407	-142.39225	-56.14323	59.39791	34.17414	8.1367	7.32303	-7.32303	0
136	39.05616	-125.30518	-164.36134	41.49717	100.89508	-144.83326	-51.26121	54.51589	34.17414	8.1367	7.32303	-7.32303	0
137	39.05616	-125.30518	-164.36134	41.49717	100.89508	-144.83326	-43.93818	49.63387	34.17414	8.1367	9.76404	-7.32303	0
138	39.05616	-125.30518	-164.36134	41.49717	100.89508	-144.83326	-41.49717	47.19286	36.61515	8.1367	9.76404	-9.76404	0
139	39.05616	-122.86417	-161.92033	41.49717	100.89508	-142.39225	-36.61515	47.19286	39.05616	8.1367	9.76404	-9.76404	0
140	39.05616	-120.42316	-159.47932	39.05616	98.45407	-139.95124	-36.61515	47.19286	39.05616	8.1367	9.76404	-12.20505	0
141	39.05616	-122.86417	-161.92033	41.49717	100.89508	-142.39225	-39.05616	44.75185	39.05616	5.69569	7.32303	-14.64606	0
142	36.61515	-125.30518	-161.92033	43.93818	98.45407	-142.39225	-46.37919	42.31084	39.05616	2.44101	4.88202	-19.52808	0
143	29.29212	-130.1872	-159.47932	48.8202	93.57205	-144.83326	-53.70222	42.31084	39.05616	2.44101	1.62734	-21.96909	0
144	21.96909	-132.62821	-154.5973	53.70222	88.69003	-142.39225	-61.02525	42.31084	41.49717	2.44101	1.62734	-24.4101	0
145	21.96909	-130.1872	-152.15629	53.70222	86.24902	-139.95124	-63.46626	44.75185	43.93818	5.69569	4.88202	-24.4101	0
146	21.96909	-132.62821	-154.5973	53.70222	88.69003	-142.39225	-63.46626	39.86983	43.93818	8.1367	4.88202	-24.4101	0
147	24.4101	-132.62821	-157.03831	53.70222	91.13104	-144.83326	-63.46626	37.42882	46.37919	13.01872	7.32303	-24.4101	0
148	21.96909	-132.62821	-154.5973	53.70222	88.69003	-142.39225	-63.46626	34.98781	48.8202	15.45973	7.32303	-24.4101	0
149	19.52808	-137.51023	-157.03831	58.58424	88.69003	-147.27427	-61.02525	32.5468	48.8202	17.90074	9.76404	-24.4101	0
150	17.08707	-139.95124	-157.03831	61.02525	86.24902	-147.27427	-58.58424	32.5468	46.37919	17.90074	7.32303	-24.4101	0
151	14.64606	-144.83326	-159.47932	63.46626	86.24902	-152.15629	-56.14323	32.5468	43.93818	17.90074	7.32303	-26.85111	0
152	14.64606	-147.27427	-161.92033	65.90727	88.69003	-154.5973	-56.14323	30.10579	41.49717	15.45973	4.88202	-31.73313	0
153	14.64606	-144.83326	-159.47932	63.46626	86.24902	-152.15629	-56.14323	32.5468	41.49717	15.45973	1.62734	-31.73313	0
154	17.08707	-139.95124	-157.03831	61.02525	86.24902	-147.27427	-56.14323	32.5468	39.05616	13.01872	1.62734	-34.17414	0
155	19.52808	-137.51023	-157.03831	58.58424	88.69003	-147.27427	-56.14323	32.5468	39.05616	13.01872	1.62734	-36.61515	0
156	24.4101	-132.62821	-157.03831	53.70222	91.13104	-144.83326	-56.14323	30.10579	39.05616	10.57771	1.62734	-39.05616	0
157	26.85111	-132.62821	-159.47932	51.26121	93.57205	-144.83326	-58.58424	25.22377	39.05616	10.57771	1.62734	-43.93818	0
158	26.85111	-132.62821	-159.47932	51.26121	93.57205	-144.83326	-58.58424	19.52808	39.05616	8.1367	1.62734	-46.37919	0
159	29.29212	-127.74619	-157.03831	48.8202	93.57205	-142.39225	-56.14323	19.52808	39.05616	8.1367	1.62734	-48.8202	0
160	26.85111	-127.74619	-154.5973	48.8202	91.13104	-139.95124	-53.70222	19.52808	39.05616	8.1367	1.62734	-48.8202	0
161	26.85111	-130.1872	-157.03831	51.26121	91.13104	-142.39225	-46.37919	19.52808	41.49717	10.57771	1.62734	-48.8202	0
162	26.85111	-127.74619	-154.5973	48.8202	91.13104	-139.95124	-36.61515	25.22377	43.93818	15.45973	4.88202	-46.37919	0
163	29.29212	-125.30518	-154.5973	46.37919	91.13104	-139.95124	-26.85111	32.5468	46.37919	20.34175	7.32303	-43.93818	0
164	29.29212	-120.42316	-149.71528	43.93818	88.69003	-135.06922	-14.64606	39.86983	48.8202	25.22377	12.20505	-39.05616	0
165	26.85111	-117.98215	-144.83326	43.93818	86.24902	-130.1872	-2.44101	47.19286	51.26121	30.10579	17.08707	-36.61515	0
166	21.96909	-115.54114	-137.51023	46.37919	78.92599	-125.30518	5.69569	49.63387	53.70222	34.98781	21.96909	-34.17414	0
167	24.4101	-108.21811	-132.62821	41.49717	78.92599	-120.42316	10.57771	49.63387	53.70222	39.86983	24.4101	-31.73313	0
168	26.85111	-96.01306	-122.86417	34.17414	74.04397	-108.21811	15.45973	49.63387	56.14323	44.75185	26.85111	-26.85111	0
169	34.17414	-78.92599	-113.10013	21.96909	74.04397	-96.01306	15.45973	52.07488	58.58424	49.63387	29.29212	-24.4101	0
170	39.05616	-64.27993	-103.33609	12.20505	71.60296	-83.80801	15.45973	59.39791	63.46626	52.07488	31.73313	-21.96909	0
171	46.37919	-49.63387	-96.01306	-0.81367	71.60296	-71.60296	15.45973	64.27993	65.90727	56.9569	31.73313	-19.52808	0
172	58.58424	-34.98781	-93.57205	-13.01872	76.48498	-64.27993	17.90074	71.60296	65.90727	56.9569	31.73313	-17.08707	0
173	68.34828	-25.22377	-93.57205	-22.78276	81.367	-59.39791	20.34175	81.367	65.90727	56.9569	29.29212	-14.64606	0
174	70.78929	-25.22377	-96.01306	-22.78276	83.80801	-59.39791	22.78276	88.69003	63.46626	56.9569	26.85111	-17.08707	0
175	70.78929	-22.78276	-93.57205	-25.22377	81.367	-56.9569	27.66478	93.57205	61.02525	54.51589	24.4101	-19.52808	0
176	70.78929	-17.90074	-88.69003	-27.66478	78.92599	-52.07488	32.5468	93.57205	56.14323	54.51589	21.96909	-19.52808	0
177	68.34828	-17.90074	-86.24902	-25.22377	76.48498	-52.07488	37.42882	93.57205	51.26121	52.07488	21.96909	-19.52808	0
178	68.34828	-17.90074	-86.24902	-25.22377	76.48498	-52.07488	42.31084	93.57205	51.26121	54.51589	24.4101	-17.08707	0
179	68.34828	-13.01872	-81.367	-27.66478	74.04397	-47.19286	47.19286	98.45407	53.70222	54.51589	24.4101	-14.64606	0
180	70.78929	-3.25468	-74.04397	-34.98781	71.60296	-37.42882	52.07488	103.33609	58.58424	56.9569	26.85111	-9.76404	0
181	73.2303	-0.81367	-74.04397	-37.42882	74.04397	-37.42882	56.9569	105.7771	61.02525	61.83892	29.29212	-7.32303	0
182	75.67131	2.44101	-74.04397	-39.86983	76.48498	-34.98781	56.9569	108.21811	58.58424	59.39791	26.85111	-7.32303	0
183	80.55333	4.88202	-76.48498	-42.31084	78.92599	-34.98781	54.51589	108.21811	53.70222	54.51589	24.4101	-7.32303	0
184	87.87636	9.76404	-78.92599	-49.63387	83.80801	-34.98781	47.19286	105.7771	46.37919	49.63387	17.08707	-9.76404	0
185	87.87636	14.64606	-74.04397	-52.07488	81.367	-30.10579	42.31084	100.89508	36.61515	42.31084	12.20505	-14.64606	0
186	85.43535	9.76404	-76.48498	-47.19286	81.367	-32.5468	34.98781	91.13104	24.4101	32.5468	4.88202	-19.52808	0
187	85.43535	4.88202	-81.367	-44.75185	83.80801	-37.42882	30.10579	81.367	9.76404	22.78276	-3.25468	-26.85111	0
188	85.43535	-0.81367	-86.24902	-42.31084	86.24902	-42.31084	25.22377	71.60296	-0.81367	13.01872	-13.01872	-36.61515	0
189	87.87636	-0.81367	-88.69003	-44.75185	88.69003	-44.75185	25.22377	66.72094	-8.1367	2.44101	-22.78276	-43.93818	0
190	92.75838	2.44101	-91.13104	-47.19286	93.57205	-44.75185	30.10579	66.72094	-15.45973	0	-27.66478	-48.8202	0
191	100.08141	2.44101	-98.45407	-52.07488	100.89508	-47.19286	32.5468	61.83892	-20.34175	-7.32303	-34.98781	-56.14323	0
192	104.96343	2.44101	-103.33609	-54.51589	105.7771	-49.63387	32.5468	56.9569	-25.22377	-12.20505	-42.31084	-61.02525	0
193	107.40444	4.88202	-103.33609	-56.9569	105.7771	-49.63387	32.5468	56.9569	-25.22377	-17.08707	-44.75185	-65.90727	0
194	112.28646	7.32303	-105.7771	-59.39791	110.65912	-49.63387	32.5468	56.9569	-27.66478	-17.08707	-44.75185	-65.90727	0
195	114.72747	12.20505	-103.33609	-64.27993	110.65912	-44.75185	30.10579	52.07488	-27.66478	-17.08707	-44.75185	-70.78929	0
196	114.72747	12.20505	-103.33609	-64.27993	110.65912	-44.75185	27.66478	47.19286	-27.66478	-19.52808	-44.75185	-73.2303	0
197	109.84545	12.20505	-98.45407	-61.83892	105.7771	-42.31084	27.66478	39.86983	-30.10579	-19.52808	-42.31084	-73.2303	0
198	107.40444	12.20505	-96.01306	-59.39791	103.33609	-42.31084	27.66478	37.42882	-32.5468	-17.08707	-37.42882	-75.67131	0
199	107.40444	9.76404	-98.45407	-59.39791	103.33609	-44.75185	32.5468	37.42882	-30.10579	-12.20505	-34.98781	-75.67131	0
200	107.40444	9.76404	-98.45407	-59.39791	103.33609	-44.75185	34.98781	39.86983	-27.66478	-9.76404	-32.5468	-73.2303	0
201	107.40444	7.32303	-100.89508	-56.9569	105.7771	-47.19286	34.98781	39.86983	-27.66478	-7.32303	-30.10579	-70.78929	0
202	102.52242	7.32303	-96.01306	-54.51589	100.89508	-44.75185	37.42882	42.31084	-22.78276	-2.44101	-25.22377	-68.34828	0
203	97.6404	2.44101	-96.01306	-49.63387	98.45407	-47.19286	37.42882	42.31084	-22.78276	-2.44101	-22.78276	-68.34828	0
204	87.87636	-3.25468	-91.13104	-42.31084	88.69003	-47.19286	37.42882	39.86983	-20.34175	0	-20.34175	-68.34828	0
205	80.55333	-10.57771	-91.13104	-34.98781	86.24902	-49.63387	34.98781	32.5468	-20.34175	0	-20.34175	-68.34828	0
206	70.78929	-17.90074	-88.69003	-27.66478	78.92599	-52.07488	32.5468	22.78276	-20.34175	2.44101	-17.90074	-68.34828	0
207	63.46626	-22.78276	-86.24902	-20.34175	74.04397	-54.51589	30.10579	14.64606	-20.34175	2.44101	-13.01872	-65.90727	0
208	56.14323	-32.5468	-88.69003	-13.01872	71.60296	-59.39791	25.22377	7.32303	-20.34175	2.44101	-13.01872	-65.90727	0
209	53.70222	-42.31084	-96.01306	-5.69569	74.04397	-69.16195	20.34175	2.44101	-20.34175	2.44101	-13.01872	-65.90727	0
210	48.8202	-54.51589	-103.33609	2.44101	76.48498	-78.92599	17.90074	0	-22.78276	2.44101	-13.01872	-65.90727	0
211	39.05616	-66.72094	-105.7771	12.20505	71.60296	-86.24902	15.45973	0	-22.78276	2.44101	-10.57771	-63.46626	0
212	34.17414	-74.04397	-108.21811	19.52808	71.60296	-91.13104	15.45973	4.88202	-22.78276	5.69569	-8.1367	-61.02525	0
213	26.85111	-83.80801	-110.65912	26.85111	69.16195	-96.01306	13.01872	4.88202	-27.66478	5.69569	-8.1367	-61.02525	0
214	21.96909	-88.69003	-110.65912	31.73313	66.72094	-98.45407	13.01872	4.88202	-30.10579	5.69569	-10.57771	-58.58424	0
215	17.08707	-91.13104	-108.21811	36.61515	61.83892	-98.45407	13.01872	4.88202	-32.5468	5.69569	-8.1367	-56.14323	0
216	14.64606	-96.01306	-110.65912	39.05616	61.83892	-103.33609	13.01872	2.44101	-32.5468	8.1367	-8.1367	-53.70222	0
217	19.52808	-93.57205	-113.10013	36.61515	66.72094	-103.33609	8.1367	-4.88202	-34.98781	5.69569	-8.1367	-51.26121	0
218	26.85111	-91.13104	-117.98215	31.73313	71.60296	-103.33609	5.69569	-9.76404	-34.98781	5.69569	-8.1367	-48.8202	0
219	24.4101	-93.57205	-117.98215	34.17414	71.60296	-105.7771	0.81367	-12.20505	-34.98781	2.44101	-8.1367	-48.8202	0
220	21.96909	-98.45407	-120.42316	36.61515	71.60296	-108.21811	-2.44101	-17.08707	-34.98781	2.44101	-10.57771	-46.37919	0
221	12.20505	-108.21811	-120.42316	46.37919	66.72094	-113.10013	-4.88202	-21.96909	-37.42882	0	-15.45973	-48.8202	0
222	7.32303	-117.98215	-125.30518	53.70222	66.72094	-120.42316	-7.32303	-21.96909	-37.42882	-2.44101	-17.90074	-51.26121	0
223	2.44101	-125.30518	-127.74619	61.02525	64.27993	-125.30518	-7.32303	-24.4101	-39.86983	-2.44101	-17.90074	-51.26121	0
224	-3.25468	-130.1872	-127.74619	65.90727	61.83892	-130.1872	-9.76404	-26.85111	-39.86983	-2.44101	-20.34175	-53.70222	0
225	-0.81367	-127.74619	-127.74619	63.46626	64.27993	-127.74619	-12.20505	-29.29212	-42.31084	-4.88202	-22.78276	-56.14323	0
226	2.44101	-125.30518	-127.74619	61.02525	64.27993	-125.30518	-14.64606	-31.73313	-42.31084	-4.88202	-22.78276	-56.14323	0
227	4.88202	-122.86417	-127.74619	58.58424	66.72094	-125.30518	-14.64606	-36.61515	-42.31084	-7.32303	-22.78276	-58.58424	0
228	7.32303	-113.10013	-120.42316	51.26121	64.27993	-115.54114	-14.64606	-39.05616	-42.31084	-7.32303	-22.78276	-58.58424	0
229	7.32303	-105.7771	-113.10013	48.8202	59.39791	-108.21811	-12.20505	-36.61515	-37.42882	-4.88202	-20.34175	-56.14323	0
230	9.76404	-100.89508	-110.65912	43.93818	59.39791	-105.7771	-12.20505	-34.17414	-37.42882	-4.88202	-20.34175	-56.14323	0
231	9.76404	-103.33609	-113.10013	46.37919	61.83892	-108.21811	-7.32303	-34.17414	-32.5468	-4.88202	-20.34175	-56.14323	0
232	2.44101	-105.7771	-108.21811	51.26121	54.51589	-105.7771	-7.32303	-29.29212	-30.10579	-4.88202	-17.90074	-53.70222	0
233	-0.81367	-108.21811	-108.21811	53.70222	54.51589	-108.21811	-4.88202	-24.4101	-27.66478	-4.88202	-15.45973	-53.70222	0
234	-0.81367	-110.65912	-110.65912	53.70222	54.51589	-110.65912	-7.32303	-24.4101	-27.66478	-4.88202	-15.45973	-53.70222	0
235	-3.25468	-115.54114	-113.10013	58.58424	54.51589	-115.54114	-9.76404	-26.85111	-27.66478	-7.32303	-17.90074	-56.14323	0
236	-0.81367	-113.10013	-113.10013	56.14323	56.9569	-113.10013	-9.76404	-29.29212	-27.66478	-4.88202	-15.45973	-56.14323	0
237	-0.81367	-113.10013	-113.10013	56.14323	56.9569	-113.10013	-9.76404	-29.29212	-22.78276	-2.44101	-10.57771	-53.70222	0
238	-0.81367	-113.10013	-113.10013	56.14323	56.9569	-113.10013	-4.88202	-24.4101	-22.78276	0	-10.57771	-53.70222	0
239	4.88202	-108.21811	-113.10013	51.26121	59.39791	-110.65912	0.81367	-9.76404	-20.34175	2.44101	-5.69569	-48.8202	0
240	7.32303	-105.7771	-113.10013	48.8202	59.39791	-108.21811	15.45973	17.08707	-13.01872	8.1367	-0.81367	-43.93818	0
241	14.64606	-105.7771	-120.42316	43.93818	66.72094	-113.10013	39.86983	52.07488	1.62734	20.34175	4.88202	-36.61515	0
242	17.08707	-100.89508	-117.98215	41.49717	66.72094	-108.21811	69.16195	100.89508	19.52808	37.42882	14.64606	-29.29212	0
243	9.76404	-98.45407	-108.21811	43.93818	59.39791	-103.33609	103.33609	154.5973	43.93818	54.51589	26.85111	-21.96909	0
244	7.32303	-91.13104	-98.45407	41.49717	52.07488	-93.57205	144.83326	215.62255	70.78929	74.04397	39.05616	-14.64606	0
245	4.88202	-91.13104	-96.01306	41.49717	49.63387	-93.57205	181.44841	271.76578	100.08141	93.57205	51.26121	-7.32303	0
246	-0.81367	-96.01306	-96.01306	46.37919	47.19286	-96.01306	215.62255	318.14497	126.93252	108.21811	61.02525	-2.44101	0
247	7.32303	-98.45407	-105.7771	43.93818	56.9569	-100.89508	240.03265	354.76012	144.01959	117.98215	63.46626	-2.44101	0
248	26.85111	-93.57205	-120.42316	31.73313	74.04397	-105.7771	249.79669	391.37527	151.34262	117.98215	58.58424	-12.20505	0
249	65.90727	-74.04397	-139.95124	2.44101	103.33609	-105.7771	244.91467	435.31345	146.4606	105.7771	43.93818	-24.4101	0
250	122.0505	-39.86983	-161.92033	-42.31084	142.39225	-100.89508	225.38659	481.69264	129.37353	83.80801	19.52808	-46.37919	0
251	192.83979	19.52808	-174.12538	-105.7771	183.88942	-76.48498	198.53548	535.39486	104.96343	59.39791	-5.69569	-65.90727	0
252	273.39312	107.40444	-166.80235	-191.21245	220.50457	-30.10579	166.80235	598.86112	78.11232	32.5468	-32.5468	-85.43535	0
253	363.71049	217.24989	-147.27427	-291.29386	257.11972	36.61515	132.62821	667.2094	51.26121	5.69569	-61.83892	-104.96343	0
254	449.14584	341.7414	-108.21811	-396.25729	279.08881	117.16848	100.89508	733.11667	24.4101	-14.64606	-83.80801	-119.60949	0
255	522.37614	454.02786	-69.16195	-489.01567	296.17588	192.83979	69.16195	767.29081	1.62734	-34.17414	-103.33609	-129.37353	0
256	576.07836	534.58119	-42.31084	-554.92294	310.82194	246.54201	39.86983	774.61384	-15.45973	-43.93818	-110.65912	-131.81454	0
257	593.16543	573.63735	-20.34175	-584.21506	308.38093	278.27514	15.45973	747.76273	-25.22377	-43.93818	-108.21811	-124.49151	0
258	568.75533	576.07836	7.32303	-572.01001	281.52982	292.9212	-17.08707	667.2094	-34.98781	-39.05616	-96.01306	-104.96343	0
259	495.52503	544.34523	48.8202	-520.7488	225.38659	297.80322	-51.26121	520.7488	-37.42882	-24.4101	-69.16195	-73.2303	0
260	383.23857	480.87897	97.6404	-432.87244	144.83326	290.48019	-97.6404	303.49891	-39.86983	-4.88202	-34.98781	-31.73313	1500	QRS+0
261	248.98302	395.44362	146.4606	-323.02699	52.07488	270.95211	-153.78363	44.75185	-44.75185	13.01872	1.62734	10.57771	0
262	107.40444	310.00827	202.60383	-208.29952	-46.37919	256.30605	-212.36787	-222.13191	-54.51589	27.66478	36.61515	54.51589	0
263	-20.34175	241.65999	261.18807	-110.65912	-139.13757	251.42403	-273.39312	-478.43796	-69.16195	34.98781	65.90727	88.69003	0
264	-122.86417	185.51676	307.56726	-32.5468	-214.80888	246.54201	-327.09534	-698.12886	-81.367	39.86983	87.87636	117.98215	0
265	-196.09447	134.25555	329.53635	29.29212	-261.18807	231.89595	-368.59251	-864.11754	-98.45407	37.42882	100.08141	135.06922	0
266	-237.59164	95.19939	331.97736	70.78929	-283.15716	212.36787	-390.5616	-954.43491	-108.21811	34.98781	107.40444	144.83326	0
267	-254.67871	73.2303	327.09534	90.31737	-290.48019	200.16282	-395.44362	-973.96299	-110.65912	34.98781	114.72747	149.71528	0
268	-254.67871	53.70222	307.56726	100.08141	-280.71615	180.63474	-378.35655	-937.34784	-103.33609	42.31084	122.0505	152.15629	0
269	-252.2377	41.49717	292.9212	104.96343	-270.95211	165.98868	-346.62342	-868.99956	-88.69003	52.07488	129.37353	154.5973	0
270	-242.47366	34.17414	275.83413	102.52242	-258.74706	153.78363	-302.68524	-786.00522	-71.60296	64.27993	136.69656	157.03831	0
271	-230.26861	26.85111	256.30605	100.08141	-241.65999	141.57858	-258.74706	-693.24684	-54.51589	71.60296	136.69656	154.5973	0
272	-208.29952	21.96909	229.45494	92.75838	-217.24989	124.49151	-214.80888	-598.04745	-39.86983	71.60296	131.81454	142.39225	0
273	-183.88942	12.20505	195.2808	85.43535	-187.95777	102.52242	-178.19373	-502.84806	-30.10579	69.16195	119.60949	125.30518	0
274	-166.80235	-0.81367	165.98868	82.99434	-165.98868	82.99434	-146.4606	-417.41271	-27.66478	59.39791	102.52242	103.33609	0
275	-152.15629	-13.01872	139.13757	80.55333	-146.4606	63.46626	-126.93252	-349.06443	-27.66478	44.75185	82.99434	78.92599	0
276	-137.51023	-25.22377	112.28646	80.55333	-124.49151	43.93818	-114.72747	-302.68524	-32.5468	27.66478	63.46626	54.51589	0
277	-127.74619	-34.98781	92.75838	80.55333	-109.84545	29.29212	-109.84545	-273.39312	-37.42882	15.45973	48.8202	37.42882	0
278	-117.98215	-37.42882	80.55333	75.67131	-100.08141	21.96909	-109.84545	-253.86504	-42.31084	5.69569	36.61515	25.22377	0
279	-110.65912	-32.5468	78.11232	70.78929	-95.19939	21.96909	-107.40444	-241.65999	-44.75185	0	26.85111	17.90074	0
280	-105.7771	-30.10579	75.67131	65.90727	-90.31737	21.96909	-107.40444	-234.33696	-44.75185	-4.88202	19.52808	13.01872	0
281	-100.89508	-30.10579	70.78929	63.46626	-85.43535	19.52808	-109.84545	-234.33696	-47.19286	-4.88202	14.64606	10.57771	0
282	-98.45407	-25.22377	73.2303	61.02525	-85.43535	24.4101	-107.40444	-231.89595	-47.19286	-4.88202	12.20505	10.57771	0
283	-98.45407	-25.22377	73.2303	61.02525	-85.43535	24.4101	-104.96343	-227.01393	-47.19286	-4.88202	9.76404	13.01872	0
284	-100.89508	-30.10579	70.78929	63.46626	-85.43535	19.52808	-109.84545	-227.01393	-49.63387	-7.32303	7.32303	13.01872	0
285	-105.7771	-34.98781	70.78929	68.34828	-87.87636	17.08707	-112.28646	-227.01393	-52.07488	-9.76404	4.88202	13.01872	0
286	-108.21811	-39.86983	68.34828	73.2303	-87.87636	14.64606	-117.16848	-229.45494	-54.51589	-12.20505	1.62734	13.01872	0
287	-108.21811	-39.86983	68.34828	73.2303	-87.87636	14.64606	-117.16848	-231.89595	-56.9569	-12.20505	1.62734	13.01872	0
288	-108.21811	-37.42882	70.78929	70.78929	-90.31737	17.08707	-114.72747	-234.33696	-59.39791	-14.64606	-3.25468	13.01872	0
289	-105.7771	-34.98781	70.78929	68.34828	-87.87636	17.08707	-117.16848	-234.33696	-64.27993	-17.08707	-5.69569	10.57771	0
290	-103.33609	-30.10579	73.2303	65.90727	-87.87636	21.96909	-117.16848	-234.33696	-66.72094	-19.52808	-10.57771	10.57771	0
291	-103.33609	-32.5468	70.78929	65.90727	-87.87636	19.52808	-112.28646	-231.89595	-66.72094	-19.52808	-13.01872	10.57771	0
292	-98.45407	-30.10579	68.34828	63.46626	-82.99434	19.52808	-109.84545	-227.01393	-66.72094	-21.96909	-13.01872	10.57771	0
293	-96.01306	-30.10579	65.90727	61.02525	-80.55333	17.08707	-109.84545	-222.13191	-66.72094	-21.96909	-13.01872	13.01872	0
294	-98.45407	-32.5468	65.90727	63.46626	-82.99434	17.08707	-109.84545	-217.24989	-64.27993	-24.4101	-13.01872	15.45973	0
295	-98.45407	-30.10579	68.34828	63.46626	-82.99434	19.52808	-107.40444	-212.36787	-61.83892	-21.96909	-8.1367	17.90074	0
296	-100.89508	-30.10579	70.78929	63.46626	-85.43535	19.52808	-104.96343	-214.80888	-59.39791	-21.96909	-8.1367	20.34175	0
297	-96.01306	-25.22377	70.78929	58.58424	-82.99434	21.96909	-104.96343	-217.24989	-54.51589	-19.52808	-3.25468	25.22377	0
298	-96.01306	-20.34175	75.67131	56.14323	-85.43535	26.85111	-104.96343	-219.6909	-52.07488	-19.52808	-0.81367	25.22377	0
299	-98.45407	-15.45973	82.99434	56.14323	-90.31737	34.17414	-104.96343	-219.6909	-52.07488	-19.52808	-0.81367	25.22377	0
300	-96.01306	-8.1367	87.87636	51.26121	-92.75838	39.05616	-104.96343	-219.6909	-52.07488	-21.96909	-0.81367	22.78276	0
301	-93.57205	-5.69569	87.87636	48.8202	-90.31737	41.49717	-109.84545	-222.13191	-54.51589	-24.4101	-5.69569	17.90074	0
302	-93.57205	-3.25468	90.31737	46.37919	-92.75838	43.93818	-112.28646	-222.13191	-56.9569	-26.85111	-8.1367	13.01872	0
303	-96.01306	-0.81367	95.19939	46.37919	-95.19939	46.37919	-114.72747	-222.13191	-56.9569	-29.29212	-8.1367	13.01872	0
304	-100.89508	-3.25468	97.6404	51.26121	-100.08141	46.37919	-119.60949	-224.57292	-61.83892	-31.73313	-10.57771	8.1367	0
305	-103.33609	-3.25468	100.08141	51.26121	-102.52242	48.8202	-124.49151	-227.01393	-61.83892	-34.17414	-10.57771	5.69569	0
306	-103.33609	-0.81367	102.52242	51.26121	-102.52242	51.26121	-126.93252	-231.89595	-56.9569	-36.61515	-10.57771	5.69569	0
307	-105.7771	2.44101	107.40444	51.26121	-104.96343	53.70222	-129.37353	-236.77797	-54.51589	-36.61515	-5.69569	8.1367	0
308	-105.7771	9.76404	114.72747	46.37919	-109.84545	61.02525	-129.37353	-239.21898	-49.63387	-34.17414	-3.25468	10.57771	0
309	-105.7771	17.08707	122.0505	43.93818	-112.28646	68.34828	-131.81454	-239.21898	-44.75185	-34.17414	-3.25468	10.57771	0
310	-98.45407	29.29212	126.93252	34.17414	-112.28646	78.11232	-136.69656	-239.21898	-42.31084	-34.17414	-0.81367	13.01872	0
311	-91.13104	39.05616	129.37353	24.4101	-109.84545	82.99434	-139.13757	-239.21898	-39.86983	-34.17414	1.62734	15.45973	0
312	-91.13104	43.93818	134.25555	21.96909	-112.28646	87.87636	-141.57858	-239.21898	-39.86983	-36.61515	1.62734	15.45973	0
313	-91.13104	43.93818	134.25555	21.96909	-112.28646	87.87636	-141.57858	-236.77797	-39.86983	-36.61515	1.62734	15.45973	0
314	-91.13104	46.37919	136.69656	21.96909	-112.28646	90.31737	-144.01959	-234.33696	-39.86983	-39.05616	1.62734	15.45973	0
315	-93.57205	46.37919	139.13757	21.96909	-114.72747	92.75838	-148.90161	-234.33696	-42.31084	-39.05616	-0.81367	15.45973	0
316	-93.57205	46.37919	139.13757	21.96909	-114.72747	92.75838	-153.78363	-239.21898	-44.75185	-39.05616	-3.25468	15.45973	0
317	-100.89508	46.37919	146.4606	26.85111	-122.0505	95.19939	-156.22464	-241.65999	-44.75185	-39.05616	-3.25468	17.90074	0
318	-100.89508	51.26121	151.34262	24.4101	-124.49151	100.08141	-156.22464	-246.54201	-47.19286	-39.05616	-3.25468	17.90074	0
319	-103.33609	53.70222	156.22464	24.4101	-129.37353	104.96343	-161.10666	-248.98302	-52.07488	-41.49717	-8.1367	17.90074	0
320	-100.89508	58.58424	158.66565	19.52808	-129.37353	107.40444	-165.98868	-251.42403	-56.9569	-43.93818	-13.01872	15.45973	0
321	-93.57205	63.46626	156.22464	14.64606	-124.49151	109.84545	-168.42969	-253.86504	-61.83892	-46.37919	-20.34175	15.45973	0
322	-91.13104	70.78929	161.10666	9.76404	-124.49151	114.72747	-170.8707	-256.30605	-66.72094	-51.26121	-25.22377	13.01872	0
323	-88.69003	75.67131	163.54767	4.88202	-124.49151	119.60949	-173.31171	-256.30605	-74.04397	-56.14323	-30.10579	13.01872	0
324	-88.69003	82.99434	170.8707	2.44101	-129.37353	126.93252	-175.75272	-256.30605	-76.48498	-58.58424	-32.5468	13.01872	0
325	-88.69003	90.31737	178.19373	-0.81367	-131.81454	134.25555	-175.75272	-256.30605	-76.48498	-58.58424	-32.5468	15.45973	0
326	-83.80801	102.52242	185.51676	-10.57771	-134.25555	144.01959	-178.19373	-261.18807	-76.48498	-56.14323	-32.5468	20.34175	0
327	-86.24902	107.40444	192.83979	-10.57771	-139.13757	148.90161	-180.63474	-268.5111	-78.92599	-58.58424	-34.98781	20.34175	0
328	-88.69003	112.28646	200.16282	-13.01872	-144.01959	156.22464	-183.07575	-273.39312	-78.92599	-58.58424	-37.42882	20.34175	0
329	-91.13104	117.16848	207.48585	-13.01872	-148.90161	161.10666	-185.51676	-273.39312	-78.92599	-56.14323	-39.86983	22.78276	0
330	-86.24902	126.93252	212.36787	-20.34175	-148.90161	168.42969	-187.95777	-275.83413	-81.367	-56.14323	-44.75185	22.78276	0
331	-78.92599	131.81454	209.92686	-27.66478	-144.01959	170.8707	-192.83979	-275.83413	-83.80801	-61.02525	-49.63387	20.34175	0
332	-78.92599	136.69656	214.80888	-30.10579	-146.4606	175.75272	-197.72181	-275.83413	-88.69003	-61.02525	-54.51589	17.90074	0
333	-76.48498	141.57858	217.24989	-32.5468	-146.4606	178.19373	-200.16282	-275.83413	-91.13104	-63.46626	-56.9569	17.90074	0
334	-71.60296	148.90161	219.6909	-39.86983	-144.01959	183.07575	-202.60383	-273.39312	-93.57205	-65.90727	-59.39791	15.45973	0
335	-71.60296	156.22464	227.01393	-42.31084	-148.90161	190.39878	-207.48585	-273.39312	-98.45407	-68.34828	-59.39791	13.01872	0
336	-74.04397	158.66565	231.89595	-42.31084	-151.34262	195.2808	-212.36787	-275.83413	-103.33609	-73.2303	-61.83892	8.1367	0
337	-78.92599	163.54767	241.65999	-42.31084	-158.66565	202.60383	-214.80888	-280.71615	-108.21811	-78.11232	-66.72094	5.69569	0
338	-83.80801	165.98868	248.98302	-42.31084	-165.98868	207.48585	-219.6909	-285.59817	-113.10013	-85.43535	-71.60296	0	0
339	-86.24902	170.8707	256.30605	-42.31084	-170.8707	212.36787	-224.57292	-285.59817	-117.98215	-95.19939	-78.92599	-4.88202	0
340	-86.24902	175.75272	261.18807	-44.75185	-173.31171	217.24989	-229.45494	-285.59817	-122.86417	-100.08141	-83.80801	-12.20505	-1500	QRS-0
341	-83.80801	175.75272	258.74706	-47.19286	-170.8707	217.24989	-231.89595	-283.15716	-122.86417	-102.52242	-86.24902	-17.08707	0
342	-74.04397	185.51676	258.74706	-56.9569	-165.98868	222.13191	-229.45494	-275.83413	-122.86417	-104.96343	-88.69003	-19.52808	0
343	-64.27993	195.2808	258.74706	-66.72094	-161.10666	227.01393	-227.01393	-268.5111	-120.42316	-104.96343	-86.24902	-21.96909	0
344	-52.07488	209.92686	261.18807	-78.92599	-156.22464	234.33696	-222.13191	-258.74706	-115.54114	-102.52242	-81.367	-21.96909	0
345	-37.42882	229.45494	266.07009	-96.01306	-151.34262	246.54201	-214.80888	-251.42403	-113.10013	-100.08141	-76.48498	-21.96909	0
346	-25.22377	244.101	268.5111	-110.65912	-146.4606	256.30605	-209.92686	-248.98302	-110.65912	-97.6404	-69.16195	-24.4101	0
347	-17.90074	253.86504	270.95211	-117.98215	-144.01959	261.18807	-205.04484	-248.98302	-110.65912	-97.6404	-69.16195	-29.29212	0
348	-17.90074	263.62908	280.71615	-122.86417	-148.90161	270.95211	-207.48585	-248.98302	-115.54114	-97.6404	-69.16195	-36.61515	0
349	-13.01872	270.95211	283.15716	-130.1872	-146.4606	275.83413	-209.92686	-248.98302	-117.98215	-100.08141	-71.60296	-43.93818	0
350	-8.1367	278.27514	285.59817	-135.06922	-146.4606	280.71615	-212.36787	-246.54201	-122.86417	-102.52242	-74.04397	-51.26121	0
351	-10.57771	280.71615	290.48019	-135.06922	-148.90161	285.59817	-217.24989	-244.101	-125.30518	-102.52242	-76.48498	-58.58424	0
352	-13.01872	285.59817	297.80322	-137.51023	-153.78363	290.48019	-219.6909	-239.21898	-127.74619	-104.96343	-78.92599	-63.46626	0
353	-8.1367	292.9212	300.24423	-142.39225	-153.78363	295.36221	-222.13191	-231.89595	-130.1872	-104.96343	-78.92599	-68.34828	0
354	-3.25468	302.68524	305.12625	-149.71528	-153.78363	302.68524	-219.6909	-222.13191	-125.30518	-100.08141	-74.04397	-70.78929	0
355	-0.81367	310.00827	310.00827	-154.5973	-153.78363	310.00827	-217.24989	-214.80888	-122.86417	-100.08141	-69.16195	-70.78929	0
356	2.44101	317.3313	314.89029	-159.47932	-156.22464	317.3313	-214.80888	-209.92686	-117.98215	-95.19939	-66.72094	-70.78929	0
357	9.76404	327.09534	317.3313	-169.24336	-153.78363	322.21332	-212.36787	-207.48585	-115.54114	-92.75838	-61.83892	-73.2303	0
358	21.96909	339.30039	317.3313	-181.44841	-146.4606	329.53635	-212.36787	-205.04484	-113.10013	-92.75838	-61.83892	-75.67131	0
359	26.85111	346.62342	319.77231	-186.33043	-146.4606	334.41837	-212.36787	-200.16282	-113.10013	-92.75838	-66.72094	-78.11232	0
360	29.29212	351.50544	322.21332	-191.21245	-146.4606	336.85938	-209.92686	-197.72181	-117.98215	-97.6404	-71.60296	-82.99434	0
361	39.05616	358.82847	319.77231	-198.53548	-139.13757	339.30039	-207.48585	-192.83979	-120.42316	-104.96343	-76.48498	-87.87636	0
362	43.93818	363.71049	319.77231	-203.4175	-136.69656	341.7414	-205.04484	-185.51676	-122.86417	-107.40444	-83.80801	-90.31737	0
363	43.93818	366.1515	322.21332	-205.85851	-139.13757	344.18241	-200.16282	-175.75272	-122.86417	-112.28646	-86.24902	-92.75838	0
364	43.93818	366.1515	322.21332	-205.85851	-139.13757	344.18241	-192.83979	-163.54767	-125.30518	-112.28646	-88.69003	-92.75838	0
365	43.93818	358.82847	314.89029	-200.97649	-134.25555	336.85938	-183.07575	-153.78363	-122.86417	-112.28646	-88.69003	-92.75838	0
366	41.49717	353.94645	312.44928	-198.53548	-134.25555	334.41837	-178.19373	-146.4606	-122.86417	-109.84545	-88.69003	-92.75838	0
367	43.93818	353.94645	310.00827	-198.53548	-131.81454	331.97736	-175.75272	-139.13757	-117.98215	-107.40444	-88.69003	-90.31737	0
368	51.26121	356.38746	305.12625	-203.4175	-126.93252	331.97736	-168.42969	-129.37353	-115.54114	-102.52242	-86.24902	-90.31737	0
369	58.58424	358.82847	300.24423	-208.29952	-119.60949	329.53635	-163.54767	-119.60949	-110.65912	-100.08141	-86.24902	-87.87636	0
370	65.90727	361.26948	295.36221	-213.18154	-114.72747	329.53635	-156.22464	-104.96343	-105.7771	-97.6404	-86.24902	-85.43535	0
371	68.34828	361.26948	292.9212	-215.62255	-112.28646	327.09534	-148.90161	-90.31737	-100.89508	-92.75838	-83.80801	-82.99434	0
372	78.11232	363.71049	285.59817	-220.50457	-102.52242	324.65433	-139.13757	-75.67131	-93.57205	-87.87636	-83.80801	-78.11232	0
373	85.43535	363.71049	278.27514	-225.38659	-95.19939	322.21332	-129.37353	-58.58424	-86.24902	-85.43535	-81.367	-75.67131	0
374	82.99434	356.38746	273.39312	-220.50457	-95.19939	314.89029	-119.60949	-43.93818	-81.367	-82.99434	-81.367	-73.2303	0
375	80.55333	344.18241	263.62908	-213.18154	-90.31737	305.12625	-114.72747	-31.73313	-76.48498	-82.99434	-78.92599	-68.34828	0
376	75.67131	329.53635	253.86504	-203.4175	-87.87636	292.9212	-109.84545	-26.85111	-71.60296	-82.99434	-78.92599	-68.34828	0
377	73.2303	317.3313	244.101	-196.09447	-85.43535	280.71615	-104.96343	-21.96909	-64.27993	-82.99434	-78.92599	-68.34828	0
378	75.67131	314.89029	239.21898	-196.09447	-80.55333	278.27514	-97.6404	-12.20505	-56.9569	-78.11232	-76.48498	-63.46626	0
379	80.55333	310.00827	229.45494	-196.09447	-73.2303	270.95211	-92.75838	-4.88202	-52.07488	-75.67131	-76.48498	-61.02525	0
380	82.99434	302.68524	219.6909	-193.65346	-68.34828	261.18807	-85.43535	2.44101	-47.19286	-73.2303	-76.48498	-58.58424	0
381	87.87636	295.36221	207.48585	-191.21245	-58.58424	251.42403	-78.11232	14.64606	-42.31084	-68.34828	-76.48498	-56.14323	0
382	95.19939	290.48019	195.2808	-193.65346	-48.8202	244.101	-68.34828	25.22377	-37.42882	-63.46626	-74.04397	-51.26121	0
383	102.52242	278.27514	175.75272	-191.21245	-36.61515	227.01393	-61.02525	37.42882	-32.5468	-58.58424	-71.60296	-48.8202	0
384	102.52242	261.18807	158.66565	-181.44841	-26.85111	209.92686	-58.58424	49.63387	-27.66478	-56.14323	-69.16195	-48.8202	0
385	100.08141	244.101	144.01959	-171.68437	-21.96909	195.2808	-53.70222	59.39791	-20.34175	-48.8202	-64.27993	-43.93818	0
386	95.19939	227.01393	131.81454	-161.92033	-17.08707	180.63474	-48.8202	69.16195	-10.57771	-41.49717	-56.9569	-36.61515	0
387	85.43535	207.48585	122.0505	-147.27427	-17.08707	165.98868	-46.37919	76.48498	-0.81367	-34.17414	-49.63387	-31.73313	0
388	78.11232	190.39878	112.28646	-135.06922	-17.08707	151.34262	-43.93818	81.367	4.88202	-29.29212	-44.75185	-29.29212	0
389	70.78929	175.75272	104.96343	-122.86417	-17.08707	141.57858	-39.05616	91.13104	14.64606	-24.4101	-39.86983	-26.85111	0
390	68.34828	161.10666	92.75838	-115.54114	-12.20505	126.93252	-31.73313	100.89508	21.96909	-17.08707	-32.5468	-19.52808	0
391	68.34828	144.01959	75.67131	-105.7771	-2.44101	109.84545	-26.85111	110.65912	26.85111	-12.20505	-27.66478	-14.64606	0
392	65.90727	124.49151	58.58424	-96.01306	5.69569	92.75838	-24.4101	120.42316	29.29212	-9.76404	-22.78276	-14.64606	0
393	65.90727	104.96343	39.05616	-86.24902	15.45973	73.2303	-19.52808	130.1872	31.73313	-4.88202	-20.34175	-9.76404	0
394	65.90727	92.75838	26.85111	-78.92599	20.34175	61.02525	-17.08707	139.95124	34.17414	0	-15.45973	-7.32303	0
395	68.34828	85.43535	17.08707	-76.48498	27.66478	51.26121	-12.20505	142.39225	39.05616	5.69569	-10.57771	-2.44101	0
396	68.34828	73.2303	4.88202	-71.60296	32.5468	39.05616	-12.20505	139.95124	39.05616	8.1367	-8.1367	-2.44101	0
397	65.90727	58.58424	-8.1367	-61.83892	37.42882	26.85111	-14.64606	137.51023	39.05616	10.57771	-5.69569	-2.44101	0
398	63.46626	46.37919	-17.90074	-54.51589	42.31084	14.64606	-17.08707	135.06922	39.05616	10.57771	-3.25468	-2.44101	0
399	63.46626	36.61515	-27.66478	-49.63387	47.19286	4.88202	-17.08707	137.51023	41.49717	13.01872	-0.81367	0	0
400	63.46626	29.29212	-34.98781	-47.19286	49.63387	-3.25468	-17.08707	139.95124	41.49717	13.01872	-0.81367	0	0
401	61.02525	7.32303	-54.51589	-34.98781	59.39791	-22.78276	-17.08707	142.39225	39.05616	13.01872	-0.81367	-2.44101	0
402	56.14323	-15.45973	-71.60296	-20.34175	64.27993	-42.31084	-17.08707	144.83326	34.17414	10.57771	-0.81367	-4.88202	0
403	48.8202	-32.5468	-81.367	-8.1367	64.27993	-56.9569	-14.64606	152.15629	34.17414	10.57771	1.62734	-4.88202	0
404	43.93818	-49.63387	-93.57205	2.44101	69.16195	-71.60296	-14.64606	154.5973	31.73313	13.01872	1.62734	-4.88202	0
405	41.49717	-59.39791	-100.89508	7.32303	71.60296	-78.92599	-12.20505	152.15629	31.73313	15.45973	4.88202	-4.88202	0
406	39.05616	-69.16195	-108.21811	14.64606	74.04397	-88.69003	-9.76404	142.39225	29.29212	15.45973	4.88202	-4.88202	0
407	39.05616	-74.04397	-113.10013	17.08707	76.48498	-93.57205	-9.76404	135.06922	24.4101	15.45973	4.88202	-4.88202	0
408	39.05616	-74.04397	-113.10013	17.08707	76.48498	-93.57205	-12.20505	127.74619	24.4101	13.01872	4.88202	-7.32303	0
409	41.49717	-74.04397	-115.54114	14.64606	78.92599	-93.57205	-14.64606	127.74619	21.96909	13.01872	4.88202	-7.32303	0
410	43.93818	-76.48498	-120.42316	14.64606	81.367	-98.45407	-14.64606	127.74619	21.96909	10.57771	1.62734	-7.32303	0
411	43.93818	-81.367	-125.30518	17.08707	83.80801	-103.33609	-19.52808	122.86417	17.08707	8.1367	-0.81367	-9.76404	0
412	39.05616	-91.13104	-130.1872	24.4101	83.80801	-110.65912	-26.85111	122.86417	14.64606	2.44101	-5.69569	-14.64606	0
413	31.73313	-103.33609	-135.06922	34.17414	83.80801	-117.98215	-29.29212	120.42316	12.20505	2.44101	-8.1367	-17.08707	0
414	19.52808	-115.54114	-135.06922	46.37919	76.48498	-125.30518	-34.17414	117.98215	9.76404	0	-10.57771	-21.96909	0
415	12.20505	-120.42316	-132.62821	53.70222	71.60296	-125.30518	-39.05616	110.65912	4.88202	-2.44101	-13.01872	-24.4101	0
416	14.64606	-115.54114	-130.1872	48.8202	71.60296	-122.86417	-41.49717	100.89508	4.88202	-2.44101	-13.01872	-24.4101	0
417	17.08707	-108.21811	-125.30518	43.93818	71.60296	-115.54114	-41.49717	93.57205	1.62734	0	-8.1367	-21.96909	0
418	19.52808	-105.7771	-125.30518	41.49717	71.60296	-115.54114	-41.49717	83.80801	1.62734	2.44101	-8.1367	-19.52808	0
419	21.96909	-98.45407	-120.42316	36.61515	71.60296	-108.21811	-41.49717	81.367	1.62734	2.44101	-5.69569	-17.08707	0
420	31.73313	-88.69003	-120.42316	26.85111	76.48498	-103.33609	-41.49717	88.69003	1.62734	2.44101	-3.25468	-12.20505	0
421	39.05616	-81.367	-120.42316	19.52808	78.92599	-100.89508	-41.49717	93.57205	4.88202	8.1367	-0.81367	-7.32303	0
422	41.49717	-83.80801	-125.30518	19.52808	83.80801	-103.33609	-41.49717	98.45407	4.88202	8.1367	-0.81367	-4.88202	0
423	36.61515	-93.57205	-130.1872	26.85111	83.80801	-110.65912	-46.37919	100.89508	1.62734	5.69569	-3.25468	-9.76404	0
424	34.17414	-98.45407	-132.62821	31.73313	83.80801	-115.54114	-51.26121	100.89508	1.62734	2.44101	-8.1367	-14.64606	0
425	31.73313	-100.89508	-132.62821	34.17414	81.367	-115.54114	-53.70222	100.89508	1.62734	2.44101	-8.1367	-14.64606	0
426	29.29212	-105.7771	-135.06922	36.61515	81.367	-120.42316	-56.14323	93.57205	1.62734	2.44101	-8.1367	-14.64606	0
427	24.4101	-113.10013	-137.51023	43.93818	81.367	-125.30518	-56.14323	88.69003	-0.81367	2.44101	-8.1367	-17.08707	0
428	21.96909	-117.98215	-139.95124	46.37919	81.367	-127.74619	-61.02525	81.367	-3.25468	2.44101	-8.1367	-19.52808	0
429	21.96909	-117.98215	-139.95124	46.37919	81.367	-127.74619	-61.02525	83.80801	-3.25468	2.44101	-8.1367	-19.52808	0
430	21.96909	-120.42316	-142.39225	48.8202	81.367	-130.1872	-58.58424	88.69003	-3.25468	2.44101	-8.1367	-19.52808	0
431	21.96909	-125.30518	-147.27427	51.26121	83.80801	-135.06922	-58.58424	91.13104	-3.25468	0	-8.1367	-19.52808	0
432	21.96909	-130.1872	-152.15629	53.70222	86.24902	-139.95124	-58.58424	98.45407	-3.25468	0	-10.57771	-21.96909	0
433	21.96909	-132.62821	-154.5973	53.70222	88.69003	-142.39225	-58.58424	105.7771	-3.25468	0	-10.57771	-21.96909	0
434	21.96909	-127.74619	-149.71528	51.26121	86.24902	-137.51023	-53.70222	113.10013	-0.81367	2.44101	-5.69569	-19.52808	0
435	24.4101	-127.74619	-152.15629	51.26121	88.69003	-139.95124	-51.26121	115.54114	1.62734	5.69569	-3.25468	-19.52808	0
436	24.4101	-122.86417	-147.27427	48.8202	86.24902	-135.06922	-48.8202	108.21811	4.88202	8.1367	-0.81367	-17.08707	0
437	26.85111	-117.98215	-144.83326	43.93818	86.24902	-130.1872	-46.37919	103.33609	7.32303	10.57771	1.62734	-14.64606	0
438	26.85111	-115.54114	-142.39225	43.93818	83.80801	-127.74619	-43.93818	100.89508	12.20505	15.45973	1.62734	-14.64606	0
439	21.96909	-115.54114	-137.51023	46.37919	78.92599	-125.30518	-43.93818	100.89508	14.64606	15.45973	1.62734	-17.08707	0
440	19.52808	-115.54114	-135.06922	46.37919	76.48498	-125.30518	-43.93818	105.7771	14.64606	15.45973	1.62734	-21.96909	0
441	14.64606	-122.86417	-137.51023	53.70222	76.48498	-130.1872	-43.93818	105.7771	17.08707	15.45973	-0.81367	-26.85111	0
442	17.08707	-120.42316	-137.51023	51.26121	76.48498	-127.74619	-41.49717	113.10013	17.08707	15.45973	-0.81367	-29.29212	0
443	17.08707	-120.42316	-137.51023	51.26121	76.48498	-127.74619	-39.05616	122.86417	17.08707	15.45973	-0.81367	-31.73313	0
444	19.52808	-115.54114	-135.06922	46.37919	76.48498	-125.30518	-39.05616	127.74619	17.08707	15.45973	-3.25468	-34.17414	0
445	26.85111	-103.33609	-130.1872	36.61515	78.92599	-115.54114	-34.17414	130.1872	17.08707	17.90074	-0.81367	-34.17414	0
446	34.17414	-93.57205	-127.74619	29.29212	81.367	-110.65912	-29.29212	127.74619	17.08707	22.78276	1.62734	-31.73313	0
447	41.49717	-88.69003	-130.1872	21.96909	86.24902	-108.21811	-26.85111	125.30518	17.08707	22.78276	1.62734	-29.29212	0
448	46.37919	-83.80801	-130.1872	17.08707	88.69003	-105.7771	-26.85111	125.30518	17.08707	25.22377	4.88202	-29.29212	0
449	46.37919	-83.80801	-130.1872	17.08707	88.69003	-105.7771	-26.85111	125.30518	14.64606	22.78276	1.62734	-31.73313	0
450	51.26121	-86.24902	-137.51023	17.08707	93.57205	-110.65912	-26.85111	127.74619	14.64606	17.90074	-0.81367	-36.61515	0
451	51.26121	-91.13104	-142.39225	19.52808	96.01306	-115.54114	-21.96909	132.62821	17.08707	17.90074	-3.25468	-36.61515	0
452	48.8202	-98.45407	-147.27427	24.4101	98.45407	-122.86417	-17.08707	139.95124	21.96909	17.90074	-3.25468	-36.61515	0
453	43.93818	-105.7771	-149.71528	29.29212	96.01306	-127.74619	-7.32303	147.27427	26.85111	17.90074	-3.25468	-36.61515	0
454	41.49717	-110.65912	-152.15629	34.17414	96.01306	-130.1872	8.1367	152.15629	29.29212	17.90074	-3.25468	-36.61515	0
455	36.61515	-115.54114	-152.15629	39.05616	93.57205	-132.62821	27.66478	152.15629	34.17414	20.34175	1.62734	-36.61515	0
456	29.29212	-122.86417	-152.15629	46.37919	91.13104	-137.51023	49.63387	147.27427	39.05616	25.22377	4.88202	-31.73313	0
457	19.52808	-127.74619	-147.27427	53.70222	83.80801	-137.51023	69.16195	142.39225	41.49717	27.66478	7.32303	-24.4101	0
458	17.08707	-132.62821	-149.71528	56.14323	83.80801	-139.95124	86.24902	137.51023	41.49717	30.10579	9.76404	-21.96909	0
459	17.08707	-132.62821	-149.71528	56.14323	83.80801	-139.95124	100.89508	135.06922	41.49717	30.10579	9.76404	-19.52808	0
460	17.08707	-130.1872	-147.27427	56.14323	81.367	-137.51023	110.65912	139.95124	41.49717	30.10579	9.76404	-17.08707	0
461	21.96909	-125.30518	-147.27427	51.26121	83.80801	-135.06922	115.54114	142.39225	43.93818	32.5468	9.76404	-14.64606	0
462	26.85111	-120.42316	-147.27427	46.37919	86.24902	-132.62821	117.98215	147.27427	43.93818	34.98781	9.76404	-12.20505	0
463	34.17414	-113.10013	-147.27427	39.05616	91.13104	-130.1872	117.98215	149.71528	46.37919	34.98781	9.76404	-12.20505	0
464	34.17414	-113.10013	-147.27427	39.05616	91.13104	-130.1872	117.98215	149.71528	46.37919	32.5468	9.76404	-12.20505	0
465	34.17414	-110.65912	-144.83326	36.61515	88.69003	-127.74619	120.42316	147.27427	48.8202	34.98781	9.76404	-9.76404	0
466	34.17414	-108.21811	-142.39225	36.61515	88.69003	-125.30518	125.30518	142.39225	53.70222	34.98781	9.76404	-4.88202	0
467	34.17414	-108.21811	-142.39225	36.61515	88.69003	-125.30518	125.30518	132.62821	53.70222	34.98781	9.76404	-2.44101	0
468	29.29212	-105.7771	-135.06922	36.61515	81.367	-120.42316	125.30518	127.74619	56.14323	32.5468	7.32303	-2.44101	0
469	26.85111	-103.33609	-130.1872	36.61515	78.92599	-115.54114	125.30518	125.30518	56.14323	30.10579	1.62734	0	0
470	24.4101	-98.45407	-122.86417	36.61515	74.04397	-110.65912	127.74619	130.1872	56.14323	27.66478	1.62734	0	0
471	29.29212	-96.01306	-125.30518	31.73313	76.48498	-110.65912	127.74619	132.62821	53.70222	25.22377	-3.25468	0	0
472	29.29212	-98.45407	-127.74619	34.17414	78.92599	-113.10013	127.74619	135.06922	53.70222	20.34175	-8.1367	0	0
473	31.73313	-100.89508	-132.62821	34.17414	81.367	-115.54114	127.74619	137.51023	53.70222	17.90074	-8.1367	0	0
474	31.73313	-103.33609	-135.06922	34.17414	83.80801	-117.98215	127.74619	139.95124	53.70222	15.45973	-10.57771	0	0
475	34.17414	-110.65912	-144.83326	36.61515	88.69003	-127.74619	127.74619	137.51023	58.58424	15.45973	-10.57771	3.25468	0
476	34.17414	-120.42316	-154.5973	41.49717	93.57205	-137.51023	130.1872	125.30518	58.58424	15.45973	-10.57771	5.69569	0
477	36.61515	-127.74619	-164.36134	43.93818	100.89508	-144.83326	125.30518	115.54114	58.58424	15.45973	-8.1367	8.1367	0
478	36.61515	-132.62821	-169.24336	46.37919	103.33609	-149.71528	122.86417	105.7771	58.58424	15.45973	-8.1367	8.1367	0
479	34.17414	-137.51023	-171.68437	51.26121	103.33609	-154.5973	120.42316	98.45407	56.14323	13.01872	-10.57771	3.25468	0
480	29.29212	-142.39225	-171.68437	56.14323	100.89508	-157.03831	117.98215	98.45407	53.70222	13.01872	-13.01872	0	0
481	26.85111	-144.83326	-171.68437	58.58424	98.45407	-157.03831	117.98215	96.01306	53.70222	10.57771	-13.01872	-2.44101	0
482	31.73313	-137.51023	-169.24336	51.26121	100.89508	-152.15629	117.98215	98.45407	51.26121	10.57771	-13.01872	-7.32303	0
483	34.17414	-130.1872	-164.36134	46.37919	98.45407	-147.27427	120.42316	103.33609	51.26121	10.57771	-10.57771	-7.32303	0
484	39.05616	-120.42316	-159.47932	39.05616	98.45407	-139.95124	120.42316	105.7771	51.26121	13.01872	-10.57771	-7.32303	0
485	41.49717	-110.65912	-152.15629	34.17414	96.01306	-130.1872	120.42316	105.7771	46.37919	13.01872	-8.1367	-7.32303	0
486	48.8202	-98.45407	-147.27427	24.4101	98.45407	-122.86417	117.98215	98.45407	46.37919	13.01872	-5.69569	-7.32303	0
487	56.14323	-91.13104	-147.27427	17.08707	100.89508	-117.98215	115.54114	91.13104	41.49717	13.01872	-5.69569	-7.32303	0
488	56.14323	-88.69003	-144.83326	14.64606	100.89508	-115.54114	113.10013	83.80801	36.61515	10.57771	-5.69569	-9.76404	0
489	56.14323	-88.69003	-144.83326	14.64606	100.89508	-115.54114	110.65912	78.92599	31.73313	8.1367	-5.69569	-12.20505	0
490	48.8202	-91.13104	-139.95124	19.52808	93.57205	-115.54114	108.21811	78.92599	26.85111	5.69569	-3.25468	-17.08707	0
491	43.93818	-100.89508	-144.83326	26.85111	93.57205	-122.86417	108.21811	76.48498	24.4101	5.69569	-3.25468	-21.96909	0
492	39.05616	-105.7771	-144.83326	31.73313	91.13104	-125.30518	108.21811	78.92599	19.52808	2.44101	-3.25468	-26.85111	0
493	34.17414	-110.65912	-144.83326	36.61515	88.69003	-127.74619	108.21811	78.92599	14.64606	2.44101	-5.69569	-31.73313	0
494	29.29212	-115.54114	-144.83326	41.49717	86.24902	-130.1872	108.21811	78.92599	14.64606	0	-5.69569	-34.17414	0
495	24.4101	-122.86417	-147.27427	48.8202	86.24902	-135.06922	110.65912	78.92599	14.64606	2.44101	-5.69569	-36.61515	0
496	21.96909	-127.74619	-149.71528	51.26121	86.24902	-137.51023	110.65912	71.60296	14.64606	2.44101	-5.69569	-36.61515	0
497	26.85111	-127.74619	-154.5973	48.8202	91.13104	-139.95124	115.54114	66.72094	17.08707	5.69569	-5.69569	-36.61515	0
498	31.73313	-125.30518	-157.03831	46.37919	93.57205	-139.95124	115.54114	64.27993	21.96909	8.1367	-3.25468	-36.61515	0
499	39.05616	-122.86417	-161.92033	41.49717	100.89508	-142.39225	117.98215	66.72094	21.96909	10.57771	-0.81367	-36.61515	0
500	43.93818	-125.30518	-169.24336	39.05616	105.7771	-147.27427	117.98215	71.60296	24.4101	10.57771	1.62734	-36.61515	0
501	43.93818	-127.74619	-171.68437	41.49717	108.21811	-149.71528	117.98215	71.60296	21.96909	10.57771	1.62734	-36.61515	0
502	51.26121	-127.74619	-179.0074	36.61515	115.54114	-152.15629	117.98215	76.48498	19.52808	10.57771	1.62734	-36.61515	0
503	51.26121	-127.74619	-179.0074	36.61515	115.54114	-152.15629	120.42316	78.92599	17.08707	8.1367	1.62734	-39.05616	0
504	56.14323	-130.1872	-186.33043	36.61515	120.42316	-157.03831	120.42316	83.80801	17.08707	5.69569	1.62734	-39.05616	0
505	58.58424	-130.1872	-188.77144	34.17414	122.86417	-159.47932	120.42316	83.80801	14.64606	5.69569	-0.81367	-41.49717	0
506	58.58424	-130.1872	-188.77144	34.17414	122.86417	-159.47932	120.42316	78.92599	14.64606	5.69569	-0.81367	-43.93818	0
507	63.46626	-120.42316	-183.88942	26.85111	122.86417	-152.15629	120.42316	71.60296	12.20505	5.69569	-0.81367	-43.93818	0
508	63.46626	-110.65912	-174.12538	21.96909	117.98215	-142.39225	120.42316	66.72094	9.76404	5.69569	-0.81367	-43.93818	0
509	63.46626	-108.21811	-171.68437	21.96909	117.98215	-139.95124	117.98215	61.83892	9.76404	5.69569	-3.25468	-41.49717	0
510	61.02525	-108.21811	-169.24336	21.96909	115.54114	-137.51023	113.10013	61.83892	4.88202	5.69569	-3.25468	-41.49717	0
511	53.70222	-110.65912	-164.36134	26.85111	108.21811	-137.51023	110.65912	59.39791	4.88202	5.69569	-0.81367	-39.05616	0
512	53.70222	-110.65912	-164.36134	26.85111	108.21811	-137.51023	108.21811	61.83892	4.88202	5.69569	-0.81367	-36.61515	0
513	51.26121	-115.54114	-166.80235	31.73313	108.21811	-139.95124	108.21811	64.27993	1.62734	5.69569	-0.81367	-34.17414	0
514	51.26121	-122.86417	-174.12538	34.17414	113.10013	-147.27427	108.21811	66.72094	1.62734	8.1367	-0.81367	-29.29212	0
515	51.26121	-125.30518	-176.56639	36.61515	113.10013	-149.71528	108.21811	66.72094	1.62734	8.1367	-0.81367	-26.85111	0
516	43.93818	-125.30518	-169.24336	39.05616	105.7771	-147.27427	108.21811	64.27993	1.62734	8.1367	-3.25468	-26.85111	0
517	43.93818	-125.30518	-169.24336	39.05616	105.7771	-147.27427	108.21811	56.9569	-0.81367	8.1367	-3.25468	-26.85111	0
518	36.61515	-127.74619	-164.36134	43.93818	100.89508	-144.83326	108.21811	54.51589	-3.25468	5.69569	-5.69569	-26.85111	0
519	34.17414	-130.1872	-164.36134	46.37919	98.45407	-147.27427	108.21811	54.51589	-5.69569	5.69569	-5.69569	-26.85111	0
520	31.73313	-132.62821	-164.36134	48.8202	98.45407	-147.27427	108.21811	54.51589	-5.69569	5.69569	-5.69569	-24.4101	0
521	31.73313	-132.62821	-164.36134	48.8202	98.45407	-147.27427	105.7771	54.51589	-5.69569	5.69569	-5.69569	-24.4101	0
522	34.17414	-130.1872	-164.36134	46.37919	98.45407	-147.27427	105.7771	59.39791	-3.25468	5.69569	-5.69569	-24.4101	0
523	39.05616	-130.1872	-169.24336	43.93818	103.33609	-149.71528	105.7771	61.83892	-0.81367	8.1367	-5.69569	-21.96909	0
524	41.49717	-135.06922	-176.56639	46.37919	108.21811	-154.5973	105.7771	61.83892	-0.81367	8.1367	-8.1367	-21.96909	0
525	43.93818	-137.51023	-181.44841	46.37919	113.10013	-159.47932	105.7771	64.27993	-0.81367	8.1367	-8.1367	-19.52808	0
526	39.05616	-139.95124	-179.0074	48.8202	108.21811	-159.47932	103.33609	59.39791	-3.25468	5.69569	-8.1367	-19.52808	0
527	29.29212	-144.83326	-174.12538	56.14323	100.89508	-159.47932	103.33609	52.07488	-5.69569	2.44101	-8.1367	-21.96909	0
528	17.08707	-152.15629	-169.24336	65.90727	93.57205	-159.47932	100.89508	47.19286	-5.69569	2.44101	-8.1367	-21.96909	0
529	7.32303	-154.5973	-161.92033	73.2303	83.80801	-157.03831	100.89508	42.31084	-8.1367	2.44101	-5.69569	-21.96909	0
530	9.76404	-149.71528	-159.47932	68.34828	83.80801	-154.5973	103.33609	44.75185	-5.69569	5.69569	-3.25468	-19.52808	0
531	12.20505	-139.95124	-152.15629	63.46626	81.367	-144.83326	105.7771	47.19286	-5.69569	8.1367	-0.81367	-19.52808	0
532	12.20505	-132.62821	-144.83326	58.58424	78.92599	-137.51023	105.7771	47.19286	-3.25468	8.1367	-0.81367	-19.52808	0
533	14.64606	-125.30518	-139.95124	53.70222	76.48498	-132.62821	105.7771	49.63387	-3.25468	8.1367	-0.81367	-19.52808	0
534	26.85111	-115.54114	-142.39225	43.93818	83.80801	-127.74619	108.21811	52.07488	-0.81367	10.57771	-0.81367	-19.52808	0
535	36.61515	-113.10013	-149.71528	36.61515	93.57205	-130.1872	110.65912	54.51589	1.62734	13.01872	1.62734	-17.08707	0
536	39.05616	-113.10013	-152.15629	36.61515	96.01306	-132.62821	110.65912	52.07488	1.62734	15.45973	1.62734	-17.08707	0
537	31.73313	-120.42316	-152.15629	43.93818	91.13104	-135.06922	108.21811	44.75185	1.62734	15.45973	1.62734	-19.52808	0
538	29.29212	-125.30518	-154.5973	46.37919	91.13104	-139.95124	105.7771	39.86983	1.62734	15.45973	1.62734	-19.52808	0
539	34.17414	-125.30518	-159.47932	43.93818	96.01306	-142.39225	105.7771	37.42882	1.62734	15.45973	1.62734	-19.52808	0
540	34.17414	-125.30518	-159.47932	43.93818	96.01306	-142.39225	108.21811	39.86983	4.88202	15.45973	1.62734	-19.52808	0
541	34.17414	-120.42316	-154.5973	41.49717	93.57205	-137.51023	110.65912	42.31084	4.88202	17.90074	1.62734	-17.08707	0
542	34.17414	-110.65912	-144.83326	36.61515	88.69003	-127.74619	110.65912	42.31084	4.88202	15.45973	1.62734	-17.08707	0
543	31.73313	-108.21811	-139.95124	36.61515	86.24902	-122.86417	108.21811	44.75185	4.88202	15.45973	1.62734	-19.52808	0
544	31.73313	-113.10013	-144.83326	39.05616	88.69003	-127.74619	110.65912	47.19286	7.32303	15.45973	1.62734	-19.52808	0
545	29.29212	-120.42316	-149.71528	43.93818	88.69003	-135.06922	110.65912	47.19286	9.76404	13.01872	1.62734	-19.52808	0
546	24.4101	-130.1872	-154.5973	51.26121	88.69003	-142.39225	110.65912	44.75185	9.76404	13.01872	1.62734	-19.52808	0
547	17.08707	-139.95124	-157.03831	61.02525	86.24902	-147.27427	110.65912	37.42882	7.32303	10.57771	1.62734	-24.4101	0
548	14.64606	-142.39225	-157.03831	63.46626	86.24902	-149.71528	110.65912	32.5468	1.62734	5.69569	1.62734	-24.4101	0
549	19.52808	-142.39225	-161.92033	61.02525	91.13104	-152.15629	110.65912	27.66478	1.62734	5.69569	-0.81367	-26.85111	0
550	24.4101	-137.51023	-161.92033	56.14323	93.57205	-149.71528	110.65912	27.66478	1.62734	2.44101	-3.25468	-26.85111	0
551	24.4101	-125.30518	-149.71528	48.8202	86.24902	-137.51023	110.65912	27.66478	1.62734	2.44101	-3.25468	-26.85111	0
552	24.4101	-117.98215	-142.39225	46.37919	83.80801	-130.1872	110.65912	30.10579	1.62734	2.44101	-0.81367	-26.85111	0
553	26.85111	-113.10013	-139.95124	41.49717	83.80801	-125.30518	117.98215	34.98781	4.88202	5.69569	1.62734	-21.96909	0
554	26.85111	-108.21811	-135.06922	39.05616	81.367	-120.42316	122.86417	42.31084	9.76404	13.01872	9.76404	-17.08707	0
555	24.4101	-110.65912	-135.06922	41.49717	78.92599	-122.86417	127.74619	49.63387	17.08707	17.90074	14.64606	-14.64606	0
556	24.4101	-108.21811	-132.62821	41.49717	78.92599	-120.42316	135.06922	49.63387	21.96909	22.78276	21.96909	-12.20505	0
557	26.85111	-103.33609	-130.1872	36.61515	78.92599	-115.54114	142.39225	49.63387	26.85111	27.66478	26.85111	-7.32303	0
558	26.85111	-98.45407	-125.30518	34.17414	76.48498	-110.65912	144.83326	52.07488	31.73313	32.5468	29.29212	-4.88202	0
559	31.73313	-88.69003	-120.42316	26.85111	76.48498	-103.33609	149.71528	54.51589	34.17414	34.98781	31.73313	-2.44101	0
560	36.61515	-78.92599	-115.54114	19.52808	76.48498	-96.01306	154.5973	61.83892	36.61515	37.42882	34.17414	0	0
561	39.05616	-69.16195	-108.21811	14.64606	74.04397	-88.69003	159.47932	66.72094	39.05616	39.86983	36.61515	0	0
562	39.05616	-64.27993	-103.33609	12.20505	71.60296	-83.80801	161.92033	74.04397	41.49717	39.86983	36.61515	0	0
563	39.05616	-61.83892	-100.89508	9.76404	69.16195	-81.367	161.92033	76.48498	39.05616	37.42882	31.73313	-2.44101	0
564	41.49717	-59.39791	-100.89508	7.32303	71.60296	-78.92599	161.92033	81.367	39.05616	37.42882	29.29212	-2.44101	0
565	43.93818	-54.51589	-98.45407	4.88202	71.60296	-76.48498	161.92033	86.24902	41.49717	34.98781	26.85111	-2.44101	0
566	48.8202	-44.75185	-93.57205	-3.25468	71.60296	-69.16195	164.36134	88.69003	41.49717	34.98781	24.4101	-4.88202	0
567	48.8202	-44.75185	-93.57205	-3.25468	71.60296	-69.16195	159.47932	83.80801	39.05616	32.5468	21.96909	-7.32303	0
568	53.70222	-42.31084	-96.01306	-5.69569	74.04397	-69.16195	154.5973	81.367	36.61515	30.10579	19.52808	-7.32303	0
569	58.58424	-32.5468	-91.13104	-13.01872	74.04397	-61.83892	152.15629	81.367	36.61515	30.10579	19.52808	-4.88202	0
570	63.46626	-17.90074	-81.367	-22.78276	71.60296	-49.63387	152.15629	86.24902	36.61515	32.5468	24.4101	0	0
571	68.34828	-3.25468	-71.60296	-32.5468	69.16195	-37.42882	154.5973	93.57205	39.05616	37.42882	26.85111	5.69569	0
572	70.78929	2.44101	-69.16195	-37.42882	71.60296	-32.5468	154.5973	98.45407	39.05616	37.42882	29.29212	10.57771	0
573	68.34828	7.32303	-61.83892	-37.42882	66.72094	-27.66478	152.15629	98.45407	34.17414	34.98781	26.85111	10.57771	0
574	70.78929	12.20505	-59.39791	-42.31084	66.72094	-22.78276	147.27427	100.89508	29.29212	34.98781	24.4101	13.01872	0
575	70.78929	14.64606	-56.9569	-42.31084	64.27993	-20.34175	142.39225	100.89508	24.4101	30.10579	21.96909	13.01872	0
576	68.34828	12.20505	-56.9569	-39.86983	64.27993	-22.78276	137.51023	93.57205	17.08707	25.22377	19.52808	10.57771	0
577	68.34828	9.76404	-59.39791	-39.86983	64.27993	-25.22377	130.1872	83.80801	9.76404	20.34175	9.76404	5.69569	0
578	70.78929	7.32303	-64.27993	-39.86983	69.16195	-27.66478	117.98215	74.04397	-0.81367	10.57771	1.62734	-2.44101	0
579	78.11232	12.20505	-66.72094	-44.75185	74.04397	-27.66478	108.21811	64.27993	-8.1367	2.44101	-5.69569	-7.32303	0
580	85.43535	17.08707	-69.16195	-52.07488	78.92599	-25.22377	103.33609	61.83892	-15.45973	-2.44101	-10.57771	-12.20505	0
581	92.75838	17.08707	-76.48498	-54.51589	86.24902	-30.10579	98.45407	59.39791	-22.78276	-7.32303	-17.90074	-17.08707	0
582	97.6404	17.08707	-81.367	-56.9569	91.13104	-32.5468	91.13104	56.9569	-27.66478	-14.64606	-25.22377	-24.4101	0
583	97.6404	17.08707	-81.367	-56.9569	91.13104	-32.5468	88.69003	56.9569	-32.5468	-19.52808	-30.10579	-26.85111	0
584	95.19939	17.08707	-78.92599	-56.9569	88.69003	-30.10579	86.24902	54.51589	-32.5468	-19.52808	-30.10579	-26.85111	0
585	92.75838	19.52808	-74.04397	-56.9569	83.80801	-27.66478	83.80801	52.07488	-32.5468	-21.96909	-30.10579	-24.4101	0
586	90.31737	17.08707	-74.04397	-54.51589	83.80801	-27.66478	83.80801	49.63387	-32.5468	-21.96909	-30.10579	-24.4101	0
587	85.43535	17.08707	-69.16195	-52.07488	78.92599	-25.22377	81.367	42.31084	-30.10579	-21.96909	-30.10579	-21.96909	0
588	80.55333	14.64606	-66.72094	-47.19286	74.04397	-25.22377	81.367	42.31084	-27.66478	-19.52808	-27.66478	-19.52808	0
589	80.55333	14.64606	-66.72094	-47.19286	74.04397	-25.22377	83.80801	42.31084	-22.78276	-17.08707	-25.22377	-14.64606	0
590	82.99434	14.64606	-69.16195	-49.63387	76.48498	-27.66478	83.80801	44.75185	-17.90074	-14.64606	-22.78276	-12.20505	0
591	78.11232	7.32303	-71.60296	-42.31084	76.48498	-32.5468	83.80801	44.75185	-15.45973	-14.64606	-20.34175	-9.76404	0
592	73.2303	-3.25468	-76.48498	-34.98781	74.04397	-39.86983	86.24902	44.75185	-13.01872	-12.20505	-17.90074	-7.32303	0
593	73.2303	-5.69569	-78.92599	-34.98781	76.48498	-42.31084	86.24902	47.19286	-8.1367	-7.32303	-15.45973	-4.88202	0
594	73.2303	-0.81367	-74.04397	-37.42882	74.04397	-37.42882	88.69003	47.19286	-5.69569	-2.44101	-10.57771	0	0
595	63.46626	-5.69569	-69.16195	-30.10579	66.72094	-37.42882	86.24902	39.86983	-3.25468	-2.44101	-5.69569	0	0
596	48.8202	-17.90074	-66.72094	-15.45973	56.9569	-42.31084	83.80801	30.10579	-3.25468	-2.44101	-5.69569	0	0
597	41.49717	-27.66478	-69.16195	-8.1367	54.51589	-47.19286	81.367	19.52808	-3.25468	0	-3.25468	3.25468	0
598	34.17414	-32.5468	-66.72094	-0.81367	49.63387	-49.63387	81.367	17.08707	-3.25468	0	-0.81367	5.69569	0
599	24.4101	-42.31084	-66.72094	7.32303	44.75185	-54.51589	81.367	12.20505	-5.69569	0	-0.81367	8.1367	0
600	7.32303	-54.51589	-61.83892	21.96909	34.98781	-56.9569	76.48498	7.32303	-8.1367	-4.88202	-3.25468	5.69569	0
601	-0.81367	-64.27993	-64.27993	31.73313	32.5468	-64.27993	76.48498	7.32303	-8.1367	-7.32303	-3.25468	3.25468	0
602	-5.69569	-74.04397	-69.16195	39.05616	32.5468	-71.60296	76.48498	9.76404	-8.1367	-7.32303	-3.25468	3.25468	0
603	-10.57771	-81.367	-71.60296	43.93818	30.10579	-76.48498	76.48498	9.76404	-8.1367	-7.32303	-3.25468	0	0
604	-20.34175	-91.13104	-71.60296	53.70222	25.22377	-81.367	71.60296	9.76404	-3.25468	-2.44101	-3.25468	0	0
605	-25.22377	-96.01306	-71.60296	58.58424	22.78276	-83.80801	66.72094	7.32303	-3.25468	-2.44101	-0.81367	0	0
606	-27.66478	-100.89508	-74.04397	63.46626	22.78276	-88.69003	61.83892	0	-3.25468	-2.44101	-0.81367	-2.44101	0
607	-27.66478	-105.7771	-78.92599	65.90727	25.22377	-93.57205	56.9569	-7.32303	-5.69569	-2.44101	-0.81367	-2.44101	0
608	-27.66478	-100.89508	-74.04397	63.46626	22.78276	-88.69003	54.51589	-14.64606	-5.69569	-2.44101	-0.81367	-4.88202	0
609	-27.66478	-100.89508	-74.04397	63.46626	22.78276	-88.69003	54.51589	-19.52808	-8.1367	-2.44101	-0.81367	-4.88202	0
610	-25.22377	-96.01306	-71.60296	58.58424	22.78276	-83.80801	54.51589	-19.52808	-10.57771	-4.88202	-3.25468	-7.32303	0
611	-22.78276	-93.57205	-71.60296	56.14323	25.22377	-83.80801	52.07488	-19.52808	-15.45973	-9.76404	-5.69569	-9.76404	0
612	-22.78276	-96.01306	-74.04397	58.58424	25.22377	-86.24902	54.51589	-19.52808	-15.45973	-9.76404	-5.69569	-9.76404	0
613	-22.78276	-98.45407	-76.48498	58.58424	27.66478	-88.69003	59.39791	-14.64606	-13.01872	-7.32303	-0.81367	-7.32303	0
614	-25.22377	-100.89508	-76.48498	61.02525	25.22377	-88.69003	59.39791	-14.64606	-8.1367	-7.32303	1.62734	-7.32303	-1250	T-0
615	-30.10579	-103.33609	-74.04397	65.90727	22.78276	-88.69003	56.9569	-14.64606	-5.69569	-7.32303	1.62734	-9.76404	0
616	-37.42882	-108.21811	-71.60296	70.78929	17.90074	-91.13104	56.9569	-19.52808	-3.25468	-7.32303	4.88202	-12.20505	0
617	-44.75185	-113.10013	-69.16195	78.11232	13.01872	-91.13104	56.9569	-24.4101	1.62734	-4.88202	12.20505	-12.20505	0
618	-44.75185	-113.10013	-69.16195	78.11232	13.01872	-91.13104	52.07488	-29.29212	7.32303	-4.88202	12.20505	-14.64606	0
619	-44.75185	-113.10013	-69.16195	78.11232	13.01872	-91.13104	52.07488	-31.73313	9.76404	-2.44101	14.64606	-19.52808	0
620	-42.31084	-110.65912	-69.16195	75.67131	13.01872	-91.13104	49.63387	-31.73313	12.20505	-2.44101	14.64606	-21.96909	0
621	-39.86983	-110.65912	-71.60296	73.2303	15.45973	-91.13104	49.63387	-29.29212	14.64606	-2.44101	12.20505	-24.4101	0
622	-42.31084	-113.10013	-71.60296	75.67131	15.45973	-93.57205	49.63387	-26.85111	14.64606	-4.88202	9.76404	-26.85111	0
623	-44.75185	-113.10013	-69.16195	78.11232	13.01872	-91.13104	47.19286	-24.4101	12.20505	-4.88202	9.76404	-29.29212	0
624	-52.07488	-120.42316	-69.16195	85.43535	8.1367	-96.01306	44.75185	-21.96909	9.76404	-7.32303	7.32303	-29.29212	0
625	-52.07488	-125.30518	-74.04397	87.87636	10.57771	-100.89508	44.75185	-17.08707	9.76404	-7.32303	9.76404	-26.85111	0
626	-56.9569	-130.1872	-74.04397	92.75838	8.1367	-103.33609	44.75185	-19.52808	9.76404	-9.76404	9.76404	-26.85111	0
627	-64.27993	-135.06922	-71.60296	97.6404	3.25468	-103.33609	47.19286	-21.96909	12.20505	-9.76404	12.20505	-21.96909	0
628	-66.72094	-137.51023	-71.60296	100.08141	3.25468	-105.7771	54.51589	-14.64606	19.52808	-4.88202	14.64606	-17.08707	0
629	-59.39791	-137.51023	-78.92599	97.6404	10.57771	-108.21811	64.27993	-4.88202	26.85111	2.44101	19.52808	-12.20505	0
630	-56.9569	-137.51023	-81.367	95.19939	13.01872	-110.65912	78.92599	17.08707	34.17414	8.1367	24.4101	-7.32303	0
631	-59.39791	-132.62821	-74.04397	95.19939	8.1367	-103.33609	96.01306	42.31084	43.93818	15.45973	26.85111	-2.44101	0
632	-59.39791	-127.74619	-69.16195	92.75838	5.69569	-98.45407	122.86417	83.80801	56.14323	25.22377	31.73313	0	0
633	-59.39791	-117.98215	-59.39791	87.87636	0	-88.69003	157.03831	135.06922	75.67131	39.86983	41.49717	8.1367	0
634	-54.51589	-108.21811	-54.51589	80.55333	0	-81.367	193.65346	191.21245	95.19939	56.9569	48.8202	13.01872	0
635	-54.51589	-103.33609	-49.63387	78.11232	-2.44101	-76.48498	232.70962	252.2377	114.72747	71.60296	58.58424	17.90074	0
636	-52.07488	-98.45407	-47.19286	73.2303	-2.44101	-74.04397	271.76578	308.38093	136.69656	86.24902	65.90727	20.34175	0
637	-42.31084	-98.45407	-56.9569	68.34828	8.1367	-78.92599	308.38093	357.20113	158.66565	100.89508	70.78929	20.34175	0
638	-22.78276	-93.57205	-71.60296	56.14323	25.22377	-83.80801	337.67305	401.13931	178.19373	108.21811	70.78929	17.90074	0
639	4.88202	-86.24902	-91.13104	39.05616	47.19286	-88.69003	354.76012	442.63648	183.07575	110.65912	63.46626	8.1367	0
640	46.37919	-64.27993	-110.65912	7.32303	78.92599	-86.24902	354.76012	491.45668	175.75272	100.89508	48.8202	-7.32303	0
641	102.52242	-22.78276	-125.30518	-39.86983	113.10013	-74.04397	340.11406	535.39486	158.66565	81.367	24.4101	-26.85111	0
642	170.8707	43.93818	-127.74619	-108.21811	149.71528	-42.31084	318.14497	584.21506	134.25555	56.9569	-0.81367	-48.8202	0
643	248.98302	134.25555	-115.54114	-191.21245	183.88942	9.76404	286.41184	637.91728	107.40444	32.5468	-27.66478	-68.34828	0
644	329.53635	241.65999	-88.69003	-286.41184	210.74053	78.11232	249.79669	686.73748	75.67131	5.69569	-54.51589	-87.87636	0
645	397.88463	356.38746	-42.31084	-376.72921	220.50457	158.66565	210.74053	723.35263	48.8202	-17.08707	-78.92599	-104.96343	0
646	454.02786	449.14584	-5.69569	-452.40052	230.26861	222.13191	174.12538	730.67566	26.85111	-34.17414	-98.45407	-114.72747	0
647	485.76099	512.6121	26.85111	-498.77971	230.26861	270.95211	152.15629	720.91162	21.96909	-39.05616	-100.89508	-112.28646	0
648	480.87897	544.34523	63.46626	-513.42577	210.74053	305.12625	137.51023	676.97344	26.85111	-26.85111	-86.24902	-95.19939	0
649	434.49978	544.34523	109.84545	-489.01567	164.36134	327.09534	117.98215	581.77405	36.61515	-4.88202	-59.39791	-63.46626	0
650	349.06443	507.73008	158.66565	-427.99042	96.01306	334.41837	93.57205	420.66739	48.8202	20.34175	-20.34175	-21.96909	0
651	234.33696	444.26382	209.92686	-340.11406	13.01872	327.09534	59.39791	196.09447	58.58424	49.63387	19.52808	25.22377	0
652	100.08141	363.71049	263.62908	-232.70962	-80.55333	314.89029	15.45973	-56.14323	61.02525	74.04397	65.90727	76.48498	0
653	-32.5468	285.59817	317.3313	-127.74619	-173.31171	300.24423	-34.17414	-314.89029	56.14323	96.01306	104.96343	122.86417	0
654	-139.95124	217.24989	356.38746	-39.86983	-246.54201	285.59817	-97.6404	-558.99129	39.05616	98.45407	129.37353	154.5973	0
655	-222.94558	153.78363	375.91554	34.17414	-297.80322	263.62908	-156.22464	-764.03613	17.08707	96.01306	139.13757	171.68437	0
656	-279.08881	102.52242	380.79756	87.87636	-329.53635	241.65999	-202.60383	-912.93774	-3.25468	88.69003	146.4606	181.44841	0
657	-308.38093	63.46626	371.03352	122.0505	-339.30039	217.24989	-231.89595	-983.72703	-17.90074	81.367	148.90161	186.33043	0
658	-313.26295	41.49717	353.94645	134.25555	-331.97736	197.72181	-241.65999	-986.16804	-22.78276	78.92599	151.34262	188.77144	0
659	-310.82194	26.85111	336.85938	141.57858	-322.21332	180.63474	-231.89595	-947.11188	-20.34175	78.92599	153.78363	191.21245	0
660	-305.93992	24.4101	329.53635	139.13757	-317.3313	175.75272	-205.04484	-878.7636	-5.69569	86.24902	163.54767	196.09447	0
661	-298.61689	21.96909	319.77231	136.69656	-307.56726	170.8707	-170.8707	-800.65128	12.20505	98.45407	170.8707	200.97649	0
662	-288.85285	21.96909	310.00827	131.81454	-297.80322	165.98868	-134.25555	-710.33391	29.29212	103.33609	173.31171	198.53548	0
663	-271.76578	24.4101	295.36221	122.0505	-283.15716	158.66565	-95.19939	-615.13452	43.93818	105.7771	168.42969	188.77144	0
664	-252.2377	21.96909	273.39312	114.72747	-261.18807	146.4606	-58.58424	-519.93513	53.70222	100.89508	156.22464	171.68437	0
665	-232.70962	14.64606	246.54201	107.40444	-239.21898	129.37353	-24.4101	-432.05877	58.58424	91.13104	139.13757	149.71528	0
666	-205.85851	7.32303	212.36787	97.6404	-207.48585	109.84545	-2.44101	-363.71049	56.14323	74.04397	114.72747	125.30518	0
667	-191.21245	-3.25468	187.95777	95.19939	-190.39878	92.75838	13.01872	-314.89029	51.26121	56.9569	90.31737	98.45407	0
668	-179.0074	-13.01872	165.98868	95.19939	-173.31171	75.67131	22.78276	-280.71615	43.93818	37.42882	68.34828	74.04397	0
669	-171.68437	-22.78276	148.90161	95.19939	-161.10666	63.46626	30.10579	-258.74706	36.61515	25.22377	51.26121	56.9569	0
670	-164.36134	-30.10579	134.25555	95.19939	-148.90161	51.26121	30.10579	-244.101	31.73313	13.01872	36.61515	44.75185	0
671	-157.03831	-30.10579	126.93252	92.75838	-141.57858	48.8202	32.5468	-234.33696	29.29212	5.69569	26.85111	37.42882	0
672	-152.15629	-27.66478	124.49151	87.87636	-139.13757	48.8202	32.5468	-229.45494	31.73313	5.69569	21.96909	34.98781	0
673	-149.71528	-27.66478	122.0505	87.87636	-136.69656	46.37919	32.5468	-224.57292	31.73313	2.44101	19.52808	34.98781	0
674	-149.71528	-27.66478	122.0505	87.87636	-136.69656	46.37919	32.5468	-222.13191	31.73313	2.44101	19.52808	34.98781	0
675	-149.71528	-30.10579	119.60949	87.87636	-134.25555	43.93818	27.66478	-219.6909	31.73313	2.44101	19.52808	37.42882	0
676	-149.71528	-30.10579	119.60949	87.87636	-134.25555	43.93818	27.66478	-219.6909	31.73313	2.44101	19.52808	37.42882	0
677	-149.71528	-27.66478	122.0505	87.87636	-136.69656	46.37919	25.22377	-224.57292	29.29212	0	19.52808	37.42882	0
678	-154.5973	-27.66478	126.93252	90.31737	-141.57858	48.8202	20.34175	-224.57292	26.85111	-2.44101	17.08707	34.98781	0
679	-157.03831	-30.10579	126.93252	92.75838	-141.57858	48.8202	17.90074	-227.01393	24.4101	-4.88202	14.64606	30.10579	0
680	-157.03831	-32.5468	124.49151	92.75838	-141.57858	46.37919	15.45973	-227.01393	24.4101	-4.88202	14.64606	30.10579	0
681	-157.03831	-32.5468	124.49151	92.75838	-141.57858	46.37919	15.45973	-224.57292	24.4101	-7.32303	14.64606	30.10579	0
682	-157.03831	-32.5468	124.49151	92.75838	-141.57858	46.37919	15.45973	-217.24989	26.85111	-4.88202	14.64606	30.10579	0
683	-154.5973	-30.10579	124.49151	90.31737	-139.13757	46.37919	15.45973	-212.36787	31.73313	-4.88202	12.20505	30.10579	0
684	-147.27427	-30.10579	117.16848	87.87636	-131.81454	43.93818	15.45973	-212.36787	31.73313	-7.32303	12.20505	30.10579	0
685	-142.39225	-22.78276	119.60949	80.55333	-131.81454	48.8202	15.45973	-207.48585	31.73313	-9.76404	12.20505	30.10579	0
686	-142.39225	-17.90074	124.49151	78.11232	-134.25555	53.70222	15.45973	-209.92686	31.73313	-12.20505	9.76404	30.10579	0
687	-139.95124	-8.1367	131.81454	73.2303	-136.69656	61.02525	15.45973	-214.80888	31.73313	-14.64606	9.76404	27.66478	0
688	-137.51023	-5.69569	131.81454	70.78929	-134.25555	63.46626	13.01872	-217.24989	29.29212	-19.52808	4.88202	22.78276	0
689	-142.39225	-8.1367	134.25555	73.2303	-139.13757	63.46626	8.1367	-222.13191	26.85111	-24.4101	1.62734	17.90074	0
690	-144.83326	-10.57771	134.25555	75.67131	-139.13757	61.02525	5.69569	-222.13191	26.85111	-26.85111	1.62734	17.90074	0
691	-147.27427	-10.57771	136.69656	78.11232	-141.57858	63.46626	3.25468	-219.6909	26.85111	-26.85111	1.62734	17.90074	0
692	-142.39225	-8.1367	134.25555	73.2303	-139.13757	63.46626	3.25468	-217.24989	26.85111	-26.85111	1.62734	17.90074	0
693	-139.95124	-3.25468	136.69656	70.78929	-139.13757	65.90727	3.25468	-214.80888	24.4101	-26.85111	1.62734	20.34175	0
694	-137.51023	4.88202	141.57858	65.90727	-139.13757	73.2303	3.25468	-214.80888	24.4101	-26.85111	1.62734	22.78276	0
695	-132.62821	14.64606	146.4606	58.58424	-139.13757	80.55333	3.25468	-209.92686	24.4101	-24.4101	7.32303	27.66478	0
696	-127.74619	24.4101	151.34262	51.26121	-139.13757	87.87636	3.25468	-214.80888	21.96909	-24.4101	9.76404	30.10579	0
697	-127.74619	31.73313	158.66565	46.37919	-141.57858	95.19939	0.81367	-222.13191	17.08707	-24.4101	12.20505	32.5468	0
698	-132.62821	31.73313	163.54767	48.8202	-146.4606	97.6404	-2.44101	-227.01393	12.20505	-24.4101	12.20505	32.5468	0
699	-132.62821	36.61515	168.42969	46.37919	-148.90161	102.52242	-4.88202	-231.89595	7.32303	-24.4101	12.20505	34.98781	0
700	-132.62821	36.61515	168.42969	46.37919	-148.90161	102.52242	-7.32303	-231.89595	1.62734	-24.4101	12.20505	34.98781	0
701	-130.1872	39.05616	168.42969	43.93818	-148.90161	102.52242	-9.76404	-236.77797	-0.81367	-26.85111	9.76404	34.98781	0
702	-132.62821	41.49717	173.31171	43.93818	-151.34262	107.40444	-12.20505	-236.77797	-5.69569	-26.85111	9.76404	34.98781	0
703	-132.62821	41.49717	173.31171	43.93818	-151.34262	107.40444	-17.08707	-236.77797	-8.1367	-29.29212	4.88202	32.5468	0
704	-130.1872	46.37919	175.75272	41.49717	-151.34262	109.84545	-19.52808	-239.21898	-13.01872	-29.29212	1.62734	30.10579	0
705	-130.1872	53.70222	183.07575	36.61515	-156.22464	117.16848	-24.4101	-241.65999	-15.45973	-29.29212	1.62734	30.10579	0
706	-127.74619	58.58424	185.51676	34.17414	-156.22464	122.0505	-26.85111	-246.54201	-17.90074	-31.73313	-0.81367	30.10579	0
707	-127.74619	63.46626	190.39878	31.73313	-158.66565	126.93252	-31.73313	-253.86504	-20.34175	-31.73313	-3.25468	30.10579	0
708	-125.30518	70.78929	195.2808	26.85111	-158.66565	131.81454	-36.61515	-258.74706	-22.78276	-34.17414	-5.69569	30.10579	0
709	-125.30518	75.67131	200.16282	24.4101	-161.10666	136.69656	-36.61515	-261.18807	-22.78276	-31.73313	-5.69569	32.5468	0
710	-125.30518	78.11232	202.60383	21.96909	-163.54767	139.13757	-39.05616	-261.18807	-22.78276	-31.73313	-5.69569	34.98781	0
711	-125.30518	80.55333	205.04484	21.96909	-163.54767	141.57858	-41.49717	-261.18807	-22.78276	-34.17414	-8.1367	37.42882	0
712	-122.86417	85.43535	207.48585	17.08707	-163.54767	146.4606	-41.49717	-258.74706	-22.78276	-34.17414	-8.1367	39.86983	0
713	-117.98215	92.75838	209.92686	12.20505	-163.54767	151.34262	-43.93818	-256.30605	-25.22377	-36.61515	-10.57771	42.31084	0
714	-117.98215	97.6404	214.80888	9.76404	-165.98868	156.22464	-46.37919	-256.30605	-30.10579	-39.05616	-13.01872	42.31084	0
715	-117.98215	100.08141	217.24989	7.32303	-165.98868	158.66565	-48.8202	-258.74706	-34.98781	-43.93818	-20.34175	39.86983	0
716	-122.86417	104.96343	227.01393	7.32303	-173.31171	165.98868	-53.70222	-266.07009	-44.75185	-51.26121	-27.66478	34.98781	0
717	-127.74619	112.28646	239.21898	7.32303	-183.07575	175.75272	-58.58424	-275.83413	-52.07488	-58.58424	-34.98781	32.5468	0
718	-125.30518	122.0505	246.54201	-0.81367	-185.51676	183.07575	-63.46626	-280.71615	-56.9569	-63.46626	-39.86983	32.5468	0
719	-122.86417	126.93252	248.98302	-3.25468	-185.51676	187.95777	-65.90727	-288.03918	-64.27993	-68.34828	-42.31084	30.10579	0
720	-125.30518	129.37353	253.86504	-3.25468	-187.95777	190.39878	-70.78929	-290.48019	-69.16195	-70.78929	-47.19286	30.10579	0
721	-125.30518	134.25555	258.74706	-5.69569	-190.39878	195.2808	-70.78929	-290.48019	-69.16195	-73.2303	-47.19286	30.10579	0
722	-120.42316	141.57858	261.18807	-10.57771	-190.39878	200.16282	-70.78929	-288.03918	-69.16195	-70.78929	-42.31084	34.98781	0
723	-115.54114	151.34262	266.07009	-17.90074	-190.39878	207.48585	-68.34828	-283.15716	-66.72094	-70.78929	-39.86983	37.42882	0
724	-108.21811	158.66565	266.07009	-25.22377	-185.51676	212.36787	-65.90727	-278.27514	-61.83892	-68.34828	-37.42882	39.86983	0
725	-108.21811	161.10666	268.5111	-27.66478	-187.95777	214.80888	-68.34828	-278.27514	-61.83892	-68.34828	-37.42882	39.86983	0
726	-105.7771	165.98868	270.95211	-30.10579	-187.95777	217.24989	-70.78929	-278.27514	-61.83892	-68.34828	-37.42882	37.42882	0
727	-100.89508	178.19373	278.27514	-39.86983	-187.95777	227.01393	-73.2303	-283.15716	-64.27993	-68.34828	-39.86983	32.5468	0
728	-96.01306	187.95777	283.15716	-47.19286	-187.95777	234.33696	-80.55333	-288.03918	-69.16195	-70.78929	-42.31084	27.66478	0
729	-93.57205	200.16282	292.9212	-54.51589	-192.83979	246.54201	-85.43535	-290.48019	-71.60296	-75.67131	-44.75185	20.34175	0
730	-88.69003	209.92686	297.80322	-61.83892	-192.83979	253.86504	-90.31737	-290.48019	-74.04397	-78.11232	-47.19286	15.45973	0
731	-81.367	222.13191	302.68524	-71.60296	-190.39878	261.18807	-92.75838	-288.03918	-78.92599	-78.11232	-47.19286	10.57771	0
732	-74.04397	236.77797	310.00827	-81.367	-190.39878	273.39312	-92.75838	-280.71615	-78.92599	-78.11232	-44.75185	5.69569	0
733	-66.72094	246.54201	312.44928	-91.13104	-187.95777	278.27514	-92.75838	-275.83413	-78.92599	-78.11232	-44.75185	3.25468	0
734	-61.83892	253.86504	314.89029	-96.01306	-187.95777	283.15716	-92.75838	-270.95211	-78.92599	-78.11232	-42.31084	0	0
735	-59.39791	261.18807	319.77231	-100.89508	-187.95777	290.48019	-92.75838	-266.07009	-81.367	-78.11232	-39.86983	-4.88202	0
736	-56.9569	263.62908	319.77231	-103.33609	-187.95777	290.48019	-97.6404	-266.07009	-86.24902	-80.55333	-39.86983	-9.76404	0
737	-56.9569	270.95211	327.09534	-108.21811	-190.39878	297.80322	-100.08141	-268.5111	-88.69003	-80.55333	-39.86983	-17.08707	0
738	-56.9569	280.71615	336.85938	-113.10013	-195.2808	307.56726	-102.52242	-270.95211	-93.57205	-82.99434	-42.31084	-21.96909	0
739	-59.39791	285.59817	344.18241	-113.10013	-200.16282	314.89029	-107.40444	-270.95211	-100.89508	-87.87636	-44.75185	-31.73313	0
740	-61.83892	290.48019	351.50544	-115.54114	-205.04484	319.77231	-109.84545	-268.5111	-105.7771	-92.75838	-49.63387	-39.05616	0
741	-56.9569	297.80322	353.94645	-120.42316	-205.04484	324.65433	-112.28646	-266.07009	-108.21811	-95.19939	-54.51589	-46.37919	0
742	-52.07488	305.12625	356.38746	-127.74619	-202.60383	329.53635	-109.84545	-256.30605	-108.21811	-95.19939	-54.51589	-48.8202	0
743	-49.63387	310.00827	358.82847	-130.1872	-202.60383	334.41837	-107.40444	-246.54201	-108.21811	-95.19939	-54.51589	-51.26121	0
744	-47.19286	314.89029	361.26948	-135.06922	-202.60383	336.85938	-104.96343	-236.77797	-108.21811	-97.6404	-54.51589	-53.70222	0
745	-42.31084	319.77231	361.26948	-139.95124	-200.16282	339.30039	-102.52242	-227.01393	-108.21811	-97.6404	-52.07488	-56.14323	0
746	-34.98781	329.53635	363.71049	-147.27427	-197.72181	346.62342	-97.6404	-222.13191	-103.33609	-95.19939	-49.63387	-56.14323	0
747	-30.10579	336.85938	366.1515	-154.5973	-197.72181	351.50544	-95.19939	-217.24989	-100.89508	-95.19939	-47.19286	-58.58424	0
748	-25.22377	341.7414	366.1515	-159.47932	-195.2808	353.94645	-92.75838	-212.36787	-98.45407	-95.19939	-47.19286	-61.02525	0
749	-20.34175	346.62342	366.1515	-164.36134	-192.83979	356.38746	-92.75838	-209.92686	-100.89508	-97.6404	-52.07488	-63.46626	0
750	-17.90074	351.50544	368.59251	-166.80235	-192.83979	358.82847	-92.75838	-205.04484	-100.89508	-102.52242	-56.9569	-68.34828	0
751	-8.1367	353.94645	361.26948	-174.12538	-183.07575	356.38746	-95.19939	-200.16282	-103.33609	-104.96343	-61.83892	-73.2303	0
752	-0.81367	361.26948	361.26948	-181.44841	-180.63474	361.26948	-95.19939	-192.83979	-103.33609	-109.84545	-66.72094	-75.67131	0
753	2.44101	366.1515	363.71049	-183.88942	-180.63474	366.1515	-95.19939	-183.07575	-103.33609	-109.84545	-69.16195	-78.11232	0
754	4.88202	371.03352	366.1515	-188.77144	-180.63474	368.59251	-92.75838	-173.31171	-100.89508	-112.28646	-71.60296	-78.11232	0
755	4.88202	371.03352	366.1515	-188.77144	-180.63474	368.59251	-90.31737	-163.54767	-100.89508	-112.28646	-71.60296	-75.67131	0
756	9.76404	373.47453	363.71049	-191.21245	-175.75272	368.59251	-85.43535	-156.22464	-96.01306	-109.84545	-71.60296	-70.78929	0
757	14.64606	375.91554	361.26948	-196.09447	-173.31171	368.59251	-78.11232	-146.4606	-88.69003	-107.40444	-71.60296	-65.90727	0
758	17.08707	375.91554	358.82847	-196.09447	-170.8707	368.59251	-73.2303	-136.69656	-83.80801	-102.52242	-66.72094	-63.46626	0
759	19.52808	368.59251	349.06443	-193.65346	-163.54767	358.82847	-65.90727	-126.93252	-78.92599	-102.52242	-66.72094	-58.58424	0
760	21.96909	363.71049	341.7414	-193.65346	-158.66565	353.94645	-63.46626	-117.16848	-78.92599	-102.52242	-66.72094	-58.58424	0
761	21.96909	353.94645	331.97736	-188.77144	-153.78363	344.18241	-61.02525	-104.96343	-76.48498	-102.52242	-66.72094	-58.58424	0
762	21.96909	344.18241	322.21332	-183.88942	-148.90161	334.41837	-56.14323	-92.75838	-74.04397	-102.52242	-69.16195	-58.58424	0
763	26.85111	336.85938	310.00827	-181.44841	-141.57858	324.65433	-51.26121	-80.55333	-74.04397	-100.08141	-71.60296	-58.58424	0
764	31.73313	334.41837	302.68524	-183.88942	-134.25555	319.77231	-46.37919	-65.90727	-71.60296	-97.6404	-71.60296	-56.14323	0
765	34.17414	331.97736	297.80322	-183.88942	-131.81454	314.89029	-39.05616	-53.70222	-66.72094	-92.75838	-66.72094	-51.26121	0
766	39.05616	327.09534	288.03918	-183.88942	-124.49151	307.56726	-31.73313	-43.93818	-61.83892	-87.87636	-64.27993	-46.37919	0
767	46.37919	324.65433	278.27514	-186.33043	-114.72747	302.68524	-24.4101	-36.61515	-59.39791	-82.99434	-61.83892	-43.93818	0
768	53.70222	324.65433	270.95211	-188.77144	-107.40444	297.80322	-17.08707	-24.4101	-54.51589	-78.11232	-59.39791	-39.05616	0
769	56.14323	322.21332	266.07009	-188.77144	-104.96343	295.36221	-9.76404	-12.20505	-49.63387	-70.78929	-54.51589	-34.17414	0
770	53.70222	310.00827	256.30605	-181.44841	-100.08141	283.15716	-4.88202	2.44101	-47.19286	-68.34828	-54.51589	-34.17414	0
771	51.26121	297.80322	246.54201	-174.12538	-97.6404	273.39312	-2.44101	12.20505	-44.75185	-68.34828	-54.51589	-34.17414	0
772	51.26121	285.59817	234.33696	-169.24336	-90.31737	261.18807	5.69569	25.22377	-44.75185	-65.90727	-54.51589	-34.17414	0
773	51.26121	275.83413	224.57292	-164.36134	-85.43535	251.42403	13.01872	39.86983	-37.42882	-61.02525	-49.63387	-29.29212	0
774	48.8202	268.5111	219.6909	-159.47932	-85.43535	244.101	22.78276	56.9569	-30.10579	-56.14323	-47.19286	-24.4101	0
775	51.26121	258.74706	207.48585	-154.5973	-78.11232	234.33696	37.42882	71.60296	-17.90074	-48.8202	-39.86983	-17.08707	0
776	58.58424	248.98302	190.39878	-154.5973	-65.90727	219.6909	47.19286	83.80801	-8.1367	-41.49717	-34.98781	-12.20505	0
777	63.46626	236.77797	173.31171	-149.71528	-53.70222	205.04484	59.39791	91.13104	-0.81367	-34.17414	-30.10579	-7.32303	0
778	70.78929	229.45494	158.66565	-149.71528	-43.93818	195.2808	69.16195	100.89508	7.32303	-29.29212	-25.22377	-2.44101	0
779	70.78929	219.6909	148.90161	-144.83326	-39.05616	185.51676	78.92599	110.65912	14.64606	-24.4101	-20.34175	0	0
780	68.34828	205.04484	136.69656	-137.51023	-34.17414	170.8707	88.69003	120.42316	19.52808	-19.52808	-17.90074	0	0
781	65.90727	187.95777	122.0505	-127.74619	-26.85111	156.22464	93.57205	130.1872	19.52808	-19.52808	-15.45973	0	0
782	56.14323	168.42969	112.28646	-113.10013	-26.85111	141.57858	98.45407	139.95124	24.4101	-14.64606	-13.01872	0	0
783	48.8202	146.4606	97.6404	-98.45407	-24.4101	122.0505	105.7771	152.15629	29.29212	-12.20505	-8.1367	0	0
784	39.05616	124.49151	85.43535	-81.367	-21.96909	104.96343	110.65912	164.36134	36.61515	-7.32303	-5.69569	5.69569	0
785	26.85111	97.6404	70.78929	-61.83892	-21.96909	85.43535	115.54114	176.56639	43.93818	0	1.62734	8.1367	0
786	19.52808	75.67131	56.14323	-47.19286	-17.08707	65.90727	120.42316	181.44841	48.8202	5.69569	4.88202	13.01872	0
787	12.20505	53.70222	41.49717	-32.5468	-14.64606	48.8202	122.86417	181.44841	56.14323	8.1367	9.76404	13.01872	0
788	9.76404	36.61515	26.85111	-22.78276	-7.32303	31.73313	122.86417	183.88942	61.02525	10.57771	12.20505	15.45973	0
789	9.76404	26.85111	17.08707	-17.90074	-2.44101	21.96909	122.86417	186.33043	63.46626	15.45973	17.08707	17.90074	0
790	14.64606	21.96909	7.32303	-17.90074	5.69569	14.64606	125.30518	188.77144	68.34828	20.34175	21.96909	20.34175	0
791	14.64606	14.64606	-0.81367	-15.45973	8.1367	7.32303	125.30518	188.77144	70.78929	20.34175	26.85111	20.34175	0
792	9.76404	-0.81367	-10.57771	-5.69569	10.57771	-5.69569	122.86417	188.77144	68.34828	20.34175	26.85111	20.34175	0
793	4.88202	-10.57771	-15.45973	2.44101	10.57771	-13.01872	120.42316	188.77144	65.90727	17.90074	26.85111	17.90074	0
794	-0.81367	-25.22377	-25.22377	12.20505	13.01872	-25.22377	117.98215	191.21245	65.90727	17.90074	26.85111	17.90074	0
795	-0.81367	-32.5468	-32.5468	14.64606	15.45973	-32.5468	117.98215	191.21245	65.90727	17.90074	26.85111	15.45973	0
796	-8.1367	-47.19286	-39.86983	26.85111	15.45973	-44.75185	117.98215	191.21245	65.90727	15.45973	24.4101	13.01872	0
797	-10.57771	-56.9569	-47.19286	31.73313	17.90074	-52.07488	115.54114	186.33043	68.34828	15.45973	24.4101	10.57771	0
798	-5.69569	-56.9569	-52.07488	29.29212	22.78276	-54.51589	115.54114	186.33043	73.2303	17.90074	26.85111	10.57771	0
799	-0.81367	-54.51589	-54.51589	26.85111	27.66478	-54.51589	117.98215	186.33043	75.67131	22.78276	29.29212	13.01872	0
800	4.88202	-52.07488	-56.9569	21.96909	30.10579	-54.51589	120.42316	183.88942	78.11232	22.78276	31.73313	15.45973	0
801	7.32303	-54.51589	-61.83892	21.96909	34.98781	-56.9569	117.98215	179.0074	75.67131	22.78276	31.73313	13.01872	0
802	7.32303	-59.39791	-66.72094	24.4101	37.42882	-61.83892	115.54114	174.12538	73.2303	20.34175	31.73313	13.01872	0
803	7.32303	-64.27993	-71.60296	26.85111	39.86983	-66.72094	110.65912	171.68437	68.34828	17.90074	31.73313	8.1367	0
804	7.32303	-69.16195	-76.48498	29.29212	42.31084	-71.60296	105.7771	169.24336	63.46626	13.01872	29.29212	5.69569	0
805	-0.81367	-81.367	-81.367	39.05616	39.86983	-81.367	100.89508	164.36134	56.14323	10.57771	26.85111	0	0
806	-0.81367	-83.80801	-83.80801	41.49717	42.31084	-83.80801	98.45407	161.92033	53.70222	8.1367	24.4101	0	0
807	-0.81367	-83.80801	-83.80801	41.49717	42.31084	-83.80801	98.45407	157.03831	48.8202	8.1367	24.4101	0	0
808	-5.69569	-91.13104	-86.24902	46.37919	39.86983	-88.69003	98.45407	157.03831	46.37919	8.1367	24.4101	0	0
809	-13.01872	-93.57205	-81.367	51.26121	34.98781	-88.69003	98.45407	154.5973	43.93818	10.57771	24.4101	0	0
810	-20.34175	-93.57205	-74.04397	56.14323	27.66478	-83.80801	96.01306	149.71528	39.05616	13.01872	24.4101	0	0
811	-20.34175	-93.57205	-74.04397	56.14323	27.66478	-83.80801	96.01306	147.27427	39.05616	13.01872	24.4101	0	0
812	-20.34175	-91.13104	-71.60296	53.70222	25.22377	-81.367	93.57205	147.27427	39.05616	15.45973	24.4101	0	0
813	-25.22377	-96.01306	-71.60296	58.58424	22.78276	-83.80801	93.57205	147.27427	39.05616	17.90074	24.4101	-2.44101	0
814	-25.22377	-100.89508	-76.48498	61.02525	25.22377	-88.69003	91.13104	149.71528	39.05616	17.90074	24.4101	-4.88202	0
815	-15.45973	-98.45407	-83.80801	56.14323	34.98781	-91.13104	91.13104	154.5973	41.49717	20.34175	26.85111	-4.88202	0
816	-13.01872	-98.45407	-86.24902	53.70222	37.42882	-93.57205	96.01306	157.03831	43.93818	25.22377	29.29212	-2.44101	0
817	-13.01872	-100.89508	-88.69003	56.14323	37.42882	-96.01306	98.45407	157.03831	46.37919	27.66478	31.73313	0	0
818	-13.01872	-103.33609	-91.13104	56.14323	39.86983	-98.45407	98.45407	159.47932	46.37919	30.10579	34.17414	3.25468	0
819	-10.57771	-98.45407	-88.69003	53.70222	39.86983	-93.57205	98.45407	161.92033	48.8202	30.10579	34.17414	5.69569	0
820	-8.1367	-96.01306	-88.69003	51.26121	39.86983	-93.57205	98.45407	161.92033	48.8202	30.10579	36.61515	8.1367	0
821	-8.1367	-93.57205	-86.24902	48.8202	39.86983	-91.13104	98.45407	159.47932	48.8202	32.5468	36.61515	10.57771	0
822	-10.57771	-96.01306	-86.24902	51.26121	37.42882	-91.13104	96.01306	159.47932	48.8202	32.5468	36.61515	10.57771	0
823	-10.57771	-98.45407	-88.69003	53.70222	39.86983	-93.57205	93.57205	161.92033	48.8202	30.10579	31.73313	5.69569	0
824	-10.57771	-98.45407	-88.69003	53.70222	39.86983	-93.57205	93.57205	164.36134	48.8202	30.10579	31.73313	3.25468	0
825	-10.57771	-103.33609	-93.57205	56.14323	42.31084	-98.45407	93.57205	169.24336	48.8202	30.10579	31.73313	3.25468	0
826	-15.45973	-108.21811	-93.57205	61.02525	39.86983	-100.89508	93.57205	169.24336	51.26121	30.10579	31.73313	3.25468	0
827	-13.01872	-108.21811	-96.01306	58.58424	42.31084	-103.33609	93.57205	169.24336	51.26121	30.10579	31.73313	0	0
828	-15.45973	-108.21811	-93.57205	61.02525	39.86983	-100.89508	93.57205	171.68437	51.26121	30.10579	31.73313	0	0
829	-15.45973	-110.65912	-96.01306	61.02525	39.86983	-103.33609	93.57205	174.12538	51.26121	27.66478	31.73313	0	0
830	-17.90074	-113.10013	-96.01306	63.46626	39.86983	-105.7771	96.01306	174.12538	51.26121	27.66478	31.73313	0	0
831	-13.01872	-113.10013	-100.89508	61.02525	44.75185	-108.21811	96.01306	174.12538	51.26121	27.66478	31.73313	-2.44101	0
832	-10.57771	-108.21811	-98.45407	58.58424	44.75185	-103.33609	98.45407	174.12538	48.8202	27.66478	31.73313	-2.44101	0
833	-10.57771	-108.21811	-98.45407	58.58424	44.75185	-103.33609	100.89508	179.0074	46.37919	27.66478	31.73313	-2.44101	0
834	-10.57771	-108.21811	-98.45407	58.58424	44.75185	-103.33609	100.89508	186.33043	41.49717	27.66478	31.73313	-2.44101	0
835	-10.57771	-108.21811	-98.45407	58.58424	44.75185	-103.33609	103.33609	191.21245	39.05616	27.66478	34.17414	-2.44101	0
836	-5.69569	-105.7771	-100.89508	53.70222	47.19286	-103.33609	103.33609	193.65346	36.61515	27.66478	34.17414	-4.88202	0
837	-5.69569	-103.33609	-98.45407	53.70222	47.19286	-100.89508	103.33609	193.65346	31.73313	27.66478	34.17414	-4.88202	0
838	-5.69569	-103.33609	-98.45407	53.70222	47.19286	-100.89508	103.33609	196.09447	29.29212	27.66478	34.17414	-4.88202	0
839	-5.69569	-105.7771	-100.89508	53.70222	47.19286	-103.33609	103.33609	198.53548	26.85111	27.66478	34.17414	-7.32303	0
840	-10.57771	-108.21811	-98.45407	58.58424	44.75185	-103.33609	103.33609	196.09447	24.4101	27.66478	31.73313	-12.20505	0
841	-10.57771	-108.21811	-98.45407	58.58424	44.75185	-103.33609	103.33609	193.65346	24.4101	25.22377	31.73313	-12.20505	0
842	-5.69569	-103.33609	-98.45407	53.70222	47.19286	-100.89508	105.7771	196.09447	24.4101	25.22377	31.73313	-12.20505	0
843	-0.81367	-100.89508	-100.89508	48.8202	49.63387	-100.89508	108.21811	200.97649	24.4101	27.66478	31.73313	-12.20505	0
844	-0.81367	-100.89508	-100.89508	48.8202	49.63387	-100.89508	110.65912	208.29952	24.4101	27.66478	34.17414	-9.76404	0
845	-0.81367	-100.89508	-100.89508	48.8202	49.63387	-100.89508	110.65912	210.74053	21.96909	27.66478	34.17414	-12.20505	0
846	2.44101	-100.89508	-103.33609	48.8202	52.07488	-100.89508	113.10013	213.18154	21.96909	30.10579	36.61515	-12.20505	0
847	2.44101	-100.89508	-103.33609	48.8202	52.07488	-100.89508	113.10013	213.18154	19.52808	30.10579	36.61515	-12.20505	0
848	-0.81367	-105.7771	-105.7771	51.26121	52.07488	-105.7771	115.54114	213.18154	19.52808	30.10579	36.61515	-9.76404	0
849	-3.25468	-108.21811	-105.7771	53.70222	52.07488	-108.21811	115.54114	213.18154	17.08707	30.10579	36.61515	-9.76404	0
850	-8.1367	-110.65912	-103.33609	58.58424	47.19286	-108.21811	115.54114	208.29952	17.08707	32.5468	36.61515	-9.76404	0
851	-10.57771	-110.65912	-100.89508	58.58424	44.75185	-105.7771	117.98215	205.85851	17.08707	34.98781	36.61515	-7.32303	0
852	-8.1367	-108.21811	-100.89508	56.14323	47.19286	-105.7771	117.98215	205.85851	19.52808	37.42882	39.05616	-2.44101	0
853	-8.1367	-108.21811	-100.89508	56.14323	47.19286	-105.7771	117.98215	208.29952	21.96909	37.42882	41.49717	0	0
854	-5.69569	-105.7771	-100.89508	53.70222	47.19286	-103.33609	117.98215	213.18154	21.96909	37.42882	41.49717	0	0
855	-0.81367	-103.33609	-103.33609	51.26121	52.07488	-103.33609	117.98215	215.62255	21.96909	37.42882	41.49717	0	0
856	-0.81367	-103.33609	-103.33609	51.26121	52.07488	-103.33609	117.98215	215.62255	24.4101	37.42882	41.49717	3.25468	0
857	4.88202	-98.45407	-103.33609	46.37919	54.51589	-100.89508	115.54114	213.18154	26.85111	37.42882	41.49717	3.25468	0
858	4.88202	-98.45407	-103.33609	46.37919	54.51589	-100.89508	110.65912	208.29952	26.85111	37.42882	39.05616	3.25468	0
859	4.88202	-103.33609	-108.21811	48.8202	56.9569	-105.7771	105.7771	203.4175	24.4101	32.5468	36.61515	3.25468	0
860	2.44101	-110.65912	-113.10013	53.70222	56.9569	-110.65912	103.33609	196.09447	21.96909	32.5468	34.17414	0	0
861	-0.81367	-110.65912	-110.65912	53.70222	54.51589	-110.65912	103.33609	191.21245	19.52808	34.98781	34.17414	3.25468	0
862	2.44101	-110.65912	-113.10013	53.70222	56.9569	-110.65912	103.33609	188.77144	19.52808	34.98781	34.17414	3.25468	0
863	-0.81367	-113.10013	-113.10013	56.14323	56.9569	-113.10013	103.33609	186.33043	14.64606	32.5468	29.29212	3.25468	0
864	-0.81367	-115.54114	-115.54114	56.14323	56.9569	-115.54114	100.89508	186.33043	12.20505	30.10579	29.29212	3.25468	0
865	-0.81367	-113.10013	-113.10013	56.14323	56.9569	-113.10013	100.89508	186.33043	9.76404	30.10579	29.29212	5.69569	0
866	4.88202	-105.7771	-110.65912	48.8202	56.9569	-108.21811	100.89508	186.33043	9.76404	32.5468	29.29212	10.57771	0
867	9.76404	-100.89508	-110.65912	43.93818	59.39791	-105.7771	98.45407	183.88942	7.32303	32.5468	31.73313	13.01872	0
868	9.76404	-100.89508	-110.65912	43.93818	59.39791	-105.7771	93.57205	181.44841	1.62734	30.10579	31.73313	13.01872	0
869	4.88202	-105.7771	-110.65912	48.8202	56.9569	-108.21811	88.69003	176.56639	-0.81367	30.10579	29.29212	15.45973	0
870	9.76404	-108.21811	-117.98215	48.8202	64.27993	-113.10013	86.24902	171.68437	-0.81367	30.10579	29.29212	15.45973	0
871	12.20505	-110.65912	-122.86417	48.8202	66.72094	-115.54114	86.24902	166.80235	-3.25468	30.10579	26.85111	15.45973	0
872	19.52808	-110.65912	-130.1872	43.93818	74.04397	-120.42316	83.80801	164.36134	-3.25468	30.10579	26.85111	15.45973	0
873	21.96909	-110.65912	-132.62821	43.93818	76.48498	-120.42316	83.80801	161.92033	-3.25468	30.10579	26.85111	13.01872	0
874	19.52808	-117.98215	-137.51023	48.8202	78.92599	-127.74619	83.80801	161.92033	-0.81367	30.10579	26.85111	13.01872	0
875	17.08707	-117.98215	-135.06922	48.8202	76.48498	-125.30518	81.367	161.92033	-0.81367	27.66478	26.85111	10.57771	0
876	14.64606	-115.54114	-130.1872	48.8202	71.60296	-122.86417	81.367	161.92033	1.62734	27.66478	26.85111	10.57771	0
877	14.64606	-110.65912	-125.30518	46.37919	69.16195	-117.98215	86.24902	161.92033	7.32303	30.10579	31.73313	10.57771	0
878	9.76404	-108.21811	-117.98215	48.8202	64.27993	-113.10013	86.24902	161.92033	9.76404	30.10579	31.73313	10.57771	0
879	-0.81367	-108.21811	-108.21811	53.70222	54.51589	-108.21811	86.24902	159.47932	14.64606	30.10579	31.73313	10.57771	0
880	-0.81367	-105.7771	-105.7771	51.26121	52.07488	-105.7771	86.24902	154.5973	14.64606	30.10579	31.73313	8.1367	0
881	2.44101	-100.89508	-103.33609	48.8202	52.07488	-100.89508	86.24902	149.71528	19.52808	34.98781	31.73313	8.1367	0
882	4.88202	-100.89508	-105.7771	46.37919	54.51589	-103.33609	86.24902	149.71528	24.4101	37.42882	31.73313	5.69569	0
883	4.88202	-105.7771	-110.65912	48.8202	56.9569	-108.21811	81.367	147.27427	24.4101	37.42882	29.29212	0	0
884	4.88202	-113.10013	-117.98215	53.70222	61.83892	-115.54114	81.367	144.83326	24.4101	34.98781	29.29212	-2.44101	0
885	7.32303	-117.98215	-125.30518	53.70222	66.72094	-120.42316	78.92599	147.27427	24.4101	34.98781	29.29212	-7.32303	0
886	2.44101	-127.74619	-130.1872	61.02525	66.72094	-127.74619	78.92599	144.83326	24.4101	34.98781	29.29212	-9.76404	0
887	2.44101	-137.51023	-139.95124	65.90727	71.60296	-137.51023	78.92599	144.83326	24.4101	37.42882	31.73313	-12.20505	0
888	4.88202	-139.95124	-144.83326	65.90727	74.04397	-142.39225	78.92599	144.83326	26.85111	37.42882	34.17414	-12.20505	0
889	7.32303	-137.51023	-144.83326	63.46626	76.48498	-139.95124	78.92599	144.83326	26.85111	37.42882	36.61515	-12.20505	0
890	9.76404	-135.06922	-144.83326	61.02525	76.48498	-139.95124	78.92599	142.39225	26.85111	37.42882	36.61515	-12.20505	0
891	12.20505	-132.62821	-144.83326	58.58424	78.92599	-137.51023	76.48498	139.95124	26.85111	34.98781	36.61515	-14.64606	0
892	14.64606	-127.74619	-142.39225	56.14323	78.92599	-135.06922	74.04397	137.51023	24.4101	34.98781	36.61515	-17.08707	0
893	17.08707	-122.86417	-139.95124	51.26121	78.92599	-130.1872	74.04397	137.51023	24.4101	32.5468	36.61515	-19.52808	0
894	19.52808	-117.98215	-137.51023	48.8202	78.92599	-127.74619	71.60296	137.51023	24.4101	32.5468	34.17414	-21.96909	0
895	17.08707	-120.42316	-137.51023	51.26121	76.48498	-127.74619	69.16195	139.95124	21.96909	30.10579	34.17414	-26.85111	0
896	12.20505	-125.30518	-137.51023	56.14323	74.04397	-130.1872	66.72094	139.95124	21.96909	30.10579	34.17414	-29.29212	0
897	7.32303	-127.74619	-135.06922	58.58424	71.60296	-130.1872	66.72094	137.51023	24.4101	30.10579	36.61515	-29.29212	0
898	7.32303	-127.74619	-135.06922	58.58424	71.60296	-130.1872	66.72094	139.95124	29.29212	32.5468	41.49717	-29.29212	0
899	7.32303	-127.74619	-135.06922	58.58424	71.60296	-130.1872	66.72094	139.95124	34.17414	37.42882	43.93818	-26.85111	0
900	7.32303	-127.74619	-135.06922	58.58424	71.60296	-130.1872	69.16195	137.51023	34.17414	37.42882	43.93818	-26.85111	0
901	4.88202	-130.1872	-135.06922	61.02525	69.16195	-132.62821	66.72094	135.06922	34.17414	37.42882	43.93818	-24.4101	0
902	12.20505	-125.30518	-137.51023	56.14323	74.04397	-130.1872	64.27993	130.1872	34.17414	37.42882	41.49717	-24.4101	0
903	19.52808	-122.86417	-142.39225	51.26121	81.367	-132.62821	64.27993	130.1872	31.73313	39.86983	39.05616	-24.4101	0
904	21.96909	-122.86417	-144.83326	48.8202	83.80801	-132.62821	64.27993	132.62821	31.73313	39.86983	41.49717	-21.96909	0
905	14.64606	-130.1872	-144.83326	56.14323	78.92599	-137.51023	61.83892	132.62821	31.73313	39.86983	41.49717	-21.96909	0
906	12.20505	-132.62821	-144.83326	58.58424	78.92599	-137.51023	61.83892	132.62821	29.29212	39.86983	41.49717	-21.96909	0
907	9.76404	-135.06922	-144.83326	61.02525	76.48498	-139.95124	61.83892	137.51023	29.29212	42.31084	46.37919	-17.08707	0
908	4.88202	-139.95124	-144.83326	65.90727	74.04397	-142.39225	64.27993	139.95124	29.29212	47.19286	48.8202	-14.64606	0
909	-0.81367	-142.39225	-142.39225	70.78929	71.60296	-142.39225	64.27993	139.95124	26.85111	47.19286	51.26121	-12.20505	0
910	-0.81367	-142.39225	-142.39225	70.78929	71.60296	-142.39225	59.39791	130.1872	19.52808	44.75185	46.37919	-14.64606	0
911	-0.81367	-139.95124	-139.95124	68.34828	69.16195	-139.95124	59.39791	125.30518	12.20505	42.31084	43.93818	-17.08707	0
912	2.44101	-135.06922	-137.51023	65.90727	69.16195	-135.06922	59.39791	117.98215	4.88202	39.86983	41.49717	-17.08707	0
913	2.44101	-130.1872	-132.62821	63.46626	66.72094	-130.1872	59.39791	115.54114	1.62734	37.42882	39.05616	-19.52808	0
914	7.32303	-127.74619	-135.06922	58.58424	71.60296	-130.1872	56.9569	113.10013	-0.81367	34.98781	39.05616	-21.96909	0
915	7.32303	-130.1872	-137.51023	61.02525	71.60296	-132.62821	56.9569	113.10013	-0.81367	34.98781	36.61515	-21.96909	0
916	9.76404	-135.06922	-144.83326	61.02525	76.48498	-139.95124	59.39791	115.54114	-0.81367	34.98781	39.05616	-21.96909	0
917	12.20505	-137.51023	-149.71528	61.02525	81.367	-142.39225	59.39791	117.98215	1.62734	34.98781	39.05616	-19.52808	0
918	14.64606	-137.51023	-152.15629	61.02525	83.80801	-144.83326	59.39791	120.42316	1.62734	37.42882	41.49717	-17.08707	0
919	14.64606	-139.95124	-154.5973	61.02525	83.80801	-147.27427	59.39791	122.86417	4.88202	39.86983	43.93818	-14.64606	0
920	12.20505	-142.39225	-154.5973	63.46626	83.80801	-147.27427	61.83892	120.42316	7.32303	42.31084	46.37919	-12.20505	0
921	7.32303	-144.83326	-152.15629	68.34828	78.92599	-147.27427	61.83892	115.54114	7.32303	42.31084	46.37919	-7.32303	0
922	4.88202	-139.95124	-144.83326	65.90727	74.04397	-142.39225	59.39791	110.65912	7.32303	42.31084	43.93818	-7.32303	0
923	2.44101	-139.95124	-142.39225	68.34828	71.60296	-139.95124	59.39791	108.21811	4.88202	39.86983	43.93818	-7.32303	0
924	-0.81367	-139.95124	-139.95124	68.34828	69.16195	-139.95124	56.9569	108.21811	4.88202	39.86983	46.37919	-4.88202	0
925	-0.81367	-139.95124	-139.95124	68.34828	69.16195	-139.95124	56.9569	110.65912	1.62734	39.86983	48.8202	-4.88202	0
926	-0.81367	-142.39225	-142.39225	70.78929	71.60296	-142.39225	54.51589	110.65912	1.62734	39.86983	48.8202	-4.88202	0
927	4.88202	-142.39225	-147.27427	68.34828	76.48498	-144.83326	52.07488	110.65912	1.62734	39.86983	48.8202	-2.44101	0
928	4.88202	-147.27427	-152.15629	70.78929	78.92599	-149.71528	52.07488	115.54114	4.88202	39.86983	51.26121	0	0
929	2.44101	-149.71528	-152.15629	73.2303	76.48498	-149.71528	49.63387	115.54114	7.32303	42.31084	53.70222	0	0
930	7.32303	-144.83326	-152.15629	68.34828	78.92599	-147.27427	49.63387	113.10013	7.32303	44.75185	56.14323	5.69569	0
931	7.32303	-142.39225	-149.71528	65.90727	78.92599	-144.83326	52.07488	105.7771	7.32303	44.75185	56.14323	8.1367	0
932	4.88202	-139.95124	-144.83326	65.90727	74.04397	-142.39225	52.07488	103.33609	7.32303	44.75185	56.14323	8.1367	0
933	-0.81367	-139.95124	-139.95124	68.34828	69.16195	-139.95124	52.07488	100.89508	7.32303	47.19286	56.14323	10.57771	0
934	-3.25468	-137.51023	-135.06922	68.34828	66.72094	-137.51023	52.07488	100.89508	7.32303	49.63387	58.58424	10.57771	0
935	-0.81367	-132.62821	-132.62821	65.90727	66.72094	-132.62821	52.07488	100.89508	7.32303	49.63387	58.58424	10.57771	0
936	-3.25468	-132.62821	-130.1872	65.90727	64.27993	-132.62821	52.07488	100.89508	7.32303	49.63387	61.02525	10.57771	0
937	-8.1367	-137.51023	-130.1872	70.78929	61.83892	-135.06922	47.19286	100.89508	7.32303	47.19286	58.58424	8.1367	0
938	-13.01872	-137.51023	-125.30518	73.2303	56.9569	-132.62821	42.31084	98.45407	1.62734	44.75185	53.70222	3.25468	0
939	-15.45973	-142.39225	-127.74619	78.11232	56.9569	-135.06922	37.42882	96.01306	1.62734	42.31084	48.8202	0	0
940	-15.45973	-144.83326	-130.1872	78.11232	56.9569	-137.51023	37.42882	91.13104	1.62734	42.31084	46.37919	0	0
941	-15.45973	-147.27427	-132.62821	80.55333	59.39791	-139.95124	37.42882	86.24902	-0.81367	39.86983	46.37919	3.25468	0
942	-15.45973	-147.27427	-132.62821	80.55333	59.39791	-139.95124	34.98781	81.367	-3.25468	37.42882	43.93818	3.25468	0
943	-13.01872	-144.83326	-132.62821	78.11232	59.39791	-139.95124	34.98781	78.92599	-5.69569	37.42882	43.93818	3.25468	0
944	-8.1367	-142.39225	-135.06922	73.2303	64.27993	-139.95124	37.42882	86.24902	-3.25468	42.31084	48.8202	10.57771	0
945	-0.81367	-137.51023	-137.51023	68.34828	69.16195	-137.51023	42.31084	91.13104	1.62734	47.19286	56.14323	15.45973	0
946	-0.81367	-135.06922	-135.06922	65.90727	66.72094	-135.06922	42.31084	96.01306	1.62734	47.19286	56.14323	15.45973	0
947	2.44101	-130.1872	-132.62821	63.46626	66.72094	-130.1872	44.75185	100.89508	1.62734	47.19286	58.58424	13.01872	0
948	4.88202	-122.86417	-127.74619	58.58424	66.72094	-125.30518	49.63387	105.7771	4.88202	49.63387	61.02525	15.45973	0
949	4.88202	-120.42316	-125.30518	56.14323	64.27993	-122.86417	54.51589	110.65912	9.76404	54.51589	63.46626	17.90074	0
950	4.88202	-115.54114	-120.42316	53.70222	61.83892	-117.98215	59.39791	110.65912	14.64606	59.39791	68.34828	20.34175	0
951	4.88202	-108.21811	-113.10013	51.26121	59.39791	-110.65912	61.83892	110.65912	19.52808	61.83892	68.34828	22.78276	0
952	4.88202	-98.45407	-103.33609	46.37919	54.51589	-100.89508	66.72094	110.65912	24.4101	66.72094	68.34828	25.22377	0
953	9.76404	-88.69003	-98.45407	39.05616	54.51589	-93.57205	74.04397	113.10013	26.85111	69.16195	70.78929	30.10579	0
954	9.76404	-81.367	-91.13104	34.17414	49.63387	-86.24902	76.48498	117.98215	31.73313	69.16195	70.78929	30.10579	0
955	12.20505	-76.48498	-88.69003	31.73313	49.63387	-81.367	78.92599	122.86417	31.73313	69.16195	70.78929	30.10579	0
956	17.08707	-69.16195	-86.24902	24.4101	52.07488	-76.48498	81.367	127.74619	31.73313	66.72094	68.34828	25.22377	0
957	17.08707	-66.72094	-83.80801	24.4101	49.63387	-74.04397	81.367	132.62821	34.17414	64.27993	65.90727	22.78276	0
958	24.4101	-61.83892	-86.24902	17.08707	54.51589	-74.04397	83.80801	139.95124	34.17414	61.83892	61.02525	20.34175	0
959	34.17414	-52.07488	-86.24902	7.32303	59.39791	-69.16195	83.80801	144.83326	36.61515	59.39791	58.58424	20.34175	0
960	43.93818	-39.86983	-83.80801	-3.25468	64.27993	-61.83892	86.24902	147.27427	39.05616	59.39791	58.58424	22.78276	0
961	51.26121	-32.5468	-83.80801	-10.57771	66.72094	-56.9569	86.24902	147.27427	41.49717	59.39791	58.58424	25.22377	0
962	51.26121	-25.22377	-76.48498	-13.01872	64.27993	-49.63387	88.69003	147.27427	46.37919	59.39791	58.58424	27.66478	0
963	53.70222	-17.90074	-71.60296	-17.90074	61.83892	-44.75185	88.69003	147.27427	48.8202	59.39791	58.58424	32.5468	0
964	53.70222	-10.57771	-64.27993	-22.78276	59.39791	-37.42882	88.69003	149.71528	51.26121	59.39791	58.58424	34.98781	0
965	51.26121	-0.81367	-52.07488	-25.22377	52.07488	-25.22377	91.13104	152.15629	51.26121	59.39791	58.58424	37.42882	0
966	48.8202	-0.81367	-49.63387	-25.22377	49.63387	-25.22377	88.69003	154.5973	51.26121	56.9569	56.14323	37.42882	0
967	48.8202	-0.81367	-49.63387	-25.22377	49.63387	-25.22377	81.367	154.5973	46.37919	54.51589	53.70222	34.98781	0
968	46.37919	-0.81367	-47.19286	-22.78276	47.19286	-22.78276	74.04397	149.71528	41.49717	49.63387	46.37919	30.10579	0
969	46.37919	-0.81367	-47.19286	-22.78276	47.19286	-22.78276	64.27993	147.27427	36.61515	44.75185	41.49717	27.66478	0
970	46.37919	-0.81367	-47.19286	-22.78276	47.19286	-22.78276	56.9569	137.51023	34.17414	37.42882	34.17414	25.22377	0
971	46.37919	-3.25468	-49.63387	-22.78276	47.19286	-25.22377	49.63387	130.1872	29.29212	32.5468	29.29212	20.34175	0
972	51.26121	-5.69569	-56.9569	-22.78276	54.51589	-30.10579	42.31084	120.42316	24.4101	27.66478	21.96909	17.90074	0
973	53.70222	-5.69569	-59.39791	-25.22377	56.9569	-32.5468	37.42882	115.54114	21.96909	22.78276	17.08707	15.45973	0
974	61.02525	-5.69569	-66.72094	-27.66478	64.27993	-34.98781	32.5468	115.54114	19.52808	17.90074	9.76404	10.57771	0
975	70.78929	-0.81367	-71.60296	-34.98781	71.60296	-34.98781	30.10579	113.10013	17.08707	13.01872	7.32303	5.69569	0
976	82.99434	4.88202	-78.92599	-44.75185	81.367	-37.42882	25.22377	110.65912	12.20505	2.44101	-0.81367	0	0
977	90.31737	7.32303	-83.80801	-49.63387	88.69003	-37.42882	17.90074	108.21811	7.32303	0	-5.69569	-4.88202	0
978	92.75838	9.76404	-83.80801	-52.07488	88.69003	-37.42882	13.01872	105.7771	1.62734	-4.88202	-10.57771	-9.76404	0
979	92.75838	12.20505	-81.367	-52.07488	88.69003	-34.98781	8.1367	100.89508	1.62734	-7.32303	-13.01872	-12.20505	0
980	92.75838	12.20505	-81.367	-52.07488	88.69003	-34.98781	5.69569	93.57205	1.62734	-9.76404	-15.45973	-12.20505	0
981	87.87636	9.76404	-78.92599	-49.63387	83.80801	-34.98781	5.69569	88.69003	1.62734	-9.76404	-15.45973	-12.20505	0
982	80.55333	4.88202	-76.48498	-42.31084	78.92599	-34.98781	5.69569	86.24902	1.62734	-7.32303	-15.45973	-9.76404	0
983	78.11232	-0.81367	-78.92599	-39.86983	78.92599	-39.86983	10.57771	86.24902	1.62734	-4.88202	-13.01872	-9.76404	0
984	73.2303	-3.25468	-76.48498	-34.98781	74.04397	-39.86983	13.01872	88.69003	1.62734	-4.88202	-13.01872	-9.76404	0
985	73.2303	-10.57771	-83.80801	-32.5468	78.92599	-47.19286	13.01872	88.69003	-0.81367	-4.88202	-13.01872	-9.76404	0
986	73.2303	-17.90074	-91.13104	-27.66478	81.367	-54.51589	15.45973	88.69003	-0.81367	-4.88202	-10.57771	-12.20505	0
987	68.34828	-25.22377	-93.57205	-22.78276	81.367	-59.39791	15.45973	88.69003	-3.25468	-4.88202	-8.1367	-12.20505	0
988	58.58424	-34.98781	-93.57205	-13.01872	76.48498	-64.27993	13.01872	83.80801	-3.25468	-4.88202	-5.69569	-12.20505	0
989	48.8202	-42.31084	-91.13104	-3.25468	69.16195	-66.72094	8.1367	78.92599	-3.25468	-4.88202	-5.69569	-12.20505	0
990	39.05616	-47.19286	-86.24902	2.44101	61.83892	-66.72094	5.69569	69.16195	-0.81367	-4.88202	-5.69569	-9.76404	0
991	31.73313	-52.07488	-83.80801	9.76404	56.9569	-66.72094	5.69569	59.39791	1.62734	-2.44101	-3.25468	-7.32303	0
992	21.96909	-56.9569	-78.92599	17.08707	49.63387	-66.72094	8.1367	54.51589	4.88202	2.44101	-0.81367	-2.44101	0
993	9.76404	-61.83892	-71.60296	24.4101	39.86983	-66.72094	10.57771	52.07488	9.76404	2.44101	1.62734	0	0
994	4.88202	-66.72094	-71.60296	29.29212	37.42882	-69.16195	13.01872	52.07488	9.76404	2.44101	1.62734	0	0
995	2.44101	-69.16195	-71.60296	31.73313	37.42882	-69.16195	13.01872	52.07488	7.32303	2.44101	1.62734	-2.44101	0
996	4.88202	-71.60296	-76.48498	31.73313	39.86983	-74.04397	15.45973	54.51589	7.32303	2.44101	1.62734	-2.44101	0
997	2.44101	-78.92599	-81.367	36.61515	42.31084	-78.92599	15.45973	54.51589	4.88202	2.44101	1.62734	-2.44101	0
998	-3.25468	-86.24902	-83.80801	43.93818	39.86983	-86.24902	15.45973	54.51589	1.62734	2.44101	1.62734	-4.88202	0
999	-5.69569	-93.57205	-88.69003	48.8202	42.31084	-91.13104	13.01872	52.07488	1.62734	2.44101	-0.81367	-7.32303	0
1000	-8.1367	-98.45407	-91.13104	51.26121	42.31084	-96.01306	8.1367	44.75185	1.62734	5.69569	-0.81367	-9.76404	0
1001	-8.1367	-98.45407	-91.13104	51.26121	42.31084	-96.01306	5.69569	42.31084	1.62734	5.69569	-3.25468	-9.76404	0
