samplenr	I	II	III	aVR	aVL	aVF	V1	V2	V3	V4	V5	V6	measurement
0	92.75838	52.88855	-39.86983	-74.04397	65.90727	5.69569	-78.92599	39.86983	-146.4606	-85.43535	-73.2303	-215.62255	0
1	95.19939	52.88855	-42.31084	-74.04397	68.34828	5.69569	-81.367	39.86983	-146.4606	-87.87636	-75.67131	-218.06356	0
2	102.52242	55.32956	-47.19286	-78.92599	75.67131	3.25468	-81.367	42.31084	-146.4606	-87.87636	-80.55333	-220.50457	0
3	109.84545	57.77057	-52.07488	-83.80801	80.55333	3.25468	-81.367	42.31084	-141.57858	-85.43535	-87.87636	-220.50457	0
4	114.72747	62.65259	-52.07488	-88.69003	82.99434	5.69569	-81.367	42.31084	-141.57858	-85.43535	-97.6404	-220.50457	0
5	117.16848	67.53461	-49.63387	-93.57205	82.99434	8.1367	-78.92599	42.31084	-136.69656	-85.43535	-102.52242	-220.50457	0
6	119.60949	72.41663	-47.19286	-96.01306	82.99434	13.83239	-76.48498	42.31084	-131.81454	-82.99434	-104.96343	-218.06356	0
7	114.72747	69.97562	-44.75185	-93.57205	80.55333	13.83239	-78.92599	42.31084	-129.37353	-82.99434	-104.96343	-220.50457	0
8	112.28646	69.97562	-42.31084	-91.13104	78.11232	13.83239	-78.92599	49.63387	-124.49151	-80.55333	-100.08141	-218.06356	0
9	107.40444	67.53461	-39.86983	-88.69003	73.2303	13.83239	-76.48498	54.51589	-122.0505	-80.55333	-92.75838	-215.62255	0
10	102.52242	62.65259	-39.86983	-83.80801	70.78929	11.39138	-74.04397	56.9569	-122.0505	-80.55333	-87.87636	-215.62255	0
11	104.96343	60.21158	-44.75185	-83.80801	75.67131	8.1367	-74.04397	56.9569	-124.49151	-80.55333	-87.87636	-215.62255	0
12	109.84545	60.21158	-49.63387	-86.24902	80.55333	5.69569	-76.48498	54.51589	-124.49151	-80.55333	-92.75838	-218.06356	0
13	122.0505	67.53461	-54.51589	-96.01306	87.87636	5.69569	-76.48498	56.9569	-122.0505	-75.67131	-95.19939	-215.62255	0
14	126.93252	74.85764	-52.07488	-100.89508	90.31737	11.39138	-71.60296	59.39791	-117.16848	-73.2303	-100.08141	-210.74053	0
15	126.93252	74.85764	-52.07488	-100.89508	90.31737	11.39138	-69.16195	56.9569	-114.72747	-73.2303	-109.84545	-210.74053	0
16	134.25555	77.29865	-56.9569	-105.7771	95.19939	11.39138	-66.72094	59.39791	-109.84545	-68.34828	-112.28646	-210.74053	0
17	136.69656	82.18067	-54.51589	-110.65912	95.19939	13.83239	-64.27993	61.83892	-104.96343	-68.34828	-112.28646	-210.74053	0
18	134.25555	82.18067	-52.07488	-108.21811	92.75838	16.2734	-64.27993	69.16195	-100.08141	-65.90727	-109.84545	-208.29952	0
19	131.81454	82.18067	-49.63387	-108.21811	90.31737	16.2734	-61.83892	76.48498	-100.08141	-65.90727	-107.40444	-210.74053	0
20	131.81454	82.18067	-49.63387	-108.21811	90.31737	16.2734	-61.83892	76.48498	-100.08141	-65.90727	-107.40444	-210.74053	0
21	134.25555	79.73966	-54.51589	-108.21811	95.19939	13.83239	-61.83892	78.92599	-100.08141	-65.90727	-107.40444	-213.18154	0
22	134.25555	82.18067	-52.07488	-108.21811	92.75838	16.2734	-61.83892	78.92599	-100.08141	-65.90727	-109.84545	-213.18154	0
23	136.69656	82.18067	-54.51589	-110.65912	95.19939	13.83239	-64.27993	78.92599	-100.08141	-65.90727	-112.28646	-213.18154	0
24	139.13757	84.62168	-54.51589	-113.10013	97.6404	16.2734	-64.27993	78.92599	-97.6404	-65.90727	-117.16848	-213.18154	0
25	141.57858	87.06269	-54.51589	-115.54114	97.6404	16.2734	-61.83892	78.92599	-92.75838	-65.90727	-119.60949	-213.18154	0
26	141.57858	87.06269	-54.51589	-115.54114	97.6404	16.2734	-61.83892	76.48498	-90.31737	-63.46626	-122.0505	-213.18154	0
27	141.57858	89.5037	-52.07488	-115.54114	97.6404	18.71441	-66.72094	76.48498	-85.43535	-63.46626	-122.0505	-213.18154	0
28	146.4606	94.38572	-52.07488	-120.42316	100.08141	21.15542	-64.27993	81.367	-80.55333	-63.46626	-117.16848	-210.74053	0
29	146.4606	94.38572	-52.07488	-120.42316	100.08141	21.15542	-61.83892	86.24902	-78.11232	-61.02525	-112.28646	-210.74053	0
30	148.90161	94.38572	-54.51589	-122.86417	102.52242	21.15542	-61.83892	86.24902	-78.11232	-58.58424	-109.84545	-210.74053	0
31	156.22464	99.26774	-56.9569	-127.74619	107.40444	21.15542	-61.83892	86.24902	-80.55333	-56.14323	-109.84545	-208.29952	0
32	161.10666	101.70875	-59.39791	-132.62821	109.84545	21.15542	-61.83892	88.69003	-80.55333	-53.70222	-107.40444	-208.29952	0
33	163.54767	104.14976	-59.39791	-135.06922	112.28646	23.59643	-61.83892	88.69003	-78.11232	-53.70222	-109.84545	-208.29952	0
34	168.42969	104.14976	-64.27993	-137.51023	117.16848	21.15542	-58.58424	88.69003	-75.67131	-51.26121	-112.28646	-205.85851	0
35	170.8707	106.59077	-64.27993	-139.95124	117.16848	21.15542	-58.58424	83.80801	-73.2303	-51.26121	-114.72747	-203.4175	0
36	170.8707	109.03178	-61.83892	-139.95124	117.16848	23.59643	-56.14323	81.367	-70.78929	-51.26121	-114.72747	-200.97649	0
37	173.31171	113.9138	-59.39791	-144.83326	117.16848	28.47845	-56.14323	83.80801	-65.90727	-48.8202	-109.84545	-198.53548	0
38	175.75272	118.79582	-56.9569	-147.27427	117.16848	30.91946	-56.14323	88.69003	-63.46626	-46.37919	-104.96343	-196.09447	0
39	170.8707	111.47279	-59.39791	-142.39225	114.72747	26.03744	-56.14323	88.69003	-68.34828	-51.26121	-102.52242	-198.53548	0
40	170.8707	111.47279	-59.39791	-142.39225	114.72747	26.03744	-56.14323	88.69003	-70.78929	-51.26121	-95.19939	-196.09447	0
41	168.42969	111.47279	-56.9569	-139.95124	112.28646	28.47845	-56.14323	93.57205	-73.2303	-48.8202	-92.75838	-193.65346	0
42	170.8707	113.9138	-56.9569	-142.39225	114.72747	28.47845	-58.58424	98.45407	-73.2303	-46.37919	-92.75838	-193.65346	0
43	173.31171	116.35481	-56.9569	-144.83326	114.72747	30.91946	-61.83892	98.45407	-73.2303	-46.37919	-100.08141	-191.21245	0
44	168.42969	111.47279	-56.9569	-139.95124	112.28646	28.47845	-61.83892	98.45407	-73.2303	-48.8202	-107.40444	-188.77144	0
45	173.31171	118.79582	-54.51589	-147.27427	114.72747	33.36047	-58.58424	98.45407	-68.34828	-46.37919	-109.84545	-186.33043	0
46	173.31171	123.67784	-49.63387	-149.71528	112.28646	38.24249	-56.14323	100.89508	-63.46626	-43.93818	-107.40444	-181.44841	0
47	175.75272	126.11885	-49.63387	-152.15629	112.28646	38.24249	-58.58424	98.45407	-61.02525	-43.93818	-102.52242	-179.0074	0
48	175.75272	131.00087	-44.75185	-154.5973	109.84545	43.12451	-61.83892	96.01306	-58.58424	-46.37919	-97.6404	-179.0074	0
49	175.75272	131.00087	-44.75185	-154.5973	109.84545	43.12451	-58.58424	96.01306	-56.14323	-43.93818	-85.43535	-174.12538	0
50	170.8707	126.11885	-44.75185	-149.71528	107.40444	40.6835	-56.14323	96.01306	-56.14323	-43.93818	-78.11232	-174.12538	0
51	168.42969	121.23683	-47.19286	-144.83326	107.40444	38.24249	-56.14323	96.01306	-58.58424	-41.49717	-78.11232	-174.12538	0
52	170.8707	121.23683	-49.63387	-147.27427	109.84545	35.80148	-56.14323	98.45407	-56.14323	-36.61515	-80.55333	-171.68437	0
53	163.54767	118.79582	-44.75185	-142.39225	104.96343	38.24249	-58.58424	98.45407	-53.70222	-36.61515	-90.31737	-171.68437	0
54	163.54767	116.35481	-47.19286	-139.95124	104.96343	35.80148	-58.58424	100.89508	-51.26121	-36.61515	-97.6404	-169.24336	0
55	163.54767	113.9138	-49.63387	-139.95124	107.40444	33.36047	-56.14323	100.89508	-48.8202	-34.17414	-104.96343	-169.24336	0
56	163.54767	116.35481	-47.19286	-139.95124	104.96343	35.80148	-56.14323	100.89508	-46.37919	-36.61515	-109.84545	-169.24336	0
57	168.42969	123.67784	-44.75185	-147.27427	107.40444	40.6835	-58.58424	100.89508	-41.49717	-39.05616	-109.84545	-169.24336	0
58	165.98868	121.23683	-44.75185	-144.83326	104.96343	38.24249	-58.58424	98.45407	-41.49717	-39.05616	-107.40444	-169.24336	0
59	170.8707	121.23683	-49.63387	-147.27427	109.84545	35.80148	-56.14323	100.89508	-36.61515	-39.05616	-100.08141	-164.36134	0
60	170.8707	123.67784	-47.19286	-147.27427	109.84545	38.24249	-51.26121	105.7771	-36.61515	-36.61515	-92.75838	-161.92033	0
61	165.98868	121.23683	-44.75185	-144.83326	104.96343	38.24249	-48.8202	108.21811	-36.61515	-36.61515	-90.31737	-161.92033	0
62	165.98868	126.11885	-39.86983	-147.27427	102.52242	43.12451	-46.37919	115.54114	-31.73313	-31.73313	-87.87636	-159.47932	0
63	163.54767	126.11885	-37.42882	-144.83326	100.08141	45.56552	-46.37919	117.98215	-31.73313	-29.29212	-87.87636	-159.47932	0
64	161.10666	123.67784	-37.42882	-142.39225	100.08141	43.12451	-43.93818	120.42316	-29.29212	-26.85111	-90.31737	-157.03831	0
65	156.22464	123.67784	-32.5468	-139.95124	95.19939	45.56552	-43.93818	122.86417	-29.29212	-26.85111	-95.19939	-157.03831	0
66	153.78363	118.79582	-34.98781	-137.51023	95.19939	43.12451	-43.93818	117.98215	-29.29212	-26.85111	-97.6404	-157.03831	0
67	153.78363	118.79582	-34.98781	-137.51023	95.19939	43.12451	-48.8202	113.10013	-26.85111	-29.29212	-100.08141	-157.03831	0
68	156.22464	121.23683	-34.98781	-139.95124	95.19939	43.12451	-48.8202	113.10013	-24.4101	-29.29212	-97.6404	-154.5973	0
69	148.90161	113.9138	-34.98781	-132.62821	92.75838	40.6835	-46.37919	113.10013	-24.4101	-26.85111	-92.75838	-152.15629	0
70	148.90161	113.9138	-34.98781	-132.62821	92.75838	40.6835	-43.93818	115.54114	-21.96909	-26.85111	-90.31737	-149.71528	0
71	146.4606	113.9138	-32.5468	-130.1872	90.31737	40.6835	-41.49717	120.42316	-21.96909	-24.4101	-87.87636	-147.27427	0
72	146.4606	118.79582	-27.66478	-132.62821	87.87636	45.56552	-39.05616	127.74619	-17.08707	-21.96909	-85.43535	-144.83326	0
73	144.01959	118.79582	-25.22377	-132.62821	85.43535	48.00653	-39.05616	135.06922	-12.20505	-19.52808	-85.43535	-142.39225	0
74	141.57858	118.79582	-22.78276	-130.1872	82.99434	48.00653	-36.61515	135.06922	-12.20505	-19.52808	-85.43535	-142.39225	0
75	141.57858	123.67784	-17.90074	-132.62821	80.55333	52.88855	-31.73313	137.51023	-7.32303	-19.52808	-85.43535	-139.95124	0
76	141.57858	126.11885	-15.45973	-135.06922	78.11232	55.32956	-31.73313	139.95124	-7.32303	-19.52808	-87.87636	-137.51023	0
77	141.57858	128.55986	-13.01872	-135.06922	78.11232	57.77057	-31.73313	137.51023	-4.88202	-17.08707	-85.43535	-135.06922	0
78	141.57858	128.55986	-13.01872	-135.06922	78.11232	57.77057	-31.73313	137.51023	0	-17.08707	-82.99434	-132.62821	0
79	141.57858	128.55986	-13.01872	-135.06922	78.11232	57.77057	-26.85111	135.06922	0	-14.64606	-80.55333	-130.1872	0
80	141.57858	128.55986	-13.01872	-135.06922	78.11232	57.77057	-21.96909	137.51023	5.69569	-9.76404	-73.2303	-127.74619	0
81	139.13757	128.55986	-10.57771	-135.06922	75.67131	60.21158	-19.52808	139.95124	8.1367	-4.88202	-68.34828	-125.30518	0
82	136.69656	128.55986	-8.1367	-132.62821	73.2303	60.21158	-14.64606	142.39225	13.01872	-2.44101	-63.46626	-122.86417	0
83	136.69656	131.00087	-5.69569	-135.06922	70.78929	62.65259	-9.76404	144.83326	17.90074	0	-61.02525	-117.98215	0
84	136.69656	133.44188	-3.25468	-135.06922	70.78929	65.0936	-2.44101	147.27427	20.34175	3.25468	-58.58424	-117.98215	0
85	129.37353	133.44188	4.06835	-132.62821	63.46626	69.97562	0	147.27427	20.34175	3.25468	-61.02525	-115.54114	0
86	129.37353	133.44188	4.06835	-132.62821	63.46626	69.97562	2.44101	144.83326	22.78276	5.69569	-61.02525	-113.10013	0
87	131.81454	133.44188	1.62734	-132.62821	65.90727	67.53461	2.44101	144.83326	25.22377	8.1367	-61.02525	-110.65912	0
88	134.25555	135.88289	1.62734	-135.06922	65.90727	69.97562	0	144.83326	27.66478	8.1367	-56.14323	-108.21811	0
89	131.81454	135.88289	4.06835	-135.06922	63.46626	69.97562	-2.44101	144.83326	30.10579	10.57771	-51.26121	-103.33609	0
90	129.37353	133.44188	4.06835	-132.62821	63.46626	69.97562	-7.32303	144.83326	32.5468	15.45973	-46.37919	-100.89508	0
91	131.81454	138.3239	6.50936	-135.06922	63.46626	72.41663	-12.20505	142.39225	34.98781	17.90074	-41.49717	-96.01306	0
92	136.69656	143.20592	6.50936	-139.95124	65.90727	74.85764	-17.08707	139.95124	37.42882	22.78276	-36.61515	-91.13104	0
93	131.81454	143.20592	11.39138	-137.51023	61.02525	77.29865	-26.85111	135.06922	37.42882	22.78276	-39.05616	-88.69003	0
94	126.93252	143.20592	16.2734	-135.06922	56.14323	79.73966	-31.73313	127.74619	34.98781	22.78276	-41.49717	-83.80801	0
95	129.37353	150.52895	21.15542	-139.95124	53.70222	87.06269	-34.17414	122.86417	34.98781	25.22377	-41.49717	-76.48498	0
96	131.81454	160.29299	29.29212	-147.27427	51.26121	94.38572	-39.05616	115.54114	32.5468	27.66478	-39.05616	-74.04397	0
97	131.81454	165.17501	34.17414	-149.71528	48.8202	99.26774	-48.8202	108.21811	30.10579	27.66478	-36.61515	-69.16195	0
98	129.37353	170.05703	41.49717	-149.71528	43.93818	106.59077	-53.70222	100.89508	25.22377	25.22377	-31.73313	-66.72094	0
99	126.93252	172.49804	46.37919	-149.71528	41.49717	109.03178	-61.83892	93.57205	22.78276	22.78276	-24.4101	-64.27993	0
100	124.49151	174.93905	51.26121	-149.71528	36.61515	113.9138	-64.27993	88.69003	20.34175	22.78276	-19.52808	-59.39791	1000	P+0
101	124.49151	177.38006	53.70222	-152.15629	36.61515	116.35481	-69.16195	88.69003	17.90074	22.78276	-17.08707	-59.39791	0
102	124.49151	182.26208	58.58424	-154.5973	34.17414	121.23683	-69.16195	91.13104	20.34175	27.66478	-14.64606	-52.07488	0
103	122.0505	182.26208	61.02525	-152.15629	31.73313	121.23683	-69.16195	91.13104	22.78276	30.10579	-17.08707	-49.63387	0
104	122.0505	182.26208	61.02525	-152.15629	31.73313	121.23683	-66.72094	91.13104	25.22377	32.5468	-19.52808	-44.75185	0
105	131.81454	189.58511	58.58424	-161.92033	36.61515	123.67784	-64.27993	91.13104	27.66478	34.98781	-17.08707	-37.42882	0
106	136.69656	189.58511	53.70222	-164.36134	41.49717	121.23683	-64.27993	91.13104	32.5468	39.86983	-12.20505	-34.98781	0
107	141.57858	187.1441	46.37919	-164.36134	48.8202	116.35481	-64.27993	91.13104	32.5468	39.86983	-4.88202	-30.10579	0
108	141.57858	174.93905	34.17414	-159.47932	53.70222	104.14976	-66.72094	91.13104	30.10579	37.42882	2.44101	-30.10579	0
109	141.57858	167.61602	26.85111	-154.5973	58.58424	96.82673	-69.16195	88.69003	27.66478	34.98781	8.1367	-30.10579	0
110	141.57858	165.17501	23.59643	-154.5973	58.58424	94.38572	-69.16195	88.69003	27.66478	34.98781	13.01872	-30.10579	0
111	139.13757	160.29299	21.15542	-149.71528	58.58424	91.94471	-69.16195	88.69003	22.78276	30.10579	10.57771	-34.98781	0
112	136.69656	150.52895	13.83239	-144.83326	61.02525	82.18067	-66.72094	91.13104	22.78276	30.10579	5.69569	-37.42882	0
113	134.25555	145.64693	11.39138	-139.95124	61.02525	79.73966	-61.83892	91.13104	22.78276	27.66478	-2.44101	-39.86983	0
114	126.93252	138.3239	11.39138	-132.62821	58.58424	74.85764	-51.26121	96.01306	25.22377	25.22377	-12.20505	-44.75185	0
115	119.60949	131.00087	11.39138	-125.30518	53.70222	72.41663	-43.93818	98.45407	27.66478	22.78276	-21.96909	-49.63387	0
116	112.28646	121.23683	8.95037	-117.98215	51.26121	65.0936	-36.61515	103.33609	30.10579	22.78276	-26.85111	-54.51589	0
117	104.96343	109.03178	4.06835	-108.21811	51.26121	57.77057	-29.29212	108.21811	34.98781	22.78276	-26.85111	-56.9569	0
118	97.6404	99.26774	1.62734	-98.45407	48.8202	50.44754	-24.4101	113.10013	37.42882	22.78276	-21.96909	-61.83892	0
119	87.87636	91.94471	4.06835	-91.13104	41.49717	48.00653	-19.52808	117.98215	39.86983	20.34175	-17.08707	-64.27993	0
120	80.55333	82.18067	1.62734	-81.367	39.05616	43.12451	-17.08707	120.42316	42.31084	20.34175	-14.64606	-66.72094	0
121	78.11232	79.73966	1.62734	-78.92599	39.05616	40.6835	-14.64606	120.42316	42.31084	20.34175	-12.20505	-66.72094	0
122	75.67131	77.29865	1.62734	-76.48498	36.61515	40.6835	-14.64606	120.42316	42.31084	20.34175	-14.64606	-69.16195	0
123	68.34828	69.97562	1.62734	-69.16195	34.17414	35.80148	-14.64606	117.98215	39.86983	17.90074	-24.4101	-74.04397	0
124	68.34828	69.97562	1.62734	-69.16195	34.17414	35.80148	-12.20505	117.98215	39.86983	15.45973	-29.29212	-74.04397	0
125	65.90727	74.85764	8.95037	-71.60296	29.29212	43.12451	-12.20505	115.54114	37.42882	13.01872	-34.17414	-74.04397	0
126	68.34828	74.85764	6.50936	-71.60296	31.73313	40.6835	-14.64606	113.10013	34.98781	10.57771	-36.61515	-74.04397	0
127	63.46626	65.0936	1.62734	-64.27993	31.73313	33.36047	-19.52808	108.21811	30.10579	5.69569	-36.61515	-76.48498	0
128	56.14323	60.21158	4.06835	-59.39791	26.85111	33.36047	-24.4101	103.33609	27.66478	3.25468	-31.73313	-76.48498	0
129	56.14323	57.77057	1.62734	-56.9569	26.85111	30.91946	-26.85111	100.89508	27.66478	3.25468	-26.85111	-76.48498	0
130	61.02525	57.77057	-3.25468	-59.39791	31.73313	28.47845	-26.85111	100.89508	30.10579	3.25468	-19.52808	-74.04397	0
131	61.02525	57.77057	-3.25468	-59.39791	31.73313	28.47845	-26.85111	100.89508	30.10579	3.25468	-19.52808	-74.04397	0
132	58.58424	55.32956	-3.25468	-56.9569	31.73313	26.03744	-26.85111	100.89508	34.98781	5.69569	-19.52808	-74.04397	0
133	63.46626	60.21158	-3.25468	-61.83892	34.17414	28.47845	-21.96909	100.89508	37.42882	8.1367	-21.96909	-69.16195	0
134	70.78929	67.53461	-3.25468	-69.16195	36.61515	33.36047	-19.52808	100.89508	39.86983	8.1367	-24.4101	-66.72094	0
135	73.2303	69.97562	-3.25468	-71.60296	39.05616	33.36047	-17.08707	100.89508	42.31084	10.57771	-26.85111	-61.83892	0
136	65.90727	67.53461	1.62734	-66.72094	31.73313	35.80148	-17.08707	96.01306	42.31084	5.69569	-26.85111	-61.83892	0
137	70.78929	69.97562	-0.81367	-71.60296	36.61515	35.80148	-17.08707	96.01306	42.31084	8.1367	-21.96909	-56.9569	0
138	73.2303	72.41663	-0.81367	-74.04397	36.61515	35.80148	-17.08707	96.01306	44.75185	10.57771	-14.64606	-52.07488	0
139	61.02525	62.65259	1.62734	-61.83892	29.29212	33.36047	-19.52808	93.57205	42.31084	5.69569	-9.76404	-54.51589	0
140	56.14323	60.21158	4.06835	-59.39791	26.85111	33.36047	-19.52808	93.57205	42.31084	5.69569	-7.32303	-56.9569	0
141	56.14323	55.32956	-0.81367	-56.9569	29.29212	28.47845	-19.52808	93.57205	39.86983	5.69569	-7.32303	-59.39791	0
142	56.14323	57.77057	1.62734	-56.9569	26.85111	30.91946	-17.08707	93.57205	39.86983	8.1367	-7.32303	-56.9569	0
143	58.58424	60.21158	1.62734	-59.39791	29.29212	30.91946	-17.08707	93.57205	39.86983	8.1367	-9.76404	-56.9569	0
144	43.93818	48.00653	4.06835	-47.19286	19.52808	26.03744	-19.52808	86.24902	32.5468	0	-21.96909	-61.83892	0
145	51.26121	52.88855	1.62734	-52.07488	24.4101	28.47845	-21.96909	78.92599	25.22377	-7.32303	-26.85111	-59.39791	0
146	53.70222	55.32956	1.62734	-54.51589	26.85111	28.47845	-26.85111	66.72094	10.57771	-17.08707	-29.29212	-56.9569	0
147	53.70222	60.21158	6.50936	-56.9569	24.4101	33.36047	-36.61515	49.63387	-4.88202	-26.85111	-26.85111	-52.07488	0
148	48.8202	60.21158	11.39138	-54.51589	19.52808	35.80148	-51.26121	25.22377	-29.29212	-43.93818	-24.4101	-44.75185	0
149	48.8202	60.21158	11.39138	-54.51589	19.52808	35.80148	-66.72094	-6.50936	-63.46626	-61.02525	-19.52808	-37.42882	0
150	51.26121	65.0936	13.83239	-59.39791	19.52808	40.6835	-88.69003	-46.37919	-104.96343	-80.55333	-9.76404	-25.22377	0
151	58.58424	74.85764	16.2734	-66.72094	21.96909	45.56552	-115.54114	-95.19939	-151.34262	-92.75838	5.69569	-3.25468	0
152	73.2303	91.94471	18.71441	-83.80801	26.85111	55.32956	-144.83326	-146.4606	-197.72181	-100.08141	30.10579	29.29212	0
153	92.75838	104.14976	11.39138	-98.45407	41.49717	57.77057	-181.44841	-202.60383	-248.98302	-104.96343	59.39791	63.46626	0
154	114.72747	116.35481	1.62734	-115.54114	56.14323	60.21158	-220.50457	-263.62908	-300.24423	-104.96343	93.57205	107.40444	0
155	141.57858	135.88289	-5.69569	-139.95124	73.2303	65.0936	-262.00174	-324.65433	-349.06443	-102.52242	137.51023	156.22464	0
156	168.42969	152.96996	-15.45973	-161.92033	92.75838	69.97562	-305.93992	-383.23857	-395.44362	-97.6404	183.88942	209.92686	0
157	197.72181	172.49804	-25.22377	-186.33043	112.28646	74.85764	-352.31911	-439.3818	-441.82281	-95.19939	235.15063	266.07009	0
158	227.01393	194.46713	-32.5468	-210.74053	129.37353	82.18067	-393.81628	-488.202	-480.87897	-97.6404	279.08881	317.3313	0
159	248.98302	216.43622	-32.5468	-232.70962	141.57858	91.94471	-432.87244	-534.58119	-519.93513	-102.52242	320.58598	368.59251	0
160	270.95211	240.84632	-30.10579	-257.11972	151.34262	106.59077	-467.04658	-576.07836	-556.55028	-109.84545	354.76012	417.41271	0
161	288.03918	262.81541	-25.22377	-276.6478	156.22464	118.79582	-486.57466	-598.04745	-573.63735	-107.40444	379.17022	451.58685	0
162	290.48019	275.02046	-15.45973	-283.97083	153.78363	131.00087	-484.13365	-585.8424	-554.10927	-85.43535	391.37527	468.67392	0
163	278.27514	284.7845	6.50936	-281.52982	136.69656	145.64693	-454.84153	-539.46321	-493.08402	-41.49717	388.93426	463.7919	0
164	251.42403	289.66652	39.05616	-271.76578	107.40444	165.17501	-406.02133	-468.67392	-407.64867	8.1367	369.40618	436.94079	0
165	212.36787	289.66652	78.11232	-252.2377	68.34828	184.70309	-342.55507	-385.67958	-312.44928	47.19286	323.02699	385.67958	0
166	158.66565	277.46147	119.60949	-218.06356	19.52808	199.34915	-269.32477	-288.03918	-209.92686	71.60296	244.91467	305.12625	0
167	92.75838	262.81541	170.8707	-179.0074	-39.86983	216.43622	-186.33043	-185.51676	-107.40444	74.04397	144.83326	205.04484	0
168	29.29212	243.28733	214.80888	-137.51023	-93.57205	228.64127	-103.33609	-87.87636	-21.96909	47.19286	32.5468	100.08141	0
169	-26.85111	233.52329	261.18807	-103.33609	-144.83326	248.16935	-29.29212	-8.95037	34.98781	-7.32303	-85.43535	-0.81367	0
170	-76.48498	213.99521	290.48019	-69.16195	-183.88942	250.61036	36.61515	61.83892	66.72094	-92.75838	-205.04484	-100.89508	0
171	-110.65912	194.46713	305.12625	-42.31084	-208.29952	248.16935	102.52242	135.06922	83.80801	-185.51676	-312.44928	-183.88942	0
172	-142.39225	165.17501	307.56726	-13.01872	-225.38659	235.9643	165.98868	208.29952	96.01306	-278.27514	-400.32564	-252.2377	0
173	-164.36134	135.88289	300.24423	13.83239	-232.70962	216.43622	227.01393	281.52982	108.21811	-351.50544	-463.7919	-301.0579	0
174	-176.56639	106.59077	283.15716	34.17414	-230.26861	194.46713	285.59817	357.20113	120.42316	-402.76665	-502.84806	-332.79103	0
175	-188.77144	72.41663	261.18807	56.14323	-225.38659	165.17501	344.18241	437.75446	142.39225	-432.05877	-522.37614	-357.20113	0
176	-188.77144	43.12451	231.89595	70.78929	-210.74053	135.88289	402.76665	523.18981	174.12538	-439.3818	-522.37614	-366.96517	0
177	-196.09447	11.39138	207.48585	90.31737	-200.97649	109.03178	461.35089	606.18415	210.74053	-436.94079	-515.05311	-374.2882	0
178	-205.85851	-18.71441	187.95777	109.84545	-198.53548	84.62168	522.37614	696.50152	262.00174	-407.64867	-493.08402	-376.72921	0
179	-208.29952	-35.80148	173.31171	119.60949	-191.21245	67.53461	585.8424	794.14192	325.468	-366.1515	-463.7919	-371.84719	0
180	-210.74053	-55.32956	156.22464	131.81454	-183.88942	50.44754	649.30866	889.34131	391.37527	-319.77231	-436.94079	-364.52416	0
181	-213.18154	-69.97562	144.01959	139.13757	-179.0074	35.80148	710.33391	977.21767	449.95951	-283.15716	-410.08968	-357.20113	0
182	-225.38659	-87.06269	139.13757	153.78363	-183.88942	26.03744	761.59512	1038.24292	486.57466	-256.30605	-393.00261	-349.8781	0
183	-237.59164	-106.59077	131.81454	170.8707	-186.33043	11.39138	803.09229	1067.53504	503.66173	-231.89595	-375.91554	-342.55507	0
184	-237.59164	-109.03178	129.37353	170.8707	-183.88942	8.1367	842.14845	1067.53504	506.10274	-207.48585	-353.94645	-327.90901	0
185	-242.47366	-116.35481	126.93252	178.19373	-186.33043	3.25468	866.55855	1026.03787	481.69264	-192.83979	-336.85938	-315.70396	0
186	-254.67871	-128.55986	126.93252	190.39878	-191.21245	-1.62734	878.7636	945.48454	432.87244	-187.95777	-322.21332	-305.93992	0
187	-264.44275	-135.88289	129.37353	197.72181	-198.53548	-4.06835	883.64562	840.52111	362.08315	-195.2808	-312.44928	-298.61689	0
188	-271.76578	-143.20592	129.37353	205.04484	-200.97649	-8.95037	888.52764	723.35263	286.41184	-205.04484	-300.24423	-291.29386	0
189	-271.76578	-143.20592	129.37353	205.04484	-200.97649	-8.95037	898.29168	611.06617	218.06356	-209.92686	-288.03918	-281.52982	0
190	-283.97083	-150.52895	134.25555	214.80888	-210.74053	-8.95037	905.61471	501.22072	149.71528	-222.13191	-283.15716	-276.6478	0
191	-301.0579	-160.29299	141.57858	229.45494	-222.94558	-11.39138	917.81976	403.58032	88.69003	-234.33696	-283.15716	-274.20679	0
192	-305.93992	-157.85198	148.90161	229.45494	-227.8276	-6.50936	939.78885	325.468	37.42882	-241.65999	-280.71615	-266.88376	0
193	-310.82194	-155.41097	156.22464	231.89595	-235.15063	-1.62734	961.75794	264.44275	5.69569	-244.101	-275.83413	-259.56073	0
194	-318.14497	-155.41097	163.54767	234.33696	-242.47366	3.25468	978.84501	220.50457	-12.20505	-241.65999	-268.5111	-252.2377	0
195	-320.58598	-150.52895	170.8707	234.33696	-247.35568	8.1367	978.84501	188.77144	-21.96909	-231.89595	-258.74706	-242.47366	0
196	-323.02699	-148.08794	175.75272	234.33696	-249.79669	13.83239	956.87592	161.92033	-24.4101	-219.6909	-246.54201	-232.70962	0
197	-318.14497	-140.76491	178.19373	227.01393	-249.79669	18.71441	912.93774	142.39225	-21.96909	-205.04484	-227.01393	-218.06356	0
198	-303.49891	-126.11885	178.19373	212.36787	-242.47366	26.03744	849.47148	135.06922	-12.20505	-183.07575	-202.60383	-200.97649	0
199	-293.73487	-118.79582	175.75272	205.04484	-235.15063	28.47845	761.59512	125.30518	0	-158.66565	-175.75272	-183.88942	0
200	-274.20679	-109.03178	165.98868	190.39878	-220.50457	28.47845	654.19068	110.65912	10.57771	-136.69656	-151.34262	-166.80235	0
201	-257.11972	-101.70875	156.22464	178.19373	-208.29952	26.03744	539.46321	96.01306	17.90074	-114.72747	-131.81454	-149.71528	0
202	-242.47366	-94.38572	148.90161	165.98868	-196.09447	26.03744	432.05877	83.80801	25.22377	-92.75838	-112.28646	-132.62821	0
203	-230.26861	-87.06269	144.01959	156.22464	-188.77144	28.47845	336.85938	78.92599	32.5468	-73.2303	-92.75838	-115.54114	0
204	-222.94558	-89.5037	134.25555	153.78363	-179.0074	21.15542	253.86504	74.04397	42.31084	-58.58424	-80.55333	-103.33609	0
205	-215.62255	-89.5037	126.93252	151.34262	-171.68437	18.71441	187.95777	74.04397	52.07488	-41.49717	-65.90727	-91.13104	0
206	-208.29952	-87.06269	122.0505	146.4606	-166.80235	16.2734	144.01959	83.80801	66.72094	-24.4101	-48.8202	-78.92599	0
207	-210.74053	-91.94471	119.60949	148.90161	-166.80235	13.83239	109.84545	93.57205	81.367	-9.76404	-31.73313	-69.16195	0
208	-210.74053	-91.94471	119.60949	148.90161	-166.80235	13.83239	90.31737	103.33609	96.01306	3.25468	-17.08707	-59.39791	0
209	-210.74053	-96.82673	114.72747	151.34262	-164.36134	8.1367	75.67131	113.10013	108.21811	13.01872	-7.32303	-56.9569	0
210	-210.74053	-99.26774	112.28646	153.78363	-161.92033	5.69569	65.90727	120.42316	117.98215	22.78276	0	-52.07488	0
211	-213.18154	-104.14976	109.84545	156.22464	-161.92033	0.81367	58.58424	127.74619	125.30518	32.5468	5.69569	-47.19286	0
212	-220.50457	-111.47279	109.84545	163.54767	-166.80235	-1.62734	51.26121	130.1872	127.74619	37.42882	8.1367	-44.75185	0
213	-225.38659	-118.79582	107.40444	170.8707	-166.80235	-6.50936	43.93818	127.74619	125.30518	37.42882	5.69569	-44.75185	0
214	-225.38659	-118.79582	107.40444	170.8707	-166.80235	-6.50936	41.49717	125.30518	125.30518	39.86983	5.69569	-42.31084	0
215	-230.26861	-126.11885	104.96343	175.75272	-169.24336	-11.39138	34.17414	122.86417	122.86417	42.31084	5.69569	-42.31084	0
216	-240.03265	-133.44188	107.40444	185.51676	-174.12538	-13.83239	26.85111	117.98215	122.86417	44.75185	10.57771	-39.86983	0
217	-244.91467	-140.76491	104.96343	190.39878	-176.56639	-18.71441	19.52808	115.54114	122.86417	49.63387	13.01872	-37.42882	0
218	-249.79669	-145.64693	104.96343	195.2808	-179.0074	-21.15542	12.20505	115.54114	122.86417	52.07488	17.90074	-37.42882	0
219	-254.67871	-148.08794	107.40444	200.16282	-181.44841	-21.15542	9.76404	115.54114	125.30518	56.9569	22.78276	-34.98781	0
220	-259.56073	-150.52895	109.84545	202.60383	-186.33043	-21.15542	4.88202	115.54114	125.30518	61.83892	27.66478	-34.98781	0
221	-264.44275	-152.96996	112.28646	207.48585	-188.77144	-21.15542	0	115.54114	125.30518	64.27993	30.10579	-32.5468	0
222	-264.44275	-152.96996	112.28646	207.48585	-188.77144	-21.15542	-2.44101	117.98215	125.30518	64.27993	30.10579	-27.66478	0
223	-266.88376	-152.96996	114.72747	207.48585	-191.21245	-21.15542	-4.88202	117.98215	122.86417	66.72094	30.10579	-25.22377	0
224	-266.88376	-152.96996	114.72747	207.48585	-191.21245	-21.15542	-2.44101	117.98215	120.42316	66.72094	30.10579	-22.78276	0
225	-274.20679	-155.41097	119.60949	212.36787	-198.53548	-18.71441	-4.88202	117.98215	117.98215	64.27993	30.10579	-17.90074	0
226	-279.08881	-160.29299	119.60949	217.24989	-200.97649	-21.15542	-7.32303	117.98215	115.54114	64.27993	32.5468	-15.45973	0
227	-286.41184	-160.29299	126.93252	222.13191	-208.29952	-18.71441	-9.76404	117.98215	115.54114	66.72094	37.42882	-15.45973	0
228	-293.73487	-167.61602	126.93252	229.45494	-210.74053	-21.15542	-12.20505	117.98215	115.54114	66.72094	42.31084	-13.01872	0
229	-301.0579	-167.61602	134.25555	231.89595	-218.06356	-18.71441	-12.20505	117.98215	117.98215	71.60296	47.19286	-13.01872	0
230	-305.93992	-167.61602	139.13757	234.33696	-222.94558	-16.2734	-17.08707	115.54114	115.54114	71.60296	49.63387	-13.01872	0
231	-313.26295	-167.61602	146.4606	239.21898	-230.26861	-11.39138	-19.52808	113.10013	113.10013	71.60296	49.63387	-13.01872	0
232	-318.14497	-174.93905	144.01959	244.101	-232.70962	-16.2734	-24.4101	113.10013	110.65912	71.60296	49.63387	-13.01872	0
233	-325.468	-179.82107	146.4606	251.42403	-237.59164	-18.71441	-24.4101	113.10013	110.65912	74.04397	49.63387	-10.57771	0
234	-327.90901	-179.82107	148.90161	251.42403	-240.03265	-16.2734	-26.85111	110.65912	105.7771	71.60296	49.63387	-8.1367	0
235	-327.90901	-184.70309	144.01959	253.86504	-237.59164	-21.15542	-29.29212	105.7771	98.45407	71.60296	49.63387	-5.69569	0
236	-325.468	-187.1441	139.13757	253.86504	-232.70962	-26.03744	-31.73313	105.7771	98.45407	71.60296	54.51589	-3.25468	0
237	-323.02699	-192.02612	131.81454	256.30605	-227.8276	-30.91946	-31.73313	105.7771	98.45407	71.60296	59.39791	-0.81367	0
238	-327.90901	-194.46713	134.25555	258.74706	-232.70962	-30.91946	-31.73313	105.7771	100.89508	76.48498	66.72094	1.62734	0
239	-332.79103	-189.58511	144.01959	258.74706	-240.03265	-23.59643	-31.73313	108.21811	100.89508	78.92599	71.60296	1.62734	0
240	-332.79103	-192.02612	141.57858	261.18807	-237.59164	-26.03744	-31.73313	105.7771	100.89508	78.92599	71.60296	1.62734	0
241	-340.11406	-194.46713	146.4606	266.07009	-244.91467	-26.03744	-34.17414	103.33609	98.45407	81.367	71.60296	1.62734	0
242	-347.43709	-194.46713	153.78363	268.5111	-252.2377	-21.15542	-34.17414	103.33609	96.01306	81.367	69.16195	4.88202	0
243	-354.76012	-196.90814	158.66565	273.39312	-257.11972	-21.15542	-39.05616	103.33609	93.57205	81.367	66.72094	7.32303	0
244	-357.20113	-199.34915	158.66565	275.83413	-259.56073	-21.15542	-39.05616	98.45407	88.69003	78.92599	61.83892	9.76404	0
245	-357.20113	-201.79016	156.22464	278.27514	-257.11972	-23.59643	-43.93818	93.57205	78.92599	76.48498	59.39791	9.76404	0
246	-357.20113	-201.79016	156.22464	278.27514	-257.11972	-23.59643	-48.8202	91.13104	76.48498	74.04397	61.83892	12.20505	0
247	-357.20113	-196.90814	161.10666	275.83413	-259.56073	-18.71441	-51.26121	88.69003	76.48498	74.04397	66.72094	17.08707	0
248	-352.31911	-194.46713	158.66565	270.95211	-257.11972	-18.71441	-53.70222	88.69003	74.04397	76.48498	71.60296	17.08707	0
249	-352.31911	-194.46713	158.66565	270.95211	-257.11972	-18.71441	-58.58424	83.80801	71.60296	74.04397	74.04397	17.08707	0
250	-352.31911	-194.46713	158.66565	270.95211	-257.11972	-18.71441	-61.83892	81.367	69.16195	74.04397	76.48498	19.52808	0
251	-357.20113	-192.02612	165.98868	273.39312	-262.00174	-13.83239	-61.83892	81.367	66.72094	74.04397	78.92599	21.96909	0
252	-357.20113	-189.58511	168.42969	270.95211	-264.44275	-11.39138	-61.83892	81.367	66.72094	76.48498	78.92599	24.4101	0
253	-364.52416	-192.02612	173.31171	275.83413	-269.32477	-11.39138	-66.72094	76.48498	61.83892	71.60296	74.04397	26.85111	0
254	-371.84719	-194.46713	178.19373	280.71615	-276.6478	-8.95037	-69.16195	69.16195	52.07488	66.72094	69.16195	24.4101	1500	QRS+0
255	-374.2882	-192.02612	183.07575	280.71615	-279.08881	-6.50936	-69.16195	61.83892	47.19286	64.27993	69.16195	26.85111	0
256	-384.05224	-192.02612	192.83979	285.59817	-288.85285	-1.62734	-71.60296	56.9569	39.86983	61.83892	71.60296	29.29212	0
257	-381.61123	-192.02612	190.39878	285.59817	-286.41184	-1.62734	-81.367	49.63387	32.5468	56.9569	71.60296	26.85111	0
258	-374.2882	-187.1441	187.95777	278.27514	-281.52982	-1.62734	-88.69003	42.31084	27.66478	52.07488	71.60296	26.85111	0
259	-369.40618	-179.82107	190.39878	273.39312	-281.52982	3.25468	-91.13104	37.42882	22.78276	52.07488	74.04397	26.85111	0
260	-369.40618	-177.38006	192.83979	270.95211	-281.52982	5.69569	-96.01306	32.5468	15.45973	49.63387	76.48498	31.73313	0
261	-369.40618	-174.93905	195.2808	270.95211	-283.97083	8.1367	-100.89508	27.66478	10.57771	47.19286	76.48498	34.17414	0
262	-369.40618	-170.05703	200.16282	268.5111	-286.41184	13.83239	-105.7771	22.78276	3.25468	44.75185	74.04397	36.61515	0
263	-364.52416	-167.61602	197.72181	263.62908	-281.52982	13.83239	-110.65912	15.45973	-2.44101	39.86983	69.16195	36.61515	0
264	-364.52416	-167.61602	197.72181	263.62908	-281.52982	13.83239	-110.65912	8.1367	-12.20505	32.5468	66.72094	36.61515	0
265	-369.40618	-167.61602	202.60383	266.07009	-286.41184	16.2734	-115.54114	0.81367	-26.85111	27.66478	64.27993	39.05616	0
266	-369.40618	-167.61602	202.60383	266.07009	-286.41184	16.2734	-120.42316	-6.50936	-34.17414	22.78276	64.27993	41.49717	0
267	-369.40618	-165.17501	205.04484	266.07009	-288.85285	18.71441	-127.74619	-11.39138	-43.93818	15.45973	64.27993	41.49717	0
268	-369.40618	-162.734	207.48585	263.62908	-288.85285	21.15542	-132.62821	-18.71441	-51.26121	10.57771	66.72094	41.49717	0
269	-366.96517	-157.85198	209.92686	261.18807	-288.85285	26.03744	-135.06922	-23.59643	-56.14323	5.69569	66.72094	41.49717	0
270	-364.52416	-152.96996	212.36787	256.30605	-288.85285	28.47845	-139.95124	-29.29212	-65.90727	3.25468	66.72094	43.93818	0
271	-362.08315	-150.52895	212.36787	253.86504	-288.85285	30.91946	-144.83326	-36.61515	-73.2303	0	66.72094	43.93818	0
272	-357.20113	-143.20592	214.80888	248.98302	-286.41184	35.80148	-149.71528	-43.93818	-82.99434	-4.88202	61.83892	43.93818	0
273	-349.8781	-138.3239	212.36787	241.65999	-281.52982	35.80148	-154.5973	-53.70222	-95.19939	-12.20505	56.9569	43.93818	0
274	-344.99608	-133.44188	212.36787	236.77797	-279.08881	38.24249	-157.03831	-65.90727	-107.40444	-19.52808	52.07488	43.93818	0
275	-340.11406	-128.55986	212.36787	231.89595	-276.6478	40.6835	-161.92033	-78.11232	-122.0505	-26.85111	49.63387	46.37919	0
276	-337.67305	-126.11885	212.36787	229.45494	-276.6478	43.12451	-166.80235	-87.87636	-136.69656	-34.17414	47.19286	46.37919	0
277	-335.23204	-121.23683	214.80888	227.01393	-276.6478	45.56552	-176.56639	-97.6404	-148.90161	-43.93818	44.75185	46.37919	0
278	-330.35002	-121.23683	209.92686	224.57292	-271.76578	43.12451	-186.33043	-109.84545	-163.54767	-53.70222	42.31084	46.37919	0
279	-332.79103	-121.23683	212.36787	224.57292	-274.20679	45.56552	-191.21245	-122.0505	-175.75272	-61.02525	42.31084	46.37919	0
280	-335.23204	-118.79582	217.24989	224.57292	-276.6478	48.00653	-196.09447	-129.37353	-187.95777	-65.90727	42.31084	46.37919	0
281	-335.23204	-118.79582	217.24989	224.57292	-276.6478	48.00653	-200.97649	-139.13757	-200.16282	-73.2303	37.42882	46.37919	0
282	-335.23204	-118.79582	217.24989	224.57292	-276.6478	48.00653	-205.85851	-146.4606	-212.36787	-80.55333	30.10579	43.93818	0
283	-335.23204	-116.35481	219.6909	224.57292	-279.08881	50.44754	-208.29952	-156.22464	-224.57292	-90.31737	25.22377	43.93818	0
284	-337.67305	-116.35481	222.13191	224.57292	-281.52982	52.88855	-208.29952	-165.98868	-236.77797	-97.6404	20.34175	43.93818	0
285	-335.23204	-116.35481	219.6909	224.57292	-279.08881	50.44754	-208.29952	-175.75272	-248.98302	-104.96343	20.34175	43.93818	0
286	-332.79103	-116.35481	217.24989	222.13191	-276.6478	50.44754	-213.18154	-183.07575	-258.74706	-112.28646	17.90074	43.93818	0
287	-332.79103	-118.79582	214.80888	224.57292	-274.20679	48.00653	-218.06356	-187.95777	-266.07009	-119.60949	15.45973	41.49717	0
288	-332.79103	-118.79582	214.80888	224.57292	-274.20679	48.00653	-220.50457	-190.39878	-268.5111	-122.0505	17.90074	39.05616	0
289	-330.35002	-121.23683	209.92686	224.57292	-271.76578	43.12451	-222.94558	-192.83979	-273.39312	-124.49151	15.45973	36.61515	0
290	-325.468	-116.35481	209.92686	219.6909	-269.32477	45.56552	-222.94558	-195.2808	-273.39312	-124.49151	15.45973	34.17414	0
291	-323.02699	-111.47279	212.36787	214.80888	-269.32477	50.44754	-225.38659	-195.2808	-275.83413	-126.93252	13.01872	34.17414	0
292	-323.02699	-113.9138	209.92686	217.24989	-266.88376	48.00653	-222.94558	-192.83979	-275.83413	-126.93252	10.57771	31.73313	0
293	-320.58598	-113.9138	207.48585	214.80888	-264.44275	45.56552	-220.50457	-187.95777	-275.83413	-126.93252	8.1367	31.73313	0
294	-318.14497	-111.47279	207.48585	212.36787	-264.44275	48.00653	-213.18154	-185.51676	-278.27514	-126.93252	8.1367	31.73313	0
295	-323.02699	-116.35481	207.48585	217.24989	-266.88376	45.56552	-205.85851	-183.07575	-278.27514	-124.49151	10.57771	31.73313	0
296	-325.468	-118.79582	207.48585	219.6909	-266.88376	43.12451	-203.4175	-178.19373	-270.95211	-122.0505	10.57771	31.73313	0
297	-327.90901	-128.55986	200.16282	227.01393	-264.44275	35.80148	-198.53548	-170.8707	-263.62908	-117.16848	13.01872	31.73313	0
298	-327.90901	-128.55986	200.16282	227.01393	-264.44275	35.80148	-196.09447	-165.98868	-256.30605	-112.28646	13.01872	29.29212	0
299	-327.90901	-128.55986	200.16282	227.01393	-264.44275	35.80148	-193.65346	-161.10666	-248.98302	-107.40444	15.45973	24.4101	0
300	-332.79103	-133.44188	200.16282	231.89595	-266.88376	33.36047	-191.21245	-153.78363	-241.65999	-102.52242	15.45973	21.96909	0
301	-335.23204	-135.88289	200.16282	234.33696	-269.32477	30.91946	-186.33043	-146.4606	-231.89595	-95.19939	15.45973	21.96909	0
302	-335.23204	-131.00087	205.04484	231.89595	-271.76578	35.80148	-179.0074	-134.25555	-222.13191	-87.87636	20.34175	21.96909	0
303	-337.67305	-128.55986	209.92686	231.89595	-274.20679	40.6835	-171.68437	-124.49151	-214.80888	-80.55333	25.22377	24.4101	0
304	-340.11406	-131.00087	209.92686	234.33696	-276.6478	38.24249	-161.92033	-117.16848	-207.48585	-75.67131	30.10579	24.4101	0
305	-340.11406	-133.44188	207.48585	234.33696	-274.20679	35.80148	-154.5973	-109.84545	-200.16282	-70.78929	32.5468	24.4101	0
306	-340.11406	-131.00087	209.92686	234.33696	-276.6478	38.24249	-144.83326	-100.08141	-190.39878	-63.46626	34.98781	26.85111	0
307	-342.55507	-131.00087	212.36787	234.33696	-279.08881	40.6835	-139.95124	-90.31737	-178.19373	-56.14323	34.98781	26.85111	0
308	-337.67305	-131.00087	207.48585	231.89595	-274.20679	38.24249	-135.06922	-80.55333	-165.98868	-48.8202	34.98781	26.85111	0
309	-335.23204	-133.44188	202.60383	231.89595	-269.32477	33.36047	-130.1872	-73.2303	-156.22464	-43.93818	30.10579	24.4101	0
310	-332.79103	-135.88289	197.72181	231.89595	-266.88376	30.91946	-125.30518	-65.90727	-146.4606	-39.05616	30.10579	19.52808	0
311	-330.35002	-138.3239	192.83979	231.89595	-262.00174	26.03744	-122.86417	-58.58424	-139.13757	-34.17414	30.10579	17.08707	0
312	-335.23204	-143.20592	192.83979	236.77797	-264.44275	23.59643	-117.98215	-48.8202	-131.81454	-31.73313	30.10579	12.20505	0
313	-340.11406	-145.64693	195.2808	241.65999	-269.32477	23.59643	-110.65912	-39.05616	-122.0505	-24.4101	30.10579	12.20505	0
314	-344.99608	-145.64693	200.16282	244.101	-274.20679	26.03744	-100.89508	-34.17414	-114.72747	-19.52808	32.5468	12.20505	0
315	-349.8781	-145.64693	205.04484	246.54201	-279.08881	28.47845	-91.13104	-26.85111	-107.40444	-14.64606	34.98781	12.20505	0
316	-354.76012	-145.64693	209.92686	248.98302	-283.97083	30.91946	-86.24902	-21.15542	-97.6404	-9.76404	37.42882	12.20505	0
317	-366.96517	-148.08794	219.6909	256.30605	-293.73487	35.80148	-81.367	-11.39138	-85.43535	-2.44101	39.86983	14.64606	0
318	-374.2882	-148.08794	227.01393	258.74706	-301.0579	38.24249	-74.04397	-1.62734	-70.78929	3.25468	42.31084	17.08707	0
319	-374.2882	-145.64693	229.45494	258.74706	-303.49891	40.6835	-71.60296	5.69569	-61.02525	10.57771	47.19286	17.08707	0
320	-369.40618	-145.64693	224.57292	256.30605	-298.61689	38.24249	-66.72094	13.01872	-53.70222	15.45973	47.19286	17.08707	0
321	-374.2882	-150.52895	224.57292	261.18807	-301.0579	35.80148	-66.72094	20.34175	-46.37919	20.34175	44.75185	12.20505	0
322	-376.72921	-155.41097	222.13191	263.62908	-301.0579	33.36047	-64.27993	27.66478	-41.49717	22.78276	37.42882	9.76404	0
323	-376.72921	-157.85198	219.6909	266.07009	-298.61689	30.91946	-61.83892	32.5468	-36.61515	22.78276	32.5468	4.88202	0
324	-376.72921	-162.734	214.80888	268.5111	-296.17588	26.03744	-56.14323	34.98781	-34.17414	22.78276	30.10579	1.62734	0
325	-371.84719	-160.29299	212.36787	263.62908	-293.73487	26.03744	-51.26121	39.86983	-29.29212	25.22377	30.10579	1.62734	0
326	-366.96517	-157.85198	209.92686	261.18807	-288.85285	26.03744	-48.8202	44.75185	-21.96909	27.66478	30.10579	1.62734	0
327	-369.40618	-165.17501	205.04484	266.07009	-288.85285	18.71441	-51.26121	47.19286	-17.08707	27.66478	30.10579	1.62734	0
328	-371.84719	-167.61602	205.04484	268.5111	-288.85285	18.71441	-51.26121	49.63387	-9.76404	30.10579	30.10579	1.62734	0
329	-371.84719	-165.17501	207.48585	266.07009	-291.29386	21.15542	-48.8202	54.51589	-2.44101	34.98781	32.5468	1.62734	0
330	-371.84719	-162.734	209.92686	266.07009	-291.29386	23.59643	-46.37919	56.9569	3.25468	39.86983	34.98781	1.62734	0
331	-376.72921	-170.05703	207.48585	270.95211	-293.73487	18.71441	-46.37919	59.39791	5.69569	39.86983	32.5468	-0.81367	0
332	-381.61123	-177.38006	205.04484	278.27514	-293.73487	13.83239	-48.8202	61.83892	8.1367	37.42882	27.66478	-5.69569	0
333	-376.72921	-172.49804	205.04484	273.39312	-291.29386	16.2734	-46.37919	66.72094	10.57771	37.42882	25.22377	-8.1367	0
334	-364.52416	-165.17501	200.16282	263.62908	-283.97083	16.2734	-39.05616	69.16195	13.01872	39.86983	25.22377	-8.1367	0
335	-359.64214	-167.61602	192.83979	261.18807	-276.6478	11.39138	-39.05616	69.16195	13.01872	39.86983	25.22377	-8.1367	0
336	-362.08315	-170.05703	192.83979	263.62908	-279.08881	11.39138	-39.05616	71.60296	15.45973	39.86983	25.22377	-10.57771	0
337	-362.08315	-170.05703	192.83979	263.62908	-279.08881	11.39138	-39.05616	74.04397	17.90074	37.42882	25.22377	-10.57771	0
338	-362.08315	-170.05703	192.83979	263.62908	-279.08881	11.39138	-39.05616	74.04397	25.22377	39.86983	27.66478	-10.57771	0
339	-364.52416	-172.49804	192.83979	266.07009	-279.08881	8.1367	-39.05616	76.48498	27.66478	42.31084	27.66478	-10.57771	0
340	-366.96517	-174.93905	192.83979	268.5111	-281.52982	8.1367	-41.49717	76.48498	30.10579	42.31084	27.66478	-10.57771	0
341	-369.40618	-177.38006	192.83979	270.95211	-281.52982	5.69569	-41.49717	76.48498	32.5468	42.31084	25.22377	-8.1367	0
342	-364.52416	-174.93905	190.39878	268.5111	-279.08881	5.69569	-39.05616	78.92599	34.98781	44.75185	22.78276	-5.69569	0
343	-357.20113	-172.49804	185.51676	263.62908	-271.76578	5.69569	-39.05616	78.92599	34.98781	44.75185	17.90074	-5.69569	0
344	-349.8781	-172.49804	178.19373	258.74706	-264.44275	0.81367	-39.05616	76.48498	30.10579	39.86983	13.01872	-8.1367	0
345	-347.43709	-172.49804	175.75272	258.74706	-262.00174	0.81367	-39.05616	74.04397	27.66478	39.86983	8.1367	-10.57771	0
346	-344.99608	-174.93905	170.8707	258.74706	-259.56073	-4.06835	-41.49717	74.04397	27.66478	37.42882	5.69569	-10.57771	0
347	-344.99608	-177.38006	168.42969	258.74706	-257.11972	-6.50936	-43.93818	74.04397	27.66478	34.98781	5.69569	-10.57771	0
348	-340.11406	-177.38006	163.54767	256.30605	-252.2377	-8.95037	-48.8202	74.04397	30.10579	34.98781	2.44101	-13.01872	0
349	-340.11406	-177.38006	163.54767	256.30605	-252.2377	-8.95037	-48.8202	76.48498	32.5468	37.42882	2.44101	-10.57771	0
350	-344.99608	-177.38006	168.42969	258.74706	-257.11972	-6.50936	-48.8202	76.48498	34.98781	37.42882	2.44101	-10.57771	0
351	-349.8781	-179.82107	170.8707	263.62908	-262.00174	-6.50936	-53.70222	76.48498	34.98781	37.42882	0	-10.57771	0
352	-347.43709	-172.49804	175.75272	258.74706	-262.00174	0.81367	-56.14323	76.48498	32.5468	32.5468	-4.88202	-13.01872	0
353	-347.43709	-177.38006	170.8707	261.18807	-259.56073	-4.06835	-56.14323	76.48498	32.5468	30.10579	-4.88202	-13.01872	0
354	-347.43709	-182.26208	165.98868	263.62908	-257.11972	-8.95037	-53.70222	74.04397	27.66478	27.66478	-4.88202	-13.01872	0
355	-344.99608	-182.26208	163.54767	261.18807	-254.67871	-11.39138	-51.26121	71.60296	25.22377	25.22377	-4.88202	-13.01872	0
356	-340.11406	-177.38006	163.54767	256.30605	-252.2377	-8.95037	-51.26121	71.60296	25.22377	25.22377	-9.76404	-13.01872	0
357	-332.79103	-174.93905	158.66565	251.42403	-247.35568	-8.95037	-56.14323	71.60296	27.66478	22.78276	-19.52808	-15.45973	0
358	-332.79103	-174.93905	158.66565	251.42403	-247.35568	-8.95037	-56.14323	74.04397	32.5468	25.22377	-24.4101	-13.01872	0
359	-340.11406	-182.26208	158.66565	258.74706	-249.79669	-13.83239	-56.14323	74.04397	34.98781	27.66478	-31.73313	-13.01872	0
360	-340.11406	-179.82107	161.10666	258.74706	-252.2377	-11.39138	-58.58424	74.04397	34.98781	27.66478	-36.61515	-15.45973	0
361	-337.67305	-177.38006	161.10666	256.30605	-249.79669	-8.95037	-61.83892	74.04397	32.5468	27.66478	-36.61515	-17.90074	0
362	-342.55507	-184.70309	158.66565	261.18807	-252.2377	-13.83239	-64.27993	74.04397	27.66478	27.66478	-29.29212	-22.78276	0
363	-344.99608	-187.1441	158.66565	263.62908	-252.2377	-16.2734	-64.27993	76.48498	25.22377	27.66478	-21.96909	-22.78276	0
364	-340.11406	-182.26208	158.66565	258.74706	-249.79669	-13.83239	-61.83892	76.48498	22.78276	27.66478	-17.08707	-22.78276	0
365	-332.79103	-177.38006	156.22464	253.86504	-244.91467	-11.39138	-58.58424	76.48498	20.34175	27.66478	-12.20505	-22.78276	0
366	-327.90901	-177.38006	151.34262	251.42403	-240.03265	-13.83239	-58.58424	76.48498	20.34175	27.66478	-12.20505	-22.78276	0
367	-327.90901	-174.93905	153.78363	248.98302	-242.47366	-11.39138	-58.58424	81.367	25.22377	27.66478	-17.08707	-22.78276	0
368	-330.35002	-172.49804	158.66565	248.98302	-244.91467	-8.95037	-58.58424	83.80801	30.10579	30.10579	-24.4101	-20.34175	0
369	-327.90901	-165.17501	163.54767	244.101	-247.35568	-1.62734	-53.70222	88.69003	37.42882	37.42882	-26.85111	-15.45973	0
370	-327.90901	-160.29299	168.42969	241.65999	-249.79669	3.25468	-48.8202	93.57205	42.31084	44.75185	-24.4101	-10.57771	0
371	-332.79103	-160.29299	173.31171	244.101	-254.67871	5.69569	-48.8202	98.45407	44.75185	49.63387	-21.96909	-8.1367	0
372	-323.02699	-152.96996	170.8707	236.77797	-247.35568	8.1367	-46.37919	103.33609	44.75185	52.07488	-14.64606	-8.1367	0
373	-318.14497	-145.64693	173.31171	229.45494	-247.35568	13.83239	-39.05616	108.21811	47.19286	54.51589	-9.76404	-5.69569	0
374	-310.82194	-140.76491	170.8707	224.57292	-242.47366	13.83239	-34.17414	108.21811	47.19286	56.9569	-7.32303	-3.25468	0
375	-305.93992	-138.3239	168.42969	219.6909	-237.59164	13.83239	-29.29212	105.7771	44.75185	56.9569	-7.32303	-0.81367	0
376	-305.93992	-138.3239	168.42969	219.6909	-237.59164	13.83239	-29.29212	105.7771	44.75185	56.9569	-9.76404	-0.81367	0
377	-298.61689	-135.88289	163.54767	214.80888	-232.70962	13.83239	-31.73313	108.21811	47.19286	59.39791	-14.64606	1.62734	0
378	-298.61689	-133.44188	165.98868	214.80888	-232.70962	16.2734	-31.73313	108.21811	52.07488	61.83892	-17.08707	1.62734	0
379	-298.61689	-133.44188	165.98868	214.80888	-232.70962	16.2734	-31.73313	110.65912	54.51589	61.83892	-19.52808	4.88202	0
380	-303.49891	-135.88289	168.42969	217.24989	-237.59164	16.2734	-31.73313	113.10013	56.9569	64.27993	-19.52808	1.62734	0
381	-303.49891	-133.44188	170.8707	217.24989	-237.59164	18.71441	-29.29212	117.98215	59.39791	69.16195	-19.52808	1.62734	0
382	-296.17588	-126.11885	170.8707	209.92686	-235.15063	21.15542	-24.4101	127.74619	64.27993	71.60296	-12.20505	4.88202	0
383	-293.73487	-128.55986	165.98868	209.92686	-230.26861	18.71441	-19.52808	130.1872	66.72094	74.04397	-9.76404	4.88202	0
384	-288.85285	-131.00087	158.66565	207.48585	-225.38659	13.83239	-12.20505	130.1872	66.72094	74.04397	-4.88202	4.88202	0
385	-286.41184	-131.00087	156.22464	207.48585	-222.94558	11.39138	-12.20505	127.74619	64.27993	74.04397	-4.88202	4.88202	0
386	-276.6478	-126.11885	151.34262	200.16282	-215.62255	11.39138	-17.08707	125.30518	66.72094	76.48498	-2.44101	4.88202	0
387	-266.88376	-121.23683	146.4606	192.83979	-208.29952	11.39138	-24.4101	122.86417	66.72094	78.92599	-2.44101	4.88202	0
388	-269.32477	-121.23683	148.90161	192.83979	-210.74053	13.83239	-34.17414	115.54114	66.72094	78.92599	-4.88202	4.88202	-1500	QRS-0
389	-266.88376	-116.35481	151.34262	190.39878	-210.74053	16.2734	-43.93818	108.21811	69.16195	81.367	-4.88202	7.32303	0
390	-262.00174	-106.59077	156.22464	183.07575	-210.74053	23.59643	-51.26121	100.89508	66.72094	83.80801	-2.44101	9.76404	0
391	-262.00174	-101.70875	161.10666	180.63474	-213.18154	28.47845	-61.83892	93.57205	66.72094	83.80801	0	9.76404	0
392	-262.00174	-96.82673	165.98868	178.19373	-215.62255	33.36047	-66.72094	86.24902	64.27993	86.24902	2.44101	12.20505	0
393	-266.88376	-94.38572	173.31171	178.19373	-220.50457	38.24249	-69.16195	78.92599	61.83892	86.24902	5.69569	14.64606	0
394	-274.20679	-94.38572	180.63474	183.07575	-227.8276	43.12451	-69.16195	69.16195	56.9569	86.24902	5.69569	14.64606	0
395	-269.32477	-87.06269	183.07575	175.75272	-227.8276	48.00653	-71.60296	59.39791	49.63387	83.80801	5.69569	14.64606	0
396	-269.32477	-82.18067	187.95777	173.31171	-230.26861	52.88855	-78.92599	49.63387	42.31084	78.92599	2.44101	14.64606	0
397	-269.32477	-82.18067	187.95777	173.31171	-230.26861	52.88855	-88.69003	44.75185	39.86983	76.48498	0	14.64606	0
398	-262.00174	-77.29865	185.51676	168.42969	-225.38659	52.88855	-96.01306	39.86983	39.86983	76.48498	-2.44101	17.08707	0
399	-257.11972	-72.41663	185.51676	163.54767	-222.94558	55.32956	-100.89508	39.86983	39.86983	78.92599	-2.44101	24.4101	0
400	-247.35568	-65.0936	183.07575	153.78363	-215.62255	57.77057	-103.33609	39.86983	42.31084	81.367	2.44101	34.17414	0
401	-237.59164	-62.65259	175.75272	148.90161	-208.29952	55.32956	-108.21811	39.86983	42.31084	83.80801	5.69569	41.49717	0
402	-227.8276	-62.65259	165.98868	144.01959	-198.53548	50.44754	-113.10013	39.86983	37.42882	83.80801	8.1367	48.8202	0
403	-220.50457	-62.65259	158.66565	139.13757	-191.21245	48.00653	-113.10013	39.86983	37.42882	83.80801	13.01872	56.14323	0
404	-213.18154	-65.0936	148.90161	136.69656	-181.44841	40.6835	-108.21811	39.86983	34.98781	83.80801	13.01872	61.02525	0
405	-208.29952	-69.97562	139.13757	136.69656	-174.12538	33.36047	-108.21811	32.5468	25.22377	78.92599	10.57771	58.58424	0
406	-191.21245	-65.0936	126.93252	126.93252	-159.47932	30.91946	-110.65912	27.66478	20.34175	74.04397	5.69569	56.14323	0
407	-181.44841	-69.97562	112.28646	124.49151	-147.27427	21.15542	-113.10013	25.22377	17.90074	69.16195	0	51.26121	0
408	-188.77144	-84.62168	104.96343	134.25555	-147.27427	8.1367	-115.54114	22.78276	17.90074	66.72094	-4.88202	46.37919	0
409	-191.21245	-94.38572	97.6404	141.57858	-144.83326	0.81367	-115.54114	22.78276	17.90074	64.27993	-9.76404	39.05616	0
410	-193.65346	-101.70875	92.75838	146.4606	-144.83326	-6.50936	-115.54114	22.78276	17.90074	61.83892	-9.76404	31.73313	0
411	-193.65346	-106.59077	87.87636	148.90161	-142.39225	-11.39138	-113.10013	22.78276	17.90074	61.83892	-12.20505	26.85111	0
412	-198.53548	-116.35481	82.99434	156.22464	-142.39225	-18.71441	-108.21811	25.22377	17.90074	59.39791	-17.08707	19.52808	0
413	-205.85851	-128.55986	78.11232	165.98868	-142.39225	-26.03744	-100.89508	30.10579	17.90074	59.39791	-17.08707	17.08707	0
414	-205.85851	-128.55986	78.11232	165.98868	-142.39225	-26.03744	-88.69003	30.10579	17.90074	54.51589	-19.52808	12.20505	0
415	-198.53548	-128.55986	70.78929	161.10666	-135.06922	-30.91946	-78.92599	30.10579	15.45973	52.07488	-26.85111	7.32303	0
416	-193.65346	-131.00087	63.46626	161.10666	-130.1872	-35.80148	-76.48498	30.10579	13.01872	47.19286	-34.17414	1.62734	0
417	-191.21245	-138.3239	53.70222	163.54767	-122.86417	-43.12451	-78.92599	27.66478	10.57771	42.31084	-41.49717	-0.81367	0
418	-193.65346	-148.08794	46.37919	168.42969	-120.42316	-52.88855	-81.367	25.22377	10.57771	37.42882	-48.8202	-5.69569	0
419	-193.65346	-155.41097	39.05616	173.31171	-117.98215	-60.21158	-83.80801	20.34175	10.57771	34.98781	-53.70222	-10.57771	0
420	-188.77144	-160.29299	29.29212	173.31171	-110.65912	-67.53461	-86.24902	20.34175	8.1367	32.5468	-56.14323	-15.45973	0
421	-181.44841	-160.29299	21.15542	168.42969	-103.33609	-69.97562	-88.69003	20.34175	5.69569	27.66478	-61.02525	-20.34175	0
422	-179.0074	-160.29299	18.71441	168.42969	-100.89508	-72.41663	-86.24902	20.34175	5.69569	27.66478	-65.90727	-22.78276	0
423	-179.0074	-162.734	16.2734	168.42969	-98.45407	-74.85764	-86.24902	22.78276	5.69569	22.78276	-70.78929	-27.66478	0
424	-171.68437	-155.41097	16.2734	161.10666	-96.01306	-69.97562	-76.48498	25.22377	3.25468	22.78276	-70.78929	-25.22377	0
425	-164.36134	-145.64693	18.71441	153.78363	-93.57205	-65.0936	-69.16195	27.66478	3.25468	22.78276	-73.2303	-20.34175	0
426	-166.80235	-152.96996	13.83239	158.66565	-91.13104	-69.97562	-69.16195	25.22377	3.25468	20.34175	-78.11232	-20.34175	0
427	-169.24336	-152.96996	16.2734	158.66565	-93.57205	-69.97562	-71.60296	25.22377	5.69569	20.34175	-80.55333	-13.01872	0
428	-169.24336	-157.85198	11.39138	161.10666	-91.13104	-74.85764	-74.04397	25.22377	5.69569	20.34175	-80.55333	-10.57771	0
429	-161.92033	-150.52895	11.39138	153.78363	-88.69003	-69.97562	-74.04397	25.22377	10.57771	20.34175	-78.11232	-5.69569	0
430	-161.92033	-152.96996	8.95037	156.22464	-86.24902	-72.41663	-74.04397	25.22377	13.01872	20.34175	-75.67131	-3.25468	0
431	-164.36134	-162.734	1.62734	161.10666	-83.80801	-82.18067	-81.367	22.78276	10.57771	17.90074	-78.11232	-5.69569	0
432	-157.03831	-160.29299	-3.25468	156.22464	-78.92599	-82.18067	-83.80801	27.66478	10.57771	15.45973	-78.11232	-8.1367	0
433	-142.39225	-145.64693	-3.25468	141.57858	-71.60296	-74.85764	-78.92599	32.5468	13.01872	17.90074	-75.67131	-10.57771	0
434	-125.30518	-135.88289	-10.57771	129.37353	-59.39791	-74.85764	-71.60296	32.5468	13.01872	20.34175	-75.67131	-13.01872	0
435	-120.42316	-133.44188	-13.01872	124.49151	-54.51589	-74.85764	-64.27993	34.98781	13.01872	22.78276	-78.11232	-13.01872	0
436	-113.10013	-128.55986	-15.45973	119.60949	-49.63387	-72.41663	-61.83892	37.42882	17.90074	27.66478	-78.11232	-15.45973	0
437	-91.13104	-111.47279	-20.34175	100.08141	-37.42882	-67.53461	-61.83892	42.31084	22.78276	32.5468	-78.11232	-15.45973	0
438	-71.60296	-99.26774	-27.66478	82.99434	-21.96909	-65.0936	-61.83892	42.31084	25.22377	37.42882	-75.67131	-17.90074	0
439	-56.9569	-94.38572	-37.42882	73.2303	-9.76404	-67.53461	-61.83892	39.86983	27.66478	37.42882	-75.67131	-20.34175	0
440	-44.75185	-89.5037	-44.75185	65.90727	0	-67.53461	-66.72094	37.42882	25.22377	34.98781	-78.11232	-22.78276	0
441	-26.85111	-82.18067	-54.51589	53.70222	12.20505	-67.53461	-69.16195	32.5468	20.34175	30.10579	-80.55333	-25.22377	0
442	-9.76404	-77.29865	-66.72094	41.49717	26.85111	-72.41663	-76.48498	22.78276	8.1367	17.90074	-87.87636	-32.5468	0
443	14.64606	-67.53461	-81.367	24.4101	46.37919	-74.85764	-81.367	10.57771	-2.44101	8.1367	-95.19939	-32.5468	0
444	31.73313	-55.32956	-86.24902	11.39138	58.58424	-69.97562	-83.80801	-8.95037	-21.96909	-2.44101	-102.52242	-32.5468	0
445	48.8202	-40.6835	-88.69003	-5.69569	68.34828	-65.0936	-88.69003	-31.73313	-48.8202	-17.08707	-104.96343	-22.78276	0
446	68.34828	-23.59643	-91.13104	-22.78276	78.11232	-57.77057	-100.89508	-63.46626	-78.11232	-29.29212	-104.96343	-10.57771	0
447	92.75838	-6.50936	-98.45407	-44.75185	95.19939	-52.88855	-117.98215	-100.08141	-114.72747	-43.93818	-95.19939	7.32303	0
448	114.72747	16.2734	-98.45407	-66.72094	107.40444	-40.6835	-142.39225	-146.4606	-153.78363	-53.70222	-75.67131	31.73313	0
449	144.01959	40.6835	-103.33609	-93.57205	124.49151	-30.91946	-169.24336	-200.16282	-197.72181	-58.58424	-43.93818	63.46626	0
450	170.8707	57.77057	-113.10013	-115.54114	141.57858	-28.47845	-203.4175	-256.30605	-248.98302	-63.46626	-9.76404	97.6404	0
451	209.92686	82.18067	-127.74619	-147.27427	168.42969	-23.59643	-240.03265	-317.3313	-300.24423	-63.46626	30.10579	139.13757	0
452	256.30605	109.03178	-147.27427	-183.88942	202.60383	-18.71441	-281.52982	-373.47453	-349.06443	-61.02525	74.04397	185.51676	0
453	297.80322	135.88289	-161.92033	-218.06356	229.45494	-13.83239	-323.02699	-432.05877	-400.32564	-58.58424	117.98215	234.33696	0
454	341.7414	167.61602	-174.12538	-254.67871	258.74706	-4.06835	-362.08315	-488.202	-449.14584	-56.14323	159.47932	290.48019	0
455	390.5616	204.23117	-186.33043	-298.61689	288.03918	8.1367	-398.6983	-537.0222	-490.64301	-56.14323	196.09447	341.7414	0
456	434.49978	243.28733	-191.21245	-340.11406	312.44928	26.03744	-430.43143	-578.51937	-527.25816	-56.14323	227.8276	393.00261	0
457	478.43796	287.22551	-191.21245	-384.05224	334.41837	48.00653	-459.72355	-615.13452	-561.4323	-61.02525	259.56073	446.70483	0
458	512.6121	331.16369	-181.44841	-423.1084	346.62342	74.85764	-476.81062	-637.10361	-578.51937	-61.02525	283.97083	488.202	0
459	529.69917	360.45581	-169.24336	-445.07749	349.06443	96.82673	-471.9286	-632.22159	-566.31432	-46.37919	298.61689	510.17109	0
460	541.90422	382.4249	-159.47932	-462.16456	351.50544	111.47279	-442.63648	-583.40139	-512.6121	-12.20505	301.0579	507.73008	0
461	537.0222	409.27601	-127.74619	-474.36961	331.97736	140.76491	-391.37527	-507.73008	-429.61776	34.98781	293.73487	488.202	0
462	515.05311	433.68611	-81.367	-474.36961	297.80322	177.38006	-327.90901	-414.9717	-334.41837	74.04397	259.56073	444.26382	0
463	480.87897	441.00914	-39.86983	-462.16456	261.18807	201.79016	-252.2377	-305.12625	-227.01393	105.7771	198.53548	373.47453	0
464	429.61776	436.12712	6.50936	-432.87244	212.36787	221.31824	-161.92033	-187.95777	-114.72747	122.86417	113.10013	283.15716	0
465	378.35655	433.68611	56.14323	-406.02133	161.10666	245.72834	-71.60296	-78.11232	-12.20505	125.30518	15.45973	187.95777	0
466	324.65433	433.68611	109.84545	-379.17022	107.40444	272.57945	12.20505	20.34175	71.60296	100.89508	-87.87636	97.6404	0
467	278.27514	426.36308	148.90161	-352.31911	65.90727	287.22551	95.19939	108.21811	132.62821	49.63387	-197.72181	12.20505	0
468	244.101	404.39399	161.10666	-325.468	41.49717	282.34349	170.8707	191.21245	174.12538	-14.64606	-297.80322	-64.27993	0
469	219.6909	384.86591	165.98868	-303.49891	26.85111	275.02046	246.54201	266.88376	205.85851	-82.99434	-375.91554	-127.74619	0
470	205.04484	367.77884	163.54767	-286.41184	21.96909	265.25642	314.89029	344.99608	235.15063	-141.57858	-429.61776	-176.56639	0
471	200.16282	343.36874	144.01959	-271.76578	29.29212	243.28733	378.35655	427.99042	257.11972	-190.39878	-468.67392	-213.18154	0
472	200.16282	321.39965	122.0505	-262.00174	39.05616	221.31824	441.82281	515.86678	283.97083	-219.6909	-485.76099	-237.59164	0
473	209.92686	296.98955	87.87636	-254.67871	61.02525	192.02612	502.84806	603.74314	313.26295	-236.77797	-493.08402	-257.11972	0
474	209.92686	275.02046	65.90727	-242.47366	73.2303	170.05703	561.4323	681.85546	344.99608	-236.77797	-490.64301	-269.32477	0
475	217.24989	255.49238	39.05616	-237.59164	90.31737	148.08794	622.45755	769.73182	391.37527	-214.80888	-478.43796	-271.76578	0
476	229.45494	243.28733	13.83239	-237.59164	107.40444	128.55986	685.92381	864.93121	449.95951	-180.63474	-458.90988	-271.76578	0
477	234.33696	233.52329	-0.81367	-235.15063	117.16848	116.35481	751.83108	960.1306	515.86678	-139.13757	-434.49978	-264.44275	0
478	244.101	226.20026	-17.90074	-235.15063	131.81454	104.14976	810.41532	1048.00696	579.33304	-102.52242	-405.20766	-254.67871	0
479	248.98302	218.87723	-30.10579	-235.15063	139.13757	94.38572	864.11754	1116.35524	623.27122	-75.67131	-378.35655	-244.91467	0
480	253.86504	216.43622	-37.42882	-235.15063	146.4606	89.5037	910.49673	1160.29342	652.56334	-46.37919	-344.18241	-227.8276	0
481	258.74706	218.87723	-39.86983	-240.03265	148.90161	89.5037	949.55289	1174.93948	659.88637	-21.96909	-312.44928	-208.29952	0
482	263.62908	218.87723	-44.75185	-242.47366	153.78363	87.06269	973.96299	1150.52938	642.7993	-2.44101	-283.15716	-186.33043	0
483	275.83413	231.08228	-44.75185	-254.67871	161.10666	94.38572	993.49107	1094.38615	606.18415	10.57771	-256.30605	-164.36134	0
484	273.39312	233.52329	-39.86983	-254.67871	156.22464	96.82673	1003.25511	999.18676	540.27688	10.57771	-244.101	-147.27427	0
485	266.07009	233.52329	-32.5468	-249.79669	148.90161	101.70875	1013.01915	886.9003	459.72355	8.1367	-234.33696	-130.1872	0
486	261.18807	235.9643	-25.22377	-249.79669	144.01959	106.59077	1022.78319	777.05485	388.93426	0	-227.01393	-120.42316	0
487	258.74706	238.40531	-20.34175	-249.79669	139.13757	109.03178	1030.10622	669.65041	320.58598	-4.88202	-219.6909	-113.10013	0
488	261.18807	248.16935	-13.01872	-254.67871	136.69656	118.79582	1047.19329	569.569	264.44275	-12.20505	-209.92686	-105.7771	0
489	258.74706	250.61036	-8.1367	-254.67871	134.25555	121.23683	1069.16238	481.69264	213.18154	-21.96909	-202.60383	-103.33609	0
490	256.30605	257.93339	1.62734	-257.11972	126.93252	131.00087	1098.4545	415.78537	176.56639	-24.4101	-190.39878	-96.01306	0
491	268.5111	275.02046	6.50936	-271.76578	131.81454	140.76491	1120.42359	369.40618	159.47932	-17.08707	-173.31171	-81.367	0
492	278.27514	292.10753	13.83239	-286.41184	131.81454	152.96996	1132.62864	332.79103	149.71528	-4.88202	-153.78363	-66.72094	0
493	290.48019	311.63561	21.15542	-301.0579	134.25555	167.61602	1125.30561	303.49891	149.71528	8.1367	-136.69656	-47.19286	0
494	310.00827	336.04571	26.85111	-323.02699	141.57858	182.26208	1096.01349	281.52982	152.15629	30.10579	-122.0505	-25.22377	0
495	329.53635	353.13278	23.59643	-342.55507	153.78363	189.58511	1039.87026	266.88376	159.47932	52.07488	-104.96343	-8.1367	0
496	346.62342	372.66086	26.85111	-359.64214	161.10666	199.34915	954.43491	252.2377	171.68437	78.92599	-82.99434	12.20505	0
497	368.59251	389.74793	21.15542	-379.17022	173.31171	206.67218	849.47148	235.15063	186.33043	103.33609	-56.14323	31.73313	0
498	397.88463	414.15803	16.2734	-406.02133	190.39878	216.43622	739.62603	220.50457	203.4175	132.62821	-21.96909	51.26121	0
499	422.29473	428.80409	6.50936	-425.54941	207.48585	218.87723	627.33957	203.4175	215.62255	157.03831	13.01872	70.78929	0
500	441.82281	441.00914	-0.81367	-442.63648	222.13191	221.31824	524.81715	188.77144	225.38659	179.0074	44.75185	87.87636	0
501	451.58685	445.89116	-5.69569	-449.95951	229.45494	221.31824	475.99695	183.88942	227.8276	188.77144	56.9569	92.75838	0
502	466.23291	453.21419	-13.01872	-459.72355	239.21898	221.31824	397.88463	183.88942	237.59164	208.29952	78.92599	107.40444	0
503	485.76099	465.41924	-20.34175	-476.81062	253.86504	223.75925	336.85938	188.77144	249.79669	225.38659	93.57205	122.0505	0
504	500.40705	470.30126	-30.10579	-486.57466	266.07009	221.31824	295.36221	198.53548	259.56073	240.03265	98.45407	129.37353	0
505	510.17109	472.74227	-37.42882	-491.45668	273.39312	218.87723	268.5111	210.74053	269.32477	249.79669	98.45407	136.69656	0
506	522.37614	480.0653	-42.31084	-501.22072	283.15716	218.87723	251.42403	222.94558	279.08881	259.56073	100.89508	141.57858	0
507	529.69917	482.50631	-47.19286	-506.10274	288.03918	218.87723	239.21898	235.15063	288.85285	271.76578	110.65912	151.34262	0
508	537.0222	487.38833	-49.63387	-513.42577	292.9212	218.87723	231.89595	242.47366	303.49891	281.52982	130.1872	161.10666	0
509	544.34523	492.27035	-52.07488	-518.30779	297.80322	221.31824	229.45494	249.79669	313.26295	291.29386	149.71528	170.8707	0
510	544.34523	492.27035	-52.07488	-518.30779	297.80322	221.31824	229.45494	249.79669	318.14497	298.61689	166.80235	180.63474	0
511	544.34523	492.27035	-52.07488	-518.30779	297.80322	221.31824	227.01393	247.35568	318.14497	305.93992	183.88942	187.95777	0
512	549.22725	494.71136	-54.51589	-523.18981	302.68524	221.31824	224.57292	249.79669	323.02699	313.26295	191.21245	195.2808	0
513	551.66826	492.27035	-59.39791	-523.18981	305.12625	216.43622	222.13191	249.79669	330.35002	320.58598	191.21245	200.16282	0
514	551.66826	492.27035	-59.39791	-523.18981	305.12625	216.43622	222.13191	252.2377	332.79103	323.02699	183.88942	200.16282	0
515	549.22725	492.27035	-56.9569	-520.7488	302.68524	218.87723	217.24989	254.67871	335.23204	327.90901	174.12538	205.04484	0
516	544.34523	497.15237	-47.19286	-520.7488	295.36221	226.20026	212.36787	254.67871	335.23204	330.35002	171.68437	207.48585	0
517	544.34523	504.4754	-39.86983	-525.63082	292.9212	233.52329	207.48585	254.67871	335.23204	335.23204	174.12538	214.80888	0
518	544.34523	504.4754	-39.86983	-525.63082	292.9212	233.52329	202.60383	252.2377	337.67305	335.23204	183.88942	219.6909	0
519	544.34523	509.35742	-34.98781	-528.07183	290.48019	238.40531	197.72181	247.35568	337.67305	335.23204	196.09447	224.57292	0
520	549.22725	519.12146	-30.10579	-535.39486	290.48019	245.72834	195.2808	242.47366	335.23204	337.67305	210.74053	229.45494	0
521	551.66826	524.00348	-27.66478	-537.83587	290.48019	248.16935	190.39878	240.03265	330.35002	340.11406	225.38659	231.89595	0
522	551.66826	528.8855	-22.78276	-540.27688	288.03918	253.05137	190.39878	240.03265	330.35002	344.99608	232.70962	234.33696	0
523	556.55028	533.76752	-22.78276	-545.1589	290.48019	255.49238	190.39878	242.47366	335.23204	352.31911	237.59164	239.21898	0
524	549.22725	533.76752	-15.45973	-542.71789	283.15716	260.3744	187.95777	240.03265	332.79103	354.76012	232.70962	239.21898	0
525	544.34523	533.76752	-10.57771	-540.27688	278.27514	262.81541	185.51676	240.03265	330.35002	357.20113	227.8276	241.65999	0
526	539.46321	536.20853	-3.25468	-537.83587	270.95211	267.69743	183.07575	240.03265	330.35002	362.08315	230.26861	248.98302	0
527	537.0222	536.20853	-0.81367	-537.83587	268.5111	267.69743	180.63474	237.59164	325.468	362.08315	232.70962	253.86504	0
528	539.46321	538.64954	-0.81367	-540.27688	270.95211	270.13844	178.19373	232.70962	325.468	362.08315	240.03265	258.74706	0
529	537.0222	536.20853	-0.81367	-537.83587	268.5111	267.69743	175.75272	225.38659	327.90901	362.08315	249.79669	263.62908	0
530	534.58119	533.76752	-0.81367	-535.39486	268.5111	267.69743	173.31171	218.06356	323.02699	362.08315	262.00174	266.07009	0
531	539.46321	538.64954	-0.81367	-540.27688	270.95211	270.13844	170.8707	213.18154	320.58598	364.52416	274.20679	270.95211	0
532	541.90422	541.09055	-0.81367	-542.71789	270.95211	270.13844	165.98868	210.74053	318.14497	364.52416	279.08881	273.39312	0
533	539.46321	545.97257	6.50936	-542.71789	266.07009	277.46147	161.10666	205.85851	318.14497	366.96517	279.08881	275.83413	0
534	539.46321	548.41358	8.95037	-545.1589	266.07009	279.90248	156.22464	203.4175	315.70396	369.40618	271.76578	280.71615	0
535	537.0222	548.41358	11.39138	-542.71789	263.62908	279.90248	148.90161	203.4175	310.82194	369.40618	264.44275	285.59817	0
536	537.0222	550.85459	13.83239	-545.1589	261.18807	282.34349	144.01959	200.97649	308.38093	369.40618	264.44275	290.48019	0
537	537.0222	553.2956	16.2734	-545.1589	261.18807	284.7845	136.69656	196.09447	305.93992	371.84719	264.44275	292.9212	0
538	537.0222	553.2956	16.2734	-545.1589	261.18807	284.7845	131.81454	188.77144	305.93992	371.84719	271.76578	297.80322	0
539	532.14018	550.85459	18.71441	-542.71789	256.30605	284.7845	126.93252	181.44841	305.93992	369.40618	281.52982	302.68524	0
540	527.25816	545.97257	18.71441	-537.83587	253.86504	282.34349	122.0505	174.12538	301.0579	366.96517	293.73487	302.68524	0
541	532.14018	543.53156	11.39138	-537.83587	261.18807	277.46147	117.16848	169.24336	291.29386	362.08315	303.49891	302.68524	0
542	532.14018	543.53156	11.39138	-537.83587	261.18807	277.46147	114.72747	164.36134	288.85285	362.08315	308.38093	307.56726	0
543	522.37614	538.64954	16.2734	-530.51284	253.86504	277.46147	112.28646	161.92033	283.97083	359.64214	303.49891	307.56726	0
544	512.6121	531.32651	18.71441	-523.18981	246.54201	275.02046	107.40444	159.47932	274.20679	354.76012	293.73487	310.00827	0
545	510.17109	531.32651	21.15542	-520.7488	244.101	277.46147	102.52242	157.03831	266.88376	352.31911	281.52982	310.00827	0
546	510.17109	533.76752	23.59643	-523.18981	244.101	279.90248	95.19939	152.15629	257.11972	347.43709	274.20679	307.56726	0
547	502.84806	533.76752	31.73313	-518.30779	236.77797	282.34349	90.31737	144.83326	252.2377	347.43709	271.76578	307.56726	0
548	488.202	528.8855	41.49717	-508.54375	224.57292	284.7845	85.43535	132.62821	249.79669	344.99608	276.6478	307.56726	0
549	485.76099	528.8855	43.93818	-508.54375	222.13191	287.22551	78.11232	117.98215	244.91467	340.11406	281.52982	305.12625	0
550	483.31998	531.32651	48.8202	-508.54375	217.24989	289.66652	75.67131	105.7771	237.59164	335.23204	291.29386	305.12625	0
551	480.87897	528.8855	48.8202	-506.10274	217.24989	289.66652	70.78929	98.45407	227.8276	330.35002	298.61689	302.68524	0
552	478.43796	526.44449	48.8202	-503.66173	214.80888	287.22551	65.90727	93.57205	220.50457	327.90901	301.0579	302.68524	0
553	475.99695	526.44449	51.26121	-501.22072	212.36787	289.66652	63.46626	91.13104	215.62255	325.468	298.61689	305.12625	0
554	471.11493	524.00348	53.70222	-498.77971	209.92686	289.66652	56.14323	86.24902	205.85851	320.58598	286.41184	305.12625	0
555	468.67392	524.00348	56.14323	-496.3387	207.48585	289.66652	51.26121	81.367	196.09447	313.26295	274.20679	305.12625	0
556	463.7919	516.68045	53.70222	-491.45668	205.04484	284.7845	41.49717	74.04397	181.44841	305.93992	264.44275	307.56726	0
557	454.02786	511.79843	58.58424	-484.13365	197.72181	284.7845	31.73313	61.83892	171.68437	298.61689	259.56073	307.56726	0
558	444.26382	509.35742	65.90727	-476.81062	190.39878	287.22551	24.4101	47.19286	164.36134	291.29386	264.44275	312.44928	0
559	429.61776	502.03439	73.2303	-467.04658	178.19373	287.22551	19.52808	32.5468	154.5973	283.97083	271.76578	314.89029	0
560	417.41271	494.71136	78.11232	-457.28254	170.8707	287.22551	12.20505	17.90074	142.39225	274.20679	281.52982	314.89029	0
561	412.53069	489.82934	78.11232	-452.40052	168.42969	284.7845	2.44101	5.69569	125.30518	264.44275	286.41184	312.44928	0
562	400.32564	484.94732	85.43535	-442.63648	158.66565	284.7845	-7.32303	-4.06835	110.65912	257.11972	286.41184	312.44928	0
563	393.00261	482.50631	90.31737	-437.75446	151.34262	287.22551	-14.64606	-11.39138	98.45407	249.79669	276.6478	310.00827	0
564	390.5616	477.62429	87.87636	-435.31345	151.34262	282.34349	-21.96909	-16.2734	86.24902	240.03265	259.56073	305.12625	0
565	380.79756	472.74227	92.75838	-427.99042	144.01959	282.34349	-29.29212	-23.59643	69.16195	230.26861	240.03265	300.24423	0
566	373.47453	467.86025	95.19939	-420.66739	139.13757	282.34349	-36.61515	-31.73313	54.51589	218.06356	225.38659	297.80322	0
567	358.82847	458.09621	100.08141	-408.46234	129.37353	279.90248	-46.37919	-48.8202	39.86983	208.29952	218.06356	295.36221	0
568	349.06443	450.77318	102.52242	-401.13931	124.49151	277.46147	-53.70222	-65.90727	27.66478	196.09447	218.06356	290.48019	0
569	339.30039	445.89116	107.40444	-393.81628	117.16848	277.46147	-61.83892	-85.43535	15.45973	183.88942	220.50457	290.48019	0
570	324.65433	441.00914	117.16848	-384.05224	104.96343	279.90248	-69.16195	-107.40444	0	169.24336	225.38659	285.59817	0
571	317.3313	436.12712	119.60949	-376.72921	100.08141	277.46147	-78.92599	-129.37353	-21.96909	154.5973	230.26861	283.15716	0
572	310.00827	428.80409	119.60949	-369.40618	95.19939	275.02046	-88.69003	-141.57858	-43.93818	142.39225	227.8276	280.71615	0
573	302.68524	421.48106	119.60949	-362.08315	92.75838	270.13844	-98.45407	-151.34262	-58.58424	130.1872	218.06356	275.83413	0
574	290.48019	414.15803	124.49151	-352.31911	82.99434	270.13844	-103.33609	-156.22464	-75.67131	117.98215	203.4175	273.39312	0
575	283.15716	406.835	124.49151	-344.99608	80.55333	265.25642	-108.21811	-161.10666	-92.75838	110.65912	188.77144	270.95211	0
576	275.83413	397.07096	122.0505	-337.67305	78.11232	260.3744	-113.10013	-165.98868	-104.96343	100.89508	176.56639	268.5111	0
577	263.62908	384.86591	122.0505	-325.468	70.78929	253.05137	-117.98215	-173.31171	-114.72747	91.13104	166.80235	263.62908	0
578	253.86504	372.66086	119.60949	-313.26295	68.34828	245.72834	-120.42316	-180.63474	-122.0505	81.367	164.36134	256.30605	0
579	241.65999	365.33783	124.49151	-303.49891	58.58424	245.72834	-127.74619	-190.39878	-129.37353	71.60296	166.80235	248.98302	0
580	231.89595	360.45581	129.37353	-296.17588	51.26121	245.72834	-132.62821	-202.60383	-139.13757	64.27993	171.68437	241.65999	0
581	224.57292	350.69177	126.93252	-288.85285	48.8202	238.40531	-137.51023	-209.92686	-151.34262	54.51589	176.56639	234.33696	0
582	209.92686	333.6047	124.49151	-271.76578	43.93818	228.64127	-142.39225	-212.36787	-161.10666	47.19286	174.12538	227.01393	0
583	197.72181	321.39965	124.49151	-259.56073	36.61515	223.75925	-144.83326	-209.92686	-161.10666	44.75185	164.36134	219.6909	0
584	187.95777	311.63561	124.49151	-249.79669	31.73313	218.87723	-144.83326	-205.04484	-165.98868	42.31084	147.27427	214.80888	0
585	173.31171	301.87157	129.37353	-237.59164	21.96909	216.43622	-139.95124	-195.2808	-165.98868	42.31084	130.1872	214.80888	0
586	161.10666	289.66652	129.37353	-225.38659	17.08707	209.11319	-135.06922	-187.95777	-165.98868	39.86983	117.98215	212.36787	0
587	146.4606	275.02046	129.37353	-210.74053	9.76404	201.79016	-130.1872	-183.07575	-163.54767	37.42882	110.65912	207.48585	0
588	136.69656	267.69743	131.81454	-203.4175	2.44101	199.34915	-130.1872	-183.07575	-158.66565	37.42882	113.10013	202.60383	0
589	129.37353	257.93339	129.37353	-193.65346	0	194.46713	-125.30518	-183.07575	-151.34262	39.86983	127.74619	202.60383	0
590	122.0505	245.72834	124.49151	-183.88942	0	184.70309	-120.42316	-180.63474	-148.90161	42.31084	144.83326	200.16282	0
591	112.28646	235.9643	124.49151	-174.12538	-4.88202	179.82107	-117.98215	-175.75272	-144.01959	44.75185	159.47932	200.16282	0
592	100.08141	221.31824	122.0505	-161.92033	-9.76404	172.49804	-117.98215	-170.8707	-141.57858	49.63387	166.80235	195.2808	0
593	87.87636	211.5542	124.49151	-149.71528	-17.08707	167.61602	-113.10013	-158.66565	-131.81454	56.9569	161.92033	192.83979	0
594	75.67131	199.34915	124.49151	-137.51023	-24.4101	162.734	-105.7771	-144.01959	-122.0505	61.83892	149.71528	190.39878	0
595	63.46626	187.1441	124.49151	-125.30518	-30.10579	155.41097	-98.45407	-126.93252	-114.72747	64.27993	132.62821	185.51676	0
596	48.8202	177.38006	129.37353	-113.10013	-39.86983	152.96996	-91.13104	-114.72747	-107.40444	66.72094	120.42316	180.63474	0
597	34.17414	170.05703	136.69656	-103.33609	-52.07488	152.96996	-83.80801	-104.96343	-97.6404	69.16195	115.54114	178.19373	0
598	24.4101	160.29299	136.69656	-93.57205	-56.9569	148.08794	-76.48498	-97.6404	-85.43535	74.04397	120.42316	173.31171	0
599	17.08707	152.96996	136.69656	-86.24902	-59.39791	145.64693	-69.16195	-90.31737	-70.78929	78.92599	135.06922	168.42969	0
600	2.44101	143.20592	141.57858	-74.04397	-69.16195	143.20592	-61.83892	-85.43535	-63.46626	83.80801	154.5973	165.98868	0
601	-7.32303	135.88289	144.01959	-64.27993	-76.48498	140.76491	-56.14323	-75.67131	-56.14323	91.13104	174.12538	165.98868	0
602	-12.20505	135.88289	148.90161	-61.83892	-81.367	143.20592	-51.26121	-63.46626	-48.8202	100.89508	186.33043	165.98868	0
603	-24.4101	126.11885	151.34262	-52.07488	-88.69003	138.3239	-46.37919	-53.70222	-41.49717	103.33609	181.44841	163.54767	0
604	-37.42882	113.9138	151.34262	-39.86983	-93.57205	131.00087	-39.05616	-43.93818	-34.17414	108.21811	166.80235	156.22464	0
605	-44.75185	109.03178	153.78363	-32.5468	-98.45407	131.00087	-31.73313	-29.29212	-26.85111	113.10013	152.15629	151.34262	0
606	-49.63387	104.14976	153.78363	-27.66478	-100.89508	128.55986	-26.85111	-21.15542	-17.08707	117.98215	139.95124	148.90161	0
607	-49.63387	99.26774	148.90161	-25.22377	-98.45407	123.67784	-21.96909	-16.2734	-9.76404	120.42316	130.1872	144.01959	0
608	-54.51589	91.94471	146.4606	-20.34175	-100.89508	118.79582	-19.52808	-18.71441	0	120.42316	130.1872	136.69656	0
609	-64.27993	82.18067	146.4606	-10.57771	-105.7771	113.9138	-14.64606	-23.59643	13.01872	127.74619	144.83326	134.25555	0
610	-71.60296	79.73966	151.34262	-5.69569	-110.65912	113.9138	-7.32303	-18.71441	22.78276	137.51023	161.92033	134.25555	0
611	-76.48498	72.41663	148.90161	1.62734	-113.10013	109.03178	-4.88202	-13.83239	30.10579	144.83326	179.0074	136.69656	0
612	-88.69003	60.21158	148.90161	13.83239	-117.98215	104.14976	-2.44101	-11.39138	32.5468	149.71528	186.33043	136.69656	0
613	-100.89508	50.44754	151.34262	24.4101	-125.30518	99.26774	2.44101	-1.62734	42.31084	157.03831	183.88942	134.25555	0
614	-115.54114	40.6835	156.22464	36.61515	-135.06922	96.82673	9.76404	8.1367	49.63387	161.92033	174.12538	134.25555	0
615	-127.74619	33.36047	161.10666	46.37919	-144.83326	96.82673	14.64606	22.78276	56.9569	164.36134	159.47932	134.25555	0
616	-130.1872	26.03744	156.22464	51.26121	-142.39225	89.5037	19.52808	30.10579	61.83892	166.80235	144.83326	131.81454	0
617	-137.51023	21.15542	158.66565	56.14323	-147.27427	89.5037	21.96909	34.98781	69.16195	166.80235	139.95124	131.81454	0
618	-147.27427	18.71441	165.98868	63.46626	-157.03831	91.94471	26.85111	37.42882	81.367	169.24336	144.83326	136.69656	0
619	-152.15629	16.2734	168.42969	65.90727	-159.47932	91.94471	29.29212	37.42882	91.13104	171.68437	157.03831	136.69656	0
620	-149.71528	13.83239	163.54767	65.90727	-157.03831	87.06269	31.73313	34.98781	93.57205	169.24336	164.36134	136.69656	0
621	-149.71528	16.2734	165.98868	65.90727	-157.03831	89.5037	34.17414	37.42882	96.01306	171.68437	179.0074	139.13757	0
622	-154.5973	11.39138	165.98868	70.78929	-159.47932	87.06269	36.61515	44.75185	100.89508	174.12538	188.77144	139.13757	0
623	-161.92033	-0.81367	161.10666	80.55333	-161.92033	79.73966	39.05616	49.63387	100.89508	174.12538	183.88942	131.81454	0
624	-164.36134	-3.25468	161.10666	82.99434	-161.92033	77.29865	39.05616	59.39791	103.33609	174.12538	171.68437	126.93252	0
625	-166.80235	-6.50936	161.10666	85.43535	-164.36134	77.29865	41.49717	66.72094	105.7771	174.12538	154.5973	122.0505	0
626	-176.56639	-13.83239	163.54767	92.75838	-171.68437	74.85764	43.93818	74.04397	110.65912	176.56639	142.39225	119.60949	0
627	-188.77144	-28.47845	161.10666	107.40444	-176.56639	65.0936	43.93818	69.16195	113.10013	176.56639	132.62821	112.28646	0
628	-196.09447	-35.80148	161.10666	114.72747	-179.0074	62.65259	41.49717	61.83892	120.42316	174.12538	127.74619	104.96343	0
629	-196.09447	-33.36047	163.54767	112.28646	-181.44841	65.0936	43.93818	54.51589	130.1872	174.12538	132.62821	104.96343	0
630	-198.53548	-35.80148	163.54767	114.72747	-181.44841	62.65259	46.37919	47.19286	132.62821	171.68437	137.51023	100.08141	-1250	T-0
631	-203.4175	-38.24249	165.98868	119.60949	-186.33043	62.65259	43.93818	42.31084	132.62821	171.68437	142.39225	97.6404	0
632	-200.97649	-38.24249	163.54767	117.16848	-183.88942	62.65259	41.49717	42.31084	130.1872	169.24336	144.83326	95.19939	0
633	-203.4175	-40.6835	163.54767	119.60949	-183.88942	60.21158	39.05616	44.75185	130.1872	166.80235	144.83326	92.75838	0
634	-205.85851	-38.24249	168.42969	119.60949	-188.77144	65.0936	39.05616	52.07488	130.1872	166.80235	139.95124	97.6404	0
635	-213.18154	-35.80148	178.19373	122.0505	-196.09447	69.97562	41.49717	61.83892	130.1872	169.24336	132.62821	100.08141	0
636	-218.06356	-38.24249	180.63474	126.93252	-200.97649	69.97562	39.05616	69.16195	130.1872	171.68437	127.74619	100.08141	0
637	-218.06356	-38.24249	180.63474	126.93252	-200.97649	69.97562	39.05616	64.27993	132.62821	176.56639	127.74619	100.08141	0
638	-222.94558	-40.6835	183.07575	129.37353	-203.4175	69.97562	41.49717	54.51589	142.39225	179.0074	130.1872	97.6404	0
639	-225.38659	-40.6835	185.51676	131.81454	-205.85851	72.41663	41.49717	44.75185	149.71528	183.88942	139.95124	97.6404	0
640	-218.06356	-43.12451	175.75272	129.37353	-198.53548	65.0936	39.05616	37.42882	149.71528	186.33043	147.27427	95.19939	0
641	-210.74053	-52.88855	158.66565	129.37353	-186.33043	52.88855	34.17414	30.10579	147.27427	183.88942	149.71528	90.31737	0
642	-205.85851	-55.32956	151.34262	129.37353	-179.0074	48.00653	31.73313	27.66478	147.27427	183.88942	152.15629	90.31737	0
643	-205.85851	-62.65259	144.01959	131.81454	-176.56639	40.6835	29.29212	25.22377	144.83326	179.0074	147.27427	90.31737	0
644	-208.29952	-69.97562	139.13757	136.69656	-174.12538	33.36047	29.29212	30.10579	144.83326	179.0074	137.51023	90.31737	0
645	-203.4175	-69.97562	134.25555	134.25555	-169.24336	30.91946	31.73313	39.86983	142.39225	174.12538	125.30518	90.31737	0
646	-200.97649	-74.85764	126.93252	136.69656	-164.36134	26.03744	34.17414	44.75185	139.95124	169.24336	113.10013	85.43535	0
647	-208.29952	-79.73966	129.37353	141.57858	-169.24336	23.59643	34.17414	42.31084	144.83326	166.80235	105.7771	80.55333	0
648	-208.29952	-87.06269	122.0505	146.4606	-166.80235	16.2734	34.17414	37.42882	147.27427	161.92033	103.33609	75.67131	0
649	-193.65346	-89.5037	104.96343	139.13757	-149.71528	5.69569	31.73313	27.66478	149.71528	157.03831	103.33609	68.34828	0
650	-179.0074	-91.94471	87.87636	134.25555	-135.06922	-4.06835	29.29212	20.34175	144.83326	152.15629	105.7771	61.02525	0
651	-171.68437	-96.82673	75.67131	131.81454	-125.30518	-11.39138	21.96909	8.1367	137.51023	147.27427	110.65912	56.14323	0
652	-164.36134	-104.14976	61.02525	131.81454	-113.10013	-23.59643	14.64606	-1.62734	130.1872	144.83326	113.10013	53.70222	0
653	-149.71528	-104.14976	46.37919	124.49151	-98.45407	-30.91946	9.76404	-8.95037	125.30518	139.95124	110.65912	53.70222	0
654	-132.62821	-99.26774	34.17414	114.72747	-83.80801	-33.36047	2.44101	-16.2734	115.54114	135.06922	98.45407	51.26121	0
655	-125.30518	-99.26774	26.85111	109.84545	-76.48498	-38.24249	-4.88202	-23.59643	105.7771	130.1872	83.80801	46.37919	0
656	-115.54114	-104.14976	11.39138	107.40444	-64.27993	-48.00653	-12.20505	-29.29212	98.45407	122.86417	71.60296	39.05616	0
657	-110.65912	-104.14976	6.50936	104.96343	-59.39791	-50.44754	-17.08707	-34.17414	96.01306	117.98215	61.83892	34.17414	0
658	-103.33609	-104.14976	-0.81367	102.52242	-52.07488	-52.88855	-21.96909	-41.49717	93.57205	110.65912	47.19286	29.29212	0
659	-96.01306	-104.14976	-8.1367	97.6404	-44.75185	-57.77057	-19.52808	-43.93818	98.45407	108.21811	32.5468	26.85111	0
660	-96.01306	-104.14976	-8.1367	97.6404	-44.75185	-57.77057	-19.52808	-51.26121	96.01306	105.7771	20.34175	24.4101	0
661	-88.69003	-104.14976	-15.45973	95.19939	-37.42882	-60.21158	-21.96909	-56.14323	93.57205	103.33609	25.22377	21.96909	0
662	-88.69003	-111.47279	-22.78276	97.6404	-34.98781	-67.53461	-21.96909	-58.58424	91.13104	103.33609	37.42882	24.4101	0
663	-81.367	-116.35481	-34.98781	97.6404	-24.4101	-77.29865	-21.96909	-58.58424	91.13104	105.7771	49.63387	29.29212	0
664	-64.27993	-116.35481	-52.07488	87.87636	-7.32303	-84.62168	-24.4101	-58.58424	88.69003	105.7771	66.72094	31.73313	0
665	-47.19286	-113.9138	-66.72094	78.11232	9.76404	-91.94471	-26.85111	-58.58424	78.92599	98.45407	81.367	29.29212	0
666	-30.10579	-113.9138	-83.80801	70.78929	26.85111	-99.26774	-31.73313	-61.02525	71.60296	91.13104	93.57205	24.4101	0
667	-17.08707	-118.79582	-100.89508	65.90727	41.49717	-109.03178	-34.17414	-61.02525	69.16195	86.24902	93.57205	17.08707	0
668	-7.32303	-113.9138	-105.7771	58.58424	48.8202	-109.03178	-36.61515	-61.02525	69.16195	81.367	81.367	12.20505	0
669	2.44101	-104.14976	-105.7771	48.8202	53.70222	-104.14976	-36.61515	-61.02525	69.16195	78.92599	61.83892	4.88202	0
670	9.76404	-101.70875	-110.65912	43.93818	58.58424	-106.59077	-34.17414	-63.46626	69.16195	76.48498	44.75185	-0.81367	0
671	12.20505	-104.14976	-115.54114	43.93818	63.46626	-109.03178	-34.17414	-63.46626	66.72094	76.48498	37.42882	-10.57771	0
672	14.64606	-106.59077	-120.42316	43.93818	65.90727	-113.9138	-31.73313	-65.90727	66.72094	78.92599	37.42882	-13.01872	0
673	17.08707	-109.03178	-125.30518	43.93818	70.78929	-116.35481	-26.85111	-61.02525	69.16195	83.80801	49.63387	-13.01872	0
674	29.29212	-106.59077	-135.06922	36.61515	80.55333	-121.23683	-24.4101	-58.58424	69.16195	86.24902	71.60296	-15.45973	0
675	36.61515	-113.9138	-149.71528	36.61515	92.75838	-131.00087	-21.96909	-53.70222	64.27993	86.24902	93.57205	-15.45973	0
676	43.93818	-118.79582	-161.92033	36.61515	102.52242	-140.76491	-21.96909	-46.37919	64.27993	86.24902	108.21811	-13.01872	0
677	46.37919	-118.79582	-164.36134	34.17414	104.96343	-140.76491	-21.96909	-43.93818	61.83892	83.80801	108.21811	-10.57771	0
678	51.26121	-111.47279	-161.92033	29.29212	104.96343	-135.88289	-17.08707	-39.05616	69.16195	86.24902	100.89508	-3.25468	0
679	53.70222	-106.59077	-159.47932	24.4101	104.96343	-133.44188	-19.52808	-39.05616	71.60296	86.24902	83.80801	-0.81367	0
680	51.26121	-106.59077	-157.03831	26.85111	102.52242	-131.00087	-24.4101	-43.93818	69.16195	81.367	59.39791	-0.81367	0
681	48.8202	-99.26774	-147.27427	24.4101	97.6404	-123.67784	-31.73313	-48.8202	64.27993	81.367	44.75185	-0.81367	0
682	51.26121	-87.06269	-137.51023	16.2734	92.75838	-111.47279	-39.05616	-56.14323	59.39791	81.367	37.42882	-3.25468	0
683	48.8202	-79.73966	-127.74619	13.83239	87.87636	-104.14976	-43.93818	-58.58424	59.39791	81.367	42.31084	-3.25468	0
684	43.93818	-82.18067	-125.30518	16.2734	82.99434	-104.14976	-53.70222	-65.90727	54.51589	81.367	56.9569	-8.1367	0
685	41.49717	-82.18067	-122.86417	19.52808	80.55333	-101.70875	-61.83892	-68.34828	47.19286	78.92599	71.60296	-10.57771	0
686	43.93818	-79.73966	-122.86417	16.2734	82.99434	-101.70875	-66.72094	-73.2303	39.86983	78.92599	83.80801	-10.57771	0
687	41.49717	-79.73966	-120.42316	16.2734	80.55333	-99.26774	-74.04397	-75.67131	37.42882	78.92599	91.13104	-8.1367	0
688	31.73313	-84.62168	-115.54114	24.4101	73.2303	-99.26774	-76.48498	-80.55333	37.42882	78.92599	86.24902	-0.81367	0
689	24.4101	-89.5037	-113.10013	31.73313	68.34828	-101.70875	-81.367	-90.31737	34.98781	76.48498	76.48498	1.62734	0
690	19.52808	-87.06269	-105.7771	31.73313	61.02525	-96.82673	-88.69003	-100.08141	27.66478	71.60296	61.83892	9.76404	0
691	17.08707	-87.06269	-103.33609	34.17414	58.58424	-94.38572	-98.45407	-109.84545	20.34175	69.16195	54.51589	14.64606	0
692	9.76404	-87.06269	-96.01306	36.61515	51.26121	-91.94471	-103.33609	-117.16848	15.45973	69.16195	56.9569	19.52808	0
693	9.76404	-74.85764	-83.80801	31.73313	46.37919	-79.73966	-100.89508	-112.28646	20.34175	74.04397	71.60296	26.85111	0
694	14.64606	-67.53461	-81.367	24.4101	46.37919	-74.85764	-100.89508	-112.28646	22.78276	76.48498	91.13104	26.85111	0
695	21.96909	-62.65259	-83.80801	19.52808	51.26121	-72.41663	-105.7771	-107.40444	20.34175	78.92599	110.65912	26.85111	0
696	31.73313	-57.77057	-88.69003	11.39138	58.58424	-72.41663	-110.65912	-102.52242	20.34175	78.92599	122.86417	26.85111	0
697	36.61515	-55.32956	-91.13104	8.95037	63.46626	-72.41663	-115.54114	-100.08141	25.22377	78.92599	127.74619	26.85111	0
698	41.49717	-57.77057	-98.45407	6.50936	68.34828	-77.29865	-117.98215	-100.08141	32.5468	78.92599	115.54114	24.4101	0
699	39.05616	-67.53461	-105.7771	13.83239	70.78929	-87.06269	-120.42316	-102.52242	34.98781	76.48498	96.01306	21.96909	0
700	31.73313	-77.29865	-108.21811	21.96909	68.34828	-91.94471	-122.86417	-107.40444	32.5468	71.60296	78.92599	21.96909	0
701	21.96909	-84.62168	-105.7771	29.29212	63.46626	-94.38572	-122.86417	-112.28646	27.66478	69.16195	69.16195	24.4101	0
702	19.52808	-89.5037	-108.21811	34.17414	63.46626	-99.26774	-122.86417	-117.16848	25.22377	66.72094	69.16195	26.85111	0
703	14.64606	-96.82673	-110.65912	39.05616	61.02525	-104.14976	-120.42316	-119.60949	25.22377	66.72094	76.48498	24.4101	0
704	7.32303	-106.59077	-113.10013	48.8202	58.58424	-109.03178	-115.54114	-119.60949	22.78276	64.27993	88.69003	21.96909	0
705	-2.44101	-116.35481	-113.10013	58.58424	53.70222	-113.9138	-108.21811	-114.72747	20.34175	59.39791	100.89508	17.08707	0
706	-9.76404	-131.00087	-120.42316	68.34828	53.70222	-126.11885	-103.33609	-112.28646	15.45973	52.07488	98.45407	7.32303	0
707	-14.64606	-140.76491	-125.30518	75.67131	53.70222	-133.44188	-98.45407	-109.84545	17.90074	49.63387	88.69003	-3.25468	0
708	-19.52808	-152.96996	-132.62821	85.43535	56.14323	-143.20592	-96.01306	-109.84545	22.78276	44.75185	69.16195	-17.90074	0
709	-30.10579	-165.17501	-135.06922	95.19939	51.26121	-150.52895	-91.13104	-109.84545	25.22377	37.42882	42.31084	-30.10579	0
710	-37.42882	-172.49804	-135.06922	102.52242	48.8202	-155.41097	-86.24902	-107.40444	27.66478	34.98781	20.34175	-34.98781	0
711	-37.42882	-174.93905	-137.51023	104.96343	48.8202	-157.85198	-83.80801	-109.84545	27.66478	32.5468	10.57771	-34.98781	0
712	-34.98781	-174.93905	-139.95124	102.52242	51.26121	-157.85198	-83.80801	-112.28646	27.66478	32.5468	10.57771	-32.5468	0
713	-21.96909	-174.93905	-152.15629	97.6404	63.46626	-162.734	-86.24902	-119.60949	25.22377	25.22377	13.01872	-32.5468	0
714	-19.52808	-177.38006	-157.03831	97.6404	68.34828	-167.61602	-86.24902	-126.93252	20.34175	17.90074	25.22377	-32.5468	0
715	-17.08707	-179.82107	-161.92033	97.6404	70.78929	-170.05703	-86.24902	-126.93252	17.90074	15.45973	42.31084	-27.66478	0
716	-7.32303	-179.82107	-171.68437	92.75838	80.55333	-174.93905	-91.13104	-129.37353	17.90074	10.57771	52.07488	-25.22377	0
717	0	-184.70309	-183.88942	90.31737	90.31737	-184.70309	-98.45407	-136.69656	15.45973	3.25468	44.75185	-32.5468	0
718	9.76404	-192.02612	-200.97649	90.31737	104.96343	-196.90814	-105.7771	-141.57858	15.45973	-2.44101	25.22377	-44.75185	0
719	7.32303	-194.46713	-200.97649	92.75838	102.52242	-196.90814	-108.21811	-144.01959	20.34175	-4.88202	8.1367	-49.63387	0
720	7.32303	-199.34915	-205.85851	95.19939	104.96343	-201.79016	-113.10013	-146.4606	20.34175	-7.32303	-7.32303	-52.07488	0
721	12.20505	-199.34915	-210.74053	92.75838	109.84545	-204.23117	-120.42316	-151.34262	20.34175	-9.76404	-19.52808	-59.39791	0
722	19.52808	-199.34915	-218.06356	87.87636	117.16848	-209.11319	-122.86417	-156.22464	20.34175	-9.76404	-21.96909	-64.27993	0
723	21.96909	-199.34915	-220.50457	87.87636	119.60949	-209.11319	-122.86417	-156.22464	25.22377	-9.76404	-14.64606	-66.72094	0
724	29.29212	-199.34915	-227.8276	82.99434	126.93252	-213.99521	-122.86417	-161.10666	25.22377	-9.76404	2.44101	-69.16195	0
725	41.49717	-201.79016	-242.47366	78.11232	141.57858	-221.31824	-125.30518	-161.10666	20.34175	-14.64606	8.1367	-71.60296	0
726	58.58424	-204.23117	-262.00174	70.78929	158.66565	-233.52329	-130.1872	-163.54767	15.45973	-21.96909	2.44101	-78.92599	0
727	75.67131	-199.34915	-274.20679	61.02525	173.31171	-235.9643	-132.62821	-165.98868	15.45973	-26.85111	-4.88202	-83.80801	0
728	90.31737	-201.79016	-291.29386	53.70222	190.39878	-245.72834	-139.95124	-173.31171	15.45973	-36.61515	-24.4101	-91.13104	0
729	107.40444	-204.23117	-310.82194	46.37919	207.48585	-257.93339	-147.27427	-180.63474	10.57771	-43.93818	-48.8202	-100.89508	0
730	124.49151	-201.79016	-325.468	36.61515	224.57292	-262.81541	-157.03831	-190.39878	5.69569	-56.14323	-73.2303	-110.65912	0
731	141.57858	-201.79016	-342.55507	29.29212	241.65999	-272.57945	-161.92033	-197.72181	0	-58.58424	-85.43535	-115.54114	0
732	156.22464	-206.67218	-362.08315	24.4101	258.74706	-284.7845	-164.36134	-202.60383	-2.44101	-58.58424	-75.67131	-117.98215	0
733	165.98868	-211.5542	-376.72921	21.96909	270.95211	-294.54854	-164.36134	-207.48585	-2.44101	-58.58424	-58.58424	-122.86417	0
734	175.75272	-213.99521	-388.93426	16.2734	280.71615	-301.87157	-164.36134	-209.92686	-4.88202	-63.46626	-41.49717	-127.74619	0
735	190.39878	-213.99521	-403.58032	11.39138	295.36221	-309.1946	-166.80235	-207.48585	-7.32303	-70.78929	-29.29212	-132.62821	0
736	200.16282	-218.87723	-418.22638	8.95037	307.56726	-318.95864	-169.24336	-209.92686	-12.20505	-80.55333	-24.4101	-139.95124	0
737	205.04484	-223.75925	-427.99042	8.95037	314.89029	-326.28167	-171.68437	-217.24989	-21.96909	-95.19939	-31.73313	-147.27427	0
738	212.36787	-218.87723	-430.43143	1.62734	319.77231	-323.84066	-183.88942	-234.33696	-34.17414	-114.72747	-51.26121	-154.5973	0
739	222.13191	-216.43622	-437.75446	-3.25468	329.53635	-326.28167	-198.53548	-256.30605	-58.58424	-136.69656	-80.55333	-161.92033	0
740	239.21898	-213.99521	-452.40052	-13.01872	344.18241	-333.6047	-218.06356	-288.03918	-90.31737	-163.54767	-107.40444	-164.36134	0
741	251.42403	-206.67218	-457.28254	-22.78276	353.94645	-331.16369	-240.03265	-327.09534	-126.93252	-187.95777	-122.0505	-157.03831	0
742	261.18807	-201.79016	-462.16456	-30.10579	361.26948	-331.16369	-264.44275	-375.91554	-173.31171	-209.92686	-122.0505	-139.95124	0
743	278.27514	-189.58511	-467.04658	-44.75185	371.03352	-328.72268	-291.29386	-429.61776	-224.57292	-227.01393	-104.96343	-115.54114	0
744	305.12625	-174.93905	-479.25163	-66.72094	390.5616	-326.28167	-327.90901	-488.202	-278.27514	-239.21898	-73.2303	-83.80801	0
745	334.41837	-157.85198	-491.45668	-88.69003	412.53069	-323.84066	-364.52416	-539.46321	-331.97736	-248.98302	-29.29212	-44.75185	0
746	368.59251	-138.3239	-506.10274	-115.54114	436.94079	-321.39965	-401.13931	-593.16543	-383.23857	-253.86504	17.90074	-0.81367	0
747	405.20766	-118.79582	-523.18981	-144.83326	463.7919	-321.39965	-442.63648	-654.19068	-434.49978	-258.74706	56.9569	41.49717	0
748	439.3818	-106.59077	-545.1589	-166.80235	490.64301	-326.28167	-486.57466	-715.21593	-485.76099	-263.62908	93.57205	87.87636	0
749	480.87897	-87.06269	-567.12799	-198.53548	522.37614	-326.28167	-528.07183	-766.47714	-529.69917	-268.5111	122.86417	136.69656	0
750	522.37614	-62.65259	-584.21506	-230.26861	551.66826	-323.84066	-562.24597	-810.41532	-571.19634	-275.83413	154.5973	183.07575	0
751	551.66826	-40.6835	-591.53809	-257.11972	571.19634	-316.51763	-596.42011	-859.23552	-615.13452	-290.48019	181.44841	224.57292	0
752	583.40139	-16.2734	-598.86112	-283.97083	590.72442	-306.75359	-630.59425	-910.49673	-661.51371	-307.56726	210.74053	263.62908	0
753	605.37048	8.95037	-596.42011	-308.38093	600.48846	-294.54854	-652.56334	-934.90683	-678.60078	-310.00827	242.47366	297.80322	0
754	627.33957	35.80148	-591.53809	-332.79103	610.2525	-277.46147	-652.56334	-927.5838	-663.95472	-288.03918	271.76578	317.3313	0
755	632.22159	55.32956	-576.89203	-344.99608	605.37048	-260.3744	-630.59425	-878.7636	-602.92947	-244.101	291.29386	312.44928	0
756	620.01654	69.97562	-550.04092	-344.99608	585.8424	-240.84632	-591.53809	-810.41532	-522.37614	-190.39878	288.85285	288.03918	0
757	600.48846	79.73966	-520.7488	-340.11406	561.4323	-221.31824	-540.27688	-732.303	-427.17675	-146.4606	244.91467	234.33696	0
758	573.63735	79.73966	-493.89769	-327.90901	534.58119	-206.67218	-471.9286	-637.10361	-317.3313	-112.28646	154.5973	148.90161	0
759	534.58119	67.53461	-467.04658	-301.0579	500.40705	-199.34915	-391.37527	-532.14018	-205.04484	-95.19939	34.98781	41.49717	0
760	493.08402	45.56552	-447.5185	-269.32477	471.11493	-201.79016	-313.26295	-434.49978	-109.84545	-107.40444	-102.52242	-74.04397	0
761	461.35089	23.59643	-437.75446	-242.47366	449.14584	-206.67218	-242.47366	-356.38746	-41.49717	-153.78363	-241.65999	-191.21245	0
762	449.14584	1.62734	-447.5185	-225.38659	449.14584	-223.75925	-181.44841	-290.48019	-2.44101	-229.45494	-375.91554	-303.49891	0
763	444.26382	-23.59643	-467.04658	-210.74053	454.02786	-245.72834	-127.74619	-227.01393	20.34175	-324.65433	-493.08402	-398.6983	0
764	441.82281	-55.32956	-496.3387	-193.65346	468.67392	-275.02046	-78.92599	-161.10666	37.42882	-414.9717	-576.07836	-474.36961	0
765	454.02786	-87.06269	-540.27688	-183.88942	495.52503	-314.07662	-39.05616	-90.31737	54.51589	-490.64301	-637.10361	-530.51284	0
766	473.55594	-113.9138	-586.65607	-181.44841	529.69917	-350.69177	0	-23.59643	69.16195	-549.22725	-681.04179	-572.01001	0
767	495.52503	-140.76491	-635.47627	-179.0074	563.87331	-387.30692	41.49717	47.19286	96.01306	-588.28341	-707.8929	-603.74314	0
768	515.05311	-172.49804	-686.73748	-171.68437	600.48846	-428.80409	85.43535	117.98215	127.74619	-610.2525	-732.303	-625.71223	0
769	527.25816	-201.79016	-728.23465	-164.36134	627.33957	-465.41924	134.25555	196.09447	171.68437	-607.81149	-749.39007	-645.24031	0
770	537.0222	-226.20026	-762.40879	-157.03831	649.30866	-494.71136	192.83979	288.85285	235.15063	-580.96038	-751.83108	-655.00435	0
771	546.78624	-250.61036	-796.58293	-149.71528	671.27775	-524.00348	251.42403	381.61123	303.49891	-544.34523	-739.62603	-664.76839	0
772	558.99129	-270.13844	-828.31606	-144.83326	693.24684	-548.41358	312.44928	476.81062	374.2882	-505.28907	-710.33391	-664.76839	0
773	573.63735	-289.66652	-862.4902	-142.39225	717.65694	-575.26469	366.1515	569.569	442.63648	-471.11493	-673.71876	-662.32738	0
774	590.72442	-301.87157	-891.78232	-144.83326	739.62603	-597.23378	410.08968	640.35829	486.57466	-444.26382	-637.10361	-655.00435	0
775	600.48846	-316.51763	-916.19242	-142.39225	756.7131	-616.76186	449.14584	689.17849	510.98476	-422.29473	-598.04745	-640.35829	0
776	612.69351	-321.39965	-933.27949	-147.27427	771.35916	-626.5259	480.87897	708.70657	513.42577	-402.76665	-561.4323	-623.27122	0
777	632.22159	-323.84066	-955.24858	-154.5973	793.32825	-638.73095	497.96604	686.73748	489.01567	-395.44362	-537.0222	-608.62516	0
778	651.74967	-323.84066	-974.77666	-164.36134	812.85633	-648.49499	507.73008	625.71223	437.75446	-400.32564	-524.81715	-598.86112	0
779	668.83674	-323.84066	-991.86373	-174.12538	829.9434	-658.25903	510.17109	535.39486	362.08315	-417.41271	-519.93513	-593.9791	0
780	681.04179	-328.72268	-1008.9508	-176.56639	844.58946	-668.02307	510.17109	425.54941	271.76578	-436.94079	-527.25816	-593.9791	0
781	698.12886	-326.28167	-1023.59686	-186.33043	859.23552	-675.3461	512.6121	313.26295	186.33043	-456.46887	-527.25816	-591.53809	0
782	715.21593	-323.84066	-1038.24292	-196.09447	876.32259	-680.22812	512.6121	198.53548	103.33609	-475.99695	-537.0222	-591.53809	0
783	739.62603	-318.95864	-1057.771	-210.74053	898.29168	-687.55115	515.05311	91.13104	25.22377	-500.40705	-549.22725	-593.9791	0
784	754.27209	-314.07662	-1067.53504	-220.50457	910.49673	-689.99216	524.81715	0.81367	-36.61515	-517.49412	-556.55028	-589.09708	0
785	768.91815	-314.07662	-1082.1811	-227.8276	925.14279	-697.31519	537.0222	-68.34828	-82.99434	-529.69917	-566.31432	-584.21506	0
786	781.1232	-304.31258	-1084.62211	-240.03265	932.46582	-694.87418	544.34523	-124.49151	-114.72747	-529.69917	-568.75533	-574.45102	0
787	803.09229	-292.10753	-1094.38615	-257.11972	947.11188	-692.43317	544.34523	-178.19373	-131.81454	-527.25816	-566.31432	-562.24597	0
788	825.06138	-282.34349	-1106.5912	-271.76578	964.19895	-694.87418	527.25816	-227.01393	-141.57858	-519.93513	-561.4323	-552.48193	0
789	849.47148	-272.57945	-1121.23726	-288.85285	983.72703	-697.31519	493.08402	-263.62908	-146.4606	-505.28907	-546.78624	-537.83587	0
790	868.99956	-262.81541	-1131.0013	-303.49891	998.37309	-697.31519	439.3818	-292.9212	-144.01959	-485.76099	-524.81715	-518.30779	0
791	893.40966	-248.16935	-1140.76534	-323.02699	1015.46016	-694.87418	358.82847	-327.09534	-144.01959	-466.23291	-495.52503	-501.22072	0
792	920.26077	-231.08228	-1150.52938	-344.99608	1034.98824	-689.99216	263.62908	-358.82847	-144.01959	-444.26382	-463.7919	-484.13365	0
793	947.11188	-218.87723	-1165.17544	-364.52416	1054.51632	-692.43317	161.10666	-385.67958	-141.57858	-427.17675	-436.94079	-469.48759	0
794	971.52198	-211.5542	-1182.26251	-381.61123	1076.48541	-697.31519	56.14323	-407.64867	-141.57858	-412.53069	-419.85372	-457.28254	0
795	998.37309	-206.67218	-1204.2316	-396.25729	1100.89551	-704.63822	-43.93818	-422.29473	-148.90161	-402.76665	-405.20766	-449.95951	0
796	1020.34218	-199.34915	-1218.87766	-410.90335	1117.98258	-709.52024	-130.1872	-434.49978	-146.4606	-388.12059	-385.67958	-440.19547	0
797	1037.42925	-196.90814	-1233.52372	-420.66739	1135.06965	-714.40226	-198.53548	-439.3818	-141.57858	-375.91554	-371.03352	-430.43143	0
798	1049.6343	-194.46713	-1243.28776	-427.99042	1144.83369	-719.28428	-247.35568	-441.82281	-129.37353	-361.26948	-361.26948	-418.22638	0
799	1066.72137	-194.46713	-1260.37483	-437.75446	1161.92076	-726.60731	-286.41184	-439.3818	-119.60949	-349.06443	-361.26948	-406.02133	0
800	1078.92642	-196.90814	-1275.02089	-442.63648	1176.56682	-736.37135	-313.26295	-434.49978	-109.84545	-336.85938	-356.38746	-393.81628	0
801	1091.13147	-196.90814	-1287.22594	-447.5185	1188.77187	-741.25337	-330.35002	-434.49978	-100.08141	-324.65433	-344.18241	-381.61123	0
802	1096.01349	-196.90814	-1292.10796	-449.95951	1193.65389	-743.69438	-342.55507	-432.05877	-92.75838	-312.44928	-331.97736	-371.84719	0
803	1105.77753	-196.90814	-1301.872	-454.84153	1203.41793	-748.5764	-354.76012	-422.29473	-87.87636	-305.12625	-319.77231	-362.08315	0
804	1110.65955	-192.02612	-1301.872	-459.72355	1205.85894	-746.13539	-364.52416	-422.29473	-85.43535	-297.80322	-302.68524	-354.76012	0
805	1105.77753	-184.70309	-1289.66695	-462.16456	1196.0949	-736.37135	-369.40618	-417.41271	-82.99434	-290.48019	-283.15716	-344.99608	0
806	1108.21854	-182.26208	-1289.66695	-464.60557	1198.53591	-736.37135	-376.72921	-414.9717	-80.55333	-283.15716	-266.07009	-340.11406	0
807	1115.54157	-177.38006	-1292.10796	-469.48759	1203.41793	-733.93034	-381.61123	-419.85372	-78.11232	-278.27514	-258.74706	-335.23204	0
808	1120.42359	-174.93905	-1294.54897	-474.36961	1205.85894	-733.93034	-388.93426	-429.61776	-75.67131	-273.39312	-258.74706	-332.79103	0
809	1122.8646	-174.93905	-1296.98998	-474.36961	1208.29995	-736.37135	-391.37527	-436.94079	-73.2303	-266.07009	-263.62908	-330.35002	0
810	1132.62864	-174.93905	-1306.75402	-479.25163	1218.06399	-741.25337	-391.37527	-444.26382	-75.67131	-266.07009	-273.39312	-330.35002	0
811	1154.59773	-187.1441	-1340.92816	-484.13365	1247.35611	-763.22246	-396.25729	-451.58685	-82.99434	-266.07009	-285.59817	-332.79103	0
812	1169.24379	-187.1441	-1355.57422	-491.45668	1262.00217	-770.54549	-401.13931	-458.90988	-92.75838	-268.5111	-290.48019	-332.79103	0
813	1174.12581	-187.1441	-1360.45624	-493.89769	1266.88419	-772.9865	-406.02133	-449.14584	-97.6404	-273.39312	-290.48019	-332.79103	0
814	1176.56682	-187.1441	-1362.89725	-496.3387	1269.3252	-775.42751	-408.46234	-432.05877	-102.52242	-275.83413	-290.48019	-330.35002	0
815	1176.56682	-184.70309	-1360.45624	-496.3387	1266.88419	-772.9865	-410.90335	-427.17675	-107.40444	-280.71615	-285.59817	-330.35002	0
816	1179.00783	-182.26208	-1360.45624	-498.77971	1269.3252	-770.54549	-413.34436	-434.49978	-112.28646	-283.15716	-280.71615	-330.35002	0
817	1179.00783	-179.82107	-1358.01523	-501.22072	1266.88419	-768.10448	-420.66739	-446.70483	-114.72747	-285.59817	-280.71615	-327.90901	0
818	1186.33086	-174.93905	-1360.45624	-506.10274	1271.76621	-768.10448	-425.54941	-463.7919	-117.16848	-285.59817	-280.71615	-327.90901	0
819	1186.33086	-167.61602	-1353.13321	-510.98476	1269.3252	-760.78145	-430.43143	-478.43796	-119.60949	-280.71615	-288.03918	-323.02699	0
820	1186.33086	-165.17501	-1350.6922	-510.98476	1266.88419	-758.34044	-430.43143	-500.40705	-119.60949	-275.83413	-290.48019	-318.14497	0
821	1193.65389	-165.17501	-1358.01523	-515.86678	1274.20722	-760.78145	-432.87244	-519.93513	-126.93252	-273.39312	-292.9212	-313.26295	0
822	1205.85894	-162.734	-1367.77927	-523.18981	1286.41227	-765.66347	-435.31345	-524.81715	-131.81454	-273.39312	-290.48019	-308.38093	0
823	1208.29995	-162.734	-1370.22028	-523.18981	1288.85328	-765.66347	-435.31345	-522.37614	-134.25555	-270.95211	-283.15716	-303.49891	0
824	1205.85894	-165.17501	-1370.22028	-520.7488	1286.41227	-768.10448	-435.31345	-512.6121	-136.69656	-268.5111	-270.95211	-298.61689	0
825	1200.97692	-170.05703	-1370.22028	-515.86678	1283.97126	-770.54549	-437.75446	-510.17109	-139.13757	-268.5111	-263.62908	-296.17588	0
826	1205.85894	-174.93905	-1379.98432	-515.86678	1291.29429	-777.86852	-442.63648	-517.49412	-146.4606	-273.39312	-256.30605	-298.61689	0
827	1213.18197	-172.49804	-1384.86634	-520.7488	1298.61732	-777.86852	-449.95951	-527.25816	-151.34262	-278.27514	-256.30605	-298.61689	0
828	1213.18197	-174.93905	-1387.30735	-520.7488	1298.61732	-780.30953	-457.28254	-541.90422	-156.22464	-278.27514	-261.18807	-296.17588	0
829	1215.62298	-172.49804	-1387.30735	-523.18981	1301.05833	-780.30953	-464.60557	-554.10927	-161.10666	-278.27514	-270.95211	-293.73487	0
830	1220.505	-167.61602	-1387.30735	-528.07183	1303.49934	-777.86852	-467.04658	-563.87331	-163.54767	-275.83413	-280.71615	-286.41184	0
831	1235.15106	-160.29299	-1394.63038	-537.83587	1313.26338	-777.86852	-467.04658	-573.63735	-170.8707	-275.83413	-288.03918	-279.08881	0
832	1249.79712	-152.96996	-1401.95341	-550.04092	1325.46843	-777.86852	-464.60557	-580.96038	-175.75272	-275.83413	-285.59817	-271.76578	0
833	1252.23813	-152.96996	-1404.39442	-550.04092	1327.90944	-777.86852	-464.60557	-580.96038	-178.19373	-270.95211	-278.27514	-264.44275	0
834	1244.9151	-152.96996	-1397.07139	-547.59991	1320.58641	-775.42751	-462.16456	-580.96038	-178.19373	-268.5111	-263.62908	-257.11972	0
835	1240.03308	-150.52895	-1389.74836	-545.1589	1313.26338	-770.54549	-462.16456	-578.51937	-180.63474	-268.5111	-248.98302	-249.79669	0
836	1240.03308	-150.52895	-1389.74836	-545.1589	1313.26338	-770.54549	-462.16456	-576.07836	-180.63474	-266.07009	-241.65999	-242.47366	0
837	1237.59207	-152.96996	-1389.74836	-542.71789	1313.26338	-770.54549	-469.48759	-588.28341	-185.51676	-268.5111	-246.54201	-240.03265	0
838	1227.82803	-152.96996	-1379.98432	-537.83587	1303.49934	-765.66347	-474.36961	-598.04745	-190.39878	-268.5111	-248.98302	-240.03265	0
839	1227.82803	-150.52895	-1377.54331	-540.27688	1301.05833	-763.22246	-479.25163	-607.81149	-197.72181	-268.5111	-256.30605	-240.03265	0
840	1227.82803	-145.64693	-1372.66129	-542.71789	1298.61732	-758.34044	-476.81062	-615.13452	-200.16282	-266.07009	-261.18807	-232.70962	0
841	1237.59207	-143.20592	-1379.98432	-547.59991	1308.38136	-760.78145	-474.36961	-624.89856	-209.92686	-263.62908	-266.07009	-230.26861	0
842	1240.03308	-145.64693	-1384.86634	-547.59991	1310.82237	-765.66347	-476.81062	-637.10361	-219.6909	-266.07009	-268.5111	-230.26861	0
843	1240.03308	-143.20592	-1382.42533	-550.04092	1310.82237	-763.22246	-479.25163	-641.98563	-224.57292	-266.07009	-256.30605	-230.26861	0
844	1242.47409	-140.76491	-1382.42533	-552.48193	1310.82237	-760.78145	-484.13365	-646.86765	-231.89595	-266.07009	-246.54201	-227.8276	0
845	1237.59207	-135.88289	-1372.66129	-552.48193	1303.49934	-753.45842	-486.57466	-644.42664	-236.77797	-266.07009	-234.33696	-222.94558	0
846	1235.15106	-138.3239	-1372.66129	-550.04092	1303.49934	-755.89943	-493.89769	-654.19068	-244.101	-270.95211	-231.89595	-222.94558	0
847	1230.26904	-140.76491	-1370.22028	-545.1589	1298.61732	-755.89943	-503.66173	-668.83674	-256.30605	-278.27514	-234.33696	-222.94558	0
848	1227.82803	-140.76491	-1367.77927	-545.1589	1296.17631	-753.45842	-513.42577	-685.92381	-263.62908	-288.03918	-244.101	-218.06356	0
849	1232.71005	-138.3239	-1370.22028	-547.59991	1301.05833	-753.45842	-525.63082	-703.01088	-275.83413	-297.80322	-258.74706	-218.06356	0
850	1235.15106	-133.44188	-1367.77927	-552.48193	1301.05833	-751.01741	-528.07183	-715.21593	-283.15716	-305.12625	-275.83413	-210.74053	0
851	1242.47409	-126.11885	-1367.77927	-559.80496	1303.49934	-746.13539	-530.51284	-732.303	-295.36221	-312.44928	-288.03918	-205.85851	0
852	1242.47409	-121.23683	-1362.89725	-562.24597	1301.05833	-741.25337	-535.39486	-744.50805	-307.56726	-319.77231	-295.36221	-203.4175	0
853	1244.9151	-111.47279	-1355.57422	-567.12799	1298.61732	-733.93034	-537.83587	-749.39007	-312.44928	-319.77231	-288.03918	-196.09447	0
854	1247.35611	-101.70875	-1348.25119	-574.45102	1296.17631	-724.1663	-540.27688	-754.27209	-319.77231	-322.21332	-273.39312	-191.21245	0
855	1247.35611	-96.82673	-1343.36917	-576.89203	1293.7353	-719.28428	-545.1589	-756.7131	-327.09534	-322.21332	-256.30605	-188.77144	0
856	1240.03308	-94.38572	-1333.60513	-574.45102	1286.41227	-714.40226	-547.59991	-764.03613	-336.85938	-324.65433	-241.65999	-183.88942	0
857	1235.15106	-94.38572	-1328.72311	-572.01001	1281.53025	-711.96125	-554.92294	-778.68219	-349.06443	-331.97736	-239.21898	-181.44841	0
858	1235.15106	-99.26774	-1333.60513	-569.569	1283.97126	-716.84327	-562.24597	-798.21027	-361.26948	-339.30039	-244.101	-176.56639	0
859	1235.15106	-99.26774	-1333.60513	-569.569	1283.97126	-716.84327	-567.12799	-812.85633	-373.47453	-349.06443	-256.30605	-171.68437	0
860	1232.71005	-101.70875	-1333.60513	-567.12799	1281.53025	-716.84327	-569.569	-827.50239	-388.12059	-358.82847	-273.39312	-169.24336	0
861	1242.47409	-109.03178	-1350.6922	-567.12799	1296.17631	-729.04832	-579.33304	-849.47148	-412.53069	-373.47453	-292.9212	-171.68437	0
862	1264.44318	-106.59077	-1370.22028	-579.33304	1315.70439	-738.81236	-586.65607	-866.55855	-429.61776	-385.67958	-302.68524	-176.56639	0
863	1264.44318	-106.59077	-1370.22028	-579.33304	1315.70439	-738.81236	-589.09708	-873.88158	-439.3818	-390.5616	-302.68524	-176.56639	0
864	1266.88419	-101.70875	-1367.77927	-584.21506	1315.70439	-733.93034	-596.42011	-881.20461	-451.58685	-400.32564	-305.12625	-179.0074	0
865	1271.76621	-96.82673	-1367.77927	-589.09708	1318.1454	-731.48933	-601.30213	-886.08663	-463.7919	-407.64867	-307.56726	-181.44841	0
866	1274.20722	-96.82673	-1370.22028	-589.09708	1320.58641	-733.93034	-611.06617	-898.29168	-478.43796	-419.85372	-310.00827	-183.88942	0
867	1266.88419	-94.38572	-1360.45624	-586.65607	1313.26338	-726.60731	-618.3892	-912.93774	-493.08402	-432.05877	-312.44928	-183.88942	0
868	1249.79712	-91.94471	-1340.92816	-579.33304	1293.7353	-716.84327	-620.83021	-930.02481	-500.40705	-441.82281	-305.12625	-176.56639	0
869	1252.23813	-91.94471	-1343.36917	-581.77405	1296.17631	-716.84327	-630.59425	-949.55289	-517.49412	-458.90988	-312.44928	-174.12538	0
870	1264.44318	-87.06269	-1350.6922	-589.09708	1305.94035	-719.28428	-635.47627	-966.63996	-537.0222	-473.55594	-314.89029	-174.12538	0
871	1269.3252	-84.62168	-1353.13321	-593.9791	1310.82237	-719.28428	-640.35829	-983.72703	-554.10927	-488.202	-312.44928	-171.68437	0
872	1279.08924	-84.62168	-1362.89725	-598.86112	1320.58641	-724.1663	-645.24031	-1003.25511	-573.63735	-502.84806	-317.3313	-181.44841	0
873	1293.7353	-79.73966	-1372.66129	-608.62516	1332.79146	-726.60731	-647.68132	-1008.13713	-585.8424	-512.6121	-322.21332	-188.77144	0
874	1301.05833	-79.73966	-1379.98432	-611.06617	1340.11449	-729.04832	-650.12233	-1010.57814	-593.16543	-519.93513	-329.53635	-196.09447	0
875	1303.49934	-79.73966	-1382.42533	-613.50718	1342.5555	-731.48933	-655.00435	-1010.57814	-602.92947	-524.81715	-339.30039	-203.4175	0
876	1308.38136	-79.73966	-1387.30735	-615.94819	1347.43752	-733.93034	-659.88637	-1015.46016	-607.81149	-527.25816	-346.62342	-208.29952	0
877	1305.94035	-91.94471	-1397.07139	-608.62516	1349.87853	-743.69438	-659.88637	-1020.34218	-610.2525	-532.14018	-356.38746	-210.74053	0
878	1310.82237	-91.94471	-1401.95341	-611.06617	1354.76055	-746.13539	-659.88637	-1025.2242	-610.2525	-534.58119	-366.1515	-210.74053	0
879	1305.94035	-94.38572	-1399.5124	-606.18415	1352.31954	-746.13539	-657.44536	-1025.2242	-607.81149	-534.58119	-373.47453	-203.4175	0
880	1305.94035	-99.26774	-1404.39442	-603.74314	1354.76055	-751.01741	-652.56334	-1022.78319	-605.37048	-534.58119	-383.23857	-198.53548	0
881	1310.82237	-104.14976	-1414.15846	-603.74314	1362.08358	-758.34044	-645.24031	-1022.78319	-605.37048	-534.58119	-393.00261	-198.53548	0
882	1315.70439	-111.47279	-1426.36351	-603.74314	1369.40661	-768.10448	-640.35829	-1022.78319	-605.37048	-534.58119	-395.44362	-198.53548	0
883	1318.1454	-113.9138	-1431.24553	-603.74314	1374.28863	-772.9865	-637.91728	-1017.90117	-602.92947	-532.14018	-395.44362	-203.4175	0
884	1320.58641	-118.79582	-1438.56856	-601.30213	1379.17065	-777.86852	-637.91728	-1010.57814	-598.04745	-527.25816	-388.12059	-208.29952	0
885	1315.70439	-126.11885	-1441.00957	-596.42011	1376.72964	-782.75054	-637.91728	-1000.8141	-593.16543	-524.81715	-378.35655	-215.62255	0
886	1315.70439	-131.00087	-1445.89159	-593.9791	1379.17065	-787.63256	-635.47627	-993.49107	-588.28341	-519.93513	-371.03352	-222.94558	0
887	1318.1454	-131.00087	-1448.3326	-593.9791	1381.61166	-790.07357	-633.03526	-991.05006	-583.40139	-517.49412	-368.59251	-227.8276	0
888	1313.26338	-131.00087	-1443.45058	-591.53809	1376.72964	-787.63256	-628.15324	-988.60905	-571.19634	-510.17109	-371.03352	-227.8276	0
889	1318.1454	-135.88289	-1453.21462	-591.53809	1384.05267	-794.95559	-625.71223	-986.16804	-561.4323	-507.73008	-383.23857	-232.70962	0
890	1320.58641	-138.3239	-1458.09664	-591.53809	1388.93469	-797.3966	-615.94819	-978.84501	-549.22725	-500.40705	-390.5616	-232.70962	0
891	1325.46843	-138.3239	-1462.97866	-593.9791	1393.81671	-799.83761	-606.18415	-971.52198	-539.46321	-493.08402	-390.5616	-227.8276	0
892	1332.79146	-143.20592	-1475.18371	-596.42011	1403.58075	-809.60165	-598.86112	-966.63996	-534.58119	-485.76099	-388.12059	-230.26861	0
893	1335.23247	-145.64693	-1480.06573	-596.42011	1406.02176	-812.04266	-593.9791	-959.31693	-524.81715	-478.43796	-380.79756	-230.26861	0
894	1342.5555	-150.52895	-1492.27078	-596.42011	1415.7858	-821.8067	-593.9791	-949.55289	-517.49412	-475.99695	-375.91554	-237.59164	0
895	1335.23247	-152.96996	-1487.38876	-591.53809	1410.90378	-819.36569	-589.09708	-937.34784	-510.17109	-468.67392	-363.71049	-240.03265	0
896	1332.79146	-150.52895	-1482.50674	-591.53809	1406.02176	-816.92468	-584.21506	-927.5838	-500.40705	-461.35089	-353.94645	-240.03265	0
897	1323.02742	-150.52895	-1472.7427	-586.65607	1396.25772	-812.04266	-581.77405	-922.70178	-490.64301	-454.02786	-353.94645	-242.47366	0
898	1318.1454	-148.08794	-1465.41967	-586.65607	1391.3757	-807.16064	-579.33304	-922.70178	-480.87897	-449.14584	-356.38746	-242.47366	0
899	1325.46843	-143.20592	-1467.86068	-591.53809	1396.25772	-804.71963	-574.45102	-920.26077	-471.11493	-439.3818	-363.71049	-240.03265	0
900	1325.46843	-140.76491	-1465.41967	-593.9791	1393.81671	-802.27862	-562.24597	-912.93774	-458.90988	-429.61776	-368.59251	-237.59164	0
901	1325.46843	-148.08794	-1472.7427	-589.09708	1398.69873	-809.60165	-552.48193	-910.49673	-451.58685	-422.29473	-373.47453	-237.59164	0
902	1325.46843	-157.85198	-1482.50674	-584.21506	1403.58075	-819.36569	-545.1589	-908.05572	-446.70483	-417.41271	-375.91554	-242.47366	0
903	1325.46843	-162.734	-1487.38876	-581.77405	1406.02176	-824.24771	-537.83587	-900.73269	-434.49978	-412.53069	-371.03352	-247.35568	0
904	1327.90944	-165.17501	-1492.27078	-581.77405	1408.46277	-829.12973	-532.95385	-890.96865	-424.73574	-407.64867	-363.71049	-252.2377	0
905	1320.58641	-167.61602	-1487.38876	-576.89203	1403.58075	-826.68872	-525.63082	-878.7636	-414.9717	-402.76665	-356.38746	-257.11972	0
906	1308.38136	-177.38006	-1484.94775	-567.12799	1396.25772	-831.57074	-523.18981	-871.44057	-405.20766	-397.88463	-349.06443	-262.00174	0
907	1296.17631	-179.82107	-1475.18371	-559.80496	1384.05267	-826.68872	-520.7488	-866.55855	-393.00261	-393.00261	-346.62342	-262.00174	0
908	1293.7353	-174.93905	-1467.86068	-559.80496	1379.17065	-821.8067	-515.86678	-864.11754	-380.79756	-385.67958	-346.62342	-262.00174	0
909	1286.41227	-174.93905	-1460.53765	-557.36395	1371.84762	-816.92468	-515.86678	-859.23552	-371.03352	-378.35655	-353.94645	-259.56073	0
910	1286.41227	-172.49804	-1458.09664	-557.36395	1371.84762	-814.48367	-506.10274	-851.91249	-363.71049	-373.47453	-361.26948	-257.11972	0
911	1281.53025	-174.93905	-1455.65563	-554.92294	1366.9656	-814.48367	-498.77971	-849.47148	-356.38746	-368.59251	-361.26948	-257.11972	0
912	1274.20722	-174.93905	-1448.3326	-550.04092	1359.64257	-812.04266	-489.01567	-844.58946	-349.06443	-363.71049	-361.26948	-254.67871	0
913	1271.76621	-172.49804	-1443.45058	-550.04092	1357.20156	-807.16064	-481.69264	-834.82542	-336.85938	-356.38746	-361.26948	-252.2377	0
914	1262.00217	-170.05703	-1431.24553	-547.59991	1344.99651	-799.83761	-476.81062	-827.50239	-327.09534	-353.94645	-353.94645	-252.2377	0
915	1249.79712	-167.61602	-1416.59947	-542.71789	1332.79146	-792.51458	-471.9286	-812.85633	-317.3313	-346.62342	-344.18241	-249.79669	0
916	1237.59207	-165.17501	-1401.95341	-537.83587	1318.1454	-782.75054	-467.04658	-803.09229	-310.00827	-339.30039	-334.41837	-249.79669	0
917	1222.94601	-165.17501	-1387.30735	-530.51284	1303.49934	-775.42751	-462.16456	-795.76926	-297.80322	-329.53635	-331.97736	-244.91467	0
918	1210.74096	-162.734	-1372.66129	-525.63082	1291.29429	-768.10448	-459.72355	-795.76926	-285.59817	-324.65433	-334.41837	-242.47366	0
919	1193.65389	-162.734	-1355.57422	-515.86678	1274.20722	-758.34044	-457.28254	-790.88724	-278.27514	-322.21332	-339.30039	-242.47366	0
920	1181.44884	-162.734	-1343.36917	-510.98476	1262.00217	-753.45842	-447.5185	-783.56421	-270.95211	-317.3313	-344.18241	-240.03265	0
921	1174.12581	-165.17501	-1338.48715	-506.10274	1254.67914	-751.01741	-437.75446	-778.68219	-266.07009	-312.44928	-349.06443	-240.03265	0
922	1161.92076	-170.05703	-1331.16412	-496.3387	1244.9151	-751.01741	-430.43143	-776.24118	-258.74706	-310.00827	-351.50544	-240.03265	0
923	1147.2747	-174.93905	-1321.40008	-486.57466	1232.71005	-748.5764	-425.54941	-768.91815	-248.98302	-305.12625	-346.62342	-240.03265	0
924	1127.74662	-174.93905	-1301.872	-476.81062	1213.18197	-738.81236	-420.66739	-759.15411	-241.65999	-297.80322	-336.85938	-240.03265	0
925	1103.33652	-177.38006	-1279.90291	-464.60557	1191.21288	-729.04832	-413.34436	-744.50805	-231.89595	-292.9212	-317.3313	-237.59164	0
926	1083.80844	-177.38006	-1260.37483	-454.84153	1171.6848	-719.28428	-408.46234	-732.303	-222.13191	-283.15716	-297.80322	-230.26861	0
927	1056.95733	-177.38006	-1233.52372	-440.19547	1144.83369	-704.63822	-403.58032	-724.97997	-212.36787	-275.83413	-288.03918	-220.50457	0
928	1032.54723	-174.93905	-1206.67261	-430.43143	1117.98258	-689.99216	-396.25729	-722.53896	-200.16282	-268.5111	-283.15716	-210.74053	0
929	1010.57814	-170.05703	-1179.8215	-420.66739	1093.57248	-675.3461	-388.93426	-712.77492	-190.39878	-258.74706	-283.15716	-200.97649	0
930	986.16804	-165.17501	-1150.52938	-410.90335	1066.72137	-658.25903	-374.2882	-703.01088	-180.63474	-248.98302	-288.03918	-191.21245	0
931	969.08097	-162.734	-1131.0013	-403.58032	1049.6343	-646.05398	-362.08315	-695.68785	-173.31171	-239.21898	-288.03918	-181.44841	0
932	949.55289	-162.734	-1111.47322	-393.81628	1030.10622	-636.28994	-349.8781	-688.36482	-163.54767	-229.45494	-280.71615	-174.12538	0
933	925.14279	-167.61602	-1091.94514	-379.17022	1008.13713	-628.96691	-340.11406	-678.60078	-151.34262	-217.24989	-263.62908	-166.80235	0
934	898.29168	-170.05703	-1067.53504	-364.52416	981.28602	-619.20287	-330.35002	-666.39573	-139.13757	-205.04484	-244.101	-161.92033	0
935	871.44057	-174.93905	-1045.56595	-349.8781	956.87592	-609.43883	-323.02699	-651.74967	-129.37353	-195.2808	-219.6909	-157.03831	0
936	844.58946	-179.82107	-1023.59686	-332.79103	932.46582	-602.1158	-315.70396	-641.98563	-119.60949	-187.95777	-197.72181	-149.71528	0
937	810.41532	-184.70309	-994.30474	-313.26295	900.73269	-589.91075	-310.82194	-637.10361	-107.40444	-180.63474	-185.51676	-142.39225	0
938	783.56421	-179.82107	-962.57161	-303.49891	871.44057	-570.38267	-303.49891	-632.22159	-97.6404	-173.31171	-180.63474	-130.1872	0
939	756.7131	-174.93905	-930.83848	-291.29386	842.14845	-553.2956	-293.73487	-624.89856	-85.43535	-163.54767	-183.07575	-117.98215	0
940	727.42098	-167.61602	-894.22333	-281.52982	810.41532	-531.32651	-279.08881	-615.13452	-75.67131	-153.78363	-187.95777	-108.21811	0
941	695.68785	-160.29299	-855.16717	-269.32477	773.80017	-506.91641	-264.44275	-605.37048	-65.90727	-144.01959	-187.95777	-96.01306	0
942	663.95472	-157.85198	-820.99303	-254.67871	742.06704	-489.82934	-247.35568	-593.16543	-51.26121	-126.93252	-175.75272	-83.80801	0
943	622.45755	-157.85198	-779.49586	-232.70962	700.56987	-467.86025	-230.26861	-576.07836	-36.61515	-109.84545	-156.22464	-74.04397	0
944	578.51937	-160.29299	-737.99869	-210.74053	656.63169	-448.33217	-218.06356	-558.99129	-19.52808	-92.75838	-129.37353	-61.83892	0
945	532.14018	-162.734	-694.06051	-186.33043	612.69351	-428.80409	-203.4175	-537.0222	-4.88202	-78.11232	-102.52242	-54.51589	0
946	485.76099	-165.17501	-650.12233	-161.92033	566.31432	-406.835	-188.77144	-517.49412	8.1367	-63.46626	-73.2303	-42.31084	0
947	439.3818	-167.61602	-606.18415	-137.51023	522.37614	-387.30692	-174.12538	-502.84806	25.22377	-46.37919	-51.26121	-25.22377	0
948	393.00261	-167.61602	-559.80496	-113.10013	475.99695	-362.89682	-159.47932	-490.64301	39.86983	-31.73313	-41.49717	-8.1367	0
949	351.50544	-160.29299	-510.98476	-96.01306	429.61776	-336.04571	-147.27427	-475.99695	54.51589	-19.52808	-41.49717	4.88202	0
950	314.89029	-155.41097	-469.48759	-81.367	390.5616	-311.63561	-130.1872	-461.35089	66.72094	-7.32303	-43.93818	19.52808	0
