samplenr	I	II	III	aVR	aVL	aVF	V1	V2	V3	V4	V5	V6	measurement
0	-17.90074	-126.11885	-109.03178	70.78929	45.56552	-118.79582	34.17414	-30.10579	-9.76404	60.21158	-104.96343	-123.67784	0
1	-17.90074	-123.67784	-106.59077	70.78929	43.12451	-116.35481	36.61515	-27.66478	-7.32303	62.65259	-107.40444	-123.67784	0
2	-20.34175	-121.23683	-101.70875	70.78929	40.6835	-111.47279	41.49717	-25.22377	-4.88202	62.65259	-104.96343	-121.23683	0
3	-20.34175	-118.79582	-99.26774	68.34828	38.24249	-109.03178	46.37919	-17.90074	0	57.77057	-82.99434	-118.79582	0
4	-20.34175	-113.9138	-94.38572	65.90727	35.80148	-104.14976	48.8202	-15.45973	2.44101	48.00653	-53.70222	-113.9138	0
5	-27.66478	-116.35481	-89.5037	70.78929	30.91946	-104.14976	51.26121	-13.01872	4.88202	40.6835	-21.15542	-111.47279	0
6	-37.42882	-126.11885	-89.5037	80.55333	26.03744	-109.03178	53.70222	-13.01872	4.88202	38.24249	3.25468	-109.03178	0
7	-47.19286	-133.44188	-87.06269	90.31737	18.71441	-111.47279	53.70222	-13.01872	0	40.6835	13.01872	-111.47279	0
8	-39.86983	-133.44188	-94.38572	85.43535	26.03744	-113.9138	48.8202	-15.45973	-4.88202	45.56552	0.81367	-116.35481	0
9	-37.42882	-138.3239	-101.70875	87.87636	30.91946	-121.23683	46.37919	-17.90074	-7.32303	50.44754	-24.4101	-121.23683	0
10	-39.86983	-143.20592	-104.14976	90.31737	30.91946	-123.67784	43.93818	-22.78276	-9.76404	55.32956	-61.02525	-126.11885	0
11	-39.86983	-150.52895	-111.47279	95.19939	35.80148	-131.00087	36.61515	-30.10579	-14.64606	55.32956	-100.08141	-131.00087	0
12	-37.42882	-157.85198	-121.23683	97.6404	40.6835	-140.76491	34.17414	-32.5468	-19.52808	48.00653	-124.49151	-133.44188	0
13	-20.34175	-150.52895	-131.00087	85.43535	55.32956	-140.76491	31.73313	-32.5468	-19.52808	38.24249	-124.49151	-133.44188	0
14	-13.01872	-145.64693	-133.44188	78.11232	60.21158	-140.76491	31.73313	-32.5468	-19.52808	26.03744	-107.40444	-131.00087	0
15	-13.01872	-138.3239	-126.11885	75.67131	55.32956	-133.44188	36.61515	-30.10579	-17.08707	18.71441	-75.67131	-126.11885	0
16	-13.01872	-133.44188	-121.23683	73.2303	52.88855	-128.55986	39.05616	-27.66478	-17.08707	18.71441	-43.93818	-123.67784	0
17	-15.45973	-126.11885	-111.47279	70.78929	48.00653	-118.79582	41.49717	-20.34175	-17.08707	26.03744	-24.4101	-121.23683	0
18	-22.78276	-121.23683	-99.26774	70.78929	38.24249	-111.47279	46.37919	-15.45973	-17.08707	38.24249	-24.4101	-121.23683	0
19	-39.86983	-123.67784	-84.62168	80.55333	21.15542	-104.14976	48.8202	-10.57771	-14.64606	50.44754	-41.49717	-121.23683	0
20	-64.27993	-131.00087	-67.53461	97.6404	1.62734	-99.26774	51.26121	-8.1367	-9.76404	60.21158	-68.34828	-123.67784	0
21	-78.92599	-140.76491	-62.65259	109.84545	-8.1367	-101.70875	48.8202	-8.1367	-9.76404	62.65259	-95.19939	-123.67784	0
22	-74.04397	-143.20592	-69.97562	107.40444	-3.25468	-106.59077	48.8202	-8.1367	-9.76404	57.77057	-112.28646	-123.67784	0
23	-66.72094	-140.76491	-74.85764	102.52242	4.06835	-109.03178	48.8202	-5.69569	-9.76404	48.00653	-109.84545	-123.67784	0
24	-64.27993	-140.76491	-77.29865	102.52242	6.50936	-109.03178	46.37919	-8.1367	-9.76404	33.36047	-90.31737	-123.67784	0
25	-54.51589	-138.3239	-84.62168	95.19939	13.83239	-111.47279	41.49717	-13.01872	-12.20505	21.15542	-61.02525	-121.23683	0
26	-52.07488	-140.76491	-89.5037	95.19939	18.71441	-116.35481	36.61515	-20.34175	-19.52808	16.2734	-36.61515	-123.67784	0
27	-47.19286	-135.88289	-89.5037	90.31737	21.15542	-113.9138	34.17414	-22.78276	-24.4101	16.2734	-24.4101	-123.67784	0
28	-42.31084	-126.11885	-84.62168	82.99434	21.15542	-106.59077	34.17414	-22.78276	-29.29212	21.15542	-29.29212	-128.55986	0
29	-52.07488	-131.00087	-79.73966	90.31737	13.83239	-106.59077	34.17414	-25.22377	-31.73313	28.47845	-53.70222	-131.00087	0
30	-56.9569	-133.44188	-77.29865	95.19939	8.95037	-106.59077	34.17414	-27.66478	-31.73313	35.80148	-87.87636	-131.00087	0
31	-49.63387	-128.55986	-79.73966	87.87636	13.83239	-104.14976	36.61515	-27.66478	-29.29212	40.6835	-122.0505	-131.00087	0
32	-37.42882	-123.67784	-87.06269	80.55333	23.59643	-106.59077	39.05616	-22.78276	-29.29212	45.56552	-139.13757	-128.55986	0
33	-20.34175	-118.79582	-99.26774	68.34828	38.24249	-109.03178	41.49717	-17.90074	-26.85111	45.56552	-136.69656	-126.11885	0
34	-25.22377	-128.55986	-104.14976	75.67131	38.24249	-116.35481	41.49717	-17.90074	-26.85111	40.6835	-117.16848	-123.67784	0
35	-30.10579	-135.88289	-106.59077	82.99434	38.24249	-121.23683	39.05616	-20.34175	-26.85111	35.80148	-87.87636	-123.67784	0
36	-20.34175	-131.00087	-111.47279	75.67131	45.56552	-121.23683	36.61515	-20.34175	-26.85111	30.91946	-56.14323	-121.23683	0
37	-27.66478	-135.88289	-109.03178	80.55333	40.6835	-123.67784	31.73313	-20.34175	-34.17414	23.59643	-39.05616	-123.67784	0
38	-39.86983	-140.76491	-101.70875	90.31737	30.91946	-121.23683	26.85111	-20.34175	-39.05616	13.83239	-43.93818	-128.55986	0
39	-54.51589	-143.20592	-89.5037	97.6404	16.2734	-116.35481	24.4101	-20.34175	-36.61515	8.95037	-63.46626	-128.55986	0
40	-56.9569	-138.3239	-82.18067	97.6404	11.39138	-111.47279	26.85111	-15.45973	-31.73313	8.95037	-92.75838	-126.11885	0
41	-52.07488	-126.11885	-74.85764	87.87636	11.39138	-101.70875	31.73313	-10.57771	-24.4101	16.2734	-117.16848	-121.23683	0
42	-52.07488	-126.11885	-74.85764	87.87636	11.39138	-101.70875	34.17414	-5.69569	-21.96909	28.47845	-134.25555	-118.79582	0
43	-54.51589	-126.11885	-72.41663	90.31737	8.95037	-99.26774	39.05616	0	-17.08707	43.12451	-124.49151	-111.47279	0
44	-49.63387	-116.35481	-67.53461	82.99434	8.95037	-91.94471	46.37919	7.32303	-9.76404	60.21158	-97.6404	-104.14976	0
45	-39.86983	-113.9138	-74.85764	75.67131	16.2734	-94.38572	51.26121	9.76404	-7.32303	69.97562	-63.46626	-99.26774	0
46	-37.42882	-113.9138	-77.29865	75.67131	18.71441	-96.82673	48.8202	4.88202	-9.76404	69.97562	-34.17414	-99.26774	0
47	-32.5468	-113.9138	-82.18067	73.2303	23.59643	-99.26774	46.37919	4.88202	-17.08707	62.65259	-18.71441	-101.70875	0
48	-30.10579	-113.9138	-84.62168	70.78929	26.03744	-99.26774	41.49717	0	-24.4101	52.88855	-24.4101	-106.59077	0
49	-17.90074	-106.59077	-89.5037	61.02525	35.80148	-99.26774	36.61515	-2.44101	-26.85111	40.6835	-43.93818	-111.47279	0
50	-10.57771	-111.47279	-101.70875	61.02525	45.56552	-106.59077	29.29212	-8.1367	-31.73313	28.47845	-85.43535	-118.79582	0
51	-10.57771	-121.23683	-111.47279	65.90727	50.44754	-116.35481	21.96909	-13.01872	-34.17414	21.15542	-119.60949	-123.67784	0
52	0	-121.23683	-121.23683	61.02525	60.21158	-121.23683	19.52808	-13.01872	-36.61515	21.15542	-139.13757	-123.67784	0
53	0	-126.11885	-126.11885	63.46626	62.65259	-126.11885	19.52808	-10.57771	-34.17414	21.15542	-134.25555	-121.23683	0
54	-2.44101	-126.11885	-123.67784	63.46626	60.21158	-123.67784	19.52808	-5.69569	-29.29212	26.03744	-112.28646	-113.9138	0
55	-10.57771	-128.55986	-118.79582	68.34828	52.88855	-123.67784	26.85111	0	-19.52808	30.91946	-75.67131	-106.59077	0
56	-17.90074	-123.67784	-106.59077	70.78929	43.12451	-116.35481	36.61515	12.20505	-7.32303	38.24249	-34.17414	-94.38572	0
57	-13.01872	-106.59077	-94.38572	58.58424	40.6835	-101.70875	43.93818	26.85111	2.44101	50.44754	-6.50936	-84.62168	0
58	-13.01872	-96.82673	-84.62168	53.70222	35.80148	-91.94471	51.26121	41.49717	9.76404	65.0936	0.81367	-79.73966	0
59	-7.32303	-87.06269	-79.73966	46.37919	35.80148	-82.18067	56.14323	56.14323	21.96909	77.29865	-13.83239	-74.85764	0
60	-4.88202	-82.18067	-77.29865	43.93818	35.80148	-79.73966	61.02525	65.90727	31.73313	91.94471	-36.61515	-72.41663	0
61	2.44101	-79.73966	-82.18067	39.05616	40.6835	-79.73966	61.02525	75.67131	41.49717	104.14976	-63.46626	-72.41663	0
62	14.64606	-77.29865	-91.94471	31.73313	52.88855	-84.62168	61.02525	80.55333	43.93818	106.59077	-80.55333	-72.41663	0
63	26.85111	-74.85764	-101.70875	24.4101	62.65259	-87.06269	61.02525	85.43535	46.37919	101.70875	-75.67131	-72.41663	0
64	24.4101	-69.97562	-94.38572	21.96909	57.77057	-82.18067	61.02525	87.87636	51.26121	96.82673	-51.26121	-67.53461	0
65	24.4101	-69.97562	-94.38572	21.96909	57.77057	-82.18067	58.58424	82.99434	51.26121	89.5037	-24.4101	-65.0936	0
66	24.4101	-72.41663	-96.82673	24.4101	60.21158	-84.62168	53.70222	75.67131	46.37919	84.62168	5.69569	-65.0936	0
67	24.4101	-72.41663	-96.82673	24.4101	60.21158	-84.62168	48.8202	70.78929	39.05616	84.62168	20.34175	-67.53461	0
68	26.85111	-72.41663	-99.26774	21.96909	62.65259	-84.62168	41.49717	65.90727	31.73313	87.06269	15.45973	-72.41663	0
69	19.52808	-82.18067	-101.70875	31.73313	60.21158	-91.94471	36.61515	56.14323	24.4101	87.06269	-11.39138	-79.73966	0
70	9.76404	-99.26774	-109.03178	43.93818	57.77057	-104.14976	26.85111	43.93818	12.20505	82.18067	-48.8202	-87.06269	0
71	7.32303	-111.47279	-118.79582	51.26121	62.65259	-113.9138	17.08707	31.73313	4.88202	77.29865	-85.43535	-94.38572	0
72	-2.44101	-121.23683	-118.79582	61.02525	57.77057	-118.79582	9.76404	21.96909	-7.32303	69.97562	-107.40444	-101.70875	0
73	-4.88202	-126.11885	-121.23683	65.90727	57.77057	-123.67784	4.88202	12.20505	-14.64606	57.77057	-104.96343	-101.70875	0
74	-10.57771	-128.55986	-118.79582	68.34828	52.88855	-123.67784	1.62734	4.88202	-17.08707	50.44754	-82.99434	-99.26774	0
75	-13.01872	-131.00087	-118.79582	70.78929	52.88855	-126.11885	-0.81367	0	-19.52808	43.12451	-53.70222	-96.82673	0
76	-10.57771	-126.11885	-116.35481	68.34828	52.88855	-121.23683	-3.25468	-2.44101	-19.52808	38.24249	-29.29212	-94.38572	0
77	-7.32303	-121.23683	-113.9138	63.46626	52.88855	-116.35481	-5.69569	-2.44101	-21.96909	35.80148	-18.71441	-91.94471	0
78	-4.88202	-121.23683	-116.35481	63.46626	55.32956	-118.79582	-8.1367	-5.69569	-24.4101	33.36047	-29.29212	-94.38572	0
79	0	-113.9138	-113.9138	56.14323	55.32956	-113.9138	-5.69569	0	-21.96909	35.80148	-46.37919	-94.38572	0
80	7.32303	-116.35481	-123.67784	53.70222	65.0936	-118.79582	-5.69569	0	-21.96909	35.80148	-78.11232	-99.26774	0
81	19.52808	-113.9138	-133.44188	46.37919	74.85764	-123.67784	-5.69569	0	-21.96909	35.80148	-104.96343	-101.70875	0
82	29.29212	-113.9138	-143.20592	41.49717	84.62168	-128.55986	-3.25468	0	-21.96909	40.6835	-112.28646	-106.59077	0
83	36.61515	-116.35481	-152.96996	39.05616	94.38572	-133.44188	-3.25468	0	-24.4101	43.12451	-102.52242	-106.59077	0
84	43.93818	-111.47279	-155.41097	34.17414	99.26774	-133.44188	-0.81367	2.44101	-21.96909	48.00653	-75.67131	-106.59077	0
85	46.37919	-106.59077	-152.96996	29.29212	99.26774	-128.55986	1.62734	4.88202	-19.52808	50.44754	-48.8202	-101.70875	0
86	31.73313	-109.03178	-140.76491	39.05616	84.62168	-123.67784	4.88202	4.88202	-17.08707	50.44754	-29.29212	-96.82673	0
87	17.08707	-111.47279	-128.55986	46.37919	72.41663	-118.79582	7.32303	7.32303	-19.52808	45.56552	-24.4101	-96.82673	0
88	-2.44101	-118.79582	-116.35481	61.02525	55.32956	-116.35481	7.32303	7.32303	-24.4101	35.80148	-43.93818	-101.70875	0
89	-17.90074	-123.67784	-106.59077	70.78929	43.12451	-116.35481	12.20505	12.20505	-24.4101	30.91946	-75.67131	-101.70875	0
90	-37.42882	-128.55986	-91.94471	82.99434	26.03744	-111.47279	17.08707	12.20505	-24.4101	30.91946	-112.28646	-101.70875	0
91	-52.07488	-135.88289	-84.62168	92.75838	16.2734	-111.47279	17.08707	7.32303	-26.85111	26.03744	-141.57858	-106.59077	0
92	-47.19286	-140.76491	-94.38572	92.75838	23.59643	-118.79582	14.64606	4.88202	-34.17414	26.03744	-151.34262	-111.47279	0
93	-47.19286	-140.76491	-94.38572	92.75838	23.59643	-118.79582	14.64606	2.44101	-36.61515	28.47845	-144.01959	-111.47279	0
94	-52.07488	-143.20592	-91.94471	97.6404	18.71441	-118.79582	17.08707	0	-36.61515	28.47845	-126.93252	-109.03178	0
95	-49.63387	-140.76491	-91.94471	95.19939	21.15542	-116.35481	17.08707	-2.44101	-36.61515	26.03744	-107.40444	-106.59077	0
96	-44.75185	-140.76491	-96.82673	92.75838	26.03744	-118.79582	14.64606	-5.69569	-39.05616	21.15542	-90.31737	-104.14976	0
97	-37.42882	-133.44188	-96.82673	85.43535	28.47845	-116.35481	12.20505	-5.69569	-42.31084	13.83239	-85.43535	-104.14976	0
98	-37.42882	-128.55986	-91.94471	82.99434	26.03744	-111.47279	12.20505	-5.69569	-42.31084	11.39138	-97.6404	-101.70875	0
99	-37.42882	-121.23683	-84.62168	78.11232	23.59643	-104.14976	14.64606	-2.44101	-42.31084	8.95037	-124.49151	-99.26774	0
100	-27.66478	-116.35481	-89.5037	70.78929	30.91946	-104.14976	12.20505	-2.44101	-42.31084	6.50936	-156.22464	-101.70875	1000	P+0
101	-15.45973	-113.9138	-99.26774	63.46626	40.6835	-106.59077	9.76404	-2.44101	-42.31084	8.95037	-170.8707	-101.70875	0
102	-17.90074	-118.79582	-101.70875	68.34828	40.6835	-111.47279	9.76404	-2.44101	-42.31084	16.2734	-165.98868	-101.70875	0
103	-22.78276	-121.23683	-99.26774	70.78929	38.24249	-111.47279	14.64606	2.44101	-39.05616	23.59643	-146.4606	-99.26774	0
104	-15.45973	-118.79582	-104.14976	65.90727	43.12451	-111.47279	14.64606	4.88202	-36.61515	30.91946	-119.60949	-96.82673	0
105	-15.45973	-121.23683	-106.59077	68.34828	45.56552	-113.9138	12.20505	4.88202	-36.61515	30.91946	-90.31737	-94.38572	0
106	-22.78276	-131.00087	-109.03178	75.67131	43.12451	-121.23683	9.76404	0	-36.61515	28.47845	-65.90727	-94.38572	0
107	-27.66478	-131.00087	-104.14976	78.11232	38.24249	-118.79582	9.76404	2.44101	-39.05616	21.15542	-53.70222	-94.38572	0
108	-34.98781	-131.00087	-96.82673	82.99434	30.91946	-113.9138	9.76404	2.44101	-42.31084	13.83239	-61.02525	-94.38572	0
109	-39.86983	-135.88289	-96.82673	87.87636	28.47845	-116.35481	4.88202	2.44101	-42.31084	6.50936	-87.87636	-96.82673	0
110	-49.63387	-138.3239	-89.5037	92.75838	18.71441	-113.9138	1.62734	0	-44.75185	1.62734	-117.16848	-99.26774	0
111	-61.83892	-145.64693	-84.62168	102.52242	11.39138	-116.35481	1.62734	-2.44101	-42.31084	4.06835	-131.81454	-99.26774	0
112	-74.04397	-155.41097	-82.18067	114.72747	4.06835	-118.79582	1.62734	-2.44101	-44.75185	11.39138	-136.69656	-101.70875	0
113	-76.48498	-157.85198	-82.18067	117.16848	1.62734	-121.23683	1.62734	-2.44101	-44.75185	18.71441	-119.60949	-101.70875	0
114	-76.48498	-160.29299	-84.62168	117.16848	4.06835	-123.67784	1.62734	-5.69569	-44.75185	21.15542	-90.31737	-101.70875	0
115	-76.48498	-157.85198	-82.18067	117.16848	1.62734	-121.23683	1.62734	-5.69569	-44.75185	23.59643	-51.26121	-99.26774	0
116	-78.92599	-157.85198	-79.73966	117.16848	-0.81367	-118.79582	1.62734	-5.69569	-44.75185	23.59643	-18.71441	-96.82673	0
117	-81.367	-157.85198	-77.29865	119.60949	-3.25468	-118.79582	-0.81367	-5.69569	-49.63387	13.83239	-6.50936	-96.82673	0
118	-69.16195	-145.64693	-77.29865	107.40444	4.06835	-111.47279	-0.81367	-2.44101	-49.63387	8.95037	-16.2734	-94.38572	0
119	-52.07488	-128.55986	-77.29865	90.31737	11.39138	-104.14976	1.62734	2.44101	-44.75185	6.50936	-41.49717	-91.94471	0
120	-49.63387	-121.23683	-72.41663	85.43535	11.39138	-96.82673	1.62734	4.88202	-42.31084	4.06835	-75.67131	-91.94471	0
121	-44.75185	-116.35481	-72.41663	80.55333	13.83239	-94.38572	1.62734	7.32303	-36.61515	8.95037	-100.08141	-89.5037	0
122	-47.19286	-111.47279	-65.0936	78.11232	8.95037	-89.5037	7.32303	12.20505	-36.61515	16.2734	-109.84545	-87.06269	0
123	-52.07488	-106.59077	-55.32956	78.11232	1.62734	-82.18067	17.08707	21.96909	-31.73313	26.03744	-107.40444	-82.18067	0
124	-59.39791	-106.59077	-48.00653	82.99434	-5.69569	-77.29865	26.85111	29.29212	-31.73313	28.47845	-112.28646	-79.73966	0
125	-71.60296	-104.14976	-33.36047	87.87636	-21.15542	-69.97562	43.93818	36.61515	-34.17414	21.15542	-114.72747	-79.73966	0
126	-100.89508	-99.26774	0.81367	100.08141	-52.88855	-50.44754	73.2303	56.14323	-39.05616	8.95037	-114.72747	-79.73966	0
127	-132.62821	-96.82673	35.80148	114.72747	-84.62168	-30.91946	104.96343	82.99434	-47.19286	-13.01872	-126.93252	-84.62168	0
128	-161.92033	-94.38572	67.53461	126.93252	-116.35481	-13.83239	141.57858	112.28646	-59.39791	-39.86983	-163.54767	-96.82673	0
129	-179.0074	-87.06269	91.94471	131.81454	-135.88289	0.81367	178.19373	146.4606	-64.27993	-67.53461	-212.36787	-111.47279	0
130	-188.77144	-84.62168	104.14976	136.69656	-148.08794	8.95037	214.80888	185.51676	-66.72094	-89.5037	-251.42403	-128.55986	0
131	-203.4175	-96.82673	106.59077	148.90161	-155.41097	3.25468	248.98302	234.33696	-54.51589	-101.70875	-268.5111	-148.08794	0
132	-208.29952	-113.9138	94.38572	161.10666	-152.96996	-11.39138	280.71615	297.80322	-31.73313	-99.26774	-268.5111	-167.61602	0
133	-188.77144	-121.23683	67.53461	153.78363	-128.55986	-28.47845	310.00827	380.79756	21.96909	-69.97562	-244.101	-174.93905	0
134	-147.27427	-121.23683	26.03744	134.25555	-87.06269	-48.00653	336.85938	485.76099	109.84545	-15.45973	-190.39878	-172.49804	0
135	-103.33609	-116.35481	-13.83239	109.84545	-45.56552	-65.0936	361.26948	607.81149	234.33696	74.85764	-114.72747	-152.96996	0
136	-61.83892	-106.59077	-45.56552	82.99434	-8.1367	-77.29865	383.23857	761.59512	402.76665	201.79016	-24.4101	-118.79582	0
137	-4.88202	-79.73966	-74.85764	41.49717	33.36047	-77.29865	400.32564	939.78885	612.69351	370.21985	83.80801	-62.65259	0
138	68.34828	-45.56552	-113.9138	-10.57771	89.5037	-79.73966	397.88463	1103.33652	847.03047	577.7057	208.29952	13.83239	0
139	153.78363	-1.62734	-155.41097	-76.48498	152.96996	-77.29865	373.47453	1247.35611	1098.4545	812.04266	352.31911	109.03178	0
140	253.86504	57.77057	-196.90814	-154.5973	226.20026	-69.97562	329.53635	1349.87853	1342.5555	1063.46669	506.10274	221.31824	0
141	361.26948	133.44188	-228.64127	-247.35568	294.54854	-48.00653	268.5111	1406.02176	1569.56943	1324.65476	676.97344	348.25076	0
142	475.99695	209.11319	-267.69743	-342.55507	372.66086	-28.47845	187.95777	1396.25772	1756.71353	1573.63778	864.93121	477.62429	0
143	585.8424	265.25642	-321.39965	-425.54941	453.21419	-28.47845	95.19939	1315.70439	1890.96908	1775.42794	1043.12494	585.02873	0
144	668.83674	296.98955	-372.66086	-481.69264	521.56247	-38.24249	7.32303	1193.65389	1966.64039	1904.80147	1184.70352	663.14105	0
145	734.74401	333.6047	-401.95298	-532.95385	567.94166	-33.36047	-64.27993	1042.31127	1991.05049	1978.03177	1279.90291	724.1663	0
146	754.27209	355.57379	-399.51197	-554.92294	577.7057	-21.15542	-120.42316	864.11754	1954.43534	1985.3548	1304.31301	760.78145	0
147	722.53896	340.92773	-382.4249	-530.51284	553.2956	-21.15542	-157.03831	663.95472	1847.0309	1917.00652	1277.4619	758.34044	0
148	656.63169	309.1946	-348.25076	-481.69264	502.03439	-18.71441	-176.56639	451.58685	1654.19111	1753.45885	1189.58554	719.28428	0
149	558.99129	272.57945	-287.22551	-415.78537	423.92207	-6.50936	-181.44841	239.21898	1388.93469	1512.61253	1040.68393	653.37701	0
150	432.05877	250.61036	-182.26208	-340.11406	306.75359	35.80148	-176.56639	4.88202	1054.51632	1229.45537	869.81323	585.02873	0
151	312.44928	235.9643	-77.29865	-274.20679	194.46713	79.73966	-176.56639	-240.03265	676.15977	921.88811	691.6195	511.79843	0
152	205.04484	213.99521	8.1367	-208.29952	99.26774	111.47279	-181.44841	-469.48759	292.9212	606.99782	528.07183	426.36308	0
153	107.40444	192.02612	84.62168	-149.71528	11.39138	138.3239	-191.21245	-659.88637	-47.19286	314.07662	379.17022	340.92773	0
154	34.17414	170.05703	135.88289	-100.89508	-50.44754	152.96996	-203.4175	-801.46495	-323.02699	69.97562	232.70962	262.81541	0
155	-22.78276	145.64693	167.61602	-61.83892	-94.38572	155.41097	-222.94558	-901.54636	-518.30779	-113.9138	100.89508	196.90814	0
156	-44.75185	121.23683	165.17501	-37.42882	-104.14976	143.20592	-247.35568	-957.68959	-640.35829	-243.28733	0.81367	135.88289	0
157	-59.39791	87.06269	145.64693	-13.01872	-101.70875	116.35481	-271.76578	-965.01262	-694.06051	-323.84066	-78.11232	77.29865	0
158	-86.24902	43.12451	128.55986	21.96909	-106.59077	84.62168	-283.97083	-943.04353	-703.82455	-370.21985	-139.13757	23.59643	0
159	-103.33609	0.81367	104.14976	51.26121	-104.14976	52.88855	-296.17588	-906.42838	-696.50152	-406.835	-185.51676	-23.59643	0
160	-108.21811	-33.36047	74.85764	70.78929	-91.94471	21.15542	-303.49891	-874.69525	-694.06051	-438.56813	-222.13191	-72.41663	0
161	-113.10013	-65.0936	48.00653	87.87636	-82.18067	-8.95037	-303.49891	-840.52111	-689.17849	-462.97823	-239.21898	-111.47279	0
162	-115.54114	-87.06269	28.47845	100.08141	-72.41663	-30.91946	-296.17588	-799.02394	-679.41445	-472.74227	-241.65999	-138.3239	0
163	-115.54114	-94.38572	21.15542	104.96343	-69.97562	-38.24249	-276.6478	-742.88071	-652.56334	-470.30126	-231.89595	-150.52895	0
164	-117.98215	-99.26774	18.71441	107.40444	-69.97562	-40.6835	-252.2377	-679.41445	-615.94819	-458.09621	-219.6909	-155.41097	0
165	-122.86417	-94.38572	28.47845	107.40444	-77.29865	-33.36047	-225.38659	-606.18415	-564.68698	-431.2451	-209.92686	-148.08794	0
166	-127.74619	-74.85764	52.88855	100.08141	-91.94471	-11.39138	-188.77144	-523.18981	-503.66173	-387.30692	-192.83979	-126.11885	0
167	-135.06922	-52.88855	82.18067	92.75838	-109.03178	13.83239	-152.15629	-440.19547	-445.07749	-340.92773	-183.07575	-104.14976	0
168	-149.71528	-35.80148	113.9138	92.75838	-133.44188	38.24249	-120.42316	-359.64214	-391.37527	-296.98955	-180.63474	-84.62168	0
169	-169.24336	-23.59643	145.64693	95.19939	-157.85198	60.21158	-96.01306	-288.85285	-340.11406	-257.93339	-185.51676	-67.53461	0
170	-181.44841	-11.39138	170.05703	95.19939	-177.38006	79.73966	-76.48498	-235.15063	-301.0579	-226.20026	-173.31171	-55.32956	0
171	-169.24336	11.39138	179.82107	78.11232	-174.93905	94.38572	-61.83892	-191.21245	-269.32477	-199.34915	-156.22464	-43.12451	0
172	-157.03831	18.71441	174.93905	68.34828	-165.17501	96.82673	-54.51589	-159.47932	-249.79669	-184.70309	-158.66565	-35.80148	0
173	-147.27427	16.2734	162.734	65.90727	-155.41097	89.5037	-54.51589	-139.95124	-240.03265	-179.82107	-163.54767	-33.36047	0
174	-127.74619	18.71441	145.64693	53.70222	-135.88289	82.18067	-52.07488	-125.30518	-230.26861	-179.82107	-151.34262	-28.47845	0
175	-105.7771	23.59643	128.55986	41.49717	-116.35481	74.85764	-52.07488	-115.54114	-222.94558	-179.82107	-134.25555	-26.03744	0
176	-86.24902	28.47845	113.9138	29.29212	-99.26774	69.97562	-49.63387	-105.7771	-218.06356	-177.38006	-129.37353	-21.15542	0
177	-76.48498	28.47845	104.14976	24.4101	-89.5037	65.0936	-52.07488	-98.45407	-215.62255	-174.93905	-134.25555	-21.15542	0
178	-69.16195	28.47845	96.82673	19.52808	-82.18067	62.65259	-52.07488	-91.13104	-215.62255	-172.49804	-124.49151	-21.15542	0
179	-69.16195	30.91946	99.26774	19.52808	-84.62168	65.0936	-52.07488	-83.80801	-213.18154	-172.49804	-97.6404	-21.15542	0
180	-74.04397	33.36047	106.59077	19.52808	-89.5037	69.97562	-52.07488	-83.80801	-213.18154	-172.49804	-78.11232	-21.15542	0
181	-71.60296	40.6835	111.47279	14.64606	-91.94471	74.85764	-52.07488	-78.92599	-208.29952	-167.61602	-68.34828	-18.71441	0
182	-71.60296	43.12451	113.9138	14.64606	-91.94471	77.29865	-52.07488	-74.04397	-208.29952	-162.734	-63.46626	-16.2734	0
183	-74.04397	48.00653	121.23683	12.20505	-96.82673	84.62168	-49.63387	-69.16195	-205.85851	-157.85198	-70.78929	-8.95037	0
184	-78.92599	48.00653	126.11885	14.64606	-101.70875	87.06269	-49.63387	-69.16195	-203.4175	-157.85198	-95.19939	-6.50936	0
185	-76.48498	48.00653	123.67784	14.64606	-99.26774	84.62168	-52.07488	-69.16195	-203.4175	-162.734	-122.0505	-0.81367	0
186	-78.92599	52.88855	131.00087	12.20505	-104.14976	91.94471	-52.07488	-69.16195	-203.4175	-160.29299	-136.69656	4.06835	0
187	-100.89508	52.88855	152.96996	24.4101	-126.11885	101.70875	-47.19286	-64.27993	-200.97649	-155.41097	-139.13757	11.39138	0
188	-125.30518	52.88855	177.38006	36.61515	-150.52895	113.9138	-42.31084	-59.39791	-198.53548	-152.96996	-124.49151	16.2734	0
189	-139.95124	55.32956	194.46713	41.49717	-167.61602	123.67784	-42.31084	-56.9569	-196.09447	-152.96996	-90.31737	18.71441	0
190	-139.95124	57.77057	196.90814	41.49717	-167.61602	126.11885	-42.31084	-59.39791	-196.09447	-152.96996	-58.58424	18.71441	0
191	-142.39225	62.65259	204.23117	39.05616	-172.49804	133.44188	-42.31084	-59.39791	-193.65346	-148.08794	-31.73313	23.59643	0
192	-144.83326	67.53461	211.5542	39.05616	-177.38006	138.3239	-42.31084	-59.39791	-193.65346	-145.64693	-21.15542	26.03744	0
193	-135.06922	72.41663	206.67218	31.73313	-170.05703	138.3239	-44.75185	-61.83892	-193.65346	-148.08794	-26.85111	30.91946	0
194	-113.10013	77.29865	189.58511	17.08707	-150.52895	133.44188	-49.63387	-66.72094	-198.53548	-150.52895	-43.93818	30.91946	0
195	-100.89508	82.18067	182.26208	9.76404	-140.76491	131.00087	-52.07488	-71.60296	-198.53548	-155.41097	-65.90727	33.36047	0
196	-103.33609	79.73966	182.26208	12.20505	-143.20592	131.00087	-52.07488	-76.48498	-200.97649	-155.41097	-82.99434	38.24249	0
197	-100.89508	82.18067	182.26208	9.76404	-140.76491	131.00087	-54.51589	-78.92599	-205.85851	-152.96996	-85.43535	38.24249	0
198	-93.57205	84.62168	177.38006	4.06835	-135.88289	131.00087	-56.9569	-81.367	-213.18154	-152.96996	-75.67131	38.24249	0
199	-88.69003	89.5037	177.38006	-0.81367	-133.44188	133.44188	-61.83892	-86.24902	-215.62255	-152.96996	-48.8202	38.24249	0
200	-81.367	96.82673	177.38006	-8.1367	-128.55986	135.88289	-64.27993	-91.13104	-218.06356	-152.96996	-21.15542	38.24249	0
201	-81.367	96.82673	177.38006	-8.1367	-128.55986	135.88289	-66.72094	-93.57205	-218.06356	-152.96996	0.81367	43.12451	0
202	-76.48498	109.03178	184.70309	-15.45973	-131.00087	145.64693	-64.27993	-93.57205	-215.62255	-150.52895	10.57771	50.44754	0
203	-78.92599	109.03178	187.1441	-15.45973	-133.44188	148.08794	-64.27993	-93.57205	-215.62255	-152.96996	3.25468	60.21158	0
204	-91.13104	99.26774	189.58511	-3.25468	-140.76491	143.20592	-69.16195	-98.45407	-218.06356	-162.734	-21.15542	62.65259	0
205	-98.45407	96.82673	194.46713	1.62734	-145.64693	145.64693	-71.60296	-105.7771	-218.06356	-167.61602	-43.93818	69.97562	0
206	-105.7771	94.38572	199.34915	4.06835	-152.96996	145.64693	-76.48498	-113.10013	-220.50457	-167.61602	-61.02525	74.85764	0
207	-100.89508	101.70875	201.79016	-0.81367	-150.52895	150.52895	-78.92599	-117.98215	-227.8276	-165.17501	-65.90727	77.29865	0
208	-98.45407	101.70875	199.34915	-0.81367	-148.08794	150.52895	-86.24902	-122.86417	-235.15063	-162.734	-53.70222	77.29865	0
209	-98.45407	109.03178	206.67218	-5.69569	-152.96996	157.85198	-88.69003	-127.74619	-237.59164	-157.85198	-26.85111	82.18067	0
210	-105.7771	118.79582	223.75925	-5.69569	-165.17501	170.05703	-88.69003	-127.74619	-232.70962	-148.08794	8.1367	89.5037	0
211	-110.65912	131.00087	240.84632	-10.57771	-174.93905	184.70309	-83.80801	-125.30518	-225.38659	-140.76491	39.86983	104.14976	0
212	-113.10013	135.88289	248.16935	-10.57771	-179.82107	192.02612	-81.367	-120.42316	-222.94558	-133.44188	54.51589	113.9138	0
213	-117.98215	138.3239	255.49238	-10.57771	-187.1441	196.90814	-81.367	-120.42316	-220.50457	-135.88289	54.51589	123.67784	0
214	-120.42316	140.76491	260.3744	-10.57771	-189.58511	199.34915	-83.80801	-122.86417	-220.50457	-138.3239	42.31084	131.00087	0
215	-125.30518	138.3239	262.81541	-5.69569	-194.46713	199.34915	-88.69003	-130.1872	-220.50457	-140.76491	22.78276	135.88289	0
216	-113.10013	145.64693	257.93339	-15.45973	-184.70309	201.79016	-96.01306	-137.51023	-222.94558	-140.76491	5.69569	143.20592	0
217	-98.45407	160.29299	257.93339	-30.10579	-177.38006	209.11319	-100.89508	-139.95124	-225.38659	-135.88289	-1.62734	145.64693	0
218	-91.13104	172.49804	262.81541	-39.86983	-177.38006	216.43622	-105.7771	-144.83326	-230.26861	-128.55986	-1.62734	150.52895	0
219	-96.01306	174.93905	270.13844	-39.86983	-182.26208	221.31824	-110.65912	-149.71528	-230.26861	-123.67784	13.01872	152.96996	0
220	-98.45407	177.38006	275.02046	-39.86983	-187.1441	226.20026	-117.98215	-157.03831	-232.70962	-121.23683	37.42882	155.41097	0
221	-78.92599	192.02612	270.13844	-56.9569	-174.93905	231.08228	-120.42316	-159.47932	-227.8276	-116.35481	66.72094	162.734	0
222	-64.27993	204.23117	267.69743	-69.16195	-165.17501	235.9643	-122.86417	-161.92033	-227.8276	-111.47279	91.13104	172.49804	0
223	-59.39791	206.67218	265.25642	-74.04397	-162.734	235.9643	-127.74619	-169.24336	-227.8276	-111.47279	96.01306	179.82107	0
224	-47.19286	209.11319	255.49238	-81.367	-150.52895	231.08228	-135.06922	-179.0074	-227.8276	-113.9138	91.13104	184.70309	0
225	-32.5468	213.99521	245.72834	-91.13104	-138.3239	228.64127	-139.95124	-188.77144	-227.8276	-116.35481	88.69003	192.02612	0
226	-22.78276	226.20026	248.16935	-100.89508	-135.88289	235.9643	-142.39225	-193.65346	-225.38659	-111.47279	86.24902	201.79016	0
227	-20.34175	240.84632	260.3744	-110.65912	-140.76491	250.61036	-144.83326	-196.09447	-222.94558	-104.14976	78.92599	211.5542	0
228	-30.10579	240.84632	270.13844	-105.7771	-150.52895	255.49238	-149.71528	-200.97649	-225.38659	-99.26774	71.60296	216.43622	0
229	-52.07488	233.52329	284.7845	-91.13104	-167.61602	257.93339	-159.47932	-205.85851	-225.38659	-96.82673	81.367	216.43622	0
230	-71.60296	226.20026	296.98955	-76.48498	-184.70309	260.3744	-166.80235	-213.18154	-225.38659	-94.38572	105.7771	221.31824	0
231	-93.57205	221.31824	314.07662	-64.27993	-204.23117	267.69743	-169.24336	-215.62255	-220.50457	-87.06269	139.95124	231.08228	0
232	-103.33609	221.31824	323.84066	-59.39791	-213.99521	272.57945	-171.68437	-213.18154	-215.62255	-77.29865	169.24336	240.84632	0
233	-98.45407	226.20026	323.84066	-64.27993	-211.5542	275.02046	-176.56639	-210.74053	-208.29952	-72.41663	191.21245	253.05137	0
234	-93.57205	233.52329	326.28167	-69.16195	-209.11319	279.90248	-179.0074	-213.18154	-203.4175	-69.97562	213.18154	262.81541	0
235	-71.60296	245.72834	316.51763	-86.24902	-194.46713	279.90248	-183.88942	-215.62255	-198.53548	-67.53461	232.70962	272.57945	0
236	-42.31084	260.3744	301.87157	-108.21811	-172.49804	279.90248	-186.33043	-215.62255	-196.09447	-60.21158	227.8276	284.7845	0
237	-17.90074	282.34349	299.43056	-132.62821	-157.85198	289.66652	-191.21245	-215.62255	-191.21245	-50.44754	222.94558	294.54854	0
238	-4.88202	301.87157	306.75359	-147.27427	-155.41097	304.31258	-193.65346	-210.74053	-186.33043	-39.86983	225.38659	301.87157	0
239	0	314.07662	314.07662	-157.03831	-157.85198	314.07662	-198.53548	-208.29952	-179.0074	-30.10579	240.03265	309.1946	0
240	9.76404	326.28167	316.51763	-166.80235	-152.96996	321.39965	-203.4175	-208.29952	-174.12538	-20.34175	254.67871	314.07662	0
241	14.64606	333.6047	318.95864	-174.12538	-152.96996	326.28167	-208.29952	-208.29952	-164.36134	-10.57771	266.88376	321.39965	0
242	24.4101	340.92773	316.51763	-181.44841	-145.64693	328.72268	-208.29952	-203.4175	-157.03831	1.62734	288.85285	333.6047	0
243	39.05616	350.69177	311.63561	-193.65346	-135.88289	331.16369	-210.74053	-198.53548	-147.27427	13.83239	308.38093	343.36874	0
244	61.02525	358.0148	296.98955	-208.29952	-118.79582	328.72268	-215.62255	-198.53548	-139.95124	21.15542	308.38093	353.13278	0
245	87.87636	362.89682	275.02046	-225.38659	-94.38572	318.95864	-220.50457	-200.97649	-132.62821	26.03744	296.17588	360.45581	0
246	92.75838	360.45581	267.69743	-225.38659	-87.06269	314.07662	-227.8276	-200.97649	-127.74619	35.80148	286.41184	367.77884	1500	QRS+0
247	92.75838	358.0148	265.25642	-225.38659	-87.06269	311.63561	-232.70962	-198.53548	-120.42316	48.00653	286.41184	375.10187	0
248	92.75838	362.89682	270.13844	-227.8276	-89.5037	316.51763	-237.59164	-191.21245	-113.10013	60.21158	293.73487	379.98389	0
249	95.19939	372.66086	277.46147	-232.70962	-91.94471	326.28167	-242.47366	-183.88942	-103.33609	74.85764	310.82194	387.30692	0
250	90.31737	372.66086	282.34349	-230.26861	-96.82673	328.72268	-247.35568	-183.88942	-93.57205	84.62168	337.67305	389.74793	0
251	87.87636	370.21985	282.34349	-227.8276	-96.82673	326.28167	-254.67871	-179.0074	-83.80801	91.94471	362.08315	394.62995	0
252	95.19939	372.66086	277.46147	-232.70962	-91.94471	326.28167	-259.56073	-174.12538	-74.04397	101.70875	381.61123	401.95298	0
253	119.60949	382.4249	262.81541	-249.79669	-72.41663	323.84066	-262.00174	-169.24336	-61.83892	109.03178	386.49325	411.71702	0
254	144.01959	384.86591	240.84632	-264.44275	-48.00653	314.07662	-266.88376	-166.80235	-52.07488	113.9138	381.61123	416.59904	0
255	158.66565	382.4249	223.75925	-269.32477	-33.36047	304.31258	-276.6478	-166.80235	-44.75185	118.79582	366.96517	419.04005	0
256	173.31171	379.98389	206.67218	-276.6478	-16.2734	294.54854	-281.52982	-166.80235	-39.05616	128.55986	357.20113	426.36308	0
257	187.95777	384.86591	196.90814	-286.41184	-3.25468	292.10753	-283.97083	-161.92033	-29.29212	148.08794	354.76012	428.80409	0
258	190.39878	387.30692	196.90814	-288.85285	-3.25468	292.10753	-283.97083	-152.15629	-14.64606	170.05703	369.40618	433.68611	0
259	195.2808	394.62995	199.34915	-293.73487	-0.81367	296.98955	-283.97083	-139.95124	0	189.58511	391.37527	438.56813	0
260	190.39878	394.62995	204.23117	-291.29386	-5.69569	299.43056	-283.97083	-130.1872	17.08707	206.67218	420.66739	445.89116	0
261	190.39878	401.95298	211.5542	-296.17588	-11.39138	306.75359	-279.08881	-117.98215	36.61515	223.75925	447.5185	453.21419	0
262	195.2808	401.95298	206.67218	-298.61689	-5.69569	304.31258	-276.6478	-105.7771	48.8202	231.08228	462.16456	458.09621	0
263	202.60383	401.95298	199.34915	-301.0579	1.62734	301.87157	-274.20679	-98.45407	63.46626	233.52329	464.60557	462.97823	0
264	217.24989	404.39399	187.1441	-310.82194	16.2734	296.98955	-271.76578	-88.69003	75.67131	238.40531	457.28254	467.86025	0
265	231.89595	404.39399	172.49804	-318.14497	30.91946	289.66652	-271.76578	-78.92599	90.31737	243.28733	447.5185	472.74227	0
266	236.77797	404.39399	167.61602	-320.58598	35.80148	287.22551	-266.88376	-71.60296	104.96343	255.49238	437.75446	475.18328	0
267	244.101	399.51197	155.41097	-320.58598	45.56552	277.46147	-269.32477	-64.27993	112.28646	265.25642	427.99042	470.30126	0
268	251.42403	394.62995	143.20592	-323.02699	55.32956	270.13844	-269.32477	-56.9569	119.60949	277.46147	427.99042	465.41924	0
269	258.74706	394.62995	135.88289	-325.468	62.65259	265.25642	-269.32477	-44.75185	134.25555	292.10753	445.07749	462.97823	0
270	268.5111	394.62995	126.11885	-330.35002	72.41663	260.3744	-266.88376	-34.98781	146.4606	301.87157	462.16456	458.09621	0
271	275.83413	394.62995	118.79582	-335.23204	79.73966	257.93339	-262.00174	-25.22377	161.10666	311.63561	476.81062	455.6552	0
272	275.83413	384.86591	109.03178	-330.35002	84.62168	248.16935	-259.56073	-15.45973	168.42969	311.63561	479.25163	448.33217	0
273	275.83413	370.21985	94.38572	-323.02699	91.94471	233.52329	-259.56073	-8.1367	175.75272	304.31258	467.04658	438.56813	0
274	273.39312	358.0148	84.62168	-315.70396	94.38572	221.31824	-254.67871	-2.44101	185.51676	301.87157	449.95951	433.68611	0
275	266.07009	345.80975	79.73966	-305.93992	94.38572	213.99521	-249.79669	7.32303	197.72181	304.31258	430.43143	428.80409	0
276	251.42403	331.16369	79.73966	-291.29386	87.06269	206.67218	-242.47366	17.08707	207.48585	309.1946	410.90335	423.92207	0
277	234.33696	309.1946	74.85764	-271.76578	79.73966	192.02612	-242.47366	21.96909	209.92686	309.1946	391.37527	409.27601	0
278	227.01393	289.66652	62.65259	-257.11972	82.18067	177.38006	-242.47366	29.29212	212.36787	311.63561	381.61123	394.62995	0
279	227.01393	282.34349	55.32956	-254.67871	87.06269	170.05703	-235.15063	41.49717	222.13191	321.39965	388.93426	382.4249	0
280	236.77797	284.7845	48.00653	-259.56073	94.38572	167.61602	-225.38659	56.14323	234.33696	326.28167	401.13931	372.66086	0
281	253.86504	287.22551	33.36047	-269.32477	111.47279	160.29299	-215.62255	68.34828	246.54201	326.28167	406.02133	362.89682	0
282	266.07009	284.7845	18.71441	-274.20679	123.67784	152.96996	-208.29952	80.55333	253.86504	323.84066	403.58032	350.69177	0
283	273.39312	277.46147	3.25468	-274.20679	135.88289	140.76491	-196.09447	95.19939	263.62908	316.51763	388.93426	340.92773	0
284	278.27514	272.57945	-6.50936	-274.20679	143.20592	133.44188	-183.88942	109.84545	273.39312	309.1946	366.96517	328.72268	0
285	275.83413	255.49238	-21.15542	-264.44275	148.08794	118.79582	-179.0074	114.72747	275.83413	299.43056	335.23204	314.07662	0
286	261.18807	231.08228	-30.91946	-244.91467	145.64693	101.70875	-174.12538	117.16848	275.83413	292.10753	308.38093	296.98955	0
287	236.77797	206.67218	-30.91946	-220.50457	133.44188	89.5037	-166.80235	122.0505	273.39312	289.66652	286.41184	277.46147	0
288	214.80888	187.1441	-28.47845	-200.97649	121.23683	79.73966	-159.47932	126.93252	268.5111	287.22551	274.20679	257.93339	0
289	205.04484	177.38006	-28.47845	-191.21245	116.35481	74.85764	-149.71528	136.69656	270.95211	284.7845	271.76578	240.84632	0
290	200.16282	167.61602	-33.36047	-183.88942	116.35481	67.53461	-142.39225	139.13757	268.5111	277.46147	274.20679	221.31824	0
291	185.51676	155.41097	-30.91946	-169.24336	109.03178	62.65259	-132.62821	144.01959	270.95211	267.69743	271.76578	209.11319	0
292	173.31171	145.64693	-28.47845	-159.47932	101.70875	60.21158	-120.42316	148.90161	270.95211	260.3744	262.00174	196.90814	0
293	163.54767	135.88289	-28.47845	-149.71528	96.82673	55.32956	-108.21811	153.78363	268.5111	243.28733	242.47366	184.70309	0
294	148.90161	121.23683	-28.47845	-135.06922	89.5037	48.00653	-98.45407	153.78363	266.07009	228.64127	213.18154	172.49804	0
295	139.13757	106.59077	-33.36047	-122.86417	87.06269	38.24249	-91.13104	151.34262	261.18807	213.99521	183.88942	160.29299	0
296	126.93252	91.94471	-35.80148	-108.21811	82.18067	28.47845	-83.80801	144.01959	253.86504	201.79016	159.47932	145.64693	0
297	117.16848	79.73966	-38.24249	-98.45407	77.29865	21.15542	-83.80801	136.69656	239.21898	192.02612	137.51023	126.11885	0
298	117.16848	72.41663	-45.56552	-93.57205	82.18067	13.83239	-81.367	131.81454	224.57292	182.26208	125.30518	106.59077	0
299	124.49151	67.53461	-57.77057	-96.01306	91.94471	5.69569	-81.367	126.93252	214.80888	172.49804	122.86417	87.06269	0
300	122.0505	55.32956	-67.53461	-88.69003	94.38572	-6.50936	-81.367	117.16848	200.16282	155.41097	117.98215	67.53461	0
301	117.16848	40.6835	-77.29865	-78.92599	96.82673	-18.71441	-83.80801	104.96343	187.95777	138.3239	110.65912	48.00653	0
302	95.19939	16.2734	-79.73966	-54.51589	87.06269	-30.91946	-83.80801	97.6404	173.31171	118.79582	100.89508	33.36047	0
303	82.99434	11.39138	-72.41663	-47.19286	77.29865	-30.91946	-76.48498	97.6404	168.42969	106.59077	88.69003	28.47845	0
304	73.2303	6.50936	-67.53461	-39.86983	69.97562	-30.91946	-69.16195	95.19939	163.54767	91.94471	69.16195	21.15542	0
305	58.58424	-6.50936	-65.0936	-25.22377	60.21158	-35.80148	-69.16195	85.43535	151.34262	74.85764	42.31084	11.39138	0
306	51.26121	-11.39138	-62.65259	-20.34175	55.32956	-35.80148	-66.72094	75.67131	141.57858	65.0936	20.34175	4.06835	0
307	56.14323	-6.50936	-62.65259	-25.22377	57.77057	-33.36047	-61.83892	73.2303	131.81454	60.21158	3.25468	-6.50936	0
308	70.78929	0.81367	-69.97562	-34.98781	69.97562	-33.36047	-59.39791	68.34828	122.0505	57.77057	-4.06835	-13.83239	0
309	78.11232	4.06835	-74.85764	-39.86983	77.29865	-35.80148	-61.83892	61.02525	109.84545	48.00653	-4.06835	-26.03744	0
310	73.2303	-6.50936	-79.73966	-32.5468	74.85764	-43.12451	-64.27993	51.26121	97.6404	35.80148	-6.50936	-38.24249	0
311	63.46626	-13.83239	-77.29865	-25.22377	69.97562	-45.56552	-61.83892	46.37919	92.75838	28.47845	-6.50936	-43.12451	0
312	43.93818	-18.71441	-62.65259	-13.01872	52.88855	-40.6835	-56.9569	48.8202	90.31737	23.59643	-6.50936	-43.12451	0
313	21.96909	-28.47845	-50.44754	4.06835	35.80148	-38.24249	-52.07488	48.8202	87.87636	11.39138	-11.39138	-40.6835	0
314	-2.44101	-48.00653	-45.56552	24.4101	21.15542	-45.56552	-54.51589	41.49717	80.55333	-5.69569	-29.29212	-45.56552	0
315	-10.57771	-60.21158	-50.44754	34.17414	18.71441	-55.32956	-54.51589	34.17414	70.78929	-17.90074	-48.8202	-48.00653	0
316	-10.57771	-65.0936	-55.32956	36.61515	21.15542	-60.21158	-54.51589	26.85111	65.90727	-20.34175	-61.02525	-50.44754	0
317	-13.01872	-69.97562	-57.77057	41.49717	21.15542	-65.0936	-54.51589	24.4101	56.14323	-22.78276	-70.78929	-57.77057	0
318	-13.01872	-69.97562	-57.77057	41.49717	21.15542	-65.0936	-54.51589	19.52808	46.37919	-20.34175	-70.78929	-62.65259	0
319	-7.32303	-67.53461	-60.21158	36.61515	26.03744	-62.65259	-56.9569	14.64606	39.05616	-22.78276	-61.02525	-67.53461	0
320	-2.44101	-60.21158	-57.77057	31.73313	26.03744	-57.77057	-54.51589	14.64606	36.61515	-20.34175	-51.26121	-69.97562	0
321	-4.88202	-55.32956	-50.44754	29.29212	21.15542	-52.88855	-49.63387	17.08707	41.49717	-20.34175	-41.49717	-67.53461	0
322	-15.45973	-60.21158	-45.56552	36.61515	13.83239	-52.88855	-47.19286	19.52808	41.49717	-22.78276	-43.93818	-67.53461	0
323	-20.34175	-62.65259	-43.12451	41.49717	11.39138	-52.88855	-47.19286	17.08707	39.05616	-32.5468	-53.70222	-69.97562	0
324	-13.01872	-60.21158	-48.00653	36.61515	16.2734	-55.32956	-47.19286	12.20505	39.05616	-42.31084	-65.90727	-69.97562	0
325	-10.57771	-60.21158	-50.44754	34.17414	18.71441	-55.32956	-49.63387	7.32303	36.61515	-48.00653	-80.55333	-69.97562	0
326	-4.88202	-62.65259	-57.77057	34.17414	26.03744	-60.21158	-52.07488	0	31.73313	-50.44754	-92.75838	-72.41663	0
327	0	-65.0936	-65.0936	31.73313	30.91946	-65.0936	-54.51589	-5.69569	24.4101	-48.00653	-97.6404	-79.73966	0
328	4.88202	-62.65259	-67.53461	29.29212	35.80148	-65.0936	-59.39791	-5.69569	17.08707	-48.00653	-92.75838	-84.62168	0
329	7.32303	-62.65259	-69.97562	26.85111	38.24249	-65.0936	-61.83892	-10.57771	14.64606	-45.56552	-85.43535	-89.5037	0
330	7.32303	-62.65259	-69.97562	26.85111	38.24249	-65.0936	-61.83892	-13.01872	12.20505	-45.56552	-75.67131	-91.94471	0
331	-2.44101	-69.97562	-67.53461	36.61515	30.91946	-67.53461	-61.83892	-13.01872	14.64606	-45.56552	-73.2303	-91.94471	0
332	-10.57771	-74.85764	-65.0936	41.49717	26.03744	-69.97562	-59.39791	-13.01872	12.20505	-48.00653	-73.2303	-91.94471	0
333	-15.45973	-77.29865	-62.65259	46.37919	23.59643	-69.97562	-59.39791	-13.01872	12.20505	-55.32956	-78.11232	-89.5037	0
334	-20.34175	-79.73966	-60.21158	48.8202	18.71441	-69.97562	-59.39791	-15.45973	12.20505	-60.21158	-87.87636	-87.06269	0
335	-27.66478	-79.73966	-52.88855	53.70222	11.39138	-67.53461	-54.51589	-15.45973	17.08707	-60.21158	-95.19939	-79.73966	0
336	-34.98781	-84.62168	-50.44754	58.58424	6.50936	-67.53461	-54.51589	-17.90074	17.08707	-57.77057	-100.08141	-77.29865	0
337	-37.42882	-84.62168	-48.00653	61.02525	4.06835	-67.53461	-59.39791	-20.34175	12.20505	-50.44754	-102.52242	-79.73966	0
338	-27.66478	-79.73966	-52.88855	53.70222	11.39138	-67.53461	-61.83892	-20.34175	7.32303	-45.56552	-97.6404	-84.62168	0
339	-13.01872	-72.41663	-60.21158	41.49717	23.59643	-67.53461	-64.27993	-20.34175	7.32303	-45.56552	-87.87636	-84.62168	0
340	-10.57771	-65.0936	-55.32956	36.61515	21.15542	-60.21158	-64.27993	-20.34175	9.76404	-42.31084	-82.99434	-87.06269	0
341	-10.57771	-65.0936	-55.32956	36.61515	21.15542	-60.21158	-61.83892	-17.90074	14.64606	-39.86983	-78.11232	-84.62168	0
342	-10.57771	-67.53461	-57.77057	39.05616	23.59643	-62.65259	-61.83892	-13.01872	17.08707	-37.42882	-75.67131	-82.18067	0
343	0	-65.0936	-65.0936	31.73313	30.91946	-65.0936	-59.39791	-13.01872	19.52808	-39.86983	-82.99434	-79.73966	0
344	9.76404	-60.21158	-69.97562	24.4101	38.24249	-65.0936	-56.9569	-10.57771	21.96909	-45.56552	-90.31737	-74.85764	0
345	9.76404	-62.65259	-72.41663	26.85111	40.6835	-67.53461	-56.9569	-10.57771	24.4101	-45.56552	-100.08141	-72.41663	0
346	2.44101	-69.97562	-72.41663	34.17414	35.80148	-69.97562	-61.83892	-15.45973	21.96909	-48.00653	-107.40444	-72.41663	0
347	9.76404	-69.97562	-79.73966	29.29212	43.12451	-74.85764	-66.72094	-20.34175	14.64606	-52.88855	-109.84545	-74.85764	0
348	9.76404	-69.97562	-79.73966	29.29212	43.12451	-74.85764	-66.72094	-20.34175	12.20505	-52.88855	-107.40444	-77.29865	0
349	-2.44101	-69.97562	-67.53461	36.61515	30.91946	-67.53461	-66.72094	-17.90074	14.64606	-52.88855	-97.6404	-79.73966	0
350	-13.01872	-67.53461	-55.32956	39.05616	21.15542	-62.65259	-64.27993	-13.01872	19.52808	-45.56552	-87.87636	-77.29865	0
351	-27.66478	-69.97562	-43.12451	48.8202	6.50936	-57.77057	-61.83892	-10.57771	24.4101	-42.31084	-82.99434	-74.85764	0
352	-27.66478	-67.53461	-40.6835	46.37919	6.50936	-55.32956	-56.9569	-5.69569	29.29212	-32.5468	-78.11232	-69.97562	-1500	QRS-0
353	-30.10579	-67.53461	-38.24249	48.8202	4.06835	-52.88855	-52.07488	2.44101	34.17414	-25.22377	-80.55333	-67.53461	0
354	-30.10579	-67.53461	-38.24249	48.8202	4.06835	-52.88855	-49.63387	4.88202	36.61515	-25.22377	-85.43535	-65.0936	0
355	-22.78276	-67.53461	-45.56552	43.93818	11.39138	-57.77057	-49.63387	2.44101	36.61515	-25.22377	-95.19939	-65.0936	0
356	-20.34175	-74.85764	-55.32956	46.37919	16.2734	-65.0936	-52.07488	-2.44101	34.17414	-30.10579	-102.52242	-67.53461	0
357	-27.66478	-82.18067	-55.32956	53.70222	13.83239	-69.97562	-56.9569	-5.69569	26.85111	-37.42882	-107.40444	-72.41663	0
358	-32.5468	-84.62168	-52.88855	58.58424	8.95037	-69.97562	-56.9569	-2.44101	21.96909	-39.86983	-107.40444	-74.85764	0
359	-34.98781	-84.62168	-50.44754	58.58424	6.50936	-67.53461	-59.39791	-2.44101	21.96909	-45.56552	-102.52242	-79.73966	0
360	-44.75185	-84.62168	-40.6835	63.46626	-3.25468	-62.65259	-61.83892	-2.44101	21.96909	-45.56552	-97.6404	-82.18067	0
361	-52.07488	-89.5037	-38.24249	70.78929	-8.1367	-65.0936	-61.83892	2.44101	24.4101	-39.86983	-92.75838	-82.18067	0
362	-52.07488	-84.62168	-33.36047	68.34828	-11.39138	-60.21158	-56.9569	12.20505	31.73313	-30.10579	-85.43535	-79.73966	0
363	-44.75185	-74.85764	-30.91946	58.58424	-8.1367	-52.88855	-49.63387	21.96909	39.05616	-20.34175	-80.55333	-74.85764	0
364	-32.5468	-60.21158	-28.47845	46.37919	-3.25468	-45.56552	-42.31084	29.29212	48.8202	-10.57771	-78.11232	-67.53461	0
365	-30.10579	-52.88855	-23.59643	41.49717	-3.25468	-38.24249	-34.98781	39.05616	58.58424	-3.25468	-78.11232	-60.21158	0
366	-30.10579	-50.44754	-21.15542	39.05616	-5.69569	-35.80148	-30.10579	39.05616	61.02525	-3.25468	-75.67131	-55.32956	0
367	-22.78276	-43.12451	-21.15542	31.73313	-0.81367	-33.36047	-30.10579	43.93818	61.02525	-3.25468	-73.2303	-55.32956	0
368	-20.34175	-40.6835	-21.15542	29.29212	-0.81367	-30.91946	-27.66478	48.8202	61.02525	-5.69569	-70.78929	-57.77057	0
369	-22.78276	-43.12451	-21.15542	31.73313	-0.81367	-33.36047	-32.5468	48.8202	56.14323	-10.57771	-70.78929	-62.65259	0
370	-30.10579	-52.88855	-23.59643	41.49717	-3.25468	-38.24249	-39.86983	41.49717	51.26121	-15.45973	-75.67131	-72.41663	0
371	-32.5468	-62.65259	-30.91946	46.37919	-0.81367	-48.00653	-47.19286	34.17414	46.37919	-20.34175	-80.55333	-79.73966	0
372	-30.10579	-67.53461	-38.24249	48.8202	4.06835	-52.88855	-49.63387	31.73313	43.93818	-15.45973	-85.43535	-84.62168	0
373	-32.5468	-79.73966	-48.00653	56.14323	6.50936	-65.0936	-52.07488	36.61515	41.49717	-15.45973	-95.19939	-91.94471	0
374	-37.42882	-91.94471	-55.32956	63.46626	8.95037	-74.85764	-59.39791	43.93818	36.61515	-17.90074	-107.40444	-96.82673	0
375	-37.42882	-101.70875	-65.0936	68.34828	13.83239	-84.62168	-59.39791	53.70222	34.17414	-22.78276	-114.72747	-101.70875	0
376	-34.98781	-106.59077	-72.41663	70.78929	18.71441	-89.5037	-61.83892	63.46626	34.17414	-25.22377	-117.16848	-101.70875	0
377	-37.42882	-109.03178	-72.41663	73.2303	16.2734	-91.94471	-61.83892	73.2303	31.73313	-30.10579	-119.60949	-106.59077	0
378	-30.10579	-104.14976	-74.85764	65.90727	21.15542	-89.5037	-61.83892	85.43535	26.85111	-34.98781	-117.16848	-109.03178	0
379	-20.34175	-94.38572	-74.85764	56.14323	26.03744	-84.62168	-61.83892	97.6404	26.85111	-37.42882	-112.28646	-109.03178	0
380	-15.45973	-84.62168	-69.97562	48.8202	26.03744	-77.29865	-59.39791	97.6404	31.73313	-34.98781	-104.96343	-109.03178	0
381	-10.57771	-77.29865	-67.53461	43.93818	28.47845	-72.41663	-54.51589	97.6404	39.05616	-25.22377	-102.52242	-104.14976	0
382	-13.01872	-74.85764	-62.65259	43.93818	23.59643	-69.97562	-49.63387	100.08141	41.49717	-15.45973	-95.19939	-99.26774	0
383	-20.34175	-74.85764	-55.32956	46.37919	16.2734	-65.0936	-44.75185	102.52242	43.93818	-8.1367	-92.75838	-96.82673	0
384	-30.10579	-74.85764	-45.56552	51.26121	6.50936	-60.21158	-32.5468	104.96343	51.26121	-0.81367	-90.31737	-89.5037	0
385	-47.19286	-84.62168	-38.24249	65.90727	-5.69569	-62.65259	-25.22377	104.96343	56.14323	-0.81367	-92.75838	-89.5037	0
386	-56.9569	-91.94471	-35.80148	73.2303	-11.39138	-65.0936	-20.34175	100.08141	53.70222	-3.25468	-95.19939	-87.06269	0
387	-61.83892	-91.94471	-30.91946	75.67131	-16.2734	-62.65259	-15.45973	97.6404	48.8202	-10.57771	-97.6404	-89.5037	0
388	-61.83892	-87.06269	-26.03744	73.2303	-18.71441	-57.77057	-8.1367	95.19939	43.93818	-17.90074	-97.6404	-91.94471	0
389	-54.51589	-84.62168	-30.91946	68.34828	-13.83239	-57.77057	-3.25468	95.19939	41.49717	-25.22377	-102.52242	-94.38572	0
390	-44.75185	-84.62168	-40.6835	63.46626	-3.25468	-62.65259	-3.25468	87.87636	39.05616	-30.10579	-104.96343	-99.26774	0
391	-37.42882	-84.62168	-48.00653	61.02525	4.06835	-67.53461	-0.81367	85.43535	39.05616	-27.66478	-107.40444	-101.70875	0
392	-27.66478	-82.18067	-55.32956	53.70222	13.83239	-69.97562	1.62734	85.43535	36.61515	-20.34175	-104.96343	-99.26774	0
393	-22.78276	-82.18067	-60.21158	51.26121	18.71441	-72.41663	4.88202	82.99434	36.61515	-15.45973	-104.96343	-101.70875	0
394	-27.66478	-91.94471	-65.0936	58.58424	18.71441	-79.73966	4.88202	78.11232	34.17414	-15.45973	-109.84545	-106.59077	0
395	-30.10579	-96.82673	-67.53461	63.46626	18.71441	-82.18067	7.32303	73.2303	34.17414	-17.90074	-109.84545	-106.59077	0
396	-34.98781	-96.82673	-62.65259	65.90727	13.83239	-79.73966	7.32303	70.78929	34.17414	-22.78276	-109.84545	-109.03178	0
397	-34.98781	-94.38572	-60.21158	63.46626	11.39138	-77.29865	7.32303	68.34828	26.85111	-32.5468	-109.84545	-111.47279	0
398	-44.75185	-99.26774	-55.32956	70.78929	4.06835	-77.29865	7.32303	63.46626	19.52808	-45.56552	-114.72747	-116.35481	0
399	-54.51589	-99.26774	-45.56552	75.67131	-5.69569	-72.41663	7.32303	63.46626	17.08707	-55.32956	-114.72747	-118.79582	0
400	-54.51589	-99.26774	-45.56552	75.67131	-5.69569	-72.41663	7.32303	56.14323	17.08707	-62.65259	-114.72747	-118.79582	0
401	-44.75185	-96.82673	-52.88855	70.78929	4.06835	-74.85764	4.88202	51.26121	14.64606	-62.65259	-114.72747	-121.23683	0
402	-42.31084	-101.70875	-60.21158	70.78929	8.95037	-82.18067	1.62734	43.93818	9.76404	-62.65259	-119.60949	-123.67784	0
403	-49.63387	-109.03178	-60.21158	78.11232	4.06835	-84.62168	1.62734	41.49717	7.32303	-60.21158	-122.0505	-126.11885	0
404	-47.19286	-111.47279	-65.0936	78.11232	8.95037	-89.5037	1.62734	39.05616	7.32303	-60.21158	-124.49151	-131.00087	0
405	-42.31084	-106.59077	-65.0936	73.2303	11.39138	-87.06269	4.88202	36.61515	9.76404	-57.77057	-122.0505	-131.00087	0
406	-47.19286	-99.26774	-52.88855	73.2303	1.62734	-77.29865	7.32303	36.61515	9.76404	-57.77057	-117.16848	-126.11885	0
407	-59.39791	-104.14976	-45.56552	80.55333	-8.1367	-74.85764	7.32303	34.17414	9.76404	-65.0936	-117.16848	-128.55986	0
408	-66.72094	-106.59077	-40.6835	85.43535	-13.83239	-74.85764	7.32303	34.17414	9.76404	-72.41663	-114.72747	-128.55986	0
409	-64.27993	-104.14976	-40.6835	82.99434	-13.83239	-72.41663	7.32303	34.17414	7.32303	-82.18067	-112.28646	-128.55986	0
410	-56.9569	-101.70875	-45.56552	78.11232	-5.69569	-74.85764	9.76404	31.73313	7.32303	-84.62168	-109.84545	-128.55986	0
411	-54.51589	-99.26774	-45.56552	75.67131	-5.69569	-72.41663	12.20505	31.73313	9.76404	-77.29865	-102.52242	-123.67784	0
412	-52.07488	-109.03178	-57.77057	80.55333	1.62734	-84.62168	9.76404	26.85111	4.88202	-74.85764	-102.52242	-126.11885	0
413	-42.31084	-109.03178	-67.53461	75.67131	11.39138	-89.5037	9.76404	21.96909	2.44101	-69.97562	-95.19939	-128.55986	0
414	-32.5468	-109.03178	-77.29865	70.78929	21.15542	-94.38572	12.20505	19.52808	-2.44101	-67.53461	-90.31737	-131.00087	0
415	-25.22377	-106.59077	-82.18067	65.90727	28.47845	-94.38572	12.20505	12.20505	-2.44101	-67.53461	-92.75838	-133.44188	0
416	-20.34175	-106.59077	-87.06269	63.46626	33.36047	-96.82673	14.64606	7.32303	-7.32303	-72.41663	-97.6404	-138.3239	0
417	-20.34175	-111.47279	-91.94471	65.90727	35.80148	-101.70875	17.08707	-2.44101	-14.64606	-82.18067	-104.96343	-143.20592	0
418	-17.90074	-111.47279	-94.38572	63.46626	38.24249	-104.14976	21.96909	-5.69569	-17.08707	-89.5037	-112.28646	-145.64693	0
419	-20.34175	-109.03178	-89.5037	63.46626	33.36047	-99.26774	31.73313	-5.69569	-17.08707	-96.82673	-119.60949	-145.64693	0
420	-25.22377	-109.03178	-84.62168	65.90727	28.47845	-96.82673	39.05616	-5.69569	-17.08707	-99.26774	-126.93252	-145.64693	0
421	-34.98781	-109.03178	-74.85764	70.78929	18.71441	-91.94471	51.26121	-2.44101	-12.20505	-89.5037	-124.49151	-138.3239	0
422	-42.31084	-109.03178	-67.53461	75.67131	11.39138	-89.5037	58.58424	0	-9.76404	-79.73966	-117.16848	-133.44188	0
423	-49.63387	-111.47279	-62.65259	80.55333	6.50936	-87.06269	63.46626	0	-9.76404	-72.41663	-112.28646	-133.44188	0
424	-59.39791	-116.35481	-57.77057	87.87636	-0.81367	-87.06269	63.46626	0	-9.76404	-69.97562	-107.40444	-133.44188	0
425	-66.72094	-121.23683	-55.32956	92.75838	-5.69569	-89.5037	63.46626	-5.69569	-9.76404	-67.53461	-107.40444	-133.44188	0
426	-66.72094	-126.11885	-60.21158	95.19939	-3.25468	-94.38572	63.46626	-5.69569	-9.76404	-69.97562	-107.40444	-135.88289	0
427	-64.27993	-128.55986	-65.0936	95.19939	-0.81367	-96.82673	61.02525	-10.57771	-14.64606	-77.29865	-112.28646	-140.76491	0
428	-61.83892	-131.00087	-69.97562	95.19939	4.06835	-101.70875	58.58424	-15.45973	-21.96909	-84.62168	-119.60949	-145.64693	0
429	-56.9569	-131.00087	-74.85764	92.75838	8.95037	-104.14976	56.14323	-15.45973	-21.96909	-89.5037	-122.0505	-145.64693	0
430	-49.63387	-128.55986	-79.73966	87.87636	13.83239	-104.14976	56.14323	-20.34175	-21.96909	-89.5037	-124.49151	-148.08794	0
431	-32.5468	-121.23683	-89.5037	75.67131	28.47845	-106.59077	56.14323	-22.78276	-21.96909	-89.5037	-126.93252	-148.08794	0
432	-13.01872	-116.35481	-104.14976	63.46626	45.56552	-111.47279	56.14323	-25.22377	-24.4101	-89.5037	-126.93252	-148.08794	0
433	4.88202	-109.03178	-113.9138	51.26121	57.77057	-111.47279	56.14323	-25.22377	-29.29212	-89.5037	-126.93252	-152.96996	0
434	17.08707	-101.70875	-118.79582	41.49717	67.53461	-109.03178	61.02525	-25.22377	-29.29212	-89.5037	-122.0505	-152.96996	0
435	12.20505	-101.70875	-113.9138	43.93818	62.65259	-106.59077	63.46626	-27.66478	-26.85111	-91.94471	-119.60949	-150.52895	0
436	-4.88202	-101.70875	-96.82673	53.70222	45.56552	-99.26774	70.78929	-25.22377	-21.96909	-89.5037	-114.72747	-145.64693	0
437	-20.34175	-101.70875	-82.18067	61.02525	30.91946	-91.94471	75.67131	-22.78276	-19.52808	-84.62168	-112.28646	-143.20592	0
438	-34.98781	-104.14976	-69.97562	68.34828	16.2734	-87.06269	78.11232	-20.34175	-19.52808	-84.62168	-107.40444	-140.76491	0
439	-49.63387	-106.59077	-57.77057	78.11232	4.06835	-82.18067	80.55333	-15.45973	-17.08707	-79.73966	-104.96343	-138.3239	0
440	-54.51589	-106.59077	-52.88855	80.55333	-0.81367	-79.73966	80.55333	-17.90074	-17.08707	-79.73966	-104.96343	-138.3239	0
441	-42.31084	-106.59077	-65.0936	73.2303	11.39138	-87.06269	78.11232	-17.90074	-17.08707	-79.73966	-104.96343	-138.3239	0
442	-27.66478	-106.59077	-79.73966	65.90727	26.03744	-94.38572	75.67131	-22.78276	-19.52808	-84.62168	-107.40444	-140.76491	0
443	-17.90074	-111.47279	-94.38572	63.46626	38.24249	-104.14976	70.78929	-27.66478	-26.85111	-94.38572	-112.28646	-145.64693	0
444	-27.66478	-123.67784	-96.82673	75.67131	33.36047	-111.47279	68.34828	-32.5468	-31.73313	-101.70875	-117.16848	-150.52895	0
445	-32.5468	-128.55986	-96.82673	80.55333	30.91946	-113.9138	68.34828	-34.98781	-31.73313	-101.70875	-117.16848	-150.52895	0
446	-42.31084	-128.55986	-87.06269	85.43535	21.15542	-109.03178	70.78929	-34.98781	-29.29212	-99.26774	-114.72747	-145.64693	0
447	-52.07488	-126.11885	-74.85764	87.87636	11.39138	-101.70875	73.2303	-34.98781	-29.29212	-94.38572	-114.72747	-145.64693	0
448	-56.9569	-126.11885	-69.97562	90.31737	6.50936	-99.26774	73.2303	-39.86983	-31.73313	-94.38572	-114.72747	-145.64693	0
449	-56.9569	-123.67784	-67.53461	90.31737	4.06835	-96.82673	73.2303	-39.86983	-31.73313	-89.5037	-112.28646	-148.08794	0
450	-49.63387	-121.23683	-72.41663	85.43535	11.39138	-96.82673	70.78929	-44.75185	-31.73313	-89.5037	-112.28646	-148.08794	0
451	-30.10579	-111.47279	-82.18067	70.78929	26.03744	-96.82673	68.34828	-47.19286	-31.73313	-91.94471	-114.72747	-148.08794	0
452	-13.01872	-109.03178	-96.82673	61.02525	40.6835	-104.14976	65.90727	-52.07488	-34.17414	-96.82673	-117.16848	-148.08794	0
453	-7.32303	-113.9138	-106.59077	61.02525	48.00653	-109.03178	58.58424	-59.39791	-42.31084	-106.59077	-122.0505	-152.96996	0
454	-2.44101	-113.9138	-111.47279	58.58424	52.88855	-111.47279	58.58424	-61.83892	-42.31084	-109.03178	-119.60949	-150.52895	0
455	-15.45973	-116.35481	-101.70875	65.90727	43.12451	-109.03178	65.90727	-56.9569	-36.61515	-106.59077	-112.28646	-143.20592	0
456	-27.66478	-118.79582	-91.94471	73.2303	30.91946	-106.59077	65.90727	-54.51589	-34.17414	-101.70875	-109.84545	-140.76491	0
457	-34.98781	-113.9138	-79.73966	73.2303	21.15542	-96.82673	70.78929	-49.63387	-29.29212	-96.82673	-104.96343	-135.88289	0
458	-42.31084	-111.47279	-69.97562	75.67131	13.83239	-91.94471	73.2303	-42.31084	-29.29212	-89.5037	-102.52242	-131.00087	0
459	-54.51589	-111.47279	-57.77057	82.99434	1.62734	-84.62168	75.67131	-34.98781	-24.4101	-82.18067	-97.6404	-126.11885	0
460	-61.83892	-106.59077	-45.56552	82.99434	-8.1367	-77.29865	82.99434	-27.66478	-17.08707	-77.29865	-92.75838	-121.23683	0
461	-54.51589	-106.59077	-52.88855	80.55333	-0.81367	-79.73966	78.11232	-25.22377	-19.52808	-79.73966	-97.6404	-123.67784	0
462	-39.86983	-109.03178	-69.97562	73.2303	13.83239	-89.5037	73.2303	-30.10579	-24.4101	-87.06269	-100.08141	-126.11885	0
463	-30.10579	-109.03178	-79.73966	68.34828	23.59643	-94.38572	70.78929	-32.5468	-26.85111	-94.38572	-100.08141	-128.55986	0
464	-27.66478	-118.79582	-91.94471	73.2303	30.91946	-106.59077	68.34828	-37.42882	-31.73313	-104.14976	-102.52242	-135.88289	0
465	-25.22377	-123.67784	-99.26774	73.2303	35.80148	-111.47279	65.90727	-42.31084	-31.73313	-109.03178	-102.52242	-138.3239	0
466	-20.34175	-123.67784	-104.14976	70.78929	40.6835	-113.9138	65.90727	-47.19286	-34.17414	-111.47279	-104.96343	-140.76491	0
467	-22.78276	-128.55986	-106.59077	75.67131	40.6835	-118.79582	61.02525	-54.51589	-39.05616	-111.47279	-107.40444	-145.64693	0
468	-30.10579	-128.55986	-99.26774	78.11232	33.36047	-113.9138	61.02525	-54.51589	-39.05616	-109.03178	-109.84545	-145.64693	0
469	-32.5468	-118.79582	-87.06269	75.67131	26.03744	-104.14976	65.90727	-49.63387	-36.61515	-104.14976	-104.96343	-143.20592	0
470	-27.66478	-109.03178	-82.18067	68.34828	26.03744	-96.82673	70.78929	-49.63387	-29.29212	-99.26774	-104.96343	-140.76491	0
471	-20.34175	-96.82673	-77.29865	58.58424	28.47845	-87.06269	73.2303	-47.19286	-26.85111	-94.38572	-104.96343	-138.3239	0
472	-15.45973	-91.94471	-77.29865	53.70222	30.91946	-84.62168	75.67131	-44.75185	-26.85111	-91.94471	-102.52242	-133.44188	0
473	-15.45973	-91.94471	-77.29865	53.70222	30.91946	-84.62168	78.11232	-44.75185	-26.85111	-91.94471	-102.52242	-133.44188	0
474	-15.45973	-94.38572	-79.73966	53.70222	30.91946	-87.06269	78.11232	-44.75185	-26.85111	-94.38572	-102.52242	-133.44188	0
475	-13.01872	-96.82673	-84.62168	53.70222	35.80148	-91.94471	75.67131	-52.07488	-31.73313	-99.26774	-104.96343	-135.88289	0
476	-13.01872	-104.14976	-91.94471	58.58424	38.24249	-99.26774	73.2303	-59.39791	-36.61515	-106.59077	-107.40444	-138.3239	0
477	-25.22377	-111.47279	-87.06269	68.34828	30.91946	-99.26774	73.2303	-64.27993	-36.61515	-113.9138	-109.84545	-140.76491	0
478	-30.10579	-118.79582	-89.5037	73.2303	28.47845	-104.14976	68.34828	-69.16195	-44.75185	-123.67784	-114.72747	-148.08794	0
479	-20.34175	-121.23683	-101.70875	70.78929	40.6835	-111.47279	63.46626	-74.04397	-49.63387	-133.44188	-119.60949	-155.41097	0
480	-2.44101	-118.79582	-116.35481	61.02525	55.32956	-116.35481	61.02525	-78.92599	-52.07488	-135.88289	-124.49151	-160.29299	0
481	7.32303	-116.35481	-123.67784	53.70222	65.0936	-118.79582	63.46626	-78.92599	-49.63387	-128.55986	-124.49151	-160.29299	0
482	-2.44101	-113.9138	-111.47279	58.58424	52.88855	-111.47279	70.78929	-74.04397	-44.75185	-116.35481	-119.60949	-152.96996	0
483	-7.32303	-111.47279	-104.14976	58.58424	48.00653	-106.59077	75.67131	-69.16195	-42.31084	-104.14976	-114.72747	-150.52895	0
484	-10.57771	-111.47279	-101.70875	61.02525	45.56552	-106.59077	80.55333	-64.27993	-42.31084	-94.38572	-109.84545	-145.64693	0
485	-17.90074	-106.59077	-89.5037	61.02525	35.80148	-99.26774	82.99434	-64.27993	-36.61515	-89.5037	-104.96343	-140.76491	0
486	-25.22377	-99.26774	-74.85764	61.02525	23.59643	-87.06269	87.87636	-59.39791	-29.29212	-87.06269	-97.6404	-135.88289	0
487	-30.10579	-96.82673	-67.53461	63.46626	18.71441	-82.18067	87.87636	-59.39791	-29.29212	-94.38572	-97.6404	-135.88289	0
488	-25.22377	-96.82673	-72.41663	61.02525	23.59643	-84.62168	82.99434	-64.27993	-34.17414	-109.03178	-100.08141	-140.76491	0
489	-20.34175	-94.38572	-74.85764	56.14323	26.03744	-84.62168	78.11232	-69.16195	-39.05616	-123.67784	-104.96343	-148.08794	0
490	-13.01872	-96.82673	-84.62168	53.70222	35.80148	-91.94471	73.2303	-74.04397	-42.31084	-131.00087	-109.84545	-152.96996	0
491	-17.90074	-96.82673	-79.73966	56.14323	30.91946	-89.5037	75.67131	-74.04397	-39.05616	-126.11885	-109.84545	-152.96996	0
492	-25.22377	-99.26774	-74.85764	61.02525	23.59643	-87.06269	75.67131	-71.60296	-39.05616	-111.47279	-109.84545	-150.52895	0
493	-32.5468	-106.59077	-74.85764	68.34828	21.15542	-91.94471	78.11232	-71.60296	-39.05616	-101.70875	-109.84545	-150.52895	0
494	-32.5468	-106.59077	-74.85764	68.34828	21.15542	-91.94471	78.11232	-69.16195	-39.05616	-89.5037	-107.40444	-150.52895	0
495	-34.98781	-106.59077	-72.41663	70.78929	18.71441	-89.5037	80.55333	-69.16195	-36.61515	-84.62168	-104.96343	-150.52895	0
496	-39.86983	-109.03178	-69.97562	73.2303	13.83239	-89.5037	80.55333	-66.72094	-36.61515	-89.5037	-104.96343	-150.52895	0
497	-39.86983	-104.14976	-65.0936	70.78929	11.39138	-84.62168	80.55333	-61.83892	-36.61515	-96.82673	-102.52242	-150.52895	0
498	-39.86983	-104.14976	-65.0936	70.78929	11.39138	-84.62168	80.55333	-56.9569	-39.05616	-113.9138	-104.96343	-155.41097	0
499	-47.19286	-106.59077	-60.21158	75.67131	6.50936	-84.62168	80.55333	-52.07488	-39.05616	-126.11885	-104.96343	-157.85198	0
500	-54.51589	-109.03178	-55.32956	80.55333	-0.81367	-82.18067	80.55333	-47.19286	-36.61515	-131.00087	-104.96343	-155.41097	0
501	-54.51589	-109.03178	-55.32956	80.55333	-0.81367	-82.18067	80.55333	-42.31084	-34.17414	-128.55986	-102.52242	-152.96996	0
502	-47.19286	-104.14976	-57.77057	75.67131	4.06835	-82.18067	82.99434	-34.98781	-31.73313	-116.35481	-102.52242	-148.08794	0
503	-39.86983	-101.70875	-62.65259	70.78929	11.39138	-82.18067	82.99434	-34.98781	-31.73313	-104.14976	-102.52242	-145.64693	0
504	-27.66478	-106.59077	-79.73966	65.90727	26.03744	-94.38572	78.11232	-37.42882	-36.61515	-96.82673	-107.40444	-150.52895	0
505	-22.78276	-109.03178	-87.06269	65.90727	30.91946	-99.26774	73.2303	-42.31084	-39.05616	-91.94471	-109.84545	-152.96996	0
506	-22.78276	-109.03178	-87.06269	65.90727	30.91946	-99.26774	73.2303	-42.31084	-39.05616	-89.5037	-109.84545	-152.96996	0
507	-27.66478	-109.03178	-82.18067	68.34828	26.03744	-96.82673	73.2303	-42.31084	-39.05616	-96.82673	-107.40444	-150.52895	0
508	-34.98781	-109.03178	-74.85764	70.78929	18.71441	-91.94471	73.2303	-44.75185	-42.31084	-111.47279	-109.84545	-152.96996	0
509	-47.19286	-116.35481	-69.97562	80.55333	11.39138	-94.38572	73.2303	-44.75185	-42.31084	-128.55986	-112.28646	-157.85198	0
510	-56.9569	-118.79582	-62.65259	87.87636	1.62734	-91.94471	73.2303	-44.75185	-42.31084	-135.88289	-112.28646	-157.85198	0
511	-59.39791	-121.23683	-62.65259	90.31737	1.62734	-91.94471	73.2303	-44.75185	-42.31084	-138.3239	-114.72747	-157.85198	0
512	-44.75185	-118.79582	-74.85764	80.55333	13.83239	-96.82673	73.2303	-44.75185	-42.31084	-138.3239	-119.60949	-157.85198	0
513	-30.10579	-116.35481	-87.06269	73.2303	28.47845	-101.70875	73.2303	-44.75185	-42.31084	-133.44188	-119.60949	-157.85198	0
514	-22.78276	-116.35481	-94.38572	68.34828	35.80148	-106.59077	75.67131	-44.75185	-42.31084	-126.11885	-119.60949	-157.85198	0
515	-20.34175	-116.35481	-96.82673	68.34828	38.24249	-106.59077	78.11232	-44.75185	-39.05616	-121.23683	-117.16848	-155.41097	0
516	-15.45973	-113.9138	-99.26774	63.46626	40.6835	-106.59077	78.11232	-47.19286	-39.05616	-118.79582	-114.72747	-152.96996	0
517	-20.34175	-109.03178	-89.5037	63.46626	33.36047	-99.26774	82.99434	-44.75185	-34.17414	-113.9138	-107.40444	-148.08794	0
518	-25.22377	-101.70875	-77.29865	63.46626	26.03744	-89.5037	87.87636	-44.75185	-34.17414	-111.47279	-104.96343	-145.64693	0
519	-37.42882	-106.59077	-69.97562	70.78929	16.2734	-89.5037	85.43535	-44.75185	-36.61515	-113.9138	-104.96343	-148.08794	0
520	-34.98781	-109.03178	-74.85764	70.78929	18.71441	-91.94471	82.99434	-49.63387	-39.05616	-116.35481	-107.40444	-150.52895	0
521	-37.42882	-111.47279	-74.85764	73.2303	18.71441	-94.38572	80.55333	-52.07488	-39.05616	-116.35481	-107.40444	-150.52895	0
522	-39.86983	-113.9138	-74.85764	75.67131	16.2734	-94.38572	80.55333	-52.07488	-39.05616	-116.35481	-107.40444	-150.52895	0
523	-32.5468	-111.47279	-79.73966	70.78929	23.59643	-96.82673	78.11232	-54.51589	-42.31084	-121.23683	-109.84545	-152.96996	0
524	-27.66478	-111.47279	-84.62168	68.34828	28.47845	-99.26774	75.67131	-56.9569	-44.75185	-126.11885	-112.28646	-155.41097	0
525	-25.22377	-109.03178	-84.62168	65.90727	28.47845	-96.82673	78.11232	-56.9569	-42.31084	-126.11885	-107.40444	-150.52895	0
526	-22.78276	-104.14976	-82.18067	63.46626	28.47845	-94.38572	78.11232	-56.9569	-39.05616	-123.67784	-102.52242	-148.08794	0
527	-27.66478	-99.26774	-72.41663	63.46626	21.15542	-87.06269	82.99434	-54.51589	-36.61515	-118.79582	-97.6404	-145.64693	0
528	-25.22377	-94.38572	-69.97562	58.58424	21.15542	-82.18067	82.99434	-54.51589	-36.61515	-113.9138	-97.6404	-145.64693	0
529	-27.66478	-91.94471	-65.0936	58.58424	18.71441	-79.73966	82.99434	-54.51589	-36.61515	-111.47279	-97.6404	-148.08794	0
530	-27.66478	-91.94471	-65.0936	58.58424	18.71441	-79.73966	82.99434	-52.07488	-34.17414	-109.03178	-95.19939	-145.64693	0
531	-22.78276	-91.94471	-69.97562	56.14323	23.59643	-82.18067	82.99434	-52.07488	-34.17414	-106.59077	-95.19939	-145.64693	0
532	-13.01872	-87.06269	-74.85764	48.8202	30.91946	-82.18067	82.99434	-52.07488	-34.17414	-106.59077	-97.6404	-145.64693	0
533	-10.57771	-87.06269	-77.29865	48.8202	33.36047	-82.18067	85.43535	-52.07488	-34.17414	-109.03178	-97.6404	-140.76491	0
534	-7.32303	-89.5037	-82.18067	48.8202	35.80148	-84.62168	85.43535	-54.51589	-36.61515	-116.35481	-97.6404	-140.76491	0
535	-2.44101	-89.5037	-87.06269	46.37919	40.6835	-87.06269	82.99434	-56.9569	-36.61515	-118.79582	-97.6404	-135.88289	0
536	-4.88202	-91.94471	-87.06269	48.8202	40.6835	-89.5037	82.99434	-59.39791	-34.17414	-118.79582	-97.6404	-131.00087	0
537	-20.34175	-101.70875	-82.18067	61.02525	30.91946	-91.94471	80.55333	-61.83892	-36.61515	-118.79582	-104.96343	-128.55986	0
538	-34.98781	-109.03178	-74.85764	70.78929	18.71441	-91.94471	75.67131	-64.27993	-39.05616	-118.79582	-114.72747	-128.55986	0
539	-42.31084	-111.47279	-69.97562	75.67131	13.83239	-91.94471	75.67131	-64.27993	-39.05616	-118.79582	-117.16848	-128.55986	0
540	-42.31084	-109.03178	-67.53461	75.67131	11.39138	-89.5037	75.67131	-61.83892	-39.05616	-113.9138	-114.72747	-126.11885	0
541	-44.75185	-106.59077	-62.65259	75.67131	8.95037	-84.62168	78.11232	-59.39791	-34.17414	-109.03178	-109.84545	-121.23683	0
542	-42.31084	-104.14976	-62.65259	73.2303	8.95037	-84.62168	78.11232	-56.9569	-34.17414	-109.03178	-104.96343	-118.79582	0
543	-27.66478	-94.38572	-67.53461	61.02525	18.71441	-82.18067	82.99434	-52.07488	-31.73313	-109.03178	-90.31737	-113.9138	0
544	-17.90074	-84.62168	-67.53461	51.26121	23.59643	-77.29865	85.43535	-49.63387	-29.29212	-111.47279	-78.11232	-111.47279	0
545	-25.22377	-84.62168	-60.21158	53.70222	16.2734	-72.41663	90.31737	-47.19286	-26.85111	-111.47279	-68.34828	-106.59077	0
546	-42.31084	-94.38572	-52.88855	68.34828	4.06835	-74.85764	90.31737	-49.63387	-24.4101	-109.03178	-68.34828	-104.14976	0
547	-54.51589	-101.70875	-48.00653	78.11232	-3.25468	-74.85764	87.87636	-52.07488	-26.85111	-109.03178	-75.67131	-104.14976	0
548	-56.9569	-106.59077	-50.44754	80.55333	-3.25468	-79.73966	82.99434	-56.9569	-31.73313	-109.03178	-87.87636	-106.59077	0
549	-61.83892	-109.03178	-48.00653	85.43535	-8.1367	-79.73966	80.55333	-56.9569	-34.17414	-109.03178	-97.6404	-111.47279	0
550	-61.83892	-111.47279	-50.44754	85.43535	-5.69569	-82.18067	75.67131	-59.39791	-34.17414	-106.59077	-102.52242	-111.47279	0
551	-52.07488	-113.9138	-62.65259	82.99434	4.06835	-89.5037	70.78929	-61.83892	-34.17414	-106.59077	-104.96343	-113.9138	0
552	-32.5468	-113.9138	-82.18067	73.2303	23.59643	-99.26774	65.90727	-61.83892	-36.61515	-111.47279	-107.40444	-116.35481	0
553	-15.45973	-109.03178	-94.38572	61.02525	38.24249	-101.70875	63.46626	-61.83892	-34.17414	-111.47279	-100.08141	-113.9138	0
554	-7.32303	-104.14976	-96.82673	56.14323	43.12451	-99.26774	63.46626	-56.9569	-31.73313	-111.47279	-92.75838	-111.47279	0
555	7.32303	-96.82673	-104.14976	43.93818	55.32956	-99.26774	68.34828	-52.07488	-26.85111	-109.03178	-82.99434	-106.59077	0
556	17.08707	-89.5037	-106.59077	36.61515	60.21158	-96.82673	70.78929	-44.75185	-17.08707	-104.14976	-78.11232	-101.70875	0
557	17.08707	-82.18067	-99.26774	31.73313	57.77057	-89.5037	75.67131	-37.42882	-9.76404	-96.82673	-73.2303	-96.82673	0
558	21.96909	-69.97562	-91.94471	24.4101	55.32956	-79.73966	80.55333	-27.66478	-4.88202	-87.06269	-73.2303	-94.38572	0
559	24.4101	-65.0936	-89.5037	19.52808	55.32956	-77.29865	82.99434	-17.90074	2.44101	-79.73966	-70.78929	-91.94471	0
560	21.96909	-65.0936	-87.06269	21.96909	52.88855	-74.85764	85.43535	-8.1367	9.76404	-74.85764	-68.34828	-91.94471	0
561	9.76404	-77.29865	-87.06269	34.17414	48.00653	-82.18067	85.43535	-5.69569	14.64606	-69.97562	-68.34828	-91.94471	0
562	4.88202	-87.06269	-91.94471	41.49717	48.00653	-89.5037	80.55333	-2.44101	14.64606	-69.97562	-70.78929	-94.38572	0
563	2.44101	-91.94471	-94.38572	43.93818	48.00653	-91.94471	80.55333	0	17.08707	-69.97562	-70.78929	-94.38572	0
564	7.32303	-91.94471	-99.26774	41.49717	52.88855	-94.38572	80.55333	2.44101	17.08707	-72.41663	-68.34828	-91.94471	0
565	12.20505	-89.5037	-101.70875	39.05616	55.32956	-94.38572	80.55333	2.44101	17.08707	-74.85764	-63.46626	-89.5037	0
566	21.96909	-79.73966	-101.70875	29.29212	60.21158	-89.5037	80.55333	0	19.52808	-72.41663	-58.58424	-84.62168	0
567	41.49717	-65.0936	-106.59077	12.20505	72.41663	-84.62168	80.55333	0	19.52808	-67.53461	-53.70222	-79.73966	0
568	48.8202	-57.77057	-106.59077	4.06835	77.29865	-82.18067	80.55333	-5.69569	17.08707	-67.53461	-56.14323	-79.73966	0
569	43.93818	-60.21158	-104.14976	7.32303	72.41663	-82.18067	80.55333	-5.69569	14.64606	-67.53461	-56.14323	-79.73966	0
570	31.73313	-65.0936	-96.82673	17.08707	62.65259	-79.73966	80.55333	-10.57771	12.20505	-67.53461	-56.14323	-79.73966	0
571	14.64606	-74.85764	-89.5037	29.29212	50.44754	-82.18067	78.11232	-15.45973	9.76404	-67.53461	-58.58424	-79.73966	0
572	0	-89.5037	-89.5037	43.93818	43.12451	-89.5037	70.78929	-22.78276	2.44101	-74.85764	-63.46626	-82.18067	0
573	-10.57771	-104.14976	-94.38572	56.14323	40.6835	-99.26774	61.02525	-34.98781	-9.76404	-84.62168	-70.78929	-87.06269	0
574	-10.57771	-101.70875	-91.94471	56.14323	40.6835	-96.82673	58.58424	-39.86983	-14.64606	-89.5037	-73.2303	-84.62168	0
575	-4.88202	-91.94471	-87.06269	48.8202	40.6835	-89.5037	53.70222	-44.75185	-17.08707	-94.38572	-70.78929	-79.73966	0
576	2.44101	-89.5037	-91.94471	43.93818	45.56552	-89.5037	46.37919	-56.9569	-21.96909	-99.26774	-70.78929	-79.73966	0
577	9.76404	-89.5037	-99.26774	39.05616	52.88855	-94.38572	36.61515	-64.27993	-26.85111	-99.26774	-70.78929	-82.18067	0
578	17.08707	-87.06269	-104.14976	34.17414	60.21158	-94.38572	29.29212	-69.16195	-31.73313	-99.26774	-73.2303	-87.06269	0
579	21.96909	-84.62168	-106.59077	31.73313	62.65259	-94.38572	26.85111	-69.16195	-34.17414	-99.26774	-73.2303	-87.06269	0
580	26.85111	-82.18067	-109.03178	26.85111	67.53461	-94.38572	26.85111	-69.16195	-34.17414	-99.26774	-73.2303	-89.5037	0
581	36.61515	-82.18067	-118.79582	21.96909	77.29865	-99.26774	24.4101	-69.16195	-34.17414	-99.26774	-75.67131	-89.5037	0
582	41.49717	-82.18067	-123.67784	19.52808	82.18067	-101.70875	24.4101	-64.27993	-34.17414	-99.26774	-78.11232	-89.5037	0
583	41.49717	-89.5037	-131.00087	24.4101	84.62168	-109.03178	21.96909	-64.27993	-36.61515	-106.59077	-82.99434	-91.94471	0
584	41.49717	-91.94471	-133.44188	24.4101	87.06269	-111.47279	21.96909	-64.27993	-42.31084	-111.47279	-87.87636	-94.38572	0
585	39.05616	-91.94471	-131.00087	26.85111	84.62168	-111.47279	24.4101	-61.83892	-39.05616	-111.47279	-85.43535	-91.94471	0
586	26.85111	-91.94471	-118.79582	31.73313	72.41663	-104.14976	29.29212	-59.39791	-34.17414	-109.03178	-82.99434	-89.5037	0
587	7.32303	-99.26774	-106.59077	46.37919	55.32956	-101.70875	29.29212	-59.39791	-34.17414	-106.59077	-82.99434	-89.5037	0
588	-15.45973	-109.03178	-94.38572	61.02525	38.24249	-101.70875	29.29212	-61.83892	-39.05616	-106.59077	-85.43535	-94.38572	0
589	-22.78276	-109.03178	-87.06269	65.90727	30.91946	-99.26774	31.73313	-59.39791	-39.05616	-101.70875	-85.43535	-96.82673	0
590	-20.34175	-101.70875	-82.18067	61.02525	30.91946	-91.94471	39.05616	-54.51589	-36.61515	-99.26774	-80.55333	-96.82673	0
591	-22.78276	-99.26774	-77.29865	61.02525	26.03744	-89.5037	41.49717	-54.51589	-36.61515	-99.26774	-82.99434	-96.82673	0
592	-20.34175	-99.26774	-79.73966	58.58424	28.47845	-89.5037	41.49717	-56.9569	-42.31084	-106.59077	-90.31737	-99.26774	0
593	-15.45973	-99.26774	-84.62168	56.14323	33.36047	-91.94471	41.49717	-59.39791	-44.75185	-111.47279	-92.75838	-99.26774	0
594	-15.45973	-94.38572	-79.73966	53.70222	30.91946	-87.06269	46.37919	-56.9569	-47.19286	-116.35481	-92.75838	-96.82673	0
595	-22.78276	-94.38572	-72.41663	58.58424	23.59643	-84.62168	48.8202	-56.9569	-44.75185	-118.79582	-90.31737	-94.38572	0
596	-34.98781	-99.26774	-65.0936	65.90727	13.83239	-82.18067	48.8202	-61.83892	-44.75185	-121.23683	-87.87636	-94.38572	0
597	-42.31084	-106.59077	-65.0936	73.2303	11.39138	-87.06269	46.37919	-64.27993	-47.19286	-121.23683	-90.31737	-94.38572	0
598	-44.75185	-109.03178	-65.0936	75.67131	8.95037	-87.06269	41.49717	-66.72094	-52.07488	-121.23683	-92.75838	-99.26774	0
599	-59.39791	-113.9138	-55.32956	85.43535	-3.25468	-84.62168	41.49717	-64.27993	-49.63387	-118.79582	-92.75838	-99.26774	0
600	-64.27993	-116.35481	-52.88855	90.31737	-5.69569	-84.62168	39.05616	-61.83892	-49.63387	-118.79582	-90.31737	-99.26774	0
601	-64.27993	-123.67784	-60.21158	92.75838	-3.25468	-91.94471	34.17414	-64.27993	-49.63387	-118.79582	-95.19939	-104.14976	0
602	-64.27993	-126.11885	-62.65259	95.19939	-0.81367	-94.38572	34.17414	-64.27993	-47.19286	-121.23683	-97.6404	-104.14976	0
603	-59.39791	-121.23683	-62.65259	90.31737	1.62734	-91.94471	34.17414	-61.83892	-47.19286	-123.67784	-100.08141	-104.14976	0
604	-52.07488	-121.23683	-69.97562	85.43535	8.95037	-96.82673	31.73313	-59.39791	-47.19286	-128.55986	-100.08141	-104.14976	0
605	-39.86983	-121.23683	-82.18067	80.55333	21.15542	-101.70875	29.29212	-61.83892	-49.63387	-131.00087	-102.52242	-104.14976	0
606	-25.22377	-123.67784	-99.26774	73.2303	35.80148	-111.47279	21.96909	-69.16195	-54.51589	-138.3239	-107.40444	-109.03178	0
607	-15.45973	-118.79582	-104.14976	65.90727	43.12451	-111.47279	19.52808	-74.04397	-56.9569	-140.76491	-109.84545	-111.47279	0
608	-20.34175	-118.79582	-99.26774	68.34828	38.24249	-109.03178	17.08707	-74.04397	-59.39791	-138.3239	-112.28646	-111.47279	0
609	-37.42882	-121.23683	-84.62168	78.11232	23.59643	-104.14976	17.08707	-69.16195	-59.39791	-135.88289	-109.84545	-111.47279	0
610	-47.19286	-118.79582	-72.41663	82.99434	11.39138	-96.82673	19.52808	-64.27993	-54.51589	-133.44188	-104.96343	-106.59077	0
611	-49.63387	-111.47279	-62.65259	80.55333	6.50936	-87.06269	24.4101	-56.9569	-47.19286	-128.55986	-100.08141	-101.70875	0
612	-54.51589	-106.59077	-52.88855	80.55333	-0.81367	-79.73966	29.29212	-49.63387	-42.31084	-126.11885	-97.6404	-94.38572	0
613	-64.27993	-106.59077	-43.12451	85.43535	-11.39138	-74.85764	34.17414	-44.75185	-39.05616	-126.11885	-92.75838	-89.5037	0
614	-61.83892	-101.70875	-40.6835	80.55333	-11.39138	-72.41663	34.17414	-42.31084	-39.05616	-128.55986	-92.75838	-87.06269	0
615	-49.63387	-99.26774	-50.44754	73.2303	-0.81367	-74.85764	34.17414	-39.86983	-36.61515	-128.55986	-90.31737	-87.06269	0
616	-42.31084	-94.38572	-52.88855	68.34828	4.06835	-74.85764	34.17414	-42.31084	-34.17414	-131.00087	-90.31737	-87.06269	0
617	-52.07488	-99.26774	-48.00653	75.67131	-3.25468	-74.85764	31.73313	-47.19286	-36.61515	-131.00087	-90.31737	-91.94471	0
618	-59.39791	-99.26774	-40.6835	78.11232	-11.39138	-69.97562	29.29212	-47.19286	-39.05616	-128.55986	-92.75838	-94.38572	0
619	-61.83892	-96.82673	-35.80148	78.11232	-13.83239	-67.53461	29.29212	-42.31084	-36.61515	-126.11885	-87.87636	-96.82673	0
620	-59.39791	-94.38572	-35.80148	75.67131	-13.83239	-65.0936	29.29212	-39.86983	-34.17414	-123.67784	-87.87636	-96.82673	0
621	-52.07488	-89.5037	-38.24249	70.78929	-8.1367	-65.0936	29.29212	-39.86983	-31.73313	-123.67784	-87.87636	-96.82673	0
622	-42.31084	-87.06269	-45.56552	63.46626	1.62734	-67.53461	31.73313	-34.98781	-31.73313	-123.67784	-87.87636	-96.82673	0
623	-37.42882	-79.73966	-43.12451	58.58424	1.62734	-62.65259	41.49717	-27.66478	-29.29212	-123.67784	-85.43535	-91.94471	0
624	-42.31084	-72.41663	-30.91946	56.14323	-5.69569	-52.88855	56.14323	-15.45973	-29.29212	-126.11885	-85.43535	-89.5037	0
625	-52.07488	-62.65259	-11.39138	56.14323	-21.15542	-38.24249	75.67131	-5.69569	-29.29212	-131.00087	-87.87636	-89.5037	0
626	-71.60296	-60.21158	10.57771	65.90727	-43.12451	-26.03744	102.52242	7.32303	-34.17414	-143.20592	-95.19939	-91.94471	0
627	-96.01306	-57.77057	38.24249	75.67131	-67.53461	-11.39138	131.81454	26.85111	-42.31084	-155.41097	-107.40444	-99.26774	0
628	-125.30518	-60.21158	65.0936	92.75838	-96.82673	0.81367	165.98868	51.26121	-54.51589	-172.49804	-124.49151	-111.47279	0
629	-159.47932	-67.53461	91.94471	112.28646	-126.11885	11.39138	200.16282	80.55333	-61.83892	-192.02612	-144.01959	-126.11885	0
630	-186.33043	-72.41663	113.9138	129.37353	-150.52895	21.15542	234.33696	117.16848	-64.27993	-209.11319	-161.10666	-140.76491	0
631	-200.97649	-82.18067	118.79582	141.57858	-160.29299	18.71441	270.95211	163.54767	-52.07488	-221.31824	-175.75272	-152.96996	0
632	-213.18154	-91.94471	121.23683	151.34262	-167.61602	13.83239	307.56726	231.89595	-21.96909	-216.43622	-185.51676	-160.29299	0
633	-208.29952	-94.38572	113.9138	151.34262	-162.734	8.95037	341.7414	317.3313	36.61515	-187.1441	-178.19373	-157.85198	0
634	-193.65346	-94.38572	99.26774	144.01959	-148.08794	0.81367	368.59251	419.85372	122.0505	-135.88289	-156.22464	-152.96996	0
635	-149.71528	-89.5037	60.21158	119.60949	-106.59077	-16.2734	385.67958	541.90422	241.65999	-55.32956	-117.16848	-135.88289	0
636	-81.367	-72.41663	8.1367	75.67131	-45.56552	-33.36047	400.32564	688.36482	402.76665	60.21158	-56.14323	-109.03178	0
637	0	-45.56552	-45.56552	21.96909	21.15542	-45.56552	405.20766	849.47148	600.48846	221.31824	32.5468	-62.65259	0
638	95.19939	-4.06835	-99.26774	-44.75185	96.82673	-50.44754	388.12059	1003.25511	822.62037	419.04005	152.15629	1.62734	0
639	205.04484	43.12451	-162.734	-122.86417	184.70309	-60.21158	358.82847	1142.39268	1059.39834	643.61297	296.17588	82.18067	0
640	324.65433	104.14976	-221.31824	-213.18154	272.57945	-57.77057	305.12625	1244.9151	1291.29429	880.39094	459.72355	184.70309	0
641	454.02786	184.70309	-270.13844	-318.14497	362.89682	-43.12451	241.65999	1303.49934	1510.98519	1119.60992	633.03526	304.31258	0
642	576.07836	255.49238	-321.39965	-415.78537	448.33217	-33.36047	161.10666	1303.49934	1693.24727	1346.62385	806.34697	423.92207	0
643	683.4828	306.75359	-377.54288	-493.89769	531.32651	-35.80148	75.67131	1247.35611	1827.50282	1522.37657	947.92555	524.00348	0
644	771.35916	340.92773	-431.2451	-554.92294	602.1158	-45.56552	-0.81367	1164.36177	1908.05615	1626.52633	1043.12494	589.91075	0
645	832.38441	377.54288	-455.6552	-603.74314	643.61297	-38.24249	-64.27993	1044.75228	1937.34827	1685.11057	1109.03221	646.05398	0
646	844.58946	399.51197	-445.89116	-620.83021	646.05398	-23.59643	-108.21811	900.73269	1912.93817	1689.99259	1135.88332	677.78711	0
647	812.85633	397.07096	-416.59904	-603.74314	614.32085	-8.95037	-132.62821	729.86199	1815.29777	1626.52633	1116.35524	675.3461	0
648	734.74401	370.21985	-365.33783	-552.48193	550.85459	3.25468	-142.39225	539.46321	1629.78101	1478.43839	1038.24292	638.73095	0
649	629.78058	345.80975	-284.7845	-486.57466	458.09621	30.91946	-139.95124	327.09534	1364.52459	1256.30648	921.07444	580.14671	0
650	505.28907	333.6047	-172.49804	-418.22638	338.48672	82.18067	-135.06922	80.55333	1034.98824	1002.44144	794.14192	526.44449	0
651	358.82847	304.31258	-55.32956	-330.35002	206.67218	126.11885	-137.51023	-183.88942	661.51371	719.28428	647.68132	460.53722	0
652	227.01393	265.25642	38.24249	-244.91467	94.38572	152.96996	-147.27427	-430.43143	290.48019	423.92207	489.01567	379.98389	0
653	126.93252	233.52329	106.59077	-179.0074	11.39138	170.05703	-161.92033	-635.47627	-36.61515	157.85198	340.11406	301.87157	0
654	51.26121	201.79016	150.52895	-125.30518	-50.44754	177.38006	-183.88942	-786.81889	-298.61689	-67.53461	205.85851	228.64127	0
655	2.44101	174.93905	172.49804	-88.69003	-84.62168	174.93905	-208.29952	-889.34131	-479.25163	-233.52329	100.89508	165.17501	0
656	-25.22377	138.3239	162.734	-56.9569	-94.38572	150.52895	-235.15063	-943.04353	-586.65607	-348.25076	13.01872	104.14976	0
657	-44.75185	96.82673	140.76491	-25.22377	-91.94471	118.79582	-259.56073	-950.36656	-633.03526	-421.48106	-58.58424	45.56552	0
658	-54.51589	57.77057	111.47279	-0.81367	-82.18067	84.62168	-274.20679	-930.83848	-642.7993	-462.97823	-119.60949	-6.50936	-1250	T-0
659	-69.16195	18.71441	87.06269	24.4101	-77.29865	52.88855	-281.52982	-899.10535	-642.7993	-497.15237	-170.8707	-55.32956	0
660	-96.01306	-21.15542	74.85764	58.58424	-87.06269	26.03744	-281.52982	-864.93121	-640.35829	-526.44449	-217.24989	-99.26774	0
661	-122.86417	-52.88855	69.97562	87.87636	-96.82673	8.95037	-274.20679	-828.31606	-630.59425	-543.53156	-248.98302	-131.00087	0
662	-157.03831	-82.18067	74.85764	119.60949	-116.35481	-4.06835	-259.56073	-781.93687	-615.94819	-550.85459	-270.95211	-150.52895	0
663	-183.88942	-96.82673	87.06269	139.13757	-135.88289	-6.50936	-235.15063	-720.91162	-584.21506	-541.09055	-278.27514	-157.85198	0
664	-188.77144	-91.94471	96.82673	139.13757	-143.20592	0.81367	-208.29952	-650.12233	-545.1589	-524.00348	-273.39312	-155.41097	0
665	-181.44841	-82.18067	99.26774	131.81454	-140.76491	8.95037	-181.44841	-579.33304	-496.3387	-497.15237	-261.18807	-145.64693	0
666	-169.24336	-62.65259	106.59077	114.72747	-138.3239	21.15542	-149.71528	-503.66173	-442.63648	-460.53722	-239.21898	-131.00087	0
667	-159.47932	-40.6835	118.79582	100.08141	-140.76491	38.24249	-117.98215	-430.43143	-388.93426	-421.48106	-214.80888	-113.9138	0
668	-144.83326	-11.39138	133.44188	78.11232	-140.76491	60.21158	-88.69003	-359.64214	-340.11406	-379.98389	-190.39878	-96.82673	0
669	-122.86417	21.15542	143.20592	51.26121	-133.44188	82.18067	-61.83892	-293.73487	-293.73487	-345.80975	-163.54767	-79.73966	0
670	-110.65912	43.12451	152.96996	34.17414	-131.00087	96.82673	-42.31084	-242.47366	-257.11972	-316.51763	-144.01959	-62.65259	0
671	-108.21811	52.88855	160.29299	26.85111	-133.44188	106.59077	-30.10579	-205.85851	-230.26861	-294.54854	-126.93252	-52.88855	0
672	-105.7771	50.44754	155.41097	26.85111	-131.00087	101.70875	-25.22377	-179.0074	-215.62255	-284.7845	-122.0505	-48.00653	0
673	-100.89508	43.12451	143.20592	29.29212	-121.23683	91.94471	-22.78276	-164.36134	-208.29952	-279.90248	-119.60949	-45.56552	0
674	-98.45407	33.36047	131.00087	31.73313	-113.9138	82.18067	-25.22377	-152.15629	-208.29952	-279.90248	-119.60949	-45.56552	0
675	-98.45407	23.59643	121.23683	36.61515	-109.03178	72.41663	-25.22377	-147.27427	-205.85851	-279.90248	-119.60949	-45.56552	0
676	-100.89508	18.71441	118.79582	41.49717	-109.03178	67.53461	-25.22377	-142.39225	-203.4175	-279.90248	-119.60949	-43.12451	0
677	-115.54114	13.83239	128.55986	51.26121	-121.23683	69.97562	-22.78276	-132.62821	-198.53548	-272.57945	-114.72747	-40.6835	0
678	-127.74619	18.71441	145.64693	53.70222	-135.88289	82.18067	-15.45973	-125.30518	-193.65346	-267.69743	-112.28646	-35.80148	0
679	-137.51023	23.59643	160.29299	56.14323	-148.08794	91.94471	-10.57771	-117.98215	-193.65346	-262.81541	-107.40444	-35.80148	0
680	-139.95124	30.91946	170.05703	53.70222	-155.41097	99.26774	-8.1367	-113.10013	-191.21245	-260.3744	-102.52242	-30.91946	0
681	-142.39225	35.80148	177.38006	53.70222	-160.29299	106.59077	-5.69569	-110.65912	-188.77144	-257.93339	-97.6404	-28.47845	0
682	-137.51023	40.6835	177.38006	48.8202	-157.85198	109.03178	-3.25468	-105.7771	-188.77144	-255.49238	-95.19939	-26.03744	0
683	-125.30518	48.00653	172.49804	39.05616	-148.08794	109.03178	-3.25468	-105.7771	-188.77144	-253.05137	-92.75838	-23.59643	0
684	-110.65912	55.32956	165.17501	26.85111	-138.3239	109.03178	-5.69569	-103.33609	-191.21245	-257.93339	-92.75838	-23.59643	0
685	-91.13104	57.77057	148.08794	17.08707	-118.79582	101.70875	-8.1367	-105.7771	-193.65346	-260.3744	-92.75838	-23.59643	0
686	-76.48498	65.0936	140.76491	4.06835	-109.03178	101.70875	-10.57771	-108.21811	-196.09447	-262.81541	-92.75838	-23.59643	0
687	-76.48498	69.97562	145.64693	4.06835	-111.47279	106.59077	-10.57771	-108.21811	-198.53548	-262.81541	-90.31737	-18.71441	0
688	-83.80801	67.53461	150.52895	7.32303	-116.35481	109.03178	-10.57771	-108.21811	-200.97649	-262.81541	-90.31737	-18.71441	0
689	-98.45407	65.0936	162.734	17.08707	-131.00087	113.9138	-10.57771	-105.7771	-200.97649	-260.3744	-87.87636	-18.71441	0
690	-110.65912	62.65259	172.49804	24.4101	-140.76491	116.35481	-13.01872	-103.33609	-200.97649	-257.93339	-82.99434	-13.83239	0
691	-120.42316	60.21158	179.82107	29.29212	-150.52895	118.79582	-13.01872	-100.89508	-198.53548	-255.49238	-80.55333	-8.95037	0
692	-142.39225	60.21158	201.79016	41.49717	-172.49804	131.00087	-8.1367	-93.57205	-193.65346	-250.61036	-73.2303	-0.81367	0
693	-149.71528	65.0936	213.99521	41.49717	-182.26208	138.3239	-3.25468	-88.69003	-188.77144	-245.72834	-65.90727	6.50936	0
694	-147.27427	72.41663	218.87723	36.61515	-182.26208	145.64693	-0.81367	-83.80801	-188.77144	-243.28733	-61.02525	13.83239	0
695	-135.06922	82.18067	216.43622	26.85111	-174.93905	148.08794	1.62734	-81.367	-183.88942	-240.84632	-58.58424	18.71441	0
696	-127.74619	87.06269	213.99521	19.52808	-170.05703	150.52895	1.62734	-83.80801	-183.88942	-240.84632	-53.70222	21.15542	0
697	-125.30518	89.5037	213.99521	17.08707	-170.05703	150.52895	-0.81367	-88.69003	-186.33043	-240.84632	-53.70222	23.59643	0
698	-117.98215	94.38572	211.5542	12.20505	-165.17501	152.96996	-5.69569	-93.57205	-193.65346	-243.28733	-56.14323	21.15542	0
699	-113.10013	96.82673	209.11319	7.32303	-160.29299	152.96996	-10.57771	-98.45407	-198.53548	-248.16935	-56.14323	18.71441	0
700	-115.54114	94.38572	209.11319	9.76404	-162.734	150.52895	-15.45973	-105.7771	-205.85851	-253.05137	-56.14323	16.2734	0
701	-120.42316	84.62168	204.23117	17.08707	-162.734	143.20592	-25.22377	-115.54114	-213.18154	-260.3744	-58.58424	13.83239	0
702	-125.30518	79.73966	204.23117	21.96909	-165.17501	140.76491	-30.10579	-122.86417	-220.50457	-265.25642	-61.02525	13.83239	0
703	-125.30518	77.29865	201.79016	24.4101	-162.734	138.3239	-32.5468	-127.74619	-225.38659	-265.25642	-58.58424	18.71441	0
704	-135.06922	77.29865	211.5542	29.29212	-172.49804	143.20592	-32.5468	-127.74619	-227.8276	-265.25642	-56.14323	26.03744	0
705	-144.83326	72.41663	216.43622	36.61515	-179.82107	143.20592	-30.10579	-130.1872	-227.8276	-265.25642	-51.26121	30.91946	0
706	-147.27427	77.29865	223.75925	34.17414	-184.70309	150.52895	-30.10579	-132.62821	-225.38659	-262.81541	-46.37919	38.24249	0
707	-137.51023	94.38572	231.08228	21.96909	-184.70309	162.734	-25.22377	-127.74619	-220.50457	-253.05137	-34.17414	50.44754	0
708	-132.62821	104.14976	235.9643	14.64606	-184.70309	170.05703	-25.22377	-127.74619	-218.06356	-245.72834	-31.73313	55.32956	0
709	-125.30518	111.47279	235.9643	7.32303	-179.82107	172.49804	-27.66478	-130.1872	-220.50457	-245.72834	-26.85111	55.32956	0
710	-115.54114	123.67784	238.40531	-3.25468	-177.38006	179.82107	-27.66478	-130.1872	-220.50457	-243.28733	-24.4101	60.21158	0
711	-96.01306	138.3239	233.52329	-20.34175	-165.17501	184.70309	-30.10579	-130.1872	-215.62255	-238.40531	-16.2734	65.0936	0
712	-78.92599	152.96996	231.08228	-37.42882	-155.41097	192.02612	-30.10579	-127.74619	-213.18154	-233.52329	-8.95037	72.41663	0
713	-71.60296	157.85198	228.64127	-42.31084	-150.52895	192.02612	-30.10579	-130.1872	-213.18154	-231.08228	-6.50936	74.85764	0
714	-81.367	152.96996	233.52329	-34.98781	-157.85198	192.02612	-32.5468	-130.1872	-215.62255	-231.08228	-1.62734	79.73966	0
715	-93.57205	148.08794	240.84632	-27.66478	-167.61602	194.46713	-32.5468	-132.62821	-213.18154	-228.64127	5.69569	87.06269	0
716	-93.57205	148.08794	240.84632	-27.66478	-167.61602	194.46713	-37.42882	-137.51023	-213.18154	-226.20026	10.57771	91.94471	0
717	-91.13104	155.41097	245.72834	-32.5468	-167.61602	199.34915	-39.86983	-139.95124	-213.18154	-223.75925	15.45973	96.82673	0
718	-91.13104	157.85198	248.16935	-32.5468	-170.05703	201.79016	-47.19286	-144.83326	-220.50457	-221.31824	15.45973	96.82673	0
719	-98.45407	162.734	260.3744	-32.5468	-179.82107	211.5542	-52.07488	-147.27427	-220.50457	-218.87723	22.78276	101.70875	0
720	-96.01306	170.05703	265.25642	-37.42882	-179.82107	216.43622	-54.51589	-149.71528	-220.50457	-213.99521	30.10579	109.03178	0
721	-88.69003	184.70309	272.57945	-47.19286	-179.82107	228.64127	-54.51589	-149.71528	-215.62255	-206.67218	39.86983	118.79582	0
722	-78.92599	196.90814	275.02046	-59.39791	-177.38006	235.9643	-54.51589	-147.27427	-213.18154	-199.34915	47.19286	131.00087	0
723	-74.04397	204.23117	277.46147	-64.27993	-174.93905	240.84632	-54.51589	-147.27427	-210.74053	-196.90814	56.9569	140.76491	0
724	-71.60296	204.23117	275.02046	-66.72094	-172.49804	238.40531	-56.9569	-149.71528	-213.18154	-194.46713	61.83892	148.08794	0
725	-64.27993	206.67218	270.13844	-71.60296	-167.61602	238.40531	-61.83892	-154.5973	-213.18154	-192.02612	66.72094	152.96996	0
726	-52.07488	211.5542	262.81541	-78.92599	-157.85198	235.9643	-66.72094	-159.47932	-213.18154	-192.02612	71.60296	157.85198	0
727	-42.31084	226.20026	267.69743	-91.13104	-155.41097	245.72834	-69.16195	-159.47932	-210.74053	-184.70309	81.367	167.61602	0
728	-30.10579	243.28733	272.57945	-105.7771	-150.52895	257.93339	-69.16195	-154.5973	-208.29952	-174.93905	91.13104	174.93905	0
729	-30.10579	255.49238	284.7845	-113.10013	-157.85198	270.13844	-69.16195	-149.71528	-203.4175	-165.17501	103.33609	184.70309	0
730	-34.98781	262.81541	296.98955	-113.10013	-165.17501	279.90248	-69.16195	-147.27427	-196.09447	-152.96996	117.98215	196.90814	0
731	-39.86983	265.25642	304.31258	-113.10013	-172.49804	284.7845	-74.04397	-144.83326	-188.77144	-145.64693	127.74619	209.11319	0
732	-42.31084	272.57945	314.07662	-115.54114	-177.38006	292.10753	-76.48498	-139.95124	-183.88942	-135.88289	139.95124	218.87723	0
733	-42.31084	275.02046	316.51763	-115.54114	-179.82107	294.54854	-78.92599	-139.95124	-181.44841	-128.55986	149.71528	228.64127	0
734	-39.86983	272.57945	311.63561	-115.54114	-174.93905	292.10753	-86.24902	-144.83326	-183.88942	-128.55986	154.5973	233.52329	0
735	-32.5468	270.13844	301.87157	-117.98215	-167.61602	284.7845	-91.13104	-147.27427	-181.44841	-126.11885	161.92033	238.40531	0
736	-22.78276	272.57945	294.54854	-125.30518	-157.85198	282.34349	-98.45407	-152.15629	-181.44841	-121.23683	169.24336	243.28733	0
737	-10.57771	282.34349	292.10753	-135.06922	-150.52895	287.22551	-103.33609	-152.15629	-176.56639	-111.47279	179.0074	253.05137	0
738	0	292.10753	292.10753	-144.83326	-145.64693	292.10753	-105.7771	-152.15629	-174.12538	-101.70875	188.77144	257.93339	0
739	9.76404	299.43056	289.66652	-154.5973	-140.76491	294.54854	-108.21811	-152.15629	-171.68437	-94.38572	198.53548	265.25642	0
740	12.20505	301.87157	289.66652	-157.03831	-138.3239	296.98955	-113.10013	-149.71528	-164.36134	-84.62168	208.29952	272.57945	0
741	17.08707	309.1946	292.10753	-161.92033	-138.3239	301.87157	-115.54114	-147.27427	-157.03831	-74.85764	220.50457	282.34349	0
742	26.85111	318.95864	292.10753	-171.68437	-133.44188	306.75359	-117.98215	-144.83326	-147.27427	-65.0936	232.70962	292.10753	0
743	41.49717	328.72268	287.22551	-183.88942	-123.67784	309.1946	-120.42316	-139.95124	-139.95124	-57.77057	244.91467	301.87157	0
744	46.37919	333.6047	287.22551	-188.77144	-121.23683	311.63561	-120.42316	-132.62821	-132.62821	-48.00653	257.11972	311.63561	0
745	56.14323	336.04571	279.90248	-196.09447	-111.47279	309.1946	-125.30518	-130.1872	-125.30518	-39.86983	266.88376	321.39965	0
746	65.90727	340.92773	275.02046	-203.4175	-104.14976	309.1946	-127.74619	-127.74619	-115.54114	-30.10579	279.08881	328.72268	0
747	68.34828	345.80975	277.46147	-205.85851	-104.14976	311.63561	-130.1872	-125.30518	-105.7771	-20.34175	288.85285	336.04571	0
748	70.78929	348.25076	277.46147	-208.29952	-104.14976	314.07662	-137.51023	-122.86417	-103.33609	-10.57771	293.73487	336.04571	0
749	70.78929	350.69177	279.90248	-210.74053	-104.14976	316.51763	-139.95124	-117.98215	-96.01306	1.62734	301.0579	338.48672	0
750	78.11232	360.45581	282.34349	-218.06356	-101.70875	321.39965	-142.39225	-110.65912	-83.80801	13.83239	313.26295	345.80975	0
751	82.99434	365.33783	282.34349	-222.94558	-99.26774	323.84066	-144.83326	-103.33609	-69.16195	26.03744	323.02699	350.69177	0
752	95.19939	372.66086	277.46147	-232.70962	-91.94471	326.28167	-144.83326	-93.57205	-59.39791	38.24249	335.23204	358.0148	0
753	119.60949	384.86591	265.25642	-252.2377	-72.41663	326.28167	-147.27427	-86.24902	-49.63387	50.44754	344.99608	365.33783	0
754	146.4606	397.07096	250.61036	-271.76578	-52.88855	323.84066	-152.15629	-76.48498	-42.31084	57.77057	352.31911	370.21985	0
755	168.42969	404.39399	235.9643	-286.41184	-33.36047	321.39965	-152.15629	-69.16195	-31.73313	69.97562	362.08315	377.54288	0
756	185.51676	409.27601	223.75925	-296.17588	-18.71441	316.51763	-157.03831	-64.27993	-21.96909	77.29865	369.40618	382.4249	0
757	195.2808	409.27601	213.99521	-301.0579	-8.1367	311.63561	-159.47932	-59.39791	-14.64606	89.5037	374.2882	387.30692	0
758	197.72181	416.59904	218.87723	-305.93992	-11.39138	318.95864	-159.47932	-49.63387	-2.44101	104.14976	381.61123	392.18894	0
759	187.95777	414.15803	226.20026	-301.0579	-18.71441	321.39965	-159.47932	-37.42882	12.20505	118.79582	388.93426	397.07096	0
760	178.19373	406.835	228.64127	-291.29386	-26.03744	318.95864	-159.47932	-30.10579	21.96909	128.55986	396.25729	401.95298	0
761	180.63474	406.835	226.20026	-293.73487	-23.59643	316.51763	-157.03831	-20.34175	36.61515	140.76491	401.13931	406.835	0
762	173.31171	397.07096	223.75925	-283.97083	-26.03744	311.63561	-157.03831	-13.01872	46.37919	150.52895	406.02133	409.27601	0
763	170.8707	389.74793	218.87723	-279.08881	-23.59643	304.31258	-157.03831	-5.69569	58.58424	157.85198	410.90335	414.15803	0
764	183.07575	387.30692	204.23117	-283.97083	-11.39138	296.98955	-157.03831	4.88202	65.90727	165.17501	413.34436	414.15803	0
765	195.2808	382.4249	187.1441	-288.85285	4.06835	284.7845	-159.47932	12.20505	73.2303	170.05703	415.78537	414.15803	0
766	209.92686	379.98389	170.05703	-293.73487	21.15542	275.02046	-161.92033	14.64606	80.55333	174.93905	415.78537	409.27601	0
767	219.6909	377.54288	157.85198	-298.61689	30.91946	267.69743	-166.80235	19.52808	87.87636	179.82107	413.34436	406.835	0
768	234.33696	377.54288	143.20592	-305.93992	45.56552	260.3744	-169.24336	26.85111	95.19939	184.70309	408.46234	399.51197	0
769	256.30605	379.98389	123.67784	-318.14497	67.53461	253.05137	-171.68437	31.73313	100.08141	184.70309	406.02133	389.74793	0
770	278.27514	384.86591	106.59077	-330.35002	87.06269	245.72834	-171.68437	39.05616	107.40444	187.1441	403.58032	384.86591	0
771	280.71615	379.98389	99.26774	-330.35002	91.94471	240.84632	-169.24336	46.37919	117.16848	192.02612	403.58032	382.4249	0
772	275.83413	379.98389	104.14976	-327.90901	87.06269	243.28733	-159.47932	61.02525	134.25555	201.79016	406.02133	384.86591	0
773	273.39312	379.98389	106.59077	-325.468	84.62168	243.28733	-147.27427	78.11232	148.90161	211.5542	410.90335	387.30692	0
774	270.95211	379.98389	109.03178	-325.468	82.18067	245.72834	-135.06922	97.6404	165.98868	221.31824	410.90335	389.74793	0
775	266.07009	379.98389	113.9138	-323.02699	77.29865	248.16935	-120.42316	114.72747	183.07575	231.08228	413.34436	389.74793	0
776	251.42403	367.77884	116.35481	-308.38093	67.53461	243.28733	-110.65912	126.93252	195.2808	235.9643	410.90335	387.30692	0
777	239.21898	358.0148	118.79582	-298.61689	60.21158	238.40531	-103.33609	136.69656	205.04484	240.84632	406.02133	379.98389	0
778	244.101	343.36874	99.26774	-293.73487	72.41663	221.31824	-100.89508	144.01959	209.92686	240.84632	393.81628	365.33783	0
779	251.42403	331.16369	79.73966	-291.29386	87.06269	206.67218	-100.89508	148.90161	209.92686	235.9643	381.61123	348.25076	0
780	248.98302	314.07662	65.0936	-281.52982	91.94471	189.58511	-103.33609	153.78363	212.36787	228.64127	369.40618	331.16369	0
781	239.21898	292.10753	52.88855	-264.44275	94.38572	172.49804	-105.7771	158.66565	214.80888	221.31824	354.76012	311.63561	0
782	234.33696	272.57945	38.24249	-252.2377	99.26774	155.41097	-105.7771	161.10666	214.80888	211.5542	337.67305	294.54854	0
783	231.89595	257.93339	26.03744	-244.91467	104.14976	143.20592	-98.45407	168.42969	217.24989	206.67218	325.468	284.7845	0
784	227.01393	248.16935	21.15542	-237.59164	104.14976	135.88289	-91.13104	180.63474	222.13191	201.79016	310.82194	272.57945	0
785	217.24989	233.52329	16.2734	-225.38659	101.70875	126.11885	-83.80801	185.51676	227.01393	194.46713	296.17588	260.3744	0
786	209.92686	223.75925	13.83239	-215.62255	99.26774	118.79582	-74.04397	190.39878	229.45494	192.02612	281.52982	248.16935	0
787	200.16282	216.43622	16.2734	-208.29952	91.94471	116.35481	-66.72094	197.72181	231.89595	187.1441	269.32477	235.9643	0
788	197.72181	209.11319	10.57771	-203.4175	94.38572	111.47279	-56.9569	205.04484	234.33696	182.26208	257.11972	221.31824	0
789	197.72181	204.23117	5.69569	-200.97649	96.82673	106.59077	-44.75185	214.80888	234.33696	177.38006	247.35568	206.67218	0
790	200.16282	196.90814	-4.06835	-198.53548	101.70875	96.82673	-37.42882	219.6909	234.33696	170.05703	232.70962	192.02612	0
791	200.16282	187.1441	-13.83239	-193.65346	106.59077	87.06269	-27.66478	222.13191	236.77797	160.29299	220.50457	177.38006	0
792	197.72181	170.05703	-28.47845	-183.88942	113.9138	72.41663	-22.78276	224.57292	231.89595	150.52895	200.97649	160.29299	0
793	200.16282	155.41097	-45.56552	-176.56639	123.67784	55.32956	-15.45973	227.01393	227.01393	138.3239	183.88942	145.64693	0
794	195.2808	140.76491	-55.32956	-166.80235	126.11885	43.12451	-5.69569	227.01393	222.13191	126.11885	164.36134	131.00087	0
795	183.07575	126.11885	-57.77057	-154.5973	121.23683	35.80148	1.62734	227.01393	219.6909	113.9138	147.27427	118.79582	0
796	161.10666	104.14976	-57.77057	-132.62821	109.03178	23.59643	4.88202	219.6909	212.36787	101.70875	127.74619	104.14976	0
797	136.69656	87.06269	-50.44754	-110.65912	94.38572	18.71441	9.76404	217.24989	205.04484	94.38572	115.54114	94.38572	0
798	117.16848	74.85764	-43.12451	-96.01306	79.73966	16.2734	14.64606	214.80888	195.2808	84.62168	103.33609	82.18067	0
799	95.19939	57.77057	-38.24249	-76.48498	67.53461	11.39138	17.08707	209.92686	183.07575	69.97562	88.69003	67.53461	0
800	80.55333	45.56552	-35.80148	-61.83892	57.77057	5.69569	19.52808	202.60383	173.31171	55.32956	76.48498	55.32956	0
801	75.67131	35.80148	-40.6835	-54.51589	57.77057	-1.62734	21.96909	197.72181	163.54767	45.56552	66.72094	48.00653	0
802	70.78929	26.03744	-45.56552	-47.19286	57.77057	-8.95037	24.4101	195.2808	153.78363	33.36047	52.07488	38.24249	0
803	78.11232	21.15542	-57.77057	-49.63387	67.53461	-18.71441	26.85111	187.95777	141.57858	18.71441	37.42882	26.03744	0
804	82.99434	11.39138	-72.41663	-47.19286	77.29865	-30.91946	26.85111	180.63474	129.37353	4.06835	17.90074	13.83239	0
805	78.11232	0.81367	-77.29865	-39.86983	77.29865	-38.24249	31.73313	175.75272	122.0505	-8.1367	3.25468	4.06835	0
806	63.46626	-6.50936	-69.97562	-27.66478	65.0936	-38.24249	36.61515	168.42969	114.72747	-17.90074	-11.39138	-3.25468	0
807	43.93818	-18.71441	-62.65259	-13.01872	52.88855	-40.6835	39.05616	163.54767	104.96343	-22.78276	-21.15542	-8.95037	0
808	29.29212	-26.03744	-55.32956	-0.81367	40.6835	-40.6835	41.49717	158.66565	97.6404	-30.10579	-26.85111	-18.71441	0
809	19.52808	-35.80148	-55.32956	7.32303	35.80148	-45.56552	41.49717	151.34262	85.43535	-39.86983	-34.17414	-28.47845	0
810	12.20505	-45.56552	-57.77057	17.08707	33.36047	-50.44754	41.49717	144.01959	75.67131	-48.00653	-41.49717	-38.24249	0
811	7.32303	-48.00653	-55.32956	19.52808	30.91946	-50.44754	41.49717	139.13757	68.34828	-55.32956	-43.93818	-40.6835	0
812	19.52808	-38.24249	-57.77057	9.76404	38.24249	-48.00653	46.37919	136.69656	63.46626	-57.77057	-46.37919	-43.12451	0
813	34.17414	-26.03744	-60.21158	-3.25468	45.56552	-43.12451	53.70222	136.69656	63.46626	-60.21158	-46.37919	-40.6835	0
814	39.05616	-21.15542	-60.21158	-8.1367	48.00653	-40.6835	56.14323	136.69656	56.14323	-65.0936	-53.70222	-43.12451	0
815	31.73313	-26.03744	-57.77057	-3.25468	43.12451	-40.6835	58.58424	134.25555	51.26121	-69.97562	-58.58424	-43.12451	0
816	21.96909	-26.03744	-48.00653	1.62734	33.36047	-35.80148	63.46626	129.37353	48.8202	-72.41663	-61.02525	-43.12451	0
817	4.88202	-33.36047	-38.24249	14.64606	21.15542	-35.80148	63.46626	124.49151	41.49717	-77.29865	-65.90727	-43.12451	0
818	-10.57771	-48.00653	-38.24249	29.29212	13.83239	-43.12451	61.02525	114.72747	31.73313	-84.62168	-73.2303	-50.44754	0
819	-22.78276	-57.77057	-35.80148	39.05616	6.50936	-48.00653	58.58424	109.84545	21.96909	-91.94471	-73.2303	-57.77057	0
820	-25.22377	-67.53461	-43.12451	46.37919	8.95037	-55.32956	53.70222	102.52242	14.64606	-99.26774	-78.11232	-65.0936	0
821	-25.22377	-74.85764	-50.44754	48.8202	11.39138	-62.65259	48.8202	95.19939	9.76404	-106.59077	-80.55333	-69.97562	0
822	-17.90074	-82.18067	-65.0936	48.8202	23.59643	-74.85764	46.37919	90.31737	4.88202	-109.03178	-87.87636	-74.85764	0
823	-10.57771	-84.62168	-74.85764	46.37919	30.91946	-79.73966	46.37919	85.43535	2.44101	-113.9138	-92.75838	-77.29865	0
824	-2.44101	-79.73966	-77.29865	41.49717	35.80148	-77.29865	48.8202	85.43535	2.44101	-113.9138	-95.19939	-77.29865	0
825	-2.44101	-79.73966	-77.29865	41.49717	35.80148	-77.29865	48.8202	82.99434	2.44101	-113.9138	-100.08141	-77.29865	0
826	-10.57771	-87.06269	-77.29865	48.8202	33.36047	-82.18067	48.8202	75.67131	0	-118.79582	-104.96343	-79.73966	0
827	-22.78276	-89.5037	-67.53461	56.14323	21.15542	-79.73966	48.8202	70.78929	0	-118.79582	-104.96343	-82.18067	0
828	-32.5468	-79.73966	-48.00653	56.14323	6.50936	-65.0936	51.26121	73.2303	0	-116.35481	-102.52242	-79.73966	0
829	-42.31084	-72.41663	-30.91946	56.14323	-5.69569	-52.88855	56.14323	78.11232	0	-111.47279	-95.19939	-74.85764	0
830	-52.07488	-72.41663	-21.15542	61.02525	-16.2734	-48.00653	56.14323	78.11232	0	-111.47279	-90.31737	-74.85764	0
831	-47.19286	-69.97562	-23.59643	58.58424	-13.83239	-48.00653	56.14323	78.11232	2.44101	-111.47279	-87.87636	-74.85764	0
832	-37.42882	-62.65259	-26.03744	48.8202	-5.69569	-45.56552	58.58424	85.43535	4.88202	-109.03178	-85.43535	-72.41663	0
833	-32.5468	-62.65259	-30.91946	46.37919	-0.81367	-48.00653	58.58424	85.43535	2.44101	-111.47279	-87.87636	-72.41663	0
834	-30.10579	-74.85764	-45.56552	51.26121	6.50936	-60.21158	48.8202	80.55333	-4.88202	-118.79582	-100.08141	-79.73966	0
835	-22.78276	-79.73966	-57.77057	51.26121	16.2734	-69.97562	43.93818	73.2303	-9.76404	-123.67784	-107.40444	-84.62168	0
836	-17.90074	-87.06269	-69.97562	51.26121	26.03744	-79.73966	39.05616	65.90727	-14.64606	-128.55986	-114.72747	-89.5037	0
837	-17.90074	-89.5037	-72.41663	53.70222	26.03744	-82.18067	36.61515	63.46626	-17.08707	-128.55986	-114.72747	-89.5037	0
838	-17.90074	-91.94471	-74.85764	53.70222	28.47845	-84.62168	34.17414	61.02525	-21.96909	-128.55986	-112.28646	-91.94471	0
839	-17.90074	-96.82673	-79.73966	56.14323	30.91946	-89.5037	29.29212	58.58424	-24.4101	-128.55986	-107.40444	-91.94471	0
840	-10.57771	-89.5037	-79.73966	48.8202	33.36047	-84.62168	31.73313	61.02525	-21.96909	-126.11885	-97.6404	-89.5037	0
841	-10.57771	-82.18067	-72.41663	46.37919	30.91946	-77.29865	39.05616	65.90727	-14.64606	-121.23683	-90.31737	-82.18067	0
842	-10.57771	-74.85764	-65.0936	41.49717	26.03744	-69.97562	46.37919	73.2303	-7.32303	-116.35481	-82.99434	-77.29865	0
843	-2.44101	-62.65259	-60.21158	31.73313	28.47845	-60.21158	51.26121	78.11232	-4.88202	-113.9138	-80.55333	-72.41663	0
844	-2.44101	-60.21158	-57.77057	31.73313	26.03744	-57.77057	51.26121	80.55333	-4.88202	-113.9138	-87.87636	-72.41663	0
845	-7.32303	-65.0936	-57.77057	36.61515	23.59643	-60.21158	51.26121	80.55333	-4.88202	-113.9138	-92.75838	-74.85764	0
846	-17.90074	-69.97562	-52.88855	43.93818	16.2734	-62.65259	51.26121	80.55333	-2.44101	-113.9138	-92.75838	-74.85764	0
847	-27.66478	-72.41663	-45.56552	48.8202	8.95037	-60.21158	51.26121	78.11232	-2.44101	-111.47279	-92.75838	-74.85764	0
848	-39.86983	-82.18067	-43.12451	61.02525	1.62734	-62.65259	48.8202	75.67131	-7.32303	-111.47279	-90.31737	-79.73966	0
849	-56.9569	-99.26774	-43.12451	78.11232	-8.1367	-72.41663	43.93818	70.78929	-12.20505	-116.35481	-87.87636	-87.06269	0
850	-64.27993	-109.03178	-45.56552	85.43535	-11.39138	-77.29865	41.49717	70.78929	-12.20505	-118.79582	-85.43535	-87.06269	0
851	-64.27993	-113.9138	-50.44754	87.87636	-8.1367	-82.18067	41.49717	70.78929	-9.76404	-118.79582	-82.99434	-87.06269	0
852	-49.63387	-109.03178	-60.21158	78.11232	4.06835	-84.62168	41.49717	75.67131	-7.32303	-116.35481	-82.99434	-87.06269	0
853	-32.5468	-101.70875	-69.97562	65.90727	18.71441	-87.06269	41.49717	75.67131	-7.32303	-113.9138	-90.31737	-87.06269	0
854	-20.34175	-96.82673	-77.29865	58.58424	28.47845	-87.06269	41.49717	80.55333	-7.32303	-116.35481	-100.08141	-87.06269	0
855	-15.45973	-89.5037	-74.85764	51.26121	28.47845	-82.18067	46.37919	82.99434	-2.44101	-113.9138	-102.52242	-82.18067	0
856	-15.45973	-79.73966	-65.0936	46.37919	23.59643	-72.41663	51.26121	90.31737	4.88202	-106.59077	-100.08141	-77.29865	0
857	-27.66478	-74.85764	-48.00653	51.26121	8.95037	-62.65259	53.70222	92.75838	7.32303	-99.26774	-95.19939	-74.85764	0
858	-37.42882	-72.41663	-35.80148	53.70222	-0.81367	-55.32956	53.70222	95.19939	7.32303	-94.38572	-90.31737	-72.41663	0
859	-56.9569	-72.41663	-16.2734	63.46626	-21.15542	-45.56552	56.14323	102.52242	9.76404	-89.5037	-78.11232	-72.41663	0
860	-69.16195	-69.97562	-1.62734	68.34828	-35.80148	-35.80148	58.58424	107.40444	14.64606	-84.62168	-63.46626	-67.53461	0
861	-69.16195	-67.53461	0.81367	68.34828	-35.80148	-33.36047	61.02525	107.40444	17.08707	-82.18067	-61.02525	-67.53461	0
862	-66.72094	-72.41663	-6.50936	68.34828	-30.91946	-40.6835	58.58424	107.40444	12.20505	-84.62168	-65.90727	-72.41663	0
863	-56.9569	-74.85764	-18.71441	65.90727	-21.15542	-48.00653	53.70222	104.96343	9.76404	-89.5037	-78.11232	-74.85764	0
864	-39.86983	-67.53461	-28.47845	53.70222	-5.69569	-48.00653	56.14323	109.84545	12.20505	-89.5037	-87.87636	-74.85764	0
865	-17.90074	-62.65259	-45.56552	39.05616	13.83239	-55.32956	58.58424	112.28646	14.64606	-89.5037	-97.6404	-74.85764	0
866	-7.32303	-62.65259	-55.32956	34.17414	23.59643	-57.77057	58.58424	109.84545	14.64606	-91.94471	-107.40444	-79.73966	0
867	0	-65.0936	-65.0936	31.73313	30.91946	-65.0936	56.14323	107.40444	14.64606	-91.94471	-109.84545	-79.73966	0
868	2.44101	-65.0936	-67.53461	31.73313	33.36047	-65.0936	56.14323	107.40444	14.64606	-89.5037	-107.40444	-84.62168	0
869	4.88202	-65.0936	-69.97562	29.29212	35.80148	-67.53461	56.14323	107.40444	12.20505	-89.5037	-97.6404	-87.06269	0
870	0	-72.41663	-72.41663	36.61515	35.80148	-72.41663	56.14323	107.40444	12.20505	-87.06269	-90.31737	-89.5037	0
871	-15.45973	-84.62168	-69.97562	48.8202	26.03744	-77.29865	53.70222	104.96343	12.20505	-87.06269	-87.87636	-91.94471	0
872	-27.66478	-96.82673	-69.97562	61.02525	21.15542	-84.62168	51.26121	102.52242	12.20505	-87.06269	-90.31737	-94.38572	0
873	-37.42882	-104.14976	-67.53461	70.78929	13.83239	-87.06269	51.26121	102.52242	12.20505	-84.62168	-97.6404	-94.38572	0
874	-42.31084	-101.70875	-60.21158	70.78929	8.95037	-82.18067	56.14323	107.40444	14.64606	-82.18067	-107.40444	-91.94471	0
875	-52.07488	-99.26774	-48.00653	75.67131	-3.25468	-74.85764	63.46626	109.84545	19.52808	-77.29865	-112.28646	-87.06269	0
876	-61.83892	-101.70875	-40.6835	80.55333	-11.39138	-72.41663	65.90727	109.84545	21.96909	-74.85764	-114.72747	-84.62168	0
877	-61.83892	-96.82673	-35.80148	78.11232	-13.83239	-67.53461	65.90727	107.40444	19.52808	-74.85764	-114.72747	-84.62168	0
878	-54.51589	-91.94471	-38.24249	73.2303	-8.1367	-65.0936	63.46626	104.96343	14.64606	-74.85764	-109.84545	-87.06269	0
879	-56.9569	-91.94471	-35.80148	73.2303	-11.39138	-65.0936	58.58424	104.96343	9.76404	-77.29865	-100.08141	-89.5037	0
880	-71.60296	-106.59077	-35.80148	87.87636	-18.71441	-72.41663	48.8202	97.6404	2.44101	-84.62168	-95.19939	-96.82673	0
881	-71.60296	-111.47279	-40.6835	90.31737	-16.2734	-77.29865	43.93818	95.19939	0	-87.06269	-95.19939	-99.26774	0
882	-64.27993	-104.14976	-40.6835	82.99434	-13.83239	-72.41663	46.37919	97.6404	0	-87.06269	-92.75838	-96.82673	0
883	-69.16195	-104.14976	-35.80148	85.43535	-18.71441	-69.97562	51.26121	104.96343	4.88202	-82.18067	-95.19939	-94.38572	0
884	-71.60296	-101.70875	-30.91946	85.43535	-21.15542	-67.53461	53.70222	107.40444	7.32303	-82.18067	-104.96343	-94.38572	0
885	-76.48498	-99.26774	-23.59643	87.87636	-28.47845	-62.65259	58.58424	107.40444	14.64606	-74.85764	-109.84545	-91.94471	0
886	-64.27993	-87.06269	-23.59643	75.67131	-21.15542	-55.32956	68.34828	109.84545	19.52808	-65.0936	-107.40444	-87.06269	0
887	-52.07488	-82.18067	-30.91946	65.90727	-11.39138	-57.77057	73.2303	107.40444	19.52808	-60.21158	-102.52242	-84.62168	0
888	-52.07488	-87.06269	-35.80148	68.34828	-8.1367	-62.65259	73.2303	102.52242	12.20505	-60.21158	-95.19939	-87.06269	0
889	-42.31084	-87.06269	-45.56552	63.46626	1.62734	-67.53461	68.34828	95.19939	4.88202	-65.0936	-87.87636	-89.5037	0
890	-37.42882	-96.82673	-60.21158	65.90727	11.39138	-79.73966	63.46626	90.31737	-2.44101	-72.41663	-82.99434	-91.94471	0
891	-32.5468	-104.14976	-72.41663	68.34828	18.71441	-89.5037	61.02525	85.43535	-7.32303	-77.29865	-82.99434	-96.82673	0
892	-22.78276	-109.03178	-87.06269	65.90727	30.91946	-99.26774	56.14323	80.55333	-12.20505	-87.06269	-92.75838	-104.14976	0
893	-15.45973	-109.03178	-94.38572	61.02525	38.24249	-101.70875	53.70222	78.11232	-17.08707	-96.82673	-107.40444	-109.03178	0
894	-20.34175	-109.03178	-89.5037	63.46626	33.36047	-99.26774	53.70222	82.99434	-17.08707	-99.26774	-122.0505	-109.03178	0
895	-32.5468	-109.03178	-77.29865	70.78929	21.15542	-94.38572	58.58424	82.99434	-9.76404	-96.82673	-129.37353	-106.59077	0
896	-42.31084	-109.03178	-67.53461	75.67131	11.39138	-89.5037	63.46626	82.99434	-4.88202	-89.5037	-129.37353	-101.70875	0
897	-54.51589	-101.70875	-48.00653	78.11232	-3.25468	-74.85764	70.78929	82.99434	-2.44101	-79.73966	-119.60949	-96.82673	0
898	-66.72094	-99.26774	-33.36047	82.99434	-18.71441	-67.53461	78.11232	82.99434	0	-69.97562	-102.52242	-87.06269	0
899	-86.24902	-96.82673	-11.39138	90.31737	-38.24249	-55.32956	85.43535	82.99434	4.88202	-60.21158	-82.99434	-77.29865	0
900	-93.57205	-96.82673	-4.06835	95.19939	-45.56552	-50.44754	87.87636	78.11232	7.32303	-55.32956	-68.34828	-72.41663	0
901	-88.69003	-96.82673	-8.95037	92.75838	-40.6835	-52.88855	85.43535	73.2303	2.44101	-57.77057	-68.34828	-74.85764	0
902	-83.80801	-99.26774	-16.2734	90.31737	-35.80148	-57.77057	80.55333	70.78929	-2.44101	-65.0936	-73.2303	-82.18067	0
903	-81.367	-101.70875	-21.15542	90.31737	-30.91946	-62.65259	75.67131	68.34828	-7.32303	-74.85764	-85.43535	-87.06269	0
904	-83.80801	-106.59077	-23.59643	95.19939	-30.91946	-65.0936	70.78929	65.90727	-12.20505	-84.62168	-102.52242	-91.94471	0
905	-74.04397	-111.47279	-38.24249	92.75838	-18.71441	-74.85764	63.46626	58.58424	-17.08707	-89.5037	-117.16848	-96.82673	0
906	-61.83892	-111.47279	-50.44754	85.43535	-5.69569	-82.18067	56.14323	51.26121	-26.85111	-91.94471	-126.93252	-101.70875	0
907	-49.63387	-111.47279	-62.65259	80.55333	6.50936	-87.06269	53.70222	46.37919	-31.73313	-91.94471	-124.49151	-101.70875	0
908	-42.31084	-111.47279	-69.97562	75.67131	13.83239	-91.94471	51.26121	41.49717	-34.17414	-87.06269	-112.28646	-99.26774	0
909	-32.5468	-109.03178	-77.29865	70.78929	21.15542	-94.38572	46.37919	34.17414	-36.61515	-84.62168	-102.52242	-96.82673	0
910	-20.34175	-104.14976	-84.62168	61.02525	30.91946	-94.38572	43.93818	29.29212	-36.61515	-82.18067	-95.19939	-94.38572	0
911	-15.45973	-101.70875	-87.06269	58.58424	35.80148	-94.38572	41.49717	26.85111	-39.05616	-82.18067	-90.31737	-94.38572	0
912	-25.22377	-104.14976	-79.73966	63.46626	26.03744	-91.94471	43.93818	29.29212	-39.05616	-82.18067	-90.31737	-96.82673	0
913	-44.75185	-111.47279	-67.53461	78.11232	11.39138	-89.5037	46.37919	29.29212	-39.05616	-87.06269	-100.08141	-99.26774	0
914	-52.07488	-113.9138	-62.65259	82.99434	4.06835	-89.5037	46.37919	31.73313	-39.05616	-89.5037	-114.72747	-101.70875	0
915	-52.07488	-116.35481	-65.0936	82.99434	6.50936	-91.94471	48.8202	31.73313	-34.17414	-89.5037	-124.49151	-101.70875	0
916	-56.9569	-121.23683	-65.0936	87.87636	4.06835	-94.38572	48.8202	31.73313	-34.17414	-84.62168	-124.49151	-99.26774	0
917	-59.39791	-128.55986	-69.97562	92.75838	4.06835	-99.26774	48.8202	29.29212	-34.17414	-82.18067	-119.60949	-99.26774	0
918	-54.51589	-126.11885	-72.41663	90.31737	8.95037	-99.26774	48.8202	24.4101	-39.05616	-77.29865	-107.40444	-94.38572	0
919	-39.86983	-118.79582	-79.73966	78.11232	18.71441	-99.26774	46.37919	21.96909	-39.05616	-74.85764	-92.75838	-89.5037	0
920	-27.66478	-109.03178	-82.18067	68.34828	26.03744	-96.82673	46.37919	17.08707	-39.05616	-69.97562	-78.11232	-84.62168	0
921	-25.22377	-106.59077	-82.18067	65.90727	28.47845	-94.38572	41.49717	14.64606	-39.05616	-67.53461	-73.2303	-82.18067	0
922	-27.66478	-106.59077	-79.73966	65.90727	26.03744	-94.38572	39.05616	14.64606	-39.05616	-67.53461	-73.2303	-82.18067	0
923	-34.98781	-104.14976	-69.97562	68.34828	16.2734	-87.06269	39.05616	17.08707	-39.05616	-67.53461	-78.11232	-77.29865	0
924	-42.31084	-106.59077	-65.0936	73.2303	11.39138	-87.06269	39.05616	17.08707	-39.05616	-67.53461	-92.75838	-77.29865	0
925	-49.63387	-109.03178	-60.21158	78.11232	4.06835	-84.62168	43.93818	17.08707	-36.61515	-65.0936	-102.52242	-74.85764	0
926	-56.9569	-116.35481	-60.21158	85.43535	1.62734	-89.5037	43.93818	14.64606	-39.05616	-65.0936	-107.40444	-74.85764	0
927	-66.72094	-126.11885	-60.21158	95.19939	-3.25468	-94.38572	43.93818	9.76404	-42.31084	-65.0936	-107.40444	-77.29865	0
928	-66.72094	-126.11885	-60.21158	95.19939	-3.25468	-94.38572	43.93818	7.32303	-42.31084	-60.21158	-92.75838	-77.29865	0
929	-64.27993	-126.11885	-62.65259	95.19939	-0.81367	-94.38572	43.93818	2.44101	-44.75185	-62.65259	-82.99434	-77.29865	0
930	-59.39791	-126.11885	-67.53461	92.75838	4.06835	-96.82673	41.49717	-2.44101	-47.19286	-62.65259	-73.2303	-77.29865	0
931	-54.51589	-123.67784	-69.97562	87.87636	6.50936	-96.82673	39.05616	-5.69569	-52.07488	-62.65259	-70.78929	-79.73966	0
932	-49.63387	-121.23683	-72.41663	85.43535	11.39138	-96.82673	31.73313	-5.69569	-54.51589	-67.53461	-78.11232	-84.62168	0
933	-42.31084	-109.03178	-67.53461	75.67131	11.39138	-89.5037	31.73313	-2.44101	-54.51589	-69.97562	-85.43535	-82.18067	0
934	-42.31084	-106.59077	-65.0936	73.2303	11.39138	-87.06269	34.17414	-2.44101	-54.51589	-72.41663	-102.52242	-82.18067	0
935	-42.31084	-109.03178	-67.53461	75.67131	11.39138	-89.5037	29.29212	-5.69569	-54.51589	-74.85764	-117.16848	-82.18067	0
936	-30.10579	-101.70875	-72.41663	65.90727	21.15542	-87.06269	29.29212	-5.69569	-54.51589	-72.41663	-119.60949	-79.73966	0
937	-22.78276	-99.26774	-77.29865	61.02525	26.03744	-89.5037	29.29212	-10.57771	-56.9569	-72.41663	-117.16848	-79.73966	0
938	-20.34175	-94.38572	-74.85764	56.14323	26.03744	-84.62168	29.29212	-10.57771	-56.9569	-65.0936	-102.52242	-72.41663	0
939	-22.78276	-96.82673	-74.85764	58.58424	26.03744	-87.06269	29.29212	-15.45973	-56.9569	-65.0936	-87.87636	-67.53461	0
940	-25.22377	-101.70875	-77.29865	63.46626	26.03744	-89.5037	24.4101	-22.78276	-59.39791	-65.0936	-75.67131	-67.53461	0
941	-17.90074	-96.82673	-79.73966	56.14323	30.91946	-89.5037	24.4101	-22.78276	-59.39791	-62.65259	-68.34828	-67.53461	0
942	-17.90074	-91.94471	-74.85764	53.70222	28.47845	-84.62168	21.96909	-22.78276	-59.39791	-67.53461	-73.2303	-72.41663	0
943	-22.78276	-91.94471	-69.97562	56.14323	23.59643	-82.18067	21.96909	-20.34175	-56.9569	-72.41663	-85.43535	-77.29865	0
944	-37.42882	-94.38572	-57.77057	65.90727	8.95037	-77.29865	24.4101	-17.90074	-54.51589	-74.85764	-102.52242	-79.73966	0
945	-44.75185	-96.82673	-52.88855	70.78929	4.06835	-74.85764	26.85111	-17.90074	-49.63387	-74.85764	-117.16848	-82.18067	0
946	-49.63387	-104.14976	-55.32956	75.67131	1.62734	-79.73966	26.85111	-17.90074	-49.63387	-72.41663	-124.49151	-82.18067	0
947	-54.51589	-111.47279	-57.77057	82.99434	1.62734	-84.62168	26.85111	-20.34175	-52.07488	-69.97562	-122.0505	-84.62168	0
948	-59.39791	-116.35481	-57.77057	87.87636	-0.81367	-87.06269	29.29212	-20.34175	-52.07488	-62.65259	-104.96343	-79.73966	0
949	-64.27993	-118.79582	-55.32956	90.31737	-5.69569	-87.06269	34.17414	-20.34175	-47.19286	-52.88855	-82.99434	-69.97562	0
950	-64.27993	-121.23683	-57.77057	92.75838	-3.25468	-89.5037	34.17414	-20.34175	-47.19286	-48.00653	-65.90727	-65.0936	0
951	-64.27993	-118.79582	-55.32956	90.31737	-5.69569	-87.06269	36.61515	-20.34175	-44.75185	-45.56552	-53.70222	-60.21158	0
952	-66.72094	-118.79582	-52.88855	92.75838	-8.1367	-87.06269	36.61515	-17.90074	-44.75185	-45.56552	-51.26121	-57.77057	0
953	-71.60296	-116.35481	-45.56552	92.75838	-13.83239	-82.18067	36.61515	-17.90074	-44.75185	-52.88855	-63.46626	-57.77057	0
954	-69.16195	-109.03178	-40.6835	87.87636	-16.2734	-74.85764	39.05616	-15.45973	-42.31084	-57.77057	-78.11232	-57.77057	0
955	-64.27993	-111.47279	-48.00653	87.87636	-8.1367	-79.73966	36.61515	-20.34175	-42.31084	-60.21158	-97.6404	-57.77057	0
956	-49.63387	-111.47279	-62.65259	80.55333	6.50936	-87.06269	31.73313	-25.22377	-47.19286	-62.65259	-109.84545	-62.65259	0
957	-37.42882	-113.9138	-77.29865	75.67131	18.71441	-96.82673	24.4101	-34.98781	-54.51589	-65.0936	-112.28646	-67.53461	0
958	-27.66478	-113.9138	-87.06269	70.78929	28.47845	-101.70875	24.4101	-39.86983	-59.39791	-62.65259	-104.96343	-69.97562	0
959	-13.01872	-104.14976	-91.94471	58.58424	38.24249	-99.26774	24.4101	-39.86983	-56.9569	-60.21158	-87.87636	-65.0936	0
960	-10.57771	-99.26774	-89.5037	53.70222	38.24249	-94.38572	26.85111	-42.31084	-54.51589	-55.32956	-70.78929	-62.65259	0
961	-17.90074	-99.26774	-82.18067	58.58424	30.91946	-91.94471	26.85111	-42.31084	-54.51589	-55.32956	-65.90727	-65.0936	0
962	-32.5468	-104.14976	-72.41663	68.34828	18.71441	-89.5037	24.4101	-39.86983	-56.9569	-60.21158	-68.34828	-67.53461	0
963	-44.75185	-101.70875	-57.77057	73.2303	6.50936	-79.73966	26.85111	-37.42882	-56.9569	-65.0936	-80.55333	-69.97562	0
964	-44.75185	-99.26774	-55.32956	70.78929	4.06835	-77.29865	26.85111	-34.98781	-54.51589	-69.97562	-100.08141	-72.41663	0
965	-39.86983	-99.26774	-60.21158	68.34828	8.95037	-79.73966	26.85111	-37.42882	-54.51589	-69.97562	-117.16848	-74.85764	0
966	-49.63387	-109.03178	-60.21158	78.11232	4.06835	-84.62168	26.85111	-39.86983	-56.9569	-69.97562	-126.93252	-79.73966	0
967	-49.63387	-113.9138	-65.0936	80.55333	6.50936	-89.5037	21.96909	-44.75185	-56.9569	-69.97562	-126.93252	-82.18067	0
968	-42.31084	-116.35481	-74.85764	78.11232	16.2734	-96.82673	21.96909	-47.19286	-56.9569	-65.0936	-112.28646	-79.73966	0
969	-34.98781	-113.9138	-79.73966	73.2303	21.15542	-96.82673	21.96909	-47.19286	-56.9569	-60.21158	-92.75838	-74.85764	0
970	-34.98781	-113.9138	-79.73966	73.2303	21.15542	-96.82673	21.96909	-54.51589	-56.9569	-57.77057	-78.11232	-74.85764	0
