samplenr	I	II	III	aVR	aVL	aVF	V1	V2	V3	V4	V5	V6	measurement
0	-52.88855	0.81367	52.88855	24.4101	-52.07488	26.85111	37.42882	-78.92599	-79.73966	-100.08141	-209.92686	-74.04397	0
1	-55.32956	0.81367	55.32956	26.85111	-54.51589	26.85111	37.42882	-78.92599	-79.73966	-100.08141	-197.72181	-74.04397	0
2	-55.32956	-2.44101	52.88855	26.85111	-54.51589	24.4101	39.86983	-81.367	-82.18067	-100.08141	-158.66565	-69.16195	0
3	-57.77057	-2.44101	55.32956	29.29212	-56.9569	26.85111	39.86983	-83.80801	-82.18067	-102.52242	-126.93252	-66.72094	0
4	-57.77057	-2.44101	55.32956	29.29212	-56.9569	26.85111	39.86983	-86.24902	-82.18067	-100.08141	-112.28646	-64.27993	0
5	-57.77057	-2.44101	55.32956	29.29212	-56.9569	26.85111	42.31084	-88.69003	-82.18067	-97.6404	-126.93252	-66.72094	0
6	-55.32956	-2.44101	52.88855	26.85111	-54.51589	24.4101	42.31084	-88.69003	-82.18067	-95.19939	-158.66565	-69.16195	0
7	-52.88855	-2.44101	50.44754	26.85111	-52.07488	24.4101	42.31084	-86.24902	-82.18067	-92.75838	-180.63474	-74.04397	0
8	-55.32956	-2.44101	52.88855	26.85111	-54.51589	24.4101	39.86983	-83.80801	-79.73966	-92.75838	-187.95777	-78.92599	0
9	-55.32956	-2.44101	52.88855	26.85111	-54.51589	24.4101	39.86983	-83.80801	-79.73966	-92.75838	-187.95777	-78.92599	0
10	-55.32956	-2.44101	52.88855	26.85111	-54.51589	24.4101	39.86983	-83.80801	-79.73966	-95.19939	-185.51676	-78.92599	0
11	-57.77057	-2.44101	55.32956	29.29212	-56.9569	26.85111	42.31084	-81.367	-79.73966	-97.6404	-170.8707	-78.92599	0
12	-57.77057	-4.88202	52.88855	29.29212	-56.9569	24.4101	44.75185	-81.367	-82.18067	-97.6404	-141.57858	-74.04397	0
13	-57.77057	-4.88202	52.88855	29.29212	-56.9569	24.4101	47.19286	-81.367	-79.73966	-100.08141	-114.72747	-69.16195	0
14	-57.77057	-7.32303	50.44754	31.73313	-54.51589	21.96909	47.19286	-86.24902	-79.73966	-97.6404	-104.96343	-66.72094	0
15	-55.32956	-7.32303	48.00653	29.29212	-52.07488	19.52808	47.19286	-86.24902	-79.73966	-97.6404	-114.72747	-66.72094	0
16	-55.32956	-7.32303	48.00653	29.29212	-52.07488	19.52808	47.19286	-86.24902	-82.18067	-95.19939	-139.13757	-69.16195	0
17	-52.88855	-4.88202	48.00653	26.85111	-52.07488	21.96909	47.19286	-86.24902	-82.18067	-92.75838	-153.78363	-71.60296	0
18	-52.88855	-2.44101	50.44754	26.85111	-52.07488	24.4101	42.31084	-83.80801	-82.18067	-92.75838	-158.66565	-74.04397	0
19	-52.88855	-2.44101	50.44754	26.85111	-52.07488	24.4101	39.86983	-83.80801	-82.18067	-92.75838	-156.22464	-74.04397	0
20	-52.88855	-2.44101	50.44754	26.85111	-52.07488	24.4101	39.86983	-81.367	-82.18067	-92.75838	-156.22464	-74.04397	0
21	-52.88855	-2.44101	50.44754	26.85111	-52.07488	24.4101	39.86983	-81.367	-87.06269	-95.19939	-148.90161	-71.60296	0
22	-52.88855	0.81367	52.88855	24.4101	-52.07488	26.85111	39.86983	-83.80801	-87.06269	-95.19939	-126.93252	-66.72094	0
23	-52.88855	0.81367	52.88855	24.4101	-52.07488	26.85111	39.86983	-83.80801	-87.06269	-97.6404	-109.84545	-64.27993	0
24	-50.44754	-2.44101	48.00653	24.4101	-49.63387	21.96909	39.86983	-86.24902	-87.06269	-95.19939	-100.08141	-61.83892	0
25	-50.44754	-2.44101	48.00653	24.4101	-49.63387	21.96909	37.42882	-86.24902	-87.06269	-95.19939	-109.84545	-61.83892	0
26	-50.44754	-4.88202	45.56552	26.85111	-49.63387	19.52808	37.42882	-86.24902	-87.06269	-95.19939	-126.93252	-66.72094	0
27	-55.32956	-12.20505	43.12451	31.73313	-49.63387	14.64606	34.98781	-86.24902	-87.06269	-95.19939	-136.69656	-71.60296	0
28	-62.65259	-21.96909	40.6835	41.49717	-52.07488	9.76404	27.66478	-86.24902	-87.06269	-95.19939	-136.69656	-76.48498	0
29	-65.0936	-21.96909	43.12451	41.49717	-54.51589	9.76404	25.22377	-86.24902	-87.06269	-95.19939	-131.81454	-76.48498	0
30	-60.21158	-14.64606	45.56552	36.61515	-54.51589	14.64606	27.66478	-83.80801	-87.06269	-92.75838	-131.81454	-74.04397	0
31	-62.65259	-14.64606	48.00653	36.61515	-56.9569	17.08707	30.10579	-83.80801	-87.06269	-97.6404	-129.37353	-74.04397	0
32	-62.65259	-14.64606	48.00653	36.61515	-56.9569	17.08707	32.5468	-86.24902	-89.5037	-100.08141	-114.72747	-71.60296	0
33	-60.21158	-7.32303	52.88855	31.73313	-56.9569	21.96909	32.5468	-86.24902	-87.06269	-100.08141	-102.52242	-66.72094	0
34	-52.88855	-2.44101	50.44754	26.85111	-52.07488	24.4101	37.42882	-88.69003	-87.06269	-97.6404	-97.6404	-64.27993	0
35	-45.56552	3.25468	48.00653	19.52808	-47.19286	24.4101	37.42882	-86.24902	-84.62168	-95.19939	-100.08141	-61.83892	0
36	-50.44754	-2.44101	48.00653	24.4101	-49.63387	21.96909	37.42882	-86.24902	-84.62168	-95.19939	-114.72747	-66.72094	0
37	-52.88855	-2.44101	50.44754	26.85111	-52.07488	24.4101	34.98781	-86.24902	-84.62168	-95.19939	-117.16848	-71.60296	0
38	-48.00653	0.81367	48.00653	21.96909	-47.19286	24.4101	30.10579	-83.80801	-79.73966	-92.75838	-112.28646	-71.60296	0
39	-48.00653	0.81367	48.00653	21.96909	-47.19286	24.4101	30.10579	-81.367	-79.73966	-90.31737	-109.84545	-71.60296	0
40	-48.00653	0.81367	48.00653	21.96909	-47.19286	24.4101	30.10579	-78.92599	-77.29865	-90.31737	-112.28646	-71.60296	0
41	-50.44754	-2.44101	48.00653	24.4101	-49.63387	21.96909	27.66478	-78.92599	-79.73966	-92.75838	-112.28646	-71.60296	0
42	-50.44754	-2.44101	48.00653	24.4101	-49.63387	21.96909	30.10579	-78.92599	-79.73966	-92.75838	-102.52242	-66.72094	0
43	-50.44754	-2.44101	48.00653	24.4101	-49.63387	21.96909	30.10579	-78.92599	-77.29865	-95.19939	-95.19939	-61.83892	0
44	-52.88855	-2.44101	50.44754	26.85111	-52.07488	24.4101	30.10579	-83.80801	-77.29865	-92.75838	-92.75838	-61.83892	0
45	-55.32956	-4.88202	50.44754	29.29212	-54.51589	21.96909	30.10579	-83.80801	-77.29865	-92.75838	-97.6404	-61.83892	0
46	-57.77057	-7.32303	50.44754	31.73313	-54.51589	21.96909	30.10579	-83.80801	-77.29865	-90.31737	-104.96343	-66.72094	0
47	-57.77057	-4.88202	52.88855	29.29212	-56.9569	24.4101	30.10579	-83.80801	-74.85764	-90.31737	-107.40444	-71.60296	0
48	-55.32956	-2.44101	52.88855	26.85111	-54.51589	24.4101	25.22377	-78.92599	-74.85764	-90.31737	-104.96343	-76.48498	0
49	-55.32956	-2.44101	52.88855	26.85111	-54.51589	24.4101	25.22377	-78.92599	-74.85764	-90.31737	-104.96343	-78.92599	0
50	-55.32956	3.25468	57.77057	24.4101	-56.9569	29.29212	25.22377	-78.92599	-74.85764	-92.75838	-109.84545	-78.92599	0
51	-55.32956	5.69569	60.21158	24.4101	-56.9569	31.73313	27.66478	-78.92599	-79.73966	-97.6404	-112.28646	-78.92599	0
52	-52.88855	8.1367	60.21158	21.96909	-56.9569	34.17414	30.10579	-78.92599	-77.29865	-97.6404	-104.96343	-71.60296	0
53	-52.88855	8.1367	60.21158	21.96909	-56.9569	34.17414	32.5468	-78.92599	-74.85764	-97.6404	-102.52242	-66.72094	0
54	-52.88855	3.25468	55.32956	24.4101	-54.51589	29.29212	37.42882	-76.48498	-72.41663	-92.75838	-100.08141	-59.39791	0
55	-50.44754	0.81367	50.44754	24.4101	-49.63387	24.4101	37.42882	-74.04397	-69.97562	-90.31737	-100.08141	-59.39791	0
56	-50.44754	-2.44101	48.00653	24.4101	-49.63387	21.96909	39.86983	-71.60296	-69.97562	-85.43535	-100.08141	-61.83892	0
57	-50.44754	-2.44101	48.00653	24.4101	-49.63387	21.96909	39.86983	-69.16195	-67.53461	-85.43535	-92.75838	-64.27993	0
58	-50.44754	-4.88202	45.56552	26.85111	-49.63387	19.52808	34.98781	-66.72094	-65.0936	-82.99434	-85.43535	-66.72094	0
59	-50.44754	-4.88202	45.56552	26.85111	-49.63387	19.52808	34.98781	-66.72094	-65.0936	-80.55333	-80.55333	-66.72094	0
60	-50.44754	-2.44101	48.00653	24.4101	-49.63387	21.96909	32.5468	-69.16195	-67.53461	-80.55333	-80.55333	-66.72094	0
61	-52.88855	-2.44101	50.44754	26.85111	-52.07488	24.4101	37.42882	-71.60296	-69.97562	-82.99434	-80.55333	-66.72094	0
62	-52.88855	-2.44101	50.44754	26.85111	-52.07488	24.4101	39.86983	-71.60296	-69.97562	-85.43535	-75.67131	-64.27993	0
63	-55.32956	-2.44101	52.88855	26.85111	-54.51589	24.4101	44.75185	-71.60296	-67.53461	-87.87636	-78.11232	-61.83892	0
64	-52.88855	-2.44101	50.44754	26.85111	-52.07488	24.4101	44.75185	-71.60296	-67.53461	-87.87636	-80.55333	-56.9569	0
65	-50.44754	0.81367	50.44754	24.4101	-49.63387	24.4101	47.19286	-69.16195	-67.53461	-87.87636	-82.99434	-56.9569	0
66	-48.00653	0.81367	48.00653	21.96909	-47.19286	24.4101	47.19286	-66.72094	-69.97562	-85.43535	-85.43535	-59.39791	0
67	-48.00653	0.81367	48.00653	21.96909	-47.19286	24.4101	47.19286	-64.27993	-69.97562	-82.99434	-82.99434	-61.83892	0
68	-45.56552	-2.44101	43.12451	21.96909	-44.75185	19.52808	42.31084	-64.27993	-67.53461	-82.99434	-80.55333	-64.27993	0
69	-45.56552	-2.44101	43.12451	21.96909	-44.75185	19.52808	42.31084	-64.27993	-67.53461	-82.99434	-78.11232	-64.27993	0
70	-45.56552	-2.44101	43.12451	21.96909	-44.75185	19.52808	39.86983	-66.72094	-69.97562	-82.99434	-80.55333	-64.27993	0
71	-48.00653	-2.44101	45.56552	24.4101	-47.19286	21.96909	39.86983	-69.16195	-72.41663	-82.99434	-80.55333	-64.27993	0
72	-48.00653	-2.44101	45.56552	24.4101	-47.19286	21.96909	39.86983	-71.60296	-72.41663	-85.43535	-80.55333	-59.39791	0
73	-50.44754	-2.44101	48.00653	24.4101	-49.63387	21.96909	39.86983	-74.04397	-72.41663	-87.87636	-82.99434	-59.39791	0
74	-50.44754	0.81367	50.44754	24.4101	-49.63387	24.4101	39.86983	-76.48498	-72.41663	-87.87636	-85.43535	-59.39791	0
75	-48.00653	0.81367	48.00653	21.96909	-47.19286	24.4101	42.31084	-74.04397	-72.41663	-87.87636	-87.87636	-59.39791	0
76	-48.00653	0.81367	48.00653	21.96909	-47.19286	24.4101	42.31084	-71.60296	-72.41663	-85.43535	-90.31737	-64.27993	0
77	-45.56552	3.25468	48.00653	19.52808	-47.19286	24.4101	44.75185	-69.16195	-72.41663	-85.43535	-90.31737	-69.16195	0
78	-45.56552	3.25468	48.00653	19.52808	-47.19286	24.4101	44.75185	-66.72094	-69.97562	-87.87636	-90.31737	-74.04397	0
79	-45.56552	0.81367	45.56552	21.96909	-44.75185	21.96909	44.75185	-66.72094	-69.97562	-87.87636	-90.31737	-74.04397	0
80	-45.56552	0.81367	45.56552	21.96909	-44.75185	21.96909	44.75185	-66.72094	-69.97562	-87.87636	-90.31737	-74.04397	0
81	-50.44754	-2.44101	48.00653	24.4101	-49.63387	21.96909	47.19286	-69.16195	-69.97562	-90.31737	-92.75838	-74.04397	0
82	-48.00653	-2.44101	45.56552	24.4101	-47.19286	21.96909	49.63387	-71.60296	-69.97562	-92.75838	-90.31737	-66.72094	0
83	-48.00653	-7.32303	40.6835	26.85111	-44.75185	17.08707	52.07488	-71.60296	-69.97562	-92.75838	-90.31737	-61.83892	0
84	-48.00653	-9.76404	38.24249	26.85111	-44.75185	14.64606	52.07488	-71.60296	-67.53461	-90.31737	-87.87636	-56.9569	0
85	-45.56552	-9.76404	35.80148	26.85111	-42.31084	12.20505	52.07488	-71.60296	-65.0936	-85.43535	-85.43535	-54.51589	0
86	-45.56552	-9.76404	35.80148	26.85111	-42.31084	12.20505	52.07488	-69.16195	-65.0936	-85.43535	-87.87636	-56.9569	0
87	-43.12451	-7.32303	35.80148	24.4101	-39.86983	14.64606	52.07488	-66.72094	-65.0936	-82.99434	-85.43535	-61.83892	0
88	-43.12451	-4.88202	38.24249	21.96909	-42.31084	17.08707	47.19286	-66.72094	-65.0936	-82.99434	-85.43535	-64.27993	0
89	-45.56552	-4.88202	40.6835	24.4101	-44.75185	17.08707	47.19286	-66.72094	-65.0936	-85.43535	-85.43535	-66.72094	0
90	-45.56552	-4.88202	40.6835	24.4101	-44.75185	17.08707	47.19286	-69.16195	-67.53461	-87.87636	-90.31737	-66.72094	0
91	-45.56552	-2.44101	43.12451	21.96909	-44.75185	19.52808	49.63387	-71.60296	-69.97562	-92.75838	-92.75838	-66.72094	0
92	-48.00653	-2.44101	45.56552	24.4101	-47.19286	21.96909	49.63387	-71.60296	-72.41663	-95.19939	-92.75838	-64.27993	0
93	-48.00653	-2.44101	45.56552	24.4101	-47.19286	21.96909	52.07488	-74.04397	-69.97562	-97.6404	-92.75838	-61.83892	0
94	-48.00653	-2.44101	45.56552	24.4101	-47.19286	21.96909	52.07488	-74.04397	-69.97562	-97.6404	-92.75838	-61.83892	0
95	-45.56552	-2.44101	43.12451	21.96909	-44.75185	19.52808	52.07488	-71.60296	-69.97562	-95.19939	-95.19939	-64.27993	0
96	-45.56552	-2.44101	43.12451	21.96909	-44.75185	19.52808	52.07488	-69.16195	-72.41663	-95.19939	-97.6404	-66.72094	0
97	-43.12451	-4.88202	38.24249	21.96909	-42.31084	17.08707	52.07488	-66.72094	-72.41663	-92.75838	-95.19939	-69.16195	0
98	-43.12451	-7.32303	35.80148	24.4101	-39.86983	14.64606	52.07488	-64.27993	-69.97562	-92.75838	-92.75838	-71.60296	0
99	-43.12451	-7.32303	35.80148	24.4101	-39.86983	14.64606	52.07488	-64.27993	-69.97562	-92.75838	-90.31737	-71.60296	0
100	-48.00653	-9.76404	38.24249	26.85111	-44.75185	14.64606	52.07488	-69.16195	-72.41663	-92.75838	-90.31737	-71.60296	1000	P+0
101	-50.44754	-9.76404	40.6835	29.29212	-47.19286	14.64606	52.07488	-71.60296	-77.29865	-95.19939	-92.75838	-69.16195	0
102	-50.44754	-9.76404	40.6835	29.29212	-47.19286	14.64606	54.51589	-74.04397	-77.29865	-95.19939	-90.31737	-64.27993	0
103	-50.44754	-4.88202	45.56552	26.85111	-49.63387	19.52808	54.51589	-74.04397	-77.29865	-97.6404	-92.75838	-64.27993	0
104	-48.00653	-2.44101	45.56552	24.4101	-47.19286	21.96909	54.51589	-76.48498	-77.29865	-97.6404	-95.19939	-64.27993	0
105	-45.56552	0.81367	45.56552	21.96909	-44.75185	21.96909	54.51589	-76.48498	-79.73966	-97.6404	-95.19939	-66.72094	0
106	-43.12451	3.25468	45.56552	19.52808	-44.75185	24.4101	56.9569	-74.04397	-79.73966	-95.19939	-97.6404	-69.16195	0
107	-38.24249	8.1367	45.56552	14.64606	-42.31084	26.85111	56.9569	-71.60296	-77.29865	-92.75838	-95.19939	-69.16195	0
108	-38.24249	10.57771	48.00653	12.20505	-42.31084	29.29212	54.51589	-69.16195	-77.29865	-90.31737	-90.31737	-69.16195	0
109	-40.6835	10.57771	50.44754	14.64606	-44.75185	29.29212	56.9569	-66.72094	-77.29865	-90.31737	-87.87636	-66.72094	0
110	-40.6835	13.01872	52.88855	12.20505	-47.19286	31.73313	59.39791	-66.72094	-72.41663	-87.87636	-85.43535	-61.83892	0
111	-40.6835	15.45973	55.32956	12.20505	-47.19286	34.17414	61.83892	-64.27993	-72.41663	-87.87636	-85.43535	-54.51589	0
112	-38.24249	17.90074	55.32956	9.76404	-47.19286	36.61515	66.72094	-64.27993	-69.97562	-85.43535	-80.55333	-47.19286	0
113	-35.80148	20.34175	55.32956	6.50936	-44.75185	36.61515	69.16195	-64.27993	-65.0936	-85.43535	-78.11232	-39.86983	0
114	-30.91946	27.66478	57.77057	1.62734	-44.75185	41.49717	71.60296	-61.83892	-62.65259	-80.55333	-75.67131	-37.42882	0
115	-26.03744	32.5468	57.77057	-3.25468	-42.31084	43.93818	76.48498	-56.9569	-57.77057	-73.2303	-73.2303	-34.98781	0
116	-23.59643	37.42882	60.21158	-8.1367	-42.31084	48.8202	76.48498	-52.07488	-55.32956	-68.34828	-73.2303	-37.42882	0
117	-21.15542	44.75185	65.0936	-13.01872	-42.31084	53.70222	76.48498	-47.19286	-50.44754	-65.90727	-68.34828	-37.42882	0
118	-21.15542	52.07488	72.41663	-15.45973	-47.19286	61.02525	76.48498	-42.31084	-45.56552	-63.46626	-63.46626	-42.31084	0
119	-23.59643	61.83892	84.62168	-20.34175	-54.51589	73.2303	76.48498	-42.31084	-45.56552	-63.46626	-63.46626	-42.31084	0
120	-23.59643	66.72094	89.5037	-22.78276	-56.9569	78.11232	74.04397	-42.31084	-43.12451	-63.46626	-63.46626	-42.31084	0
121	-26.03744	71.60296	96.82673	-22.78276	-61.83892	82.99434	71.60296	-42.31084	-43.12451	-65.90727	-63.46626	-37.42882	0
122	-26.03744	74.04397	99.26774	-25.22377	-61.83892	85.43535	69.16195	-42.31084	-43.12451	-65.90727	-58.58424	-32.5468	0
123	-23.59643	74.04397	96.82673	-25.22377	-59.39791	85.43535	64.27993	-44.75185	-43.12451	-65.90727	-58.58424	-27.66478	0
124	-16.2734	71.60296	87.06269	-27.66478	-52.07488	78.11232	56.9569	-44.75185	-43.12451	-63.46626	-58.58424	-22.78276	0
125	-13.83239	69.16195	82.18067	-27.66478	-47.19286	75.67131	49.63387	-42.31084	-43.12451	-61.02525	-56.14323	-20.34175	0
126	-5.69569	66.72094	72.41663	-30.10579	-39.86983	70.78929	39.86983	-39.86983	-43.12451	-58.58424	-56.14323	-22.78276	0
127	-0.81367	61.83892	62.65259	-30.10579	-32.5468	63.46626	30.10579	-39.86983	-43.12451	-53.70222	-48.8202	-22.78276	0
128	1.62734	64.27993	62.65259	-32.5468	-30.10579	63.46626	19.52808	-39.86983	-40.6835	-51.26121	-41.49717	-22.78276	0
129	1.62734	66.72094	65.0936	-34.98781	-32.5468	65.90727	12.20505	-42.31084	-40.6835	-48.8202	-34.17414	-20.34175	0
130	-0.81367	69.16195	69.97562	-34.98781	-34.98781	70.78929	7.32303	-47.19286	-40.6835	-48.8202	-34.17414	-20.34175	0
131	-3.25468	71.60296	74.85764	-34.98781	-39.86983	73.2303	4.88202	-54.51589	-45.56552	-51.26121	-34.17414	-20.34175	0
132	-3.25468	71.60296	74.85764	-34.98781	-39.86983	73.2303	0	-64.27993	-50.44754	-56.14323	-34.17414	-17.90074	0
133	-3.25468	66.72094	69.97562	-32.5468	-37.42882	68.34828	0	-71.60296	-52.88855	-61.02525	-39.05616	-17.90074	0
134	1.62734	64.27993	62.65259	-32.5468	-30.10579	63.46626	-2.44101	-74.04397	-57.77057	-65.90727	-43.93818	-17.90074	0
135	6.50936	61.83892	55.32956	-34.98781	-25.22377	58.58424	-2.44101	-74.04397	-62.65259	-65.90727	-48.8202	-22.78276	0
136	8.95037	56.9569	48.00653	-32.5468	-20.34175	53.70222	-2.44101	-71.60296	-62.65259	-65.90727	-51.26121	-25.22377	0
137	8.95037	56.9569	48.00653	-32.5468	-20.34175	53.70222	0	-69.16195	-62.65259	-65.90727	-48.8202	-27.66478	0
138	8.95037	56.9569	48.00653	-32.5468	-20.34175	53.70222	0	-69.16195	-60.21158	-65.90727	-46.37919	-27.66478	0
139	6.50936	61.83892	55.32956	-34.98781	-25.22377	58.58424	2.44101	-69.16195	-60.21158	-65.90727	-43.93818	-27.66478	0
140	4.06835	64.27993	60.21158	-34.98781	-27.66478	63.46626	4.88202	-71.60296	-62.65259	-65.90727	-46.37919	-25.22377	0
141	4.06835	66.72094	62.65259	-34.98781	-30.10579	65.90727	7.32303	-76.48498	-67.53461	-70.78929	-48.8202	-25.22377	0
142	4.06835	66.72094	62.65259	-34.98781	-30.10579	65.90727	7.32303	-83.80801	-72.41663	-78.11232	-53.70222	-22.78276	0
143	6.50936	64.27993	57.77057	-34.98781	-25.22377	61.02525	7.32303	-91.13104	-74.85764	-85.43535	-58.58424	-22.78276	0
144	11.39138	61.83892	50.44754	-37.42882	-20.34175	56.14323	4.88202	-96.01306	-79.73966	-85.43535	-65.90727	-22.78276	0
145	11.39138	56.9569	45.56552	-34.98781	-17.90074	51.26121	7.32303	-96.01306	-79.73966	-87.87636	-68.34828	-25.22377	0
146	13.83239	52.07488	38.24249	-32.5468	-13.01872	46.37919	9.76404	-93.57205	-79.73966	-85.43535	-65.90727	-27.66478	0
147	11.39138	44.75185	33.36047	-27.66478	-9.76404	39.05616	9.76404	-88.69003	-74.85764	-85.43535	-63.46626	-30.10579	0
148	4.06835	37.42882	33.36047	-20.34175	-15.45973	36.61515	9.76404	-86.24902	-72.41663	-82.99434	-61.02525	-32.5468	0
149	-10.57771	27.66478	38.24249	-8.1367	-25.22377	34.17414	9.76404	-86.24902	-72.41663	-82.99434	-61.02525	-32.5468	0
150	-18.71441	22.78276	40.6835	-3.25468	-30.10579	31.73313	14.64606	-86.24902	-72.41663	-82.99434	-61.02525	-32.5468	0
151	-18.71441	27.66478	45.56552	-5.69569	-32.5468	36.61515	21.96909	-83.80801	-72.41663	-80.55333	-61.02525	-32.5468	0
152	-23.59643	27.66478	50.44754	-3.25468	-37.42882	39.05616	25.22377	-83.80801	-72.41663	-85.43535	-65.90727	-32.5468	0
153	-26.03744	22.78276	48.00653	1.62734	-37.42882	34.17414	27.66478	-83.80801	-74.85764	-87.87636	-70.78929	-32.5468	0
154	-26.03744	22.78276	48.00653	1.62734	-37.42882	34.17414	32.5468	-83.80801	-74.85764	-87.87636	-73.2303	-32.5468	0
155	-26.03744	22.78276	48.00653	1.62734	-37.42882	34.17414	37.42882	-81.367	-77.29865	-87.87636	-75.67131	-39.86983	0
156	-23.59643	27.66478	50.44754	-3.25468	-37.42882	39.05616	39.86983	-78.92599	-79.73966	-87.87636	-75.67131	-44.75185	0
157	-33.36047	20.34175	52.88855	6.50936	-42.31084	36.61515	39.86983	-78.92599	-82.18067	-90.31737	-80.55333	-52.07488	0
158	-43.12451	13.01872	55.32956	14.64606	-49.63387	34.17414	39.86983	-78.92599	-82.18067	-92.75838	-80.55333	-56.9569	0
159	-50.44754	10.57771	60.21158	19.52808	-54.51589	34.17414	39.86983	-78.92599	-84.62168	-95.19939	-80.55333	-59.39791	0
160	-57.77057	8.1367	65.0936	24.4101	-61.83892	36.61515	42.31084	-81.367	-84.62168	-97.6404	-87.87636	-61.83892	0
161	-62.65259	5.69569	67.53461	26.85111	-64.27993	36.61515	44.75185	-81.367	-87.06269	-100.08141	-90.31737	-61.83892	0
162	-62.65259	0.81367	62.65259	29.29212	-61.83892	31.73313	49.63387	-81.367	-89.5037	-104.96343	-95.19939	-61.83892	0
163	-60.21158	-2.44101	57.77057	29.29212	-59.39791	26.85111	49.63387	-81.367	-89.5037	-107.40444	-97.6404	-61.83892	0
164	-60.21158	-2.44101	57.77057	29.29212	-59.39791	26.85111	49.63387	-83.80801	-91.94471	-107.40444	-100.08141	-61.83892	0
165	-57.77057	-4.88202	52.88855	29.29212	-56.9569	24.4101	49.63387	-81.367	-91.94471	-107.40444	-102.52242	-64.27993	0
166	-55.32956	-4.88202	50.44754	29.29212	-54.51589	21.96909	49.63387	-78.92599	-94.38572	-104.96343	-102.52242	-66.72094	0
167	-55.32956	-7.32303	48.00653	29.29212	-52.07488	19.52808	49.63387	-76.48498	-94.38572	-104.96343	-97.6404	-66.72094	0
168	-60.21158	-7.32303	52.88855	31.73313	-56.9569	21.96909	47.19286	-74.04397	-91.94471	-102.52242	-95.19939	-66.72094	0
169	-62.65259	-9.76404	52.88855	34.17414	-59.39791	21.96909	47.19286	-74.04397	-91.94471	-100.08141	-90.31737	-66.72094	0
170	-67.53461	-9.76404	57.77057	36.61515	-64.27993	24.4101	49.63387	-71.60296	-89.5037	-97.6404	-90.31737	-64.27993	0
171	-72.41663	-12.20505	60.21158	41.49717	-66.72094	24.4101	52.07488	-71.60296	-89.5037	-97.6404	-87.87636	-59.39791	0
172	-72.41663	-12.20505	60.21158	41.49717	-66.72094	24.4101	54.51589	-71.60296	-89.5037	-97.6404	-87.87636	-56.9569	0
173	-72.41663	-12.20505	60.21158	41.49717	-66.72094	24.4101	54.51589	-74.04397	-89.5037	-100.08141	-90.31737	-54.51589	0
174	-67.53461	-12.20505	55.32956	39.05616	-61.83892	21.96909	54.51589	-74.04397	-89.5037	-97.6404	-92.75838	-54.51589	0
175	-65.0936	-12.20505	52.88855	36.61515	-59.39791	19.52808	54.51589	-69.16195	-89.5037	-97.6404	-95.19939	-56.9569	0
176	-62.65259	-12.20505	50.44754	36.61515	-56.9569	19.52808	54.51589	-66.72094	-89.5037	-95.19939	-95.19939	-59.39791	0
177	-60.21158	-12.20505	48.00653	34.17414	-54.51589	17.08707	56.9569	-61.83892	-84.62168	-92.75838	-92.75838	-61.83892	0
178	-62.65259	-9.76404	52.88855	34.17414	-59.39791	21.96909	56.9569	-59.39791	-82.18067	-90.31737	-87.87636	-64.27993	0
179	-67.53461	-12.20505	55.32956	39.05616	-61.83892	21.96909	61.83892	-59.39791	-82.18067	-87.87636	-85.43535	-61.83892	0
180	-74.85764	-14.64606	60.21158	43.93818	-69.16195	21.96909	66.72094	-59.39791	-82.18067	-85.43535	-85.43535	-61.83892	0
181	-79.73966	-14.64606	65.0936	46.37919	-74.04397	24.4101	71.60296	-61.83892	-82.18067	-90.31737	-87.87636	-61.83892	0
182	-82.18067	-9.76404	72.41663	43.93818	-78.92599	31.73313	76.48498	-66.72094	-84.62168	-95.19939	-95.19939	-61.83892	0
183	-84.62168	-4.88202	79.73966	43.93818	-83.80801	36.61515	78.92599	-71.60296	-87.06269	-102.52242	-102.52242	-61.83892	0
184	-89.5037	5.69569	94.38572	41.49717	-91.13104	48.8202	86.24902	-78.92599	-94.38572	-107.40444	-112.28646	-69.16195	0
185	-99.26774	20.34175	118.79582	39.05616	-108.21811	68.34828	93.57205	-83.80801	-101.70875	-119.60949	-126.93252	-78.92599	0
186	-106.59077	34.98781	140.76491	34.17414	-122.86417	87.87636	103.33609	-83.80801	-111.47279	-129.37353	-139.13757	-93.57205	0
187	-116.35481	47.19286	162.734	34.17414	-139.95124	104.96343	113.10013	-86.24902	-123.67784	-146.4606	-153.78363	-110.65912	0
188	-128.55986	54.51589	182.26208	36.61515	-154.5973	117.16848	122.86417	-93.57205	-140.76491	-168.42969	-168.42969	-125.30518	0
189	-143.20592	56.9569	199.34915	41.49717	-171.68437	126.93252	130.1872	-105.7771	-165.17501	-192.83979	-185.51676	-135.06922	0
190	-155.41097	52.07488	206.67218	51.26121	-181.44841	129.37353	135.06922	-125.30518	-199.34915	-222.13191	-205.04484	-139.95124	0
191	-160.29299	34.98781	194.46713	61.02525	-176.56639	114.72747	137.51023	-152.15629	-240.84632	-256.30605	-224.57292	-139.95124	0
192	-155.41097	15.45973	170.05703	68.34828	-161.92033	92.75838	135.06922	-179.0074	-284.7845	-292.9212	-241.65999	-130.1872	0
193	-135.88289	-2.44101	133.44188	68.34828	-135.06922	65.90727	125.30518	-210.74053	-328.72268	-322.21332	-246.54201	-103.33609	0
194	-104.14976	-14.64606	89.5037	58.58424	-98.45407	36.61515	110.65912	-237.59164	-360.45581	-331.97736	-231.89595	-56.9569	0
195	-62.65259	-19.52808	43.12451	39.05616	-54.51589	12.20505	91.13104	-252.2377	-377.54288	-324.65433	-197.72181	4.88202	0
196	-8.1367	-17.08707	-8.95037	12.20505	0	-13.01872	64.27993	-264.44275	-387.30692	-307.56726	-151.34262	80.55333	0
197	57.77057	-4.88202	-62.65259	-27.66478	58.58424	-32.5468	25.22377	-288.85285	-399.51197	-283.15716	-90.31737	173.31171	0
198	131.00087	17.90074	-113.9138	-74.04397	122.0505	-47.19286	-24.4101	-335.23204	-419.04005	-258.74706	-19.52808	280.71615	0
199	206.67218	54.51589	-152.96996	-130.1872	180.63474	-49.63387	-90.31737	-406.02133	-453.21419	-231.89595	56.9569	407.64867	0
200	287.22551	98.45407	-189.58511	-193.65346	239.21898	-44.75185	-168.42969	-498.77971	-497.15237	-209.92686	135.06922	539.46321	0
201	372.66086	147.27427	-226.20026	-259.56073	300.24423	-39.86983	-261.18807	-611.06617	-553.2956	-187.95777	213.18154	678.60078	0
202	470.30126	191.21245	-279.90248	-330.35002	375.91554	-44.75185	-363.71049	-728.23465	-606.99782	-163.54767	296.17588	815.29734	0
203	567.94166	215.62255	-353.13278	-391.37527	461.35089	-69.16195	-471.11493	-835.63909	-653.37701	-144.01959	364.52416	927.5838	0
204	658.25903	213.18154	-445.89116	-435.31345	551.66826	-115.54114	-571.19634	-921.07444	-687.55115	-126.93252	403.58032	993.49107	0
205	731.48933	186.33043	-545.97257	-459.72355	639.54462	-179.0074	-661.51371	-986.98171	-724.1663	-136.69656	398.6983	995.93208	0
206	782.75054	132.62821	-650.936	-457.28254	717.65694	-259.56073	-734.74401	-1045.56595	-772.9865	-180.63474	340.11406	930.02481	0
207	804.71963	59.39791	-746.13539	-432.87244	776.24118	-342.55507	-788.44623	-1099.26817	-834.01175	-263.62908	227.8276	795.76926	0
208	785.19155	-29.29212	-814.48367	-379.17022	798.21027	-420.66739	-815.29734	-1145.64736	-912.12407	-390.5616	59.39791	600.48846	0
209	729.04832	-114.72747	-843.77579	-308.38093	786.00522	-479.25163	-820.17936	-1192.02655	-1000.00043	-537.0222	-136.69656	378.35655	0
210	650.936	-185.51676	-836.45276	-232.70962	742.06704	-510.98476	-807.97431	-1235.96473	-1090.3178	-685.92381	-331.97736	163.54767	0
211	563.05964	-236.77797	-799.83761	-164.36134	681.04179	-518.30779	-786.00522	-1265.25685	-1161.10709	-810.41532	-502.84806	-27.66478	0
212	475.18328	-268.5111	-743.69438	-103.33609	607.81149	-506.10274	-746.94906	-1262.81584	-1190.39921	-898.29168	-632.22159	-181.44841	0
213	392.18894	-273.39312	-665.58206	-59.39791	527.25816	-469.48759	-693.24684	-1218.87766	-1173.31214	-932.46582	-707.8929	-286.41184	0
214	318.95864	-263.62908	-582.58772	-27.66478	449.14584	-423.1084	-629.78058	-1138.32433	-1107.40487	-905.61471	-720.09795	-337.67305	0
215	255.49238	-241.65999	-497.15237	-8.1367	375.91554	-369.40618	-561.4323	-1026.03787	-1002.44144	-837.26643	-688.36482	-352.31911	0
216	206.67218	-214.80888	-421.48106	4.06835	312.44928	-318.14497	-488.202	-896.66434	-877.94993	-742.06704	-627.33957	-347.43709	0
217	167.61602	-180.63474	-348.25076	6.50936	256.30605	-264.44275	-410.08968	-752.64475	-736.37135	-629.78058	-546.78624	-320.58598	0
218	135.88289	-146.4606	-282.34349	4.06835	207.48585	-213.18154	-336.85938	-606.18415	-585.02873	-505.28907	-449.14584	-279.08881	0
219	106.59077	-114.72747	-221.31824	4.06835	163.54767	-166.80235	-268.5111	-467.04658	-443.45015	-383.23857	-351.50544	-227.8276	0
220	84.62168	-92.75838	-177.38006	4.06835	129.37353	-135.06922	-207.48585	-347.43709	-321.39965	-278.27514	-268.5111	-183.88942	0
221	65.0936	-78.11232	-143.20592	6.50936	102.52242	-110.65912	-156.22464	-249.79669	-223.75925	-195.2808	-202.60383	-147.27427	0
222	55.32956	-61.02525	-116.35481	1.62734	85.43535	-88.69003	-112.28646	-164.36134	-133.44188	-117.16848	-141.57858	-105.7771	0
223	43.12451	-43.93818	-87.06269	-0.81367	63.46626	-64.27993	-73.2303	-91.13104	-52.88855	-51.26121	-85.43535	-69.16195	0
224	33.36047	-31.73313	-65.0936	-0.81367	48.8202	-47.19286	-43.93818	-30.10579	10.57771	7.32303	-39.05616	-39.86983	0
225	23.59643	-19.52808	-43.12451	-3.25468	31.73313	-30.10579	-19.52808	16.2734	57.77057	52.07488	-2.44101	-20.34175	0
226	16.2734	-12.20505	-28.47845	-3.25468	21.96909	-20.34175	-2.44101	51.26121	94.38572	88.69003	25.22377	-8.1367	0
227	8.95037	-7.32303	-16.2734	-0.81367	12.20505	-10.57771	12.20505	80.55333	126.11885	115.54114	49.63387	0	0
228	4.06835	-2.44101	-6.50936	-0.81367	4.88202	-3.25468	19.52808	104.96343	148.08794	137.51023	66.72094	4.88202	0
229	-0.81367	-2.44101	-1.62734	1.62734	0	-0.81367	25.22377	119.60949	162.734	149.71528	78.92599	7.32303	0
230	-5.69569	0.81367	5.69569	1.62734	-4.88202	4.06835	27.66478	131.81454	172.49804	159.47932	83.80801	9.76404	0
231	-10.57771	0.81367	10.57771	4.06835	-9.76404	7.32303	32.5468	139.13757	179.82107	164.36134	86.24902	12.20505	0
232	-13.83239	0.81367	13.83239	6.50936	-13.01872	7.32303	39.86983	144.01959	184.70309	169.24336	86.24902	14.64606	0
233	-13.83239	0.81367	13.83239	6.50936	-13.01872	7.32303	42.31084	151.34262	192.02612	171.68437	91.13104	17.08707	0
234	-16.2734	-4.88202	10.57771	9.76404	-15.45973	1.62734	44.75185	153.78363	199.34915	176.56639	91.13104	19.52808	0
235	-21.15542	-9.76404	10.57771	14.64606	-17.90074	-0.81367	44.75185	158.66565	201.79016	181.44841	91.13104	21.96909	0
236	-23.59643	-14.64606	8.1367	17.08707	-17.90074	-3.25468	47.19286	163.54767	206.67218	186.33043	96.01306	19.52808	0
237	-16.2734	-7.32303	8.1367	9.76404	-13.01872	-0.81367	52.07488	173.31171	216.43622	196.09447	105.7771	21.96909	0
238	-16.2734	-4.88202	10.57771	9.76404	-15.45973	1.62734	54.51589	180.63474	223.75925	200.97649	113.10013	21.96909	0
239	-18.71441	-4.88202	13.83239	9.76404	-17.90074	4.06835	56.9569	187.95777	228.64127	205.85851	115.54114	24.4101	0
240	-18.71441	-2.44101	16.2734	9.76404	-17.90074	7.32303	59.39791	192.83979	231.08228	208.29952	117.98215	26.85111	0
241	-18.71441	3.25468	21.15542	6.50936	-20.34175	12.20505	66.72094	197.72181	233.52329	210.74053	120.42316	31.73313	0
242	-13.83239	8.1367	21.15542	1.62734	-17.90074	14.64606	71.60296	200.16282	238.40531	213.18154	120.42316	36.61515	0
243	-13.83239	8.1367	21.15542	1.62734	-17.90074	14.64606	74.04397	202.60383	240.84632	210.74053	120.42316	39.05616	0
244	-16.2734	0.81367	16.2734	6.50936	-15.45973	7.32303	74.04397	200.16282	240.84632	210.74053	117.98215	39.05616	0
245	-13.83239	0.81367	13.83239	6.50936	-13.01872	7.32303	74.04397	202.60383	240.84632	215.62255	117.98215	41.49717	0
246	-13.83239	0.81367	13.83239	6.50936	-13.01872	7.32303	74.04397	205.04484	243.28733	220.50457	122.86417	39.05616	0
247	-10.57771	3.25468	13.83239	4.06835	-13.01872	9.76404	74.04397	209.92686	248.16935	225.38659	125.30518	39.05616	0
248	-10.57771	3.25468	13.83239	4.06835	-13.01872	9.76404	74.04397	214.80888	250.61036	227.8276	132.62821	39.05616	0
249	-13.83239	3.25468	16.2734	4.06835	-15.45973	9.76404	74.04397	217.24989	253.05137	230.26861	137.51023	41.49717	0
250	-13.83239	3.25468	16.2734	4.06835	-15.45973	9.76404	74.04397	219.6909	255.49238	232.70962	139.95124	43.93818	0
251	-16.2734	3.25468	18.71441	6.50936	-17.90074	9.76404	76.48498	222.13191	257.93339	232.70962	139.95124	46.37919	0
252	-16.2734	3.25468	18.71441	6.50936	-17.90074	9.76404	81.367	224.57292	260.3744	232.70962	139.95124	51.26121	1500	QRS+0
253	-16.2734	3.25468	18.71441	6.50936	-17.90074	9.76404	81.367	224.57292	262.81541	230.26861	139.95124	56.14323	0
254	-13.83239	0.81367	13.83239	6.50936	-13.01872	7.32303	83.80801	224.57292	265.25642	235.15063	139.95124	56.14323	0
255	-8.1367	0.81367	8.1367	4.06835	-7.32303	4.06835	83.80801	224.57292	267.69743	237.59164	139.95124	58.58424	0
256	-5.69569	0.81367	5.69569	1.62734	-4.88202	4.06835	83.80801	227.01393	267.69743	242.47366	142.39225	56.14323	0
257	-3.25468	3.25468	5.69569	-0.81367	-4.88202	4.06835	86.24902	229.45494	272.57945	247.35568	147.27427	56.14323	0
258	-3.25468	5.69569	8.1367	-0.81367	-4.88202	7.32303	86.24902	234.33696	275.02046	249.79669	154.5973	56.14323	0
259	-5.69569	5.69569	10.57771	-0.81367	-7.32303	9.76404	86.24902	236.77797	277.46147	252.2377	157.03831	56.14323	0
260	-8.1367	5.69569	13.83239	1.62734	-9.76404	9.76404	86.24902	239.21898	277.46147	254.67871	157.03831	56.14323	0
261	-13.83239	5.69569	18.71441	4.06835	-15.45973	12.20505	88.69003	241.65999	277.46147	254.67871	154.5973	58.58424	0
262	-13.83239	3.25468	16.2734	4.06835	-15.45973	9.76404	91.13104	241.65999	275.02046	252.2377	152.15629	63.46626	0
263	-10.57771	3.25468	13.83239	4.06835	-13.01872	9.76404	91.13104	241.65999	277.46147	249.79669	152.15629	65.90727	0
264	-5.69569	0.81367	5.69569	1.62734	-4.88202	4.06835	93.57205	239.21898	277.46147	252.2377	149.71528	68.34828	0
265	-0.81367	0.81367	0.81367	-0.81367	0	1.62734	93.57205	239.21898	277.46147	254.67871	149.71528	68.34828	0
266	1.62734	3.25468	0.81367	-3.25468	0	1.62734	93.57205	241.65999	279.90248	259.56073	154.5973	68.34828	0
267	4.06835	3.25468	-1.62734	-3.25468	2.44101	1.62734	91.13104	246.54201	284.7845	264.44275	159.47932	68.34828	0
268	4.06835	5.69569	0.81367	-5.69569	2.44101	4.06835	88.69003	248.98302	289.66652	269.32477	164.36134	65.90727	0
269	1.62734	5.69569	3.25468	-3.25468	0	4.06835	88.69003	251.42403	292.10753	274.20679	169.24336	68.34828	0
270	-0.81367	5.69569	5.69569	-3.25468	-2.44101	7.32303	86.24902	256.30605	294.54854	274.20679	169.24336	70.78929	0
271	-5.69569	3.25468	8.1367	1.62734	-7.32303	7.32303	86.24902	256.30605	296.98955	274.20679	169.24336	73.2303	0
272	-5.69569	0.81367	5.69569	1.62734	-4.88202	4.06835	86.24902	256.30605	296.98955	274.20679	169.24336	75.67131	0
273	-3.25468	0.81367	3.25468	1.62734	-2.44101	1.62734	86.24902	256.30605	299.43056	271.76578	166.80235	75.67131	0
274	1.62734	0.81367	-1.62734	-0.81367	2.44101	-0.81367	81.367	253.86504	299.43056	274.20679	164.36134	75.67131	0
275	6.50936	3.25468	-4.06835	-5.69569	4.88202	-0.81367	78.92599	253.86504	301.87157	276.6478	164.36134	75.67131	0
276	8.95037	3.25468	-6.50936	-5.69569	7.32303	-0.81367	76.48498	256.30605	301.87157	279.08881	166.80235	73.2303	0
277	11.39138	5.69569	-6.50936	-8.1367	9.76404	-0.81367	74.04397	258.74706	304.31258	281.52982	171.68437	70.78929	0
278	11.39138	8.1367	-4.06835	-10.57771	7.32303	1.62734	69.16195	263.62908	306.75359	283.97083	176.56639	70.78929	0
279	11.39138	10.57771	-1.62734	-10.57771	7.32303	4.06835	66.72094	268.5111	309.1946	288.85285	181.44841	73.2303	0
280	6.50936	10.57771	3.25468	-8.1367	2.44101	7.32303	66.72094	273.39312	314.07662	293.73487	186.33043	75.67131	0
281	6.50936	8.1367	0.81367	-8.1367	2.44101	4.06835	66.72094	275.83413	314.07662	293.73487	186.33043	80.55333	0
282	6.50936	8.1367	0.81367	-8.1367	2.44101	4.06835	64.27993	278.27514	314.07662	293.73487	186.33043	85.43535	0
283	6.50936	8.1367	0.81367	-8.1367	2.44101	4.06835	61.83892	278.27514	316.51763	293.73487	186.33043	90.31737	0
284	8.95037	8.1367	-1.62734	-8.1367	4.88202	4.06835	61.83892	280.71615	316.51763	296.17588	186.33043	90.31737	0
285	13.83239	8.1367	-6.50936	-10.57771	9.76404	1.62734	56.9569	283.15716	316.51763	301.0579	186.33043	90.31737	0
286	18.71441	8.1367	-11.39138	-13.01872	14.64606	-0.81367	54.51589	285.59817	318.95864	303.49891	188.77144	85.43535	0
287	21.15542	8.1367	-13.83239	-15.45973	17.08707	-3.25468	54.51589	290.48019	321.39965	305.93992	193.65346	80.55333	0
288	21.15542	10.57771	-11.39138	-15.45973	17.08707	-0.81367	52.07488	297.80322	326.28167	310.82194	198.53548	78.11232	0
289	18.71441	10.57771	-8.95037	-15.45973	14.64606	1.62734	54.51589	300.24423	328.72268	315.70396	203.4175	78.11232	0
290	16.2734	10.57771	-6.50936	-13.01872	12.20505	1.62734	56.9569	305.12625	333.6047	315.70396	205.85851	78.11232	0
291	13.83239	10.57771	-4.06835	-13.01872	9.76404	4.06835	61.83892	310.00827	333.6047	315.70396	205.85851	80.55333	0
292	13.83239	8.1367	-6.50936	-10.57771	9.76404	1.62734	66.72094	312.44928	336.04571	315.70396	205.85851	85.43535	0
293	16.2734	8.1367	-8.95037	-13.01872	12.20505	-0.81367	69.16195	314.89029	340.92773	315.70396	205.85851	87.87636	0
294	21.15542	8.1367	-13.83239	-15.45973	17.08707	-3.25468	69.16195	314.89029	343.36874	320.58598	205.85851	90.31737	0
295	23.59643	8.1367	-16.2734	-15.45973	19.52808	-3.25468	69.16195	319.77231	343.36874	325.468	208.29952	90.31737	0
296	28.47845	8.1367	-21.15542	-17.90074	24.4101	-5.69569	66.72094	324.65433	345.80975	327.90901	210.74053	87.87636	0
297	28.47845	8.1367	-21.15542	-17.90074	24.4101	-5.69569	64.27993	329.53635	350.69177	332.79103	215.62255	87.87636	0
298	23.59643	5.69569	-18.71441	-15.45973	21.96909	-5.69569	59.39791	336.85938	355.57379	332.79103	220.50457	85.43535	0
299	13.83239	0.81367	-13.83239	-8.1367	14.64606	-5.69569	54.51589	339.30039	355.57379	335.23204	222.94558	85.43535	0
300	6.50936	0.81367	-6.50936	-3.25468	7.32303	-3.25468	54.51589	344.18241	358.0148	335.23204	222.94558	85.43535	0
301	11.39138	8.1367	-4.06835	-10.57771	7.32303	1.62734	59.39791	351.50544	362.89682	337.67305	225.38659	90.31737	0
302	11.39138	5.69569	-6.50936	-8.1367	9.76404	-0.81367	61.83892	356.38746	365.33783	337.67305	225.38659	95.19939	0
303	13.83239	5.69569	-8.95037	-10.57771	12.20505	-0.81367	61.83892	358.82847	370.21985	337.67305	225.38659	97.6404	0
304	21.15542	5.69569	-16.2734	-13.01872	19.52808	-5.69569	61.83892	361.26948	377.54288	344.99608	227.8276	102.52242	0
305	33.36047	13.01872	-21.15542	-22.78276	26.85111	-3.25468	64.27993	371.03352	382.4249	352.31911	230.26861	104.96343	0
306	45.56552	20.34175	-26.03744	-32.5468	36.61515	-3.25468	66.72094	378.35655	389.74793	357.20113	237.59164	107.40444	0
307	43.12451	17.90074	-26.03744	-30.10579	34.17414	-3.25468	64.27993	385.67958	394.62995	359.64214	240.03265	104.96343	0
308	40.6835	15.45973	-26.03744	-27.66478	34.17414	-5.69569	61.83892	393.00261	401.95298	364.52416	247.35568	102.52242	0
309	35.80148	15.45973	-21.15542	-25.22377	29.29212	-3.25468	61.83892	400.32564	409.27601	369.40618	254.67871	104.96343	0
310	33.36047	15.45973	-18.71441	-25.22377	26.85111	-0.81367	61.83892	407.64867	414.15803	374.2882	257.11972	107.40444	0
311	28.47845	15.45973	-13.83239	-22.78276	21.96909	1.62734	64.27993	412.53069	416.59904	376.72921	257.11972	109.84545	0
312	28.47845	13.01872	-16.2734	-20.34175	21.96909	-0.81367	69.16195	419.85372	423.92207	376.72921	257.11972	114.72747	0
313	28.47845	10.57771	-18.71441	-20.34175	24.4101	-3.25468	69.16195	424.73574	428.80409	379.17022	259.56073	119.60949	0
314	35.80148	10.57771	-26.03744	-22.78276	31.73313	-8.1367	71.60296	429.61776	433.68611	384.05224	259.56073	119.60949	0
315	43.12451	10.57771	-33.36047	-27.66478	39.05616	-10.57771	71.60296	434.49978	438.56813	388.93426	259.56073	119.60949	0
316	48.00653	13.01872	-35.80148	-30.10579	41.49717	-10.57771	74.04397	441.82281	445.89116	393.81628	264.44275	119.60949	0
317	50.44754	13.01872	-38.24249	-32.5468	43.93818	-13.01872	74.04397	451.58685	453.21419	398.6983	271.76578	117.16848	0
318	50.44754	15.45973	-35.80148	-32.5468	43.93818	-10.57771	71.60296	461.35089	460.53722	403.58032	276.6478	117.16848	0
319	48.00653	17.90074	-30.91946	-32.5468	39.05616	-5.69569	71.60296	471.11493	467.86025	410.90335	283.97083	117.16848	0
320	43.12451	17.90074	-26.03744	-30.10579	34.17414	-3.25468	71.60296	480.87897	475.18328	413.34436	286.41184	122.0505	0
321	40.6835	15.45973	-26.03744	-27.66478	34.17414	-5.69569	74.04397	490.64301	480.0653	418.22638	288.85285	126.93252	0
322	43.12451	15.45973	-28.47845	-30.10579	36.61515	-5.69569	76.48498	495.52503	487.38833	418.22638	291.29386	131.81454	0
323	45.56552	13.01872	-33.36047	-30.10579	39.05616	-10.57771	76.48498	500.40705	492.27035	418.22638	291.29386	134.25555	0
324	52.88855	13.01872	-40.6835	-32.5468	46.37919	-13.01872	76.48498	505.28907	497.15237	423.1084	291.29386	136.69656	0
325	60.21158	13.01872	-48.00653	-37.42882	53.70222	-17.90074	76.48498	512.6121	504.4754	427.99042	291.29386	136.69656	0
326	67.53461	15.45973	-52.88855	-42.31084	61.02525	-17.90074	76.48498	519.93513	509.35742	435.31345	293.73487	134.25555	0
327	69.97562	15.45973	-55.32956	-42.31084	63.46626	-20.34175	76.48498	529.69917	516.68045	440.19547	298.61689	131.81454	0
328	67.53461	20.34175	-48.00653	-44.75185	58.58424	-13.01872	76.48498	539.46321	526.44449	445.07749	305.93992	131.81454	0
329	65.0936	20.34175	-45.56552	-42.31084	56.14323	-13.01872	76.48498	549.22725	531.32651	452.40052	310.82194	131.81454	0
330	60.21158	20.34175	-40.6835	-39.86983	51.26121	-10.57771	78.92599	558.99129	538.64954	454.84153	310.82194	134.25555	0
331	57.77057	20.34175	-38.24249	-39.86983	48.8202	-8.1367	81.367	566.31432	543.53156	457.28254	313.26295	136.69656	0
332	57.77057	20.34175	-38.24249	-39.86983	48.8202	-8.1367	83.80801	573.63735	548.41358	457.28254	313.26295	141.57858	0
333	60.21158	20.34175	-40.6835	-39.86983	51.26121	-10.57771	83.80801	578.51937	553.2956	457.28254	313.26295	144.01959	0
334	65.0936	17.90074	-48.00653	-42.31084	56.14323	-15.45973	83.80801	580.96038	555.73661	459.72355	313.26295	146.4606	0
335	72.41663	17.90074	-55.32956	-44.75185	63.46626	-17.90074	83.80801	585.8424	560.61863	462.16456	313.26295	144.01959	0
336	79.73966	20.34175	-60.21158	-49.63387	70.78929	-20.34175	83.80801	590.72442	563.05964	467.04658	315.70396	141.57858	0
337	82.18067	22.78276	-60.21158	-52.07488	70.78929	-17.90074	83.80801	598.04745	570.38267	471.9286	318.14497	141.57858	0
338	82.18067	25.22377	-57.77057	-54.51589	70.78929	-15.45973	78.92599	605.37048	575.26469	474.36961	323.02699	139.13757	0
339	79.73966	27.66478	-52.88855	-54.51589	65.90727	-13.01872	78.92599	610.2525	577.7057	479.25163	325.468	139.13757	0
340	79.73966	27.66478	-52.88855	-54.51589	65.90727	-13.01872	78.92599	615.13452	580.14671	479.25163	325.468	139.13757	0
341	79.73966	27.66478	-52.88855	-54.51589	65.90727	-13.01872	81.367	620.01654	580.14671	479.25163	325.468	141.57858	0
342	79.73966	27.66478	-52.88855	-54.51589	65.90727	-13.01872	83.80801	620.01654	582.58772	476.81062	325.468	144.01959	0
343	82.18067	27.66478	-55.32956	-54.51589	68.34828	-13.01872	83.80801	620.01654	582.58772	471.9286	323.02699	146.4606	0
344	87.06269	22.78276	-65.0936	-54.51589	75.67131	-20.34175	83.80801	620.01654	582.58772	471.9286	320.58598	148.90161	0
345	91.94471	22.78276	-69.97562	-56.9569	80.55333	-22.78276	83.80801	620.01654	582.58772	471.9286	315.70396	148.90161	0
346	96.82673	20.34175	-77.29865	-59.39791	87.87636	-27.66478	81.367	620.01654	580.14671	471.9286	315.70396	144.01959	-1500	QRS-0
347	96.82673	17.90074	-79.73966	-56.9569	87.87636	-30.10579	78.92599	620.01654	580.14671	474.36961	315.70396	141.57858	0
348	96.82673	15.45973	-82.18067	-56.9569	90.31737	-32.5468	74.04397	620.01654	577.7057	469.48759	318.14497	139.13757	0
349	94.38572	15.45973	-79.73966	-54.51589	87.87636	-32.5468	71.60296	617.57553	575.26469	467.04658	318.14497	136.69656	0
350	94.38572	13.01872	-82.18067	-54.51589	87.87636	-34.98781	69.16195	612.69351	567.94166	462.16456	313.26295	134.25555	0
351	94.38572	13.01872	-82.18067	-54.51589	87.87636	-34.98781	69.16195	607.81149	560.61863	454.84153	308.38093	134.25555	0
352	94.38572	10.57771	-84.62168	-52.07488	90.31737	-37.42882	69.16195	600.48846	553.2956	447.5185	301.0579	134.25555	0
353	94.38572	8.1367	-87.06269	-52.07488	90.31737	-39.86983	69.16195	593.16543	548.41358	437.75446	296.17588	134.25555	0
354	99.26774	5.69569	-94.38572	-52.07488	97.6404	-44.75185	69.16195	583.40139	538.64954	432.87244	291.29386	134.25555	0
355	101.70875	3.25468	-99.26774	-52.07488	100.08141	-47.19286	66.72094	576.07836	528.8855	427.99042	283.97083	131.81454	0
356	106.59077	-2.44101	-109.03178	-52.07488	107.40444	-54.51589	64.27993	568.75533	519.12146	423.1084	279.08881	126.93252	0
357	109.03178	-2.44101	-111.47279	-54.51589	109.84545	-56.9569	61.83892	558.99129	509.35742	413.34436	276.6478	122.0505	0
358	111.47279	-2.44101	-113.9138	-54.51589	112.28646	-56.9569	54.51589	551.66826	499.59338	406.02133	271.76578	117.16848	0
359	116.35481	-4.88202	-121.23683	-56.9569	117.16848	-61.83892	52.07488	539.46321	487.38833	396.25729	266.88376	117.16848	0
360	116.35481	-7.32303	-123.67784	-54.51589	119.60949	-64.27993	47.19286	524.81715	475.18328	384.05224	257.11972	114.72747	0
361	113.9138	-9.76404	-123.67784	-52.07488	117.16848	-66.72094	44.75185	510.17109	458.09621	371.84719	247.35568	112.28646	0
362	113.9138	-12.20505	-126.11885	-52.07488	119.60949	-69.16195	42.31084	495.52503	445.89116	357.20113	235.15063	114.72747	0
363	113.9138	-14.64606	-128.55986	-49.63387	119.60949	-71.60296	42.31084	478.43796	431.2451	342.55507	225.38659	114.72747	0
364	116.35481	-17.08707	-133.44188	-49.63387	124.49151	-74.04397	37.42882	458.90988	416.59904	332.79103	218.06356	114.72747	0
365	116.35481	-19.52808	-135.88289	-49.63387	124.49151	-76.48498	34.98781	441.82281	401.95298	320.58598	208.29952	109.84545	0
366	116.35481	-21.96909	-138.3239	-47.19286	126.93252	-78.92599	30.10579	424.73574	382.4249	308.38093	200.97649	104.96343	0
367	121.23683	-24.4101	-145.64693	-49.63387	131.81454	-83.80801	25.22377	407.64867	367.77884	296.17588	193.65346	97.6404	0
368	123.67784	-24.4101	-148.08794	-49.63387	134.25555	-86.24902	19.52808	393.00261	350.69177	281.52982	186.33043	90.31737	0
369	123.67784	-26.85111	-150.52895	-49.63387	136.69656	-88.69003	14.64606	375.91554	331.16369	266.88376	179.0074	85.43535	0
370	126.11885	-26.85111	-152.96996	-49.63387	139.13757	-88.69003	9.76404	358.82847	311.63561	249.79669	166.80235	82.99434	0
371	126.11885	-31.73313	-157.85198	-47.19286	141.57858	-93.57205	7.32303	341.7414	289.66652	232.70962	154.5973	80.55333	0
372	126.11885	-34.17414	-160.29299	-47.19286	141.57858	-96.01306	4.88202	322.21332	272.57945	215.62255	142.39225	80.55333	0
373	121.23683	-36.61515	-157.85198	-42.31084	139.13757	-96.01306	2.44101	302.68524	253.05137	198.53548	130.1872	80.55333	0
374	121.23683	-39.05616	-160.29299	-42.31084	139.13757	-98.45407	0	283.15716	233.52329	186.33043	120.42316	80.55333	0
375	121.23683	-43.93818	-165.17501	-39.86983	141.57858	-103.33609	-2.44101	261.18807	216.43622	174.12538	110.65912	75.67131	0
376	121.23683	-46.37919	-167.61602	-37.42882	144.01959	-105.7771	-4.88202	241.65999	196.90814	161.92033	100.89508	70.78929	0
377	121.23683	-48.8202	-170.05703	-37.42882	144.01959	-108.21811	-9.76404	224.57292	179.82107	149.71528	96.01306	63.46626	0
378	121.23683	-48.8202	-170.05703	-37.42882	144.01959	-108.21811	-14.64606	205.04484	162.734	137.51023	88.69003	56.14323	0
379	118.79582	-51.26121	-170.05703	-34.98781	144.01959	-110.65912	-17.08707	185.51676	143.20592	122.86417	78.92599	51.26121	0
380	116.35481	-53.70222	-170.05703	-32.5468	141.57858	-110.65912	-21.96909	168.42969	123.67784	108.21811	69.16195	46.37919	0
381	111.47279	-53.70222	-165.17501	-30.10579	136.69656	-108.21811	-21.96909	148.90161	106.59077	91.13104	56.9569	41.49717	0
382	109.03178	-53.70222	-162.734	-27.66478	134.25555	-108.21811	-24.4101	131.81454	89.5037	76.48498	44.75185	39.05616	0
383	101.70875	-53.70222	-155.41097	-25.22377	126.93252	-103.33609	-26.85111	114.72747	74.85764	59.39791	32.5468	36.61515	0
384	96.82673	-53.70222	-150.52895	-22.78276	122.0505	-100.89508	-26.85111	97.6404	60.21158	49.63387	22.78276	34.17414	0
385	91.94471	-53.70222	-145.64693	-20.34175	117.16848	-98.45407	-29.29212	82.99434	45.56552	37.42882	12.20505	26.85111	0
386	89.5037	-53.70222	-143.20592	-17.90074	114.72747	-98.45407	-31.73313	70.78929	30.10579	27.66478	7.32303	19.52808	0
387	87.06269	-51.26121	-138.3239	-17.90074	112.28646	-93.57205	-31.73313	58.58424	20.34175	19.52808	0	12.20505	0
388	79.73966	-48.8202	-128.55986	-15.45973	102.52242	-88.69003	-34.17414	46.37919	8.1367	9.76404	-4.88202	4.88202	0
389	74.85764	-46.37919	-121.23683	-15.45973	97.6404	-83.80801	-34.17414	33.36047	-6.50936	2.44101	-9.76404	0	0
390	67.53461	-46.37919	-113.9138	-10.57771	90.31737	-78.92599	-36.61515	21.15542	-16.2734	-7.32303	-19.52808	-2.44101	0
391	60.21158	-43.93818	-104.14976	-8.1367	80.55333	-74.04397	-34.17414	8.95037	-30.91946	-17.08707	-26.85111	-2.44101	0
392	52.88855	-43.93818	-96.82673	-5.69569	73.2303	-69.16195	-31.73313	-3.25468	-40.6835	-24.4101	-34.17414	-2.44101	0
393	45.56552	-43.93818	-89.5037	-0.81367	65.90727	-66.72094	-29.29212	-15.45973	-48.00653	-34.17414	-39.05616	-2.44101	0
394	40.6835	-43.93818	-84.62168	1.62734	61.02525	-64.27993	-29.29212	-27.66478	-55.32956	-39.05616	-46.37919	-2.44101	0
395	35.80148	-43.93818	-79.73966	4.06835	56.14323	-61.83892	-29.29212	-34.98781	-62.65259	-43.93818	-51.26121	-8.1367	0
396	30.91946	-41.49717	-72.41663	4.06835	51.26121	-56.9569	-29.29212	-42.31084	-69.97562	-46.37919	-53.70222	-13.01872	0
397	26.03744	-36.61515	-62.65259	4.06835	43.93818	-49.63387	-29.29212	-47.19286	-74.85764	-51.26121	-56.14323	-20.34175	0
398	21.15542	-31.73313	-52.88855	4.06835	36.61515	-42.31084	-29.29212	-52.07488	-79.73966	-56.14323	-58.58424	-25.22377	0
399	16.2734	-29.29212	-45.56552	6.50936	29.29212	-37.42882	-29.29212	-54.51589	-84.62168	-61.02525	-58.58424	-30.10579	0
400	11.39138	-24.4101	-35.80148	6.50936	21.96909	-30.10579	-29.29212	-56.9569	-89.5037	-65.90727	-63.46626	-34.98781	0
401	4.06835	-21.96909	-26.03744	6.50936	14.64606	-22.78276	-26.85111	-61.83892	-94.38572	-70.78929	-65.90727	-37.42882	0
402	-0.81367	-19.52808	-18.71441	9.76404	7.32303	-17.90074	-24.4101	-66.72094	-96.82673	-75.67131	-70.78929	-37.42882	0
403	-3.25468	-19.52808	-16.2734	9.76404	4.88202	-17.90074	-24.4101	-71.60296	-101.70875	-80.55333	-75.67131	-37.42882	0
404	-5.69569	-19.52808	-13.83239	12.20505	2.44101	-15.45973	-24.4101	-76.48498	-104.14976	-82.99434	-80.55333	-39.86983	0
405	-8.1367	-17.08707	-8.95037	12.20505	0	-13.01872	-24.4101	-78.92599	-106.59077	-82.99434	-82.99434	-44.75185	0
406	-8.1367	-14.64606	-6.50936	9.76404	-2.44101	-10.57771	-21.96909	-81.367	-109.03178	-82.99434	-82.99434	-49.63387	0
407	-10.57771	-17.08707	-6.50936	12.20505	-2.44101	-10.57771	-21.96909	-81.367	-109.03178	-82.99434	-80.55333	-54.51589	0
408	-18.71441	-19.52808	-1.62734	17.08707	-9.76404	-10.57771	-24.4101	-81.367	-109.03178	-82.99434	-80.55333	-59.39791	0
409	-28.47845	-24.4101	3.25468	24.4101	-17.90074	-10.57771	-24.4101	-81.367	-111.47279	-82.99434	-78.11232	-61.83892	0
410	-35.80148	-24.4101	10.57771	29.29212	-25.22377	-8.1367	-21.96909	-83.80801	-111.47279	-82.99434	-78.11232	-64.27993	0
411	-33.36047	-17.08707	16.2734	24.4101	-25.22377	-0.81367	-17.08707	-81.367	-109.03178	-82.99434	-78.11232	-61.83892	0
412	-35.80148	-17.08707	18.71441	24.4101	-27.66478	-0.81367	-14.64606	-83.80801	-109.03178	-85.43535	-80.55333	-59.39791	0
413	-38.24249	-17.08707	21.15542	26.85111	-30.10579	1.62734	-12.20505	-86.24902	-109.03178	-87.87636	-80.55333	-59.39791	0
414	-33.36047	-17.08707	16.2734	24.4101	-25.22377	-0.81367	-12.20505	-88.69003	-109.03178	-85.43535	-80.55333	-56.9569	0
415	-28.47845	-12.20505	16.2734	19.52808	-22.78276	1.62734	-12.20505	-88.69003	-109.03178	-82.99434	-80.55333	-56.9569	0
416	-23.59643	-7.32303	16.2734	14.64606	-20.34175	4.06835	-12.20505	-86.24902	-106.59077	-78.11232	-78.11232	-59.39791	0
417	-35.80148	-19.52808	16.2734	26.85111	-27.66478	-3.25468	-14.64606	-88.69003	-109.03178	-80.55333	-78.11232	-66.72094	0
418	-45.56552	-29.29212	16.2734	36.61515	-32.5468	-8.1367	-21.96909	-88.69003	-109.03178	-82.99434	-75.67131	-74.04397	0
419	-43.12451	-21.96909	21.15542	31.73313	-32.5468	-0.81367	-21.96909	-86.24902	-106.59077	-78.11232	-68.34828	-71.60296	0
420	-43.12451	-17.08707	26.03744	29.29212	-34.98781	4.06835	-19.52808	-83.80801	-104.14976	-75.67131	-68.34828	-69.16195	0
421	-48.00653	-17.08707	30.91946	31.73313	-39.86983	7.32303	-19.52808	-81.367	-106.59077	-78.11232	-68.34828	-69.16195	0
422	-48.00653	-14.64606	33.36047	29.29212	-42.31084	9.76404	-17.08707	-83.80801	-106.59077	-78.11232	-70.78929	-66.72094	0
423	-43.12451	-12.20505	30.91946	26.85111	-37.42882	9.76404	-14.64606	-83.80801	-104.14976	-78.11232	-70.78929	-61.83892	0
424	-35.80148	-7.32303	28.47845	19.52808	-32.5468	9.76404	-12.20505	-83.80801	-101.70875	-75.67131	-70.78929	-61.83892	0
425	-30.91946	-4.88202	26.03744	17.08707	-30.10579	9.76404	-9.76404	-81.367	-101.70875	-75.67131	-70.78929	-61.83892	0
426	-35.80148	-12.20505	23.59643	21.96909	-30.10579	4.06835	-9.76404	-81.367	-101.70875	-75.67131	-70.78929	-69.16195	0
427	-35.80148	-12.20505	23.59643	21.96909	-30.10579	4.06835	-9.76404	-78.92599	-99.26774	-75.67131	-68.34828	-71.60296	0
428	-35.80148	-12.20505	23.59643	21.96909	-30.10579	4.06835	-9.76404	-76.48498	-96.82673	-73.2303	-63.46626	-74.04397	0
429	-40.6835	-12.20505	28.47845	24.4101	-34.98781	7.32303	-9.76404	-76.48498	-94.38572	-73.2303	-58.58424	-74.04397	0
430	-43.12451	-9.76404	33.36047	24.4101	-39.86983	12.20505	-7.32303	-74.04397	-91.94471	-70.78929	-58.58424	-71.60296	0
431	-43.12451	-9.76404	33.36047	24.4101	-39.86983	12.20505	-4.88202	-71.60296	-91.94471	-70.78929	-58.58424	-69.16195	0
432	-45.56552	-9.76404	35.80148	26.85111	-42.31084	12.20505	-2.44101	-71.60296	-91.94471	-73.2303	-58.58424	-66.72094	0
433	-45.56552	-12.20505	33.36047	26.85111	-39.86983	9.76404	0	-71.60296	-89.5037	-73.2303	-58.58424	-64.27993	0
434	-45.56552	-12.20505	33.36047	26.85111	-39.86983	9.76404	0	-71.60296	-87.06269	-73.2303	-61.02525	-61.83892	0
435	-45.56552	-12.20505	33.36047	26.85111	-39.86983	9.76404	0	-71.60296	-87.06269	-70.78929	-61.02525	-61.83892	0
436	-43.12451	-12.20505	30.91946	26.85111	-37.42882	9.76404	0	-69.16195	-84.62168	-68.34828	-61.02525	-64.27993	0
437	-40.6835	-12.20505	28.47845	24.4101	-34.98781	7.32303	0	-66.72094	-84.62168	-65.90727	-58.58424	-69.16195	0
438	-43.12451	-9.76404	33.36047	24.4101	-39.86983	12.20505	-4.88202	-66.72094	-79.73966	-65.90727	-53.70222	-71.60296	0
439	-43.12451	-7.32303	35.80148	24.4101	-39.86983	14.64606	-4.88202	-66.72094	-79.73966	-65.90727	-53.70222	-71.60296	0
440	-45.56552	-7.32303	38.24249	24.4101	-42.31084	14.64606	-4.88202	-66.72094	-79.73966	-65.90727	-53.70222	-71.60296	0
441	-48.00653	-7.32303	40.6835	26.85111	-44.75185	17.08707	-2.44101	-69.16195	-84.62168	-65.90727	-53.70222	-69.16195	0
442	-48.00653	-7.32303	40.6835	26.85111	-44.75185	17.08707	0	-74.04397	-84.62168	-70.78929	-56.14323	-66.72094	0
443	-48.00653	-9.76404	38.24249	26.85111	-44.75185	14.64606	0	-76.48498	-84.62168	-73.2303	-58.58424	-64.27993	0
444	-48.00653	-12.20505	35.80148	29.29212	-42.31084	12.20505	0	-78.92599	-87.06269	-73.2303	-61.02525	-61.83892	0
445	-48.00653	-12.20505	35.80148	29.29212	-42.31084	12.20505	0	-76.48498	-89.5037	-73.2303	-63.46626	-61.83892	0
446	-43.12451	-12.20505	30.91946	26.85111	-37.42882	9.76404	0	-74.04397	-89.5037	-70.78929	-63.46626	-64.27993	0
447	-43.12451	-9.76404	33.36047	24.4101	-39.86983	12.20505	0	-74.04397	-89.5037	-70.78929	-61.02525	-66.72094	0
448	-43.12451	-7.32303	35.80148	24.4101	-39.86983	14.64606	-4.88202	-74.04397	-89.5037	-70.78929	-58.58424	-66.72094	0
449	-43.12451	-4.88202	38.24249	21.96909	-42.31084	17.08707	-7.32303	-74.04397	-91.94471	-73.2303	-58.58424	-66.72094	0
450	-43.12451	-2.44101	40.6835	21.96909	-42.31084	19.52808	-9.76404	-74.04397	-94.38572	-73.2303	-58.58424	-66.72094	0
451	-43.12451	-2.44101	40.6835	21.96909	-42.31084	19.52808	-9.76404	-78.92599	-96.82673	-75.67131	-58.58424	-66.72094	0
452	-43.12451	0.81367	43.12451	19.52808	-42.31084	21.96909	-9.76404	-78.92599	-96.82673	-78.11232	-58.58424	-66.72094	0
453	-43.12451	0.81367	43.12451	19.52808	-42.31084	21.96909	-9.76404	-81.367	-96.82673	-80.55333	-61.02525	-64.27993	0
454	-43.12451	0.81367	43.12451	19.52808	-42.31084	21.96909	-9.76404	-81.367	-96.82673	-80.55333	-61.02525	-64.27993	0
455	-43.12451	0.81367	43.12451	19.52808	-42.31084	21.96909	-9.76404	-78.92599	-96.82673	-80.55333	-63.46626	-64.27993	0
456	-45.56552	-2.44101	43.12451	21.96909	-44.75185	19.52808	-7.32303	-76.48498	-96.82673	-80.55333	-63.46626	-66.72094	0
457	-48.00653	-2.44101	45.56552	24.4101	-47.19286	21.96909	-4.88202	-76.48498	-96.82673	-80.55333	-63.46626	-69.16195	0
458	-48.00653	-4.88202	43.12451	24.4101	-47.19286	19.52808	-4.88202	-76.48498	-96.82673	-82.99434	-63.46626	-69.16195	0
459	-48.00653	-4.88202	43.12451	24.4101	-47.19286	19.52808	-7.32303	-76.48498	-96.82673	-85.43535	-65.90727	-71.60296	0
460	-48.00653	-2.44101	45.56552	24.4101	-47.19286	21.96909	-7.32303	-76.48498	-96.82673	-87.87636	-68.34828	-74.04397	0
461	-48.00653	-2.44101	45.56552	24.4101	-47.19286	21.96909	-7.32303	-81.367	-99.26774	-87.87636	-70.78929	-76.48498	0
462	-48.00653	-2.44101	45.56552	24.4101	-47.19286	21.96909	-7.32303	-83.80801	-101.70875	-92.75838	-73.2303	-76.48498	0
463	-48.00653	0.81367	48.00653	21.96909	-47.19286	24.4101	-7.32303	-83.80801	-104.14976	-92.75838	-75.67131	-76.48498	0
464	-48.00653	3.25468	50.44754	21.96909	-49.63387	26.85111	-7.32303	-83.80801	-106.59077	-95.19939	-75.67131	-78.92599	0
465	-48.00653	3.25468	50.44754	21.96909	-49.63387	26.85111	-7.32303	-83.80801	-106.59077	-97.6404	-78.11232	-78.92599	0
466	-48.00653	3.25468	50.44754	21.96909	-49.63387	26.85111	-9.76404	-83.80801	-109.03178	-97.6404	-80.55333	-78.92599	0
467	-48.00653	3.25468	50.44754	21.96909	-49.63387	26.85111	-9.76404	-83.80801	-109.03178	-100.08141	-82.99434	-81.367	0
468	-48.00653	3.25468	50.44754	21.96909	-49.63387	26.85111	-9.76404	-83.80801	-109.03178	-102.52242	-82.99434	-81.367	0
469	-48.00653	3.25468	50.44754	21.96909	-49.63387	26.85111	-9.76404	-86.24902	-111.47279	-102.52242	-85.43535	-81.367	0
470	-48.00653	3.25468	50.44754	21.96909	-49.63387	26.85111	-7.32303	-88.69003	-111.47279	-102.52242	-85.43535	-81.367	0
471	-45.56552	3.25468	48.00653	19.52808	-47.19286	24.4101	-7.32303	-88.69003	-111.47279	-102.52242	-85.43535	-81.367	0
472	-45.56552	3.25468	48.00653	19.52808	-47.19286	24.4101	-7.32303	-91.13104	-111.47279	-104.96343	-85.43535	-81.367	0
473	-45.56552	0.81367	45.56552	21.96909	-44.75185	21.96909	-4.88202	-91.13104	-111.47279	-104.96343	-82.99434	-81.367	0
474	-45.56552	0.81367	45.56552	21.96909	-44.75185	21.96909	-4.88202	-91.13104	-111.47279	-104.96343	-82.99434	-81.367	0
475	-48.00653	-2.44101	45.56552	24.4101	-47.19286	21.96909	-4.88202	-88.69003	-111.47279	-104.96343	-80.55333	-81.367	0
476	-48.00653	-2.44101	45.56552	24.4101	-47.19286	21.96909	-4.88202	-86.24902	-111.47279	-104.96343	-80.55333	-81.367	0
477	-48.00653	-2.44101	45.56552	24.4101	-47.19286	21.96909	-4.88202	-86.24902	-111.47279	-104.96343	-80.55333	-83.80801	0
478	-50.44754	-2.44101	48.00653	24.4101	-49.63387	21.96909	-4.88202	-86.24902	-111.47279	-104.96343	-80.55333	-83.80801	0
479	-52.88855	-2.44101	50.44754	26.85111	-52.07488	24.4101	-4.88202	-83.80801	-111.47279	-102.52242	-80.55333	-83.80801	0
480	-52.88855	-2.44101	50.44754	26.85111	-52.07488	24.4101	-4.88202	-83.80801	-109.03178	-102.52242	-80.55333	-83.80801	0
481	-52.88855	0.81367	52.88855	24.4101	-52.07488	26.85111	-4.88202	-83.80801	-109.03178	-102.52242	-80.55333	-86.24902	0
482	-52.88855	3.25468	55.32956	24.4101	-54.51589	29.29212	-4.88202	-86.24902	-109.03178	-102.52242	-80.55333	-86.24902	0
483	-52.88855	3.25468	55.32956	24.4101	-54.51589	29.29212	-4.88202	-86.24902	-109.03178	-104.96343	-80.55333	-88.69003	0
484	-52.88855	3.25468	55.32956	24.4101	-54.51589	29.29212	-4.88202	-86.24902	-109.03178	-104.96343	-82.99434	-91.13104	0
485	-52.88855	3.25468	55.32956	24.4101	-54.51589	29.29212	-4.88202	-86.24902	-109.03178	-104.96343	-85.43535	-93.57205	0
486	-55.32956	0.81367	55.32956	26.85111	-54.51589	26.85111	-4.88202	-86.24902	-109.03178	-104.96343	-85.43535	-93.57205	0
487	-55.32956	-2.44101	52.88855	26.85111	-54.51589	24.4101	-2.44101	-88.69003	-109.03178	-104.96343	-87.87636	-91.13104	0
488	-57.77057	-2.44101	55.32956	29.29212	-56.9569	26.85111	-2.44101	-88.69003	-109.03178	-104.96343	-87.87636	-88.69003	0
489	-62.65259	-4.88202	57.77057	31.73313	-61.83892	26.85111	-2.44101	-91.13104	-104.14976	-107.40444	-87.87636	-88.69003	0
490	-67.53461	-12.20505	55.32956	39.05616	-61.83892	21.96909	-4.88202	-93.57205	-104.14976	-109.84545	-90.31737	-86.24902	0
491	-72.41663	-17.08707	55.32956	43.93818	-64.27993	19.52808	-7.32303	-98.45407	-106.59077	-112.28646	-92.75838	-86.24902	0
492	-69.97562	-14.64606	55.32956	41.49717	-64.27993	19.52808	-7.32303	-100.89508	-109.03178	-112.28646	-92.75838	-88.69003	0
493	-62.65259	-7.32303	55.32956	34.17414	-59.39791	24.4101	-7.32303	-98.45407	-109.03178	-112.28646	-87.87636	-88.69003	0
494	-62.65259	-4.88202	57.77057	31.73313	-61.83892	26.85111	-7.32303	-98.45407	-109.03178	-112.28646	-87.87636	-91.13104	0
495	-65.0936	-2.44101	62.65259	31.73313	-64.27993	29.29212	-7.32303	-98.45407	-109.03178	-112.28646	-85.43535	-96.01306	0
496	-62.65259	0.81367	62.65259	29.29212	-61.83892	31.73313	-7.32303	-98.45407	-109.03178	-112.28646	-80.55333	-93.57205	0
497	-60.21158	8.1367	67.53461	24.4101	-64.27993	36.61515	-4.88202	-98.45407	-109.03178	-109.84545	-78.11232	-91.13104	0
498	-57.77057	13.01872	69.97562	21.96909	-64.27993	41.49717	-2.44101	-96.01306	-109.03178	-109.84545	-78.11232	-86.24902	0
499	-65.0936	5.69569	69.97562	29.29212	-66.72094	36.61515	-2.44101	-98.45407	-109.03178	-112.28646	-78.11232	-83.80801	0
500	-67.53461	5.69569	72.41663	29.29212	-69.16195	39.05616	-2.44101	-103.33609	-109.03178	-112.28646	-78.11232	-78.92599	0
501	-67.53461	5.69569	72.41663	29.29212	-69.16195	39.05616	-2.44101	-103.33609	-106.59077	-112.28646	-78.11232	-78.92599	0
502	-65.0936	5.69569	69.97562	29.29212	-66.72094	36.61515	-2.44101	-105.7771	-106.59077	-109.84545	-78.11232	-74.04397	0
503	-65.0936	5.69569	69.97562	29.29212	-66.72094	36.61515	-2.44101	-103.33609	-106.59077	-107.40444	-78.11232	-76.48498	0
504	-62.65259	5.69569	67.53461	26.85111	-64.27993	36.61515	-4.88202	-100.89508	-104.14976	-104.96343	-75.67131	-78.92599	0
505	-62.65259	5.69569	67.53461	26.85111	-64.27993	36.61515	-4.88202	-98.45407	-101.70875	-104.96343	-73.2303	-81.367	0
506	-67.53461	5.69569	72.41663	29.29212	-69.16195	39.05616	-4.88202	-98.45407	-101.70875	-102.52242	-70.78929	-81.367	0
507	-69.97562	5.69569	74.85764	31.73313	-71.60296	39.05616	-4.88202	-98.45407	-101.70875	-102.52242	-68.34828	-81.367	0
508	-69.97562	3.25468	72.41663	31.73313	-71.60296	36.61515	-2.44101	-98.45407	-104.14976	-104.96343	-70.78929	-78.92599	0
509	-69.97562	3.25468	72.41663	31.73313	-71.60296	36.61515	-2.44101	-100.89508	-106.59077	-107.40444	-73.2303	-76.48498	0
510	-69.97562	3.25468	72.41663	31.73313	-71.60296	36.61515	-2.44101	-103.33609	-106.59077	-109.84545	-73.2303	-74.04397	0
511	-67.53461	3.25468	69.97562	31.73313	-69.16195	36.61515	-2.44101	-108.21811	-104.14976	-112.28646	-73.2303	-71.60296	0
512	-62.65259	3.25468	65.0936	29.29212	-64.27993	34.17414	-2.44101	-108.21811	-104.14976	-112.28646	-75.67131	-69.16195	0
513	-62.65259	3.25468	65.0936	29.29212	-64.27993	34.17414	-2.44101	-105.7771	-104.14976	-107.40444	-75.67131	-71.60296	0
514	-62.65259	3.25468	65.0936	29.29212	-64.27993	34.17414	-2.44101	-100.89508	-101.70875	-104.96343	-75.67131	-71.60296	0
515	-67.53461	5.69569	72.41663	29.29212	-69.16195	39.05616	0	-98.45407	-99.26774	-102.52242	-73.2303	-74.04397	0
516	-72.41663	3.25468	74.85764	34.17414	-74.04397	39.05616	0	-96.01306	-99.26774	-100.08141	-70.78929	-74.04397	0
517	-74.85764	3.25468	77.29865	34.17414	-76.48498	39.05616	0	-93.57205	-99.26774	-97.6404	-68.34828	-71.60296	0
518	-74.85764	3.25468	77.29865	34.17414	-76.48498	39.05616	2.44101	-93.57205	-99.26774	-100.08141	-68.34828	-69.16195	0
519	-72.41663	3.25468	74.85764	34.17414	-74.04397	39.05616	2.44101	-96.01306	-101.70875	-102.52242	-73.2303	-66.72094	0
520	-67.53461	5.69569	72.41663	29.29212	-69.16195	39.05616	2.44101	-98.45407	-101.70875	-104.96343	-73.2303	-64.27993	0
521	-62.65259	5.69569	67.53461	26.85111	-64.27993	36.61515	2.44101	-103.33609	-101.70875	-107.40444	-73.2303	-64.27993	0
522	-62.65259	5.69569	67.53461	26.85111	-64.27993	36.61515	4.88202	-105.7771	-99.26774	-107.40444	-75.67131	-61.83892	0
523	-60.21158	5.69569	65.0936	26.85111	-61.83892	34.17414	7.32303	-103.33609	-96.82673	-104.96343	-75.67131	-64.27993	0
524	-60.21158	5.69569	65.0936	26.85111	-61.83892	34.17414	7.32303	-100.89508	-94.38572	-102.52242	-73.2303	-66.72094	0
525	-65.0936	3.25468	67.53461	29.29212	-66.72094	34.17414	9.76404	-96.01306	-91.94471	-102.52242	-70.78929	-66.72094	0
526	-72.41663	3.25468	74.85764	34.17414	-74.04397	39.05616	12.20505	-96.01306	-89.5037	-100.08141	-68.34828	-69.16195	0
527	-77.29865	3.25468	79.73966	36.61515	-78.92599	41.49717	14.64606	-96.01306	-89.5037	-100.08141	-65.90727	-69.16195	0
528	-77.29865	3.25468	79.73966	36.61515	-78.92599	41.49717	14.64606	-93.57205	-91.94471	-100.08141	-68.34828	-71.60296	0
529	-72.41663	3.25468	74.85764	34.17414	-74.04397	39.05616	14.64606	-98.45407	-94.38572	-102.52242	-70.78929	-71.60296	0
530	-67.53461	5.69569	72.41663	29.29212	-69.16195	39.05616	17.08707	-100.89508	-94.38572	-104.96343	-70.78929	-71.60296	0
531	-67.53461	5.69569	72.41663	29.29212	-69.16195	39.05616	17.08707	-105.7771	-94.38572	-107.40444	-70.78929	-71.60296	0
532	-62.65259	5.69569	67.53461	26.85111	-64.27993	36.61515	17.08707	-105.7771	-91.94471	-104.96343	-73.2303	-71.60296	0
533	-60.21158	5.69569	65.0936	26.85111	-61.83892	34.17414	19.52808	-105.7771	-91.94471	-102.52242	-73.2303	-74.04397	0
534	-62.65259	5.69569	67.53461	26.85111	-64.27993	36.61515	19.52808	-100.89508	-89.5037	-100.08141	-70.78929	-74.04397	0
535	-67.53461	5.69569	72.41663	29.29212	-69.16195	39.05616	21.96909	-98.45407	-87.06269	-97.6404	-65.90727	-74.04397	0
536	-72.41663	5.69569	77.29865	31.73313	-74.04397	41.49717	21.96909	-96.01306	-87.06269	-97.6404	-63.46626	-74.04397	0
537	-74.85764	3.25468	77.29865	34.17414	-76.48498	39.05616	21.96909	-96.01306	-87.06269	-95.19939	-61.02525	-74.04397	0
538	-74.85764	3.25468	77.29865	34.17414	-76.48498	39.05616	21.96909	-98.45407	-87.06269	-97.6404	-61.02525	-74.04397	0
539	-72.41663	3.25468	74.85764	34.17414	-74.04397	39.05616	21.96909	-100.89508	-89.5037	-100.08141	-63.46626	-69.16195	0
540	-69.97562	0.81367	69.97562	34.17414	-69.16195	34.17414	21.96909	-105.7771	-87.06269	-102.52242	-63.46626	-66.72094	0
541	-69.97562	0.81367	69.97562	34.17414	-69.16195	34.17414	21.96909	-108.21811	-87.06269	-104.96343	-65.90727	-66.72094	0
542	-69.97562	-2.44101	67.53461	34.17414	-69.16195	31.73313	19.52808	-110.65912	-87.06269	-104.96343	-68.34828	-66.72094	0
543	-74.85764	-7.32303	67.53461	39.05616	-71.60296	29.29212	17.08707	-110.65912	-87.06269	-104.96343	-70.78929	-71.60296	0
544	-77.29865	-9.76404	67.53461	41.49717	-74.04397	29.29212	14.64606	-110.65912	-87.06269	-100.08141	-70.78929	-74.04397	0
545	-72.41663	-2.44101	69.97562	36.61515	-71.60296	34.17414	19.52808	-103.33609	-82.18067	-97.6404	-65.90727	-74.04397	0
546	-77.29865	-2.44101	74.85764	39.05616	-76.48498	36.61515	19.52808	-100.89508	-82.18067	-95.19939	-63.46626	-76.48498	0
547	-79.73966	-2.44101	77.29865	39.05616	-78.92599	36.61515	19.52808	-100.89508	-82.18067	-95.19939	-61.02525	-76.48498	0
548	-79.73966	-2.44101	77.29865	39.05616	-78.92599	36.61515	19.52808	-100.89508	-82.18067	-95.19939	-61.02525	-71.60296	0
549	-72.41663	3.25468	74.85764	34.17414	-74.04397	39.05616	21.96909	-100.89508	-79.73966	-95.19939	-61.02525	-69.16195	0
550	-65.0936	10.57771	74.85764	26.85111	-69.16195	41.49717	21.96909	-100.89508	-79.73966	-97.6404	-61.02525	-61.83892	0
551	-67.53461	5.69569	72.41663	29.29212	-69.16195	39.05616	21.96909	-105.7771	-79.73966	-100.08141	-65.90727	-61.83892	0
552	-67.53461	0.81367	67.53461	31.73313	-66.72094	34.17414	21.96909	-108.21811	-79.73966	-100.08141	-65.90727	-61.83892	0
553	-62.65259	3.25468	65.0936	29.29212	-64.27993	34.17414	21.96909	-105.7771	-82.18067	-97.6404	-68.34828	-66.72094	0
554	-60.21158	5.69569	65.0936	26.85111	-61.83892	34.17414	21.96909	-103.33609	-79.73966	-95.19939	-68.34828	-69.16195	0
555	-62.65259	5.69569	67.53461	26.85111	-64.27993	36.61515	19.52808	-100.89508	-79.73966	-95.19939	-65.90727	-69.16195	0
556	-65.0936	5.69569	69.97562	29.29212	-66.72094	36.61515	19.52808	-100.89508	-79.73966	-92.75838	-61.02525	-71.60296	0
557	-69.97562	5.69569	74.85764	31.73313	-71.60296	39.05616	21.96909	-98.45407	-79.73966	-90.31737	-58.58424	-71.60296	0
558	-69.97562	5.69569	74.85764	31.73313	-71.60296	39.05616	21.96909	-98.45407	-79.73966	-90.31737	-58.58424	-69.16195	0
559	-69.97562	5.69569	74.85764	31.73313	-71.60296	39.05616	21.96909	-98.45407	-79.73966	-92.75838	-61.02525	-66.72094	0
560	-72.41663	3.25468	74.85764	34.17414	-74.04397	39.05616	21.96909	-103.33609	-79.73966	-95.19939	-61.02525	-64.27993	0
561	-72.41663	3.25468	74.85764	34.17414	-74.04397	39.05616	25.22377	-105.7771	-79.73966	-95.19939	-61.02525	-61.83892	0
562	-69.97562	0.81367	69.97562	34.17414	-69.16195	34.17414	25.22377	-105.7771	-77.29865	-95.19939	-63.46626	-61.83892	0
563	-67.53461	0.81367	67.53461	31.73313	-66.72094	34.17414	25.22377	-105.7771	-77.29865	-92.75838	-63.46626	-61.83892	0
564	-62.65259	3.25468	65.0936	29.29212	-64.27993	34.17414	25.22377	-103.33609	-77.29865	-90.31737	-63.46626	-66.72094	0
565	-62.65259	3.25468	65.0936	29.29212	-64.27993	34.17414	25.22377	-103.33609	-77.29865	-90.31737	-61.02525	-69.16195	0
566	-67.53461	3.25468	69.97562	31.73313	-69.16195	36.61515	21.96909	-100.89508	-77.29865	-87.87636	-61.02525	-69.16195	0
567	-67.53461	3.25468	69.97562	31.73313	-69.16195	36.61515	21.96909	-98.45407	-77.29865	-87.87636	-58.58424	-69.16195	0
568	-69.97562	3.25468	72.41663	31.73313	-71.60296	36.61515	21.96909	-98.45407	-82.18067	-87.87636	-58.58424	-66.72094	0
569	-69.97562	0.81367	69.97562	34.17414	-69.16195	34.17414	21.96909	-100.89508	-82.18067	-90.31737	-58.58424	-64.27993	0
570	-72.41663	0.81367	72.41663	34.17414	-71.60296	36.61515	25.22377	-100.89508	-79.73966	-95.19939	-58.58424	-61.83892	0
571	-72.41663	-2.44101	69.97562	36.61515	-71.60296	34.17414	25.22377	-103.33609	-77.29865	-95.19939	-58.58424	-59.39791	0
572	-67.53461	0.81367	67.53461	31.73313	-66.72094	34.17414	25.22377	-103.33609	-77.29865	-92.75838	-61.02525	-56.9569	0
573	-65.0936	0.81367	65.0936	31.73313	-64.27993	31.73313	25.22377	-100.89508	-77.29865	-90.31737	-61.02525	-59.39791	0
574	-62.65259	0.81367	62.65259	29.29212	-61.83892	31.73313	25.22377	-100.89508	-77.29865	-87.87636	-61.02525	-61.83892	0
575	-65.0936	3.25468	67.53461	29.29212	-66.72094	34.17414	25.22377	-96.01306	-72.41663	-85.43535	-58.58424	-66.72094	0
576	-67.53461	5.69569	72.41663	29.29212	-69.16195	39.05616	25.22377	-96.01306	-72.41663	-85.43535	-56.14323	-69.16195	0
577	-69.97562	5.69569	74.85764	31.73313	-71.60296	39.05616	25.22377	-93.57205	-72.41663	-82.99434	-53.70222	-69.16195	0
578	-69.97562	5.69569	74.85764	31.73313	-71.60296	39.05616	25.22377	-93.57205	-74.85764	-85.43535	-56.14323	-69.16195	0
579	-67.53461	3.25468	69.97562	31.73313	-69.16195	36.61515	21.96909	-98.45407	-74.85764	-87.87636	-58.58424	-66.72094	0
580	-65.0936	3.25468	67.53461	29.29212	-66.72094	34.17414	21.96909	-98.45407	-72.41663	-90.31737	-58.58424	-64.27993	0
581	-65.0936	3.25468	67.53461	29.29212	-66.72094	34.17414	21.96909	-100.89508	-72.41663	-92.75838	-58.58424	-61.83892	0
582	-60.21158	3.25468	62.65259	26.85111	-61.83892	31.73313	21.96909	-100.89508	-72.41663	-90.31737	-58.58424	-59.39791	0
583	-60.21158	3.25468	62.65259	26.85111	-61.83892	31.73313	21.96909	-100.89508	-72.41663	-87.87636	-58.58424	-59.39791	0
584	-60.21158	3.25468	62.65259	26.85111	-61.83892	31.73313	21.96909	-98.45407	-69.97562	-85.43535	-58.58424	-61.83892	0
585	-65.0936	3.25468	67.53461	29.29212	-66.72094	34.17414	25.22377	-93.57205	-67.53461	-85.43535	-56.14323	-64.27993	0
586	-69.97562	3.25468	72.41663	31.73313	-71.60296	36.61515	25.22377	-93.57205	-67.53461	-82.99434	-56.14323	-64.27993	0
587	-72.41663	3.25468	74.85764	34.17414	-74.04397	39.05616	25.22377	-93.57205	-67.53461	-82.99434	-56.14323	-64.27993	0
588	-72.41663	3.25468	74.85764	34.17414	-74.04397	39.05616	25.22377	-93.57205	-69.97562	-87.87636	-56.14323	-64.27993	0
589	-67.53461	3.25468	69.97562	31.73313	-69.16195	36.61515	25.22377	-96.01306	-69.97562	-90.31737	-61.02525	-64.27993	0
590	-65.0936	3.25468	67.53461	29.29212	-66.72094	34.17414	21.96909	-98.45407	-69.97562	-95.19939	-61.02525	-64.27993	0
591	-62.65259	3.25468	65.0936	29.29212	-64.27993	34.17414	21.96909	-100.89508	-69.97562	-95.19939	-63.46626	-61.83892	0
592	-60.21158	3.25468	62.65259	26.85111	-61.83892	31.73313	21.96909	-100.89508	-69.97562	-95.19939	-63.46626	-61.83892	0
593	-60.21158	3.25468	62.65259	26.85111	-61.83892	31.73313	25.22377	-96.01306	-69.97562	-90.31737	-63.46626	-61.83892	0
594	-60.21158	3.25468	62.65259	26.85111	-61.83892	31.73313	25.22377	-93.57205	-67.53461	-85.43535	-61.02525	-61.83892	0
595	-65.0936	3.25468	67.53461	29.29212	-66.72094	34.17414	25.22377	-88.69003	-62.65259	-82.99434	-56.14323	-61.83892	0
596	-67.53461	3.25468	69.97562	31.73313	-69.16195	36.61515	25.22377	-86.24902	-62.65259	-80.55333	-53.70222	-61.83892	0
597	-69.97562	3.25468	72.41663	31.73313	-71.60296	36.61515	25.22377	-83.80801	-62.65259	-80.55333	-51.26121	-61.83892	0
598	-69.97562	3.25468	72.41663	31.73313	-71.60296	36.61515	25.22377	-83.80801	-65.0936	-80.55333	-51.26121	-61.83892	0
599	-67.53461	0.81367	67.53461	31.73313	-66.72094	34.17414	25.22377	-86.24902	-67.53461	-82.99434	-53.70222	-59.39791	0
600	-67.53461	-2.44101	65.0936	34.17414	-66.72094	31.73313	21.96909	-91.13104	-69.97562	-87.87636	-56.14323	-59.39791	0
601	-69.97562	-7.32303	62.65259	36.61515	-66.72094	26.85111	21.96909	-96.01306	-72.41663	-90.31737	-61.02525	-59.39791	0
602	-69.97562	-9.76404	60.21158	39.05616	-66.72094	24.4101	19.52808	-98.45407	-74.85764	-90.31737	-61.02525	-59.39791	0
603	-62.65259	-2.44101	60.21158	31.73313	-61.83892	29.29212	21.96909	-93.57205	-72.41663	-85.43535	-61.02525	-59.39791	0
604	-65.0936	0.81367	65.0936	31.73313	-64.27993	31.73313	21.96909	-91.13104	-67.53461	-82.99434	-58.58424	-64.27993	0
605	-69.97562	0.81367	69.97562	34.17414	-69.16195	34.17414	21.96909	-86.24902	-67.53461	-82.99434	-56.14323	-64.27993	0
606	-72.41663	3.25468	74.85764	34.17414	-74.04397	39.05616	21.96909	-83.80801	-67.53461	-80.55333	-53.70222	-66.72094	0
607	-69.97562	8.1367	77.29865	29.29212	-74.04397	41.49717	21.96909	-81.367	-65.0936	-78.11232	-51.26121	-64.27993	0
608	-62.65259	13.01872	74.85764	24.4101	-69.16195	43.93818	21.96909	-78.92599	-67.53461	-78.11232	-51.26121	-61.83892	0
609	-60.21158	10.57771	69.97562	24.4101	-64.27993	39.05616	21.96909	-81.367	-69.97562	-82.99434	-53.70222	-61.83892	0
610	-62.65259	5.69569	67.53461	26.85111	-64.27993	36.61515	21.96909	-86.24902	-72.41663	-87.87636	-58.58424	-59.39791	0
611	-57.77057	5.69569	62.65259	24.4101	-59.39791	34.17414	21.96909	-88.69003	-72.41663	-90.31737	-58.58424	-56.9569	0
612	-52.88855	5.69569	57.77057	21.96909	-54.51589	31.73313	21.96909	-88.69003	-72.41663	-90.31737	-61.02525	-54.51589	0
613	-52.88855	5.69569	57.77057	21.96909	-54.51589	31.73313	21.96909	-86.24902	-72.41663	-87.87636	-61.02525	-54.51589	0
614	-52.88855	5.69569	57.77057	21.96909	-54.51589	31.73313	21.96909	-83.80801	-69.97562	-82.99434	-58.58424	-56.9569	0
615	-57.77057	3.25468	60.21158	26.85111	-59.39791	31.73313	21.96909	-78.92599	-67.53461	-82.99434	-56.14323	-56.9569	0
616	-65.0936	3.25468	67.53461	29.29212	-66.72094	34.17414	17.08707	-78.92599	-67.53461	-82.99434	-53.70222	-59.39791	0
617	-67.53461	3.25468	69.97562	31.73313	-69.16195	36.61515	17.08707	-78.92599	-69.97562	-82.99434	-53.70222	-59.39791	0
618	-67.53461	0.81367	67.53461	31.73313	-66.72094	34.17414	14.64606	-78.92599	-74.85764	-82.99434	-53.70222	-56.9569	0
619	-65.0936	0.81367	65.0936	31.73313	-64.27993	31.73313	12.20505	-83.80801	-74.85764	-87.87636	-56.14323	-56.9569	0
620	-62.65259	0.81367	62.65259	29.29212	-61.83892	31.73313	12.20505	-86.24902	-77.29865	-90.31737	-58.58424	-54.51589	0
621	-62.65259	-2.44101	60.21158	31.73313	-61.83892	29.29212	12.20505	-91.13104	-79.73966	-92.75838	-61.02525	-54.51589	0
622	-62.65259	-2.44101	60.21158	31.73313	-61.83892	29.29212	9.76404	-93.57205	-82.18067	-92.75838	-63.46626	-54.51589	0
623	-65.0936	-7.32303	57.77057	34.17414	-61.83892	24.4101	9.76404	-93.57205	-84.62168	-92.75838	-65.90727	-56.9569	0
624	-62.65259	-2.44101	60.21158	31.73313	-61.83892	29.29212	12.20505	-93.57205	-79.73966	-90.31737	-63.46626	-59.39791	0
625	-62.65259	0.81367	62.65259	29.29212	-61.83892	31.73313	14.64606	-88.69003	-77.29865	-90.31737	-58.58424	-59.39791	0
626	-67.53461	0.81367	67.53461	31.73313	-66.72094	34.17414	14.64606	-91.13104	-77.29865	-87.87636	-58.58424	-59.39791	0
627	-69.97562	0.81367	69.97562	34.17414	-69.16195	34.17414	17.08707	-91.13104	-79.73966	-87.87636	-58.58424	-59.39791	0
628	-69.97562	3.25468	72.41663	31.73313	-71.60296	36.61515	19.52808	-91.13104	-84.62168	-90.31737	-61.02525	-59.39791	0
629	-62.65259	8.1367	69.97562	26.85111	-66.72094	39.05616	19.52808	-93.57205	-84.62168	-92.75838	-61.02525	-56.9569	0
630	-55.32956	10.57771	65.0936	21.96909	-59.39791	36.61515	21.96909	-98.45407	-84.62168	-95.19939	-61.02525	-54.51589	0
631	-60.21158	0.81367	60.21158	29.29212	-59.39791	29.29212	19.52808	-103.33609	-89.5037	-100.08141	-68.34828	-54.51589	0
632	-57.77057	0.81367	57.77057	26.85111	-56.9569	29.29212	19.52808	-105.7771	-89.5037	-100.08141	-70.78929	-54.51589	0
633	-57.77057	0.81367	57.77057	26.85111	-56.9569	29.29212	19.52808	-105.7771	-89.5037	-100.08141	-70.78929	-56.9569	0
634	-55.32956	0.81367	55.32956	26.85111	-54.51589	26.85111	19.52808	-103.33609	-89.5037	-97.6404	-70.78929	-59.39791	0
635	-55.32956	0.81367	55.32956	26.85111	-54.51589	26.85111	19.52808	-100.89508	-89.5037	-97.6404	-65.90727	-61.83892	0
636	-60.21158	0.81367	60.21158	29.29212	-59.39791	29.29212	19.52808	-100.89508	-89.5037	-97.6404	-63.46626	-64.27993	0
637	-65.0936	0.81367	65.0936	31.73313	-64.27993	31.73313	17.08707	-100.89508	-94.38572	-97.6404	-63.46626	-64.27993	0
638	-65.0936	0.81367	65.0936	31.73313	-64.27993	31.73313	17.08707	-100.89508	-96.82673	-100.08141	-63.46626	-64.27993	0
639	-65.0936	0.81367	65.0936	31.73313	-64.27993	31.73313	17.08707	-105.7771	-99.26774	-102.52242	-68.34828	-61.83892	0
640	-65.0936	0.81367	65.0936	31.73313	-64.27993	31.73313	17.08707	-110.65912	-99.26774	-104.96343	-68.34828	-61.83892	0
641	-65.0936	0.81367	65.0936	31.73313	-64.27993	31.73313	17.08707	-113.10013	-99.26774	-107.40444	-68.34828	-59.39791	0
642	-60.21158	0.81367	60.21158	29.29212	-59.39791	29.29212	17.08707	-115.54114	-101.70875	-107.40444	-70.78929	-56.9569	0
643	-57.77057	3.25468	60.21158	26.85111	-59.39791	31.73313	19.52808	-113.10013	-101.70875	-104.96343	-73.2303	-59.39791	0
644	-55.32956	5.69569	60.21158	24.4101	-56.9569	31.73313	19.52808	-110.65912	-99.26774	-100.08141	-70.78929	-61.83892	0
645	-52.88855	8.1367	60.21158	21.96909	-56.9569	34.17414	19.52808	-108.21811	-96.82673	-100.08141	-68.34828	-64.27993	0
646	-52.88855	13.01872	65.0936	19.52808	-59.39791	39.05616	19.52808	-108.21811	-96.82673	-100.08141	-65.90727	-64.27993	0
647	-55.32956	15.45973	69.97562	19.52808	-61.83892	41.49717	19.52808	-108.21811	-96.82673	-100.08141	-63.46626	-64.27993	0
648	-55.32956	20.34175	74.85764	17.08707	-64.27993	46.37919	21.96909	-105.7771	-96.82673	-100.08141	-61.02525	-61.83892	0
649	-55.32956	25.22377	79.73966	14.64606	-66.72094	51.26121	21.96909	-105.7771	-91.94471	-97.6404	-61.02525	-56.9569	0
650	-52.88855	30.10579	82.18067	9.76404	-66.72094	56.14323	21.96909	-100.89508	-89.5037	-97.6404	-58.58424	-49.63387	0
651	-50.44754	37.42882	87.06269	6.50936	-69.16195	61.02525	25.22377	-100.89508	-87.06269	-97.6404	-56.14323	-44.75185	0
652	-45.56552	44.75185	89.5037	-0.81367	-66.72094	65.90727	25.22377	-98.45407	-82.18067	-92.75838	-53.70222	-42.31084	0
653	-38.24249	52.07488	89.5037	-8.1367	-64.27993	70.78929	27.66478	-93.57205	-79.73966	-87.87636	-51.26121	-42.31084	0
654	-30.91946	61.83892	91.94471	-15.45973	-61.83892	75.67131	27.66478	-86.24902	-72.41663	-80.55333	-48.8202	-42.31084	0
655	-28.47845	69.16195	96.82673	-20.34175	-61.83892	82.99434	27.66478	-83.80801	-69.97562	-78.11232	-41.49717	-42.31084	0
656	-28.47845	74.04397	101.70875	-22.78276	-64.27993	87.87636	25.22377	-83.80801	-67.53461	-73.2303	-36.61515	-39.86983	0
657	-26.03744	81.367	106.59077	-27.66478	-66.72094	92.75838	25.22377	-83.80801	-65.0936	-70.78929	-34.17414	-37.42882	0
658	-28.47845	86.24902	113.9138	-30.10579	-71.60296	100.08141	21.96909	-81.367	-65.0936	-70.78929	-34.17414	-34.98781	0
659	-30.91946	88.69003	118.79582	-30.10579	-74.04397	102.52242	21.96909	-81.367	-65.0936	-68.34828	-34.17414	-30.10579	0
660	-33.36047	88.69003	121.23683	-27.66478	-76.48498	104.96343	17.08707	-81.367	-62.65259	-70.78929	-31.73313	-25.22377	0
661	-33.36047	88.69003	121.23683	-27.66478	-76.48498	104.96343	14.64606	-81.367	-60.21158	-70.78929	-31.73313	-20.34175	0
662	-28.47845	86.24902	113.9138	-30.10579	-71.60296	100.08141	7.32303	-78.92599	-60.21158	-68.34828	-31.73313	-17.90074	0
663	-23.59643	83.80801	106.59077	-30.10579	-64.27993	95.19939	-2.44101	-78.92599	-60.21158	-65.90727	-34.17414	-20.34175	0
664	-16.2734	78.92599	94.38572	-32.5468	-54.51589	85.43535	-9.76404	-78.92599	-60.21158	-63.46626	-34.17414	-22.78276	0
665	-13.83239	74.04397	87.06269	-30.10579	-49.63387	80.55333	-19.52808	-83.80801	-60.21158	-63.46626	-31.73313	-25.22377	0
666	-13.83239	74.04397	87.06269	-30.10579	-49.63387	80.55333	-29.29212	-88.69003	-62.65259	-63.46626	-31.73313	-25.22377	0
667	-13.83239	74.04397	87.06269	-30.10579	-49.63387	80.55333	-34.17414	-93.57205	-65.0936	-63.46626	-29.29212	-25.22377	0
668	-13.83239	74.04397	87.06269	-30.10579	-49.63387	80.55333	-39.05616	-100.89508	-72.41663	-65.90727	-31.73313	-22.78276	0
669	-13.83239	74.04397	87.06269	-30.10579	-49.63387	80.55333	-43.93818	-108.21811	-77.29865	-70.78929	-34.17414	-20.34175	0
670	-16.2734	71.60296	87.06269	-27.66478	-52.07488	78.11232	-43.93818	-113.10013	-79.73966	-75.67131	-36.61515	-17.90074	0
671	-16.2734	71.60296	87.06269	-27.66478	-52.07488	78.11232	-43.93818	-115.54114	-82.18067	-78.11232	-39.05616	-17.90074	0
672	-13.83239	66.72094	79.73966	-27.66478	-47.19286	73.2303	-43.93818	-115.54114	-82.18067	-78.11232	-41.49717	-17.90074	0
673	-8.1367	64.27993	72.41663	-27.66478	-39.86983	68.34828	-46.37919	-113.10013	-87.06269	-78.11232	-43.93818	-22.78276	0
674	-5.69569	61.83892	67.53461	-27.66478	-37.42882	65.90727	-46.37919	-113.10013	-87.06269	-78.11232	-46.37919	-25.22377	0
675	-3.25468	61.83892	65.0936	-30.10579	-34.98781	63.46626	-41.49717	-113.10013	-87.06269	-78.11232	-46.37919	-30.10579	0
676	-3.25468	61.83892	65.0936	-30.10579	-34.98781	63.46626	-41.49717	-113.10013	-87.06269	-78.11232	-46.37919	-32.5468	0
677	-3.25468	61.83892	65.0936	-30.10579	-34.98781	63.46626	-39.05616	-117.98215	-91.94471	-80.55333	-46.37919	-32.5468	0
678	-8.1367	61.83892	69.97562	-27.66478	-39.86983	65.90727	-39.05616	-122.86417	-96.82673	-82.99434	-48.8202	-32.5468	0
679	-8.1367	59.39791	67.53461	-25.22377	-37.42882	63.46626	-36.61515	-127.74619	-101.70875	-87.87636	-53.70222	-30.10579	0
680	-10.57771	54.51589	65.0936	-22.78276	-37.42882	61.02525	-36.61515	-132.62821	-106.59077	-95.19939	-58.58424	-30.10579	0
681	-10.57771	52.07488	62.65259	-20.34175	-37.42882	58.58424	-34.17414	-137.51023	-109.03178	-100.08141	-61.02525	-30.10579	0
682	-10.57771	47.19286	57.77057	-17.90074	-34.98781	53.70222	-31.73313	-137.51023	-111.47279	-102.52242	-65.90727	-32.5468	0
683	-8.1367	44.75185	52.88855	-17.90074	-30.10579	48.8202	-31.73313	-137.51023	-113.9138	-102.52242	-68.34828	-34.98781	0
684	-5.69569	44.75185	50.44754	-20.34175	-27.66478	48.8202	-29.29212	-135.06922	-111.47279	-102.52242	-68.34828	-39.86983	0
685	-5.69569	44.75185	50.44754	-20.34175	-27.66478	48.8202	-29.29212	-132.62821	-109.03178	-102.52242	-65.90727	-42.31084	0
686	-10.57771	42.31084	52.88855	-15.45973	-32.5468	48.8202	-29.29212	-132.62821	-109.03178	-100.08141	-63.46626	-44.75185	0
687	-13.83239	42.31084	55.32956	-15.45973	-34.98781	48.8202	-24.4101	-132.62821	-109.03178	-100.08141	-61.02525	-44.75185	0
688	-21.15542	39.86983	60.21158	-10.57771	-39.86983	48.8202	-21.96909	-130.1872	-109.03178	-100.08141	-61.02525	-39.86983	0
689	-30.91946	34.98781	65.0936	-3.25468	-47.19286	48.8202	-19.52808	-130.1872	-111.47279	-100.08141	-61.02525	-37.42882	0
690	-43.12451	25.22377	67.53461	6.50936	-54.51589	46.37919	-17.08707	-130.1872	-109.03178	-102.52242	-63.46626	-37.42882	0
691	-48.00653	25.22377	72.41663	9.76404	-59.39791	48.8202	-12.20505	-127.74619	-109.03178	-102.52242	-63.46626	-34.98781	0
692	-48.00653	25.22377	72.41663	9.76404	-59.39791	48.8202	-7.32303	-125.30518	-109.03178	-102.52242	-68.34828	-34.98781	0
693	-52.88855	20.34175	72.41663	14.64606	-61.83892	46.37919	-4.88202	-122.86417	-111.47279	-102.52242	-73.2303	-39.86983	0
694	-55.32956	15.45973	69.97562	19.52808	-61.83892	41.49717	-2.44101	-122.86417	-111.47279	-102.52242	-75.67131	-47.19286	0
695	-55.32956	13.01872	67.53461	19.52808	-61.83892	39.05616	0	-122.86417	-113.9138	-104.96343	-78.11232	-52.07488	0
696	-55.32956	15.45973	69.97562	19.52808	-61.83892	41.49717	4.88202	-122.86417	-113.9138	-104.96343	-78.11232	-56.9569	0
697	-60.21158	15.45973	74.85764	21.96909	-66.72094	43.93818	7.32303	-122.86417	-118.79582	-107.40444	-78.11232	-59.39791	0
698	-72.41663	5.69569	77.29865	31.73313	-74.04397	41.49717	9.76404	-122.86417	-123.67784	-112.28646	-82.99434	-64.27993	0
699	-77.29865	-2.44101	74.85764	39.05616	-76.48498	36.61515	9.76404	-125.30518	-123.67784	-117.16848	-85.43535	-64.27993	0
700	-82.18067	-7.32303	74.85764	43.93818	-78.92599	34.17414	9.76404	-125.30518	-126.11885	-122.0505	-87.87636	-64.27993	-1250	T-0
701	-87.06269	-9.76404	77.29865	46.37919	-83.80801	34.17414	14.64606	-127.74619	-126.11885	-122.0505	-90.31737	-64.27993	0
702	-79.73966	-7.32303	72.41663	41.49717	-76.48498	31.73313	17.08707	-125.30518	-123.67784	-119.60949	-90.31737	-61.83892	0
703	-77.29865	-9.76404	67.53461	41.49717	-74.04397	29.29212	17.08707	-122.86417	-126.11885	-119.60949	-90.31737	-66.72094	0
704	-77.29865	-9.76404	67.53461	41.49717	-74.04397	29.29212	17.08707	-122.86417	-126.11885	-119.60949	-90.31737	-71.60296	0
705	-77.29865	-9.76404	67.53461	41.49717	-74.04397	29.29212	17.08707	-122.86417	-126.11885	-119.60949	-87.87636	-74.04397	0
706	-77.29865	-7.32303	69.97562	41.49717	-74.04397	31.73313	19.52808	-120.42316	-126.11885	-114.72747	-85.43535	-74.04397	0
707	-74.85764	-2.44101	72.41663	36.61515	-74.04397	34.17414	19.52808	-117.98215	-126.11885	-112.28646	-82.99434	-74.04397	0
708	-84.62168	-7.32303	77.29865	43.93818	-81.367	34.17414	19.52808	-117.98215	-128.55986	-117.16848	-87.87636	-74.04397	0
709	-87.06269	-7.32303	79.73966	46.37919	-83.80801	36.61515	19.52808	-117.98215	-128.55986	-117.16848	-87.87636	-69.16195	0
710	-87.06269	-7.32303	79.73966	46.37919	-83.80801	36.61515	21.96909	-117.98215	-128.55986	-117.16848	-87.87636	-66.72094	0
711	-87.06269	-7.32303	79.73966	46.37919	-83.80801	36.61515	21.96909	-117.98215	-126.11885	-117.16848	-87.87636	-64.27993	0
712	-84.62168	-7.32303	77.29865	43.93818	-81.367	34.17414	21.96909	-117.98215	-123.67784	-114.72747	-87.87636	-61.83892	0
713	-79.73966	-7.32303	72.41663	41.49717	-76.48498	31.73313	21.96909	-113.10013	-121.23683	-112.28646	-87.87636	-61.83892	0
714	-74.85764	-7.32303	67.53461	39.05616	-71.60296	29.29212	19.52808	-110.65912	-118.79582	-109.84545	-85.43535	-64.27993	0
715	-72.41663	-7.32303	65.0936	39.05616	-69.16195	29.29212	17.08707	-108.21811	-116.35481	-109.84545	-82.99434	-66.72094	0
716	-72.41663	-7.32303	65.0936	39.05616	-69.16195	29.29212	17.08707	-108.21811	-116.35481	-107.40444	-80.55333	-69.16195	0
717	-74.85764	-7.32303	67.53461	39.05616	-71.60296	29.29212	17.08707	-105.7771	-116.35481	-107.40444	-78.11232	-69.16195	0
718	-77.29865	-4.88202	72.41663	39.05616	-76.48498	34.17414	19.52808	-105.7771	-118.79582	-107.40444	-78.11232	-69.16195	0
719	-82.18067	-4.88202	77.29865	41.49717	-81.367	36.61515	21.96909	-105.7771	-118.79582	-109.84545	-80.55333	-66.72094	0
720	-87.06269	-2.44101	84.62168	43.93818	-86.24902	41.49717	27.66478	-108.21811	-118.79582	-112.28646	-82.99434	-66.72094	0
721	-96.82673	5.69569	101.70875	43.93818	-98.45407	53.70222	34.98781	-113.10013	-121.23683	-119.60949	-90.31737	-69.16195	0
722	-106.59077	15.45973	121.23683	43.93818	-113.10013	68.34828	42.31084	-120.42316	-128.55986	-126.93252	-102.52242	-74.04397	0
723	-116.35481	27.66478	143.20592	43.93818	-130.1872	85.43535	52.07488	-122.86417	-138.3239	-139.13757	-114.72747	-88.69003	0
724	-126.11885	37.42882	162.734	43.93818	-144.83326	100.08141	66.72094	-125.30518	-145.64693	-153.78363	-129.37353	-103.33609	0
725	-140.76491	42.31084	182.26208	48.8202	-161.92033	112.28646	78.92599	-130.1872	-162.734	-173.31171	-146.4606	-117.98215	0
726	-152.96996	44.75185	196.90814	53.70222	-174.12538	119.60949	88.69003	-142.39225	-184.70309	-195.2808	-163.54767	-130.1872	0
727	-160.29299	44.75185	204.23117	56.14323	-181.44841	124.49151	96.01306	-157.03831	-216.43622	-219.6909	-178.19373	-135.06922	0
728	-167.61602	34.98781	201.79016	65.90727	-183.88942	117.16848	100.89508	-176.56639	-250.61036	-251.42403	-195.2808	-137.51023	0
729	-165.17501	20.34175	184.70309	70.78929	-174.12538	102.52242	100.89508	-200.97649	-289.66652	-280.71615	-209.92686	-130.1872	0
730	-152.96996	3.25468	155.41097	73.2303	-154.5973	78.11232	96.01306	-232.70962	-331.16369	-310.00827	-217.24989	-110.65912	0
731	-128.55986	-4.88202	123.67784	65.90727	-127.74619	58.58424	83.80801	-259.56073	-362.89682	-327.09534	-207.48585	-74.04397	0
732	-91.94471	-9.76404	82.18067	48.8202	-88.69003	36.61515	64.27993	-281.52982	-384.86591	-324.65433	-180.63474	-20.34175	0
733	-40.6835	-7.32303	33.36047	21.96909	-37.42882	12.20505	39.86983	-301.0579	-399.51197	-312.44928	-141.57858	41.49717	0
734	18.71441	-2.44101	-21.15542	-8.1367	19.52808	-10.57771	2.44101	-327.90901	-416.59904	-292.9212	-92.75838	122.0505	0
735	87.06269	13.01872	-74.85764	-49.63387	80.55333	-30.10579	-46.37919	-379.17022	-443.45015	-275.83413	-29.29212	217.24989	0
736	162.734	44.75185	-118.79582	-103.33609	141.57858	-37.42882	-112.28646	-454.84153	-480.0653	-253.86504	42.31084	331.97736	0
737	245.72834	86.24902	-160.29299	-166.80235	202.60383	-37.42882	-192.83979	-545.1589	-521.56247	-224.57292	125.30518	461.35089	0
738	336.04571	135.06922	-201.79016	-235.15063	268.5111	-32.5468	-288.03918	-655.00435	-575.26469	-200.16282	208.29952	598.04745	0
739	433.68611	186.33043	-248.16935	-310.82194	341.7414	-30.10579	-397.88463	-774.61384	-624.08489	-168.42969	298.61689	742.06704	0
740	536.20853	220.50457	-316.51763	-379.17022	427.17675	-47.19286	-510.17109	-882.01828	-660.70004	-131.81454	388.93426	873.88158	0
741	633.84893	227.8276	-406.835	-430.43143	519.93513	-88.69003	-620.01654	-967.45363	-685.11014	-100.08141	452.40052	966.63996	0
742	721.72529	210.74053	-511.79843	-467.04658	617.57553	-149.71528	-717.65694	-1030.91989	-707.07923	-90.31737	474.36961	1003.25511	0
743	790.07357	164.36134	-626.5259	-476.81062	707.8929	-230.26861	-803.09229	-1087.06312	-746.13539	-114.72747	442.63648	973.96299	0
744	831.57074	93.57205	-738.81236	-462.16456	786.00522	-323.02699	-871.44057	-1133.44231	-794.95559	-178.19373	354.76012	873.88158	0
745	834.01175	3.25468	-831.57074	-418.22638	832.38441	-413.34436	-908.05572	-1172.49847	-860.86286	-285.59817	213.18154	710.33391	0
746	799.83761	-90.31737	-890.15498	-354.76012	844.58946	-489.01567	-922.70178	-1211.55463	-946.29821	-429.61776	25.22377	502.84806	0
747	736.37135	-165.98868	-902.36003	-286.41184	817.73835	-532.95385	-915.37875	-1255.49281	-1036.61558	-580.96038	-170.8707	288.03918	0
748	655.81802	-222.13191	-877.94993	-218.06356	766.47714	-550.04092	-893.40966	-1282.34392	-1114.7279	-717.65694	-351.50544	87.87636	0
749	570.38267	-261.18807	-831.57074	-154.5973	700.56987	-545.1589	-854.3535	-1279.90291	-1153.78406	-820.17936	-497.96604	-76.48498	0
750	484.94732	-275.83413	-760.78145	-105.7771	622.45755	-518.30779	-798.21027	-1245.72877	-1153.78406	-876.32259	-595.60644	-200.97649	0
751	401.95298	-270.95211	-672.90509	-66.72094	537.0222	-471.9286	-729.86199	-1174.93948	-1104.96386	-878.7636	-634.6626	-274.20679	0
752	328.72268	-251.42403	-580.14671	-39.86983	454.02786	-415.78537	-654.19068	-1074.85807	-1014.64649	-827.50239	-624.89856	-303.49891	0
753	270.13844	-229.45494	-499.59338	-20.34175	383.23857	-364.52416	-576.07836	-950.36656	-899.91902	-746.94906	-583.40139	-310.82194	0
754	223.75925	-200.16282	-423.92207	-13.01872	322.21332	-310.82194	-497.96604	-811.22899	-765.66347	-646.86765	-515.05311	-293.73487	0
755	182.26208	-168.42969	-350.69177	-8.1367	266.07009	-259.56073	-417.41271	-667.2094	-621.64388	-532.14018	-429.61776	-262.00174	0
756	145.64693	-136.69656	-282.34349	-5.69569	212.36787	-208.29952	-344.18241	-528.07183	-484.94732	-414.9717	-339.30039	-218.06356	0
757	113.9138	-112.28646	-226.20026	-0.81367	168.42969	-169.24336	-278.27514	-406.02133	-360.45581	-310.00827	-256.30605	-176.56639	0
758	89.5037	-90.31737	-179.82107	-0.81367	134.25555	-135.06922	-222.13191	-301.0579	-260.3744	-222.13191	-187.95777	-139.95124	0
759	72.41663	-73.2303	-145.64693	-0.81367	107.40444	-108.21811	-178.19373	-215.62255	-172.49804	-148.90161	-126.93252	-103.33609	0
760	55.32956	-53.70222	-109.03178	-0.81367	80.55333	-81.367	-136.69656	-142.39225	-94.38572	-82.99434	-73.2303	-69.16195	0
761	40.6835	-39.05616	-79.73966	-0.81367	58.58424	-59.39791	-100.08141	-81.367	-30.91946	-24.4101	-26.85111	-39.86983	0
762	30.91946	-29.29212	-60.21158	-0.81367	43.93818	-44.75185	-73.2303	-32.5468	20.34175	19.52808	9.76404	-20.34175	0
763	21.15542	-19.52808	-40.6835	-0.81367	29.29212	-30.10579	-51.26121	6.50936	55.32956	54.51589	32.5468	-8.1367	0
764	13.83239	-9.76404	-23.59643	-3.25468	17.08707	-15.45973	-34.17414	35.80148	87.06269	81.367	54.51589	-4.88202	0
765	8.95037	-7.32303	-16.2734	-0.81367	12.20505	-10.57771	-21.96909	61.02525	111.47279	103.33609	71.60296	0	0
766	1.62734	-4.88202	-6.50936	1.62734	2.44101	-5.69569	-12.20505	78.11232	128.55986	117.98215	83.80801	0	0
767	-3.25468	-2.44101	0.81367	1.62734	-2.44101	-0.81367	-7.32303	87.87636	138.3239	125.30518	91.13104	2.44101	0
768	-8.1367	-2.44101	5.69569	4.06835	-7.32303	1.62734	0	97.6404	143.20592	132.62821	93.57205	4.88202	0
769	-13.83239	-2.44101	10.57771	6.50936	-13.01872	4.06835	2.44101	104.96343	150.52895	135.06922	96.01306	9.76404	0
770	-16.2734	-2.44101	13.83239	6.50936	-15.45973	4.06835	7.32303	109.84545	157.85198	137.51023	98.45407	12.20505	0
771	-18.71441	-2.44101	16.2734	9.76404	-17.90074	7.32303	12.20505	114.72747	165.17501	142.39225	100.89508	17.08707	0
772	-18.71441	-2.44101	16.2734	9.76404	-17.90074	7.32303	14.64606	119.60949	172.49804	147.27427	103.33609	19.52808	0
773	-16.2734	-2.44101	13.83239	6.50936	-15.45973	4.06835	17.08707	126.93252	177.38006	152.15629	105.7771	19.52808	0
774	-13.83239	-2.44101	10.57771	6.50936	-13.01872	4.06835	19.52808	134.25555	182.26208	157.03831	108.21811	17.08707	0
775	-13.83239	-2.44101	10.57771	6.50936	-13.01872	4.06835	21.96909	139.13757	187.1441	161.92033	113.10013	17.08707	0
776	-16.2734	-2.44101	13.83239	6.50936	-15.45973	4.06835	21.96909	144.01959	192.02612	164.36134	117.98215	17.08707	0
777	-16.2734	-2.44101	13.83239	6.50936	-15.45973	4.06835	21.96909	148.90161	194.46713	169.24336	120.42316	17.08707	0
778	-21.15542	0.81367	21.15542	9.76404	-20.34175	9.76404	25.22377	151.34262	196.90814	171.68437	122.86417	19.52808	0
779	-23.59643	0.81367	23.59643	9.76404	-22.78276	12.20505	30.10579	153.78363	199.34915	171.68437	122.86417	24.4101	0
780	-26.03744	0.81367	26.03744	12.20505	-25.22377	12.20505	32.5468	156.22464	204.23117	174.12538	125.30518	29.29212	0
781	-26.03744	3.25468	28.47845	9.76404	-27.66478	14.64606	34.98781	158.66565	206.67218	174.12538	127.74619	31.73313	0
782	-26.03744	3.25468	28.47845	9.76404	-27.66478	14.64606	34.98781	161.10666	209.11319	179.0074	127.74619	34.17414	0
783	-23.59643	0.81367	23.59643	9.76404	-22.78276	12.20505	34.98781	165.98868	211.5542	181.44841	127.74619	31.73313	0
784	-23.59643	-4.88202	18.71441	12.20505	-22.78276	7.32303	34.98781	168.42969	211.5542	181.44841	127.74619	26.85111	0
785	-23.59643	-7.32303	16.2734	14.64606	-20.34175	4.06835	32.5468	170.8707	213.99521	181.44841	127.74619	24.4101	0
786	-16.2734	0.81367	16.2734	6.50936	-15.45973	7.32303	37.42882	178.19373	218.87723	186.33043	135.06922	26.85111	0
787	-16.2734	0.81367	16.2734	6.50936	-15.45973	7.32303	39.86983	180.63474	221.31824	188.77144	137.51023	29.29212	0
788	-18.71441	0.81367	18.71441	6.50936	-17.90074	9.76404	42.31084	183.07575	221.31824	188.77144	137.51023	31.73313	0
789	-16.2734	0.81367	16.2734	6.50936	-15.45973	7.32303	44.75185	183.07575	223.75925	191.21245	139.95124	36.61515	0
790	-13.83239	5.69569	18.71441	4.06835	-15.45973	12.20505	49.63387	185.51676	231.08228	193.65346	144.83326	43.93818	0
791	-13.83239	10.57771	23.59643	1.62734	-17.90074	17.08707	54.51589	187.95777	233.52329	196.09447	144.83326	48.8202	0
792	-13.83239	3.25468	16.2734	4.06835	-15.45973	9.76404	54.51589	187.95777	233.52329	196.09447	144.83326	51.26121	0
793	-13.83239	0.81367	13.83239	6.50936	-13.01872	7.32303	52.07488	187.95777	233.52329	200.97649	142.39225	46.37919	0
794	-8.1367	0.81367	8.1367	4.06835	-7.32303	4.06835	52.07488	192.83979	235.9643	203.4175	144.83326	43.93818	0
795	-5.69569	3.25468	8.1367	1.62734	-7.32303	7.32303	52.07488	195.2808	238.40531	205.85851	149.71528	41.49717	0
796	-5.69569	3.25468	8.1367	1.62734	-7.32303	7.32303	52.07488	197.72181	238.40531	208.29952	152.15629	39.05616	0
797	-5.69569	3.25468	8.1367	1.62734	-7.32303	7.32303	52.07488	197.72181	238.40531	210.74053	154.5973	41.49717	0
798	-10.57771	0.81367	10.57771	4.06835	-9.76404	7.32303	54.51589	200.16282	238.40531	210.74053	154.5973	43.93818	0
799	-16.2734	-2.44101	13.83239	6.50936	-15.45973	4.06835	54.51589	197.72181	238.40531	210.74053	154.5973	46.37919	0
800	-23.59643	-7.32303	16.2734	14.64606	-20.34175	4.06835	54.51589	197.72181	240.84632	208.29952	154.5973	48.8202	0
801	-18.71441	-2.44101	16.2734	9.76404	-17.90074	7.32303	56.9569	200.16282	248.16935	213.18154	159.47932	53.70222	0
802	-13.83239	-2.44101	10.57771	6.50936	-13.01872	4.06835	59.39791	202.60383	250.61036	215.62255	159.47932	58.58424	0
803	-10.57771	-2.44101	8.1367	6.50936	-9.76404	4.06835	59.39791	205.04484	253.05137	220.50457	161.92033	58.58424	0
804	-8.1367	-2.44101	5.69569	4.06835	-7.32303	1.62734	59.39791	209.92686	257.93339	225.38659	164.36134	56.14323	0
805	-3.25468	0.81367	3.25468	1.62734	-2.44101	1.62734	59.39791	217.24989	262.81541	230.26861	171.68437	56.14323	0
806	1.62734	8.1367	5.69569	-5.69569	-2.44101	7.32303	61.83892	222.13191	267.69743	235.15063	176.56639	58.58424	0
807	4.06835	8.1367	3.25468	-5.69569	0	7.32303	61.83892	224.57292	267.69743	237.59164	181.44841	61.02525	0
808	-0.81367	3.25468	3.25468	-0.81367	-2.44101	4.06835	59.39791	224.57292	267.69743	237.59164	179.0074	61.02525	0
809	1.62734	5.69569	3.25468	-3.25468	0	4.06835	56.9569	224.57292	267.69743	237.59164	179.0074	65.90727	0
810	6.50936	5.69569	-1.62734	-5.69569	4.88202	1.62734	56.9569	222.13191	270.13844	235.15063	179.0074	68.34828	0
811	6.50936	5.69569	-1.62734	-5.69569	4.88202	1.62734	56.9569	222.13191	270.13844	235.15063	179.0074	70.78929	0
812	6.50936	0.81367	-6.50936	-3.25468	7.32303	-3.25468	54.51589	222.13191	272.57945	237.59164	179.0074	70.78929	0
813	1.62734	-2.44101	-4.06835	-0.81367	2.44101	-3.25468	54.51589	224.57292	272.57945	240.03265	179.0074	68.34828	0
814	-0.81367	-2.44101	-1.62734	1.62734	0	-0.81367	52.07488	227.01393	279.90248	247.35568	183.88942	65.90727	0
815	4.06835	3.25468	-1.62734	-3.25468	2.44101	1.62734	56.9569	236.77797	287.22551	252.2377	191.21245	65.90727	0
816	-3.25468	3.25468	5.69569	-0.81367	-4.88202	4.06835	56.9569	239.21898	289.66652	257.11972	196.09447	65.90727	0
817	-3.25468	3.25468	5.69569	-0.81367	-4.88202	4.06835	54.51589	244.101	292.10753	262.00174	200.97649	68.34828	0
818	-0.81367	8.1367	8.1367	-3.25468	-4.88202	9.76404	54.51589	246.54201	294.54854	262.00174	200.97649	70.78929	0
819	8.95037	13.01872	3.25468	-10.57771	2.44101	9.76404	52.07488	248.98302	296.98955	262.00174	200.97649	75.67131	0
820	16.2734	15.45973	-1.62734	-15.45973	9.76404	7.32303	54.51589	248.98302	301.87157	262.00174	203.4175	80.55333	0
821	13.83239	8.1367	-6.50936	-10.57771	9.76404	1.62734	49.63387	248.98302	301.87157	262.00174	203.4175	80.55333	0
822	18.71441	5.69569	-13.83239	-13.01872	17.08707	-3.25468	49.63387	248.98302	304.31258	264.44275	203.4175	80.55333	0
823	18.71441	8.1367	-11.39138	-13.01872	14.64606	-0.81367	49.63387	256.30605	309.1946	269.32477	205.85851	80.55333	0
824	18.71441	8.1367	-11.39138	-13.01872	14.64606	-0.81367	49.63387	263.62908	316.51763	276.6478	208.29952	78.11232	0
825	16.2734	8.1367	-8.95037	-13.01872	12.20505	-0.81367	52.07488	270.95211	321.39965	279.08881	215.62255	78.11232	0
826	11.39138	8.1367	-4.06835	-10.57771	7.32303	1.62734	52.07488	275.83413	323.84066	283.97083	220.50457	78.11232	0
827	8.95037	8.1367	-1.62734	-8.1367	4.88202	4.06835	54.51589	280.71615	323.84066	286.41184	225.38659	78.11232	0
828	8.95037	5.69569	-4.06835	-8.1367	7.32303	1.62734	54.51589	285.59817	323.84066	286.41184	225.38659	78.11232	0
829	11.39138	5.69569	-6.50936	-8.1367	9.76404	-0.81367	52.07488	285.59817	323.84066	286.41184	225.38659	78.11232	0
830	13.83239	3.25468	-11.39138	-8.1367	12.20505	-3.25468	52.07488	285.59817	326.28167	283.97083	225.38659	78.11232	0
831	18.71441	3.25468	-16.2734	-10.57771	17.08707	-5.69569	49.63387	285.59817	326.28167	281.52982	222.94558	80.55333	0
832	18.71441	-2.44101	-21.15542	-8.1367	19.52808	-10.57771	49.63387	288.03918	328.72268	283.97083	222.94558	80.55333	0
833	13.83239	-7.32303	-21.15542	-3.25468	17.08707	-13.01872	47.19286	292.9212	328.72268	288.85285	222.94558	75.67131	0
834	16.2734	-2.44101	-18.71441	-8.1367	17.08707	-10.57771	44.75185	300.24423	336.04571	293.73487	225.38659	73.2303	0
835	21.15542	0.81367	-21.15542	-10.57771	21.96909	-10.57771	49.63387	310.00827	343.36874	301.0579	232.70962	75.67131	0
836	18.71441	-2.44101	-21.15542	-8.1367	19.52808	-10.57771	49.63387	314.89029	345.80975	303.49891	237.59164	75.67131	0
837	13.83239	-2.44101	-16.2734	-5.69569	14.64606	-8.1367	49.63387	319.77231	350.69177	308.38093	242.47366	78.11232	0
838	16.2734	3.25468	-13.83239	-10.57771	14.64606	-5.69569	52.07488	327.09534	353.13278	310.82194	244.91467	82.99434	0
839	23.59643	8.1367	-16.2734	-15.45973	19.52808	-3.25468	54.51589	331.97736	358.0148	313.26295	247.35568	87.87636	0
840	28.47845	13.01872	-16.2734	-20.34175	21.96909	-0.81367	56.9569	336.85938	365.33783	315.70396	252.2377	95.19939	0
841	21.15542	5.69569	-16.2734	-13.01872	19.52808	-5.69569	56.9569	339.30039	365.33783	315.70396	249.79669	95.19939	0
842	26.03744	3.25468	-23.59643	-15.45973	24.4101	-10.57771	54.51589	344.18241	370.21985	320.58598	249.79669	97.6404	0
843	28.47845	5.69569	-23.59643	-17.90074	26.85111	-8.1367	54.51589	351.50544	375.10187	325.468	254.67871	95.19939	0
844	33.36047	5.69569	-28.47845	-20.34175	31.73313	-10.57771	54.51589	358.82847	382.4249	330.35002	257.11972	92.75838	0
845	35.80148	5.69569	-30.91946	-20.34175	34.17414	-13.01872	52.07488	366.1515	387.30692	332.79103	259.56073	92.75838	0
846	33.36047	5.69569	-28.47845	-20.34175	31.73313	-10.57771	52.07488	371.03352	392.18894	337.67305	264.44275	90.31737	0
847	33.36047	3.25468	-30.91946	-17.90074	31.73313	-13.01872	52.07488	375.91554	392.18894	340.11406	266.88376	92.75838	0
848	30.91946	3.25468	-28.47845	-17.90074	29.29212	-13.01872	52.07488	385.67958	397.07096	344.99608	269.32477	95.19939	0
849	30.91946	3.25468	-28.47845	-17.90074	29.29212	-13.01872	52.07488	390.5616	404.39399	347.43709	271.76578	100.08141	0
850	30.91946	3.25468	-28.47845	-17.90074	29.29212	-13.01872	54.51589	397.88463	409.27601	349.8781	274.20679	107.40444	0
851	28.47845	3.25468	-26.03744	-15.45973	26.85111	-10.57771	56.9569	405.20766	416.59904	352.31911	276.6478	112.28646	0
852	30.91946	3.25468	-28.47845	-17.90074	29.29212	-13.01872	56.9569	414.9717	421.48106	357.20113	279.08881	114.72747	0
853	38.24249	3.25468	-35.80148	-20.34175	36.61515	-15.45973	56.9569	424.73574	426.36308	364.52416	281.52982	114.72747	0
854	43.12451	5.69569	-38.24249	-25.22377	41.49717	-15.45973	56.9569	434.49978	436.12712	369.40618	283.97083	114.72747	0
855	45.56552	5.69569	-40.6835	-25.22377	43.93818	-17.90074	56.9569	441.82281	443.45015	374.2882	291.29386	112.28646	0
856	45.56552	5.69569	-40.6835	-25.22377	43.93818	-17.90074	56.9569	449.14584	450.77318	379.17022	293.73487	112.28646	0
857	45.56552	5.69569	-40.6835	-25.22377	43.93818	-17.90074	59.39791	456.46887	455.6552	381.61123	298.61689	112.28646	0
858	43.12451	5.69569	-38.24249	-25.22377	41.49717	-15.45973	64.27993	466.23291	460.53722	386.49325	301.0579	114.72747	0
859	40.6835	5.69569	-35.80148	-22.78276	39.05616	-15.45973	66.72094	475.99695	470.30126	391.37527	303.49891	119.60949	0
860	40.6835	5.69569	-35.80148	-22.78276	39.05616	-15.45973	69.16195	483.31998	477.62429	391.37527	305.93992	124.49151	0
861	38.24249	5.69569	-33.36047	-22.78276	36.61515	-13.01872	71.60296	490.64301	487.38833	396.25729	305.93992	129.37353	0
862	40.6835	5.69569	-35.80148	-22.78276	39.05616	-15.45973	71.60296	500.40705	492.27035	401.13931	308.38093	129.37353	0
863	45.56552	5.69569	-40.6835	-25.22377	43.93818	-17.90074	71.60296	510.17109	499.59338	408.46234	310.82194	126.93252	0
864	50.44754	8.1367	-43.12451	-30.10579	46.37919	-17.90074	71.60296	519.93513	506.91641	413.34436	313.26295	124.49151	0
865	55.32956	10.57771	-45.56552	-32.5468	51.26121	-17.90074	69.16195	527.25816	511.79843	418.22638	318.14497	122.0505	0
866	55.32956	10.57771	-45.56552	-32.5468	51.26121	-17.90074	69.16195	532.14018	516.68045	420.66739	320.58598	119.60949	0
867	55.32956	10.57771	-45.56552	-32.5468	51.26121	-17.90074	69.16195	539.46321	519.12146	425.54941	323.02699	119.60949	0
868	52.88855	10.57771	-43.12451	-32.5468	48.8202	-15.45973	71.60296	546.78624	524.00348	427.99042	325.468	122.0505	0
869	50.44754	10.57771	-40.6835	-30.10579	46.37919	-15.45973	74.04397	554.10927	528.8855	430.43143	327.90901	126.93252	0
870	48.00653	10.57771	-38.24249	-30.10579	43.93818	-13.01872	78.92599	561.4323	536.20853	430.43143	330.35002	131.81454	0
871	48.00653	10.57771	-38.24249	-30.10579	43.93818	-13.01872	81.367	568.75533	541.09055	435.31345	330.35002	134.25555	0
872	50.44754	13.01872	-38.24249	-32.5468	43.93818	-13.01872	81.367	576.07836	545.97257	437.75446	330.35002	136.69656	0
873	55.32956	13.01872	-43.12451	-34.98781	48.8202	-15.45973	81.367	583.40139	550.85459	442.63648	330.35002	136.69656	0
874	62.65259	13.01872	-50.44754	-37.42882	56.14323	-17.90074	81.367	590.72442	555.73661	445.07749	332.79103	134.25555	0
875	65.0936	13.01872	-52.88855	-39.86983	58.58424	-20.34175	81.367	595.60644	560.61863	447.5185	332.79103	131.81454	0
876	62.65259	13.01872	-50.44754	-37.42882	56.14323	-17.90074	81.367	598.04745	563.05964	447.5185	335.23204	129.37353	0
877	62.65259	10.57771	-52.88855	-37.42882	58.58424	-20.34175	83.80801	602.92947	563.05964	447.5185	335.23204	129.37353	0
878	60.21158	8.1367	-52.88855	-34.98781	56.14323	-22.78276	86.24902	605.37048	565.50065	447.5185	335.23204	129.37353	0
879	60.21158	8.1367	-52.88855	-34.98781	56.14323	-22.78276	86.24902	607.81149	565.50065	445.07749	332.79103	131.81454	0
880	60.21158	8.1367	-52.88855	-34.98781	56.14323	-22.78276	88.69003	607.81149	567.94166	442.63648	332.79103	134.25555	0
881	60.21158	8.1367	-52.88855	-34.98781	56.14323	-22.78276	88.69003	610.2525	570.38267	440.19547	330.35002	136.69656	0
882	65.0936	5.69569	-60.21158	-34.98781	63.46626	-27.66478	88.69003	610.2525	570.38267	440.19547	327.90901	139.13757	0
883	69.97562	5.69569	-65.0936	-37.42882	68.34828	-30.10579	88.69003	612.69351	570.38267	440.19547	325.468	134.25555	0
884	77.29865	8.1367	-69.97562	-42.31084	73.2303	-30.10579	88.69003	612.69351	570.38267	440.19547	323.02699	131.81454	0
885	79.73966	8.1367	-72.41663	-44.75185	75.67131	-32.5468	86.24902	612.69351	567.94166	437.75446	323.02699	126.93252	0
886	79.73966	3.25468	-77.29865	-42.31084	78.11232	-37.42882	86.24902	610.2525	563.05964	435.31345	323.02699	124.49151	0
887	77.29865	0.81367	-77.29865	-39.86983	78.11232	-37.42882	86.24902	605.37048	558.17762	430.43143	320.58598	124.49151	0
888	77.29865	-2.44101	-79.73966	-37.42882	78.11232	-39.86983	86.24902	600.48846	550.85459	425.54941	315.70396	124.49151	0
889	77.29865	-2.44101	-79.73966	-37.42882	78.11232	-39.86983	83.80801	593.16543	545.97257	420.66739	310.82194	124.49151	0
890	77.29865	-4.88202	-82.18067	-37.42882	78.11232	-42.31084	83.80801	588.28341	541.09055	413.34436	305.93992	124.49151	0
891	77.29865	-7.32303	-84.62168	-34.98781	80.55333	-44.75185	83.80801	578.51937	536.20853	408.46234	301.0579	126.93252	0
892	79.73966	-9.76404	-89.5037	-34.98781	82.99434	-49.63387	83.80801	571.19634	528.8855	403.58032	293.73487	126.93252	0
893	87.06269	-9.76404	-96.82673	-39.86983	90.31737	-52.07488	81.367	563.87331	521.56247	398.6983	288.85285	119.60949	0
894	89.5037	-12.20505	-101.70875	-39.86983	95.19939	-56.9569	78.92599	556.55028	511.79843	393.81628	281.52982	114.72747	0
895	91.94471	-14.64606	-106.59077	-39.86983	97.6404	-59.39791	78.92599	546.78624	502.03439	384.05224	279.08881	109.84545	0
896	91.94471	-17.08707	-109.03178	-37.42882	100.08141	-61.83892	74.04397	534.58119	492.27035	374.2882	271.76578	104.96343	0
897	89.5037	-21.96909	-111.47279	-34.98781	100.08141	-66.72094	74.04397	519.93513	477.62429	364.52416	264.44275	102.52242	0
898	84.62168	-29.29212	-113.9138	-27.66478	97.6404	-71.60296	69.16195	505.28907	460.53722	349.8781	254.67871	97.6404	0
899	77.29865	-36.61515	-113.9138	-20.34175	95.19939	-74.04397	64.27993	485.76099	443.45015	335.23204	242.47366	97.6404	0
900	79.73966	-39.05616	-118.79582	-20.34175	97.6404	-78.92599	64.27993	471.11493	431.2451	323.02699	235.15063	97.6404	0
901	87.06269	-36.61515	-123.67784	-25.22377	104.96343	-78.92599	61.83892	454.02786	419.04005	310.82194	227.8276	100.08141	0
902	89.5037	-39.05616	-128.55986	-25.22377	107.40444	-83.80801	59.39791	436.94079	404.39399	301.0579	218.06356	97.6404	0
903	94.38572	-41.49717	-135.88289	-27.66478	114.72747	-88.69003	54.51589	422.29473	387.30692	288.85285	208.29952	90.31737	0
904	99.26774	-43.93818	-143.20592	-27.66478	119.60949	-93.57205	49.63387	405.20766	372.66086	276.6478	200.97649	85.43535	0
905	101.70875	-46.37919	-148.08794	-27.66478	124.49151	-96.01306	44.75185	388.12059	358.0148	264.44275	196.09447	80.55333	0
906	109.03178	-41.49717	-150.52895	-34.98781	129.37353	-96.01306	44.75185	371.03352	343.36874	254.67871	191.21245	78.11232	0
907	106.59077	-48.8202	-155.41097	-30.10579	129.37353	-100.89508	37.42882	349.06443	321.39965	240.03265	181.44841	75.67131	0
908	104.14976	-53.70222	-157.85198	-25.22377	129.37353	-105.7771	32.5468	329.53635	301.87157	225.38659	169.24336	73.2303	0
909	104.14976	-56.14323	-160.29299	-25.22377	131.81454	-108.21811	30.10579	310.00827	282.34349	210.74053	157.03831	70.78929	0
910	101.70875	-58.58424	-160.29299	-22.78276	129.37353	-108.21811	25.22377	290.48019	265.25642	196.09447	147.27427	70.78929	0
911	106.59077	-56.14323	-162.734	-25.22377	134.25555	-108.21811	21.96909	270.95211	248.16935	181.44841	137.51023	70.78929	0
912	113.9138	-56.14323	-170.05703	-30.10579	141.57858	-113.10013	21.96909	253.86504	228.64127	169.24336	127.74619	68.34828	0
913	109.03178	-63.46626	-172.49804	-22.78276	139.13757	-117.98215	14.64606	234.33696	209.11319	154.5973	115.54114	61.02525	0
914	111.47279	-63.46626	-174.93905	-25.22377	141.57858	-117.98215	9.76404	217.24989	192.02612	142.39225	108.21811	53.70222	0
915	111.47279	-63.46626	-174.93905	-25.22377	141.57858	-117.98215	4.88202	197.72181	174.93905	130.1872	100.89508	46.37919	0
916	109.03178	-63.46626	-172.49804	-22.78276	139.13757	-117.98215	0	178.19373	157.85198	115.54114	93.57205	41.49717	0
917	104.14976	-65.90727	-170.05703	-20.34175	136.69656	-117.98215	-2.44101	158.66565	138.3239	103.33609	86.24902	39.05616	0
918	99.26774	-65.90727	-165.17501	-17.90074	131.81454	-115.54114	-4.88202	141.57858	121.23683	88.69003	76.48498	36.61515	0
919	94.38572	-68.34828	-162.734	-13.01872	126.93252	-115.54114	-4.88202	124.49151	104.14976	74.04397	66.72094	36.61515	0
920	89.5037	-68.34828	-157.85198	-10.57771	122.0505	-113.10013	-4.88202	104.96343	89.5037	59.39791	56.9569	34.17414	0
921	87.06269	-68.34828	-155.41097	-10.57771	119.60949	-110.65912	-4.88202	87.87636	77.29865	47.19286	47.19286	31.73313	0
922	84.62168	-68.34828	-152.96996	-8.1367	117.16848	-110.65912	-4.88202	75.67131	62.65259	37.42882	37.42882	29.29212	0
923	84.62168	-68.34828	-152.96996	-8.1367	117.16848	-110.65912	-7.32303	61.02525	48.00653	27.66478	27.66478	21.96909	0
924	84.62168	-63.46626	-148.08794	-10.57771	114.72747	-105.7771	-9.76404	48.8202	35.80148	19.52808	20.34175	14.64606	0
925	79.73966	-61.02525	-140.76491	-10.57771	109.84545	-100.89508	-9.76404	38.24249	25.22377	9.76404	15.45973	9.76404	0
926	72.41663	-58.58424	-131.00087	-8.1367	100.08141	-93.57205	-12.20505	23.59643	13.01872	0	9.76404	2.44101	0
927	67.53461	-56.14323	-123.67784	-5.69569	95.19939	-88.69003	-12.20505	11.39138	-1.62734	-7.32303	4.88202	0	0
928	60.21158	-53.70222	-113.9138	-3.25468	85.43535	-83.80801	-12.20505	1.62734	-13.83239	-17.08707	-2.44101	-2.44101	0
929	52.88855	-51.26121	-104.14976	-0.81367	78.11232	-76.48498	-12.20505	-10.57771	-26.03744	-26.85111	-9.76404	-4.88202	0
930	48.00653	-48.8202	-96.82673	-0.81367	70.78929	-71.60296	-9.76404	-20.34175	-33.36047	-36.61515	-17.08707	-4.88202	0
931	43.12451	-48.8202	-91.94471	1.62734	65.90727	-69.16195	-9.76404	-32.5468	-40.6835	-43.93818	-21.96909	-4.88202	0
932	40.6835	-46.37919	-87.06269	1.62734	63.46626	-66.72094	-7.32303	-39.86983	-50.44754	-48.8202	-29.29212	-8.1367	0
933	35.80148	-41.49717	-77.29865	1.62734	56.14323	-59.39791	-7.32303	-44.75185	-57.77057	-53.70222	-36.61515	-13.01872	0
934	33.36047	-39.05616	-72.41663	1.62734	51.26121	-54.51589	-9.76404	-52.07488	-62.65259	-58.58424	-39.05616	-17.90074	0
935	28.47845	-34.17414	-62.65259	1.62734	43.93818	-47.19286	-9.76404	-59.39791	-65.0936	-63.46626	-41.49717	-25.22377	0
936	21.15542	-34.17414	-55.32956	6.50936	36.61515	-44.75185	-9.76404	-64.27993	-72.41663	-68.34828	-46.37919	-30.10579	0
937	11.39138	-31.73313	-43.12451	9.76404	26.85111	-37.42882	-9.76404	-71.60296	-77.29865	-70.78929	-46.37919	-32.5468	0
938	4.06835	-26.85111	-30.91946	9.76404	17.08707	-27.66478	-9.76404	-74.04397	-84.62168	-75.67131	-53.70222	-34.98781	0
939	-0.81367	-24.4101	-23.59643	12.20505	9.76404	-22.78276	-7.32303	-78.92599	-87.06269	-80.55333	-56.14323	-37.42882	0
940	-5.69569	-24.4101	-18.71441	14.64606	4.88202	-20.34175	-7.32303	-83.80801	-89.5037	-85.43535	-58.58424	-37.42882	0
941	-10.57771	-19.52808	-8.95037	14.64606	-2.44101	-13.01872	-4.88202	-86.24902	-89.5037	-87.87636	-61.02525	-37.42882	0
942	-10.57771	-19.52808	-8.95037	14.64606	-2.44101	-13.01872	-2.44101	-88.69003	-91.94471	-87.87636	-63.46626	-37.42882	0
943	-10.57771	-14.64606	-4.06835	12.20505	-4.88202	-8.1367	0	-88.69003	-94.38572	-85.43535	-65.90727	-44.75185	0
944	-10.57771	-12.20505	-1.62734	9.76404	-4.88202	-5.69569	0	-88.69003	-94.38572	-85.43535	-65.90727	-49.63387	0
945	-13.83239	-12.20505	0.81367	12.20505	-7.32303	-5.69569	2.44101	-88.69003	-94.38572	-85.43535	-63.46626	-54.51589	0
946	-18.71441	-12.20505	5.69569	14.64606	-13.01872	-3.25468	2.44101	-91.13104	-94.38572	-85.43535	-61.02525	-56.9569	0
947	-23.59643	-12.20505	10.57771	17.08707	-17.90074	-0.81367	2.44101	-93.57205	-96.82673	-85.43535	-61.02525	-56.9569	0
948	-28.47845	-12.20505	16.2734	19.52808	-22.78276	1.62734	2.44101	-93.57205	-99.26774	-85.43535	-61.02525	-56.9569	0
949	-33.36047	-12.20505	21.15542	21.96909	-27.66478	4.06835	2.44101	-96.01306	-101.70875	-87.87636	-61.02525	-54.51589	0
950	-35.80148	-12.20505	23.59643	21.96909	-30.10579	4.06835	4.88202	-96.01306	-101.70875	-90.31737	-61.02525	-52.07488	0
951	-38.24249	-12.20505	26.03744	24.4101	-32.5468	7.32303	4.88202	-96.01306	-99.26774	-90.31737	-63.46626	-52.07488	0
952	-38.24249	-12.20505	26.03744	24.4101	-32.5468	7.32303	4.88202	-93.57205	-99.26774	-87.87636	-63.46626	-52.07488	0
953	-35.80148	-12.20505	23.59643	21.96909	-30.10579	4.06835	4.88202	-93.57205	-96.82673	-85.43535	-63.46626	-54.51589	0
954	-33.36047	-9.76404	23.59643	19.52808	-30.10579	7.32303	4.88202	-88.69003	-94.38572	-82.99434	-63.46626	-56.9569	0
955	-33.36047	-9.76404	23.59643	19.52808	-30.10579	7.32303	7.32303	-88.69003	-89.5037	-82.99434	-61.02525	-59.39791	0
956	-38.24249	-9.76404	28.47845	21.96909	-34.98781	9.76404	7.32303	-88.69003	-89.5037	-78.11232	-58.58424	-61.83892	0
957	-40.6835	-9.76404	30.91946	24.4101	-37.42882	9.76404	7.32303	-88.69003	-89.5037	-75.67131	-56.14323	-64.27993	0
958	-43.12451	-9.76404	33.36047	24.4101	-39.86983	12.20505	7.32303	-86.24902	-89.5037	-75.67131	-56.14323	-61.83892	0
959	-43.12451	-9.76404	33.36047	24.4101	-39.86983	12.20505	7.32303	-86.24902	-89.5037	-78.11232	-56.14323	-59.39791	0
960	-45.56552	-9.76404	35.80148	26.85111	-42.31084	12.20505	7.32303	-86.24902	-87.06269	-80.55333	-56.14323	-56.9569	0
961	-45.56552	-9.76404	35.80148	26.85111	-42.31084	12.20505	7.32303	-86.24902	-84.62168	-80.55333	-58.58424	-56.9569	0
962	-43.12451	-7.32303	35.80148	24.4101	-39.86983	14.64606	9.76404	-86.24902	-84.62168	-78.11232	-58.58424	-54.51589	0
963	-40.6835	-4.88202	35.80148	21.96909	-39.86983	14.64606	9.76404	-81.367	-84.62168	-75.67131	-61.02525	-56.9569	0
964	-38.24249	-4.88202	33.36047	19.52808	-37.42882	14.64606	9.76404	-78.92599	-82.18067	-73.2303	-61.02525	-61.83892	0
965	-38.24249	-4.88202	33.36047	19.52808	-37.42882	14.64606	7.32303	-76.48498	-79.73966	-73.2303	-58.58424	-64.27993	0
966	-40.6835	-4.88202	35.80148	21.96909	-39.86983	14.64606	7.32303	-74.04397	-79.73966	-73.2303	-58.58424	-66.72094	0
967	-43.12451	-7.32303	35.80148	24.4101	-39.86983	14.64606	7.32303	-74.04397	-79.73966	-73.2303	-58.58424	-69.16195	0
968	-48.00653	-7.32303	40.6835	26.85111	-44.75185	17.08707	7.32303	-74.04397	-79.73966	-73.2303	-58.58424	-69.16195	0
969	-48.00653	-9.76404	38.24249	26.85111	-44.75185	14.64606	7.32303	-74.04397	-79.73966	-73.2303	-58.58424	-64.27993	0
970	-52.88855	-9.76404	43.12451	29.29212	-49.63387	17.08707	9.76404	-76.48498	-77.29865	-75.67131	-58.58424	-61.83892	0
971	-52.88855	-12.20505	40.6835	31.73313	-47.19286	14.64606	9.76404	-78.92599	-77.29865	-78.11232	-61.02525	-61.83892	0
972	-50.44754	-12.20505	38.24249	29.29212	-44.75185	12.20505	9.76404	-81.367	-77.29865	-75.67131	-61.02525	-61.83892	0
973	-48.00653	-9.76404	38.24249	26.85111	-44.75185	14.64606	9.76404	-78.92599	-74.85764	-75.67131	-63.46626	-64.27993	0
974	-45.56552	-9.76404	35.80148	26.85111	-42.31084	12.20505	9.76404	-78.92599	-72.41663	-70.78929	-63.46626	-66.72094	0
975	-45.56552	-7.32303	38.24249	24.4101	-42.31084	14.64606	9.76404	-76.48498	-69.97562	-70.78929	-61.02525	-71.60296	0
976	-45.56552	-7.32303	38.24249	24.4101	-42.31084	14.64606	9.76404	-76.48498	-69.97562	-70.78929	-61.02525	-71.60296	0
977	-48.00653	-7.32303	40.6835	26.85111	-44.75185	17.08707	12.20505	-76.48498	-69.97562	-70.78929	-58.58424	-74.04397	0
978	-50.44754	-7.32303	43.12451	26.85111	-47.19286	17.08707	12.20505	-76.48498	-69.97562	-70.78929	-61.02525	-71.60296	0
979	-52.88855	-7.32303	45.56552	29.29212	-49.63387	19.52808	12.20505	-78.92599	-69.97562	-73.2303	-63.46626	-69.16195	0
980	-52.88855	-7.32303	45.56552	29.29212	-49.63387	19.52808	14.64606	-78.92599	-72.41663	-78.11232	-65.90727	-66.72094	0
981	-55.32956	-7.32303	48.00653	29.29212	-52.07488	19.52808	17.08707	-81.367	-69.97562	-78.11232	-68.34828	-64.27993	0
982	-52.88855	-7.32303	45.56552	29.29212	-49.63387	19.52808	17.08707	-81.367	-69.97562	-78.11232	-68.34828	-64.27993	0
983	-48.00653	-7.32303	40.6835	26.85111	-44.75185	17.08707	14.64606	-81.367	-72.41663	-78.11232	-70.78929	-66.72094	0
984	-43.12451	-4.88202	38.24249	21.96909	-42.31084	17.08707	12.20505	-81.367	-72.41663	-75.67131	-70.78929	-69.16195	0
985	-40.6835	-2.44101	38.24249	19.52808	-39.86983	17.08707	12.20505	-81.367	-72.41663	-75.67131	-65.90727	-69.16195	0
986	-43.12451	-2.44101	40.6835	21.96909	-42.31084	19.52808	12.20505	-81.367	-72.41663	-75.67131	-63.46626	-71.60296	0
987	-43.12451	-2.44101	40.6835	21.96909	-42.31084	19.52808	9.76404	-81.367	-74.85764	-75.67131	-61.02525	-74.04397	0
988	-45.56552	-2.44101	43.12451	21.96909	-44.75185	19.52808	7.32303	-81.367	-74.85764	-78.11232	-61.02525	-74.04397	0
989	-48.00653	-2.44101	45.56552	24.4101	-47.19286	21.96909	7.32303	-78.92599	-77.29865	-80.55333	-61.02525	-74.04397	0
990	-50.44754	-2.44101	48.00653	24.4101	-49.63387	21.96909	9.76404	-78.92599	-77.29865	-82.99434	-61.02525	-71.60296	0
991	-52.88855	-2.44101	50.44754	26.85111	-52.07488	24.4101	12.20505	-78.92599	-77.29865	-82.99434	-61.02525	-71.60296	0
992	-52.88855	-2.44101	50.44754	26.85111	-52.07488	24.4101	12.20505	-76.48498	-74.85764	-82.99434	-63.46626	-71.60296	0
993	-48.00653	-2.44101	45.56552	24.4101	-47.19286	21.96909	14.64606	-74.04397	-74.85764	-82.99434	-65.90727	-71.60296	0
994	-48.00653	-2.44101	45.56552	24.4101	-47.19286	21.96909	14.64606	-71.60296	-74.85764	-82.99434	-68.34828	-71.60296	0
995	-45.56552	-2.44101	43.12451	21.96909	-44.75185	19.52808	17.08707	-71.60296	-74.85764	-82.99434	-70.78929	-71.60296	0
996	-45.56552	-4.88202	40.6835	24.4101	-44.75185	17.08707	17.08707	-71.60296	-72.41663	-85.43535	-70.78929	-74.04397	0
997	-45.56552	-4.88202	40.6835	24.4101	-44.75185	17.08707	14.64606	-71.60296	-72.41663	-85.43535	-73.2303	-74.04397	0
