samplenr	I	II	III	aVR	aVL	aVF	V1	V2	V3	V4	V5	V6	measurement
0	80.55333	-165.98868	-246.54201	41.49717	163.54767	-205.04484	-74.85764	-79.73966	-43.93818	-80.55333	-50.44754	-65.90727	0
1	75.67131	-168.42969	-244.101	46.37919	158.66565	-205.04484	-72.41663	-77.29865	-41.49717	-75.67131	-48.00653	-63.46626	0
2	68.34828	-163.54767	-231.89595	46.37919	148.90161	-197.72181	-72.41663	-74.85764	-43.93818	-75.67131	-50.44754	-63.46626	0
3	61.02525	-165.98868	-227.01393	51.26121	144.01959	-195.2808	-72.41663	-74.85764	-43.93818	-78.11232	-50.44754	-63.46626	0
4	53.70222	-173.31171	-227.01393	58.58424	139.13757	-200.16282	-67.53461	-69.97562	-41.49717	-70.78929	-48.00653	-61.02525	0
5	43.93818	-183.07575	-227.01393	68.34828	134.25555	-205.04484	-57.77057	-62.65259	-34.17414	-63.46626	-38.24249	-51.26121	0
6	41.49717	-183.07575	-224.57292	70.78929	131.81454	-202.60383	-55.32956	-57.77057	-31.73313	-58.58424	-33.36047	-48.8202	0
7	43.93818	-170.8707	-214.80888	63.46626	129.37353	-192.83979	-60.21158	-62.65259	-36.61515	-65.90727	-38.24249	-53.70222	0
8	53.70222	-168.42969	-222.13191	56.14323	136.69656	-195.2808	-65.0936	-67.53461	-41.49717	-75.67131	-48.00653	-61.02525	0
9	58.58424	-175.75272	-234.33696	58.58424	146.4606	-205.04484	-62.65259	-65.0936	-39.05616	-82.99434	-52.88855	-61.02525	0
10	56.14323	-178.19373	-234.33696	61.02525	144.01959	-205.04484	-62.65259	-65.0936	-39.05616	-92.75838	-60.21158	-65.90727	0
11	53.70222	-168.42969	-222.13191	56.14323	136.69656	-195.2808	-67.53461	-67.53461	-43.93818	-100.08141	-69.97562	-73.2303	0
12	58.58424	-158.66565	-217.24989	48.8202	136.69656	-187.95777	-72.41663	-72.41663	-46.37919	-104.96343	-77.29865	-80.55333	0
13	56.14323	-158.66565	-214.80888	51.26121	134.25555	-185.51676	-69.97562	-67.53461	-43.93818	-97.6404	-72.41663	-78.11232	0
14	61.02525	-153.78363	-214.80888	46.37919	136.69656	-183.07575	-65.0936	-62.65259	-39.05616	-85.43535	-62.65259	-70.78929	0
15	58.58424	-144.01959	-202.60383	41.49717	129.37353	-173.31171	-55.32956	-52.88855	-29.29212	-68.34828	-45.56552	-58.58424	0
16	61.02525	-131.81454	-192.83979	34.17414	126.93252	-161.10666	-50.44754	-48.00653	-19.52808	-48.8202	-30.91946	-48.8202	0
17	65.90727	-114.72747	-180.63474	24.4101	122.0505	-146.4606	-40.6835	-40.6835	-12.20505	-34.17414	-16.2734	-41.49717	0
18	70.78929	-109.84545	-180.63474	19.52808	124.49151	-144.01959	-33.36047	-33.36047	-4.88202	-26.85111	-11.39138	-36.61515	0
19	73.2303	-104.96343	-178.19373	16.2734	124.49151	-141.57858	-30.91946	-30.91946	0	-26.85111	-11.39138	-34.17414	0
20	68.34828	-119.60949	-187.95777	24.4101	126.93252	-153.78363	-28.47845	-26.03744	5.69569	-29.29212	-13.83239	-31.73313	0
21	73.2303	-124.49151	-197.72181	24.4101	134.25555	-161.10666	-30.91946	-30.91946	0	-36.61515	-26.03744	-39.05616	0
22	82.99434	-124.49151	-207.48585	19.52808	144.01959	-165.98868	-35.80148	-38.24249	-2.44101	-46.37919	-38.24249	-46.37919	0
23	82.99434	-124.49151	-207.48585	19.52808	144.01959	-165.98868	-33.36047	-35.80148	-2.44101	-48.8202	-38.24249	-43.93818	0
24	75.67131	-114.72747	-190.39878	19.52808	131.81454	-151.34262	-33.36047	-30.91946	0	-46.37919	-35.80148	-41.49717	0
25	70.78929	-104.96343	-175.75272	16.2734	122.0505	-139.13757	-28.47845	-28.47845	3.25468	-43.93818	-28.47845	-39.05616	0
26	70.78929	-90.31737	-161.10666	8.95037	114.72747	-124.49151	-28.47845	-28.47845	3.25468	-39.05616	-23.59643	-36.61515	0
27	65.90727	-78.11232	-144.01959	6.50936	104.96343	-109.84545	-23.59643	-26.03744	5.69569	-34.17414	-18.71441	-34.17414	0
28	58.58424	-75.67131	-134.25555	8.95037	95.19939	-104.96343	-18.71441	-18.71441	10.57771	-31.73313	-13.83239	-29.29212	0
29	58.58424	-82.99434	-141.57858	11.39138	100.08141	-112.28646	-13.83239	-16.2734	13.01872	-31.73313	-13.83239	-29.29212	0
30	63.46626	-87.87636	-151.34262	11.39138	107.40444	-119.60949	-13.83239	-16.2734	13.01872	-39.05616	-21.15542	-34.17414	0
31	73.2303	-85.43535	-158.66565	6.50936	114.72747	-122.0505	-11.39138	-13.83239	15.45973	-39.05616	-23.59643	-34.17414	0
32	82.99434	-82.99434	-165.98868	-0.81367	124.49151	-124.49151	-8.95037	-11.39138	17.90074	-39.05616	-26.03744	-34.17414	0
33	97.6404	-82.99434	-180.63474	-8.1367	139.13757	-131.81454	-6.50936	-6.50936	20.34175	-39.05616	-26.03744	-34.17414	0
34	100.08141	-78.11232	-178.19373	-10.57771	139.13757	-126.93252	-1.62734	-4.06835	25.22377	-36.61515	-21.15542	-29.29212	0
35	95.19939	-68.34828	-163.54767	-13.01872	129.37353	-114.72747	0.81367	-1.62734	27.66478	-31.73313	-13.83239	-21.96909	0
36	97.6404	-53.70222	-151.34262	-22.78276	124.49151	-102.52242	-4.06835	-4.06835	22.78276	-26.85111	-8.95037	-19.52808	0
37	100.08141	-53.70222	-153.78363	-22.78276	126.93252	-102.52242	-13.83239	-11.39138	17.90074	-24.4101	-8.95037	-17.08707	0
38	107.40444	-56.14323	-163.54767	-25.22377	134.25555	-109.84545	-23.59643	-21.15542	8.1367	-26.85111	-8.95037	-19.52808	0
39	104.96343	-46.37919	-151.34262	-30.10579	126.93252	-97.6404	-33.36047	-30.91946	0	-29.29212	-11.39138	-19.52808	0
40	102.52242	-39.05616	-141.57858	-32.5468	122.0505	-90.31737	-40.6835	-38.24249	-4.88202	-29.29212	-11.39138	-17.08707	0
41	102.52242	-31.73313	-134.25555	-34.98781	117.16848	-82.99434	-50.44754	-48.00653	-12.20505	-26.85111	-13.83239	-17.08707	0
42	107.40444	-31.73313	-139.13757	-37.42882	122.0505	-85.43535	-57.77057	-55.32956	-17.08707	-29.29212	-18.71441	-17.08707	0
43	107.40444	-26.85111	-134.25555	-39.86983	119.60949	-80.55333	-62.65259	-60.21158	-21.96909	-26.85111	-16.2734	-17.08707	0
44	112.28646	-24.4101	-136.69656	-44.75185	124.49151	-80.55333	-65.0936	-60.21158	-21.96909	-24.4101	-13.83239	-12.20505	0
45	112.28646	-24.4101	-136.69656	-44.75185	124.49151	-80.55333	-65.0936	-57.77057	-21.96909	-24.4101	-11.39138	-12.20505	0
46	112.28646	-13.83239	-126.93252	-49.63387	119.60949	-70.78929	-67.53461	-57.77057	-24.4101	-24.4101	-11.39138	-12.20505	0
47	122.0505	-16.2734	-139.13757	-52.07488	131.81454	-78.11232	-67.53461	-57.77057	-24.4101	-26.85111	-13.83239	-14.64606	0
48	114.72747	-16.2734	-131.81454	-49.63387	124.49151	-73.2303	-60.21158	-48.00653	-19.52808	-19.52808	-8.95037	-9.76404	0
49	104.96343	-16.2734	-122.0505	-44.75185	114.72747	-68.34828	-57.77057	-43.12451	-14.64606	-17.08707	-8.95037	-4.88202	0
50	92.75838	-18.71441	-112.28646	-37.42882	102.52242	-65.90727	-50.44754	-35.80148	-7.32303	-13.83239	-3.25468	-2.44101	0
51	68.34828	-24.4101	-92.75838	-22.78276	80.55333	-58.58424	-40.6835	-28.47845	0	-4.06835	4.06835	8.1367	0
52	53.70222	-41.49717	-95.19939	-5.69569	73.2303	-68.34828	-33.36047	-23.59643	3.25468	8.1367	11.39138	15.45973	0
53	36.61515	-61.02525	-97.6404	11.39138	65.90727	-78.11232	-30.91946	-21.15542	8.1367	15.45973	18.71441	20.34175	0
54	31.73313	-70.78929	-102.52242	19.52808	65.90727	-85.43535	-35.80148	-26.03744	0	15.45973	16.2734	17.90074	0
55	31.73313	-82.99434	-114.72747	24.4101	73.2303	-97.6404	-38.24249	-30.91946	0	13.01872	11.39138	13.01872	0
56	31.73313	-92.75838	-124.49151	29.29212	78.11232	-107.40444	-38.24249	-33.36047	-2.44101	10.57771	8.95037	8.1367	0
57	34.17414	-104.96343	-139.13757	34.17414	85.43535	-122.0505	-38.24249	-35.80148	-4.88202	3.25468	4.06835	0.81367	0
58	41.49717	-107.40444	-148.90161	31.73313	95.19939	-126.93252	-43.12451	-40.6835	-7.32303	-8.95037	-8.95037	-9.76404	0
59	41.49717	-109.84545	-151.34262	34.17414	95.19939	-129.37353	-40.6835	-40.6835	-7.32303	-19.52808	-18.71441	-17.08707	0
60	36.61515	-114.72747	-151.34262	39.05616	92.75838	-131.81454	-38.24249	-40.6835	-4.88202	-31.73313	-30.91946	-24.4101	0
61	41.49717	-122.0505	-163.54767	39.05616	102.52242	-141.57858	-40.6835	-45.56552	-4.88202	-46.37919	-45.56552	-34.17414	0
62	39.05616	-126.93252	-165.98868	43.93818	102.52242	-146.4606	-43.12451	-48.00653	-7.32303	-58.58424	-57.77057	-46.37919	0
63	24.4101	-141.57858	-165.98868	58.58424	95.19939	-153.78363	-43.12451	-48.00653	-7.32303	-63.46626	-65.0936	-51.26121	0
64	26.85111	-151.34262	-178.19373	61.02525	102.52242	-163.54767	-48.00653	-55.32956	-12.20505	-75.67131	-77.29865	-61.02525	0
65	21.96909	-158.66565	-180.63474	68.34828	100.08141	-168.42969	-52.88855	-57.77057	-12.20505	-80.55333	-79.73966	-65.90727	0
66	19.52808	-165.98868	-185.51676	73.2303	102.52242	-175.75272	-52.88855	-57.77057	-14.64606	-80.55333	-79.73966	-68.34828	0
67	17.08707	-168.42969	-185.51676	75.67131	100.08141	-175.75272	-50.44754	-57.77057	-14.64606	-80.55333	-79.73966	-68.34828	0
68	9.76404	-178.19373	-187.95777	82.99434	97.6404	-183.07575	-45.56552	-52.88855	-9.76404	-80.55333	-77.29865	-65.90727	0
69	7.32303	-185.51676	-192.83979	87.87636	100.08141	-187.95777	-40.6835	-50.44754	-4.88202	-80.55333	-77.29865	-63.46626	0
70	9.76404	-185.51676	-195.2808	87.87636	102.52242	-190.39878	-38.24249	-48.00653	-2.44101	-82.99434	-79.73966	-61.02525	0
71	7.32303	-185.51676	-192.83979	87.87636	100.08141	-187.95777	-33.36047	-45.56552	0	-82.99434	-77.29865	-56.14323	0
72	24.4101	-187.95777	-212.36787	80.55333	117.16848	-200.16282	-38.24249	-50.44754	-2.44101	-85.43535	-84.62168	-61.02525	0
73	29.29212	-187.95777	-217.24989	78.11232	122.0505	-202.60383	-38.24249	-52.88855	-2.44101	-87.87636	-87.06269	-65.90727	0
74	19.52808	-180.63474	-200.16282	80.55333	109.84545	-190.39878	-38.24249	-52.88855	-2.44101	-85.43535	-84.62168	-65.90727	0
75	19.52808	-170.8707	-190.39878	75.67131	104.96343	-180.63474	-40.6835	-55.32956	-2.44101	-85.43535	-84.62168	-65.90727	0
76	19.52808	-156.22464	-175.75272	68.34828	97.6404	-165.98868	-43.12451	-57.77057	-4.88202	-87.87636	-84.62168	-68.34828	0
77	12.20505	-156.22464	-168.42969	70.78929	90.31737	-161.10666	-38.24249	-52.88855	-2.44101	-87.87636	-84.62168	-68.34828	0
78	-4.88202	-158.66565	-153.78363	80.55333	73.2303	-156.22464	-33.36047	-45.56552	0	-87.87636	-82.18067	-65.90727	0
79	-20.34175	-163.54767	-144.01959	90.31737	61.02525	-153.78363	-26.03744	-40.6835	5.69569	-87.87636	-79.73966	-61.02525	0
80	-22.78276	-170.8707	-148.90161	95.19939	63.46626	-161.10666	-21.15542	-40.6835	5.69569	-92.75838	-84.62168	-63.46626	0
81	-17.90074	-173.31171	-156.22464	95.19939	68.34828	-165.98868	-16.2734	-38.24249	8.1367	-95.19939	-89.5037	-65.90727	0
82	-22.78276	-187.95777	-165.98868	104.96343	70.78929	-178.19373	-11.39138	-35.80148	10.57771	-92.75838	-91.94471	-65.90727	0
83	-17.90074	-200.16282	-183.07575	107.40444	82.99434	-192.83979	-6.50936	-35.80148	10.57771	-95.19939	-94.38572	-70.78929	0
84	-10.57771	-214.80888	-205.04484	112.28646	97.6404	-209.92686	-6.50936	-40.6835	5.69569	-102.52242	-101.70875	-80.55333	0
85	2.44101	-229.45494	-231.89595	112.28646	117.16848	-229.45494	-6.50936	-45.56552	0	-117.16848	-116.35481	-97.6404	0
86	-2.44101	-244.101	-241.65999	122.0505	119.60949	-241.65999	0.81367	-40.6835	0	-124.49151	-123.67784	-107.40444	0
87	-10.57771	-268.5111	-258.74706	139.13757	124.49151	-263.62908	11.39138	-35.80148	3.25468	-139.13757	-135.88289	-122.0505	0
88	-10.57771	-295.36221	-285.59817	151.34262	136.69656	-290.48019	16.2734	-35.80148	0	-163.54767	-155.41097	-141.57858	0
89	-7.32303	-310.00827	-302.68524	158.66565	146.4606	-305.12625	21.15542	-38.24249	-2.44101	-187.95777	-177.38006	-161.10666	0
90	0	-310.00827	-310.00827	153.78363	153.78363	-310.00827	28.47845	-38.24249	-4.88202	-202.60383	-192.02612	-175.75272	0
91	9.76404	-300.24423	-310.00827	144.01959	158.66565	-305.12625	38.24249	-33.36047	0	-205.04484	-194.46713	-178.19373	0
92	36.61515	-280.71615	-317.3313	122.0505	175.75272	-297.80322	48.00653	-28.47845	0	-195.2808	-189.58511	-175.75272	0
93	87.87636	-241.65999	-329.53635	75.67131	207.48585	-285.59817	48.00653	-30.91946	-4.88202	-178.19373	-179.82107	-175.75272	0
94	146.4606	-185.51676	-331.97736	19.52808	239.21898	-258.74706	50.44754	-30.91946	-12.20505	-148.90161	-160.29299	-165.98868	0
95	200.16282	-122.0505	-322.21332	-39.86983	261.18807	-222.13191	52.88855	-30.91946	-14.64606	-104.96343	-126.11885	-148.90161	0
96	256.30605	-63.46626	-319.77231	-96.01306	288.03918	-190.39878	52.88855	-28.47845	-19.52808	-46.37919	-82.18067	-126.93252	0
97	322.21332	8.1367	-314.89029	-164.36134	319.77231	-153.78363	48.00653	-33.36047	-29.29212	17.90074	-33.36047	-100.08141	0
98	390.5616	100.89508	-290.48019	-244.91467	341.7414	-95.19939	33.36047	-43.12451	-43.93818	91.13104	18.71441	-68.34828	0
99	456.46887	198.53548	-258.74706	-327.90901	358.82847	-29.29212	16.2734	-55.32956	-58.58424	174.12538	82.18067	-29.29212	0
100	527.25816	296.17588	-231.89595	-410.90335	380.79756	32.5468	0.81367	-62.65259	-70.78929	276.6478	160.29299	22.78276	1000	P+0
101	593.16543	418.22638	-175.75272	-506.10274	385.67958	122.86417	-18.71441	-69.97562	-78.11232	391.37527	248.16935	86.24902	0
102	659.0727	574.45102	-85.43535	-615.94819	373.47453	244.91467	-38.24249	-74.85764	-85.43535	510.98476	338.48672	152.15629	0
103	707.8929	737.99869	30.10579	-723.35263	339.30039	384.05224	-55.32956	-72.41663	-82.99434	640.35829	443.45015	232.70962	0
104	729.86199	882.01828	152.15629	-806.34697	290.48019	518.30779	-67.53461	-67.53461	-73.2303	764.8498	548.41358	313.26295	0
105	734.74401	991.86373	257.11972	-862.4902	239.21898	625.71223	-82.18067	-65.0936	-65.90727	864.93121	633.84893	384.05224	0
106	707.8929	1065.09403	357.20113	-886.9003	175.75272	711.14758	-94.38572	-65.0936	-56.14323	928.39747	694.87418	437.75446	0
107	663.95472	1087.06312	423.1084	-874.69525	122.0505	755.08576	-106.59077	-62.65259	-46.37919	960.1306	731.48933	476.81062	0
108	607.81149	1062.65302	454.84153	-835.63909	78.11232	759.96778	-121.23683	-65.0936	-36.61515	957.68959	746.13539	503.66173	0
109	539.46321	984.5407	445.07749	-762.40879	48.8202	716.0296	-138.3239	-74.85764	-29.29212	916.19242	729.04832	510.98476	0
110	449.14584	852.72616	403.58032	-650.12233	24.4101	628.15324	-157.85198	-87.06269	-26.85111	835.63909	680.22812	498.77971	0
111	358.82847	691.6195	332.79103	-525.63082	14.64606	513.42577	-170.05703	-94.38572	-17.08707	733.11667	614.32085	471.9286	0
112	268.5111	537.83587	269.32477	-403.58032	-0.81367	403.58032	-174.93905	-96.82673	-7.32303	620.83021	536.20853	437.75446	0
113	180.63474	406.02133	225.38659	-293.73487	-22.78276	315.70396	-179.82107	-99.26774	3.25468	506.10274	458.09621	393.81628	0
114	92.75838	283.97083	191.21245	-188.77144	-49.63387	237.59164	-182.26208	-101.70875	10.57771	391.37527	372.66086	342.55507	0
115	12.20505	169.24336	157.03831	-91.13104	-71.60296	164.36134	-182.26208	-104.14976	15.45973	281.52982	292.10753	288.85285	0
116	-49.63387	76.48498	125.30518	-13.01872	-86.24902	100.89508	-174.93905	-104.14976	17.90074	183.88942	211.5542	230.26861	0
117	-96.01306	13.01872	108.21811	41.49717	-100.89508	59.39791	-160.29299	-99.26774	25.22377	105.7771	148.08794	179.0074	0
118	-142.39225	-29.29212	113.10013	85.43535	-127.74619	42.31084	-140.76491	-84.62168	32.5468	52.07488	96.82673	139.95124	0
119	-179.0074	-61.02525	117.98215	119.60949	-149.71528	27.66478	-121.23683	-72.41663	37.42882	10.57771	57.77057	105.7771	0
120	-196.09447	-95.19939	100.89508	144.01959	-149.71528	3.25468	-99.26774	-60.21158	44.75185	-21.96909	23.59643	76.48498	0
121	-200.97649	-112.28646	88.69003	156.22464	-144.83326	-11.39138	-77.29865	-45.56552	49.63387	-43.93818	-3.25468	52.07488	0
122	-203.4175	-114.72747	88.69003	158.66565	-147.27427	-13.83239	-52.88855	-28.47845	56.9569	-51.26121	-16.2734	39.86983	0
123	-196.09447	-109.84545	86.24902	151.34262	-142.39225	-11.39138	-33.36047	-16.2734	61.83892	-53.70222	-26.03744	27.66478	0
124	-183.88942	-102.52242	81.367	141.57858	-132.62821	-11.39138	-23.59643	-11.39138	59.39791	-63.46626	-38.24249	10.57771	0
125	-161.92033	-97.6404	64.27993	129.37353	-113.10013	-16.2734	-18.71441	-11.39138	56.9569	-65.90727	-45.56552	-2.44101	0
126	-142.39225	-90.31737	52.07488	114.72747	-98.45407	-19.52808	-13.83239	-11.39138	54.51589	-63.46626	-45.56552	-7.32303	0
127	-125.30518	-92.75838	32.5468	107.40444	-78.92599	-31.73313	-8.95037	-11.39138	54.51589	-61.02525	-45.56552	-12.20505	0
128	-113.10013	-95.19939	17.90074	102.52242	-66.72094	-39.05616	-6.50936	-13.83239	52.07488	-63.46626	-50.44754	-19.52808	0
129	-103.33609	-100.08141	3.25468	100.08141	-54.51589	-48.8202	-1.62734	-16.2734	49.63387	-68.34828	-55.32956	-24.4101	0
130	-98.45407	-104.96343	-6.50936	100.08141	-47.19286	-56.14323	6.50936	-8.95037	56.9569	-65.90727	-52.88855	-19.52808	0
131	-88.69003	-100.08141	-11.39138	92.75838	-39.86983	-56.14323	16.2734	-4.06835	59.39791	-65.90727	-57.77057	-19.52808	0
132	-69.16195	-100.08141	-31.73313	82.99434	-20.34175	-65.90727	13.83239	-8.95037	54.51589	-78.11232	-69.97562	-31.73313	0
133	-59.39791	-95.19939	-36.61515	75.67131	-13.01872	-65.90727	13.83239	-11.39138	52.07488	-85.43535	-79.73966	-39.05616	0
134	-64.27993	-87.87636	-24.4101	75.67131	-20.34175	-56.14323	21.15542	-6.50936	54.51589	-82.99434	-77.29865	-39.05616	0
135	-66.72094	-90.31737	-24.4101	78.11232	-22.78276	-58.58424	23.59643	-4.06835	56.9569	-82.99434	-74.85764	-39.05616	0
136	-71.60296	-82.99434	-11.39138	75.67131	-30.10579	-48.8202	18.71441	-6.50936	52.07488	-82.99434	-77.29865	-46.37919	0
137	-74.04397	-80.55333	-6.50936	75.67131	-34.98781	-43.93818	18.71441	-8.95037	49.63387	-82.99434	-77.29865	-51.26121	0
138	-91.13104	-80.55333	10.57771	85.43535	-52.07488	-36.61515	23.59643	-1.62734	54.51589	-78.11232	-72.41663	-46.37919	0
139	-103.33609	-87.87636	15.45973	95.19939	-59.39791	-36.61515	30.91946	6.50936	61.83892	-73.2303	-67.53461	-39.05616	0
140	-108.21811	-97.6404	10.57771	102.52242	-59.39791	-43.93818	33.36047	6.50936	64.27993	-78.11232	-69.97562	-41.49717	0
141	-103.33609	-100.08141	3.25468	100.08141	-54.51589	-48.8202	30.91946	6.50936	59.39791	-85.43535	-79.73966	-46.37919	0
142	-103.33609	-104.96343	-1.62734	102.52242	-52.07488	-53.70222	30.91946	4.06835	59.39791	-90.31737	-87.06269	-48.8202	0
143	-96.01306	-114.72747	-19.52808	104.96343	-39.86983	-68.34828	28.47845	0.81367	54.51589	-97.6404	-91.94471	-53.70222	0
144	-93.57205	-129.37353	-36.61515	109.84545	-30.10579	-82.99434	26.03744	-1.62734	52.07488	-102.52242	-96.82673	-58.58424	0
145	-91.13104	-139.13757	-48.8202	114.72747	-22.78276	-95.19939	21.15542	-8.95037	47.19286	-107.40444	-99.26774	-63.46626	0
146	-91.13104	-141.57858	-51.26121	114.72747	-20.34175	-97.6404	18.71441	-11.39138	44.75185	-107.40444	-99.26774	-65.90727	0
147	-98.45407	-151.34262	-53.70222	124.49151	-22.78276	-102.52242	21.15542	-8.95037	44.75185	-107.40444	-94.38572	-63.46626	0
148	-98.45407	-146.4606	-48.8202	122.0505	-25.22377	-97.6404	23.59643	-8.95037	44.75185	-104.96343	-94.38572	-63.46626	0
149	-98.45407	-141.57858	-43.93818	119.60949	-27.66478	-92.75838	26.03744	-6.50936	44.75185	-107.40444	-94.38572	-63.46626	0
150	-96.01306	-134.25555	-39.05616	114.72747	-30.10579	-87.87636	30.91946	-1.62734	47.19286	-112.28646	-96.82673	-61.02525	0
151	-96.01306	-119.60949	-24.4101	107.40444	-37.42882	-73.2303	35.80148	0.81367	52.07488	-109.84545	-96.82673	-56.14323	0
152	-96.01306	-109.84545	-14.64606	102.52242	-42.31084	-63.46626	43.12451	8.95037	56.9569	-107.40444	-96.82673	-53.70222	0
153	-91.13104	-90.31737	0.81367	90.31737	-47.19286	-46.37919	45.56552	8.95037	56.9569	-109.84545	-99.26774	-58.58424	0
154	-91.13104	-82.99434	8.1367	85.43535	-49.63387	-39.05616	48.00653	11.39138	56.9569	-107.40444	-94.38572	-58.58424	0
155	-96.01306	-87.87636	8.1367	90.31737	-52.07488	-41.49717	50.44754	13.83239	59.39791	-102.52242	-87.06269	-56.14323	0
156	-100.89508	-92.75838	8.1367	95.19939	-54.51589	-43.93818	52.88855	13.83239	61.83892	-92.75838	-79.73966	-51.26121	0
157	-103.33609	-92.75838	10.57771	97.6404	-56.9569	-41.49717	52.88855	13.83239	61.83892	-87.87636	-74.85764	-51.26121	0
158	-93.57205	-95.19939	-1.62734	92.75838	-47.19286	-48.8202	52.88855	13.83239	61.83892	-82.99434	-74.85764	-51.26121	0
159	-93.57205	-100.08141	-6.50936	95.19939	-44.75185	-53.70222	52.88855	13.83239	61.83892	-82.99434	-74.85764	-51.26121	0
160	-86.24902	-109.84545	-24.4101	97.6404	-32.5468	-68.34828	48.00653	13.83239	59.39791	-85.43535	-74.85764	-51.26121	0
161	-81.367	-107.40444	-26.85111	92.75838	-27.66478	-68.34828	45.56552	11.39138	56.9569	-87.87636	-77.29865	-51.26121	0
162	-81.367	-104.96343	-24.4101	92.75838	-30.10579	-65.90727	45.56552	11.39138	56.9569	-90.31737	-82.18067	-51.26121	0
163	-81.367	-100.08141	-19.52808	90.31737	-32.5468	-61.02525	40.6835	6.50936	54.51589	-95.19939	-84.62168	-53.70222	0
164	-86.24902	-100.08141	-14.64606	92.75838	-37.42882	-58.58424	40.6835	4.06835	52.07488	-100.08141	-87.06269	-56.14323	0
165	-98.45407	-100.08141	-1.62734	97.6404	-49.63387	-51.26121	40.6835	4.06835	49.63387	-100.08141	-84.62168	-56.14323	0
166	-110.65912	-100.08141	10.57771	104.96343	-61.83892	-46.37919	45.56552	6.50936	54.51589	-95.19939	-77.29865	-51.26121	0
167	-122.86417	-97.6404	25.22377	109.84545	-74.04397	-36.61515	48.00653	8.95037	54.51589	-92.75838	-77.29865	-48.8202	0
168	-130.1872	-92.75838	37.42882	109.84545	-83.80801	-29.29212	48.00653	8.95037	54.51589	-95.19939	-77.29865	-48.8202	0
169	-135.06922	-90.31737	44.75185	112.28646	-91.13104	-24.4101	50.44754	11.39138	54.51589	-97.6404	-79.73966	-48.8202	0
170	-137.51023	-90.31737	47.19286	112.28646	-93.57205	-21.96909	55.32956	16.2734	59.39791	-97.6404	-79.73966	-46.37919	0
171	-137.51023	-82.99434	54.51589	109.84545	-96.01306	-13.83239	55.32956	18.71441	61.83892	-97.6404	-79.73966	-43.93818	0
172	-132.62821	-75.67131	56.9569	102.52242	-96.01306	-8.95037	55.32956	18.71441	61.83892	-100.08141	-84.62168	-46.37919	0
173	-113.10013	-68.34828	44.75185	90.31737	-78.92599	-11.39138	50.44754	13.83239	54.51589	-102.52242	-89.5037	-51.26121	0
174	-96.01306	-58.58424	37.42882	75.67131	-66.72094	-11.39138	48.00653	11.39138	52.07488	-104.96343	-91.94471	-56.14323	0
175	-96.01306	-53.70222	42.31084	73.2303	-69.16195	-6.50936	50.44754	11.39138	52.07488	-102.52242	-87.06269	-53.70222	0
176	-108.21811	-48.8202	59.39791	78.11232	-83.80801	5.69569	57.77057	16.2734	56.9569	-90.31737	-77.29865	-48.8202	0
177	-125.30518	-46.37919	78.92599	85.43535	-103.33609	15.45973	60.21158	16.2734	56.9569	-82.99434	-69.97562	-43.93818	0
178	-135.06922	-43.93818	91.13104	87.87636	-113.10013	22.78276	60.21158	16.2734	56.9569	-78.11232	-67.53461	-41.49717	0
179	-142.39225	-43.93818	98.45407	92.75838	-120.42316	27.66478	60.21158	21.15542	59.39791	-75.67131	-65.0936	-39.05616	0
180	-159.47932	-48.8202	110.65912	102.52242	-135.06922	30.10579	65.0936	26.03744	64.27993	-73.2303	-60.21158	-31.73313	0
181	-176.56639	-48.8202	127.74619	112.28646	-152.15629	39.86983	72.41663	35.80148	71.60296	-65.90727	-57.77057	-24.4101	0
182	-179.0074	-43.93818	135.06922	109.84545	-157.03831	44.75185	74.85764	43.12451	76.48498	-61.02525	-55.32956	-17.08707	0
183	-164.36134	-31.73313	132.62821	97.6404	-149.71528	49.63387	74.85764	45.56552	76.48498	-61.02525	-52.88855	-17.08707	0
184	-154.5973	-13.83239	139.95124	82.99434	-147.27427	61.83892	74.85764	48.00653	74.04397	-61.02525	-50.44754	-17.08707	0
185	-154.5973	5.69569	159.47932	73.2303	-157.03831	81.367	77.29865	52.88855	76.48498	-53.70222	-43.12451	-12.20505	0
186	-154.5973	15.45973	169.24336	68.34828	-161.92033	91.13104	79.73966	60.21158	81.367	-43.93818	-33.36047	-7.32303	0
187	-142.39225	17.90074	159.47932	61.02525	-149.71528	88.69003	82.18067	62.65259	83.80801	-34.17414	-26.03744	-2.44101	0
188	-127.74619	22.78276	149.71528	51.26121	-137.51023	86.24902	77.29865	62.65259	78.92599	-36.61515	-26.03744	-4.88202	0
189	-127.74619	25.22377	152.15629	51.26121	-139.95124	88.69003	77.29865	62.65259	76.48498	-39.05616	-30.91946	-4.88202	0
190	-139.95124	17.90074	157.03831	61.02525	-147.27427	86.24902	82.18067	67.53461	78.92599	-39.05616	-30.91946	-2.44101	0
191	-142.39225	5.69569	147.27427	68.34828	-144.83326	76.48498	84.62168	72.41663	83.80801	-36.61515	-30.91946	0.81367	0
192	-149.71528	5.69569	154.5973	70.78929	-152.15629	78.92599	84.62168	77.29865	86.24902	-36.61515	-30.91946	3.25468	0
193	-154.5973	17.90074	171.68437	68.34828	-161.92033	93.57205	87.06269	79.73966	88.69003	-36.61515	-28.47845	5.69569	0
194	-169.24336	37.42882	205.85851	65.90727	-186.33043	120.42316	89.5037	84.62168	93.57205	-29.29212	-21.15542	13.01872	0
195	-179.0074	54.51589	232.70962	61.02525	-205.85851	142.39225	91.94471	89.5037	98.45407	-24.4101	-13.83239	20.34175	0
196	-188.77144	74.04397	262.00174	56.14323	-225.38659	166.80235	94.38572	91.94471	100.89508	-17.08707	-8.95037	25.22377	0
197	-188.77144	91.13104	279.08881	48.8202	-232.70962	183.88942	89.5037	87.06269	100.89508	-11.39138	-0.81367	27.66478	0
198	-196.09447	100.89508	296.17588	46.37919	-244.91467	198.53548	91.94471	87.06269	100.89508	-4.06835	4.06835	32.5468	0
199	-196.09447	113.10013	308.38093	41.49717	-252.2377	210.74053	91.94471	89.5037	103.33609	-1.62734	6.50936	34.98781	0
200	-196.09447	125.30518	320.58598	34.17414	-257.11972	222.94558	87.06269	87.06269	100.89508	-4.06835	4.06835	34.98781	0
201	-193.65346	132.62821	325.468	29.29212	-259.56073	227.8276	87.06269	89.5037	100.89508	0.81367	6.50936	37.42882	0
202	-186.33043	135.06922	320.58598	24.4101	-252.2377	227.8276	87.06269	91.94471	100.89508	3.25468	6.50936	37.42882	0
203	-191.21245	139.95124	330.35002	24.4101	-259.56073	235.15063	89.5037	96.82673	105.7771	8.1367	8.95037	42.31084	0
204	-193.65346	147.27427	340.11406	21.96909	-266.88376	242.47366	89.5037	99.26774	105.7771	13.01872	11.39138	42.31084	0
205	-196.09447	157.03831	352.31911	19.52808	-274.20679	254.67871	89.5037	99.26774	108.21811	17.90074	16.2734	42.31084	0
206	-200.97649	161.92033	362.08315	19.52808	-281.52982	262.00174	89.5037	99.26774	110.65912	27.66478	23.59643	47.19286	0
207	-205.85851	169.24336	374.2882	16.2734	-288.85285	271.76578	89.5037	101.70875	113.10013	37.42882	30.91946	52.07488	0
208	-203.4175	183.88942	386.49325	8.95037	-293.73487	283.97083	89.5037	99.26774	113.10013	42.31084	35.80148	54.51589	0
209	-193.65346	193.65346	386.49325	-0.81367	-288.85285	288.85285	91.94471	99.26774	117.98215	49.63387	43.12451	59.39791	0
210	-174.12538	208.29952	381.61123	-17.90074	-276.6478	293.73487	89.5037	96.82673	117.98215	49.63387	43.12451	61.83892	0
211	-149.71528	220.50457	369.40618	-34.98781	-259.56073	293.73487	87.06269	96.82673	115.54114	49.63387	40.6835	61.83892	0
212	-149.71528	235.15063	384.05224	-42.31084	-266.88376	308.38093	87.06269	99.26774	122.86417	54.51589	45.56552	69.16195	0
213	-161.92033	252.2377	413.34436	-44.75185	-286.41184	332.79103	89.5037	101.70875	127.74619	64.27993	52.88855	76.48498	0
214	-179.0074	259.56073	437.75446	-39.86983	-308.38093	347.43709	89.5037	104.14976	127.74619	74.04397	60.21158	81.367	0
215	-193.65346	274.20679	467.04658	-39.86983	-330.35002	369.40618	89.5037	106.59077	130.1872	83.80801	69.97562	86.24902	0
216	-208.29952	293.73487	501.22072	-42.31084	-354.76012	396.25729	91.94471	113.9138	135.06922	103.33609	84.62168	98.45407	0
217	-222.94558	313.26295	535.39486	-44.75185	-379.17022	423.1084	99.26774	123.67784	144.83326	122.86417	101.70875	110.65912	0
218	-237.59164	337.67305	574.45102	-49.63387	-406.02133	454.84153	106.59077	133.44188	152.15629	139.95124	118.79582	122.86417	0
219	-230.26861	342.55507	572.01001	-56.9569	-401.13931	457.28254	109.03178	135.88289	152.15629	147.27427	123.67784	130.1872	0
220	-222.94558	352.31911	574.45102	-64.27993	-398.6983	462.16456	111.47279	138.3239	154.5973	149.71528	126.11885	135.06922	0
221	-205.85851	369.40618	574.45102	-81.367	-388.93426	471.9286	109.03178	138.3239	152.15629	149.71528	126.11885	137.51023	0
222	-200.97649	379.17022	579.33304	-88.69003	-388.93426	479.25163	109.03178	135.88289	152.15629	147.27427	123.67784	137.51023	0
223	-200.97649	379.17022	579.33304	-88.69003	-388.93426	479.25163	109.03178	135.88289	152.15629	147.27427	123.67784	139.95124	0
224	-203.4175	379.17022	581.77405	-88.69003	-391.37527	479.25163	109.03178	135.88289	152.15629	147.27427	126.11885	139.95124	0
225	-193.65346	388.93426	581.77405	-98.45407	-386.49325	484.13365	101.70875	133.44188	149.71528	144.83326	126.11885	137.51023	0
226	-179.0074	401.13931	579.33304	-110.65912	-379.17022	489.01567	99.26774	131.00087	144.83326	147.27427	126.11885	137.51023	0
227	-181.44841	408.46234	589.09708	-113.10013	-384.05224	498.77971	99.26774	135.88289	147.27427	159.47932	135.88289	142.39225	0
228	-186.33043	408.46234	593.9791	-110.65912	-388.93426	501.22072	99.26774	135.88289	147.27427	171.68437	143.20592	144.83326	0
229	-181.44841	408.46234	589.09708	-113.10013	-384.05224	498.77971	91.94471	131.00087	142.39225	174.12538	143.20592	144.83326	0
230	-174.12538	410.90335	584.21506	-117.98215	-379.17022	496.3387	89.5037	128.55986	137.51023	176.56639	143.20592	144.83326	0
231	-176.56639	413.34436	589.09708	-117.98215	-381.61123	501.22072	94.38572	133.44188	142.39225	186.33043	148.08794	149.71528	0
232	-188.77144	418.22638	606.18415	-115.54114	-396.25729	510.98476	99.26774	133.44188	144.83326	193.65346	152.96996	154.5973	0
233	-193.65346	418.22638	611.06617	-113.10013	-401.13931	513.42577	101.70875	135.88289	147.27427	196.09447	155.41097	154.5973	0
234	-198.53548	415.78537	613.50718	-108.21811	-406.02133	513.42577	106.59077	140.76491	152.15629	198.53548	157.85198	157.03831	0
235	-196.09447	415.78537	611.06617	-110.65912	-403.58032	513.42577	111.47279	140.76491	154.5973	198.53548	160.29299	159.47932	0
236	-203.4175	410.90335	613.50718	-103.33609	-408.46234	510.98476	116.35481	145.64693	159.47932	203.4175	165.17501	164.36134	1500	QRS+0
237	-208.29952	401.13931	608.62516	-96.01306	-408.46234	503.66173	113.9138	145.64693	159.47932	205.85851	165.17501	164.36134	0
238	-205.85851	388.93426	593.9791	-91.13104	-398.6983	491.45668	111.47279	143.20592	157.03831	208.29952	162.734	161.92033	0
239	-205.85851	379.17022	584.21506	-86.24902	-393.81628	481.69264	111.47279	140.76491	154.5973	213.18154	167.61602	164.36134	0
240	-191.21245	381.61123	572.01001	-96.01306	-381.61123	476.81062	106.59077	135.88289	147.27427	213.18154	165.17501	161.92033	0
241	-174.12538	388.93426	562.24597	-108.21811	-366.96517	474.36961	101.70875	128.55986	142.39225	213.18154	165.17501	159.47932	0
242	-164.36134	393.81628	557.36395	-115.54114	-359.64214	474.36961	99.26774	126.11885	135.06922	218.06356	165.17501	159.47932	0
243	-147.27427	401.13931	547.59991	-127.74619	-347.43709	474.36961	89.5037	113.9138	122.86417	213.18154	160.29299	152.15629	0
244	-135.06922	396.25729	530.51284	-130.1872	-332.79103	462.16456	84.62168	106.59077	115.54114	210.74053	160.29299	147.27427	0
245	-113.10013	388.93426	501.22072	-137.51023	-305.93992	445.07749	77.29865	99.26774	105.7771	200.97649	152.96996	137.51023	0
246	-100.89508	369.40618	469.48759	-135.06922	-283.97083	418.22638	74.85764	96.82673	100.89508	193.65346	148.08794	132.62821	0
247	-98.45407	349.8781	447.5185	-125.30518	-271.76578	398.6983	69.97562	94.38572	93.57205	186.33043	140.76491	127.74619	0
248	-100.89508	330.35002	430.43143	-115.54114	-264.44275	379.17022	65.0936	89.5037	86.24902	181.44841	133.44188	120.42316	0
249	-100.89508	313.26295	413.34436	-105.7771	-257.11972	362.08315	60.21158	84.62168	78.92599	171.68437	126.11885	115.54114	0
250	-93.57205	303.49891	396.25729	-105.7771	-244.91467	349.8781	57.77057	79.73966	74.04397	159.47932	113.9138	108.21811	0
251	-88.69003	293.73487	381.61123	-103.33609	-235.15063	337.67305	52.88855	74.85764	64.27993	149.71528	106.59077	98.45407	0
252	-83.80801	279.08881	362.08315	-98.45407	-222.94558	320.58598	50.44754	67.53461	59.39791	142.39225	99.26774	93.57205	0
253	-69.16195	266.88376	335.23204	-98.45407	-200.97649	301.0579	45.56552	57.77057	47.19286	135.06922	89.5037	83.80801	0
254	-56.9569	244.91467	301.0579	-93.57205	-179.0074	271.76578	43.12451	50.44754	42.31084	125.30518	84.62168	76.48498	0
255	-47.19286	222.94558	269.32477	-88.69003	-157.03831	244.91467	45.56552	48.00653	42.31084	120.42316	82.18067	74.04397	0
256	-30.10579	200.97649	230.26861	-86.24902	-130.1872	215.62255	45.56552	48.00653	42.31084	113.10013	79.73966	71.60296	0
257	-17.90074	181.44841	198.53548	-81.367	-108.21811	188.77144	45.56552	43.12451	37.42882	105.7771	74.85764	66.72094	0
258	-13.01872	166.80235	179.0074	-76.48498	-96.01306	171.68437	35.80148	33.36047	30.10579	98.45407	67.53461	61.83892	0
259	-17.90074	154.5973	171.68437	-69.16195	-93.57205	161.92033	28.47845	23.59643	22.78276	88.69003	57.77057	52.07488	0
260	-22.78276	137.51023	159.47932	-56.9569	-91.13104	147.27427	21.15542	16.2734	15.45973	76.48498	48.00653	44.75185	0
261	-10.57771	120.42316	130.1872	-54.51589	-69.16195	125.30518	11.39138	4.06835	3.25468	66.72094	35.80148	32.5468	0
262	-17.90074	105.7771	122.86417	-44.75185	-69.16195	113.10013	6.50936	0.81367	0	59.39791	28.47845	27.66478	0
263	-20.34175	86.24902	105.7771	-32.5468	-61.83892	96.01306	0.81367	-6.50936	-4.88202	52.07488	21.15542	17.90074	0
264	-20.34175	69.16195	88.69003	-25.22377	-54.51589	78.92599	0.81367	-6.50936	-9.76404	44.75185	16.2734	10.57771	0
265	-2.44101	54.51589	56.9569	-25.22377	-30.10579	56.9569	0.81367	-11.39138	-14.64606	32.5468	6.50936	3.25468	0
266	9.76404	37.42882	27.66478	-22.78276	-8.1367	32.5468	0.81367	-11.39138	-14.64606	22.78276	1.62734	-2.44101	0
267	19.52808	32.5468	13.01872	-25.22377	4.88202	22.78276	0.81367	-11.39138	-14.64606	15.45973	-3.25468	-2.44101	0
268	34.17414	32.5468	-1.62734	-32.5468	19.52808	15.45973	-4.06835	-18.71441	-21.96909	0.81367	-13.83239	-9.76404	0
269	48.8202	17.90074	-31.73313	-32.5468	41.49717	-6.50936	-6.50936	-26.03744	-29.29212	-13.83239	-26.03744	-17.08707	0
270	56.14323	-6.50936	-63.46626	-25.22377	61.02525	-34.17414	-4.06835	-26.03744	-29.29212	-21.96909	-33.36047	-19.52808	0
271	51.26121	-29.29212	-80.55333	-10.57771	65.90727	-53.70222	0.81367	-23.59643	-26.85111	-26.85111	-33.36047	-19.52808	0
272	43.93818	-43.93818	-87.87636	-0.81367	65.90727	-65.90727	0.81367	-21.15542	-29.29212	-31.73313	-38.24249	-24.4101	0
273	46.37919	-43.93818	-90.31737	-0.81367	68.34828	-65.90727	-4.06835	-28.47845	-39.05616	-43.93818	-48.00653	-34.17414	0
274	53.70222	-53.70222	-107.40444	-0.81367	80.55333	-80.55333	-11.39138	-33.36047	-46.37919	-53.70222	-57.77057	-46.37919	0
275	61.02525	-65.90727	-126.93252	1.62734	92.75838	-95.19939	-13.83239	-35.80148	-53.70222	-61.02525	-62.65259	-53.70222	0
276	51.26121	-70.78929	-122.0505	8.95037	85.43535	-95.19939	-16.2734	-35.80148	-53.70222	-61.02525	-62.65259	-53.70222	0
277	36.61515	-58.58424	-95.19939	11.39138	65.90727	-75.67131	-16.2734	-35.80148	-56.14323	-63.46626	-62.65259	-53.70222	0
278	36.61515	-65.90727	-102.52242	13.83239	68.34828	-82.99434	-18.71441	-38.24249	-56.14323	-61.02525	-62.65259	-56.14323	0
279	29.29212	-87.87636	-117.16848	29.29212	73.2303	-102.52242	-11.39138	-28.47845	-46.37919	-48.8202	-52.88855	-46.37919	0
280	17.08707	-107.40444	-124.49151	43.93818	70.78929	-114.72747	0.81367	-21.15542	-36.61515	-39.05616	-40.6835	-34.17414	0
281	0	-109.84545	-109.84545	53.70222	53.70222	-109.84545	8.95037	-11.39138	-26.85111	-26.85111	-30.91946	-26.85111	0
282	-10.57771	-107.40444	-97.6404	58.58424	43.93818	-102.52242	11.39138	-11.39138	-24.4101	-21.96909	-28.47845	-24.4101	0
283	-2.44101	-109.84545	-107.40444	56.14323	51.26121	-107.40444	8.95037	-13.83239	-26.85111	-24.4101	-28.47845	-26.85111	0
284	4.88202	-109.84545	-114.72747	51.26121	58.58424	-112.28646	6.50936	-16.2734	-29.29212	-29.29212	-30.91946	-31.73313	0
285	14.64606	-100.08141	-114.72747	41.49717	63.46626	-107.40444	0.81367	-23.59643	-34.17414	-39.05616	-38.24249	-36.61515	0
286	29.29212	-97.6404	-126.93252	34.17414	78.11232	-112.28646	-6.50936	-33.36047	-43.93818	-53.70222	-50.44754	-48.8202	0
287	34.17414	-100.08141	-134.25555	31.73313	82.99434	-117.16848	-11.39138	-38.24249	-48.8202	-63.46626	-57.77057	-53.70222	0
288	34.17414	-107.40444	-141.57858	36.61515	87.87636	-124.49151	-11.39138	-38.24249	-48.8202	-70.78929	-62.65259	-53.70222	0
289	39.05616	-109.84545	-148.90161	34.17414	92.75838	-129.37353	-13.83239	-40.6835	-53.70222	-75.67131	-67.53461	-58.58424	0
290	43.93818	-114.72747	-158.66565	34.17414	100.08141	-136.69656	-16.2734	-43.12451	-56.14323	-82.99434	-74.85764	-61.02525	0
291	58.58424	-117.16848	-175.75272	29.29212	117.16848	-146.4606	-21.15542	-48.00653	-61.02525	-87.87636	-82.18067	-68.34828	0
292	61.02525	-114.72747	-175.75272	26.85111	117.16848	-144.01959	-23.59643	-48.00653	-61.02525	-85.43535	-82.18067	-68.34828	0
293	53.70222	-117.16848	-170.8707	31.73313	112.28646	-144.01959	-18.71441	-43.12451	-58.58424	-78.11232	-77.29865	-65.90727	0
294	61.02525	-117.16848	-178.19373	26.85111	119.60949	-146.4606	-21.15542	-40.6835	-58.58424	-75.67131	-77.29865	-65.90727	0
295	63.46626	-114.72747	-178.19373	24.4101	119.60949	-146.4606	-21.15542	-40.6835	-61.02525	-73.2303	-72.41663	-65.90727	0
296	65.90727	-112.28646	-178.19373	21.96909	122.0505	-144.01959	-26.03744	-40.6835	-61.02525	-73.2303	-72.41663	-65.90727	0
297	53.70222	-104.96343	-158.66565	24.4101	104.96343	-131.81454	-28.47845	-38.24249	-58.58424	-70.78929	-67.53461	-61.02525	0
298	31.73313	-107.40444	-139.13757	36.61515	85.43535	-122.0505	-23.59643	-33.36047	-53.70222	-65.90727	-62.65259	-53.70222	0
299	19.52808	-104.96343	-124.49151	41.49717	70.78929	-114.72747	-21.15542	-30.91946	-51.26121	-65.90727	-60.21158	-51.26121	0
300	24.4101	-104.96343	-129.37353	39.05616	75.67131	-117.16848	-21.15542	-33.36047	-51.26121	-73.2303	-65.0936	-51.26121	0
301	9.76404	-104.96343	-114.72747	46.37919	61.02525	-109.84545	-21.15542	-33.36047	-51.26121	-73.2303	-65.0936	-51.26121	0
302	-2.44101	-104.96343	-102.52242	53.70222	48.8202	-102.52242	-16.2734	-30.91946	-48.8202	-70.78929	-65.0936	-48.8202	0
303	-7.32303	-109.84545	-102.52242	58.58424	46.37919	-104.96343	-11.39138	-28.47845	-43.93818	-65.90727	-60.21158	-43.93818	0
304	-2.44101	-109.84545	-107.40444	56.14323	51.26121	-107.40444	-11.39138	-28.47845	-43.93818	-65.90727	-60.21158	-43.93818	0
305	-2.44101	-114.72747	-112.28646	58.58424	53.70222	-112.28646	-6.50936	-26.03744	-41.49717	-61.02525	-55.32956	-41.49717	0
306	-2.44101	-112.28646	-109.84545	56.14323	53.70222	-109.84545	-6.50936	-23.59643	-39.05616	-58.58424	-52.88855	-41.49717	0
307	7.32303	-107.40444	-114.72747	48.8202	61.02525	-109.84545	-6.50936	-23.59643	-39.05616	-58.58424	-52.88855	-41.49717	0
308	29.29212	-104.96343	-134.25555	36.61515	80.55333	-119.60949	-13.83239	-30.91946	-46.37919	-63.46626	-62.65259	-51.26121	0
309	46.37919	-107.40444	-153.78363	29.29212	100.08141	-129.37353	-21.15542	-38.24249	-53.70222	-68.34828	-72.41663	-58.58424	0
310	56.14323	-104.96343	-161.10666	24.4101	107.40444	-131.81454	-26.03744	-43.12451	-58.58424	-73.2303	-77.29865	-63.46626	0
311	63.46626	-102.52242	-165.98868	19.52808	114.72747	-134.25555	-28.47845	-45.56552	-63.46626	-75.67131	-79.73966	-65.90727	0
312	61.02525	-97.6404	-158.66565	16.2734	109.84545	-126.93252	-30.91946	-50.44754	-65.90727	-75.67131	-82.18067	-68.34828	0
313	53.70222	-104.96343	-158.66565	24.4101	104.96343	-131.81454	-30.91946	-50.44754	-65.90727	-73.2303	-77.29865	-68.34828	0
314	36.61515	-109.84545	-146.4606	36.61515	90.31737	-126.93252	-23.59643	-40.6835	-61.02525	-65.90727	-67.53461	-61.02525	0
315	34.17414	-112.28646	-146.4606	39.05616	90.31737	-129.37353	-16.2734	-35.80148	-53.70222	-61.02525	-60.21158	-56.14323	0
316	21.96909	-114.72747	-136.69656	46.37919	78.11232	-124.49151	-8.95037	-28.47845	-46.37919	-56.14323	-52.88855	-48.8202	0
317	14.64606	-117.16848	-131.81454	51.26121	73.2303	-124.49151	-6.50936	-28.47845	-43.93818	-51.26121	-48.00653	-43.93818	0
318	24.4101	-122.0505	-146.4606	48.8202	85.43535	-134.25555	-8.95037	-28.47845	-43.93818	-53.70222	-50.44754	-43.93818	-1500	QRS-0
319	29.29212	-119.60949	-148.90161	43.93818	87.87636	-134.25555	-13.83239	-33.36047	-48.8202	-58.58424	-55.32956	-48.8202	0
320	31.73313	-107.40444	-139.13757	36.61515	85.43535	-122.0505	-18.71441	-38.24249	-53.70222	-68.34828	-62.65259	-53.70222	0
321	36.61515	-104.96343	-141.57858	34.17414	87.87636	-122.0505	-23.59643	-43.12451	-58.58424	-73.2303	-67.53461	-58.58424	0
322	39.05616	-107.40444	-146.4606	34.17414	92.75838	-126.93252	-26.03744	-45.56552	-61.02525	-73.2303	-69.97562	-58.58424	0
323	51.26121	-107.40444	-158.66565	26.85111	104.96343	-131.81454	-28.47845	-48.00653	-65.90727	-73.2303	-69.97562	-61.02525	0
324	51.26121	-112.28646	-163.54767	29.29212	107.40444	-136.69656	-30.91946	-48.00653	-65.90727	-73.2303	-69.97562	-61.02525	0
325	36.61515	-109.84545	-146.4606	36.61515	90.31737	-126.93252	-26.03744	-45.56552	-65.90727	-68.34828	-67.53461	-58.58424	0
326	39.05616	-112.28646	-151.34262	36.61515	95.19939	-131.81454	-26.03744	-45.56552	-65.90727	-63.46626	-65.0936	-56.14323	0
327	46.37919	-119.60949	-165.98868	36.61515	104.96343	-141.57858	-23.59643	-45.56552	-61.02525	-61.02525	-65.0936	-53.70222	0
328	36.61515	-119.60949	-156.22464	41.49717	95.19939	-136.69656	-18.71441	-45.56552	-58.58424	-58.58424	-65.0936	-48.8202	0
329	17.08707	-122.0505	-139.13757	51.26121	78.11232	-129.37353	-11.39138	-38.24249	-48.8202	-51.26121	-60.21158	-43.93818	0
330	7.32303	-124.49151	-131.81454	58.58424	68.34828	-126.93252	-6.50936	-35.80148	-43.93818	-51.26121	-60.21158	-41.49717	0
331	12.20505	-131.81454	-144.01959	58.58424	78.11232	-136.69656	-6.50936	-38.24249	-43.93818	-51.26121	-60.21158	-43.93818	0
332	17.08707	-144.01959	-161.10666	63.46626	87.87636	-151.34262	-1.62734	-38.24249	-41.49717	-48.8202	-60.21158	-43.93818	0
333	14.64606	-151.34262	-165.98868	68.34828	90.31737	-158.66565	0.81367	-38.24249	-36.61515	-43.93818	-57.77057	-39.05616	0
334	19.52808	-156.22464	-175.75272	68.34828	97.6404	-165.98868	0.81367	-35.80148	-36.61515	-41.49717	-55.32956	-39.05616	0
335	36.61515	-156.22464	-192.83979	58.58424	114.72747	-173.31171	-1.62734	-38.24249	-39.05616	-46.37919	-57.77057	-43.93818	0
336	48.8202	-146.4606	-195.2808	48.8202	122.0505	-170.8707	-8.95037	-40.6835	-43.93818	-51.26121	-62.65259	-46.37919	0
337	48.8202	-136.69656	-185.51676	43.93818	117.16848	-161.10666	-8.95037	-40.6835	-41.49717	-51.26121	-60.21158	-46.37919	0
338	51.26121	-126.93252	-178.19373	36.61515	114.72747	-151.34262	-8.95037	-38.24249	-39.05616	-48.8202	-60.21158	-41.49717	0
339	48.8202	-114.72747	-163.54767	31.73313	104.96343	-139.13757	-8.95037	-38.24249	-39.05616	-53.70222	-62.65259	-41.49717	0
340	39.05616	-114.72747	-153.78363	36.61515	95.19939	-134.25555	-8.95037	-38.24249	-36.61515	-58.58424	-65.0936	-41.49717	0
341	29.29212	-104.96343	-134.25555	36.61515	80.55333	-119.60949	-6.50936	-38.24249	-36.61515	-58.58424	-65.0936	-41.49717	0
342	29.29212	-102.52242	-131.81454	36.61515	80.55333	-117.16848	-6.50936	-38.24249	-36.61515	-61.02525	-67.53461	-43.93818	0
343	31.73313	-107.40444	-139.13757	36.61515	85.43535	-122.0505	-8.95037	-45.56552	-41.49717	-63.46626	-69.97562	-51.26121	0
344	41.49717	-119.60949	-161.10666	39.05616	100.08141	-139.13757	-13.83239	-50.44754	-48.8202	-68.34828	-74.85764	-58.58424	0
345	56.14323	-134.25555	-190.39878	39.05616	122.0505	-161.10666	-18.71441	-52.88855	-53.70222	-78.11232	-82.18067	-63.46626	0
346	68.34828	-141.57858	-209.92686	36.61515	139.13757	-175.75272	-18.71441	-55.32956	-58.58424	-82.99434	-84.62168	-70.78929	0
347	78.11232	-151.34262	-229.45494	36.61515	153.78363	-190.39878	-21.15542	-57.77057	-63.46626	-85.43535	-87.06269	-70.78929	0
348	70.78929	-156.22464	-227.01393	41.49717	148.90161	-190.39878	-18.71441	-55.32956	-63.46626	-85.43535	-87.06269	-70.78929	0
349	61.02525	-156.22464	-217.24989	46.37919	139.13757	-185.51676	-13.83239	-50.44754	-58.58424	-82.99434	-82.18067	-65.90727	0
350	58.58424	-153.78363	-212.36787	46.37919	134.25555	-183.07575	-8.95037	-48.00653	-56.14323	-80.55333	-79.73966	-63.46626	0
351	48.8202	-144.01959	-192.83979	46.37919	119.60949	-168.42969	-8.95037	-45.56552	-56.14323	-75.67131	-72.41663	-58.58424	0
352	41.49717	-136.69656	-178.19373	46.37919	109.84545	-156.22464	-8.95037	-45.56552	-56.14323	-70.78929	-67.53461	-56.14323	0
353	31.73313	-131.81454	-163.54767	48.8202	97.6404	-146.4606	-8.95037	-48.00653	-58.58424	-68.34828	-65.0936	-53.70222	0
354	29.29212	-144.01959	-173.31171	56.14323	100.08141	-158.66565	-8.95037	-48.00653	-58.58424	-65.90727	-60.21158	-51.26121	0
355	36.61515	-161.10666	-197.72181	61.02525	117.16848	-178.19373	-13.83239	-52.88855	-61.02525	-65.90727	-57.77057	-48.8202	0
356	26.85111	-165.98868	-192.83979	68.34828	109.84545	-178.19373	-13.83239	-55.32956	-63.46626	-68.34828	-57.77057	-46.37919	0
357	26.85111	-163.54767	-190.39878	68.34828	107.40444	-175.75272	-16.2734	-55.32956	-63.46626	-70.78929	-57.77057	-43.93818	0
358	34.17414	-168.42969	-202.60383	65.90727	117.16848	-185.51676	-13.83239	-55.32956	-61.02525	-68.34828	-57.77057	-41.49717	0
359	26.85111	-178.19373	-205.04484	75.67131	114.72747	-190.39878	-11.39138	-52.88855	-58.58424	-65.90727	-55.32956	-41.49717	0
360	26.85111	-178.19373	-205.04484	75.67131	114.72747	-190.39878	-11.39138	-52.88855	-58.58424	-63.46626	-55.32956	-41.49717	0
361	31.73313	-163.54767	-195.2808	65.90727	112.28646	-178.19373	-13.83239	-52.88855	-58.58424	-65.90727	-55.32956	-43.93818	0
362	46.37919	-156.22464	-202.60383	53.70222	124.49151	-178.19373	-13.83239	-52.88855	-58.58424	-65.90727	-55.32956	-46.37919	0
363	56.14323	-158.66565	-214.80888	51.26121	134.25555	-185.51676	-18.71441	-57.77057	-63.46626	-68.34828	-60.21158	-51.26121	0
364	58.58424	-153.78363	-212.36787	46.37919	134.25555	-183.07575	-23.59643	-62.65259	-65.90727	-75.67131	-62.65259	-53.70222	0
365	73.2303	-146.4606	-219.6909	36.61515	146.4606	-183.07575	-28.47845	-67.53461	-70.78929	-80.55333	-69.97562	-58.58424	0
366	95.19939	-146.4606	-241.65999	24.4101	168.42969	-192.83979	-28.47845	-69.97562	-70.78929	-87.87636	-74.85764	-61.02525	0
367	97.6404	-146.4606	-244.101	24.4101	170.8707	-195.2808	-28.47845	-72.41663	-73.2303	-92.75838	-79.73966	-63.46626	0
368	102.52242	-151.34262	-253.86504	24.4101	178.19373	-202.60383	-33.36047	-79.73966	-78.11232	-97.6404	-84.62168	-65.90727	0
369	95.19939	-153.78363	-248.98302	29.29212	170.8707	-200.16282	-33.36047	-82.18067	-78.11232	-95.19939	-82.18067	-65.90727	0
370	75.67131	-168.42969	-244.101	46.37919	158.66565	-205.04484	-26.03744	-79.73966	-73.2303	-87.87636	-74.85764	-61.02525	0
371	53.70222	-180.63474	-234.33696	63.46626	144.01959	-207.48585	-18.71441	-72.41663	-68.34828	-75.67131	-65.0936	-53.70222	0
372	36.61515	-183.07575	-219.6909	73.2303	126.93252	-200.16282	-13.83239	-65.0936	-63.46626	-65.90727	-55.32956	-46.37919	0
373	26.85111	-180.63474	-207.48585	75.67131	117.16848	-192.83979	-11.39138	-60.21158	-58.58424	-58.58424	-48.00653	-41.49717	0
374	19.52808	-183.07575	-202.60383	80.55333	109.84545	-192.83979	-4.06835	-50.44754	-51.26121	-48.8202	-38.24249	-31.73313	0
375	17.08707	-190.39878	-207.48585	85.43535	112.28646	-197.72181	0.81367	-38.24249	-43.93818	-41.49717	-33.36047	-21.96909	0
376	26.85111	-195.2808	-222.13191	82.99434	124.49151	-207.48585	0.81367	-33.36047	-41.49717	-46.37919	-35.80148	-19.52808	0
377	41.49717	-190.39878	-231.89595	73.2303	136.69656	-209.92686	0.81367	-30.91946	-43.93818	-56.14323	-45.56552	-29.29212	0
378	48.8202	-185.51676	-234.33696	68.34828	141.57858	-209.92686	-1.62734	-28.47845	-46.37919	-63.46626	-52.88855	-34.17414	0
379	56.14323	-183.07575	-239.21898	63.46626	146.4606	-209.92686	-6.50936	-30.91946	-51.26121	-70.78929	-60.21158	-41.49717	0
380	63.46626	-180.63474	-244.101	58.58424	153.78363	-212.36787	-18.71441	-40.6835	-61.02525	-82.99434	-69.97562	-53.70222	0
381	61.02525	-180.63474	-241.65999	58.58424	151.34262	-209.92686	-28.47845	-45.56552	-68.34828	-92.75838	-77.29865	-63.46626	0
382	61.02525	-178.19373	-239.21898	58.58424	148.90161	-207.48585	-33.36047	-50.44754	-73.2303	-95.19939	-82.18067	-70.78929	0
383	56.14323	-178.19373	-234.33696	61.02525	144.01959	-205.04484	-35.80148	-50.44754	-73.2303	-92.75838	-79.73966	-70.78929	0
384	53.70222	-180.63474	-234.33696	63.46626	144.01959	-207.48585	-35.80148	-50.44754	-73.2303	-92.75838	-77.29865	-68.34828	0
385	53.70222	-178.19373	-231.89595	61.02525	141.57858	-205.04484	-35.80148	-52.88855	-73.2303	-92.75838	-77.29865	-68.34828	0
386	34.17414	-183.07575	-217.24989	73.2303	124.49151	-200.16282	-26.03744	-45.56552	-63.46626	-87.87636	-72.41663	-58.58424	0
387	26.85111	-187.95777	-214.80888	80.55333	119.60949	-200.16282	-18.71441	-38.24249	-56.14323	-82.99434	-65.0936	-51.26121	0
388	34.17414	-183.07575	-217.24989	73.2303	124.49151	-200.16282	-13.83239	-35.80148	-53.70222	-78.11232	-62.65259	-48.8202	0
389	41.49717	-175.75272	-217.24989	65.90727	129.37353	-195.2808	-13.83239	-35.80148	-53.70222	-75.67131	-62.65259	-46.37919	0
390	41.49717	-175.75272	-217.24989	65.90727	129.37353	-195.2808	-13.83239	-35.80148	-53.70222	-75.67131	-60.21158	-46.37919	0
391	31.73313	-178.19373	-209.92686	73.2303	119.60949	-192.83979	-8.95037	-30.91946	-48.8202	-68.34828	-52.88855	-41.49717	0
392	36.61515	-168.42969	-205.04484	65.90727	119.60949	-185.51676	-8.95037	-30.91946	-48.8202	-63.46626	-48.00653	-41.49717	0
393	46.37919	-158.66565	-205.04484	56.14323	124.49151	-180.63474	-6.50936	-28.47845	-46.37919	-58.58424	-43.12451	-41.49717	0
394	46.37919	-148.90161	-195.2808	51.26121	119.60949	-170.8707	-1.62734	-23.59643	-41.49717	-53.70222	-40.6835	-39.05616	0
395	36.61515	-146.4606	-183.07575	53.70222	109.84545	-163.54767	4.06835	-13.83239	-36.61515	-48.8202	-38.24249	-34.17414	0
396	31.73313	-146.4606	-178.19373	56.14323	104.96343	-161.10666	8.95037	-6.50936	-29.29212	-48.8202	-38.24249	-31.73313	0
397	39.05616	-144.01959	-183.07575	51.26121	109.84545	-163.54767	11.39138	-4.06835	-29.29212	-53.70222	-43.12451	-31.73313	0
398	43.93818	-144.01959	-187.95777	48.8202	114.72747	-165.98868	18.71441	0.81367	-24.4101	-56.14323	-43.12451	-29.29212	0
399	48.8202	-139.13757	-187.95777	43.93818	117.16848	-163.54767	23.59643	4.06835	-19.52808	-58.58424	-45.56552	-26.85111	0
400	43.93818	-136.69656	-180.63474	46.37919	112.28646	-158.66565	28.47845	8.95037	-17.08707	-58.58424	-45.56552	-26.85111	0
401	51.26121	-139.13757	-190.39878	43.93818	119.60949	-163.54767	23.59643	6.50936	-19.52808	-63.46626	-45.56552	-29.29212	0
402	58.58424	-139.13757	-197.72181	39.05616	126.93252	-168.42969	21.15542	4.06835	-21.96909	-65.90727	-48.00653	-34.17414	0
403	53.70222	-129.37353	-183.07575	36.61515	117.16848	-156.22464	21.15542	6.50936	-21.96909	-58.58424	-43.12451	-34.17414	0
404	51.26121	-114.72747	-165.98868	31.73313	107.40444	-139.13757	18.71441	6.50936	-24.4101	-53.70222	-38.24249	-34.17414	0
405	43.93818	-107.40444	-151.34262	31.73313	97.6404	-129.37353	16.2734	6.50936	-26.85111	-51.26121	-40.6835	-36.61515	0
406	31.73313	-100.08141	-131.81454	34.17414	80.55333	-114.72747	13.83239	6.50936	-29.29212	-51.26121	-40.6835	-36.61515	0
407	26.85111	-92.75838	-119.60949	31.73313	73.2303	-104.96343	16.2734	11.39138	-26.85111	-46.37919	-35.80148	-34.17414	0
408	24.4101	-78.11232	-102.52242	26.85111	63.46626	-90.31737	21.15542	13.83239	-21.96909	-39.05616	-35.80148	-29.29212	0
409	26.85111	-70.78929	-97.6404	21.96909	61.02525	-82.99434	28.47845	18.71441	-19.52808	-31.73313	-30.91946	-26.85111	0
410	46.37919	-73.2303	-119.60949	13.83239	82.99434	-95.19939	35.80148	23.59643	-12.20505	-26.85111	-23.59643	-21.96909	0
411	56.14323	-78.11232	-134.25555	11.39138	95.19939	-104.96343	40.6835	28.47845	-4.88202	-17.08707	-16.2734	-12.20505	0
412	80.55333	-70.78929	-151.34262	-5.69569	114.72747	-109.84545	40.6835	26.03744	-4.88202	-17.08707	-13.83239	-12.20505	0
413	102.52242	-56.14323	-158.66565	-22.78276	129.37353	-107.40444	35.80148	21.15542	-9.76404	-17.08707	-13.83239	-12.20505	0
414	112.28646	-46.37919	-158.66565	-32.5468	134.25555	-102.52242	28.47845	18.71441	-12.20505	-17.08707	-13.83239	-12.20505	0
415	129.37353	-43.93818	-173.31171	-42.31084	151.34262	-107.40444	23.59643	16.2734	-14.64606	-17.08707	-13.83239	-9.76404	0
416	141.57858	-39.05616	-180.63474	-52.07488	161.10666	-109.84545	13.83239	8.95037	-21.96909	-26.85111	-21.15542	-12.20505	0
417	139.13757	-29.29212	-168.42969	-54.51589	153.78363	-97.6404	0.81367	0.81367	-31.73313	-36.61515	-28.47845	-14.64606	0
418	129.37353	-29.29212	-158.66565	-49.63387	144.01959	-92.75838	-4.06835	0.81367	-34.17414	-36.61515	-28.47845	-12.20505	0
419	107.40444	-39.05616	-146.4606	-34.98781	126.93252	-92.75838	-1.62734	4.06835	-31.73313	-31.73313	-23.59643	-2.44101	0
420	95.19939	-41.49717	-136.69656	-27.66478	114.72747	-87.87636	-1.62734	6.50936	-31.73313	-24.4101	-16.2734	3.25468	0
421	73.2303	-43.93818	-117.16848	-15.45973	95.19939	-80.55333	-1.62734	8.95037	-26.85111	-17.08707	-8.95037	13.01872	0
422	53.70222	-39.05616	-92.75838	-8.1367	73.2303	-65.90727	-1.62734	6.50936	-26.85111	-8.95037	-0.81367	15.45973	0
423	43.93818	-34.17414	-78.11232	-5.69569	61.02525	-56.14323	-1.62734	4.06835	-26.85111	0.81367	6.50936	20.34175	0
424	36.61515	-31.73313	-68.34828	-3.25468	51.26121	-48.8202	0.81367	4.06835	-19.52808	10.57771	16.2734	27.66478	0
425	43.93818	-26.85111	-70.78929	-8.1367	56.14323	-48.8202	4.06835	6.50936	-19.52808	17.90074	21.15542	30.10579	0
426	65.90727	-29.29212	-95.19939	-17.90074	80.55333	-61.02525	0.81367	0.81367	-21.96909	13.01872	18.71441	27.66478	0
427	90.31737	-29.29212	-119.60949	-30.10579	104.96343	-73.2303	-4.06835	-4.06835	-26.85111	5.69569	11.39138	20.34175	0
428	104.96343	-39.05616	-144.01959	-32.5468	124.49151	-90.31737	-6.50936	-6.50936	-31.73313	3.25468	8.95037	17.90074	0
429	109.84545	-48.8202	-158.66565	-30.10579	134.25555	-102.52242	-8.95037	-8.95037	-36.61515	-1.62734	4.06835	15.45973	0
430	107.40444	-65.90727	-173.31171	-20.34175	139.13757	-119.60949	-11.39138	-13.83239	-39.05616	-6.50936	-0.81367	10.57771	0
431	109.84545	-78.11232	-187.95777	-15.45973	148.90161	-131.81454	-18.71441	-21.15542	-48.8202	-17.08707	-8.95037	-2.44101	0
432	102.52242	-87.87636	-190.39878	-8.1367	146.4606	-139.13757	-23.59643	-28.47845	-56.14323	-24.4101	-18.71441	-9.76404	0
433	80.55333	-104.96343	-185.51676	11.39138	131.81454	-144.01959	-21.15542	-30.91946	-56.14323	-26.85111	-21.15542	-12.20505	0
434	56.14323	-122.0505	-178.19373	31.73313	117.16848	-148.90161	-16.2734	-28.47845	-51.26121	-31.73313	-26.03744	-17.08707	0
435	39.05616	-141.57858	-180.63474	51.26121	109.84545	-161.10666	-11.39138	-21.15542	-46.37919	-36.61515	-30.91946	-19.52808	0
436	26.85111	-151.34262	-178.19373	61.02525	102.52242	-163.54767	-8.95037	-16.2734	-43.93818	-46.37919	-40.6835	-24.4101	0
437	21.96909	-156.22464	-178.19373	65.90727	100.08141	-165.98868	-6.50936	-13.83239	-46.37919	-61.02525	-52.88855	-31.73313	0
438	2.44101	-170.8707	-173.31171	82.99434	87.87636	-170.8707	-1.62734	-8.95037	-43.93818	-65.90727	-57.77057	-31.73313	0
439	-10.57771	-180.63474	-170.8707	95.19939	80.55333	-175.75272	-1.62734	-6.50936	-43.93818	-70.78929	-60.21158	-36.61515	0
440	-22.78276	-183.07575	-161.10666	102.52242	68.34828	-173.31171	-4.06835	-8.95037	-46.37919	-75.67131	-67.53461	-43.93818	0
441	-25.22377	-187.95777	-163.54767	104.96343	68.34828	-175.75272	-6.50936	-8.95037	-46.37919	-75.67131	-67.53461	-46.37919	0
442	-34.98781	-183.07575	-148.90161	107.40444	56.14323	-165.98868	-8.95037	-13.83239	-48.8202	-75.67131	-67.53461	-48.8202	0
443	-34.98781	-192.83979	-158.66565	112.28646	61.02525	-175.75272	-4.06835	-13.83239	-43.93818	-65.90727	-62.65259	-46.37919	0
444	-25.22377	-190.39878	-165.98868	107.40444	70.78929	-178.19373	-6.50936	-18.71441	-43.93818	-63.46626	-62.65259	-46.37919	0
445	-20.34175	-195.2808	-175.75272	107.40444	78.11232	-185.51676	-6.50936	-21.15542	-41.49717	-63.46626	-65.0936	-48.8202	0
446	-13.01872	-207.48585	-195.2808	109.84545	90.31737	-202.60383	-6.50936	-23.59643	-41.49717	-68.34828	-69.97562	-51.26121	0
447	4.88202	-212.36787	-217.24989	102.52242	109.84545	-214.80888	-8.95037	-28.47845	-46.37919	-78.11232	-77.29865	-56.14323	0
448	19.52808	-217.24989	-236.77797	97.6404	126.93252	-227.01393	-13.83239	-33.36047	-51.26121	-85.43535	-87.06269	-65.90727	0
449	21.96909	-219.6909	-241.65999	97.6404	131.81454	-229.45494	-16.2734	-33.36047	-51.26121	-90.31737	-89.5037	-65.90727	0
450	19.52808	-219.6909	-239.21898	100.08141	129.37353	-229.45494	-18.71441	-35.80148	-53.70222	-92.75838	-89.5037	-68.34828	0
451	17.08707	-217.24989	-234.33696	100.08141	124.49151	-224.57292	-21.15542	-35.80148	-53.70222	-95.19939	-89.5037	-68.34828	0
452	19.52808	-209.92686	-229.45494	95.19939	124.49151	-219.6909	-18.71441	-33.36047	-53.70222	-92.75838	-84.62168	-65.90727	0
453	12.20505	-197.72181	-209.92686	92.75838	109.84545	-202.60383	-11.39138	-26.03744	-46.37919	-82.99434	-77.29865	-58.58424	0
454	7.32303	-190.39878	-197.72181	90.31737	102.52242	-192.83979	-6.50936	-21.15542	-41.49717	-78.11232	-72.41663	-51.26121	0
455	12.20505	-183.07575	-195.2808	85.43535	102.52242	-187.95777	-1.62734	-21.15542	-41.49717	-78.11232	-72.41663	-48.8202	0
456	24.4101	-183.07575	-207.48585	78.11232	114.72747	-195.2808	-4.06835	-23.59643	-43.93818	-87.87636	-82.18067	-56.14323	0
457	24.4101	-192.83979	-217.24989	82.99434	119.60949	-205.04484	-4.06835	-23.59643	-46.37919	-95.19939	-87.06269	-61.02525	0
458	19.52808	-195.2808	-214.80888	87.87636	117.16848	-205.04484	-4.06835	-23.59643	-48.8202	-102.52242	-94.38572	-65.90727	0
459	19.52808	-197.72181	-217.24989	87.87636	117.16848	-207.48585	-6.50936	-23.59643	-51.26121	-109.84545	-101.70875	-73.2303	0
460	17.08707	-202.60383	-219.6909	92.75838	117.16848	-209.92686	-8.95037	-23.59643	-56.14323	-122.0505	-111.47279	-82.99434	0
461	17.08707	-214.80888	-231.89595	97.6404	124.49151	-222.13191	-11.39138	-26.03744	-61.02525	-136.69656	-123.67784	-95.19939	0
462	9.76404	-231.89595	-241.65999	109.84545	124.49151	-236.77797	-6.50936	-21.15542	-61.02525	-148.90161	-131.00087	-104.96343	0
463	-7.32303	-258.74706	-251.42403	131.81454	122.0505	-253.86504	4.06835	-13.83239	-53.70222	-158.66565	-140.76491	-114.72747	0
464	-10.57771	-285.59817	-275.83413	146.4606	131.81454	-280.71615	11.39138	-11.39138	-53.70222	-173.31171	-152.96996	-129.37353	0
465	-2.44101	-324.65433	-322.21332	163.54767	158.66565	-322.21332	21.15542	-8.95037	-51.26121	-187.95777	-167.61602	-141.57858	0
466	-10.57771	-346.62342	-336.85938	178.19373	163.54767	-341.7414	33.36047	-1.62734	-43.93818	-197.72181	-177.38006	-148.90161	0
467	-7.32303	-351.50544	-344.18241	178.19373	168.42969	-346.62342	45.56552	0.81367	-43.93818	-205.04484	-182.26208	-156.22464	0
468	14.64606	-344.18241	-358.82847	163.54767	185.51676	-351.50544	52.88855	0.81367	-41.49717	-200.16282	-182.26208	-156.22464	0
469	48.8202	-302.68524	-351.50544	126.93252	200.16282	-327.09534	52.88855	-1.62734	-46.37919	-185.51676	-174.93905	-158.66565	0
470	92.75838	-253.86504	-346.62342	80.55333	219.6909	-300.24423	60.21158	0.81367	-48.8202	-156.22464	-155.41097	-148.90161	0
471	146.4606	-190.39878	-336.85938	21.96909	241.65999	-263.62908	65.0936	0.81367	-51.26121	-117.16848	-126.11885	-139.13757	0
472	217.24989	-109.84545	-327.09534	-54.51589	270.95211	-217.24989	57.77057	-4.06835	-63.46626	-70.78929	-94.38572	-124.49151	0
473	302.68524	-48.8202	-351.50544	-127.74619	327.09534	-200.16282	48.00653	-13.83239	-75.67131	-8.95037	-52.88855	-104.96343	0
474	383.23857	30.10579	-353.94645	-205.85851	368.59251	-161.10666	40.6835	-18.71441	-87.87636	64.27993	-0.81367	-75.67131	0
475	468.67392	127.74619	-341.7414	-298.61689	405.20766	-107.40444	26.03744	-28.47845	-102.52242	147.27427	57.77057	-41.49717	0
476	546.78624	230.26861	-317.3313	-388.93426	432.05877	-43.93818	6.50936	-40.6835	-117.16848	240.03265	126.11885	3.25468	0
477	624.89856	362.08315	-263.62908	-493.89769	444.26382	49.63387	-16.2734	-55.32956	-134.25555	347.43709	206.67218	56.9569	0
478	671.27775	501.22072	-170.8707	-586.65607	422.29473	166.80235	-28.47845	-55.32956	-136.69656	469.48759	299.43056	127.74619	0
479	690.80583	669.65041	-21.96909	-679.41445	356.38746	325.468	-35.80148	-48.00653	-129.37353	601.30213	406.835	205.85851	0
480	700.56987	842.96212	142.39225	-772.17283	280.71615	493.89769	-48.00653	-43.12451	-122.0505	728.23465	509.35742	283.97083	0
481	695.68785	977.21767	281.52982	-835.63909	207.48585	630.59425	-62.65259	-38.24249	-114.72747	835.63909	602.1158	357.20113	0
482	668.83674	1065.09403	396.25729	-867.37222	136.69656	730.67566	-69.97562	-30.91946	-100.08141	918.63343	677.78711	418.22638	0
483	620.01654	1101.70918	481.69264	-860.04919	70.78929	791.70091	-77.29865	-23.59643	-82.99434	972.33565	729.04832	467.04658	0
484	551.66826	1094.38615	542.71789	-823.43404	4.88202	818.55202	-89.5037	-21.15542	-65.90727	989.42272	755.89943	501.22072	0
485	490.64301	1035.80191	545.1589	-762.40879	-27.66478	791.70091	-111.47279	-30.91946	-61.02525	960.1306	746.13539	510.98476	0
486	414.9717	916.19242	501.22072	-664.76839	-42.31084	708.70657	-133.44188	-43.12451	-58.58424	891.78232	709.52024	501.22072	0
487	329.53635	769.73182	440.19547	-550.04092	-54.51589	606.18415	-148.08794	-52.88855	-51.26121	794.14192	648.49499	479.25163	0
488	227.01393	613.50718	386.49325	-420.66739	-78.92599	501.22072	-155.41097	-57.77057	-39.05616	681.85546	577.7057	449.95951	0
489	139.13757	464.60557	325.468	-301.0579	-93.57205	396.25729	-160.29299	-60.21158	-26.85111	567.12799	502.03439	413.34436	0
490	61.02525	330.35002	269.32477	-196.09447	-103.33609	301.0579	-160.29299	-60.21158	-14.64606	449.95951	421.48106	371.84719	0
491	-2.44101	203.4175	205.85851	-100.89508	-103.33609	205.85851	-160.29299	-60.21158	-7.32303	337.67305	340.92773	323.02699	0
492	-47.19286	98.45407	144.83326	-25.22377	-96.01306	120.42316	-155.41097	-60.21158	0	235.15063	262.81541	271.76578	0
493	-98.45407	27.66478	125.30518	34.17414	-110.65912	76.48498	-140.76491	-50.44754	10.57771	152.15629	194.46713	225.38659	0
494	-130.1872	-24.4101	105.7771	75.67131	-117.98215	39.86983	-126.11885	-43.12451	15.45973	86.24902	133.44188	179.0074	0
495	-144.83326	-58.58424	86.24902	100.08141	-115.54114	13.01872	-111.47279	-35.80148	20.34175	37.42882	84.62168	137.51023	0
496	-157.03831	-78.11232	78.92599	117.16848	-117.98215	0.81367	-94.38572	-28.47845	22.78276	-1.62734	43.12451	100.89508	0
497	-161.92033	-100.08141	61.83892	129.37353	-113.10013	-19.52808	-72.41663	-13.83239	32.5468	-21.96909	16.2734	76.48498	0
498	-164.36134	-102.52242	61.83892	131.81454	-113.10013	-21.96909	-50.44754	0.81367	39.86983	-36.61515	-0.81367	59.39791	0
499	-157.03831	-107.40444	49.63387	131.81454	-103.33609	-29.29212	-28.47845	13.83239	47.19286	-39.05616	-8.95037	47.19286	0
500	-144.83326	-107.40444	37.42882	124.49151	-91.13104	-36.61515	-11.39138	23.59643	52.07488	-39.05616	-13.83239	39.86983	0
501	-139.95124	-107.40444	32.5468	122.0505	-86.24902	-39.05616	-6.50936	28.47845	52.07488	-39.05616	-16.2734	34.98781	0
502	-122.86417	-104.96343	17.90074	112.28646	-71.60296	-43.93818	0.81367	30.91946	52.07488	-39.05616	-18.71441	25.22377	0
503	-103.33609	-102.52242	0.81367	102.52242	-52.07488	-51.26121	4.06835	30.91946	44.75185	-43.93818	-26.03744	15.45973	0
504	-88.69003	-90.31737	-1.62734	87.87636	-44.75185	-46.37919	-1.62734	21.15542	32.5468	-51.26121	-38.24249	0.81367	0
505	-83.80801	-90.31737	-6.50936	85.43535	-39.86983	-48.8202	-1.62734	18.71441	25.22377	-56.14323	-45.56552	-7.32303	0
506	-78.92599	-92.75838	-14.64606	85.43535	-32.5468	-53.70222	0.81367	13.83239	22.78276	-63.46626	-55.32956	-14.64606	0
507	-74.04397	-97.6404	-24.4101	85.43535	-25.22377	-61.02525	0.81367	11.39138	17.90074	-73.2303	-62.65259	-19.52808	0
508	-91.13104	-95.19939	-4.06835	92.75838	-44.75185	-51.26121	8.95037	21.15542	22.78276	-70.78929	-60.21158	-17.08707	0
509	-100.89508	-92.75838	8.1367	95.19939	-54.51589	-43.93818	16.2734	26.03744	27.66478	-70.78929	-60.21158	-17.08707	0
510	-108.21811	-90.31737	17.90074	97.6404	-64.27993	-36.61515	23.59643	30.91946	32.5468	-70.78929	-57.77057	-14.64606	0
511	-108.21811	-85.43535	22.78276	95.19939	-66.72094	-31.73313	26.03744	33.36047	34.98781	-73.2303	-60.21158	-17.08707	0
512	-103.33609	-85.43535	17.90074	92.75838	-61.83892	-34.17414	26.03744	28.47845	32.5468	-75.67131	-60.21158	-19.52808	0
513	-108.21811	-87.87636	20.34175	97.6404	-64.27993	-34.17414	33.36047	35.80148	37.42882	-68.34828	-55.32956	-17.08707	0
514	-100.89508	-87.87636	13.01872	92.75838	-56.9569	-39.05616	28.47845	30.91946	32.5468	-70.78929	-60.21158	-24.4101	0
515	-88.69003	-92.75838	-4.06835	90.31737	-42.31084	-48.8202	26.03744	28.47845	25.22377	-73.2303	-65.0936	-31.73313	0
516	-83.80801	-102.52242	-19.52808	92.75838	-32.5468	-61.02525	23.59643	26.03744	22.78276	-75.67131	-67.53461	-34.17414	0
517	-81.367	-109.84545	-29.29212	95.19939	-27.66478	-70.78929	23.59643	23.59643	22.78276	-75.67131	-69.97562	-34.17414	0
518	-81.367	-122.0505	-41.49717	100.08141	-20.34175	-82.99434	23.59643	28.47845	22.78276	-75.67131	-67.53461	-34.17414	0
519	-83.80801	-119.60949	-36.61515	100.08141	-25.22377	-78.11232	18.71441	23.59643	15.45973	-78.11232	-74.85764	-39.05616	0
520	-71.60296	-117.16848	-46.37919	92.75838	-13.01872	-82.99434	8.95037	16.2734	5.69569	-82.99434	-79.73966	-46.37919	0
521	-61.83892	-107.40444	-46.37919	82.99434	-8.1367	-78.11232	6.50936	13.83239	3.25468	-82.99434	-79.73966	-46.37919	0
522	-61.83892	-100.08141	-39.05616	80.55333	-13.01872	-70.78929	6.50936	13.83239	0	-82.99434	-74.85764	-46.37919	0
523	-61.83892	-95.19939	-34.17414	78.11232	-15.45973	-65.90727	6.50936	16.2734	3.25468	-78.11232	-74.85764	-43.93818	0
524	-71.60296	-90.31737	-19.52808	80.55333	-27.66478	-56.14323	8.95037	16.2734	3.25468	-78.11232	-74.85764	-43.93818	0
525	-69.16195	-87.87636	-19.52808	78.11232	-25.22377	-53.70222	13.83239	18.71441	8.1367	-78.11232	-74.85764	-43.93818	0
526	-59.39791	-82.99434	-24.4101	70.78929	-17.90074	-53.70222	18.71441	23.59643	13.01872	-78.11232	-74.85764	-41.49717	0
527	-66.72094	-85.43535	-19.52808	75.67131	-25.22377	-53.70222	28.47845	30.91946	20.34175	-75.67131	-67.53461	-34.17414	0
528	-74.04397	-92.75838	-19.52808	82.99434	-27.66478	-56.14323	33.36047	35.80148	27.66478	-75.67131	-65.0936	-29.29212	0
529	-69.16195	-95.19939	-26.85111	80.55333	-22.78276	-61.02525	38.24249	38.24249	30.10579	-73.2303	-62.65259	-26.85111	0
530	-64.27993	-97.6404	-34.17414	80.55333	-15.45973	-65.90727	43.12451	43.12451	34.98781	-68.34828	-57.77057	-21.96909	0
531	-52.07488	-90.31737	-39.05616	70.78929	-8.1367	-65.90727	43.12451	43.12451	32.5468	-68.34828	-55.32956	-19.52808	0
532	-59.39791	-80.55333	-21.96909	68.34828	-20.34175	-51.26121	43.12451	43.12451	32.5468	-63.46626	-50.44754	-17.08707	0
533	-71.60296	-73.2303	-1.62734	70.78929	-34.98781	-39.05616	45.56552	48.00653	34.98781	-58.58424	-48.00653	-12.20505	0
534	-71.60296	-68.34828	3.25468	68.34828	-37.42882	-34.17414	45.56552	45.56552	32.5468	-58.58424	-48.00653	-14.64606	0
535	-76.48498	-63.46626	13.01872	68.34828	-44.75185	-26.85111	45.56552	45.56552	32.5468	-61.02525	-50.44754	-17.08707	0
536	-88.69003	-61.02525	27.66478	73.2303	-59.39791	-16.2734	43.12451	43.12451	30.10579	-65.90727	-57.77057	-19.52808	0
537	-100.89508	-65.90727	34.98781	82.99434	-69.16195	-16.2734	43.12451	43.12451	30.10579	-73.2303	-60.21158	-21.96909	0
538	-105.7771	-75.67131	30.10579	90.31737	-69.16195	-24.4101	45.56552	43.12451	30.10579	-75.67131	-65.0936	-24.4101	0
539	-108.21811	-85.43535	22.78276	95.19939	-66.72094	-31.73313	45.56552	43.12451	32.5468	-80.55333	-67.53461	-26.85111	0
540	-108.21811	-85.43535	22.78276	95.19939	-66.72094	-31.73313	45.56552	43.12451	32.5468	-82.99434	-67.53461	-26.85111	0
541	-100.89508	-87.87636	13.01872	92.75838	-56.9569	-39.05616	43.12451	43.12451	30.10579	-85.43535	-67.53461	-29.29212	0
542	-100.89508	-82.99434	17.90074	90.31737	-59.39791	-34.17414	48.00653	45.56552	30.10579	-82.99434	-65.0936	-26.85111	0
543	-96.01306	-75.67131	20.34175	85.43535	-59.39791	-29.29212	50.44754	50.44754	32.5468	-78.11232	-60.21158	-24.4101	0
544	-110.65912	-65.90727	44.75185	87.87636	-78.92599	-11.39138	55.32956	55.32956	37.42882	-70.78929	-55.32956	-19.52808	0
545	-122.86417	-68.34828	54.51589	95.19939	-88.69003	-6.50936	60.21158	60.21158	42.31084	-65.90727	-50.44754	-14.64606	0
546	-127.74619	-78.11232	49.63387	102.52242	-88.69003	-13.83239	65.0936	60.21158	42.31084	-65.90727	-50.44754	-9.76404	0
547	-142.39225	-85.43535	56.9569	112.28646	-100.89508	-13.83239	67.53461	62.65259	42.31084	-65.90727	-50.44754	-9.76404	0
548	-152.15629	-85.43535	66.72094	117.16848	-110.65912	-8.95037	65.0936	57.77057	37.42882	-68.34828	-52.88855	-9.76404	0
549	-142.39225	-80.55333	61.83892	109.84545	-103.33609	-8.95037	60.21158	50.44754	32.5468	-73.2303	-55.32956	-12.20505	0
550	-122.86417	-68.34828	54.51589	95.19939	-88.69003	-6.50936	50.44754	40.6835	22.78276	-78.11232	-62.65259	-19.52808	0
551	-105.7771	-58.58424	47.19286	80.55333	-76.48498	-6.50936	48.00653	40.6835	20.34175	-80.55333	-62.65259	-21.96909	0
552	-98.45407	-43.93818	54.51589	70.78929	-76.48498	5.69569	43.12451	35.80148	17.90074	-80.55333	-62.65259	-21.96909	0
553	-103.33609	-34.17414	69.16195	68.34828	-86.24902	17.90074	45.56552	38.24249	20.34175	-70.78929	-55.32956	-14.64606	0
554	-110.65912	-29.29212	81.367	68.34828	-96.01306	25.22377	52.88855	45.56552	27.66478	-63.46626	-48.00653	-9.76404	0
555	-110.65912	-24.4101	86.24902	65.90727	-98.45407	30.10579	52.88855	52.88855	30.10579	-61.02525	-45.56552	-4.88202	0
556	-122.86417	-26.85111	96.01306	73.2303	-110.65912	34.98781	62.65259	62.65259	39.86983	-56.14323	-40.6835	0.81367	0
557	-130.1872	-24.4101	105.7771	75.67131	-117.98215	39.86983	67.53461	69.97562	44.75185	-53.70222	-38.24249	5.69569	0
558	-127.74619	-18.71441	108.21811	73.2303	-117.98215	44.75185	69.97562	72.41663	44.75185	-56.14323	-38.24249	5.69569	0
559	-132.62821	-8.95037	122.86417	70.78929	-127.74619	56.9569	72.41663	79.73966	47.19286	-53.70222	-38.24249	8.1367	0
560	-127.74619	5.69569	132.62821	61.02525	-130.1872	69.16195	67.53461	74.85764	42.31084	-63.46626	-45.56552	3.25468	0
561	-120.42316	17.90074	137.51023	51.26121	-127.74619	76.48498	62.65259	74.85764	37.42882	-65.90727	-48.00653	0.81367	0
562	-120.42316	22.78276	142.39225	48.8202	-130.1872	81.367	60.21158	72.41663	34.98781	-65.90727	-48.00653	0.81367	0
563	-120.42316	25.22377	144.83326	46.37919	-132.62821	83.80801	55.32956	69.97562	32.5468	-61.02525	-43.12451	0.81367	0
564	-135.06922	22.78276	157.03831	56.14323	-144.83326	88.69003	55.32956	69.97562	30.10579	-51.26121	-35.80148	5.69569	0
565	-144.83326	27.66478	171.68437	58.58424	-157.03831	98.45407	55.32956	72.41663	32.5468	-43.93818	-30.91946	10.57771	0
566	-144.83326	27.66478	171.68437	58.58424	-157.03831	98.45407	60.21158	77.29865	37.42882	-36.61515	-23.59643	20.34175	0
567	-147.27427	27.66478	174.12538	58.58424	-159.47932	100.89508	67.53461	84.62168	44.75185	-26.85111	-11.39138	30.10579	0
568	-154.5973	39.86983	193.65346	56.14323	-174.12538	115.54114	72.41663	87.06269	49.63387	-19.52808	-8.95037	37.42882	0
569	-161.92033	44.75185	205.85851	58.58424	-183.88942	125.30518	77.29865	91.94471	56.9569	-17.08707	-3.25468	42.31084	0
570	-161.92033	56.9569	218.06356	51.26121	-188.77144	137.51023	82.18067	96.82673	59.39791	-13.83239	-0.81367	44.75185	0
571	-161.92033	71.60296	232.70962	43.93818	-196.09447	152.15629	82.18067	96.82673	61.83892	-13.83239	-0.81367	47.19286	0
572	-159.47932	81.367	240.03265	39.05616	-198.53548	159.47932	79.73966	96.82673	61.83892	-11.39138	1.62734	44.75185	0
573	-159.47932	105.7771	264.44275	26.85111	-210.74053	183.88942	72.41663	91.94471	54.51589	-11.39138	-0.81367	37.42882	0
574	-157.03831	113.10013	269.32477	21.96909	-213.18154	191.21245	74.85764	94.38572	59.39791	-1.62734	6.50936	42.31084	0
575	-164.36134	113.10013	276.6478	24.4101	-220.50457	193.65346	79.73966	101.70875	66.72094	10.57771	16.2734	49.63387	0
576	-164.36134	115.54114	279.08881	24.4101	-220.50457	196.09447	79.73966	101.70875	66.72094	15.45973	18.71441	52.07488	0
577	-161.92033	122.86417	283.97083	19.52808	-222.94558	203.4175	79.73966	104.14976	69.16195	17.90074	21.15542	56.9569	0
578	-161.92033	132.62821	293.73487	13.83239	-227.8276	213.18154	82.18067	106.59077	71.60296	25.22377	26.03744	61.83892	0
579	-174.12538	137.51023	310.82194	16.2734	-242.47366	222.94558	84.62168	109.03178	74.04397	30.10579	33.36047	66.72094	0
580	-186.33043	139.95124	325.468	21.96909	-254.67871	232.70962	87.06269	111.47279	78.92599	37.42882	38.24249	74.04397	0
581	-188.77144	154.5973	342.55507	16.2734	-264.44275	247.35568	84.62168	109.03178	78.92599	37.42882	38.24249	74.04397	0
582	-193.65346	174.12538	366.96517	8.95037	-279.08881	269.32477	82.18067	106.59077	76.48498	37.42882	40.6835	74.04397	0
583	-203.4175	188.77144	391.37527	6.50936	-296.17588	288.85285	82.18067	109.03178	81.367	47.19286	48.00653	78.92599	0
584	-208.29952	196.09447	403.58032	6.50936	-305.93992	298.61689	79.73966	109.03178	81.367	52.07488	52.88855	81.367	0
585	-203.4175	213.18154	415.78537	-5.69569	-308.38093	313.26295	79.73966	109.03178	81.367	52.07488	52.88855	81.367	0
586	-191.21245	222.94558	413.34436	-15.45973	-301.0579	318.14497	79.73966	109.03178	83.80801	52.07488	52.88855	81.367	0
587	-186.33043	240.03265	425.54941	-27.66478	-305.93992	332.79103	79.73966	113.9138	88.69003	54.51589	55.32956	83.80801	0
588	-179.0074	249.79669	427.99042	-34.98781	-303.49891	337.67305	79.73966	116.35481	91.13104	56.9569	57.77057	83.80801	0
589	-166.80235	254.67871	420.66739	-44.75185	-293.73487	337.67305	79.73966	116.35481	91.13104	59.39791	57.77057	83.80801	0
590	-169.24336	266.88376	435.31345	-49.63387	-301.0579	349.8781	79.73966	118.79582	96.01306	64.27993	65.0936	91.13104	0
591	-183.88942	269.32477	452.40052	-42.31084	-318.14497	359.64214	89.5037	126.11885	105.7771	76.48498	79.73966	100.89508	0
592	-198.53548	269.32477	467.04658	-34.98781	-332.79103	366.96517	94.38572	133.44188	115.54114	88.69003	91.94471	110.65912	0
593	-210.74053	274.20679	484.13365	-32.5468	-347.43709	379.17022	96.82673	133.44188	120.42316	103.33609	101.70875	117.98215	0
594	-220.50457	276.6478	496.3387	-27.66478	-357.20113	386.49325	96.82673	133.44188	120.42316	113.10013	111.47279	125.30518	0
595	-235.15063	286.41184	520.7488	-25.22377	-376.72921	403.58032	99.26774	135.88289	125.30518	125.30518	118.79582	132.62821	0
596	-242.47366	301.0579	542.71789	-30.10579	-391.37527	420.66739	104.14976	140.76491	130.1872	135.06922	126.11885	139.95124	0
597	-222.94558	313.26295	535.39486	-44.75185	-379.17022	423.1084	99.26774	135.88289	127.74619	137.51023	123.67784	139.95124	0
598	-205.85851	330.35002	535.39486	-61.83892	-369.40618	432.87244	94.38572	131.00087	122.86417	137.51023	123.67784	137.51023	0
599	-198.53548	342.55507	540.27688	-71.60296	-369.40618	440.19547	94.38572	131.00087	120.42316	139.95124	123.67784	137.51023	0
600	-193.65346	354.76012	547.59991	-81.367	-369.40618	449.95951	91.94471	131.00087	120.42316	142.39225	123.67784	137.51023	0
601	-183.88942	369.40618	552.48193	-93.57205	-366.96517	459.72355	89.5037	128.55986	117.98215	142.39225	123.67784	135.06922	0
602	-176.56639	376.72921	552.48193	-100.89508	-364.52416	464.60557	87.06269	126.11885	115.54114	142.39225	126.11885	132.62821	0
603	-174.12538	384.05224	557.36395	-105.7771	-364.52416	469.48759	82.18067	126.11885	110.65912	147.27427	128.55986	130.1872	0
604	-174.12538	388.93426	562.24597	-108.21811	-366.96517	474.36961	79.73966	126.11885	108.21811	152.15629	133.44188	132.62821	0
605	-183.88942	386.49325	569.569	-100.89508	-376.72921	476.81062	79.73966	128.55986	108.21811	159.47932	138.3239	137.51023	0
606	-188.77144	381.61123	569.569	-96.01306	-379.17022	474.36961	84.62168	133.44188	113.10013	169.24336	145.64693	144.83326	0
607	-191.21245	384.05224	574.45102	-96.01306	-381.61123	479.25163	89.5037	138.3239	117.98215	176.56639	155.41097	152.15629	0
608	-193.65346	388.93426	581.77405	-98.45407	-386.49325	484.13365	96.82673	145.64693	125.30518	186.33043	162.734	161.92033	0
609	-193.65346	391.37527	584.21506	-98.45407	-388.93426	486.57466	99.26774	148.08794	130.1872	193.65346	170.05703	166.80235	0
610	-193.65346	388.93426	581.77405	-98.45407	-386.49325	484.13365	104.14976	150.52895	135.06922	203.4175	174.93905	171.68437	0
611	-183.88942	386.49325	569.569	-100.89508	-376.72921	476.81062	106.59077	152.96996	137.51023	208.29952	182.26208	174.12538	0
612	-166.80235	398.6983	564.68698	-115.54114	-364.52416	481.69264	101.70875	148.08794	132.62821	208.29952	182.26208	171.68437	0
613	-157.03831	401.13931	557.36395	-122.86417	-357.20113	479.25163	96.82673	140.76491	130.1872	215.62255	184.70309	169.24336	0
614	-154.5973	388.93426	542.71789	-117.98215	-347.43709	464.60557	91.94471	135.88289	125.30518	218.06356	187.1441	166.80235	0
615	-152.15629	386.49325	537.83587	-117.98215	-344.99608	462.16456	82.18067	128.55986	115.54114	218.06356	184.70309	164.36134	0
616	-147.27427	391.37527	537.83587	-122.86417	-342.55507	464.60557	77.29865	121.23683	108.21811	215.62255	179.82107	159.47932	0
617	-144.83326	393.81628	537.83587	-125.30518	-340.11406	464.60557	72.41663	116.35481	100.89508	210.74053	177.38006	157.03831	0
618	-137.51023	396.25729	532.95385	-130.1872	-335.23204	464.60557	69.97562	116.35481	96.01306	208.29952	174.93905	157.03831	0
619	-127.74619	396.25729	523.18981	-135.06922	-325.468	459.72355	67.53461	111.47279	91.13104	203.4175	167.61602	152.15629	0
620	-110.65912	398.6983	508.54375	-144.83326	-308.38093	452.40052	60.21158	101.70875	81.367	193.65346	160.29299	142.39225	0
621	-100.89508	396.25729	496.3387	-147.27427	-298.61689	445.07749	55.32956	96.82673	74.04397	188.77144	152.96996	135.06922	0
622	-103.33609	381.61123	484.13365	-139.95124	-293.73487	432.87244	57.77057	96.82673	74.04397	188.77144	152.96996	135.06922	0
623	-108.21811	364.52416	471.9286	-127.74619	-288.85285	418.22638	60.21158	96.82673	76.48498	193.65346	155.41097	135.06922	0
624	-108.21811	332.79103	440.19547	-113.10013	-274.20679	386.49325	57.77057	89.5037	71.60296	191.21245	152.96996	130.1872	0
625	-103.33609	305.93992	408.46234	-100.89508	-254.67871	357.20113	50.44754	77.29865	64.27993	181.44841	143.20592	120.42316	0
626	-103.33609	276.6478	379.17022	-86.24902	-240.03265	327.90901	48.00653	72.41663	59.39791	174.12538	135.88289	115.54114	0
627	-105.7771	254.67871	359.64214	-74.04397	-232.70962	305.93992	48.00653	72.41663	59.39791	169.24336	133.44188	115.54114	0
628	-98.45407	237.59164	335.23204	-69.16195	-215.62255	286.41184	40.6835	65.0936	49.63387	159.47932	123.67784	105.7771	0
629	-86.24902	225.38659	310.82194	-69.16195	-198.53548	266.88376	33.36047	55.32956	39.86983	142.39225	111.47279	93.57205	0
630	-74.04397	218.06356	291.29386	-71.60296	-181.44841	254.67871	23.59643	43.12451	27.66478	127.74619	96.82673	78.92599	0
631	-69.16195	210.74053	279.08881	-71.60296	-174.12538	244.91467	16.2734	35.80148	20.34175	115.54114	89.5037	69.16195	0
632	-64.27993	200.97649	264.44275	-69.16195	-164.36134	232.70962	16.2734	33.36047	17.90074	108.21811	84.62168	64.27993	-1250	T-0
633	-44.75185	186.33043	230.26861	-71.60296	-137.51023	208.29952	11.39138	26.03744	8.1367	98.45407	72.41663	54.51589	0
634	-30.10579	174.12538	203.4175	-71.60296	-115.54114	188.77144	8.95037	21.15542	5.69569	88.69003	65.0936	47.19286	0
635	-17.90074	159.47932	176.56639	-71.60296	-96.01306	166.80235	8.95037	18.71441	5.69569	83.80801	62.65259	42.31084	0
636	-4.88202	132.62821	137.51023	-64.27993	-71.60296	135.06922	11.39138	18.71441	5.69569	76.48498	55.32956	39.86983	0
637	4.88202	110.65912	105.7771	-56.9569	-49.63387	108.21811	11.39138	16.2734	3.25468	66.72094	50.44754	37.42882	0
638	7.32303	91.13104	83.80801	-49.63387	-37.42882	88.69003	8.95037	13.83239	0	61.83892	43.12451	32.5468	0
639	0	78.92599	78.92599	-39.86983	-39.86983	78.92599	6.50936	11.39138	-2.44101	54.51589	38.24249	27.66478	0
640	-2.44101	64.27993	66.72094	-30.10579	-34.98781	66.72094	6.50936	8.95037	-7.32303	49.63387	35.80148	22.78276	0
641	-13.01872	39.86983	52.07488	-13.01872	-32.5468	44.75185	0.81367	4.06835	-12.20505	47.19286	33.36047	20.34175	0
642	-20.34175	25.22377	44.75185	-3.25468	-32.5468	34.98781	0.81367	0.81367	-19.52808	42.31084	33.36047	13.01872	0
643	-20.34175	20.34175	39.86983	-0.81367	-30.10579	30.10579	-4.06835	-1.62734	-24.4101	42.31084	30.91946	8.1367	0
644	-22.78276	13.01872	34.98781	4.06835	-27.66478	22.78276	-4.06835	-4.06835	-24.4101	42.31084	30.91946	5.69569	0
645	-20.34175	5.69569	25.22377	6.50936	-22.78276	15.45973	-4.06835	-8.95037	-29.29212	37.42882	23.59643	0.81367	0
646	-20.34175	-11.39138	8.1367	16.2734	-13.01872	-1.62734	-6.50936	-11.39138	-31.73313	30.10579	18.71441	-2.44101	0
647	-10.57771	-29.29212	-19.52808	19.52808	4.88202	-24.4101	-8.95037	-16.2734	-34.17414	17.90074	8.95037	-9.76404	0
648	9.76404	-39.05616	-48.8202	13.83239	29.29212	-43.93818	-13.83239	-23.59643	-39.05616	5.69569	-3.25468	-19.52808	0
649	24.4101	-46.37919	-70.78929	11.39138	46.37919	-58.58424	-13.83239	-26.03744	-41.49717	-4.06835	-11.39138	-24.4101	0
650	26.85111	-51.26121	-78.11232	11.39138	51.26121	-63.46626	-13.83239	-28.47845	-41.49717	-11.39138	-16.2734	-29.29212	0
651	36.61515	-61.02525	-97.6404	11.39138	65.90727	-78.11232	-16.2734	-33.36047	-46.37919	-19.52808	-21.15542	-34.17414	0
652	39.05616	-70.78929	-109.84545	16.2734	73.2303	-90.31737	-18.71441	-33.36047	-48.8202	-26.85111	-26.03744	-39.05616	0
653	31.73313	-70.78929	-102.52242	19.52808	65.90727	-85.43535	-16.2734	-33.36047	-48.8202	-29.29212	-26.03744	-39.05616	0
654	19.52808	-73.2303	-92.75838	26.85111	56.14323	-82.99434	-11.39138	-28.47845	-46.37919	-26.85111	-23.59643	-39.05616	0
655	0	-82.99434	-82.99434	41.49717	41.49717	-82.99434	-6.50936	-23.59643	-43.93818	-26.85111	-23.59643	-36.61515	0
656	-2.44101	-90.31737	-87.87636	46.37919	41.49717	-87.87636	-6.50936	-26.03744	-46.37919	-31.73313	-30.91946	-41.49717	0
657	4.88202	-95.19939	-100.08141	43.93818	51.26121	-97.6404	-6.50936	-26.03744	-43.93818	-34.17414	-33.36047	-41.49717	0
658	14.64606	-90.31737	-104.96343	36.61515	58.58424	-97.6404	-4.06835	-23.59643	-43.93818	-34.17414	-35.80148	-46.37919	0
659	24.4101	-87.87636	-112.28646	31.73313	68.34828	-100.08141	-6.50936	-28.47845	-46.37919	-36.61515	-35.80148	-51.26121	0
660	29.29212	-87.87636	-117.16848	29.29212	73.2303	-102.52242	-11.39138	-33.36047	-51.26121	-41.49717	-40.6835	-56.14323	0
661	36.61515	-87.87636	-124.49151	24.4101	80.55333	-104.96343	-16.2734	-38.24249	-56.14323	-46.37919	-43.12451	-61.02525	0
662	39.05616	-90.31737	-129.37353	24.4101	82.99434	-109.84545	-18.71441	-38.24249	-58.58424	-51.26121	-45.56552	-65.90727	0
663	29.29212	-97.6404	-126.93252	34.17414	78.11232	-112.28646	-18.71441	-38.24249	-58.58424	-51.26121	-45.56552	-65.90727	0
664	12.20505	-97.6404	-109.84545	41.49717	61.02525	-102.52242	-18.71441	-35.80148	-61.02525	-53.70222	-50.44754	-68.34828	0
665	-4.88202	-100.08141	-95.19939	51.26121	43.93818	-97.6404	-13.83239	-33.36047	-56.14323	-53.70222	-52.88855	-65.90727	0
666	-7.32303	-102.52242	-95.19939	53.70222	43.93818	-97.6404	-11.39138	-30.91946	-53.70222	-56.14323	-52.88855	-63.46626	0
667	-2.44101	-112.28646	-109.84545	56.14323	53.70222	-109.84545	-6.50936	-26.03744	-48.8202	-58.58424	-52.88855	-61.02525	0
668	0	-119.60949	-119.60949	58.58424	58.58424	-119.60949	-6.50936	-26.03744	-48.8202	-61.02525	-55.32956	-61.02525	0
669	7.32303	-124.49151	-131.81454	58.58424	68.34828	-126.93252	-8.95037	-33.36047	-51.26121	-61.02525	-57.77057	-65.90727	0
670	9.76404	-141.57858	-151.34262	65.90727	80.55333	-146.4606	-8.95037	-33.36047	-51.26121	-61.02525	-55.32956	-65.90727	0
671	4.88202	-141.57858	-146.4606	68.34828	75.67131	-144.01959	-8.95037	-33.36047	-51.26121	-61.02525	-55.32956	-65.90727	0
672	-4.88202	-139.13757	-134.25555	70.78929	63.46626	-136.69656	-8.95037	-33.36047	-51.26121	-61.02525	-52.88855	-68.34828	0
673	-7.32303	-126.93252	-119.60949	65.90727	56.14323	-122.0505	-11.39138	-35.80148	-51.26121	-63.46626	-57.77057	-73.2303	0
674	-13.01872	-119.60949	-107.40444	65.90727	46.37919	-114.72747	-11.39138	-35.80148	-48.8202	-58.58424	-57.77057	-70.78929	0
675	-20.34175	-109.84545	-90.31737	63.46626	34.17414	-100.08141	-8.95037	-30.91946	-43.93818	-53.70222	-55.32956	-65.90727	0
676	-27.66478	-100.08141	-73.2303	63.46626	21.96909	-87.87636	-6.50936	-28.47845	-41.49717	-51.26121	-55.32956	-61.02525	0
677	-10.57771	-92.75838	-82.99434	51.26121	36.61515	-87.87636	-8.95037	-28.47845	-41.49717	-53.70222	-55.32956	-61.02525	0
678	9.76404	-100.08141	-109.84545	43.93818	58.58424	-104.96343	-8.95037	-28.47845	-41.49717	-51.26121	-52.88855	-58.58424	0
679	12.20505	-112.28646	-124.49151	48.8202	68.34828	-117.16848	-4.06835	-23.59643	-39.05616	-43.93818	-48.00653	-56.14323	0
680	14.64606	-114.72747	-129.37353	48.8202	70.78929	-122.0505	-6.50936	-23.59643	-39.05616	-43.93818	-45.56552	-56.14323	0
681	14.64606	-114.72747	-129.37353	48.8202	70.78929	-122.0505	-6.50936	-23.59643	-39.05616	-43.93818	-45.56552	-56.14323	0
682	12.20505	-112.28646	-124.49151	48.8202	68.34828	-117.16848	-4.06835	-21.15542	-36.61515	-43.93818	-43.12451	-56.14323	0
683	9.76404	-112.28646	-122.0505	51.26121	65.90727	-117.16848	-1.62734	-18.71441	-34.17414	-41.49717	-40.6835	-53.70222	0
684	0	-112.28646	-112.28646	56.14323	56.14323	-112.28646	0.81367	-16.2734	-34.17414	-39.05616	-43.12451	-53.70222	0
685	7.32303	-104.96343	-112.28646	48.8202	58.58424	-107.40444	-6.50936	-21.15542	-39.05616	-46.37919	-52.88855	-61.02525	0
686	24.4101	-102.52242	-126.93252	39.05616	75.67131	-114.72747	-13.83239	-28.47845	-43.93818	-53.70222	-60.21158	-65.90727	0
687	29.29212	-104.96343	-134.25555	36.61515	80.55333	-119.60949	-13.83239	-28.47845	-43.93818	-56.14323	-60.21158	-65.90727	0
688	34.17414	-104.96343	-139.13757	34.17414	85.43535	-122.0505	-13.83239	-28.47845	-43.93818	-58.58424	-62.65259	-65.90727	0
689	26.85111	-102.52242	-129.37353	36.61515	78.11232	-114.72747	-16.2734	-30.91946	-46.37919	-61.02525	-65.0936	-68.34828	0
690	19.52808	-97.6404	-117.16848	39.05616	68.34828	-107.40444	-13.83239	-28.47845	-41.49717	-58.58424	-62.65259	-68.34828	0
691	19.52808	-95.19939	-114.72747	36.61515	65.90727	-104.96343	-11.39138	-26.03744	-39.05616	-56.14323	-57.77057	-63.46626	0
692	7.32303	-92.75838	-100.08141	41.49717	53.70222	-95.19939	-8.95037	-23.59643	-36.61515	-53.70222	-55.32956	-61.02525	0
693	4.88202	-82.99434	-87.87636	39.05616	46.37919	-85.43535	-8.95037	-23.59643	-36.61515	-53.70222	-55.32956	-61.02525	0
694	17.08707	-73.2303	-90.31737	26.85111	53.70222	-80.55333	-13.83239	-30.91946	-43.93818	-53.70222	-57.77057	-65.90727	0
695	31.73313	-73.2303	-104.96343	19.52808	68.34828	-87.87636	-16.2734	-33.36047	-43.93818	-53.70222	-60.21158	-65.90727	0
696	34.17414	-78.11232	-112.28646	21.96909	73.2303	-95.19939	-16.2734	-35.80148	-46.37919	-51.26121	-60.21158	-65.90727	0
697	31.73313	-85.43535	-117.16848	26.85111	73.2303	-100.08141	-16.2734	-35.80148	-43.93818	-51.26121	-60.21158	-63.46626	0
698	21.96909	-95.19939	-117.16848	36.61515	68.34828	-104.96343	-13.83239	-30.91946	-41.49717	-43.93818	-55.32956	-58.58424	0
699	12.20505	-104.96343	-117.16848	46.37919	63.46626	-109.84545	-11.39138	-30.91946	-39.05616	-39.05616	-50.44754	-53.70222	0
700	2.44101	-114.72747	-117.16848	56.14323	58.58424	-114.72747	-11.39138	-30.91946	-39.05616	-36.61515	-45.56552	-53.70222	0
701	-10.57771	-122.0505	-112.28646	65.90727	51.26121	-117.16848	-11.39138	-30.91946	-34.17414	-34.17414	-40.6835	-53.70222	0
702	-15.45973	-124.49151	-109.84545	68.34828	46.37919	-117.16848	-11.39138	-30.91946	-34.17414	-36.61515	-40.6835	-53.70222	0
703	-15.45973	-122.0505	-107.40444	68.34828	46.37919	-114.72747	-16.2734	-35.80148	-39.05616	-41.49717	-48.00653	-61.02525	0
704	-4.88202	-114.72747	-109.84545	58.58424	51.26121	-112.28646	-21.15542	-40.6835	-41.49717	-46.37919	-52.88855	-65.90727	0
705	26.85111	-102.52242	-129.37353	36.61515	78.11232	-114.72747	-26.03744	-45.56552	-46.37919	-51.26121	-60.21158	-70.78929	0
706	43.93818	-100.08141	-144.01959	26.85111	92.75838	-122.0505	-26.03744	-45.56552	-46.37919	-56.14323	-67.53461	-73.2303	0
707	46.37919	-100.08141	-146.4606	26.85111	95.19939	-122.0505	-23.59643	-43.12451	-46.37919	-61.02525	-69.97562	-73.2303	0
708	56.14323	-100.08141	-156.22464	21.96909	104.96343	-126.93252	-26.03744	-43.12451	-48.8202	-65.90727	-72.41663	-78.11232	0
709	58.58424	-97.6404	-156.22464	19.52808	107.40444	-126.93252	-26.03744	-45.56552	-48.8202	-65.90727	-74.85764	-78.11232	0
710	51.26121	-95.19939	-146.4606	21.96909	97.6404	-119.60949	-23.59643	-43.12451	-46.37919	-65.90727	-67.53461	-78.11232	0
711	43.93818	-100.08141	-144.01959	26.85111	92.75838	-122.0505	-21.15542	-40.6835	-46.37919	-65.90727	-65.0936	-78.11232	0
712	24.4101	-102.52242	-126.93252	39.05616	75.67131	-114.72747	-16.2734	-35.80148	-39.05616	-63.46626	-62.65259	-73.2303	0
713	12.20505	-97.6404	-109.84545	41.49717	61.02525	-102.52242	-11.39138	-33.36047	-34.17414	-61.02525	-57.77057	-68.34828	0
714	9.76404	-95.19939	-104.96343	41.49717	56.14323	-100.08141	-6.50936	-30.91946	-31.73313	-56.14323	-52.88855	-63.46626	0
715	9.76404	-87.87636	-97.6404	39.05616	53.70222	-92.75838	-4.06835	-30.91946	-29.29212	-53.70222	-52.88855	-61.02525	0
716	12.20505	-90.31737	-102.52242	39.05616	56.14323	-95.19939	-4.06835	-30.91946	-26.85111	-51.26121	-52.88855	-58.58424	0
717	9.76404	-95.19939	-104.96343	41.49717	56.14323	-100.08141	-1.62734	-28.47845	-26.85111	-51.26121	-52.88855	-56.14323	0
718	12.20505	-107.40444	-119.60949	46.37919	65.90727	-112.28646	-6.50936	-33.36047	-31.73313	-51.26121	-52.88855	-56.14323	0
719	14.64606	-117.16848	-131.81454	51.26121	73.2303	-124.49151	-11.39138	-35.80148	-36.61515	-46.37919	-52.88855	-58.58424	0
720	4.88202	-122.0505	-126.93252	58.58424	65.90727	-124.49151	-11.39138	-38.24249	-36.61515	-41.49717	-48.00653	-58.58424	0
721	-7.32303	-124.49151	-117.16848	65.90727	53.70222	-119.60949	-11.39138	-35.80148	-36.61515	-39.05616	-43.12451	-58.58424	0
722	-13.01872	-136.69656	-124.49151	73.2303	56.14323	-131.81454	-8.95037	-33.36047	-31.73313	-36.61515	-38.24249	-56.14323	0
723	0	-141.57858	-141.57858	70.78929	70.78929	-141.57858	-8.95037	-33.36047	-31.73313	-39.05616	-40.6835	-58.58424	0
724	-2.44101	-131.81454	-129.37353	65.90727	63.46626	-129.37353	-8.95037	-33.36047	-31.73313	-41.49717	-43.12451	-58.58424	0
725	-4.88202	-119.60949	-114.72747	61.02525	53.70222	-117.16848	-6.50936	-30.91946	-29.29212	-41.49717	-45.56552	-58.58424	0
726	9.76404	-104.96343	-114.72747	46.37919	61.02525	-109.84545	-8.95037	-30.91946	-29.29212	-43.93818	-48.00653	-56.14323	0
727	26.85111	-100.08141	-126.93252	36.61515	75.67131	-112.28646	-8.95037	-33.36047	-29.29212	-46.37919	-48.00653	-53.70222	0
728	39.05616	-87.87636	-126.93252	24.4101	82.99434	-107.40444	-4.06835	-28.47845	-26.85111	-41.49717	-40.6835	-46.37919	0
729	43.93818	-78.11232	-122.0505	16.2734	82.99434	-100.08141	-4.06835	-28.47845	-26.85111	-41.49717	-40.6835	-46.37919	0
730	46.37919	-80.55333	-126.93252	16.2734	85.43535	-102.52242	-6.50936	-30.91946	-26.85111	-41.49717	-38.24249	-46.37919	0
731	53.70222	-82.99434	-136.69656	13.83239	95.19939	-109.84545	-8.95037	-30.91946	-29.29212	-41.49717	-35.80148	-46.37919	0
732	51.26121	-82.99434	-134.25555	16.2734	92.75838	-107.40444	-11.39138	-30.91946	-31.73313	-43.93818	-35.80148	-46.37919	0
733	41.49717	-90.31737	-131.81454	24.4101	85.43535	-109.84545	-11.39138	-30.91946	-31.73313	-46.37919	-35.80148	-46.37919	0
734	36.61515	-100.08141	-136.69656	31.73313	85.43535	-117.16848	-16.2734	-30.91946	-34.17414	-48.8202	-40.6835	-48.8202	0
735	31.73313	-107.40444	-139.13757	36.61515	85.43535	-122.0505	-21.15542	-33.36047	-36.61515	-53.70222	-43.12451	-48.8202	0
736	29.29212	-104.96343	-134.25555	36.61515	80.55333	-119.60949	-23.59643	-35.80148	-39.05616	-56.14323	-45.56552	-51.26121	0
737	36.61515	-100.08141	-136.69656	31.73313	85.43535	-117.16848	-26.03744	-38.24249	-39.05616	-56.14323	-45.56552	-51.26121	0
738	46.37919	-104.96343	-151.34262	29.29212	97.6404	-126.93252	-23.59643	-35.80148	-39.05616	-51.26121	-40.6835	-48.8202	0
739	53.70222	-104.96343	-158.66565	24.4101	104.96343	-131.81454	-26.03744	-35.80148	-39.05616	-51.26121	-38.24249	-48.8202	0
740	58.58424	-104.96343	-163.54767	21.96909	109.84545	-134.25555	-28.47845	-38.24249	-39.05616	-48.8202	-35.80148	-48.8202	0
741	65.90727	-112.28646	-178.19373	21.96909	122.0505	-144.01959	-28.47845	-38.24249	-41.49717	-46.37919	-33.36047	-48.8202	0
742	65.90727	-114.72747	-180.63474	24.4101	122.0505	-146.4606	-26.03744	-35.80148	-41.49717	-43.93818	-33.36047	-46.37919	0
743	51.26121	-122.0505	-173.31171	34.17414	112.28646	-146.4606	-23.59643	-35.80148	-39.05616	-43.93818	-30.91946	-43.93818	0
744	39.05616	-122.0505	-161.10666	41.49717	100.08141	-141.57858	-26.03744	-35.80148	-39.05616	-43.93818	-35.80148	-46.37919	0
745	31.73313	-122.0505	-153.78363	43.93818	92.75838	-136.69656	-30.91946	-40.6835	-41.49717	-46.37919	-40.6835	-48.8202	0
746	29.29212	-119.60949	-148.90161	43.93818	87.87636	-134.25555	-30.91946	-40.6835	-41.49717	-48.8202	-40.6835	-48.8202	0
747	21.96909	-122.0505	-144.01959	48.8202	82.99434	-131.81454	-28.47845	-38.24249	-36.61515	-48.8202	-38.24249	-46.37919	0
748	14.64606	-117.16848	-131.81454	51.26121	73.2303	-124.49151	-28.47845	-38.24249	-36.61515	-51.26121	-38.24249	-46.37919	0
749	19.52808	-112.28646	-131.81454	46.37919	75.67131	-122.0505	-30.91946	-43.12451	-36.61515	-53.70222	-38.24249	-48.8202	0
750	26.85111	-109.84545	-136.69656	41.49717	80.55333	-122.0505	-30.91946	-43.12451	-36.61515	-56.14323	-38.24249	-48.8202	0
751	34.17414	-100.08141	-134.25555	31.73313	82.99434	-117.16848	-30.91946	-43.12451	-36.61515	-56.14323	-38.24249	-48.8202	0
752	34.17414	-102.52242	-136.69656	34.17414	85.43535	-119.60949	-28.47845	-43.12451	-34.17414	-58.58424	-38.24249	-48.8202	0
753	41.49717	-100.08141	-141.57858	29.29212	90.31737	-119.60949	-33.36047	-50.44754	-39.05616	-68.34828	-48.00653	-56.14323	0
754	46.37919	-92.75838	-139.13757	21.96909	92.75838	-114.72747	-38.24249	-52.88855	-43.93818	-73.2303	-52.88855	-61.02525	0
755	56.14323	-97.6404	-153.78363	19.52808	104.96343	-124.49151	-38.24249	-55.32956	-46.37919	-73.2303	-55.32956	-63.46626	0
756	63.46626	-104.96343	-168.42969	19.52808	114.72747	-136.69656	-38.24249	-55.32956	-46.37919	-68.34828	-55.32956	-61.02525	0
757	65.90727	-107.40444	-173.31171	19.52808	119.60949	-139.13757	-38.24249	-55.32956	-46.37919	-68.34828	-52.88855	-61.02525	0
758	61.02525	-109.84545	-170.8707	24.4101	114.72747	-139.13757	-40.6835	-57.77057	-43.93818	-63.46626	-48.00653	-58.58424	0
759	41.49717	-107.40444	-148.90161	31.73313	95.19939	-126.93252	-35.80148	-50.44754	-36.61515	-53.70222	-38.24249	-48.8202	0
760	29.29212	-117.16848	-146.4606	43.93818	87.87636	-131.81454	-30.91946	-45.56552	-31.73313	-46.37919	-30.91946	-43.93818	0
761	12.20505	-131.81454	-144.01959	58.58424	78.11232	-136.69656	-26.03744	-43.12451	-26.85111	-41.49717	-23.59643	-36.61515	0
762	2.44101	-126.93252	-129.37353	61.02525	65.90727	-126.93252	-23.59643	-40.6835	-24.4101	-41.49717	-21.15542	-34.17414	0
763	-10.57771	-124.49151	-114.72747	65.90727	51.26121	-119.60949	-16.2734	-35.80148	-19.52808	-41.49717	-23.59643	-31.73313	0
764	-15.45973	-136.69656	-122.0505	75.67131	53.70222	-129.37353	-11.39138	-28.47845	-14.64606	-41.49717	-23.59643	-29.29212	0
765	0	-144.01959	-144.01959	70.78929	70.78929	-144.01959	-16.2734	-33.36047	-19.52808	-46.37919	-33.36047	-34.17414	0
766	24.4101	-139.13757	-163.54767	56.14323	92.75838	-151.34262	-23.59643	-40.6835	-24.4101	-56.14323	-40.6835	-41.49717	0
767	41.49717	-129.37353	-170.8707	43.93818	104.96343	-148.90161	-28.47845	-43.12451	-29.29212	-61.02525	-48.00653	-48.8202	0
768	56.14323	-119.60949	-175.75272	31.73313	114.72747	-146.4606	-33.36047	-50.44754	-34.17414	-70.78929	-52.88855	-56.14323	0
769	58.58424	-117.16848	-175.75272	29.29212	117.16848	-146.4606	-40.6835	-55.32956	-39.05616	-73.2303	-57.77057	-61.02525	0
770	56.14323	-109.84545	-165.98868	26.85111	109.84545	-136.69656	-48.00653	-62.65259	-43.93818	-78.11232	-60.21158	-65.90727	0
771	51.26121	-109.84545	-161.10666	29.29212	104.96343	-134.25555	-50.44754	-65.0936	-43.93818	-78.11232	-60.21158	-68.34828	0
772	46.37919	-117.16848	-163.54767	34.17414	104.96343	-139.13757	-50.44754	-65.0936	-43.93818	-78.11232	-60.21158	-65.90727	0
773	36.61515	-122.0505	-158.66565	41.49717	97.6404	-139.13757	-45.56552	-62.65259	-39.05616	-78.11232	-57.77057	-63.46626	0
774	29.29212	-122.0505	-151.34262	46.37919	90.31737	-136.69656	-40.6835	-60.21158	-34.17414	-73.2303	-55.32956	-58.58424	0
775	29.29212	-126.93252	-156.22464	48.8202	92.75838	-141.57858	-38.24249	-55.32956	-31.73313	-68.34828	-52.88855	-56.14323	0
776	36.61515	-141.57858	-178.19373	51.26121	107.40444	-158.66565	-33.36047	-52.88855	-26.85111	-65.90727	-48.00653	-51.26121	0
777	46.37919	-148.90161	-195.2808	51.26121	119.60949	-170.8707	-33.36047	-55.32956	-29.29212	-65.90727	-48.00653	-51.26121	0
778	46.37919	-144.01959	-190.39878	48.8202	117.16848	-165.98868	-33.36047	-55.32956	-29.29212	-65.90727	-45.56552	-53.70222	0
779	36.61515	-136.69656	-173.31171	48.8202	104.96343	-153.78363	-33.36047	-55.32956	-29.29212	-58.58424	-43.12451	-51.26121	0
780	36.61515	-141.57858	-178.19373	51.26121	107.40444	-158.66565	-38.24249	-62.65259	-34.17414	-58.58424	-43.12451	-53.70222	0
781	36.61515	-156.22464	-192.83979	58.58424	114.72747	-173.31171	-33.36047	-57.77057	-29.29212	-56.14323	-35.80148	-48.8202	0
782	31.73313	-161.10666	-192.83979	63.46626	112.28646	-175.75272	-33.36047	-57.77057	-29.29212	-56.14323	-35.80148	-48.8202	0
783	31.73313	-161.10666	-192.83979	63.46626	112.28646	-175.75272	-33.36047	-57.77057	-29.29212	-63.46626	-40.6835	-48.8202	0
784	34.17414	-153.78363	-187.95777	58.58424	109.84545	-170.8707	-35.80148	-60.21158	-31.73313	-68.34828	-45.56552	-51.26121	0
785	51.26121	-158.66565	-209.92686	53.70222	129.37353	-183.07575	-40.6835	-62.65259	-36.61515	-75.67131	-55.32956	-56.14323	0
786	65.90727	-168.42969	-234.33696	51.26121	148.90161	-200.16282	-40.6835	-62.65259	-36.61515	-78.11232	-57.77057	-58.58424	0
787	70.78929	-163.54767	-234.33696	46.37919	151.34262	-197.72181	-40.6835	-62.65259	-39.05616	-82.99434	-60.21158	-61.02525	0
788	68.34828	-158.66565	-227.01393	43.93818	146.4606	-192.83979	-43.12451	-62.65259	-39.05616	-82.99434	-60.21158	-61.02525	0
789	58.58424	-156.22464	-214.80888	48.8202	136.69656	-185.51676	-43.12451	-60.21158	-39.05616	-80.55333	-57.77057	-58.58424	0
790	51.26121	-153.78363	-205.04484	51.26121	126.93252	-178.19373	-40.6835	-57.77057	-36.61515	-73.2303	-50.44754	-56.14323	0
791	39.05616	-153.78363	-192.83979	56.14323	114.72747	-173.31171	-38.24249	-52.88855	-31.73313	-65.90727	-43.12451	-51.26121	0
792	29.29212	-151.34262	-180.63474	61.02525	104.96343	-165.98868	-38.24249	-52.88855	-31.73313	-63.46626	-38.24249	-48.8202	0
793	19.52808	-151.34262	-170.8707	65.90727	95.19939	-161.10666	-40.6835	-55.32956	-34.17414	-63.46626	-40.6835	-48.8202	0
794	19.52808	-151.34262	-170.8707	65.90727	95.19939	-161.10666	-43.12451	-57.77057	-36.61515	-63.46626	-43.12451	-53.70222	0
795	34.17414	-146.4606	-180.63474	56.14323	107.40444	-163.54767	-48.00653	-65.0936	-39.05616	-68.34828	-48.00653	-58.58424	0
796	34.17414	-151.34262	-185.51676	58.58424	109.84545	-168.42969	-45.56552	-62.65259	-39.05616	-65.90727	-48.00653	-56.14323	0
797	41.49717	-156.22464	-197.72181	56.14323	119.60949	-175.75272	-45.56552	-62.65259	-39.05616	-68.34828	-48.00653	-58.58424	0
798	36.61515	-158.66565	-195.2808	61.02525	114.72747	-175.75272	-43.12451	-60.21158	-39.05616	-68.34828	-45.56552	-58.58424	0
799	34.17414	-153.78363	-187.95777	58.58424	109.84545	-170.8707	-43.12451	-60.21158	-36.61515	-68.34828	-45.56552	-58.58424	0
800	34.17414	-146.4606	-180.63474	56.14323	107.40444	-163.54767	-43.12451	-62.65259	-39.05616	-73.2303	-48.00653	-63.46626	0
801	26.85111	-146.4606	-173.31171	58.58424	100.08141	-158.66565	-45.56552	-62.65259	-39.05616	-75.67131	-50.44754	-63.46626	0
802	21.96909	-146.4606	-168.42969	61.02525	95.19939	-156.22464	-43.12451	-62.65259	-39.05616	-80.55333	-50.44754	-63.46626	0
803	21.96909	-139.13757	-161.10666	58.58424	90.31737	-148.90161	-40.6835	-60.21158	-39.05616	-82.99434	-52.88855	-61.02525	0
804	21.96909	-136.69656	-158.66565	56.14323	90.31737	-146.4606	-40.6835	-60.21158	-36.61515	-85.43535	-57.77057	-61.02525	0
805	29.29212	-141.57858	-170.8707	56.14323	100.08141	-156.22464	-38.24249	-60.21158	-36.61515	-87.87636	-57.77057	-61.02525	0
806	29.29212	-158.66565	-187.95777	63.46626	107.40444	-173.31171	-30.91946	-52.88855	-29.29212	-78.11232	-50.44754	-53.70222	0
807	36.61515	-170.8707	-207.48585	65.90727	122.0505	-187.95777	-28.47845	-50.44754	-29.29212	-73.2303	-48.00653	-51.26121	0
808	48.8202	-168.42969	-217.24989	58.58424	131.81454	-192.83979	-28.47845	-52.88855	-31.73313	-73.2303	-45.56552	-56.14323	0
809	48.8202	-170.8707	-219.6909	61.02525	134.25555	-195.2808	-30.91946	-57.77057	-34.17414	-73.2303	-45.56552	-58.58424	0
810	43.93818	-178.19373	-222.13191	65.90727	131.81454	-200.16282	-33.36047	-57.77057	-34.17414	-70.78929	-43.12451	-58.58424	0
811	53.70222	-180.63474	-234.33696	63.46626	144.01959	-207.48585	-35.80148	-60.21158	-39.05616	-70.78929	-45.56552	-61.02525	0
812	46.37919	-173.31171	-219.6909	63.46626	131.81454	-195.2808	-38.24249	-62.65259	-41.49717	-75.67131	-48.00653	-61.02525	0
813	41.49717	-161.10666	-202.60383	58.58424	122.0505	-180.63474	-40.6835	-65.0936	-46.37919	-82.99434	-55.32956	-63.46626	0
814	36.61515	-151.34262	-187.95777	56.14323	112.28646	-168.42969	-43.12451	-67.53461	-46.37919	-85.43535	-60.21158	-65.90727	0
815	26.85111	-153.78363	-180.63474	63.46626	102.52242	-165.98868	-40.6835	-62.65259	-46.37919	-85.43535	-60.21158	-63.46626	0
816	29.29212	-151.34262	-180.63474	61.02525	104.96343	-165.98868	-40.6835	-62.65259	-46.37919	-87.87636	-65.0936	-65.90727	0
817	26.85111	-148.90161	-175.75272	61.02525	100.08141	-161.10666	-43.12451	-62.65259	-48.8202	-92.75838	-67.53461	-68.34828	0
818	21.96909	-144.01959	-165.98868	61.02525	92.75838	-153.78363	-43.12451	-62.65259	-46.37919	-97.6404	-67.53461	-70.78929	0
819	26.85111	-136.69656	-163.54767	53.70222	95.19939	-148.90161	-43.12451	-60.21158	-46.37919	-97.6404	-67.53461	-70.78929	0
820	26.85111	-136.69656	-163.54767	53.70222	95.19939	-148.90161	-35.80148	-55.32956	-41.49717	-92.75838	-65.0936	-68.34828	0
821	34.17414	-136.69656	-170.8707	51.26121	102.52242	-153.78363	-33.36047	-48.00653	-39.05616	-92.75838	-62.65259	-68.34828	0
822	46.37919	-129.37353	-175.75272	41.49717	109.84545	-151.34262	-33.36047	-45.56552	-36.61515	-92.75838	-62.65259	-68.34828	0
823	56.14323	-119.60949	-175.75272	31.73313	114.72747	-146.4606	-28.47845	-40.6835	-31.73313	-90.31737	-60.21158	-63.46626	0
824	56.14323	-117.16848	-173.31171	29.29212	114.72747	-144.01959	-18.71441	-30.91946	-21.96909	-78.11232	-50.44754	-53.70222	0
825	58.58424	-112.28646	-170.8707	26.85111	114.72747	-141.57858	-8.95037	-23.59643	-14.64606	-68.34828	-45.56552	-46.37919	0
826	68.34828	-92.75838	-161.10666	11.39138	114.72747	-126.93252	-8.95037	-23.59643	-17.08707	-65.90727	-45.56552	-46.37919	0
827	73.2303	-85.43535	-158.66565	6.50936	114.72747	-122.0505	-8.95037	-23.59643	-17.08707	-61.02525	-40.6835	-46.37919	0
828	65.90727	-92.75838	-158.66565	13.83239	112.28646	-124.49151	-1.62734	-16.2734	-9.76404	-48.8202	-28.47845	-36.61515	0
829	58.58424	-102.52242	-161.10666	21.96909	109.84545	-131.81454	0.81367	-11.39138	-7.32303	-41.49717	-18.71441	-31.73313	0
830	48.8202	-112.28646	-161.10666	31.73313	104.96343	-136.69656	4.06835	-8.95037	-2.44101	-34.17414	-13.83239	-26.85111	0
831	41.49717	-112.28646	-153.78363	34.17414	97.6404	-131.81454	6.50936	-6.50936	0	-34.17414	-11.39138	-24.4101	0
832	39.05616	-107.40444	-146.4606	34.17414	92.75838	-126.93252	8.95037	-1.62734	3.25468	-34.17414	-8.95037	-21.96909	0
833	43.93818	-104.96343	-148.90161	29.29212	95.19939	-126.93252	16.2734	4.06835	8.1367	-34.17414	-8.95037	-17.08707	0
834	43.93818	-95.19939	-139.13757	24.4101	90.31737	-117.16848	21.15542	6.50936	10.57771	-34.17414	-11.39138	-19.52808	0
835	46.37919	-75.67131	-122.0505	13.83239	82.99434	-97.6404	23.59643	6.50936	10.57771	-39.05616	-18.71441	-21.96909	0
836	53.70222	-58.58424	-112.28646	1.62734	82.99434	-85.43535	21.15542	4.06835	5.69569	-43.93818	-23.59643	-29.29212	0
837	65.90727	-36.61515	-102.52242	-15.45973	82.99434	-68.34828	16.2734	0.81367	0	-48.8202	-28.47845	-31.73313	0
838	80.55333	-31.73313	-112.28646	-25.22377	95.19939	-70.78929	13.83239	-4.06835	-4.88202	-48.8202	-26.03744	-34.17414	0
839	73.2303	-31.73313	-104.96343	-20.34175	87.87636	-68.34828	13.83239	-4.06835	-4.88202	-41.49717	-21.15542	-29.29212	0
840	68.34828	-24.4101	-92.75838	-22.78276	80.55333	-58.58424	11.39138	-1.62734	-4.88202	-31.73313	-13.83239	-24.4101	0
841	68.34828	-18.71441	-87.87636	-25.22377	78.11232	-53.70222	6.50936	-4.06835	-9.76404	-29.29212	-8.95037	-17.08707	0
842	65.90727	-16.2734	-82.99434	-25.22377	75.67131	-48.8202	0.81367	-4.06835	-9.76404	-24.4101	-5.69569	-12.20505	0
843	80.55333	-8.95037	-90.31737	-34.98781	85.43535	-48.8202	-1.62734	-8.95037	-14.64606	-24.4101	-5.69569	-9.76404	0
844	70.78929	-4.06835	-75.67131	-32.5468	73.2303	-39.05616	-6.50936	-11.39138	-17.08707	-19.52808	-3.25468	-4.88202	0
845	78.11232	0.81367	-78.11232	-39.86983	78.11232	-39.05616	-13.83239	-18.71441	-21.96909	-21.96909	-5.69569	-4.88202	0
846	87.87636	3.25468	-85.43535	-44.75185	87.87636	-41.49717	-21.15542	-26.03744	-26.85111	-21.96909	-5.69569	-4.88202	0
847	85.43535	3.25468	-82.99434	-44.75185	85.43535	-39.05616	-23.59643	-28.47845	-29.29212	-21.96909	-3.25468	-2.44101	0
848	85.43535	8.1367	-78.11232	-47.19286	82.99434	-34.17414	-26.03744	-30.91946	-29.29212	-21.96909	-0.81367	-2.44101	0
849	78.11232	10.57771	-68.34828	-44.75185	73.2303	-29.29212	-23.59643	-30.91946	-26.85111	-17.08707	6.50936	3.25468	0
850	73.2303	10.57771	-63.46626	-42.31084	68.34828	-26.85111	-21.15542	-28.47845	-24.4101	-11.39138	11.39138	5.69569	0
851	78.11232	15.45973	-63.46626	-47.19286	70.78929	-24.4101	-13.83239	-21.15542	-17.08707	-6.50936	18.71441	13.01872	0
852	75.67131	8.1367	-68.34828	-42.31084	73.2303	-29.29212	-11.39138	-18.71441	-14.64606	-1.62734	21.15542	15.45973	0
853	80.55333	8.1367	-73.2303	-44.75185	78.11232	-31.73313	-13.83239	-23.59643	-17.08707	-4.06835	18.71441	15.45973	0
854	73.2303	3.25468	-70.78929	-37.42882	73.2303	-34.17414	-11.39138	-23.59643	-14.64606	-1.62734	18.71441	17.90074	0
855	56.14323	-11.39138	-68.34828	-22.78276	63.46626	-39.05616	-6.50936	-18.71441	-9.76404	8.1367	26.03744	25.22377	0
856	51.26121	-24.4101	-75.67131	-13.01872	63.46626	-48.8202	-8.95037	-21.15542	-14.64606	3.25468	21.15542	22.78276	0
857	53.70222	-36.61515	-90.31737	-8.1367	70.78929	-63.46626	-16.2734	-28.47845	-19.52808	-1.62734	16.2734	17.90074	0
858	43.93818	-39.05616	-82.99434	-3.25468	63.46626	-61.02525	-21.15542	-35.80148	-29.29212	-11.39138	8.95037	8.1367	0
859	34.17414	-39.05616	-73.2303	1.62734	53.70222	-56.14323	-21.15542	-35.80148	-29.29212	-17.08707	4.06835	3.25468	0
860	34.17414	-43.93818	-78.11232	4.06835	56.14323	-61.02525	-18.71441	-35.80148	-29.29212	-21.96909	-0.81367	-2.44101	0
861	41.49717	-48.8202	-90.31737	4.06835	65.90727	-68.34828	-21.15542	-38.24249	-34.17414	-31.73313	-8.95037	-9.76404	0
862	43.93818	-58.58424	-102.52242	6.50936	73.2303	-80.55333	-23.59643	-40.6835	-36.61515	-41.49717	-16.2734	-19.52808	0
863	31.73313	-68.34828	-100.08141	16.2734	65.90727	-82.99434	-21.15542	-38.24249	-34.17414	-51.26121	-23.59643	-21.96909	0
864	29.29212	-75.67131	-104.96343	21.96909	65.90727	-90.31737	-21.15542	-38.24249	-34.17414	-56.14323	-30.91946	-26.85111	0
865	31.73313	-90.31737	-122.0505	29.29212	75.67131	-104.96343	-21.15542	-38.24249	-34.17414	-58.58424	-38.24249	-29.29212	0
866	21.96909	-107.40444	-129.37353	41.49717	75.67131	-117.16848	-21.15542	-38.24249	-36.61515	-61.02525	-40.6835	-34.17414	0
867	14.64606	-119.60949	-134.25555	51.26121	73.2303	-126.93252	-18.71441	-38.24249	-34.17414	-61.02525	-43.12451	-36.61515	0
868	7.32303	-119.60949	-126.93252	56.14323	65.90727	-122.0505	-21.15542	-38.24249	-34.17414	-63.46626	-43.12451	-39.05616	0
869	4.88202	-124.49151	-129.37353	58.58424	65.90727	-126.93252	-21.15542	-38.24249	-34.17414	-61.02525	-43.12451	-41.49717	0
870	0	-134.25555	-134.25555	65.90727	65.90727	-134.25555	-18.71441	-35.80148	-34.17414	-58.58424	-38.24249	-41.49717	0
871	-10.57771	-136.69656	-126.93252	73.2303	58.58424	-131.81454	-16.2734	-33.36047	-31.73313	-58.58424	-35.80148	-41.49717	0
872	-15.45973	-141.57858	-126.93252	78.11232	56.14323	-134.25555	-16.2734	-33.36047	-31.73313	-61.02525	-40.6835	-43.93818	0
873	-17.90074	-156.22464	-139.13757	85.43535	61.02525	-148.90161	-16.2734	-33.36047	-31.73313	-63.46626	-43.12451	-43.93818	0
874	-20.34175	-173.31171	-153.78363	95.19939	65.90727	-163.54767	-16.2734	-33.36047	-31.73313	-65.90727	-43.12451	-41.49717	0
875	-27.66478	-183.07575	-156.22464	104.96343	63.46626	-170.8707	-16.2734	-35.80148	-34.17414	-68.34828	-45.56552	-43.93818	0
876	-32.5468	-187.95777	-156.22464	109.84545	61.02525	-173.31171	-16.2734	-35.80148	-36.61515	-73.2303	-50.44754	-46.37919	0
877	-27.66478	-192.83979	-165.98868	109.84545	68.34828	-180.63474	-23.59643	-43.12451	-41.49717	-78.11232	-55.32956	-51.26121	0
878	-25.22377	-195.2808	-170.8707	109.84545	73.2303	-183.07575	-23.59643	-43.12451	-41.49717	-80.55333	-52.88855	-53.70222	0
879	-27.66478	-185.51676	-158.66565	104.96343	65.90727	-173.31171	-21.15542	-40.6835	-39.05616	-78.11232	-52.88855	-53.70222	0
880	-27.66478	-163.54767	-136.69656	95.19939	53.70222	-151.34262	-26.03744	-45.56552	-43.93818	-80.55333	-55.32956	-58.58424	0
881	-20.34175	-148.90161	-129.37353	82.99434	53.70222	-139.13757	-26.03744	-45.56552	-43.93818	-80.55333	-55.32956	-58.58424	0
882	-7.32303	-136.69656	-129.37353	70.78929	61.02525	-131.81454	-28.47845	-45.56552	-46.37919	-82.99434	-60.21158	-61.02525	0
883	0	-134.25555	-134.25555	65.90727	65.90727	-134.25555	-26.03744	-43.12451	-43.93818	-82.99434	-60.21158	-56.14323	0
884	4.88202	-131.81454	-136.69656	63.46626	70.78929	-134.25555	-18.71441	-35.80148	-39.05616	-80.55333	-57.77057	-53.70222	0
885	7.32303	-141.57858	-148.90161	65.90727	78.11232	-144.01959	-16.2734	-35.80148	-39.05616	-82.99434	-60.21158	-53.70222	0
886	12.20505	-161.10666	-173.31171	73.2303	92.75838	-165.98868	-13.83239	-33.36047	-39.05616	-87.87636	-67.53461	-58.58424	0
887	14.64606	-175.75272	-190.39878	80.55333	102.52242	-183.07575	-13.83239	-35.80148	-39.05616	-100.08141	-77.29865	-68.34828	0
888	0	-185.51676	-185.51676	92.75838	92.75838	-185.51676	-11.39138	-35.80148	-39.05616	-114.72747	-87.06269	-80.55333	0
889	-7.32303	-202.60383	-195.2808	104.96343	92.75838	-197.72181	-6.50936	-35.80148	-41.49717	-134.25555	-104.14976	-97.6404	0
890	-15.45973	-222.13191	-207.48585	117.16848	95.19939	-214.80888	-1.62734	-35.80148	-41.49717	-156.22464	-121.23683	-114.72747	0
891	-15.45973	-241.65999	-227.01393	126.93252	104.96343	-234.33696	0.81367	-35.80148	-46.37919	-183.07575	-145.64693	-139.13757	0
892	-15.45973	-261.18807	-246.54201	136.69656	114.72747	-253.86504	8.95037	-35.80148	-48.8202	-205.04484	-165.17501	-156.22464	0
893	-10.57771	-278.27514	-268.5111	144.01959	129.37353	-273.39312	18.71441	-28.47845	-46.37919	-217.24989	-177.38006	-168.42969	0
894	7.32303	-285.59817	-292.9212	139.13757	148.90161	-288.03918	28.47845	-23.59643	-46.37919	-219.6909	-184.70309	-175.75272	0
895	29.29212	-275.83413	-305.12625	122.0505	165.98868	-290.48019	35.80148	-18.71441	-46.37919	-209.92686	-182.26208	-178.19373	0
896	61.02525	-241.65999	-302.68524	90.31737	180.63474	-270.95211	40.6835	-16.2734	-51.26121	-190.39878	-170.05703	-173.31171	0
897	112.28646	-197.72181	-310.00827	41.49717	209.92686	-253.86504	43.12451	-16.2734	-56.14323	-156.22464	-148.08794	-165.98868	0
898	178.19373	-136.69656	-314.89029	-20.34175	246.54201	-224.57292	43.12451	-18.71441	-61.02525	-112.28646	-113.9138	-151.34262	0
899	244.101	-56.14323	-300.24423	-93.57205	270.95211	-178.19373	35.80148	-28.47845	-73.2303	-56.14323	-74.85764	-134.25555	0
900	319.77231	27.66478	-292.9212	-174.12538	307.56726	-131.81454	28.47845	-33.36047	-82.99434	10.57771	-26.03744	-109.84545	0
901	397.88463	120.42316	-278.27514	-259.56073	339.30039	-78.11232	21.15542	-35.80148	-90.31737	93.57205	35.80148	-70.78929	0
902	478.43796	218.06356	-261.18807	-347.43709	371.03352	-21.96909	8.95037	-43.12451	-100.08141	186.33043	104.14976	-24.4101	0
903	554.10927	340.11406	-214.80888	-447.5185	385.67958	64.27993	-11.39138	-55.32956	-114.72747	291.29386	182.26208	27.66478	0
904	602.92947	479.25163	-124.49151	-540.27688	363.71049	179.0074	-33.36047	-65.0936	-124.49151	408.46234	267.69743	88.69003	0
905	644.42664	628.15324	-17.08707	-635.47627	331.97736	305.93992	-52.88855	-65.0936	-129.37353	535.39486	362.89682	159.47932	0
906	688.36482	791.70091	103.33609	-740.4397	292.9212	447.5185	-74.85764	-69.97562	-129.37353	662.32738	462.97823	232.70962	0
907	722.53896	940.60252	218.06356	-830.75707	253.86504	579.33304	-104.14976	-77.29865	-134.25555	774.61384	553.2956	301.0579	0
908	737.18502	1048.00696	310.82194	-891.78232	214.80888	679.41445	-135.88289	-89.5037	-139.13757	857.60818	626.5259	357.20113	0
909	710.33391	1109.03221	398.6983	-908.86939	156.22464	755.08576	-150.52895	-87.06269	-129.37353	916.19242	682.66913	408.46234	0
910	659.0727	1121.23726	462.16456	-889.34131	100.08141	791.70091	-162.734	-84.62168	-112.28646	950.36656	726.60731	454.84153	0
911	602.92947	1096.82716	493.89769	-850.28515	56.14323	796.58293	-179.82107	-87.06269	-100.08141	950.36656	743.69438	486.57466	0
912	517.49412	1008.9508	491.45668	-762.40879	14.64606	750.20374	-194.46713	-91.94471	-90.31737	913.75141	733.93034	501.22072	0
913	419.85372	877.13626	457.28254	-647.68132	-17.90074	667.2094	-211.5542	-101.70875	-82.99434	838.0801	694.87418	496.3387	0
914	314.89029	723.35263	408.46234	-518.30779	-47.19286	567.12799	-223.75925	-111.47279	-75.67131	742.88071	633.84893	476.81062	0
915	207.48585	581.77405	374.2882	-393.81628	-83.80801	479.25163	-231.08228	-113.9138	-63.46626	637.91728	563.05964	447.5185	0
916	117.16848	449.95951	332.79103	-283.97083	-108.21811	391.37527	-233.52329	-116.35481	-56.14323	525.63082	484.94732	406.02133	0
917	43.93818	318.14497	274.20679	-181.44841	-115.54114	296.17588	-235.9643	-121.23683	-53.70222	413.34436	401.95298	354.76012	0
918	-15.45973	191.21245	205.85851	-88.69003	-110.65912	198.53548	-235.9643	-121.23683	-48.8202	303.49891	321.39965	301.0579	0
919	-64.27993	88.69003	152.15629	-13.01872	-108.21811	120.42316	-221.31824	-116.35481	-41.49717	208.29952	245.72834	244.91467	0
920	-103.33609	17.90074	120.42316	41.49717	-110.65912	69.16195	-201.79016	-106.59077	-34.17414	130.1872	179.82107	196.09447	0
921	-127.74619	-31.73313	96.01306	78.11232	-113.10013	32.5468	-177.38006	-91.94471	-24.4101	74.04397	128.55986	154.5973	0
922	-132.62821	-73.2303	59.39791	102.52242	-96.01306	-6.50936	-155.41097	-79.73966	-17.08707	27.66478	87.06269	117.98215	0
923	-144.83326	-100.08141	44.75185	122.0505	-96.01306	-29.29212	-131.00087	-65.0936	-9.76404	-11.39138	48.00653	86.24902	0
924	-147.27427	-114.72747	32.5468	129.37353	-91.13104	-41.49717	-104.14976	-48.00653	-2.44101	-34.17414	16.2734	59.39791	0
925	-147.27427	-114.72747	32.5468	129.37353	-91.13104	-41.49717	-82.18067	-33.36047	3.25468	-48.8202	-3.25468	39.86983	0
926	-144.83326	-114.72747	30.10579	129.37353	-88.69003	-43.93818	-60.21158	-18.71441	10.57771	-53.70222	-11.39138	25.22377	0
927	-137.51023	-117.16848	20.34175	126.93252	-78.92599	-48.8202	-48.00653	-11.39138	13.01872	-56.14323	-21.15542	13.01872	0
928	-125.30518	-112.28646	13.01872	117.16848	-69.16195	-51.26121	-40.6835	-6.50936	8.1367	-58.58424	-26.03744	0.81367	0
929	-100.89508	-107.40444	-6.50936	102.52242	-47.19286	-58.58424	-38.24249	-6.50936	3.25468	-61.02525	-30.91946	-9.76404	0
930	-81.367	-102.52242	-21.96909	90.31737	-30.10579	-63.46626	-35.80148	-6.50936	0	-63.46626	-33.36047	-17.08707	0
931	-64.27993	-100.08141	-36.61515	80.55333	-15.45973	-68.34828	-35.80148	-8.95037	-4.88202	-70.78929	-40.6835	-24.4101	0
932	-49.63387	-100.08141	-51.26121	73.2303	-0.81367	-75.67131	-35.80148	-8.95037	-12.20505	-80.55333	-48.00653	-34.17414	0
933	-34.98781	-95.19939	-61.02525	63.46626	12.20505	-78.11232	-35.80148	-8.95037	-17.08707	-92.75838	-60.21158	-41.49717	0
934	-30.10579	-92.75838	-63.46626	61.02525	17.08707	-78.11232	-30.91946	-6.50936	-17.08707	-100.08141	-72.41663	-48.8202	0
935	-39.86983	-92.75838	-53.70222	65.90727	7.32303	-73.2303	-21.15542	0.81367	-12.20505	-100.08141	-74.85764	-48.8202	0
936	-49.63387	-97.6404	-48.8202	73.2303	-0.81367	-73.2303	-11.39138	11.39138	-4.88202	-97.6404	-72.41663	-48.8202	0
937	-49.63387	-104.96343	-56.14323	75.67131	1.62734	-80.55333	-1.62734	18.71441	0	-92.75838	-72.41663	-48.8202	0
938	-66.72094	-102.52242	-36.61515	82.99434	-15.45973	-70.78929	4.06835	26.03744	3.25468	-87.87636	-65.0936	-46.37919	0
939	-86.24902	-100.08141	-14.64606	92.75838	-37.42882	-58.58424	11.39138	33.36047	10.57771	-73.2303	-52.88855	-39.05616	0
940	-103.33609	-100.08141	3.25468	100.08141	-54.51589	-48.8202	18.71441	40.6835	13.01872	-61.02525	-43.12451	-34.17414	0
941	-105.7771	-97.6404	8.1367	100.08141	-56.9569	-46.37919	13.83239	38.24249	10.57771	-61.02525	-43.12451	-36.61515	0
942	-100.89508	-97.6404	3.25468	97.6404	-52.07488	-48.8202	6.50936	33.36047	3.25468	-68.34828	-50.44754	-41.49717	0
943	-103.33609	-102.52242	0.81367	102.52242	-52.07488	-51.26121	6.50936	35.80148	3.25468	-73.2303	-52.88855	-41.49717	0
944	-105.7771	-102.52242	3.25468	102.52242	-54.51589	-51.26121	4.06835	33.36047	0	-78.11232	-60.21158	-46.37919	0
945	-100.89508	-109.84545	-8.95037	104.96343	-47.19286	-61.02525	0.81367	30.91946	-2.44101	-85.43535	-69.97562	-48.8202	0
946	-96.01306	-109.84545	-14.64606	102.52242	-42.31084	-63.46626	-1.62734	26.03744	-7.32303	-97.6404	-79.73966	-56.14323	0
947	-86.24902	-109.84545	-24.4101	97.6404	-32.5468	-68.34828	-4.06835	23.59643	-9.76404	-104.96343	-87.06269	-63.46626	0
948	-78.92599	-112.28646	-34.17414	95.19939	-22.78276	-73.2303	-4.06835	23.59643	-12.20505	-109.84545	-89.5037	-65.90727	0
949	-88.69003	-104.96343	-17.08707	95.19939	-37.42882	-61.02525	-1.62734	23.59643	-9.76404	-109.84545	-89.5037	-68.34828	0
950	-93.57205	-100.08141	-6.50936	95.19939	-44.75185	-53.70222	-1.62734	21.15542	-12.20505	-112.28646	-91.94471	-70.78929	0
951	-91.13104	-109.84545	-19.52808	100.08141	-37.42882	-65.90727	0.81367	23.59643	-9.76404	-109.84545	-89.5037	-70.78929	0
952	-86.24902	-114.72747	-29.29212	100.08141	-30.10579	-73.2303	0.81367	23.59643	-7.32303	-107.40444	-87.06269	-68.34828	0
953	-76.48498	-114.72747	-39.05616	95.19939	-20.34175	-78.11232	0.81367	23.59643	-7.32303	-104.96343	-84.62168	-65.90727	0
954	-74.04397	-112.28646	-39.05616	92.75838	-17.90074	-75.67131	4.06835	28.47845	-2.44101	-97.6404	-82.18067	-61.02525	0
955	-66.72094	-109.84545	-43.93818	87.87636	-13.01872	-78.11232	6.50936	28.47845	-2.44101	-95.19939	-82.18067	-61.02525	0
956	-52.07488	-114.72747	-63.46626	82.99434	4.88202	-90.31737	6.50936	30.91946	0	-90.31737	-79.73966	-56.14323	0
957	-52.07488	-104.96343	-53.70222	78.11232	-0.81367	-80.55333	8.95037	30.91946	0	-90.31737	-77.29865	-56.14323	0
958	-49.63387	-85.43535	-36.61515	65.90727	-8.1367	-61.02525	8.95037	30.91946	-2.44101	-90.31737	-77.29865	-56.14323	0
959	-56.9569	-73.2303	-17.08707	63.46626	-20.34175	-46.37919	11.39138	28.47845	-2.44101	-90.31737	-77.29865	-56.14323	0
960	-78.92599	-73.2303	5.69569	75.67131	-42.31084	-34.17414	18.71441	33.36047	0	-85.43535	-72.41663	-53.70222	0
961	-91.13104	-70.78929	20.34175	80.55333	-56.9569	-26.85111	23.59643	35.80148	0	-85.43535	-69.97562	-51.26121	0
962	-93.57205	-68.34828	25.22377	80.55333	-59.39791	-21.96909	28.47845	40.6835	3.25468	-85.43535	-65.0936	-48.8202	0
963	-93.57205	-63.46626	30.10579	78.11232	-61.83892	-16.2734	33.36047	43.12451	5.69569	-85.43535	-65.0936	-46.37919	0
964	-88.69003	-63.46626	25.22377	75.67131	-56.9569	-19.52808	33.36047	43.12451	5.69569	-82.99434	-65.0936	-46.37919	0
965	-93.57205	-63.46626	30.10579	78.11232	-61.83892	-16.2734	38.24249	48.00653	8.1367	-78.11232	-62.65259	-43.93818	0
966	-88.69003	-58.58424	30.10579	73.2303	-59.39791	-13.83239	38.24249	48.00653	10.57771	-75.67131	-62.65259	-41.49717	0
967	-76.48498	-56.14323	20.34175	65.90727	-49.63387	-19.52808	33.36047	45.56552	5.69569	-80.55333	-65.0936	-46.37919	0
968	-78.92599	-53.70222	25.22377	65.90727	-52.07488	-13.83239	33.36047	45.56552	5.69569	-80.55333	-65.0936	-43.93818	0
969	-96.01306	-43.93818	52.07488	68.34828	-74.04397	3.25468	33.36047	45.56552	5.69569	-78.11232	-65.0936	-43.93818	0
970	-103.33609	-43.93818	59.39791	73.2303	-81.367	8.1367	30.91946	48.00653	5.69569	-80.55333	-65.0936	-43.93818	0
971	-96.01306	-43.93818	52.07488	68.34828	-74.04397	3.25468	30.91946	48.00653	5.69569	-85.43535	-65.0936	-46.37919	0
972	-91.13104	-46.37919	44.75185	68.34828	-69.16195	-1.62734	30.91946	50.44754	5.69569	-90.31737	-69.97562	-46.37919	0
973	-91.13104	-43.93818	47.19286	65.90727	-69.16195	0.81367	33.36047	55.32956	8.1367	-95.19939	-72.41663	-43.93818	0
974	-91.13104	-43.93818	47.19286	65.90727	-69.16195	0.81367	35.80148	57.77057	10.57771	-97.6404	-74.85764	-43.93818	0
