samplenr	I	II	III	aVR	aVL	aVF	V1	V2	V3	V4	V5	V6	measurement
0	-27.66478	-67.53461	-40.6835	45.56552	5.69569	-54.51589	-6.50936	-13.83239	-6.50936	-0.81367	20.34175	-4.88202	0
1	-27.66478	-67.53461	-40.6835	45.56552	5.69569	-54.51589	-6.50936	-11.39138	-6.50936	-0.81367	22.78276	-4.88202	0
2	-24.4101	-60.21158	-35.80148	40.6835	5.69569	-47.19286	-6.50936	-8.95037	-4.06835	1.62734	22.78276	-4.88202	0
3	-21.96909	-60.21158	-38.24249	40.6835	8.1367	-49.63387	-4.06835	-6.50936	-4.06835	4.06835	25.22377	-4.88202	0
4	-19.52808	-60.21158	-40.6835	38.24249	10.57771	-49.63387	-1.62734	-4.06835	0.81367	6.50936	30.10579	-1.62734	0
5	-19.52808	-55.32956	-35.80148	35.80148	8.1367	-44.75185	0.81367	0.81367	5.69569	9.76404	32.5468	-1.62734	0
6	-17.08707	-50.44754	-33.36047	33.36047	8.1367	-42.31084	6.50936	3.25468	5.69569	12.20505	32.5468	0.81367	0
7	-17.08707	-43.12451	-26.03744	28.47845	3.25468	-34.98781	11.39138	3.25468	8.95037	17.08707	34.98781	3.25468	0
8	-12.20505	-28.47845	-16.2734	18.71441	0.81367	-22.78276	16.2734	8.1367	13.83239	21.96909	37.42882	5.69569	0
9	-9.76404	-16.2734	-6.50936	13.01872	-1.62734	-10.57771	21.15542	15.45973	18.71441	26.85111	42.31084	8.1367	0
10	-4.88202	-3.25468	0.81367	3.25468	-1.62734	-0.81367	26.03744	25.22377	26.03744	31.73313	44.75185	10.57771	0
11	2.44101	11.39138	8.1367	-6.50936	-1.62734	9.76404	30.91946	30.10579	28.47845	34.17414	47.19286	13.01872	0
12	14.64606	23.59643	8.1367	-18.71441	3.25468	17.08707	33.36047	34.98781	33.36047	39.05616	49.63387	15.45973	0
13	19.52808	33.36047	13.01872	-26.03744	3.25468	24.4101	33.36047	37.42882	33.36047	39.05616	49.63387	15.45973	0
14	19.52808	30.91946	10.57771	-26.03744	5.69569	21.96909	33.36047	37.42882	33.36047	39.05616	47.19286	13.01872	0
15	21.96909	28.47845	5.69569	-26.03744	8.1367	17.08707	33.36047	39.86983	30.91946	36.61515	42.31084	10.57771	0
16	21.96909	26.03744	3.25468	-23.59643	10.57771	14.64606	33.36047	37.42882	26.03744	34.17414	37.42882	5.69569	0
17	24.4101	23.59643	-1.62734	-23.59643	13.01872	12.20505	33.36047	34.98781	26.03744	31.73313	32.5468	3.25468	0
18	24.4101	21.15542	-4.06835	-23.59643	15.45973	9.76404	33.36047	37.42882	26.03744	26.85111	27.66478	0.81367	0
19	24.4101	21.15542	-4.06835	-23.59643	15.45973	9.76404	30.91946	39.86983	26.03744	24.4101	22.78276	-1.62734	0
20	19.52808	21.15542	0.81367	-21.15542	10.57771	12.20505	28.47845	47.19286	23.59643	19.52808	17.90074	-4.88202	0
21	24.4101	28.47845	3.25468	-26.03744	10.57771	17.08707	28.47845	52.07488	23.59643	19.52808	15.45973	-4.88202	0
22	34.17414	30.91946	-4.06835	-33.36047	20.34175	14.64606	28.47845	56.9569	26.03744	19.52808	15.45973	-1.62734	0
23	48.8202	43.12451	-6.50936	-45.56552	27.66478	19.52808	28.47845	64.27993	26.03744	21.96909	15.45973	0.81367	0
24	58.58424	50.44754	-8.95037	-55.32956	34.98781	21.96909	23.59643	64.27993	18.71441	21.96909	15.45973	3.25468	0
25	63.46626	52.88855	-11.39138	-57.77057	37.42882	21.96909	16.2734	64.27993	11.39138	21.96909	13.01872	3.25468	0
26	73.2303	65.0936	-8.95037	-69.97562	42.31084	29.29212	13.83239	64.27993	11.39138	24.4101	17.90074	5.69569	0
27	80.55333	74.85764	-6.50936	-77.29865	44.75185	34.17414	8.95037	61.83892	5.69569	24.4101	17.90074	8.1367	0
28	80.55333	77.29865	-4.06835	-79.73966	42.31084	36.61515	0.81367	56.9569	0.81367	24.4101	17.90074	8.1367	0
29	73.2303	77.29865	3.25468	-74.85764	34.98781	41.49717	-6.50936	54.51589	-6.50936	17.08707	13.01872	5.69569	0
30	65.90727	69.97562	3.25468	-67.53461	32.5468	36.61515	-13.83239	54.51589	-13.83239	12.20505	8.1367	3.25468	0
31	63.46626	69.97562	5.69569	-67.53461	30.10579	39.05616	-18.71441	54.51589	-21.15542	9.76404	5.69569	0.81367	0
32	70.78929	74.85764	3.25468	-72.41663	34.98781	39.05616	-21.15542	49.63387	-23.59643	6.50936	2.44101	0.81367	0
33	73.2303	74.85764	0.81367	-74.85764	37.42882	39.05616	-28.47845	42.31084	-30.91946	4.06835	2.44101	-4.88202	0
34	78.11232	74.85764	-4.06835	-77.29865	42.31084	36.61515	-30.91946	39.86983	-33.36047	4.06835	0	-4.88202	0
35	82.99434	77.29865	-6.50936	-79.73966	44.75185	36.61515	-33.36047	37.42882	-35.80148	1.62734	0	-4.88202	0
36	92.75838	82.18067	-11.39138	-87.06269	52.07488	36.61515	-33.36047	32.5468	-35.80148	4.06835	2.44101	-1.62734	0
37	95.19939	87.06269	-8.95037	-91.94471	52.07488	39.05616	-33.36047	22.78276	-35.80148	4.06835	2.44101	-1.62734	0
38	90.31737	77.29865	-13.83239	-84.62168	52.07488	31.73313	-35.80148	15.45973	-35.80148	1.62734	2.44101	-1.62734	0
39	82.99434	67.53461	-16.2734	-74.85764	49.63387	26.85111	-38.24249	5.69569	-38.24249	-0.81367	2.44101	-1.62734	0
40	75.67131	57.77057	-18.71441	-67.53461	47.19286	19.52808	-40.6835	-1.62734	-38.24249	-3.25468	0	-4.88202	0
41	65.90727	43.12451	-23.59643	-55.32956	44.75185	9.76404	-48.00653	-11.39138	-43.12451	-10.57771	-4.88202	-7.32303	0
42	53.70222	26.03744	-28.47845	-40.6835	42.31084	-0.81367	-55.32956	-21.96909	-50.44754	-17.90074	-9.76404	-14.64606	0
43	48.8202	11.39138	-38.24249	-30.91946	44.75185	-13.01872	-60.21158	-31.73313	-50.44754	-20.34175	-12.20505	-19.52808	0
44	48.8202	6.50936	-43.12451	-28.47845	47.19286	-17.90074	-62.65259	-34.17414	-50.44754	-17.90074	-12.20505	-19.52808	0
45	56.14323	11.39138	-45.56552	-33.36047	52.07488	-17.90074	-57.77057	-34.17414	-45.56552	-15.45973	-4.88202	-14.64606	0
46	61.02525	11.39138	-50.44754	-35.80148	56.9569	-20.34175	-52.88855	-31.73313	-40.6835	-10.57771	0	-12.20505	0
47	61.02525	8.95037	-52.88855	-35.80148	56.9569	-22.78276	-48.00653	-34.17414	-38.24249	-5.69569	2.44101	-7.32303	0
48	61.02525	6.50936	-55.32956	-33.36047	59.39791	-25.22377	-43.12451	-34.17414	-35.80148	-0.81367	8.1367	-4.88202	0
49	56.14323	4.06835	-52.88855	-30.91946	54.51589	-25.22377	-38.24249	-31.73313	-33.36047	4.06835	13.01872	-1.62734	0
50	51.26121	-3.25468	-55.32956	-23.59643	54.51589	-30.10579	-30.91946	-29.29212	-30.91946	6.50936	20.34175	3.25468	0
51	34.17414	-18.71441	-52.88855	-8.95037	42.31084	-34.98781	-30.91946	-31.73313	-33.36047	6.50936	20.34175	0.81367	0
52	19.52808	-33.36047	-52.88855	5.69569	34.98781	-42.31084	-33.36047	-39.05616	-35.80148	4.06835	17.90074	-4.88202	0
53	4.88202	-48.00653	-52.88855	21.15542	27.66478	-49.63387	-35.80148	-48.8202	-38.24249	1.62734	15.45973	-4.88202	0
54	-4.88202	-57.77057	-52.88855	30.91946	22.78276	-54.51589	-33.36047	-53.70222	-38.24249	1.62734	15.45973	-4.88202	0
55	-12.20505	-65.0936	-52.88855	38.24249	20.34175	-59.39791	-28.47845	-53.70222	-35.80148	1.62734	15.45973	-4.88202	0
56	-21.96909	-74.85764	-52.88855	48.00653	15.45973	-64.27993	-28.47845	-56.14323	-33.36047	4.06835	15.45973	-4.88202	0
57	-27.66478	-77.29865	-50.44754	50.44754	10.57771	-64.27993	-23.59643	-58.58424	-28.47845	4.06835	15.45973	-4.88202	0
58	-27.66478	-77.29865	-50.44754	50.44754	10.57771	-64.27993	-21.15542	-58.58424	-26.03744	4.06835	15.45973	-4.88202	0
59	-37.42882	-87.06269	-50.44754	60.21158	5.69569	-69.16195	-21.15542	-56.14323	-26.03744	4.06835	13.01872	-4.88202	0
60	-42.31084	-94.38572	-52.88855	67.53461	5.69569	-74.04397	-18.71441	-51.26121	-23.59643	6.50936	13.01872	-4.88202	0
61	-47.19286	-99.26774	-52.88855	72.41663	3.25468	-76.48498	-18.71441	-46.37919	-21.15542	6.50936	13.01872	-4.88202	0
62	-44.75185	-101.70875	-57.77057	72.41663	5.69569	-81.367	-16.2734	-46.37919	-21.15542	6.50936	13.01872	-4.88202	0
63	-37.42882	-94.38572	-57.77057	65.0936	10.57771	-76.48498	-16.2734	-43.93818	-18.71441	12.20505	17.90074	-1.62734	0
64	-34.98781	-94.38572	-60.21158	62.65259	13.01872	-78.92599	-13.83239	-43.93818	-16.2734	14.64606	20.34175	0.81367	0
65	-30.10579	-94.38572	-65.0936	60.21158	17.90074	-81.367	-13.83239	-43.93818	-13.83239	14.64606	22.78276	3.25468	0
66	-24.4101	-87.06269	-62.65259	55.32956	17.90074	-74.04397	-8.95037	-46.37919	-8.95037	19.52808	27.66478	8.1367	0
67	-21.96909	-84.62168	-62.65259	52.88855	20.34175	-74.04397	-8.95037	-51.26121	-6.50936	21.96909	32.5468	10.57771	0
68	-19.52808	-84.62168	-65.0936	50.44754	22.78276	-74.04397	-8.95037	-53.70222	-4.06835	21.96909	34.98781	10.57771	0
69	-30.10579	-91.94471	-62.65259	60.21158	15.45973	-78.92599	-8.95037	-56.14323	-4.06835	19.52808	34.98781	8.1367	0
70	-44.75185	-104.14976	-60.21158	72.41663	8.1367	-83.80801	-11.39138	-58.58424	-6.50936	19.52808	32.5468	5.69569	0
71	-54.51589	-113.9138	-60.21158	82.18067	3.25468	-88.69003	-13.83239	-58.58424	-6.50936	19.52808	32.5468	5.69569	0
72	-59.39791	-121.23683	-62.65259	89.5037	0.81367	-93.57205	-13.83239	-58.58424	-4.06835	19.52808	32.5468	5.69569	0
73	-59.39791	-121.23683	-62.65259	89.5037	0.81367	-93.57205	-11.39138	-58.58424	-1.62734	24.4101	32.5468	8.1367	0
74	-56.9569	-116.35481	-60.21158	84.62168	0.81367	-88.69003	-8.95037	-58.58424	-1.62734	26.85111	34.98781	10.57771	0
75	-52.07488	-111.47279	-60.21158	79.73966	3.25468	-86.24902	-6.50936	-58.58424	3.25468	29.29212	34.98781	10.57771	0
76	-47.19286	-111.47279	-65.0936	77.29865	8.1367	-88.69003	-4.06835	-58.58424	3.25468	31.73313	37.42882	13.01872	0
77	-47.19286	-111.47279	-65.0936	77.29865	8.1367	-88.69003	-1.62734	-61.02525	5.69569	34.17414	37.42882	15.45973	0
78	-42.31084	-109.03178	-67.53461	74.85764	13.01872	-88.69003	-1.62734	-61.02525	5.69569	34.17414	37.42882	15.45973	0
79	-47.19286	-109.03178	-62.65259	77.29865	8.1367	-86.24902	0.81367	-61.02525	5.69569	31.73313	37.42882	15.45973	0
80	-49.63387	-109.03178	-60.21158	77.29865	5.69569	-86.24902	0.81367	-56.14323	5.69569	34.17414	39.86983	17.90074	0
81	-52.07488	-111.47279	-60.21158	79.73966	3.25468	-86.24902	0.81367	-53.70222	5.69569	34.17414	39.86983	17.90074	0
82	-54.51589	-113.9138	-60.21158	82.18067	3.25468	-88.69003	-1.62734	-53.70222	3.25468	31.73313	37.42882	17.90074	0
83	-54.51589	-113.9138	-60.21158	82.18067	3.25468	-88.69003	-1.62734	-53.70222	5.69569	31.73313	37.42882	20.34175	0
84	-49.63387	-109.03178	-60.21158	77.29865	5.69569	-86.24902	0.81367	-51.26121	5.69569	34.17414	42.31084	25.22377	0
85	-39.86983	-101.70875	-62.65259	69.97562	10.57771	-83.80801	0.81367	-48.8202	8.95037	34.17414	42.31084	25.22377	0
86	-37.42882	-101.70875	-65.0936	67.53461	13.01872	-83.80801	0.81367	-51.26121	8.95037	31.73313	39.86983	25.22377	0
87	-37.42882	-104.14976	-67.53461	69.97562	15.45973	-86.24902	0.81367	-56.14323	8.95037	29.29212	39.86983	25.22377	0
88	-37.42882	-106.59077	-69.97562	69.97562	15.45973	-88.69003	4.06835	-56.14323	8.95037	29.29212	39.86983	25.22377	0
89	-42.31084	-106.59077	-65.0936	72.41663	10.57771	-86.24902	4.06835	-53.70222	8.95037	26.85111	37.42882	25.22377	0
90	-44.75185	-109.03178	-65.0936	74.85764	10.57771	-88.69003	4.06835	-51.26121	8.95037	26.85111	37.42882	27.66478	0
91	-52.07488	-111.47279	-60.21158	79.73966	3.25468	-86.24902	0.81367	-51.26121	8.95037	24.4101	37.42882	27.66478	0
92	-52.07488	-113.9138	-62.65259	82.18067	5.69569	-88.69003	0.81367	-51.26121	8.95037	21.96909	37.42882	30.10579	0
93	-54.51589	-113.9138	-60.21158	82.18067	3.25468	-88.69003	4.06835	-48.8202	11.39138	24.4101	37.42882	32.5468	0
94	-52.07488	-116.35481	-65.0936	82.18067	5.69569	-91.13104	6.50936	-46.37919	16.2734	24.4101	39.86983	34.98781	0
95	-47.19286	-116.35481	-69.97562	79.73966	10.57771	-93.57205	11.39138	-43.93818	18.71441	24.4101	39.86983	34.98781	0
96	-44.75185	-121.23683	-77.29865	82.18067	15.45973	-100.89508	16.2734	-41.49717	21.15542	26.85111	39.86983	34.98781	0
97	-37.42882	-123.67784	-87.06269	79.73966	25.22377	-105.7771	26.03744	-34.17414	28.47845	26.85111	39.86983	32.5468	0
98	-37.42882	-133.44188	-96.82673	84.62168	30.10579	-115.54114	38.24249	-19.52808	30.91946	29.29212	37.42882	30.10579	0
99	-34.98781	-138.3239	-104.14976	84.62168	34.98781	-122.86417	52.88855	13.01872	38.24249	29.29212	37.42882	27.66478	0
100	-34.98781	-145.64693	-111.47279	89.5037	37.42882	-130.1872	72.41663	54.51589	45.56552	31.73313	34.98781	25.22377	1000	P+0
101	-34.98781	-155.41097	-121.23683	94.38572	42.31084	-139.95124	89.5037	108.21811	52.88855	31.73313	34.98781	22.78276	0
102	-27.66478	-162.734	-135.88289	94.38572	54.51589	-149.71528	109.03178	169.24336	57.77057	34.17414	30.10579	17.90074	0
103	-12.20505	-170.05703	-157.85198	89.5037	71.60296	-164.36134	128.55986	240.03265	65.0936	31.73313	27.66478	10.57771	0
104	4.88202	-177.38006	-182.26208	84.62168	93.57205	-179.0074	148.08794	323.02699	67.53461	29.29212	20.34175	0.81367	0
105	34.17414	-179.82107	-213.99521	72.41663	122.86417	-196.09447	167.61602	423.1084	69.97562	21.96909	8.1367	-9.76404	0
106	78.11232	-179.82107	-257.93339	50.44754	166.80235	-218.06356	192.02612	537.83587	72.41663	17.08707	0	-24.4101	0
107	129.37353	-170.05703	-299.43056	18.71441	213.18154	-235.15063	216.43622	662.32738	74.85764	9.76404	-12.20505	-43.93818	0
108	197.72181	-145.64693	-343.36874	-26.03744	269.32477	-244.91467	243.28733	801.46495	77.29865	4.06835	-24.4101	-58.58424	0
109	280.71615	-109.03178	-389.74793	-87.06269	335.23204	-249.79669	270.13844	950.36656	79.73966	-3.25468	-41.49717	-75.67131	0
110	373.47453	-55.32956	-428.80409	-160.29299	401.13931	-242.47366	289.66652	1109.03221	79.73966	-8.1367	-56.14323	-95.19939	0
111	485.76099	11.39138	-475.18328	-248.16935	481.69264	-232.70962	304.31258	1260.37483	77.29865	-15.45973	-75.67131	-114.72747	0
112	610.2525	89.5037	-521.56247	-350.69177	567.12799	-215.62255	301.87157	1387.30735	65.0936	-30.10579	-100.08141	-139.13757	0
113	751.83108	174.93905	-577.7057	-462.97823	664.76839	-200.97649	267.69743	1492.27078	33.36047	-54.51589	-131.81454	-168.42969	0
114	893.40966	262.81541	-631.40792	-577.7057	762.40879	-183.88942	196.90814	1538.64997	-13.83239	-93.57205	-175.75272	-207.48585	0
115	1022.78319	348.25076	-675.3461	-685.11014	850.28515	-164.36134	99.26774	1514.23987	-74.85764	-137.51023	-217.24989	-241.65999	0
116	1117.98258	426.36308	-692.43317	-772.9865	906.42838	-132.62821	-6.50936	1416.59947	-133.44188	-174.12538	-248.98302	-261.18807	0
117	1169.24379	484.94732	-685.11014	-826.68872	928.39747	-100.89508	-121.23683	1248.16978	-192.02612	-210.74053	-270.95211	-273.39312	0
118	1157.03874	506.91641	-650.936	-831.57074	903.98737	-71.60296	-238.40531	1028.47888	-248.16935	-242.47366	-285.59817	-273.39312	0
119	1083.80844	497.15237	-587.46974	-790.07357	835.63909	-44.75185	-340.92773	767.29081	-287.22551	-259.56073	-280.71615	-256.30605	0
120	956.87592	467.86025	-489.82934	-711.96125	723.35263	-10.57771	-411.71702	481.69264	-299.43056	-254.67871	-253.86504	-219.6909	0
121	783.56421	419.04005	-365.33783	-602.1158	574.45102	26.85111	-450.77318	176.56639	-292.10753	-230.26861	-209.92686	-165.98868	0
122	588.28341	358.0148	-231.08228	-472.74227	410.90335	63.46626	-475.18328	-114.72747	-272.57945	-198.53548	-156.22464	-107.40444	0
123	388.12059	282.34349	-106.59077	-336.04571	247.35568	87.87636	-484.94732	-371.03352	-250.61036	-166.80235	-107.40444	-53.70222	0
124	202.60383	216.43622	13.01872	-209.11319	96.01306	114.72747	-475.18328	-578.51937	-218.87723	-125.30518	-51.26121	3.25468	0
125	48.8202	165.17501	116.35481	-106.59077	-34.17414	141.57858	-458.09621	-749.39007	-189.58511	-91.13104	-4.88202	52.07488	0
126	-74.04397	121.23683	194.46713	-23.59643	-134.25555	156.22464	-443.45015	-876.32259	-165.17501	-61.83892	32.5468	91.13104	0
127	-164.36134	84.62168	248.16935	38.24249	-205.04484	165.98868	-423.92207	-944.67087	-145.64693	-42.31084	56.9569	117.98215	0
128	-222.94558	57.77057	279.90248	82.18067	-251.42403	168.42969	-397.07096	-944.67087	-131.00087	-30.10579	69.16195	130.1872	0
129	-254.67871	40.6835	294.54854	106.59077	-273.39312	165.98868	-360.45581	-900.73269	-116.35481	-20.34175	74.04397	132.62821	0
130	-254.67871	38.24249	292.10753	106.59077	-273.39312	163.54767	-326.28167	-827.50239	-101.70875	-13.01872	76.48498	135.06922	0
131	-235.15063	48.00653	282.34349	91.94471	-258.74706	163.54767	-292.10753	-739.62603	-91.94471	-8.1367	76.48498	130.1872	0
132	-215.62255	60.21158	275.02046	77.29865	-244.101	165.98868	-253.05137	-649.30866	-79.73966	-0.81367	74.04397	125.30518	0
133	-196.09447	74.85764	270.13844	60.21158	-231.89595	170.8707	-211.5542	-556.55028	-62.65259	6.50936	74.04397	122.86417	0
134	-174.12538	87.06269	260.3744	43.12451	-217.24989	173.31171	-174.93905	-471.11493	-48.00653	14.64606	76.48498	122.86417	0
135	-157.03831	91.94471	248.16935	30.91946	-202.60383	168.42969	-143.20592	-400.32564	-35.80148	24.4101	76.48498	122.86417	0
136	-147.27427	89.5037	235.9643	28.47845	-190.39878	161.10666	-116.35481	-351.50544	-21.15542	34.17414	78.92599	122.86417	0
137	-149.71528	79.73966	228.64127	33.36047	-187.95777	153.78363	-94.38572	-319.77231	-8.95037	39.05616	81.367	122.86417	0
138	-161.92033	60.21158	221.31824	50.44754	-190.39878	139.13757	-79.73966	-295.36221	3.25468	43.93818	81.367	120.42316	0
139	-166.80235	50.44754	216.43622	57.77057	-190.39878	131.81454	-65.0936	-273.39312	11.39138	46.37919	81.367	120.42316	0
140	-166.80235	45.56552	211.5542	60.21158	-187.95777	126.93252	-52.88855	-251.42403	18.71441	51.26121	83.80801	117.98215	0
141	-166.80235	38.24249	204.23117	62.65259	-185.51676	119.60949	-43.12451	-229.45494	26.03744	53.70222	83.80801	117.98215	0
142	-164.36134	35.80148	199.34915	62.65259	-180.63474	117.16848	-38.24249	-217.24989	26.03744	53.70222	81.367	115.54114	0
143	-164.36134	26.03744	189.58511	67.53461	-175.75272	107.40444	-33.36047	-205.04484	26.03744	53.70222	81.367	113.10013	0
144	-161.92033	23.59643	184.70309	67.53461	-173.31171	102.52242	-28.47845	-195.2808	26.03744	53.70222	81.367	113.10013	0
145	-157.03831	26.03744	182.26208	65.0936	-168.42969	102.52242	-23.59643	-187.95777	23.59643	56.14323	81.367	113.10013	0
146	-154.5973	21.15542	174.93905	65.0936	-163.54767	97.6404	-23.59643	-187.95777	21.15542	56.14323	78.92599	113.10013	0
147	-159.47932	13.83239	172.49804	72.41663	-165.98868	92.75838	-23.59643	-190.39878	18.71441	53.70222	76.48498	110.65912	0
148	-161.92033	11.39138	172.49804	74.85764	-165.98868	90.31737	-23.59643	-190.39878	16.2734	51.26121	74.04397	110.65912	0
149	-169.24336	8.95037	177.38006	79.73966	-173.31171	92.75838	-21.15542	-187.95777	13.83239	51.26121	69.16195	105.7771	0
150	-171.68437	13.83239	184.70309	77.29865	-178.19373	97.6404	-21.15542	-183.07575	13.83239	51.26121	69.16195	105.7771	0
151	-169.24336	13.83239	182.26208	77.29865	-175.75272	97.6404	-21.15542	-178.19373	13.83239	48.8202	66.72094	105.7771	0
152	-166.80235	13.83239	179.82107	74.85764	-173.31171	95.19939	-21.15542	-175.75272	13.83239	48.8202	64.27993	105.7771	0
153	-166.80235	13.83239	179.82107	74.85764	-173.31171	95.19939	-18.71441	-168.42969	18.71441	48.8202	66.72094	108.21811	0
154	-166.80235	13.83239	179.82107	74.85764	-173.31171	95.19939	-13.83239	-163.54767	21.15542	51.26121	69.16195	108.21811	0
155	-161.92033	13.83239	174.93905	72.41663	-168.42969	92.75838	-13.83239	-161.10666	23.59643	51.26121	69.16195	110.65912	0
156	-152.15629	13.83239	165.17501	67.53461	-158.66565	87.87636	-11.39138	-158.66565	26.03744	53.70222	69.16195	113.10013	0
157	-152.15629	11.39138	162.734	69.97562	-156.22464	85.43535	-8.95037	-161.10666	26.03744	53.70222	69.16195	113.10013	0
158	-154.5973	8.95037	162.734	72.41663	-158.66565	85.43535	-8.95037	-161.10666	26.03744	51.26121	66.72094	113.10013	0
159	-159.47932	6.50936	165.17501	74.85764	-161.10666	85.43535	-8.95037	-158.66565	23.59643	48.8202	64.27993	110.65912	0
160	-159.47932	6.50936	165.17501	74.85764	-161.10666	85.43535	-11.39138	-156.22464	23.59643	46.37919	64.27993	110.65912	0
161	-157.03831	8.95037	165.17501	72.41663	-161.10666	85.43535	-13.83239	-148.90161	21.15542	43.93818	61.83892	108.21811	0
162	-154.5973	8.95037	162.734	72.41663	-158.66565	85.43535	-16.2734	-148.90161	23.59643	43.93818	64.27993	108.21811	0
163	-157.03831	8.95037	165.17501	72.41663	-161.10666	85.43535	-16.2734	-148.90161	23.59643	41.49717	61.83892	105.7771	0
164	-152.15629	16.2734	167.61602	67.53461	-158.66565	90.31737	-16.2734	-144.01959	23.59643	43.93818	64.27993	108.21811	0
165	-144.83326	21.15542	165.17501	60.21158	-153.78363	92.75838	-13.83239	-141.57858	26.03744	46.37919	66.72094	110.65912	0
166	-139.95124	26.03744	165.17501	55.32956	-151.34262	95.19939	-11.39138	-141.57858	28.47845	46.37919	69.16195	113.10013	0
167	-139.95124	26.03744	165.17501	55.32956	-151.34262	95.19939	-11.39138	-144.01959	28.47845	48.8202	69.16195	113.10013	0
168	-139.95124	28.47845	167.61602	55.32956	-153.78363	97.6404	-8.95037	-144.01959	28.47845	48.8202	69.16195	113.10013	0
169	-144.83326	30.91946	174.93905	55.32956	-158.66565	102.52242	-6.50936	-141.57858	30.91946	51.26121	69.16195	117.98215	0
170	-137.51023	38.24249	174.93905	48.00653	-156.22464	104.96343	-4.06835	-134.25555	33.36047	56.14323	74.04397	120.42316	0
171	-135.06922	40.6835	174.93905	45.56552	-153.78363	107.40444	-6.50936	-134.25555	33.36047	53.70222	74.04397	117.98215	0
172	-137.51023	40.6835	177.38006	48.00653	-156.22464	107.40444	-8.95037	-136.69656	30.91946	51.26121	69.16195	115.54114	0
173	-137.51023	40.6835	177.38006	48.00653	-156.22464	107.40444	-8.95037	-136.69656	30.91946	51.26121	69.16195	115.54114	0
174	-132.62821	43.12451	174.93905	43.12451	-153.78363	107.40444	-8.95037	-136.69656	33.36047	53.70222	71.60296	115.54114	0
175	-125.30518	45.56552	170.05703	38.24249	-146.4606	107.40444	-8.95037	-136.69656	30.91946	51.26121	69.16195	115.54114	0
176	-125.30518	45.56552	170.05703	38.24249	-146.4606	107.40444	-8.95037	-141.57858	26.03744	48.8202	64.27993	113.10013	0
177	-135.06922	40.6835	174.93905	45.56552	-153.78363	107.40444	-11.39138	-148.90161	23.59643	46.37919	61.83892	110.65912	0
178	-137.51023	40.6835	177.38006	48.00653	-156.22464	107.40444	-11.39138	-148.90161	23.59643	46.37919	61.83892	110.65912	0
179	-139.95124	45.56552	184.70309	45.56552	-161.10666	114.72747	-8.95037	-146.4606	26.03744	48.8202	61.83892	113.10013	0
180	-139.95124	50.44754	189.58511	43.12451	-163.54767	119.60949	-8.95037	-141.57858	26.03744	48.8202	61.83892	113.10013	0
181	-142.39225	50.44754	192.02612	45.56552	-165.98868	119.60949	-11.39138	-139.13757	23.59643	46.37919	59.39791	110.65912	0
182	-142.39225	52.88855	194.46713	43.12451	-168.42969	122.0505	-11.39138	-136.69656	23.59643	48.8202	59.39791	110.65912	0
183	-142.39225	48.00653	189.58511	45.56552	-165.98868	117.16848	-8.95037	-134.25555	26.03744	48.8202	61.83892	113.10013	0
184	-137.51023	48.00653	184.70309	43.12451	-161.10666	114.72747	-8.95037	-134.25555	26.03744	51.26121	61.83892	113.10013	0
185	-137.51023	48.00653	184.70309	43.12451	-161.10666	114.72747	-6.50936	-134.25555	26.03744	51.26121	61.83892	113.10013	0
186	-127.74619	52.88855	179.82107	35.80148	-153.78363	114.72747	-6.50936	-131.81454	26.03744	51.26121	64.27993	113.10013	0
187	-125.30518	52.88855	177.38006	35.80148	-151.34262	114.72747	-6.50936	-134.25555	26.03744	51.26121	64.27993	113.10013	0
188	-125.30518	50.44754	174.93905	35.80148	-148.90161	112.28646	-6.50936	-134.25555	28.47845	48.8202	64.27993	113.10013	0
189	-127.74619	52.88855	179.82107	35.80148	-153.78363	114.72747	-6.50936	-131.81454	30.91946	48.8202	64.27993	110.65912	0
190	-125.30518	57.77057	182.26208	33.36047	-153.78363	119.60949	-4.06835	-126.93252	33.36047	48.8202	64.27993	108.21811	0
191	-130.1872	57.77057	187.1441	35.80148	-158.66565	122.0505	-8.95037	-122.0505	30.91946	46.37919	61.83892	103.33609	0
192	-132.62821	52.88855	184.70309	38.24249	-158.66565	117.16848	-11.39138	-122.0505	30.91946	43.93818	59.39791	100.89508	0
193	-137.51023	45.56552	182.26208	45.56552	-158.66565	112.28646	-11.39138	-119.60949	28.47845	41.49717	59.39791	98.45407	0
194	-135.06922	45.56552	179.82107	43.12451	-156.22464	112.28646	-11.39138	-114.72747	28.47845	41.49717	59.39791	98.45407	0
195	-137.51023	38.24249	174.93905	48.00653	-156.22464	104.96343	-11.39138	-112.28646	26.03744	39.05616	56.9569	96.01306	0
196	-135.06922	38.24249	172.49804	48.00653	-153.78363	104.96343	-11.39138	-109.84545	21.15542	39.05616	54.51589	96.01306	0
197	-130.1872	40.6835	170.05703	43.12451	-148.90161	104.96343	-8.95037	-107.40444	21.15542	39.05616	54.51589	96.01306	0
198	-127.74619	40.6835	167.61602	43.12451	-146.4606	102.52242	-8.95037	-102.52242	18.71441	39.05616	54.51589	96.01306	0
199	-127.74619	40.6835	167.61602	43.12451	-146.4606	102.52242	-8.95037	-100.08141	16.2734	36.61515	54.51589	93.57205	0
200	-125.30518	43.12451	167.61602	40.6835	-146.4606	104.96343	-8.95037	-90.31737	13.83239	36.61515	52.07488	93.57205	0
201	-115.54114	48.00653	162.734	33.36047	-139.13757	104.96343	-8.95037	-82.99434	13.83239	36.61515	52.07488	93.57205	0
202	-110.65912	50.44754	160.29299	28.47845	-134.25555	104.96343	-8.95037	-78.11232	11.39138	36.61515	52.07488	93.57205	0
203	-105.7771	50.44754	155.41097	26.03744	-129.37353	102.52242	-8.95037	-73.2303	8.95037	34.17414	52.07488	91.13104	0
204	-100.89508	50.44754	150.52895	23.59643	-124.49151	100.08141	-8.95037	-70.78929	8.95037	34.17414	49.63387	88.69003	0
205	-93.57205	55.32956	148.08794	18.71441	-119.60949	100.08141	-8.95037	-65.90727	8.95037	31.73313	47.19286	86.24902	0
206	-91.13104	52.88855	143.20592	18.71441	-117.16848	97.6404	-8.95037	-65.90727	5.69569	26.85111	44.75185	81.367	0
207	-93.57205	50.44754	143.20592	21.15542	-117.16848	95.19939	-11.39138	-65.90727	5.69569	24.4101	39.86983	76.48498	0
208	-93.57205	50.44754	143.20592	21.15542	-117.16848	95.19939	-11.39138	-65.90727	3.25468	21.96909	37.42882	74.04397	0
209	-91.13104	50.44754	140.76491	18.71441	-114.72747	95.19939	-11.39138	-61.02525	0.81367	19.52808	37.42882	69.16195	0
210	-93.57205	43.12451	135.88289	23.59643	-114.72747	87.87636	-16.2734	-53.70222	-1.62734	14.64606	32.5468	64.27993	0
211	-93.57205	38.24249	131.00087	26.03744	-112.28646	82.99434	-18.71441	-48.8202	-6.50936	12.20505	32.5468	61.83892	0
212	-91.13104	33.36047	123.67784	28.47845	-107.40444	78.11232	-21.15542	-43.93818	-8.95037	9.76404	27.66478	56.9569	0
213	-83.80801	33.36047	116.35481	23.59643	-100.08141	73.2303	-21.15542	-36.61515	-11.39138	6.50936	27.66478	52.07488	0
214	-78.92599	30.91946	109.03178	23.59643	-92.75838	68.34828	-23.59643	-31.73313	-16.2734	4.06835	22.78276	47.19286	0
215	-69.16195	33.36047	101.70875	15.45973	-85.43535	65.90727	-23.59643	-24.4101	-16.2734	4.06835	20.34175	44.75185	0
216	-54.51589	33.36047	87.06269	10.57771	-70.78929	58.58424	-21.15542	-19.52808	-18.71441	4.06835	17.90074	42.31084	0
217	-44.75185	38.24249	82.18067	3.25468	-63.46626	58.58424	-18.71441	-19.52808	-18.71441	4.06835	15.45973	42.31084	0
218	-32.5468	40.6835	72.41663	-4.06835	-51.26121	56.14323	-16.2734	-13.83239	-18.71441	1.62734	13.01872	42.31084	0
219	-27.66478	40.6835	67.53461	-6.50936	-46.37919	53.70222	-16.2734	-8.95037	-18.71441	-0.81367	8.1367	39.86983	0
220	-21.96909	40.6835	62.65259	-8.95037	-41.49717	51.26121	-21.15542	-1.62734	-23.59643	-3.25468	2.44101	34.98781	0
221	-17.08707	33.36047	50.44754	-8.95037	-34.17414	41.49717	-23.59643	5.69569	-26.03744	-5.69569	-2.44101	32.5468	0
222	-17.08707	18.71441	35.80148	-1.62734	-26.85111	26.85111	-30.91946	5.69569	-33.36047	-13.01872	-9.76404	25.22377	0
223	-19.52808	4.06835	23.59643	8.1367	-21.15542	14.64606	-35.80148	5.69569	-38.24249	-20.34175	-17.08707	17.90074	0
224	-21.96909	-11.39138	10.57771	15.45973	-16.2734	-0.81367	-40.6835	5.69569	-45.56552	-25.22377	-21.96909	10.57771	0
225	-17.08707	-21.15542	-4.06835	18.71441	-6.50936	-13.01872	-43.12451	5.69569	-50.44754	-32.5468	-26.85111	5.69569	0
226	-4.88202	-23.59643	-18.71441	13.01872	5.69569	-20.34175	-43.12451	5.69569	-52.88855	-32.5468	-29.29212	5.69569	0
227	4.88202	-23.59643	-28.47845	8.1367	15.45973	-25.22377	-43.12451	5.69569	-52.88855	-34.98781	-29.29212	3.25468	0
228	12.20505	-23.59643	-35.80148	5.69569	22.78276	-30.10579	-43.12451	8.1367	-55.32956	-37.42882	-31.73313	0.81367	0
229	17.08707	-28.47845	-45.56552	5.69569	30.10579	-37.42882	-43.12451	10.57771	-55.32956	-39.86983	-31.73313	-1.62734	0
230	21.96909	-28.47845	-50.44754	3.25468	34.98781	-39.86983	-43.12451	15.45973	-57.77057	-39.86983	-34.17414	-4.88202	0
231	26.85111	-28.47845	-55.32956	0.81367	39.86983	-42.31084	-43.12451	20.34175	-57.77057	-42.31084	-36.61515	-4.88202	0
232	26.85111	-35.80148	-62.65259	3.25468	44.75185	-49.63387	-45.56552	20.34175	-60.21158	-47.19286	-39.05616	-9.76404	0
233	29.29212	-40.6835	-69.97562	5.69569	49.63387	-54.51589	-48.00653	20.34175	-62.65259	-49.63387	-43.93818	-14.64606	0
234	31.73313	-48.00653	-79.73966	8.1367	54.51589	-64.27993	-48.00653	17.90074	-65.0936	-54.51589	-48.8202	-19.52808	0
235	31.73313	-52.88855	-84.62168	10.57771	56.9569	-69.16195	-50.44754	17.90074	-65.0936	-56.9569	-51.26121	-21.96909	0
236	39.05616	-52.88855	-91.94471	5.69569	64.27993	-71.60296	-48.00653	15.45973	-67.53461	-59.39791	-53.70222	-24.4101	0
237	41.49717	-52.88855	-94.38572	5.69569	66.72094	-74.04397	-48.00653	8.1367	-67.53461	-59.39791	-56.14323	-24.4101	0
238	43.93818	-55.32956	-99.26774	5.69569	71.60296	-76.48498	-45.56552	8.1367	-67.53461	-59.39791	-58.58424	-24.4101	0
239	41.49717	-62.65259	-104.14976	10.57771	71.60296	-83.80801	-45.56552	8.1367	-69.97562	-59.39791	-58.58424	-24.4101	0
240	34.17414	-69.97562	-104.14976	15.45973	69.16195	-86.24902	-45.56552	8.1367	-72.41663	-59.39791	-58.58424	-26.85111	0
241	29.29212	-77.29865	-106.59077	23.59643	66.72094	-91.13104	-45.56552	10.57771	-72.41663	-61.83892	-61.02525	-29.29212	0
242	31.73313	-77.29865	-109.03178	21.15542	69.16195	-93.57205	-45.56552	10.57771	-72.41663	-61.83892	-58.58424	-29.29212	0
243	29.29212	-79.73966	-109.03178	23.59643	69.16195	-93.57205	-45.56552	10.57771	-72.41663	-61.83892	-61.02525	-31.73313	0
244	24.4101	-84.62168	-109.03178	28.47845	66.72094	-96.01306	-45.56552	10.57771	-72.41663	-64.27993	-61.02525	-34.17414	0
245	24.4101	-87.06269	-111.47279	30.91946	66.72094	-98.45407	-43.12451	8.1367	-72.41663	-64.27993	-61.02525	-34.17414	0
246	24.4101	-89.5037	-113.9138	30.91946	69.16195	-100.89508	-38.24249	10.57771	-67.53461	-64.27993	-61.02525	-34.17414	0
247	24.4101	-87.06269	-111.47279	30.91946	66.72094	-98.45407	-35.80148	8.1367	-65.0936	-61.83892	-61.02525	-34.17414	0
248	17.08707	-87.06269	-104.14976	33.36047	59.39791	-96.01306	-30.91946	8.1367	-65.0936	-61.83892	-61.02525	-36.61515	0
249	17.08707	-82.18067	-99.26774	30.91946	56.9569	-91.13104	-26.03744	15.45973	-57.77057	-56.9569	-56.14323	-34.17414	0
250	17.08707	-72.41663	-89.5037	26.03744	52.07488	-81.367	-21.15542	20.34175	-50.44754	-52.07488	-51.26121	-31.73313	0
251	19.52808	-62.65259	-82.18067	21.15542	49.63387	-71.60296	-13.83239	32.5468	-43.12451	-47.19286	-46.37919	-29.29212	0
252	17.08707	-60.21158	-77.29865	21.15542	47.19286	-69.16195	-11.39138	34.98781	-38.24249	-42.31084	-43.93818	-26.85111	0
253	17.08707	-57.77057	-74.85764	18.71441	44.75185	-66.72094	-6.50936	39.86983	-33.36047	-39.86983	-41.49717	-24.4101	0
254	17.08707	-55.32956	-72.41663	18.71441	44.75185	-64.27993	-1.62734	44.75185	-28.47845	-32.5468	-34.17414	-21.96909	0
255	17.08707	-52.88855	-69.97562	15.45973	42.31084	-61.83892	0.81367	49.63387	-23.59643	-27.66478	-31.73313	-17.08707	0
256	12.20505	-55.32956	-67.53461	21.15542	39.86983	-61.83892	4.06835	49.63387	-23.59643	-25.22377	-31.73313	-14.64606	0
257	4.88202	-62.65259	-67.53461	28.47845	34.98781	-64.27993	4.06835	44.75185	-26.03744	-25.22377	-31.73313	-14.64606	0
258	0	-60.21158	-60.21158	28.47845	30.10579	-59.39791	4.06835	44.75185	-26.03744	-22.78276	-29.29212	-12.20505	0
259	-2.44101	-52.88855	-50.44754	26.03744	22.78276	-52.07488	4.06835	49.63387	-23.59643	-17.90074	-26.85111	-7.32303	0
260	-4.88202	-43.12451	-38.24249	23.59643	15.45973	-39.86983	6.50936	54.51589	-23.59643	-13.01872	-21.96909	-4.88202	0
261	-9.76404	-40.6835	-30.91946	23.59643	10.57771	-34.98781	6.50936	56.9569	-23.59643	-10.57771	-21.96909	-4.88202	0
262	-9.76404	-38.24249	-28.47845	23.59643	8.1367	-32.5468	6.50936	59.39791	-23.59643	-8.1367	-21.96909	-1.62734	0
263	-2.44101	-30.91946	-28.47845	15.45973	13.01872	-30.10579	8.95037	61.83892	-21.15542	-5.69569	-17.08707	0.81367	0
264	-2.44101	-28.47845	-26.03744	15.45973	10.57771	-27.66478	8.95037	61.83892	-21.15542	-5.69569	-17.08707	0.81367	0
265	-4.88202	-35.80148	-30.91946	18.71441	13.01872	-32.5468	8.95037	56.9569	-18.71441	-5.69569	-17.08707	0.81367	0
266	-4.88202	-40.6835	-35.80148	21.15542	15.45973	-37.42882	8.95037	54.51589	-16.2734	-5.69569	-17.08707	3.25468	0
267	-2.44101	-35.80148	-33.36047	18.71441	15.45973	-34.98781	13.83239	49.63387	-8.95037	-3.25468	-12.20505	5.69569	0
268	2.44101	-26.03744	-28.47845	10.57771	15.45973	-27.66478	18.71441	49.63387	-1.62734	1.62734	-9.76404	8.1367	0
269	-12.20505	-35.80148	-23.59643	23.59643	5.69569	-30.10579	18.71441	42.31084	0.81367	1.62734	-9.76404	8.1367	0
270	-21.96909	-40.6835	-18.71441	30.91946	-1.62734	-30.10579	18.71441	39.86983	5.69569	-0.81367	-9.76404	8.1367	0
271	-19.52808	-28.47845	-8.95037	23.59643	-6.50936	-17.90074	18.71441	42.31084	8.95037	1.62734	-7.32303	10.57771	0
272	-21.96909	-23.59643	-1.62734	21.15542	-11.39138	-13.01872	18.71441	39.86983	8.95037	4.06835	-7.32303	10.57771	0
273	-21.96909	-23.59643	-1.62734	21.15542	-11.39138	-13.01872	18.71441	37.42882	5.69569	1.62734	-7.32303	8.1367	0
274	-24.4101	-26.03744	-1.62734	23.59643	-11.39138	-13.01872	16.2734	32.5468	5.69569	1.62734	-9.76404	8.1367	0
275	-27.66478	-30.91946	-4.06835	28.47845	-11.39138	-17.90074	13.83239	27.66478	0.81367	-0.81367	-12.20505	5.69569	0
276	-19.52808	-21.15542	-1.62734	18.71441	-8.95037	-10.57771	16.2734	25.22377	-1.62734	1.62734	-12.20505	5.69569	0
277	-19.52808	-23.59643	-4.06835	21.15542	-8.95037	-13.01872	18.71441	17.90074	-6.50936	1.62734	-12.20505	8.1367	0
278	-19.52808	-26.03744	-6.50936	21.15542	-6.50936	-15.45973	18.71441	13.01872	-6.50936	1.62734	-12.20505	8.1367	0
279	-19.52808	-21.15542	-1.62734	18.71441	-8.95037	-10.57771	18.71441	10.57771	-6.50936	4.06835	-12.20505	8.1367	0
280	-24.4101	-21.15542	3.25468	21.15542	-13.83239	-8.1367	21.15542	10.57771	-6.50936	4.06835	-12.20505	10.57771	0
281	-27.66478	-21.15542	5.69569	23.59643	-16.2734	-8.1367	21.15542	10.57771	-8.95037	4.06835	-12.20505	10.57771	0
282	-30.10579	-18.71441	10.57771	23.59643	-21.15542	-5.69569	21.15542	10.57771	-8.95037	4.06835	-12.20505	10.57771	0
283	-32.5468	-18.71441	13.01872	23.59643	-24.4101	-3.25468	21.15542	13.01872	-8.95037	4.06835	-12.20505	10.57771	0
284	-32.5468	-13.83239	17.90074	21.15542	-26.85111	1.62734	18.71441	10.57771	-8.95037	4.06835	-12.20505	10.57771	0
285	-32.5468	-11.39138	20.34175	21.15542	-26.85111	4.06835	18.71441	8.1367	-8.95037	1.62734	-14.64606	10.57771	0
286	-37.42882	-16.2734	20.34175	26.03744	-29.29212	1.62734	16.2734	3.25468	-11.39138	1.62734	-17.08707	10.57771	0
287	-42.31084	-18.71441	23.59643	28.47845	-34.17414	1.62734	13.83239	-1.62734	-13.83239	-0.81367	-17.08707	8.1367	0
288	-42.31084	-21.15542	20.34175	30.91946	-31.73313	-0.81367	13.83239	-4.06835	-11.39138	-0.81367	-19.52808	8.1367	0
289	-44.75185	-16.2734	28.47845	28.47845	-36.61515	4.06835	11.39138	-6.50936	-11.39138	-0.81367	-19.52808	8.1367	0
290	-49.63387	-16.2734	33.36047	30.91946	-41.49717	6.50936	8.95037	-6.50936	-11.39138	-0.81367	-19.52808	8.1367	0
291	-54.51589	-16.2734	38.24249	33.36047	-46.37919	9.76404	8.95037	-4.06835	-13.83239	-0.81367	-19.52808	8.1367	0
292	-56.9569	-13.83239	43.12451	33.36047	-51.26121	14.64606	8.95037	-1.62734	-13.83239	-0.81367	-17.08707	8.1367	0
293	-54.51589	-8.95037	45.56552	30.91946	-51.26121	17.08707	8.95037	3.25468	-13.83239	1.62734	-14.64606	10.57771	0
294	-52.07488	-3.25468	48.00653	26.03744	-48.8202	21.96909	8.95037	3.25468	-13.83239	1.62734	-14.64606	13.01872	0
295	-47.19286	1.62734	48.00653	21.15542	-46.37919	24.4101	8.95037	5.69569	-13.83239	1.62734	-14.64606	13.01872	0
296	-42.31084	4.06835	45.56552	18.71441	-43.93818	24.4101	8.95037	5.69569	-11.39138	6.50936	-9.76404	17.90074	1500	QRS+0
297	-37.42882	8.95037	45.56552	13.01872	-41.49717	26.85111	13.83239	5.69569	-8.95037	6.50936	-9.76404	20.34175	0
298	-34.98781	8.95037	43.12451	13.01872	-39.05616	24.4101	13.83239	5.69569	-8.95037	6.50936	-9.76404	20.34175	0
299	-34.98781	13.83239	48.00653	10.57771	-41.49717	29.29212	16.2734	3.25468	-6.50936	6.50936	-7.32303	22.78276	0
300	-32.5468	18.71441	50.44754	5.69569	-41.49717	34.17414	18.71441	10.57771	-4.06835	9.76404	-4.88202	22.78276	0
301	-32.5468	18.71441	50.44754	5.69569	-41.49717	34.17414	18.71441	13.01872	-4.06835	9.76404	-4.88202	22.78276	0
302	-34.98781	13.83239	48.00653	10.57771	-41.49717	29.29212	16.2734	15.45973	-4.06835	9.76404	-7.32303	22.78276	0
303	-34.98781	13.83239	48.00653	10.57771	-41.49717	29.29212	13.83239	17.90074	-6.50936	6.50936	-7.32303	20.34175	0
304	-34.98781	13.83239	48.00653	10.57771	-41.49717	29.29212	11.39138	17.90074	-8.95037	6.50936	-9.76404	17.90074	0
305	-34.98781	8.95037	43.12451	13.01872	-39.05616	24.4101	8.95037	15.45973	-6.50936	6.50936	-12.20505	15.45973	0
306	-34.98781	6.50936	40.6835	13.01872	-36.61515	21.96909	8.95037	13.01872	-6.50936	4.06835	-12.20505	15.45973	0
307	-34.98781	4.06835	38.24249	15.45973	-36.61515	19.52808	8.95037	10.57771	-6.50936	1.62734	-14.64606	13.01872	0
308	-34.98781	4.06835	38.24249	15.45973	-36.61515	19.52808	8.95037	8.1367	-6.50936	1.62734	-14.64606	13.01872	0
309	-34.98781	6.50936	40.6835	13.01872	-36.61515	21.96909	8.95037	5.69569	-4.06835	4.06835	-14.64606	13.01872	0
310	-30.10579	13.83239	43.12451	8.1367	-36.61515	26.85111	11.39138	10.57771	-4.06835	4.06835	-12.20505	13.01872	0
311	-30.10579	18.71441	48.00653	5.69569	-39.05616	31.73313	11.39138	13.01872	-4.06835	6.50936	-12.20505	15.45973	0
312	-27.66478	18.71441	45.56552	3.25468	-36.61515	31.73313	11.39138	20.34175	-4.06835	6.50936	-9.76404	15.45973	0
313	-24.4101	18.71441	43.12451	3.25468	-34.17414	31.73313	11.39138	25.22377	-6.50936	6.50936	-9.76404	17.90074	0
314	-17.08707	23.59643	40.6835	-4.06835	-29.29212	31.73313	11.39138	25.22377	-6.50936	9.76404	-9.76404	17.90074	0
315	-19.52808	16.2734	35.80148	0.81367	-26.85111	26.85111	6.50936	25.22377	-8.95037	6.50936	-9.76404	17.90074	0
316	-19.52808	8.95037	28.47845	5.69569	-24.4101	19.52808	6.50936	22.78276	-8.95037	6.50936	-9.76404	17.90074	0
317	-17.08707	4.06835	20.34175	5.69569	-18.71441	12.20505	6.50936	20.34175	-8.95037	6.50936	-9.76404	15.45973	0
318	-17.08707	-0.81367	15.45973	8.1367	-16.2734	6.50936	4.06835	17.90074	-8.95037	6.50936	-9.76404	13.01872	0
319	-21.96909	-0.81367	20.34175	10.57771	-21.15542	9.76404	4.06835	15.45973	-8.95037	6.50936	-9.76404	13.01872	0
320	-21.96909	4.06835	26.03744	8.1367	-24.4101	14.64606	4.06835	17.90074	-11.39138	6.50936	-9.76404	13.01872	0
321	-21.96909	6.50936	28.47845	8.1367	-24.4101	17.08707	4.06835	20.34175	-13.83239	1.62734	-12.20505	10.57771	0
322	-24.4101	6.50936	30.91946	8.1367	-26.85111	19.52808	4.06835	25.22377	-16.2734	1.62734	-14.64606	8.1367	0
323	-27.66478	1.62734	28.47845	13.01872	-26.85111	14.64606	4.06835	25.22377	-21.15542	-3.25468	-17.08707	3.25468	0
324	-27.66478	1.62734	28.47845	13.01872	-26.85111	14.64606	0.81367	25.22377	-23.59643	-5.69569	-21.96909	-4.88202	0
325	-19.52808	4.06835	23.59643	8.1367	-21.15542	14.64606	0.81367	27.66478	-23.59643	-5.69569	-21.96909	-4.88202	0
326	-9.76404	1.62734	10.57771	3.25468	-8.95037	6.50936	4.06835	27.66478	-23.59643	-5.69569	-21.96909	-4.88202	0
327	-4.88202	-0.81367	3.25468	3.25468	-4.06835	1.62734	6.50936	27.66478	-23.59643	-5.69569	-21.96909	-4.88202	0
328	4.88202	4.06835	-1.62734	-4.06835	3.25468	1.62734	11.39138	30.10579	-18.71441	-0.81367	-19.52808	-1.62734	0
329	7.32303	6.50936	-1.62734	-6.50936	5.69569	1.62734	13.83239	30.10579	-16.2734	1.62734	-17.08707	0.81367	0
330	12.20505	8.95037	-4.06835	-11.39138	8.1367	1.62734	16.2734	37.42882	-11.39138	6.50936	-12.20505	5.69569	0
331	12.20505	8.95037	-4.06835	-11.39138	8.1367	1.62734	18.71441	42.31084	-11.39138	6.50936	-12.20505	5.69569	0
332	9.76404	6.50936	-4.06835	-8.95037	8.1367	1.62734	16.2734	44.75185	-11.39138	6.50936	-14.64606	5.69569	0
333	9.76404	6.50936	-4.06835	-8.95037	8.1367	1.62734	16.2734	47.19286	-13.83239	6.50936	-17.08707	5.69569	0
334	9.76404	4.06835	-6.50936	-6.50936	8.1367	-0.81367	13.83239	44.75185	-16.2734	4.06835	-19.52808	5.69569	0
335	14.64606	1.62734	-13.83239	-8.95037	15.45973	-5.69569	13.83239	44.75185	-16.2734	1.62734	-21.96909	5.69569	0
336	21.96909	1.62734	-21.15542	-11.39138	22.78276	-10.57771	13.83239	44.75185	-16.2734	1.62734	-21.96909	5.69569	0
337	24.4101	1.62734	-23.59643	-13.83239	25.22377	-10.57771	16.2734	42.31084	-16.2734	-0.81367	-21.96909	5.69569	0
338	26.85111	1.62734	-26.03744	-13.83239	27.66478	-13.01872	18.71441	39.86983	-16.2734	-0.81367	-21.96909	5.69569	0
339	21.96909	-0.81367	-23.59643	-11.39138	22.78276	-13.01872	21.15542	34.98781	-13.83239	-0.81367	-21.96909	5.69569	0
340	19.52808	-0.81367	-21.15542	-8.95037	20.34175	-10.57771	23.59643	34.98781	-13.83239	-0.81367	-21.96909	5.69569	0
341	17.08707	-0.81367	-18.71441	-8.95037	17.90074	-10.57771	23.59643	37.42882	-13.83239	-3.25468	-21.96909	5.69569	0
342	12.20505	-3.25468	-16.2734	-4.06835	15.45973	-10.57771	21.15542	37.42882	-13.83239	-5.69569	-21.96909	3.25468	0
343	12.20505	-0.81367	-13.83239	-6.50936	13.01872	-8.1367	18.71441	39.86983	-13.83239	-5.69569	-21.96909	3.25468	0
344	17.08707	1.62734	-16.2734	-8.95037	17.90074	-8.1367	21.15542	42.31084	-11.39138	-3.25468	-19.52808	5.69569	0
345	19.52808	1.62734	-18.71441	-11.39138	20.34175	-8.1367	23.59643	42.31084	-8.95037	-0.81367	-17.08707	5.69569	0
346	24.4101	4.06835	-21.15542	-13.83239	22.78276	-8.1367	23.59643	39.86983	-8.95037	-3.25468	-17.08707	3.25468	0
347	26.85111	4.06835	-23.59643	-16.2734	25.22377	-10.57771	26.03744	34.98781	-8.95037	-3.25468	-17.08707	3.25468	0
348	29.29212	4.06835	-26.03744	-16.2734	27.66478	-10.57771	26.03744	32.5468	-8.95037	-0.81367	-14.64606	5.69569	0
349	21.96909	-0.81367	-23.59643	-11.39138	22.78276	-13.01872	26.03744	27.66478	-8.95037	-3.25468	-17.08707	3.25468	0
350	12.20505	-6.50936	-18.71441	-4.06835	15.45973	-13.01872	23.59643	27.66478	-13.83239	-8.1367	-19.52808	0.81367	0
351	4.88202	-8.95037	-13.83239	0.81367	8.1367	-10.57771	21.15542	27.66478	-16.2734	-10.57771	-21.96909	-4.88202	0
352	4.88202	-11.39138	-16.2734	3.25468	10.57771	-13.01872	21.15542	30.10579	-16.2734	-13.01872	-21.96909	-4.88202	0
353	-2.44101	-21.15542	-18.71441	10.57771	8.1367	-20.34175	18.71441	30.10579	-18.71441	-17.90074	-26.85111	-4.88202	0
354	-12.20505	-33.36047	-21.15542	21.15542	3.25468	-27.66478	13.83239	27.66478	-23.59643	-22.78276	-31.73313	-9.76404	0
355	-9.76404	-38.24249	-28.47845	23.59643	8.1367	-32.5468	16.2734	25.22377	-23.59643	-25.22377	-31.73313	-9.76404	0
356	-2.44101	-40.6835	-38.24249	21.15542	17.90074	-39.86983	18.71441	22.78276	-21.15542	-25.22377	-29.29212	-9.76404	0
357	7.32303	-40.6835	-48.00653	15.45973	27.66478	-44.75185	21.15542	17.90074	-18.71441	-22.78276	-29.29212	-12.20505	0
358	14.64606	-40.6835	-55.32956	13.01872	34.98781	-47.19286	26.03744	15.45973	-18.71441	-22.78276	-29.29212	-12.20505	0
359	17.08707	-35.80148	-52.88855	8.1367	34.98781	-44.75185	26.03744	10.57771	-21.15542	-22.78276	-29.29212	-14.64606	0
360	21.96909	-28.47845	-50.44754	3.25468	34.98781	-39.86983	28.47845	10.57771	-21.15542	-22.78276	-26.85111	-14.64606	0
361	24.4101	-23.59643	-48.00653	-1.62734	34.98781	-34.98781	28.47845	10.57771	-21.15542	-22.78276	-26.85111	-17.08707	0
362	19.52808	-26.03744	-45.56552	3.25468	32.5468	-34.98781	26.03744	10.57771	-23.59643	-22.78276	-29.29212	-19.52808	0
363	17.08707	-26.03744	-43.12451	3.25468	30.10579	-34.98781	26.03744	13.01872	-26.03744	-25.22377	-31.73313	-21.96909	0
364	12.20505	-30.91946	-43.12451	8.1367	27.66478	-37.42882	23.59643	10.57771	-26.03744	-25.22377	-34.17414	-26.85111	0
365	9.76404	-33.36047	-43.12451	10.57771	25.22377	-37.42882	21.15542	8.1367	-26.03744	-27.66478	-39.05616	-29.29212	0
366	9.76404	-38.24249	-48.00653	13.01872	27.66478	-42.31084	16.2734	3.25468	-26.03744	-30.10579	-39.05616	-34.17414	-1500	QRS-0
367	7.32303	-40.6835	-48.00653	15.45973	27.66478	-44.75185	16.2734	-4.06835	-26.03744	-30.10579	-41.49717	-34.17414	0
368	14.64606	-33.36047	-48.00653	8.1367	30.10579	-39.86983	16.2734	-6.50936	-23.59643	-30.10579	-41.49717	-34.17414	0
369	17.08707	-30.91946	-48.00653	5.69569	32.5468	-39.86983	16.2734	-11.39138	-23.59643	-30.10579	-41.49717	-34.17414	0
370	14.64606	-30.91946	-45.56552	8.1367	30.10579	-37.42882	11.39138	-13.83239	-23.59643	-32.5468	-41.49717	-36.61515	0
371	14.64606	-26.03744	-40.6835	5.69569	27.66478	-32.5468	11.39138	-16.2734	-23.59643	-32.5468	-41.49717	-36.61515	0
372	14.64606	-23.59643	-38.24249	3.25468	25.22377	-30.10579	11.39138	-11.39138	-23.59643	-30.10579	-36.61515	-34.17414	0
373	14.64606	-21.15542	-35.80148	3.25468	25.22377	-27.66478	11.39138	-8.95037	-28.47845	-30.10579	-36.61515	-34.17414	0
374	7.32303	-23.59643	-30.91946	8.1367	17.90074	-27.66478	8.95037	-11.39138	-30.91946	-30.10579	-36.61515	-36.61515	0
375	4.88202	-28.47845	-33.36047	10.57771	17.90074	-30.10579	8.95037	-8.95037	-30.91946	-30.10579	-34.17414	-36.61515	0
376	0	-35.80148	-35.80148	15.45973	17.90074	-34.98781	8.95037	-11.39138	-30.91946	-27.66478	-31.73313	-36.61515	0
377	-2.44101	-38.24249	-35.80148	18.71441	15.45973	-37.42882	11.39138	-11.39138	-30.91946	-25.22377	-31.73313	-36.61515	0
378	-9.76404	-50.44754	-40.6835	28.47845	15.45973	-44.75185	11.39138	-16.2734	-30.91946	-27.66478	-29.29212	-39.05616	0
379	-14.64606	-55.32956	-40.6835	33.36047	13.01872	-47.19286	8.95037	-21.96909	-30.91946	-27.66478	-31.73313	-39.05616	0
380	-12.20505	-52.88855	-40.6835	30.91946	13.01872	-47.19286	11.39138	-21.96909	-30.91946	-27.66478	-29.29212	-39.05616	0
381	-9.76404	-45.56552	-35.80148	26.03744	13.01872	-39.86983	13.83239	-21.96909	-28.47845	-27.66478	-24.4101	-34.17414	0
382	-7.32303	-38.24249	-30.91946	21.15542	10.57771	-34.98781	13.83239	-19.52808	-26.03744	-27.66478	-21.96909	-34.17414	0
383	-2.44101	-30.91946	-28.47845	15.45973	13.01872	-30.10579	13.83239	-16.2734	-26.03744	-27.66478	-21.96909	-31.73313	0
384	2.44101	-26.03744	-28.47845	10.57771	15.45973	-27.66478	13.83239	-16.2734	-26.03744	-27.66478	-19.52808	-31.73313	0
385	7.32303	-23.59643	-30.91946	8.1367	17.90074	-27.66478	13.83239	-13.83239	-23.59643	-27.66478	-19.52808	-29.29212	0
386	12.20505	-21.15542	-33.36047	3.25468	22.78276	-27.66478	13.83239	-13.83239	-23.59643	-27.66478	-17.08707	-26.85111	0
387	12.20505	-23.59643	-35.80148	5.69569	22.78276	-30.10579	13.83239	-16.2734	-26.03744	-30.10579	-17.08707	-29.29212	0
388	7.32303	-33.36047	-40.6835	13.01872	22.78276	-37.42882	13.83239	-19.52808	-30.91946	-32.5468	-21.96909	-29.29212	0
389	4.88202	-33.36047	-38.24249	13.01872	20.34175	-34.98781	11.39138	-24.4101	-30.91946	-34.98781	-21.96909	-31.73313	0
390	0	-35.80148	-35.80148	15.45973	17.90074	-34.98781	11.39138	-26.85111	-33.36047	-34.98781	-21.96909	-34.17414	0
391	-4.88202	-40.6835	-35.80148	21.15542	15.45973	-37.42882	11.39138	-26.85111	-33.36047	-37.42882	-21.96909	-34.17414	0
392	-9.76404	-40.6835	-30.91946	23.59643	10.57771	-34.98781	11.39138	-24.4101	-30.91946	-37.42882	-19.52808	-34.17414	0
393	-14.64606	-45.56552	-30.91946	28.47845	8.1367	-37.42882	11.39138	-21.96909	-30.91946	-39.86983	-19.52808	-34.17414	0
394	-14.64606	-45.56552	-30.91946	28.47845	8.1367	-37.42882	11.39138	-24.4101	-30.91946	-42.31084	-21.96909	-36.61515	0
395	-12.20505	-43.12451	-30.91946	26.03744	8.1367	-37.42882	11.39138	-26.85111	-30.91946	-42.31084	-19.52808	-36.61515	0
396	-12.20505	-45.56552	-33.36047	28.47845	10.57771	-39.86983	11.39138	-29.29212	-30.91946	-42.31084	-19.52808	-36.61515	0
397	-9.76404	-45.56552	-35.80148	26.03744	13.01872	-39.86983	11.39138	-29.29212	-28.47845	-42.31084	-19.52808	-34.17414	0
398	-2.44101	-43.12451	-40.6835	21.15542	17.90074	-42.31084	13.83239	-31.73313	-23.59643	-39.86983	-19.52808	-31.73313	0
399	0	-40.6835	-40.6835	18.71441	20.34175	-39.86983	16.2734	-36.61515	-21.15542	-34.98781	-14.64606	-26.85111	0
400	2.44101	-38.24249	-40.6835	15.45973	20.34175	-39.86983	18.71441	-36.61515	-16.2734	-32.5468	-12.20505	-24.4101	0
401	0	-38.24249	-38.24249	18.71441	17.90074	-37.42882	21.15542	-34.17414	-13.83239	-30.10579	-9.76404	-19.52808	0
402	-2.44101	-35.80148	-33.36047	18.71441	15.45973	-34.98781	23.59643	-29.29212	-8.95037	-27.66478	-7.32303	-17.08707	0
403	2.44101	-26.03744	-28.47845	10.57771	15.45973	-27.66478	23.59643	-24.4101	-6.50936	-25.22377	-4.88202	-17.08707	0
404	2.44101	-16.2734	-18.71441	5.69569	10.57771	-17.90074	23.59643	-24.4101	-4.06835	-25.22377	-4.88202	-14.64606	0
405	4.88202	-6.50936	-11.39138	0.81367	8.1367	-8.1367	26.03744	-19.52808	0.81367	-22.78276	-4.88202	-14.64606	0
406	9.76404	1.62734	-8.95037	-6.50936	10.57771	-3.25468	30.91946	-16.2734	5.69569	-17.90074	0	-9.76404	0
407	17.08707	13.83239	-4.06835	-16.2734	10.57771	4.06835	40.6835	-8.95037	11.39138	-10.57771	2.44101	-4.88202	0
408	24.4101	23.59643	-1.62734	-23.59643	13.01872	12.20505	45.56552	-4.06835	16.2734	-8.1367	5.69569	-1.62734	0
409	24.4101	26.03744	0.81367	-26.03744	13.01872	14.64606	50.44754	-4.06835	16.2734	-5.69569	5.69569	-1.62734	0
410	21.96909	30.91946	8.1367	-26.03744	8.1367	19.52808	52.88855	0.81367	16.2734	-3.25468	8.1367	-1.62734	0
411	24.4101	30.91946	5.69569	-28.47845	10.57771	19.52808	55.32956	5.69569	16.2734	-0.81367	10.57771	0.81367	0
412	19.52808	30.91946	10.57771	-26.03744	5.69569	21.96909	57.77057	13.01872	16.2734	1.62734	13.01872	0.81367	0
413	26.85111	38.24249	10.57771	-33.36047	8.1367	24.4101	57.77057	17.90074	16.2734	4.06835	15.45973	3.25468	0
414	36.61515	45.56552	8.1367	-40.6835	15.45973	26.85111	57.77057	22.78276	16.2734	4.06835	17.90074	3.25468	0
415	46.37919	52.88855	5.69569	-50.44754	20.34175	29.29212	60.21158	27.66478	16.2734	6.50936	20.34175	8.1367	0
416	53.70222	57.77057	3.25468	-55.32956	25.22377	31.73313	60.21158	27.66478	16.2734	6.50936	20.34175	8.1367	0
417	53.70222	55.32956	0.81367	-55.32956	27.66478	29.29212	57.77057	27.66478	13.83239	4.06835	17.90074	5.69569	0
418	58.58424	57.77057	-1.62734	-57.77057	30.10579	29.29212	55.32956	27.66478	11.39138	-0.81367	15.45973	3.25468	0
419	58.58424	57.77057	-1.62734	-57.77057	30.10579	29.29212	50.44754	22.78276	5.69569	-3.25468	10.57771	0.81367	0
420	53.70222	55.32956	0.81367	-55.32956	27.66478	29.29212	48.00653	20.34175	3.25468	-8.1367	5.69569	-4.88202	0
421	46.37919	48.00653	0.81367	-48.00653	22.78276	24.4101	43.12451	20.34175	-4.06835	-10.57771	0	-7.32303	0
422	41.49717	48.00653	5.69569	-45.56552	17.90074	26.85111	38.24249	22.78276	-8.95037	-15.45973	-4.88202	-12.20505	0
423	46.37919	52.88855	5.69569	-50.44754	20.34175	29.29212	33.36047	27.66478	-13.83239	-17.90074	-7.32303	-14.64606	0
424	53.70222	60.21158	5.69569	-57.77057	25.22377	34.17414	30.91946	27.66478	-16.2734	-17.90074	-7.32303	-12.20505	0
425	61.02525	67.53461	5.69569	-65.0936	27.66478	36.61515	23.59643	30.10579	-18.71441	-17.90074	-7.32303	-9.76404	0
426	70.78929	79.73966	8.1367	-74.85764	32.5468	43.93818	18.71441	30.10579	-21.15542	-20.34175	-9.76404	-9.76404	0
427	78.11232	91.94471	13.01872	-84.62168	32.5468	53.70222	13.83239	32.5468	-23.59643	-25.22377	-9.76404	-7.32303	0
428	87.87636	104.14976	15.45973	-96.82673	37.42882	61.02525	8.95037	32.5468	-26.03744	-27.66478	-9.76404	-7.32303	0
429	95.19939	111.47279	15.45973	-104.14976	39.86983	63.46626	6.50936	30.10579	-26.03744	-27.66478	-9.76404	-4.88202	0
430	100.08141	113.9138	13.01872	-106.59077	44.75185	63.46626	4.06835	27.66478	-28.47845	-30.10579	-12.20505	-4.88202	0
431	102.52242	116.35481	13.01872	-109.03178	44.75185	65.90727	0.81367	25.22377	-28.47845	-34.98781	-14.64606	-4.88202	0
432	100.08141	118.79582	17.90074	-109.03178	42.31084	68.34828	-1.62734	27.66478	-28.47845	-37.42882	-17.08707	-7.32303	0
433	102.52242	118.79582	15.45973	-111.47279	44.75185	68.34828	-6.50936	27.66478	-26.03744	-39.86983	-17.08707	-9.76404	0
434	104.96343	116.35481	10.57771	-111.47279	47.19286	63.46626	-11.39138	25.22377	-28.47845	-44.75185	-21.96909	-12.20505	0
435	109.84545	116.35481	5.69569	-113.9138	52.07488	61.02525	-16.2734	25.22377	-28.47845	-44.75185	-24.4101	-12.20505	0
436	109.84545	116.35481	5.69569	-113.9138	52.07488	61.02525	-21.15542	17.90074	-30.91946	-49.63387	-26.85111	-17.08707	0
437	109.84545	113.9138	3.25468	-111.47279	54.51589	58.58424	-26.03744	13.01872	-35.80148	-54.51589	-29.29212	-19.52808	0
438	112.28646	111.47279	-1.62734	-111.47279	56.9569	56.14323	-28.47845	5.69569	-38.24249	-56.9569	-31.73313	-21.96909	0
439	104.96343	101.70875	-4.06835	-104.14976	54.51589	48.8202	-30.91946	-8.95037	-45.56552	-56.9569	-34.17414	-24.4101	0
440	97.6404	87.06269	-11.39138	-91.94471	54.51589	39.05616	-35.80148	-19.52808	-50.44754	-59.39791	-36.61515	-26.85111	0
441	90.31737	77.29865	-13.83239	-84.62168	52.07488	31.73313	-35.80148	-29.29212	-52.88855	-61.83892	-39.05616	-29.29212	0
442	82.99434	69.97562	-13.83239	-77.29865	49.63387	29.29212	-38.24249	-36.61515	-57.77057	-64.27993	-41.49717	-31.73313	0
443	80.55333	62.65259	-18.71441	-72.41663	49.63387	21.96909	-40.6835	-39.05616	-60.21158	-66.72094	-43.93818	-34.17414	0
444	80.55333	60.21158	-21.15542	-69.97562	52.07488	19.52808	-43.12451	-43.93818	-62.65259	-69.16195	-43.93818	-34.17414	0
445	78.11232	55.32956	-23.59643	-67.53461	52.07488	17.08707	-48.00653	-46.37919	-62.65259	-71.60296	-43.93818	-36.61515	0
446	78.11232	55.32956	-23.59643	-67.53461	52.07488	17.08707	-48.00653	-48.8202	-62.65259	-74.04397	-43.93818	-36.61515	0
447	80.55333	57.77057	-23.59643	-69.97562	52.07488	17.08707	-48.00653	-48.8202	-62.65259	-74.04397	-43.93818	-34.17414	0
448	73.2303	45.56552	-28.47845	-60.21158	52.07488	9.76404	-48.00653	-51.26121	-62.65259	-74.04397	-39.05616	-34.17414	0
449	65.90727	38.24249	-28.47845	-52.88855	47.19286	4.06835	-45.56552	-56.14323	-60.21158	-74.04397	-36.61515	-31.73313	0
450	53.70222	26.03744	-28.47845	-40.6835	42.31084	-0.81367	-45.56552	-63.46626	-57.77057	-71.60296	-34.17414	-31.73313	0
451	39.05616	11.39138	-28.47845	-26.03744	34.98781	-8.1367	-43.12451	-68.34828	-55.32956	-71.60296	-34.17414	-31.73313	0
452	26.85111	-0.81367	-28.47845	-13.83239	27.66478	-15.45973	-40.6835	-68.34828	-52.88855	-69.16195	-29.29212	-29.29212	0
453	17.08707	-11.39138	-28.47845	-4.06835	22.78276	-20.34175	-40.6835	-70.78929	-50.44754	-66.72094	-29.29212	-26.85111	0
454	7.32303	-23.59643	-30.91946	8.1367	17.90074	-27.66478	-38.24249	-75.67131	-48.00653	-66.72094	-26.85111	-24.4101	0
455	0	-40.6835	-40.6835	18.71441	20.34175	-39.86983	-35.80148	-78.11232	-45.56552	-66.72094	-24.4101	-21.96909	0
456	-9.76404	-55.32956	-45.56552	30.91946	17.90074	-49.63387	-33.36047	-80.55333	-45.56552	-64.27993	-21.96909	-19.52808	0
457	-12.20505	-57.77057	-45.56552	33.36047	15.45973	-52.07488	-30.91946	-82.99434	-43.12451	-64.27993	-21.96909	-17.08707	0
458	-14.64606	-60.21158	-45.56552	35.80148	15.45973	-52.07488	-26.03744	-85.43535	-40.6835	-61.83892	-19.52808	-14.64606	0
459	-21.96909	-65.0936	-43.12451	43.12451	10.57771	-54.51589	-26.03744	-90.31737	-40.6835	-61.83892	-19.52808	-17.08707	0
460	-27.66478	-69.97562	-43.12451	48.00653	8.1367	-56.9569	-26.03744	-92.75838	-40.6835	-64.27993	-21.96909	-19.52808	0
461	-30.10579	-69.97562	-40.6835	48.00653	5.69569	-56.9569	-26.03744	-92.75838	-40.6835	-61.83892	-21.96909	-19.52808	0
462	-30.10579	-62.65259	-33.36047	45.56552	0.81367	-49.63387	-26.03744	-90.31737	-40.6835	-61.83892	-24.4101	-19.52808	0
463	-30.10579	-60.21158	-30.91946	43.12451	0.81367	-47.19286	-26.03744	-90.31737	-40.6835	-61.83892	-24.4101	-19.52808	0
464	-32.5468	-65.0936	-33.36047	48.00653	0.81367	-49.63387	-26.03744	-90.31737	-40.6835	-61.83892	-24.4101	-19.52808	0
465	-30.10579	-67.53461	-38.24249	48.00653	3.25468	-54.51589	-23.59643	-87.87636	-38.24249	-59.39791	-19.52808	-14.64606	0
466	-30.10579	-67.53461	-38.24249	48.00653	3.25468	-54.51589	-21.15542	-87.87636	-35.80148	-54.51589	-17.08707	-12.20505	0
467	-30.10579	-67.53461	-38.24249	48.00653	3.25468	-54.51589	-21.15542	-87.87636	-35.80148	-54.51589	-17.08707	-9.76404	0
468	-32.5468	-72.41663	-40.6835	50.44754	3.25468	-56.9569	-21.15542	-92.75838	-35.80148	-54.51589	-17.08707	-7.32303	0
469	-37.42882	-77.29865	-40.6835	55.32956	0.81367	-59.39791	-18.71441	-97.6404	-35.80148	-54.51589	-14.64606	-7.32303	0
470	-37.42882	-77.29865	-40.6835	55.32956	0.81367	-59.39791	-16.2734	-97.6404	-33.36047	-54.51589	-14.64606	-7.32303	0
471	-42.31084	-77.29865	-35.80148	57.77057	-4.06835	-56.9569	-16.2734	-100.08141	-35.80148	-54.51589	-17.08707	-9.76404	0
472	-42.31084	-74.85764	-33.36047	57.77057	-4.06835	-54.51589	-16.2734	-97.6404	-33.36047	-52.07488	-17.08707	-9.76404	0
473	-42.31084	-77.29865	-35.80148	57.77057	-4.06835	-56.9569	-11.39138	-92.75838	-30.91946	-52.07488	-14.64606	-9.76404	0
474	-42.31084	-74.85764	-33.36047	57.77057	-4.06835	-54.51589	-8.95037	-90.31737	-28.47845	-49.63387	-14.64606	-9.76404	0
475	-42.31084	-77.29865	-35.80148	57.77057	-4.06835	-56.9569	-4.06835	-87.87636	-26.03744	-47.19286	-12.20505	-7.32303	0
476	-39.86983	-77.29865	-38.24249	57.77057	-1.62734	-59.39791	-1.62734	-85.43535	-21.15542	-44.75185	-12.20505	-4.88202	0
477	-37.42882	-79.73966	-43.12451	57.77057	3.25468	-61.83892	0.81367	-85.43535	-18.71441	-42.31084	-12.20505	-4.88202	0
478	-34.98781	-82.18067	-48.00653	57.77057	5.69569	-66.72094	6.50936	-82.99434	-16.2734	-39.86983	-9.76404	-1.62734	0
479	-39.86983	-89.5037	-50.44754	62.65259	5.69569	-71.60296	6.50936	-90.31737	-16.2734	-39.86983	-9.76404	0.81367	0
480	-44.75185	-91.94471	-48.00653	67.53461	0.81367	-71.60296	6.50936	-92.75838	-16.2734	-39.86983	-9.76404	0.81367	0
481	-44.75185	-89.5037	-45.56552	65.0936	0.81367	-69.16195	6.50936	-92.75838	-16.2734	-37.42882	-9.76404	0.81367	0
482	-52.07488	-89.5037	-38.24249	69.97562	-6.50936	-64.27993	4.06835	-92.75838	-16.2734	-39.86983	-12.20505	0.81367	0
483	-54.51589	-91.94471	-38.24249	72.41663	-8.95037	-66.72094	0.81367	-87.87636	-18.71441	-42.31084	-12.20505	0.81367	0
484	-54.51589	-89.5037	-35.80148	69.97562	-8.95037	-64.27993	0.81367	-87.87636	-21.15542	-42.31084	-14.64606	0.81367	0
485	-52.07488	-87.06269	-35.80148	67.53461	-8.95037	-61.83892	0.81367	-90.31737	-23.59643	-42.31084	-14.64606	0.81367	0
486	-42.31084	-77.29865	-35.80148	57.77057	-4.06835	-56.9569	0.81367	-87.87636	-21.15542	-42.31084	-12.20505	5.69569	0
487	-39.86983	-74.85764	-35.80148	55.32956	-1.62734	-56.9569	0.81367	-87.87636	-21.15542	-42.31084	-12.20505	8.1367	0
488	-32.5468	-74.85764	-43.12451	52.88855	5.69569	-59.39791	4.06835	-87.87636	-18.71441	-42.31084	-12.20505	10.57771	0
489	-32.5468	-74.85764	-43.12451	52.88855	5.69569	-59.39791	6.50936	-90.31737	-16.2734	-39.86983	-9.76404	15.45973	0
490	-32.5468	-72.41663	-40.6835	50.44754	3.25468	-56.9569	6.50936	-92.75838	-16.2734	-39.86983	-7.32303	17.90074	0
491	-32.5468	-69.97562	-38.24249	50.44754	3.25468	-54.51589	8.95037	-92.75838	-13.83239	-39.86983	-7.32303	17.90074	0
492	-42.31084	-77.29865	-35.80148	57.77057	-4.06835	-56.9569	6.50936	-90.31737	-13.83239	-42.31084	-7.32303	17.90074	0
493	-47.19286	-82.18067	-35.80148	62.65259	-6.50936	-59.39791	6.50936	-90.31737	-13.83239	-42.31084	-7.32303	17.90074	0
494	-47.19286	-82.18067	-35.80148	62.65259	-6.50936	-59.39791	6.50936	-90.31737	-13.83239	-44.75185	-7.32303	17.90074	0
495	-49.63387	-82.18067	-33.36047	65.0936	-8.95037	-59.39791	6.50936	-92.75838	-13.83239	-47.19286	-7.32303	15.45973	0
496	-52.07488	-82.18067	-30.91946	65.0936	-11.39138	-56.9569	6.50936	-95.19939	-13.83239	-49.63387	-7.32303	13.01872	0
497	-56.9569	-89.5037	-33.36047	72.41663	-11.39138	-61.83892	6.50936	-97.6404	-16.2734	-54.51589	-9.76404	8.1367	0
498	-54.51589	-94.38572	-40.6835	72.41663	-6.50936	-69.16195	13.83239	-92.75838	-13.83239	-54.51589	-9.76404	8.1367	0
499	-49.63387	-104.14976	-55.32956	74.85764	3.25468	-81.367	23.59643	-85.43535	-8.95037	-54.51589	-9.76404	8.1367	0
500	-54.51589	-121.23683	-67.53461	87.06269	5.69569	-96.01306	35.80148	-70.78929	-4.06835	-54.51589	-9.76404	3.25468	0
501	-56.9569	-131.00087	-74.85764	91.94471	8.1367	-103.33609	43.12451	-56.14323	-1.62734	-52.07488	-9.76404	0.81367	0
502	-59.39791	-143.20592	-84.62168	99.26774	13.01872	-115.54114	62.65259	-19.52808	8.95037	-47.19286	-9.76404	0.81367	0
503	-56.9569	-157.85198	-101.70875	106.59077	22.78276	-130.1872	82.18067	27.66478	18.71441	-42.31084	-9.76404	-1.62734	0
504	-49.63387	-170.05703	-121.23683	109.03178	34.98781	-147.27427	104.14976	86.24902	28.47845	-39.86983	-9.76404	-4.88202	0
505	-32.5468	-174.93905	-143.20592	101.70875	54.51589	-159.47932	123.67784	152.15629	35.80148	-37.42882	-14.64606	-7.32303	0
506	-12.20505	-174.93905	-162.734	91.94471	74.04397	-169.24336	140.76491	232.70962	38.24249	-42.31084	-21.96909	-14.64606	0
507	19.52808	-172.49804	-192.02612	74.85764	105.7771	-181.44841	160.29299	325.468	40.6835	-44.75185	-29.29212	-26.85111	0
508	63.46626	-167.61602	-231.08228	50.44754	147.27427	-198.53548	182.26208	432.87244	43.12451	-49.63387	-39.05616	-39.05616	0
509	117.16848	-160.29299	-277.46147	21.15542	196.09447	-218.06356	209.11319	554.92294	45.56552	-56.9569	-51.26121	-53.70222	0
510	180.63474	-143.20592	-323.84066	-18.71441	252.2377	-232.70962	235.9643	689.17849	45.56552	-64.27993	-65.90727	-70.78929	0
511	251.42403	-116.35481	-367.77884	-67.53461	308.38093	-242.47366	260.3744	830.75707	48.00653	-71.60296	-82.99434	-90.31737	0
512	331.97736	-79.73966	-411.71702	-126.11885	371.84719	-244.91467	279.90248	979.65868	43.12451	-78.92599	-100.08141	-112.28646	0
513	434.49978	-28.47845	-462.97823	-204.23117	447.5185	-244.91467	294.54854	1133.44231	40.6835	-88.69003	-119.60949	-134.25555	0
514	549.22725	35.80148	-514.23944	-292.10753	532.95385	-240.03265	301.87157	1272.57988	33.36047	-100.89508	-144.01959	-158.66565	0
515	685.92381	118.79582	-567.94166	-401.95298	628.15324	-225.38659	287.22551	1392.18937	16.2734	-117.98215	-170.8707	-185.51676	0
516	829.9434	201.79016	-628.96691	-516.68045	730.67566	-213.18154	240.84632	1482.50674	-18.71441	-147.27427	-207.48585	-219.6909	0
517	966.63996	282.34349	-685.11014	-624.08489	825.87505	-200.97649	162.734	1514.23987	-72.41663	-188.77144	-251.42403	-256.30605	0
518	1078.92642	362.89682	-716.84327	-721.72529	899.10535	-176.56639	65.0936	1470.30169	-131.00087	-227.8276	-288.03918	-283.15716	0
519	1152.15672	433.68611	-719.28428	-792.51458	935.7205	-142.39225	-38.24249	1350.6922	-187.1441	-262.00174	-314.89029	-300.24423	0
520	1171.6848	480.0653	-692.43317	-826.68872	933.27949	-105.7771	-148.08794	1167.61645	-243.28733	-293.73487	-331.97736	-307.56726	0
521	1135.06965	502.03439	-633.84893	-819.36569	884.45929	-66.72094	-253.05137	935.7205	-287.22551	-315.70396	-334.41837	-297.80322	0
522	1037.42925	494.71136	-543.53156	-765.66347	791.70091	-25.22377	-338.48672	659.88637	-316.51763	-320.58598	-319.77231	-270.95211	0
523	886.08663	465.41924	-421.48106	-675.3461	655.00435	21.96909	-392.18894	352.31911	-321.39965	-305.93992	-283.15716	-227.01393	0
524	698.12886	423.92207	-275.02046	-560.61863	486.57466	75.67131	-419.04005	37.42882	-304.31258	-276.6478	-229.45494	-165.98868	0
525	502.84806	362.89682	-140.76491	-433.68611	323.02699	112.28646	-436.12712	-246.54201	-282.34349	-244.91467	-175.75272	-104.96343	0
526	307.56726	296.98955	-11.39138	-301.87157	159.47932	144.01959	-438.56813	-488.202	-255.49238	-210.74053	-122.0505	-46.37919	0
527	124.49151	231.08228	106.59077	-177.38006	10.57771	168.42969	-428.80409	-685.92381	-223.75925	-176.56639	-70.78929	5.69569	0
528	-19.52808	177.38006	196.90814	-79.73966	-107.40444	187.95777	-416.59904	-842.14845	-196.90814	-147.27427	-31.73313	47.19286	0
529	-127.74619	138.3239	265.25642	-6.50936	-195.2808	200.16282	-404.39399	-951.9939	-172.49804	-125.30518	0	81.367	0
530	-200.97649	104.14976	304.31258	48.00653	-251.42403	202.60383	-387.30692	-993.49107	-155.41097	-108.21811	17.90074	100.89508	0
531	-244.91467	77.29865	321.39965	82.18067	-283.15716	197.72181	-358.0148	-978.84501	-135.88289	-96.01306	30.10579	113.10013	0
532	-262.00174	62.65259	323.84066	99.26774	-292.9212	192.83979	-328.72268	-930.02481	-121.23683	-86.24902	32.5468	115.54114	0
533	-244.91467	65.0936	309.1946	89.5037	-275.83413	185.51676	-296.98955	-854.3535	-111.47279	-81.367	30.10579	110.65912	0
534	-225.38659	67.53461	292.10753	77.29865	-258.74706	178.19373	-265.25642	-771.35916	-101.70875	-81.367	25.22377	103.33609	0
535	-213.18154	67.53461	279.90248	72.41663	-246.54201	173.31171	-233.52329	-683.4828	-91.94471	-78.92599	20.34175	96.01306	0
536	-191.21245	79.73966	270.13844	55.32956	-229.45494	173.31171	-196.90814	-590.72442	-79.73966	-74.04397	15.45973	91.13104	0
537	-171.68437	89.5037	260.3744	40.6835	-214.80888	173.31171	-162.734	-510.17109	-67.53461	-69.16195	10.57771	83.80801	0
538	-157.03831	91.94471	248.16935	30.91946	-202.60383	168.42969	-138.3239	-444.26382	-60.21158	-66.72094	8.1367	78.92599	0
539	-147.27427	89.5037	235.9643	28.47845	-190.39878	161.10666	-113.9138	-397.88463	-50.44754	-64.27993	5.69569	76.48498	0
540	-142.39225	87.06269	228.64127	26.03744	-185.51676	156.22464	-91.94471	-361.26948	-38.24249	-56.9569	10.57771	76.48498	0
541	-142.39225	84.62168	226.20026	28.47845	-183.07575	153.78363	-72.41663	-331.97736	-30.91946	-52.07488	13.01872	78.92599	0
542	-147.27427	74.85764	221.31824	35.80148	-183.07575	146.4606	-60.21158	-310.00827	-26.03744	-49.63387	13.01872	78.92599	0
543	-152.15629	60.21158	211.5542	45.56552	-180.63474	134.25555	-50.44754	-290.48019	-23.59643	-49.63387	8.1367	74.04397	0
544	-152.15629	52.88855	204.23117	48.00653	-178.19373	126.93252	-43.12451	-275.83413	-21.15542	-49.63387	8.1367	74.04397	0
545	-149.71528	50.44754	199.34915	48.00653	-173.31171	124.49151	-33.36047	-263.62908	-16.2734	-47.19286	10.57771	74.04397	0
546	-154.5973	43.12451	196.90814	55.32956	-175.75272	119.60949	-28.47845	-253.86504	-13.83239	-47.19286	10.57771	71.60296	0
547	-154.5973	35.80148	189.58511	57.77057	-170.8707	112.28646	-26.03744	-248.98302	-11.39138	-49.63387	10.57771	71.60296	0
548	-149.71528	33.36047	182.26208	57.77057	-165.98868	107.40444	-21.15542	-244.101	-8.95037	-49.63387	8.1367	71.60296	0
549	-142.39225	33.36047	174.93905	52.88855	-158.66565	102.52242	-18.71441	-241.65999	-6.50936	-49.63387	10.57771	71.60296	0
550	-139.95124	33.36047	172.49804	52.88855	-156.22464	102.52242	-16.2734	-239.21898	-4.06835	-47.19286	13.01872	74.04397	0
551	-139.95124	30.91946	170.05703	52.88855	-153.78363	100.08141	-11.39138	-234.33696	-1.62734	-44.75185	13.01872	74.04397	0
552	-139.95124	28.47845	167.61602	55.32956	-153.78363	97.6404	-11.39138	-229.45494	-1.62734	-44.75185	13.01872	74.04397	0
553	-139.95124	33.36047	172.49804	52.88855	-156.22464	102.52242	-8.95037	-224.57292	-1.62734	-44.75185	13.01872	74.04397	0
554	-137.51023	35.80148	172.49804	50.44754	-153.78363	102.52242	-6.50936	-219.6909	-1.62734	-42.31084	13.01872	76.48498	0
555	-132.62821	38.24249	170.05703	45.56552	-151.34262	102.52242	-4.06835	-217.24989	0.81367	-42.31084	15.45973	78.92599	0
556	-135.06922	33.36047	167.61602	50.44754	-151.34262	100.08141	-4.06835	-214.80888	3.25468	-42.31084	15.45973	78.92599	0
557	-130.1872	38.24249	167.61602	45.56552	-148.90161	102.52242	-4.06835	-214.80888	5.69569	-42.31084	15.45973	78.92599	0
558	-125.30518	40.6835	165.17501	40.6835	-144.01959	102.52242	-4.06835	-212.36787	8.95037	-42.31084	15.45973	78.92599	0
559	-122.86417	35.80148	157.85198	43.12451	-139.13757	95.19939	-4.06835	-212.36787	11.39138	-42.31084	13.01872	76.48498	0
560	-125.30518	33.36047	157.85198	45.56552	-141.57858	95.19939	-4.06835	-214.80888	13.83239	-42.31084	13.01872	76.48498	0
561	-130.1872	33.36047	162.734	48.00653	-146.4606	97.6404	-6.50936	-217.24989	16.2734	-44.75185	10.57771	76.48498	0
562	-132.62821	38.24249	170.05703	45.56552	-151.34262	102.52242	-6.50936	-214.80888	16.2734	-42.31084	10.57771	74.04397	0
563	-135.06922	38.24249	172.49804	48.00653	-153.78363	104.96343	-8.95037	-209.92686	13.83239	-42.31084	10.57771	76.48498	0
564	-142.39225	30.91946	172.49804	55.32956	-156.22464	100.08141	-11.39138	-209.92686	8.95037	-42.31084	5.69569	74.04397	0
565	-142.39225	30.91946	172.49804	55.32956	-156.22464	100.08141	-11.39138	-209.92686	5.69569	-42.31084	5.69569	71.60296	0
566	-137.51023	33.36047	170.05703	50.44754	-153.78363	100.08141	-13.83239	-209.92686	5.69569	-42.31084	5.69569	69.16195	0
567	-137.51023	38.24249	174.93905	48.00653	-156.22464	104.96343	-13.83239	-209.92686	3.25468	-42.31084	5.69569	69.16195	0
568	-135.06922	40.6835	174.93905	45.56552	-153.78363	107.40444	-13.83239	-205.04484	3.25468	-42.31084	5.69569	69.16195	0
569	-127.74619	43.12451	170.05703	40.6835	-148.90161	104.96343	-11.39138	-207.48585	0.81367	-44.75185	5.69569	69.16195	0
570	-120.42316	52.88855	172.49804	33.36047	-146.4606	112.28646	-11.39138	-207.48585	0.81367	-44.75185	5.69569	69.16195	0
571	-113.10013	60.21158	172.49804	26.03744	-141.57858	114.72747	-8.95037	-207.48585	0.81367	-44.75185	10.57771	71.60296	0
572	-113.10013	60.21158	172.49804	26.03744	-141.57858	114.72747	-8.95037	-205.04484	0.81367	-44.75185	13.01872	76.48498	0
573	-113.10013	62.65259	174.93905	23.59643	-144.01959	117.16848	-8.95037	-200.16282	3.25468	-44.75185	15.45973	76.48498	0
574	-108.21811	62.65259	170.05703	21.15542	-139.13757	114.72747	-8.95037	-197.72181	3.25468	-44.75185	17.90074	78.92599	0
575	-110.65912	57.77057	167.61602	26.03744	-139.13757	112.28646	-11.39138	-200.16282	-1.62734	-49.63387	17.90074	76.48498	0
576	-115.54114	52.88855	167.61602	30.91946	-141.57858	109.84545	-11.39138	-200.16282	-4.06835	-54.51589	13.01872	71.60296	0
577	-117.98215	50.44754	167.61602	33.36047	-141.57858	107.40444	-13.83239	-200.16282	-4.06835	-56.9569	13.01872	71.60296	0
578	-117.98215	50.44754	167.61602	33.36047	-141.57858	107.40444	-13.83239	-200.16282	-1.62734	-59.39791	10.57771	69.16195	0
579	-117.98215	48.00653	165.17501	33.36047	-141.57858	104.96343	-11.39138	-200.16282	-1.62734	-61.83892	10.57771	69.16195	0
580	-120.42316	48.00653	167.61602	35.80148	-144.01959	107.40444	-11.39138	-205.04484	-1.62734	-64.27993	10.57771	69.16195	0
581	-120.42316	48.00653	167.61602	35.80148	-144.01959	107.40444	-11.39138	-205.04484	3.25468	-64.27993	8.1367	69.16195	0
582	-120.42316	52.88855	172.49804	33.36047	-146.4606	112.28646	-8.95037	-200.16282	5.69569	-59.39791	8.1367	71.60296	0
583	-117.98215	57.77057	174.93905	28.47845	-146.4606	114.72747	-8.95037	-195.2808	5.69569	-59.39791	10.57771	74.04397	0
584	-113.10013	65.0936	177.38006	23.59643	-144.01959	119.60949	-8.95037	-192.83979	5.69569	-56.9569	10.57771	74.04397	0
585	-108.21811	69.97562	177.38006	18.71441	-141.57858	122.0505	-11.39138	-190.39878	5.69569	-49.63387	13.01872	76.48498	0
586	-108.21811	69.97562	177.38006	18.71441	-141.57858	122.0505	-11.39138	-187.95777	5.69569	-39.86983	13.01872	76.48498	0
587	-108.21811	67.53461	174.93905	18.71441	-141.57858	119.60949	-13.83239	-187.95777	3.25468	-27.66478	10.57771	74.04397	0
588	-110.65912	62.65259	172.49804	23.59643	-141.57858	117.16848	-16.2734	-185.51676	0.81367	-15.45973	8.1367	71.60296	0
589	-113.10013	55.32956	167.61602	28.47845	-139.13757	109.84545	-18.71441	-185.51676	-1.62734	1.62734	5.69569	69.16195	0
590	-117.98215	50.44754	167.61602	33.36047	-141.57858	107.40444	-18.71441	-187.95777	-4.06835	19.52808	5.69569	66.72094	0
591	-122.86417	48.00653	170.05703	35.80148	-146.4606	107.40444	-18.71441	-187.95777	-6.50936	39.05616	5.69569	66.72094	0
592	-125.30518	50.44754	174.93905	35.80148	-148.90161	112.28646	-18.71441	-183.07575	-6.50936	53.70222	5.69569	66.72094	0
593	-125.30518	52.88855	177.38006	35.80148	-151.34262	114.72747	-18.71441	-175.75272	-6.50936	68.34828	5.69569	64.27993	0
594	-122.86417	55.32956	177.38006	33.36047	-148.90161	114.72747	-18.71441	-173.31171	-6.50936	80.55333	5.69569	64.27993	0
595	-120.42316	57.77057	177.38006	30.91946	-148.90161	117.16848	-18.71441	-168.42969	-6.50936	90.31737	5.69569	64.27993	0
596	-115.54114	62.65259	177.38006	26.03744	-146.4606	119.60949	-18.71441	-163.54767	-8.95037	97.6404	5.69569	64.27993	0
597	-113.10013	65.0936	177.38006	23.59643	-144.01959	119.60949	-18.71441	-163.54767	-11.39138	104.96343	5.69569	61.83892	0
598	-113.10013	60.21158	172.49804	26.03744	-141.57858	114.72747	-21.15542	-158.66565	-11.39138	109.84545	2.44101	59.39791	0
599	-108.21811	60.21158	167.61602	23.59643	-136.69656	112.28646	-18.71441	-158.66565	-13.83239	114.72747	2.44101	59.39791	0
600	-108.21811	55.32956	162.734	26.03744	-134.25555	107.40444	-18.71441	-156.22464	-16.2734	117.16848	2.44101	59.39791	0
601	-108.21811	55.32956	162.734	26.03744	-134.25555	107.40444	-18.71441	-151.34262	-16.2734	122.0505	2.44101	59.39791	0
602	-108.21811	52.88855	160.29299	26.03744	-134.25555	104.96343	-21.15542	-146.4606	-18.71441	124.49151	0	56.9569	0
603	-108.21811	48.00653	155.41097	28.47845	-131.81454	100.08141	-23.59643	-141.57858	-21.15542	126.93252	-2.44101	56.9569	0
604	-108.21811	43.12451	150.52895	30.91946	-129.37353	95.19939	-26.03744	-136.69656	-23.59643	129.37353	-4.88202	54.51589	0
605	-108.21811	40.6835	148.08794	33.36047	-126.93252	92.75838	-30.91946	-134.25555	-30.91946	126.93252	-12.20505	52.07488	0
606	-108.21811	38.24249	145.64693	33.36047	-126.93252	90.31737	-38.24249	-131.81454	-35.80148	124.49151	-17.08707	47.19286	0
607	-100.89508	38.24249	138.3239	30.91946	-119.60949	87.87636	-38.24249	-126.93252	-40.6835	124.49151	-17.08707	47.19286	0
608	-91.13104	40.6835	131.00087	23.59643	-109.84545	85.43535	-40.6835	-119.60949	-43.12451	124.49151	-19.52808	44.75185	0
609	-81.367	40.6835	121.23683	18.71441	-100.08141	80.55333	-40.6835	-112.28646	-43.12451	124.49151	-19.52808	47.19286	0
610	-71.60296	48.00653	118.79582	10.57771	-95.19939	82.99434	-38.24249	-107.40444	-43.12451	124.49151	-17.08707	49.63387	0
611	-61.83892	52.88855	113.9138	3.25468	-87.87636	82.99434	-33.36047	-97.6404	-43.12451	126.93252	-14.64606	52.07488	0
612	-56.9569	57.77057	113.9138	-1.62734	-85.43535	85.43535	-30.91946	-90.31737	-43.12451	126.93252	-12.20505	54.51589	0
613	-49.63387	62.65259	111.47279	-6.50936	-80.55333	85.43535	-30.91946	-78.11232	-43.12451	126.93252	-12.20505	52.07488	0
614	-49.63387	62.65259	111.47279	-6.50936	-80.55333	85.43535	-30.91946	-73.2303	-45.56552	124.49151	-14.64606	49.63387	0
615	-47.19286	60.21158	106.59077	-6.50936	-75.67131	82.99434	-30.91946	-70.78929	-50.44754	119.60949	-19.52808	42.31084	0
616	-44.75185	57.77057	101.70875	-6.50936	-73.2303	78.11232	-35.80148	-65.90727	-55.32956	112.28646	-24.4101	34.98781	0
617	-44.75185	48.00653	91.94471	-1.62734	-68.34828	68.34828	-38.24249	-61.02525	-60.21158	107.40444	-31.73313	30.10579	0
618	-42.31084	40.6835	82.18067	0.81367	-61.02525	61.02525	-40.6835	-53.70222	-67.53461	102.52242	-36.61515	20.34175	0
619	-37.42882	30.91946	67.53461	3.25468	-51.26121	48.8202	-45.56552	-53.70222	-69.97562	95.19939	-41.49717	15.45973	0
620	-32.5468	26.03744	57.77057	3.25468	-43.93818	41.49717	-45.56552	-48.8202	-74.85764	90.31737	-46.37919	10.57771	0
621	-27.66478	16.2734	43.12451	5.69569	-34.17414	29.29212	-48.00653	-41.49717	-77.29865	87.87636	-48.8202	8.1367	0
622	-32.5468	4.06835	35.80148	13.01872	-34.17414	19.52808	-50.44754	-36.61515	-79.73966	80.55333	-53.70222	3.25468	0
623	-30.10579	-3.25468	26.03744	15.45973	-26.85111	9.76404	-52.88855	-29.29212	-82.18067	78.11232	-56.14323	-1.62734	0
624	-24.4101	-3.25468	20.34175	13.01872	-21.15542	9.76404	-52.88855	-24.4101	-82.18067	73.2303	-58.58424	-4.88202	0
625	-21.96909	-13.83239	8.1367	15.45973	-16.2734	-3.25468	-55.32956	-24.4101	-87.06269	68.34828	-61.02525	-9.76404	0
626	-17.08707	-18.71441	-1.62734	15.45973	-8.95037	-10.57771	-57.77057	-19.52808	-89.5037	63.46626	-63.46626	-12.20505	0
627	-9.76404	-23.59643	-13.83239	15.45973	0.81367	-17.90074	-57.77057	-19.52808	-89.5037	61.02525	-63.46626	-14.64606	0
628	7.32303	-18.71441	-26.03744	5.69569	15.45973	-22.78276	-55.32956	-11.39138	-87.06269	61.02525	-61.02525	-14.64606	0
629	19.52808	-13.83239	-33.36047	-4.06835	25.22377	-22.78276	-55.32956	-8.95037	-87.06269	58.58424	-61.02525	-17.08707	0
630	26.85111	-13.83239	-40.6835	-6.50936	32.5468	-27.66478	-55.32956	-6.50936	-87.06269	56.14323	-63.46626	-19.52808	0
631	34.17414	-18.71441	-52.88855	-8.95037	42.31084	-34.98781	-55.32956	-4.06835	-87.06269	56.14323	-63.46626	-21.96909	0
632	36.61515	-21.15542	-57.77057	-8.95037	47.19286	-39.86983	-55.32956	0.81367	-87.06269	56.14323	-63.46626	-24.4101	0
633	36.61515	-33.36047	-69.97562	-1.62734	52.07488	-52.07488	-57.77057	3.25468	-91.94471	51.26121	-68.34828	-31.73313	0
634	26.85111	-48.00653	-74.85764	10.57771	49.63387	-61.83892	-62.65259	3.25468	-94.38572	48.8202	-73.2303	-36.61515	0
635	24.4101	-60.21158	-84.62168	15.45973	54.51589	-71.60296	-65.0936	0.81367	-99.26774	46.37919	-75.67131	-41.49717	0
636	26.85111	-62.65259	-89.5037	15.45973	56.9569	-76.48498	-67.53461	0.81367	-101.70875	43.93818	-78.11232	-46.37919	0
637	34.17414	-65.0936	-99.26774	15.45973	66.72094	-81.367	-67.53461	3.25468	-101.70875	43.93818	-78.11232	-46.37919	0
638	39.05616	-67.53461	-106.59077	13.01872	71.60296	-86.24902	-67.53461	5.69569	-101.70875	43.93818	-78.11232	-46.37919	0
639	43.93818	-69.97562	-113.9138	13.01872	78.92599	-91.13104	-67.53461	0.81367	-101.70875	41.49717	-78.11232	-46.37919	0
640	46.37919	-69.97562	-116.35481	10.57771	81.367	-93.57205	-67.53461	-1.62734	-101.70875	39.05616	-78.11232	-48.8202	0
641	51.26121	-67.53461	-118.79582	8.1367	83.80801	-93.57205	-67.53461	-4.06835	-104.14976	39.05616	-73.2303	-46.37919	0
642	51.26121	-67.53461	-118.79582	8.1367	83.80801	-93.57205	-67.53461	-4.06835	-101.70875	39.05616	-68.34828	-43.93818	0
643	43.93818	-74.85764	-118.79582	15.45973	81.367	-96.01306	-67.53461	-1.62734	-101.70875	36.61515	-68.34828	-43.93818	0
644	36.61515	-84.62168	-121.23683	23.59643	78.92599	-103.33609	-72.41663	-4.06835	-104.14976	31.73313	-65.90727	-46.37919	0
645	34.17414	-87.06269	-121.23683	26.03744	76.48498	-103.33609	-72.41663	-6.50936	-104.14976	29.29212	-65.90727	-46.37919	0
646	34.17414	-87.06269	-121.23683	26.03744	76.48498	-103.33609	-69.97562	-4.06835	-101.70875	29.29212	-63.46626	-46.37919	0
647	36.61515	-84.62168	-121.23683	23.59643	78.92599	-103.33609	-62.65259	-1.62734	-96.82673	31.73313	-58.58424	-41.49717	0
648	41.49717	-79.73966	-121.23683	18.71441	81.367	-100.89508	-57.77057	3.25468	-94.38572	34.17414	-56.14323	-41.49717	0
649	46.37919	-79.73966	-126.11885	15.45973	86.24902	-103.33609	-50.44754	5.69569	-89.5037	36.61515	-56.14323	-39.05616	0
650	46.37919	-72.41663	-118.79582	13.01872	81.367	-96.01306	-43.12451	10.57771	-84.62168	41.49717	-51.26121	-34.17414	-1250	T-0
651	46.37919	-62.65259	-109.03178	8.1367	76.48498	-86.24902	-33.36047	15.45973	-77.29865	46.37919	-46.37919	-31.73313	0
652	41.49717	-60.21158	-101.70875	8.1367	71.60296	-81.367	-28.47845	20.34175	-72.41663	48.8202	-43.93818	-26.85111	0
653	39.05616	-57.77057	-96.82673	8.1367	66.72094	-76.48498	-21.15542	30.10579	-67.53461	51.26121	-41.49717	-24.4101	0
654	34.17414	-57.77057	-91.94471	10.57771	61.83892	-74.04397	-21.15542	32.5468	-65.0936	51.26121	-41.49717	-24.4101	0
655	26.85111	-57.77057	-84.62168	15.45973	54.51589	-71.60296	-18.71441	32.5468	-62.65259	48.8202	-41.49717	-26.85111	0
656	19.52808	-62.65259	-82.18067	21.15542	49.63387	-71.60296	-16.2734	30.10579	-62.65259	48.8202	-41.49717	-26.85111	0
657	14.64606	-72.41663	-87.06269	28.47845	49.63387	-78.92599	-13.83239	27.66478	-60.21158	48.8202	-39.05616	-26.85111	0
658	14.64606	-69.97562	-84.62168	26.03744	49.63387	-76.48498	-8.95037	32.5468	-55.32956	48.8202	-34.17414	-26.85111	0
659	12.20505	-67.53461	-79.73966	26.03744	44.75185	-74.04397	-6.50936	30.10579	-55.32956	46.37919	-34.17414	-26.85111	0
660	4.88202	-67.53461	-72.41663	30.91946	37.42882	-69.16195	-1.62734	25.22377	-50.44754	48.8202	-29.29212	-21.96909	0
661	2.44101	-65.0936	-67.53461	30.91946	34.98781	-66.72094	0.81367	25.22377	-45.56552	51.26121	-24.4101	-19.52808	0
662	-4.88202	-60.21158	-55.32956	30.91946	25.22377	-56.9569	4.06835	27.66478	-40.6835	53.70222	-19.52808	-14.64606	0
663	-4.88202	-50.44754	-45.56552	26.03744	20.34175	-47.19286	8.95037	37.42882	-35.80148	56.14323	-14.64606	-12.20505	0
664	-9.76404	-48.00653	-38.24249	28.47845	13.01872	-42.31084	8.95037	37.42882	-35.80148	58.58424	-14.64606	-12.20505	0
665	-9.76404	-48.00653	-38.24249	28.47845	13.01872	-42.31084	11.39138	34.98781	-33.36047	58.58424	-12.20505	-9.76404	0
666	-2.44101	-40.6835	-38.24249	21.15542	17.90074	-39.86983	16.2734	34.98781	-28.47845	61.02525	-9.76404	-9.76404	0
667	2.44101	-35.80148	-38.24249	15.45973	20.34175	-37.42882	18.71441	34.98781	-23.59643	61.02525	-9.76404	-9.76404	0
668	7.32303	-40.6835	-48.00653	15.45973	27.66478	-44.75185	23.59643	37.42882	-21.15542	63.46626	-9.76404	-9.76404	0
669	9.76404	-43.12451	-52.88855	15.45973	30.10579	-47.19286	23.59643	32.5468	-18.71441	63.46626	-7.32303	-9.76404	0
670	14.64606	-38.24249	-52.88855	10.57771	32.5468	-44.75185	28.47845	27.66478	-11.39138	63.46626	-4.88202	-4.88202	0
671	17.08707	-33.36047	-50.44754	8.1367	32.5468	-42.31084	33.36047	25.22377	-6.50936	68.34828	0	-4.88202	0
672	4.88202	-33.36047	-38.24249	13.01872	20.34175	-34.98781	33.36047	22.78276	-4.06835	70.78929	2.44101	-1.62734	0
673	-7.32303	-38.24249	-30.91946	21.15542	10.57771	-34.98781	33.36047	22.78276	-4.06835	70.78929	2.44101	-1.62734	0
674	-14.64606	-38.24249	-23.59643	26.03744	3.25468	-30.10579	28.47845	20.34175	-6.50936	68.34828	0	-4.88202	0
675	-17.08707	-35.80148	-18.71441	26.03744	0.81367	-27.66478	28.47845	15.45973	-6.50936	68.34828	0	-4.88202	0
676	-21.96909	-40.6835	-18.71441	30.91946	-1.62734	-30.10579	26.03744	13.01872	-8.95037	65.90727	0	-4.88202	0
677	-24.4101	-45.56552	-21.15542	33.36047	-1.62734	-32.5468	23.59643	10.57771	-11.39138	65.90727	-2.44101	-4.88202	0
678	-21.96909	-45.56552	-23.59643	33.36047	0.81367	-34.98781	23.59643	10.57771	-11.39138	63.46626	-2.44101	-4.88202	0
679	-12.20505	-38.24249	-26.03744	23.59643	5.69569	-32.5468	23.59643	5.69569	-11.39138	63.46626	0	-4.88202	0
680	-9.76404	-33.36047	-23.59643	21.15542	5.69569	-27.66478	23.59643	0.81367	-6.50936	68.34828	5.69569	0.81367	0
681	-9.76404	-26.03744	-16.2734	15.45973	3.25468	-20.34175	23.59643	-4.06835	-6.50936	70.78929	8.1367	3.25468	0
682	-14.64606	-16.2734	-1.62734	15.45973	-6.50936	-8.1367	23.59643	-4.06835	-6.50936	73.2303	10.57771	3.25468	0
683	-21.96909	-13.83239	8.1367	15.45973	-16.2734	-3.25468	23.59643	-1.62734	-6.50936	73.2303	13.01872	3.25468	0
684	-17.08707	-6.50936	10.57771	10.57771	-13.83239	1.62734	21.15542	-1.62734	-6.50936	73.2303	15.45973	5.69569	0
685	-19.52808	-6.50936	13.01872	13.01872	-16.2734	4.06835	21.15542	-4.06835	-4.06835	73.2303	17.90074	5.69569	0
686	-24.4101	-8.95037	15.45973	15.45973	-21.15542	4.06835	21.15542	-6.50936	-4.06835	73.2303	17.90074	5.69569	0
687	-27.66478	-13.83239	13.01872	18.71441	-21.15542	-0.81367	18.71441	-8.95037	-4.06835	70.78929	15.45973	5.69569	0
688	-27.66478	-23.59643	3.25468	23.59643	-16.2734	-10.57771	18.71441	-11.39138	-4.06835	68.34828	15.45973	3.25468	0
689	-27.66478	-26.03744	0.81367	26.03744	-13.83239	-13.01872	18.71441	-16.2734	-1.62734	68.34828	15.45973	5.69569	0
690	-27.66478	-23.59643	3.25468	23.59643	-16.2734	-10.57771	18.71441	-24.4101	-1.62734	68.34828	17.90074	8.1367	0
691	-32.5468	-26.03744	5.69569	28.47845	-18.71441	-10.57771	16.2734	-29.29212	-1.62734	68.34828	17.90074	8.1367	0
692	-32.5468	-18.71441	13.01872	23.59643	-24.4101	-3.25468	13.83239	-29.29212	-1.62734	70.78929	17.90074	13.01872	0
693	-34.98781	-13.83239	20.34175	23.59643	-29.29212	1.62734	13.83239	-21.96909	0.81367	73.2303	20.34175	15.45973	0
694	-37.42882	-13.83239	23.59643	23.59643	-31.73313	4.06835	11.39138	-19.52808	0.81367	75.67131	25.22377	17.90074	0
695	-37.42882	-13.83239	23.59643	23.59643	-31.73313	4.06835	8.95037	-19.52808	0.81367	78.11232	25.22377	17.90074	0
696	-34.98781	-13.83239	20.34175	23.59643	-29.29212	1.62734	8.95037	-19.52808	0.81367	78.11232	25.22377	17.90074	0
697	-34.98781	-16.2734	17.90074	23.59643	-26.85111	-0.81367	8.95037	-19.52808	0.81367	78.11232	25.22377	17.90074	0
698	-32.5468	-21.15542	10.57771	26.03744	-21.15542	-5.69569	8.95037	-19.52808	3.25468	75.67131	25.22377	17.90074	0
699	-30.10579	-23.59643	5.69569	26.03744	-18.71441	-10.57771	8.95037	-24.4101	3.25468	73.2303	25.22377	15.45973	0
700	-32.5468	-23.59643	8.1367	26.03744	-21.15542	-8.1367	8.95037	-31.73313	3.25468	73.2303	25.22377	15.45973	0
701	-32.5468	-13.83239	17.90074	21.15542	-26.85111	1.62734	8.95037	-31.73313	3.25468	73.2303	25.22377	15.45973	0
702	-37.42882	-8.95037	28.47845	21.15542	-34.17414	9.76404	8.95037	-31.73313	5.69569	75.67131	30.10579	17.90074	0
703	-39.86983	-6.50936	33.36047	21.15542	-36.61515	12.20505	6.50936	-26.85111	5.69569	78.11232	32.5468	17.90074	0
704	-39.86983	-3.25468	35.80148	21.15542	-36.61515	14.64606	6.50936	-21.96909	5.69569	80.55333	34.98781	20.34175	0
705	-39.86983	-0.81367	38.24249	18.71441	-39.05616	17.08707	8.95037	-21.96909	5.69569	82.99434	37.42882	22.78276	0
706	-39.86983	-0.81367	38.24249	18.71441	-39.05616	17.08707	8.95037	-19.52808	8.95037	82.99434	39.86983	22.78276	0
707	-37.42882	-0.81367	35.80148	18.71441	-36.61515	17.08707	8.95037	-19.52808	8.95037	82.99434	39.86983	25.22377	0
708	-32.5468	-0.81367	30.91946	15.45973	-31.73313	14.64606	8.95037	-13.83239	8.95037	80.55333	39.86983	25.22377	0
709	-30.10579	-6.50936	23.59643	15.45973	-26.85111	6.50936	8.95037	-19.52808	5.69569	78.11232	34.98781	22.78276	0
710	-32.5468	-6.50936	26.03744	18.71441	-29.29212	9.76404	6.50936	-21.96909	5.69569	73.2303	34.98781	22.78276	0
711	-34.98781	-6.50936	28.47845	18.71441	-31.73313	9.76404	4.06835	-21.96909	3.25468	73.2303	32.5468	20.34175	0
712	-37.42882	-6.50936	30.91946	21.15542	-34.17414	12.20505	4.06835	-19.52808	3.25468	70.78929	30.10579	20.34175	0
713	-37.42882	-6.50936	30.91946	21.15542	-34.17414	12.20505	4.06835	-11.39138	5.69569	73.2303	32.5468	20.34175	0
714	-37.42882	-6.50936	30.91946	21.15542	-34.17414	12.20505	4.06835	-8.95037	5.69569	75.67131	34.98781	20.34175	0
715	-39.86983	-11.39138	28.47845	23.59643	-34.17414	6.50936	4.06835	-6.50936	8.95037	78.11232	34.98781	20.34175	0
716	-39.86983	-16.2734	23.59643	26.03744	-31.73313	1.62734	6.50936	-4.06835	8.95037	80.55333	34.98781	17.90074	0
717	-32.5468	-13.83239	17.90074	21.15542	-26.85111	1.62734	8.95037	0.81367	11.39138	80.55333	34.98781	17.90074	0
718	-24.4101	-8.95037	15.45973	15.45973	-21.15542	4.06835	13.83239	5.69569	13.83239	82.99434	37.42882	20.34175	0
719	-24.4101	-16.2734	8.1367	18.71441	-16.2734	-3.25468	13.83239	0.81367	11.39138	80.55333	34.98781	17.90074	0
720	-24.4101	-18.71441	5.69569	21.15542	-16.2734	-5.69569	13.83239	-6.50936	11.39138	80.55333	34.98781	17.90074	0
721	-21.96909	-11.39138	10.57771	15.45973	-16.2734	-0.81367	18.71441	-6.50936	11.39138	80.55333	34.98781	17.90074	0
722	-21.96909	-3.25468	17.90074	13.01872	-18.71441	6.50936	18.71441	-4.06835	11.39138	80.55333	37.42882	22.78276	0
723	-19.52808	-0.81367	17.90074	10.57771	-18.71441	9.76404	18.71441	5.69569	13.83239	80.55333	39.86983	25.22377	0
724	-17.08707	-0.81367	15.45973	8.1367	-16.2734	6.50936	18.71441	8.1367	16.2734	80.55333	42.31084	27.66478	0
725	-12.20505	1.62734	13.01872	5.69569	-11.39138	6.50936	16.2734	10.57771	18.71441	80.55333	42.31084	27.66478	0
726	-2.44101	8.95037	10.57771	-4.06835	-6.50936	9.76404	16.2734	13.01872	23.59643	82.99434	44.75185	27.66478	0
727	-2.44101	1.62734	3.25468	0.81367	-1.62734	1.62734	13.83239	13.01872	23.59643	80.55333	42.31084	25.22377	0
728	-4.88202	-11.39138	-6.50936	8.1367	0.81367	-8.1367	13.83239	13.01872	26.03744	75.67131	39.86983	17.90074	0
729	-4.88202	-18.71441	-13.83239	10.57771	3.25468	-15.45973	11.39138	10.57771	28.47845	70.78929	37.42882	15.45973	0
730	-7.32303	-26.03744	-18.71441	15.45973	5.69569	-22.78276	8.95037	0.81367	28.47845	65.90727	34.98781	13.01872	0
731	-14.64606	-28.47845	-13.83239	21.15542	-1.62734	-20.34175	6.50936	-1.62734	28.47845	63.46626	34.98781	13.01872	0
732	-19.52808	-28.47845	-8.95037	23.59643	-6.50936	-17.90074	6.50936	-1.62734	28.47845	61.02525	34.98781	10.57771	0
733	-21.96909	-23.59643	-1.62734	21.15542	-11.39138	-13.01872	4.06835	5.69569	28.47845	61.02525	34.98781	10.57771	0
734	-12.20505	-11.39138	0.81367	10.57771	-6.50936	-5.69569	4.06835	10.57771	28.47845	61.02525	37.42882	13.01872	0
735	-2.44101	-6.50936	-4.06835	3.25468	0.81367	-5.69569	0.81367	10.57771	26.03744	61.02525	37.42882	15.45973	0
736	2.44101	-6.50936	-8.95037	0.81367	5.69569	-8.1367	0.81367	13.01872	26.03744	58.58424	37.42882	15.45973	0
737	4.88202	-6.50936	-11.39138	0.81367	8.1367	-8.1367	0.81367	15.45973	23.59643	58.58424	37.42882	13.01872	0
738	9.76404	-6.50936	-16.2734	-1.62734	13.01872	-10.57771	0.81367	17.90074	23.59643	58.58424	37.42882	13.01872	0
739	14.64606	-13.83239	-28.47845	-1.62734	20.34175	-20.34175	0.81367	15.45973	23.59643	58.58424	37.42882	13.01872	0
740	12.20505	-18.71441	-30.91946	3.25468	20.34175	-25.22377	4.06835	10.57771	26.03744	58.58424	37.42882	13.01872	0
741	4.88202	-26.03744	-30.91946	10.57771	17.90074	-27.66478	4.06835	8.1367	23.59643	58.58424	37.42882	15.45973	0
742	-4.88202	-30.91946	-26.03744	15.45973	10.57771	-27.66478	0.81367	10.57771	21.15542	56.14323	37.42882	15.45973	0
743	-4.88202	-28.47845	-23.59643	15.45973	8.1367	-25.22377	0.81367	17.90074	21.15542	56.14323	37.42882	15.45973	0
744	0	-26.03744	-26.03744	13.01872	13.01872	-25.22377	0.81367	20.34175	21.15542	58.58424	37.42882	17.90074	0
745	4.88202	-23.59643	-28.47845	8.1367	15.45973	-25.22377	0.81367	20.34175	18.71441	56.14323	37.42882	17.90074	0
746	7.32303	-23.59643	-30.91946	8.1367	17.90074	-27.66478	-1.62734	20.34175	16.2734	53.70222	37.42882	17.90074	0
747	9.76404	-23.59643	-33.36047	5.69569	20.34175	-27.66478	-4.06835	20.34175	16.2734	53.70222	37.42882	17.90074	0
748	19.52808	-23.59643	-43.12451	0.81367	30.10579	-32.5468	0.81367	22.78276	21.15542	51.26121	39.86983	17.90074	0
749	24.4101	-26.03744	-50.44754	0.81367	37.42882	-37.42882	0.81367	20.34175	21.15542	51.26121	39.86983	20.34175	0
750	17.08707	-33.36047	-50.44754	8.1367	32.5468	-42.31084	0.81367	13.01872	23.59643	48.8202	39.86983	17.90074	0
751	12.20505	-35.80148	-48.00653	10.57771	30.10579	-42.31084	0.81367	8.1367	23.59643	48.8202	39.86983	15.45973	0
752	-2.44101	-45.56552	-43.12451	23.59643	20.34175	-44.75185	0.81367	8.1367	21.15542	46.37919	37.42882	13.01872	0
753	-14.64606	-57.77057	-43.12451	35.80148	13.01872	-49.63387	0.81367	13.01872	21.15542	43.93818	34.98781	10.57771	0
754	-21.96909	-65.0936	-43.12451	43.12451	10.57771	-54.51589	-1.62734	13.01872	18.71441	41.49717	34.98781	8.1367	0
755	-27.66478	-65.0936	-38.24249	45.56552	5.69569	-52.07488	-6.50936	10.57771	16.2734	41.49717	30.10579	3.25468	0
756	-24.4101	-62.65259	-38.24249	43.12451	5.69569	-49.63387	-8.95037	10.57771	16.2734	41.49717	30.10579	3.25468	0
757	-24.4101	-62.65259	-38.24249	43.12451	5.69569	-49.63387	-8.95037	10.57771	16.2734	39.05616	30.10579	3.25468	0
758	-14.64606	-60.21158	-45.56552	35.80148	15.45973	-52.07488	-6.50936	13.01872	16.2734	39.05616	30.10579	5.69569	0
759	4.88202	-50.44754	-55.32956	21.15542	30.10579	-52.07488	-1.62734	13.01872	21.15542	43.93818	34.98781	8.1367	0
760	14.64606	-40.6835	-55.32956	13.01872	34.98781	-47.19286	0.81367	8.1367	21.15542	46.37919	37.42882	10.57771	0
761	12.20505	-40.6835	-52.88855	13.01872	32.5468	-47.19286	4.06835	0.81367	21.15542	43.93818	37.42882	8.1367	0
762	9.76404	-40.6835	-50.44754	15.45973	30.10579	-44.75185	4.06835	0.81367	21.15542	43.93818	34.98781	3.25468	0
763	2.44101	-48.00653	-50.44754	21.15542	25.22377	-49.63387	6.50936	3.25468	21.15542	41.49717	32.5468	0.81367	0
764	-2.44101	-52.88855	-50.44754	26.03744	22.78276	-52.07488	4.06835	0.81367	21.15542	39.05616	30.10579	-4.88202	0
765	-9.76404	-60.21158	-50.44754	33.36047	20.34175	-54.51589	0.81367	-4.06835	18.71441	36.61515	25.22377	-9.76404	0
766	-19.52808	-65.0936	-45.56552	40.6835	13.01872	-54.51589	-1.62734	-4.06835	18.71441	34.17414	20.34175	-12.20505	0
767	-21.96909	-69.97562	-48.00653	45.56552	13.01872	-59.39791	-1.62734	-4.06835	18.71441	34.17414	20.34175	-12.20505	0
768	-19.52808	-69.97562	-50.44754	43.12451	15.45973	-59.39791	-4.06835	-4.06835	18.71441	34.17414	20.34175	-9.76404	0
769	-12.20505	-67.53461	-55.32956	38.24249	20.34175	-61.83892	-4.06835	-4.06835	21.15542	34.17414	22.78276	-7.32303	0
770	-7.32303	-65.0936	-57.77057	35.80148	25.22377	-61.83892	-1.62734	-8.95037	23.59643	36.61515	25.22377	-4.88202	0
771	-9.76404	-65.0936	-55.32956	35.80148	22.78276	-59.39791	-1.62734	-11.39138	23.59643	36.61515	25.22377	-1.62734	0
772	-14.64606	-65.0936	-50.44754	38.24249	17.90074	-56.9569	-1.62734	-13.83239	23.59643	34.17414	25.22377	-1.62734	0
773	-14.64606	-62.65259	-48.00653	38.24249	15.45973	-54.51589	-1.62734	-13.83239	23.59643	31.73313	25.22377	-1.62734	0
774	-17.08707	-62.65259	-45.56552	38.24249	13.01872	-54.51589	-4.06835	-11.39138	23.59643	31.73313	25.22377	-1.62734	0
775	-24.4101	-67.53461	-43.12451	45.56552	8.1367	-54.51589	-6.50936	-13.83239	21.15542	29.29212	25.22377	-4.88202	0
776	-27.66478	-72.41663	-45.56552	48.00653	8.1367	-59.39791	-8.95037	-19.52808	18.71441	24.4101	22.78276	-4.88202	0
777	-30.10579	-72.41663	-43.12451	50.44754	5.69569	-59.39791	-8.95037	-19.52808	18.71441	21.96909	20.34175	-4.88202	0
778	-27.66478	-67.53461	-40.6835	45.56552	5.69569	-54.51589	-8.95037	-19.52808	21.15542	21.96909	20.34175	-7.32303	0
779	-24.4101	-65.0936	-40.6835	43.12451	8.1367	-52.07488	-8.95037	-16.2734	23.59643	21.96909	20.34175	-7.32303	0
780	-24.4101	-65.0936	-40.6835	43.12451	8.1367	-52.07488	-8.95037	-19.52808	26.03744	21.96909	20.34175	-9.76404	0
781	-27.66478	-67.53461	-40.6835	45.56552	5.69569	-54.51589	-6.50936	-21.96909	28.47845	24.4101	22.78276	-9.76404	0
782	-27.66478	-65.0936	-38.24249	45.56552	5.69569	-52.07488	-6.50936	-21.96909	28.47845	26.85111	22.78276	-7.32303	0
783	-32.5468	-67.53461	-35.80148	48.00653	0.81367	-52.07488	-6.50936	-19.52808	30.91946	26.85111	22.78276	-4.88202	0
784	-37.42882	-72.41663	-35.80148	52.88855	-1.62734	-54.51589	-6.50936	-21.96909	30.91946	26.85111	22.78276	-4.88202	0
785	-37.42882	-74.85764	-38.24249	55.32956	0.81367	-56.9569	-8.95037	-24.4101	33.36047	29.29212	22.78276	-4.88202	0
786	-37.42882	-77.29865	-40.6835	55.32956	0.81367	-59.39791	-8.95037	-26.85111	35.80148	29.29212	27.66478	-1.62734	0
787	-37.42882	-74.85764	-38.24249	55.32956	0.81367	-56.9569	-8.95037	-26.85111	35.80148	31.73313	27.66478	0.81367	0
788	-30.10579	-69.97562	-40.6835	48.00653	5.69569	-56.9569	-6.50936	-26.85111	40.6835	34.17414	30.10579	3.25468	0
789	-27.66478	-69.97562	-43.12451	48.00653	8.1367	-56.9569	-6.50936	-29.29212	40.6835	36.61515	32.5468	5.69569	0
790	-27.66478	-72.41663	-45.56552	48.00653	8.1367	-59.39791	-6.50936	-34.17414	43.12451	36.61515	32.5468	5.69569	0
791	-27.66478	-67.53461	-40.6835	45.56552	5.69569	-54.51589	-4.06835	-34.17414	48.00653	41.49717	34.98781	8.1367	0
792	-30.10579	-65.0936	-35.80148	45.56552	3.25468	-52.07488	-1.62734	-34.17414	50.44754	41.49717	37.42882	8.1367	0
793	-30.10579	-57.77057	-28.47845	43.12451	-1.62734	-44.75185	0.81367	-26.85111	52.88855	46.37919	37.42882	13.01872	0
794	-27.66478	-48.00653	-21.15542	35.80148	-4.06835	-34.98781	0.81367	-21.96909	57.77057	48.8202	39.86983	13.01872	0
795	-24.4101	-38.24249	-13.83239	30.91946	-6.50936	-25.22377	6.50936	-19.52808	62.65259	51.26121	39.86983	15.45973	0
796	-12.20505	-21.15542	-8.95037	15.45973	-1.62734	-15.45973	11.39138	-13.83239	69.97562	56.14323	44.75185	20.34175	0
797	-9.76404	-16.2734	-6.50936	13.01872	-1.62734	-10.57771	16.2734	-11.39138	74.85764	58.58424	47.19286	22.78276	0
798	-4.88202	-8.95037	-4.06835	5.69569	-1.62734	-5.69569	18.71441	-6.50936	77.29865	58.58424	47.19286	22.78276	0
799	-4.88202	-8.95037	-4.06835	5.69569	-1.62734	-5.69569	21.15542	-4.06835	77.29865	56.14323	44.75185	22.78276	0
800	-4.88202	-6.50936	-1.62734	5.69569	-1.62734	-3.25468	21.15542	-8.95037	77.29865	53.70222	39.86983	20.34175	0
801	-4.88202	-3.25468	0.81367	3.25468	-1.62734	-0.81367	26.03744	-8.95037	79.73966	53.70222	39.86983	20.34175	0
802	-7.32303	-3.25468	3.25468	5.69569	-4.06835	-0.81367	26.03744	-6.50936	82.18067	51.26121	39.86983	20.34175	0
803	-7.32303	4.06835	10.57771	0.81367	-8.95037	6.50936	28.47845	-1.62734	84.62168	48.8202	39.86983	20.34175	0
804	0	13.83239	13.01872	-6.50936	-6.50936	14.64606	30.91946	3.25468	84.62168	48.8202	39.86983	20.34175	0
805	4.88202	18.71441	13.01872	-11.39138	-4.06835	17.08707	30.91946	5.69569	84.62168	48.8202	39.86983	20.34175	0
806	4.88202	18.71441	13.01872	-11.39138	-4.06835	17.08707	30.91946	5.69569	84.62168	43.93818	37.42882	20.34175	0
807	14.64606	28.47845	13.01872	-21.15542	0.81367	21.96909	30.91946	13.01872	84.62168	43.93818	37.42882	22.78276	0
808	26.85111	35.80148	8.1367	-30.91946	10.57771	21.96909	33.36047	20.34175	87.06269	43.93818	37.42882	22.78276	0
809	31.73313	33.36047	0.81367	-33.36047	15.45973	17.08707	33.36047	20.34175	87.06269	41.49717	34.98781	22.78276	0
810	29.29212	28.47845	-1.62734	-28.47845	15.45973	14.64606	30.91946	17.90074	84.62168	39.05616	30.10579	17.90074	0
811	17.08707	21.15542	3.25468	-18.71441	8.1367	12.20505	30.91946	17.90074	79.73966	31.73313	22.78276	10.57771	0
812	14.64606	18.71441	3.25468	-16.2734	5.69569	12.20505	30.91946	20.34175	79.73966	31.73313	22.78276	8.1367	0
813	17.08707	18.71441	0.81367	-18.71441	8.1367	9.76404	30.91946	27.66478	79.73966	29.29212	20.34175	8.1367	0
814	19.52808	26.03744	5.69569	-23.59643	8.1367	17.08707	26.03744	30.10579	77.29865	26.85111	20.34175	8.1367	0
815	24.4101	38.24249	13.01872	-30.91946	5.69569	26.85111	21.15542	32.5468	74.85764	24.4101	20.34175	8.1367	0
816	39.05616	55.32956	15.45973	-48.00653	13.01872	36.61515	18.71441	34.98781	74.85764	24.4101	22.78276	10.57771	0
817	53.70222	72.41663	17.90074	-62.65259	17.90074	46.37919	13.83239	39.86983	77.29865	24.4101	25.22377	15.45973	0
818	65.90727	89.5037	23.59643	-77.29865	22.78276	56.14323	8.95037	44.75185	77.29865	26.85111	27.66478	17.90074	0
819	75.67131	104.14976	28.47845	-89.5037	25.22377	65.90727	6.50936	47.19286	77.29865	31.73313	32.5468	22.78276	0
820	75.67131	101.70875	26.03744	-89.5037	25.22377	63.46626	0.81367	42.31084	74.85764	29.29212	30.10579	20.34175	0
821	68.34828	94.38572	26.03744	-82.18067	22.78276	61.02525	-6.50936	34.98781	67.53461	21.96909	25.22377	13.01872	0
822	58.58424	89.5037	30.91946	-74.85764	15.45973	61.02525	-13.83239	30.10579	60.21158	14.64606	15.45973	8.1367	0
823	56.14323	87.06269	30.91946	-72.41663	13.01872	58.58424	-18.71441	30.10579	55.32956	6.50936	10.57771	3.25468	0
824	63.46626	94.38572	30.91946	-79.73966	17.90074	63.46626	-21.15542	30.10579	50.44754	6.50936	8.1367	0.81367	0
825	65.90727	94.38572	28.47845	-79.73966	20.34175	61.02525	-28.47845	22.78276	45.56552	-3.25468	2.44101	-4.88202	0
826	68.34828	94.38572	26.03744	-82.18067	22.78276	61.02525	-35.80148	15.45973	38.24249	-13.01872	-4.88202	-9.76404	0
827	70.78929	94.38572	23.59643	-82.18067	25.22377	58.58424	-40.6835	13.01872	38.24249	-15.45973	-7.32303	-9.76404	0
828	70.78929	87.06269	15.45973	-79.73966	27.66478	51.26121	-43.12451	10.57771	38.24249	-17.90074	-9.76404	-12.20505	0
829	73.2303	79.73966	5.69569	-77.29865	34.98781	43.93818	-43.12451	3.25468	35.80148	-20.34175	-12.20505	-14.64606	0
830	63.46626	65.0936	0.81367	-65.0936	32.5468	34.17414	-48.00653	-11.39138	33.36047	-25.22377	-17.08707	-19.52808	0
831	56.14323	52.88855	-4.06835	-55.32956	30.10579	24.4101	-48.00653	-19.52808	33.36047	-27.66478	-19.52808	-21.96909	0
832	51.26121	43.12451	-8.95037	-48.00653	30.10579	17.08707	-48.00653	-26.85111	33.36047	-27.66478	-19.52808	-24.4101	0
833	48.8202	35.80148	-13.83239	-43.12451	32.5468	12.20505	-50.44754	-31.73313	33.36047	-30.10579	-21.96909	-26.85111	0
834	46.37919	30.91946	-16.2734	-38.24249	32.5468	6.50936	-50.44754	-36.61515	33.36047	-30.10579	-21.96909	-29.29212	0
835	46.37919	30.91946	-16.2734	-38.24249	32.5468	6.50936	-52.88855	-43.93818	33.36047	-32.5468	-21.96909	-29.29212	0
836	48.8202	30.91946	-18.71441	-40.6835	34.98781	6.50936	-52.88855	-46.37919	33.36047	-32.5468	-21.96909	-29.29212	0
837	48.8202	26.03744	-23.59643	-38.24249	37.42882	1.62734	-52.88855	-46.37919	35.80148	-30.10579	-21.96909	-29.29212	0
838	43.93818	16.2734	-28.47845	-30.91946	37.42882	-5.69569	-57.77057	-51.26121	35.80148	-34.98781	-24.4101	-31.73313	0
839	34.17414	1.62734	-33.36047	-18.71441	34.98781	-15.45973	-60.21158	-58.58424	33.36047	-37.42882	-26.85111	-36.61515	0
840	14.64606	-16.2734	-30.91946	0.81367	22.78276	-22.78276	-60.21158	-65.90727	33.36047	-39.86983	-29.29212	-39.05616	0
841	2.44101	-33.36047	-35.80148	15.45973	17.90074	-34.98781	-60.21158	-70.78929	33.36047	-42.31084	-29.29212	-41.49717	0
842	-9.76404	-45.56552	-35.80148	26.03744	13.01872	-39.86983	-60.21158	-78.11232	35.80148	-42.31084	-29.29212	-41.49717	0
843	-27.66478	-62.65259	-35.80148	43.12451	3.25468	-49.63387	-60.21158	-82.99434	35.80148	-44.75185	-29.29212	-41.49717	0
844	-34.98781	-72.41663	-38.24249	52.88855	0.81367	-56.9569	-62.65259	-85.43535	38.24249	-44.75185	-29.29212	-41.49717	0
845	-37.42882	-72.41663	-35.80148	52.88855	-1.62734	-54.51589	-57.77057	-87.87636	43.12451	-39.86983	-21.96909	-36.61515	0
846	-39.86983	-77.29865	-38.24249	57.77057	-1.62734	-59.39791	-52.88855	-87.87636	45.56552	-37.42882	-19.52808	-31.73313	0
847	-44.75185	-82.18067	-38.24249	62.65259	-4.06835	-61.83892	-50.44754	-87.87636	50.44754	-34.98781	-17.08707	-29.29212	0
848	-52.07488	-89.5037	-38.24249	69.97562	-6.50936	-64.27993	-50.44754	-90.31737	50.44754	-34.98781	-17.08707	-31.73313	0
849	-54.51589	-91.94471	-38.24249	72.41663	-8.95037	-66.72094	-45.56552	-90.31737	52.88855	-32.5468	-14.64606	-31.73313	0
850	-56.9569	-91.94471	-35.80148	72.41663	-11.39138	-64.27993	-40.6835	-90.31737	57.77057	-27.66478	-9.76404	-29.29212	0
851	-66.72094	-96.82673	-30.91946	79.73966	-18.71441	-64.27993	-38.24249	-92.75838	60.21158	-27.66478	-12.20505	-29.29212	0
852	-78.92599	-104.14976	-26.03744	89.5037	-26.85111	-66.72094	-38.24249	-92.75838	60.21158	-30.10579	-12.20505	-29.29212	0
853	-83.80801	-104.14976	-21.15542	91.94471	-31.73313	-64.27993	-38.24249	-87.87636	60.21158	-30.10579	-12.20505	-29.29212	0
854	-83.80801	-104.14976	-21.15542	91.94471	-31.73313	-64.27993	-38.24249	-87.87636	60.21158	-30.10579	-12.20505	-29.29212	0
855	-86.24902	-106.59077	-21.15542	94.38572	-34.17414	-64.27993	-38.24249	-90.31737	60.21158	-32.5468	-12.20505	-26.85111	0
856	-96.01306	-116.35481	-21.15542	104.14976	-39.05616	-69.16195	-40.6835	-95.19939	57.77057	-37.42882	-12.20505	-29.29212	0
857	-96.01306	-121.23683	-26.03744	106.59077	-36.61515	-74.04397	-40.6835	-95.19939	57.77057	-37.42882	-12.20505	-29.29212	0
858	-88.69003	-116.35481	-28.47845	101.70875	-31.73313	-74.04397	-35.80148	-95.19939	60.21158	-34.98781	-9.76404	-26.85111	0
859	-81.367	-113.9138	-33.36047	96.82673	-24.4101	-74.04397	-33.36047	-95.19939	62.65259	-34.98781	-7.32303	-26.85111	0
860	-83.80801	-116.35481	-33.36047	99.26774	-26.85111	-76.48498	-28.47845	-97.6404	65.0936	-32.5468	-2.44101	-24.4101	0
861	-88.69003	-116.35481	-28.47845	101.70875	-31.73313	-74.04397	-26.03744	-97.6404	69.97562	-30.10579	0	-21.96909	0
862	-88.69003	-113.9138	-26.03744	99.26774	-31.73313	-71.60296	-23.59643	-95.19939	72.41663	-30.10579	0	-19.52808	0
863	-88.69003	-116.35481	-28.47845	101.70875	-31.73313	-74.04397	-21.15542	-90.31737	77.29865	-27.66478	2.44101	-17.08707	0
864	-96.01306	-123.67784	-28.47845	109.03178	-34.17414	-76.48498	-18.71441	-90.31737	77.29865	-27.66478	2.44101	-17.08707	0
865	-100.89508	-133.44188	-33.36047	116.35481	-34.17414	-83.80801	-18.71441	-90.31737	77.29865	-27.66478	2.44101	-17.08707	0
866	-108.21811	-138.3239	-30.91946	121.23683	-39.05616	-86.24902	-18.71441	-90.31737	77.29865	-27.66478	2.44101	-17.08707	0
867	-105.7771	-138.3239	-33.36047	121.23683	-36.61515	-86.24902	-18.71441	-87.87636	77.29865	-25.22377	2.44101	-17.08707	0
868	-105.7771	-143.20592	-38.24249	123.67784	-34.17414	-91.13104	-16.2734	-87.87636	77.29865	-25.22377	2.44101	-17.08707	0
869	-105.7771	-143.20592	-38.24249	123.67784	-34.17414	-91.13104	-16.2734	-85.43535	77.29865	-22.78276	2.44101	-19.52808	0
870	-103.33609	-138.3239	-35.80148	118.79582	-34.17414	-88.69003	-16.2734	-85.43535	77.29865	-20.34175	2.44101	-19.52808	0
871	-100.89508	-135.88289	-35.80148	116.35481	-34.17414	-86.24902	-13.83239	-82.99434	79.73966	-17.90074	5.69569	-17.08707	0
872	-100.89508	-131.00087	-30.91946	113.9138	-36.61515	-81.367	-11.39138	-80.55333	84.62168	-15.45973	8.1367	-14.64606	0
873	-103.33609	-135.88289	-33.36047	118.79582	-36.61515	-86.24902	-11.39138	-73.2303	84.62168	-15.45973	8.1367	-14.64606	0
874	-100.89508	-133.44188	-33.36047	116.35481	-34.17414	-83.80801	-11.39138	-70.78929	87.06269	-13.01872	8.1367	-14.64606	0
875	-93.57205	-126.11885	-33.36047	109.03178	-31.73313	-81.367	-8.95037	-68.34828	87.06269	-13.01872	10.57771	-12.20505	0
876	-91.13104	-126.11885	-35.80148	106.59077	-29.29212	-81.367	-8.95037	-70.78929	89.5037	-13.01872	10.57771	-9.76404	0
877	-91.13104	-126.11885	-35.80148	106.59077	-29.29212	-81.367	-8.95037	-70.78929	87.06269	-13.01872	10.57771	-9.76404	0
878	-91.13104	-126.11885	-35.80148	106.59077	-29.29212	-81.367	-8.95037	-70.78929	84.62168	-13.01872	8.1367	-9.76404	0
879	-86.24902	-123.67784	-38.24249	104.14976	-24.4101	-81.367	-8.95037	-73.2303	84.62168	-13.01872	8.1367	-9.76404	0
880	-86.24902	-121.23683	-35.80148	101.70875	-26.85111	-78.92599	-8.95037	-78.11232	84.62168	-10.57771	8.1367	-9.76404	0
881	-86.24902	-123.67784	-38.24249	104.14976	-24.4101	-81.367	-8.95037	-78.11232	87.06269	-8.1367	8.1367	-9.76404	0
882	-91.13104	-126.11885	-35.80148	106.59077	-29.29212	-81.367	-8.95037	-78.11232	87.06269	-8.1367	8.1367	-9.76404	0
883	-93.57205	-128.55986	-35.80148	109.03178	-29.29212	-83.80801	-6.50936	-73.2303	89.5037	-8.1367	8.1367	-7.32303	0
884	-93.57205	-128.55986	-35.80148	109.03178	-29.29212	-83.80801	-6.50936	-73.2303	89.5037	-8.1367	8.1367	-7.32303	0
885	-96.01306	-128.55986	-33.36047	111.47279	-31.73313	-81.367	-6.50936	-73.2303	89.5037	-8.1367	8.1367	-9.76404	0
886	-100.89508	-135.88289	-35.80148	116.35481	-34.17414	-86.24902	-6.50936	-75.67131	87.06269	-8.1367	8.1367	-9.76404	0
887	-100.89508	-135.88289	-35.80148	116.35481	-34.17414	-86.24902	-1.62734	-70.78929	89.5037	-8.1367	8.1367	-9.76404	0
888	-98.45407	-138.3239	-40.6835	116.35481	-29.29212	-91.13104	0.81367	-65.90727	91.94471	-5.69569	10.57771	-9.76404	0
889	-96.01306	-145.64693	-50.44754	118.79582	-24.4101	-98.45407	8.95037	-56.14323	96.82673	-3.25468	13.01872	-9.76404	0
890	-96.01306	-160.29299	-65.0936	126.11885	-16.2734	-113.10013	18.71441	-43.93818	101.70875	-0.81367	13.01872	-12.20505	0
891	-93.57205	-170.05703	-77.29865	131.00087	-8.95037	-125.30518	33.36047	-19.52808	106.59077	1.62734	13.01872	-14.64606	0
892	-88.69003	-172.49804	-84.62168	128.55986	-1.62734	-130.1872	52.88855	17.90074	116.35481	6.50936	15.45973	-12.20505	0
893	-81.367	-177.38006	-96.82673	128.55986	8.1367	-137.51023	72.41663	66.72094	123.67784	12.20505	17.90074	-14.64606	0
894	-76.48498	-187.1441	-111.47279	131.00087	17.90074	-149.71528	91.94471	122.86417	131.00087	12.20505	13.01872	-19.52808	0
895	-66.72094	-196.90814	-131.00087	131.00087	32.5468	-164.36134	111.47279	191.21245	133.44188	12.20505	8.1367	-29.29212	0
896	-47.19286	-199.34915	-152.96996	121.23683	52.07488	-176.56639	131.00087	269.32477	138.3239	9.76404	2.44101	-39.05616	0
897	-17.08707	-196.90814	-179.82107	106.59077	81.367	-188.77144	152.96996	366.96517	143.20592	9.76404	-2.44101	-46.37919	0
898	21.96909	-199.34915	-221.31824	87.06269	120.42316	-210.74053	177.38006	476.81062	148.08794	6.50936	-9.76404	-56.14323	0
899	65.90727	-199.34915	-265.25642	65.0936	164.36134	-232.70962	206.67218	601.30213	152.96996	1.62734	-21.96909	-73.2303	0
900	126.93252	-187.1441	-314.07662	28.47845	220.50457	-249.79669	235.9643	737.99869	157.85198	-0.81367	-34.17414	-85.43535	0
901	197.72181	-162.734	-360.45581	-18.71441	279.08881	-262.00174	262.81541	884.45929	160.29299	-5.69569	-48.8202	-102.52242	0
902	278.27514	-123.67784	-401.95298	-77.29865	340.11406	-262.00174	284.7845	1038.24292	160.29299	-13.01872	-65.90727	-122.0505	0
903	373.47453	-77.29865	-450.77318	-148.08794	410.90335	-264.44275	296.98955	1194.46756	155.41097	-25.22377	-85.43535	-144.01959	0
904	480.87897	-18.71441	-499.59338	-231.08228	489.01567	-259.56073	301.87157	1338.48715	145.64693	-37.42882	-107.40444	-170.8707	0
905	605.37048	55.32956	-550.85459	-331.16369	579.33304	-247.35568	292.10753	1465.41967	128.55986	-54.51589	-134.25555	-197.72181	0
906	739.62603	143.20592	-597.23378	-441.00914	669.65041	-227.8276	255.49238	1575.26512	96.82673	-81.367	-165.98868	-229.45494	0
907	871.44057	228.64127	-643.61297	-550.85459	757.52677	-208.29952	189.58511	1641.17239	48.00653	-115.54114	-205.04484	-263.62908	0
908	988.60905	323.84066	-665.58206	-655.81802	828.31606	-171.68437	104.14976	1636.29037	0.81367	-149.71528	-234.33696	-288.03918	0
909	1061.83935	406.835	-655.81802	-733.93034	860.04919	-125.30518	11.39138	1550.85502	-48.00653	-176.56639	-256.30605	-300.24423	0
910	1083.80844	462.97823	-621.64388	-772.9865	852.72616	-78.92599	-87.06269	1389.74836	-91.94471	-198.53548	-266.07009	-302.68524	0
911	1052.07531	492.27035	-560.61863	-772.9865	806.34697	-34.98781	-184.70309	1174.93948	-133.44188	-215.62255	-270.95211	-292.9212	0
912	956.87592	487.38833	-470.30126	-721.72529	713.58859	9.76404	-275.02046	903.98737	-165.17501	-222.94558	-256.30605	-268.5111	0
913	812.85633	460.53722	-353.13278	-636.28994	584.21506	53.70222	-338.48672	579.33304	-172.49804	-210.74053	-224.57292	-227.01393	0
914	624.89856	411.71702	-213.99521	-519.12146	420.66739	100.08141	-377.54288	230.26861	-162.734	-181.44841	-175.75272	-168.42969	0
915	434.49978	348.25076	-87.06269	-392.18894	262.00174	131.81454	-399.51197	-82.99434	-145.64693	-149.71528	-122.0505	-109.84545	0
916	251.42403	287.22551	35.80148	-270.13844	108.21811	161.10666	-409.27601	-356.38746	-121.23683	-113.10013	-68.34828	-48.8202	0
917	85.43535	226.20026	140.76491	-155.41097	-26.85111	183.07575	-409.27601	-583.40139	-96.82673	-76.48498	-14.64606	5.69569	0
918	-49.63387	172.49804	221.31824	-62.65259	-134.25555	195.2808	-404.39399	-761.59512	-74.85764	-47.19286	25.22377	49.63387	0
919	-147.27427	131.00087	277.46147	8.1367	-212.36787	202.60383	-397.07096	-890.96865	-55.32956	-25.22377	59.39791	86.24902	0
920	-215.62255	94.38572	309.1946	60.21158	-261.18807	200.16282	-387.30692	-949.55289	-43.12451	-10.57771	81.367	105.7771	0
921	-259.56073	62.65259	321.39965	96.82673	-290.48019	190.39878	-372.66086	-956.87592	-33.36047	-5.69569	91.13104	115.54114	0
922	-288.85285	33.36047	321.39965	126.11885	-305.12625	175.75272	-353.13278	-930.02481	-28.47845	-5.69569	91.13104	110.65912	0
923	-291.29386	16.2734	306.75359	135.88289	-297.80322	161.10666	-328.72268	-868.99956	-21.15542	-10.57771	83.80801	103.33609	0
924	-281.52982	8.95037	289.66652	135.88289	-285.59817	148.90161	-301.87157	-790.88724	-16.2734	-10.57771	76.48498	91.13104	0
925	-266.88376	6.50936	272.57945	128.55986	-268.5111	139.13757	-267.69743	-705.45189	-6.50936	-8.1367	71.60296	83.80801	0
926	-252.2377	8.95037	260.3744	121.23683	-256.30605	134.25555	-231.08228	-617.57553	5.69569	-5.69569	66.72094	76.48498	0
927	-237.59164	11.39138	248.16935	111.47279	-241.65999	129.37353	-194.46713	-527.25816	16.2734	-0.81367	64.27993	69.16195	0
928	-218.06356	16.2734	233.52329	99.26774	-224.57292	124.49151	-162.734	-446.70483	30.91946	6.50936	64.27993	64.27993	0
929	-200.97649	21.15542	221.31824	89.5037	-209.92686	119.60949	-133.44188	-385.67958	40.6835	9.76404	64.27993	61.83892	0
930	-196.09447	21.15542	216.43622	87.06269	-205.04484	117.16848	-109.03178	-344.18241	52.88855	19.52808	69.16195	61.83892	0
931	-191.21245	23.59643	213.99521	82.18067	-202.60383	117.16848	-89.5037	-312.44928	62.65259	24.4101	71.60296	64.27993	0
932	-186.33043	26.03744	211.5542	79.73966	-197.72181	117.16848	-72.41663	-285.59817	72.41663	29.29212	74.04397	66.72094	0
933	-183.88942	26.03744	209.11319	77.29865	-195.2808	117.16848	-57.77057	-261.18807	79.73966	34.17414	76.48498	66.72094	0
934	-181.44841	26.03744	206.67218	77.29865	-192.83979	114.72747	-48.00653	-246.54201	82.18067	36.61515	76.48498	66.72094	0
935	-179.0074	23.59643	201.79016	77.29865	-190.39878	112.28646	-38.24249	-231.89595	84.62168	39.05616	76.48498	66.72094	0
936	-176.56639	16.2734	192.02612	79.73966	-183.07575	102.52242	-33.36047	-224.57292	87.06269	39.05616	76.48498	64.27993	0
937	-176.56639	8.95037	184.70309	82.18067	-180.63474	95.19939	-30.91946	-219.6909	87.06269	39.05616	71.60296	61.83892	0
938	-179.0074	-3.25468	174.93905	89.5037	-175.75272	85.43535	-26.03744	-214.80888	84.62168	39.05616	71.60296	59.39791	0
939	-179.0074	-11.39138	167.61602	94.38572	-173.31171	78.11232	-26.03744	-212.36787	84.62168	39.05616	66.72094	54.51589	0
940	-179.0074	-16.2734	162.734	96.82673	-170.8707	73.2303	-23.59643	-212.36787	89.5037	39.05616	66.72094	54.51589	0
941	-183.88942	-23.59643	160.29299	101.70875	-173.31171	68.34828	-21.15542	-212.36787	91.94471	39.05616	66.72094	54.51589	0
942	-183.88942	-26.03744	157.85198	104.14976	-170.8707	65.90727	-18.71441	-209.92686	96.82673	41.49717	66.72094	54.51589	0
943	-181.44841	-21.15542	160.29299	99.26774	-170.8707	68.34828	-16.2734	-202.60383	101.70875	43.93818	69.16195	56.9569	0
944	-174.12538	-11.39138	162.734	91.94471	-168.42969	75.67131	-16.2734	-200.16282	104.14976	46.37919	71.60296	59.39791	0
945	-174.12538	-13.83239	160.29299	91.94471	-168.42969	73.2303	-16.2734	-200.16282	104.14976	46.37919	71.60296	59.39791	0
946	-171.68437	-13.83239	157.85198	91.94471	-165.98868	70.78929	-13.83239	-197.72181	101.70875	48.8202	74.04397	59.39791	0
947	-166.80235	-11.39138	155.41097	87.06269	-161.10666	70.78929	-8.95037	-192.83979	101.70875	53.70222	78.92599	61.83892	0
948	-164.36134	-16.2734	148.08794	89.5037	-156.22464	65.90727	-8.95037	-190.39878	96.82673	53.70222	78.92599	61.83892	0
949	-164.36134	-21.15542	143.20592	91.94471	-153.78363	61.02525	-8.95037	-187.95777	94.38572	53.70222	78.92599	59.39791	0
950	-161.92033	-21.15542	140.76491	89.5037	-151.34262	58.58424	-6.50936	-187.95777	94.38572	56.14323	78.92599	61.83892	0
951	-166.80235	-23.59643	143.20592	94.38572	-156.22464	58.58424	-6.50936	-187.95777	91.94471	56.14323	78.92599	59.39791	0
952	-164.36134	-18.71441	145.64693	89.5037	-156.22464	63.46626	-4.06835	-187.95777	91.94471	56.14323	78.92599	59.39791	0
953	-166.80235	-18.71441	148.08794	91.94471	-158.66565	63.46626	-4.06835	-183.07575	91.94471	56.14323	76.48498	56.9569	0
954	-166.80235	-16.2734	150.52895	89.5037	-158.66565	65.90727	-6.50936	-180.63474	89.5037	53.70222	76.48498	56.9569	0
955	-161.92033	-6.50936	155.41097	82.18067	-158.66565	73.2303	-4.06835	-178.19373	89.5037	53.70222	76.48498	56.9569	0
956	-166.80235	-8.95037	157.85198	87.06269	-163.54767	73.2303	-6.50936	-180.63474	87.06269	53.70222	74.04397	52.07488	0
957	-166.80235	-6.50936	160.29299	84.62168	-163.54767	75.67131	-8.95037	-180.63474	87.06269	53.70222	71.60296	52.07488	0
958	-161.92033	-6.50936	155.41097	82.18067	-158.66565	73.2303	-6.50936	-178.19373	87.06269	53.70222	71.60296	52.07488	0
959	-159.47932	-6.50936	152.96996	82.18067	-156.22464	73.2303	-6.50936	-178.19373	87.06269	56.14323	71.60296	54.51589	0
960	-154.5973	-0.81367	152.96996	77.29865	-153.78363	75.67131	-6.50936	-178.19373	87.06269	58.58424	71.60296	54.51589	0
961	-157.03831	-0.81367	155.41097	77.29865	-156.22464	75.67131	-6.50936	-180.63474	87.06269	56.14323	71.60296	54.51589	0
962	-161.92033	1.62734	162.734	79.73966	-161.10666	80.55333	-6.50936	-180.63474	84.62168	56.14323	71.60296	54.51589	0
963	-159.47932	6.50936	165.17501	74.85764	-161.10666	85.43535	-4.06835	-173.31171	87.06269	56.14323	71.60296	56.9569	0
964	-159.47932	6.50936	165.17501	74.85764	-161.10666	85.43535	-4.06835	-170.8707	84.62168	56.14323	71.60296	56.9569	0
965	-159.47932	8.95037	167.61602	74.85764	-163.54767	87.87636	-6.50936	-170.8707	84.62168	51.26121	71.60296	54.51589	0
966	-161.92033	6.50936	167.61602	77.29865	-163.54767	85.43535	-6.50936	-170.8707	82.18067	51.26121	71.60296	54.51589	0
967	-161.92033	6.50936	167.61602	77.29865	-163.54767	85.43535	-6.50936	-168.42969	82.18067	51.26121	74.04397	54.51589	0
968	-157.03831	1.62734	157.85198	77.29865	-156.22464	78.11232	-4.06835	-163.54767	82.18067	53.70222	74.04397	56.9569	0
969	-157.03831	-6.50936	150.52895	79.73966	-153.78363	70.78929	-6.50936	-165.98868	79.73966	51.26121	74.04397	56.9569	0
970	-157.03831	-8.95037	148.08794	82.18067	-153.78363	68.34828	-6.50936	-168.42969	79.73966	53.70222	74.04397	56.9569	0
971	-152.15629	-3.25468	148.08794	77.29865	-148.90161	70.78929	-6.50936	-165.98868	79.73966	56.14323	74.04397	61.83892	0
972	-149.71528	1.62734	150.52895	72.41663	-148.90161	75.67131	-4.06835	-163.54767	79.73966	56.14323	76.48498	64.27993	0
973	-149.71528	6.50936	155.41097	69.97562	-151.34262	80.55333	-6.50936	-158.66565	77.29865	56.14323	74.04397	64.27993	0
974	-152.15629	8.95037	160.29299	69.97562	-156.22464	82.99434	-6.50936	-156.22464	77.29865	56.14323	74.04397	61.83892	0
975	-147.27427	16.2734	162.734	65.0936	-153.78363	87.87636	-6.50936	-153.78363	74.85764	56.14323	74.04397	61.83892	0
976	-144.83326	18.71441	162.734	62.65259	-153.78363	90.31737	-6.50936	-148.90161	74.85764	56.14323	74.04397	64.27993	0
977	-149.71528	8.95037	157.85198	69.97562	-153.78363	82.99434	-6.50936	-146.4606	72.41663	53.70222	74.04397	59.39791	0
978	-157.03831	-0.81367	155.41097	77.29865	-156.22464	75.67131	-11.39138	-146.4606	67.53461	51.26121	69.16195	56.9569	0
979	-157.03831	-3.25468	152.96996	79.73966	-153.78363	73.2303	-11.39138	-144.01959	65.0936	46.37919	66.72094	54.51589	0
980	-157.03831	-6.50936	150.52895	79.73966	-153.78363	70.78929	-8.95037	-144.01959	65.0936	46.37919	66.72094	54.51589	0
981	-157.03831	-0.81367	155.41097	77.29865	-156.22464	75.67131	-8.95037	-141.57858	65.0936	46.37919	66.72094	54.51589	0
982	-157.03831	1.62734	157.85198	77.29865	-156.22464	78.11232	-8.95037	-139.13757	62.65259	43.93818	66.72094	54.51589	0
983	-154.5973	8.95037	162.734	72.41663	-158.66565	85.43535	-8.95037	-131.81454	62.65259	43.93818	64.27993	54.51589	0
984	-152.15629	11.39138	162.734	69.97562	-156.22464	85.43535	-6.50936	-124.49151	62.65259	43.93818	64.27993	54.51589	0
985	-154.5973	8.95037	162.734	72.41663	-158.66565	85.43535	-6.50936	-122.0505	60.21158	43.93818	64.27993	54.51589	0
986	-149.71528	8.95037	157.85198	69.97562	-153.78363	82.99434	-6.50936	-117.16848	60.21158	43.93818	64.27993	56.9569	0
987	-144.83326	6.50936	150.52895	67.53461	-146.4606	78.11232	-6.50936	-109.84545	57.77057	43.93818	66.72094	56.9569	0
988	-144.83326	-0.81367	143.20592	72.41663	-144.01959	70.78929	-6.50936	-104.96343	57.77057	43.93818	66.72094	56.9569	0
989	-144.83326	-6.50936	138.3239	74.85764	-141.57858	65.90727	-6.50936	-104.96343	55.32956	43.93818	64.27993	54.51589	0
990	-142.39225	-6.50936	135.88289	72.41663	-139.13757	63.46626	-6.50936	-104.96343	55.32956	43.93818	64.27993	54.51589	0
991	-139.95124	-0.81367	138.3239	69.97562	-139.13757	68.34828	-6.50936	-102.52242	52.88855	41.49717	61.83892	54.51589	0
992	-137.51023	1.62734	138.3239	67.53461	-136.69656	68.34828	-6.50936	-97.6404	52.88855	39.05616	61.83892	52.07488	0
993	-137.51023	6.50936	143.20592	65.0936	-139.13757	73.2303	-6.50936	-90.31737	52.88855	39.05616	61.83892	52.07488	0
994	-137.51023	6.50936	143.20592	65.0936	-139.13757	73.2303	-8.95037	-85.43535	50.44754	36.61515	56.9569	52.07488	0
995	-130.1872	6.50936	135.88289	60.21158	-131.81454	70.78929	-8.95037	-80.55333	48.00653	34.17414	54.51589	49.63387	0
996	-127.74619	4.06835	131.00087	60.21158	-129.37353	65.90727	-11.39138	-78.11232	48.00653	29.29212	52.07488	47.19286	0
997	-125.30518	1.62734	126.11885	60.21158	-124.49151	63.46626	-11.39138	-70.78929	45.56552	29.29212	52.07488	47.19286	0
998	-115.54114	1.62734	116.35481	55.32956	-114.72747	58.58424	-11.39138	-63.46626	43.12451	26.85111	52.07488	44.75185	0
999	-110.65912	-0.81367	109.03178	55.32956	-109.84545	53.70222	-13.83239	-58.58424	40.6835	21.96909	47.19286	42.31084	0
1000	-105.7771	1.62734	106.59077	50.44754	-104.96343	53.70222	-16.2734	-56.14323	38.24249	19.52808	44.75185	39.86983	0
1001	-103.33609	1.62734	104.14976	50.44754	-102.52242	51.26121	-16.2734	-53.70222	38.24249	17.08707	44.75185	39.86983	0
1002	-100.89508	4.06835	104.14976	48.00653	-102.52242	53.70222	-16.2734	-46.37919	35.80148	17.08707	44.75185	37.42882	0
1003	-98.45407	8.95037	106.59077	43.12451	-102.52242	56.14323	-18.71441	-36.61515	33.36047	14.64606	42.31084	34.98781	0
1004	-96.01306	6.50936	101.70875	43.12451	-97.6404	53.70222	-18.71441	-26.85111	28.47845	12.20505	39.86983	32.5468	0
1005	-88.69003	1.62734	89.5037	43.12451	-87.87636	43.93818	-21.15542	-19.52808	26.03744	9.76404	37.42882	30.10579	0
1006	-83.80801	-3.25468	79.73966	43.12451	-80.55333	36.61515	-23.59643	-13.83239	21.15542	9.76404	34.98781	25.22377	0
1007	-78.92599	-11.39138	67.53461	43.12451	-73.2303	26.85111	-28.47845	-8.95037	13.83239	4.06835	27.66478	20.34175	0
1008	-74.04397	-18.71441	55.32956	45.56552	-65.90727	17.08707	-30.91946	-4.06835	5.69569	-0.81367	22.78276	13.01872	0
1009	-69.16195	-26.03744	43.12451	45.56552	-56.14323	6.50936	-33.36047	3.25468	3.25468	-5.69569	17.90074	8.1367	0
