samplenr	I	II	III	aVR	aVL	aVF	V1	V2	V3	V4	V5	V6	measurement
0	18.71441	-179.82107	-198.53548	78.92599	107.40444	-189.58511	56.14323	158.66565	152.96996	81.367	-26.85111	-21.15542	0
1	18.71441	-179.82107	-198.53548	78.92599	107.40444	-189.58511	58.58424	161.10666	152.96996	83.80801	-21.96909	-1.62734	0
2	16.2734	-179.82107	-196.09447	81.367	104.96343	-187.1441	61.02525	161.10666	150.52895	83.80801	-14.64606	22.78276	0
3	16.2734	-179.82107	-196.09447	81.367	104.96343	-187.1441	61.02525	161.10666	148.08794	83.80801	-14.64606	22.78276	0
4	16.2734	-177.38006	-193.65346	78.92599	104.96343	-184.70309	61.02525	158.66565	148.08794	76.48498	-19.52808	-1.62734	0
5	16.2734	-177.38006	-193.65346	78.92599	104.96343	-184.70309	61.02525	153.78363	143.20592	66.72094	-31.73313	-46.37919	0
6	16.2734	-177.38006	-193.65346	78.92599	104.96343	-184.70309	58.58424	151.34262	140.76491	59.39791	-36.61515	-87.87636	0
7	16.2734	-177.38006	-193.65346	78.92599	104.96343	-184.70309	58.58424	148.90161	138.3239	56.9569	-34.17414	-112.28646	0
8	16.2734	-177.38006	-193.65346	78.92599	104.96343	-184.70309	56.14323	144.01959	140.76491	59.39791	-21.96909	-117.16848	0
9	16.2734	-179.82107	-196.09447	81.367	104.96343	-187.1441	56.14323	144.01959	143.20592	61.83892	-1.62734	-97.6404	0
10	16.2734	-182.26208	-198.53548	81.367	107.40444	-189.58511	56.14323	148.90161	143.20592	66.72094	22.78276	-58.58424	0
11	16.2734	-182.26208	-198.53548	81.367	107.40444	-189.58511	58.58424	151.34262	143.20592	69.16195	47.19286	-16.2734	0
12	18.71441	-179.82107	-198.53548	78.92599	107.40444	-189.58511	61.02525	153.78363	143.20592	71.60296	66.72094	15.45973	0
13	18.71441	-174.93905	-193.65346	76.48498	104.96343	-184.70309	61.02525	151.34262	140.76491	69.16195	74.04397	17.90074	0
14	18.71441	-174.93905	-193.65346	76.48498	104.96343	-184.70309	61.02525	146.4606	138.3239	61.83892	71.60296	-11.39138	0
15	18.71441	-172.49804	-191.21245	76.48498	104.96343	-182.26208	61.02525	144.01959	135.88289	52.07488	69.16195	-53.70222	0
16	16.2734	-172.49804	-188.77144	76.48498	102.52242	-179.82107	61.02525	139.13757	133.44188	47.19286	66.72094	-97.6404	0
17	13.83239	-172.49804	-186.33043	78.92599	100.08141	-179.82107	61.02525	134.25555	128.55986	44.75185	71.60296	-131.81454	0
18	11.39138	-174.93905	-186.33043	81.367	97.6404	-179.82107	56.14323	131.81454	131.00087	47.19286	88.69003	-136.69656	0
19	11.39138	-177.38006	-188.77144	81.367	100.08141	-182.26208	56.14323	131.81454	131.00087	52.07488	110.65912	-109.84545	0
20	11.39138	-179.82107	-191.21245	83.80801	100.08141	-184.70309	58.58424	134.25555	133.44188	56.9569	132.62821	-68.34828	0
21	11.39138	-177.38006	-188.77144	81.367	100.08141	-182.26208	61.02525	139.13757	133.44188	64.27993	152.15629	-26.85111	0
22	11.39138	-174.93905	-186.33043	81.367	97.6404	-179.82107	63.46626	139.13757	133.44188	66.72094	164.36134	0.81367	0
23	13.83239	-167.61602	-181.44841	76.48498	97.6404	-174.93905	65.90727	139.13757	133.44188	66.72094	164.36134	5.69569	0
24	16.2734	-157.85198	-174.12538	69.16195	95.19939	-165.17501	68.34828	136.69656	133.44188	61.83892	157.03831	-21.15542	0
25	18.71441	-150.52895	-169.24336	64.27993	92.75838	-160.29299	70.78929	136.69656	133.44188	56.9569	139.95124	-68.34828	0
26	21.15542	-140.76491	-161.92033	59.39791	90.31737	-150.52895	75.67131	134.25555	133.44188	52.07488	130.1872	-117.16848	0
27	21.15542	-133.44188	-154.5973	54.51589	87.87636	-143.20592	78.11232	134.25555	135.88289	52.07488	125.30518	-146.4606	0
28	23.59643	-126.11885	-149.71528	49.63387	85.43535	-138.3239	78.11232	134.25555	140.76491	59.39791	132.62821	-141.57858	0
29	26.03744	-121.23683	-147.27427	47.19286	85.43535	-133.44188	80.55333	139.13757	143.20592	66.72094	149.71528	-112.28646	0
30	26.03744	-121.23683	-147.27427	47.19286	85.43535	-133.44188	82.99434	144.01959	145.64693	74.04397	166.80235	-68.34828	0
31	26.03744	-116.35481	-142.39225	44.75185	82.99434	-128.55986	87.87636	148.90161	145.64693	81.367	183.88942	-21.15542	0
32	26.03744	-109.03178	-135.06922	39.86983	80.55333	-121.23683	87.87636	153.78363	145.64693	81.367	196.09447	10.57771	0
33	28.47845	-104.14976	-132.62821	37.42882	80.55333	-118.79582	90.31737	153.78363	143.20592	81.367	193.65346	13.01872	0
34	28.47845	-96.82673	-125.30518	32.5468	75.67131	-111.47279	92.75838	153.78363	143.20592	74.04397	183.88942	-13.83239	0
35	28.47845	-91.94471	-120.42316	30.10579	73.2303	-106.59077	92.75838	151.34262	143.20592	69.16195	169.24336	-65.90727	0
36	30.91946	-84.62168	-115.54114	25.22377	73.2303	-99.26774	95.19939	151.34262	145.64693	64.27993	157.03831	-112.28646	0
37	30.91946	-77.29865	-108.21811	22.78276	68.34828	-91.94471	97.6404	151.34262	145.64693	64.27993	154.5973	-141.57858	0
38	30.91946	-72.41663	-103.33609	20.34175	65.90727	-87.06269	92.75838	153.78363	148.08794	69.16195	159.47932	-146.4606	0
39	30.91946	-72.41663	-103.33609	20.34175	65.90727	-87.06269	92.75838	156.22464	150.52895	76.48498	176.56639	-117.16848	0
40	33.36047	-69.97562	-103.33609	17.90074	68.34828	-87.06269	87.87636	158.66565	150.52895	78.92599	193.65346	-65.90727	0
41	33.36047	-65.0936	-98.45407	15.45973	65.90727	-82.18067	82.99434	158.66565	145.64693	81.367	208.29952	-18.71441	0
42	35.80148	-60.21158	-96.01306	10.57771	65.90727	-77.29865	78.11232	156.22464	138.3239	81.367	215.62255	15.45973	0
43	35.80148	-57.77057	-93.57205	10.57771	63.46626	-74.85764	68.34828	146.4606	128.55986	74.04397	208.29952	13.01872	0
44	35.80148	-57.77057	-93.57205	10.57771	63.46626	-74.85764	58.58424	136.69656	121.23683	61.83892	193.65346	-18.71441	0
45	40.6835	-55.32956	-96.01306	5.69569	68.34828	-74.85764	51.26121	129.37353	116.35481	52.07488	176.56639	-70.78929	0
46	43.12451	-55.32956	-98.45407	5.69569	70.78929	-77.29865	43.93818	122.0505	109.03178	42.31084	159.47932	-122.0505	0
47	43.12451	-55.32956	-98.45407	5.69569	70.78929	-77.29865	36.61515	117.16848	106.59077	42.31084	154.5973	-156.22464	0
48	45.56552	-52.88855	-98.45407	2.44101	70.78929	-74.85764	31.73313	117.16848	109.03178	44.75185	161.92033	-156.22464	0
49	48.00653	-50.44754	-98.45407	0	73.2303	-74.85764	34.17414	119.60949	113.9138	54.51589	183.88942	-122.0505	0
50	48.00653	-48.00653	-96.01306	0	70.78929	-72.41663	39.05616	129.37353	121.23683	66.72094	208.29952	-65.90727	0
51	48.00653	-45.56552	-93.57205	-2.44101	70.78929	-69.97562	43.93818	139.13757	126.11885	76.48498	230.26861	-11.39138	0
52	48.00653	-38.24249	-86.24902	-4.88202	65.90727	-62.65259	51.26121	146.4606	128.55986	83.80801	249.79669	27.66478	0
53	48.00653	-30.91946	-78.92599	-9.76404	63.46626	-55.32956	56.14323	146.4606	131.00087	83.80801	252.2377	30.10579	0
54	48.00653	-30.91946	-78.92599	-9.76404	63.46626	-55.32956	56.14323	144.01959	131.00087	76.48498	240.03265	-4.06835	0
55	48.00653	-38.24249	-86.24902	-4.88202	65.90727	-62.65259	58.58424	139.13757	123.67784	69.16195	220.50457	-58.58424	0
56	50.44754	-45.56552	-96.01306	-2.44101	73.2303	-69.97562	53.70222	131.81454	118.79582	59.39791	203.4175	-114.72747	0
57	52.88855	-52.88855	-105.7771	0	78.11232	-79.73966	48.8202	124.49151	111.47279	54.51589	196.09447	-151.34262	0
58	52.88855	-60.21158	-113.10013	2.44101	82.99434	-87.06269	43.93818	117.16848	109.03178	52.07488	196.09447	-158.66565	0
59	52.88855	-69.97562	-122.86417	8.1367	87.87636	-96.82673	39.05616	114.72747	109.03178	54.51589	205.85851	-129.37353	0
60	52.88855	-74.85764	-127.74619	10.57771	90.31737	-101.70875	39.05616	117.16848	109.03178	56.9569	225.38659	-75.67131	0
61	52.88855	-74.85764	-127.74619	10.57771	90.31737	-101.70875	41.49717	117.16848	109.03178	64.27993	244.91467	-21.15542	0
62	48.00653	-72.41663	-120.42316	10.57771	82.99434	-96.82673	43.93818	117.16848	106.59077	66.72094	259.56073	13.01872	0
63	45.56552	-69.97562	-115.54114	10.57771	80.55333	-91.94471	48.8202	114.72747	104.14976	64.27993	259.56073	15.45973	0
64	43.12451	-69.97562	-113.10013	13.01872	78.11232	-91.94471	48.8202	109.84545	101.70875	56.9569	247.35568	-18.71441	0
65	40.6835	-69.97562	-110.65912	13.01872	75.67131	-89.5037	51.26121	107.40444	99.26774	47.19286	227.8276	-73.2303	0
66	38.24249	-69.97562	-108.21811	15.45973	73.2303	-89.5037	51.26121	100.08141	94.38572	39.86983	205.85851	-129.37353	0
67	33.36047	-77.29865	-110.65912	20.34175	70.78929	-94.38572	48.8202	92.75838	87.06269	34.98781	191.21245	-168.42969	0
68	28.47845	-84.62168	-113.10013	27.66478	70.78929	-99.26774	43.93818	87.87636	84.62168	32.5468	186.33043	-173.31171	0
69	23.59643	-94.38572	-117.98215	34.98781	70.78929	-106.59077	43.93818	82.99434	79.73966	32.5468	191.21245	-144.01959	0
70	23.59643	-101.70875	-125.30518	37.42882	73.2303	-113.9138	43.93818	82.99434	74.85764	32.5468	198.53548	-97.6404	0
71	21.15542	-106.59077	-127.74619	42.31084	73.2303	-116.35481	46.37919	82.99434	69.97562	32.5468	208.29952	-46.37919	0
72	16.2734	-111.47279	-127.74619	47.19286	70.78929	-118.79582	46.37919	78.11232	62.65259	27.66478	215.62255	-16.2734	0
73	16.2734	-113.9138	-130.1872	47.19286	73.2303	-121.23683	46.37919	73.2303	57.77057	22.78276	208.29952	-18.71441	0
74	16.2734	-113.9138	-130.1872	47.19286	73.2303	-121.23683	43.93818	68.34828	52.88855	10.57771	191.21245	-53.70222	0
75	16.2734	-113.9138	-130.1872	47.19286	73.2303	-121.23683	43.93818	63.46626	48.00653	0	169.24336	-114.72747	0
76	16.2734	-113.9138	-130.1872	47.19286	73.2303	-121.23683	41.49717	58.58424	45.56552	-7.32303	147.27427	-170.8707	0
77	16.2734	-113.9138	-130.1872	47.19286	73.2303	-121.23683	39.05616	56.14323	40.6835	-9.76404	135.06922	-209.92686	0
78	16.2734	-113.9138	-130.1872	47.19286	73.2303	-121.23683	36.61515	56.14323	43.12451	-9.76404	135.06922	-212.36787	0
79	16.2734	-118.79582	-135.06922	49.63387	75.67131	-126.11885	36.61515	56.14323	43.12451	-4.88202	147.27427	-183.07575	0
80	13.83239	-121.23683	-135.06922	52.07488	73.2303	-128.55986	36.61515	63.46626	48.00653	0	164.36134	-129.37353	0
81	13.83239	-123.67784	-137.51023	54.51589	75.67131	-131.00087	39.05616	65.90727	48.00653	5.69569	181.44841	-73.2303	0
82	13.83239	-123.67784	-137.51023	54.51589	75.67131	-131.00087	41.49717	68.34828	48.00653	8.1367	191.21245	-36.61515	0
83	8.95037	-123.67784	-132.62821	56.9569	70.78929	-128.55986	43.93818	68.34828	48.00653	8.1367	188.77144	-31.73313	0
84	8.95037	-123.67784	-132.62821	56.9569	70.78929	-128.55986	46.37919	61.02525	45.56552	0	176.56639	-63.46626	0
85	8.95037	-123.67784	-132.62821	56.9569	70.78929	-128.55986	46.37919	56.14323	43.12451	-7.32303	152.15629	-122.0505	0
86	13.83239	-123.67784	-137.51023	54.51589	75.67131	-131.00087	46.37919	51.26121	38.24249	-14.64606	130.1872	-178.19373	0
87	16.2734	-123.67784	-139.95124	52.07488	78.11232	-131.00087	43.93818	45.56552	38.24249	-17.08707	120.42316	-212.36787	0
88	16.2734	-126.11885	-142.39225	54.51589	78.11232	-133.44188	39.05616	45.56552	38.24249	-17.08707	120.42316	-217.24989	0
89	18.71441	-128.55986	-147.27427	54.51589	82.99434	-138.3239	39.05616	45.56552	38.24249	-9.76404	130.1872	-183.07575	0
90	21.15542	-133.44188	-154.5973	54.51589	87.87636	-143.20592	39.05616	48.8202	40.6835	-4.88202	147.27427	-131.81454	0
91	18.71441	-135.88289	-154.5973	56.9569	85.43535	-145.64693	39.05616	51.26121	40.6835	0	161.92033	-78.11232	0
92	16.2734	-135.88289	-152.15629	59.39791	82.99434	-143.20592	43.93818	53.70222	40.6835	0	171.68437	-43.93818	0
93	16.2734	-133.44188	-149.71528	56.9569	82.99434	-140.76491	43.93818	53.70222	40.6835	0	169.24336	-41.49717	0
94	18.71441	-131.00087	-149.71528	54.51589	82.99434	-140.76491	46.37919	51.26121	40.6835	-2.44101	154.5973	-73.2303	0
95	21.15542	-128.55986	-149.71528	52.07488	85.43535	-138.3239	46.37919	48.8202	40.6835	-9.76404	132.62821	-131.81454	0
96	23.59643	-126.11885	-149.71528	49.63387	85.43535	-138.3239	46.37919	45.56552	38.24249	-14.64606	115.54114	-185.51676	0
97	26.03744	-123.67784	-149.71528	47.19286	87.87636	-135.88289	46.37919	45.56552	38.24249	-14.64606	105.7771	-217.24989	0
98	26.03744	-123.67784	-149.71528	47.19286	87.87636	-135.88289	43.93818	45.56552	40.6835	-7.32303	110.65912	-217.24989	0
99	26.03744	-126.11885	-152.15629	49.63387	87.87636	-138.3239	43.93818	48.8202	45.56552	0	125.30518	-183.07575	0
100	26.03744	-131.00087	-157.03831	52.07488	90.31737	-143.20592	43.93818	56.14323	45.56552	5.69569	144.83326	-129.37353	1000	P+0
101	23.59643	-131.00087	-154.5973	52.07488	87.87636	-143.20592	46.37919	58.58424	48.00653	13.01872	164.36134	-73.2303	0
102	23.59643	-131.00087	-154.5973	52.07488	87.87636	-143.20592	46.37919	63.46626	48.00653	15.45973	176.56639	-34.17414	0
103	23.59643	-128.55986	-152.15629	52.07488	87.87636	-140.76491	46.37919	63.46626	48.00653	15.45973	174.12538	-29.29212	0
104	23.59643	-126.11885	-149.71528	49.63387	85.43535	-138.3239	46.37919	61.02525	48.00653	10.57771	159.47932	-58.58424	0
105	23.59643	-128.55986	-152.15629	52.07488	87.87636	-140.76491	48.8202	63.46626	50.44754	10.57771	142.39225	-109.84545	0
106	26.03744	-131.00087	-157.03831	52.07488	90.31737	-143.20592	51.26121	70.78929	60.21158	15.45973	130.1872	-161.10666	0
107	30.91946	-133.44188	-164.36134	49.63387	97.6404	-148.08794	56.14323	87.87636	77.29865	32.5468	135.06922	-187.95777	0
108	35.80148	-138.3239	-174.12538	49.63387	104.96343	-155.41097	65.90727	117.16848	109.03178	61.83892	154.5973	-180.63474	0
109	38.24249	-145.64693	-183.88942	52.07488	109.84545	-165.17501	80.55333	158.66565	152.96996	105.7771	188.77144	-136.69656	0
110	40.6835	-152.96996	-193.65346	54.51589	117.16848	-172.49804	100.08141	217.24989	209.11319	161.92033	237.59164	-63.46626	0
111	48.00653	-155.41097	-203.4175	52.07488	124.49151	-179.82107	122.0505	280.71615	272.57945	227.8276	298.61689	15.45973	0
112	57.77057	-148.08794	-205.85851	44.75185	131.81454	-177.38006	141.57858	346.62342	343.36874	308.38093	369.40618	93.57205	0
113	72.41663	-131.00087	-203.4175	27.66478	136.69656	-167.61602	153.78363	414.9717	423.92207	401.13931	447.5185	157.03831	0
114	89.5037	-104.14976	-193.65346	5.69569	141.57858	-148.08794	156.22464	483.31998	516.68045	515.86678	547.59991	215.62255	0
115	111.47279	-62.65259	-174.12538	-24.4101	141.57858	-118.79582	151.34262	554.10927	616.76186	657.44536	679.41445	283.97083	0
116	135.88289	-6.50936	-142.39225	-65.90727	139.13757	-74.85764	131.81454	605.37048	709.52024	811.22899	835.63909	379.17022	0
117	160.29299	60.21158	-100.89508	-109.84545	131.81454	-21.15542	107.40444	632.22159	782.75054	967.45363	1013.83282	506.10274	0
118	184.70309	148.08794	-37.42882	-165.98868	112.28646	55.32956	70.78929	629.78058	836.45276	1113.91423	1201.79059	674.53243	0
119	206.67218	245.72834	39.05616	-227.01393	85.43535	143.20592	16.2734	576.07836	841.33478	1231.08271	1382.42533	864.93121	0
120	221.31824	348.25076	126.93252	-285.59817	48.8202	238.40531	-66.72094	456.46887	782.75054	1292.10796	1526.44492	1055.32999	0
121	231.08228	441.00914	209.92686	-336.85938	12.20505	326.28167	-169.24336	288.03918	665.58206	1289.66695	1599.67522	1201.79059	0
122	233.52329	528.8855	295.36221	-380.79756	-30.10579	411.71702	-286.41184	82.99434	511.79843	1238.40574	1606.99825	1284.78493	0
123	221.31824	606.99782	385.67958	-414.9717	-81.367	497.15237	-415.78537	-142.39225	336.04571	1160.29342	1555.73704	1299.43099	0
124	199.34915	655.81802	456.46887	-427.17675	-127.74619	555.73661	-542.71789	-374.2882	148.08794	1052.88898	1450.77361	1235.96473	0
125	165.17501	663.14105	497.96604	-414.9717	-166.80235	580.14671	-650.12233	-601.30213	-62.65259	906.42838	1289.66695	1104.15019	0
126	118.79582	631.40792	512.6121	-375.91554	-196.09447	572.82368	-725.79364	-784.37788	-262.81541	733.11667	1082.1811	921.07444	0
127	65.0936	567.94166	502.84806	-317.3313	-218.06356	536.20853	-764.8498	-935.7205	-470.30126	496.3387	813.67	701.38354	0
128	-1.62734	484.94732	485.76099	-241.65999	-242.47366	484.94732	-784.37788	-1091.94514	-729.04832	139.95124	457.28254	464.60557	0
129	-60.21158	372.66086	432.05877	-156.22464	-244.91467	401.95298	-784.37788	-1223.75968	-987.79538	-256.30605	78.92599	232.70962	0
130	-109.03178	248.16935	356.38746	-70.78929	-232.70962	301.87157	-772.17283	-1309.19503	-1202.60426	-622.45755	-268.5111	22.78276	0
131	-145.64693	133.44188	278.27514	5.69569	-210.74053	204.23117	-752.64475	-1358.01523	-1361.26991	-934.90683	-571.19634	-153.78363	0
132	-174.93905	28.47845	202.60383	71.60296	-188.77144	113.9138	-733.11667	-1367.77927	-1463.79233	-1186.33086	-820.17936	-307.56726	0
133	-184.70309	-52.88855	131.81454	117.98215	-159.47932	38.24249	-711.14758	-1353.13321	-1510.17152	-1359.64257	-1000.8141	-429.61776	0
134	-179.82107	-111.47279	68.34828	144.83326	-125.30518	-23.59643	-681.85546	-1292.10796	-1463.79233	-1384.05267	-1059.39834	-507.73008	0
135	-165.17501	-155.41097	9.76404	159.47932	-88.69003	-74.85764	-642.7993	-1182.26251	-1336.85981	-1276.64823	-1008.13713	-544.34523	0
136	-145.64693	-177.38006	-32.5468	159.47932	-56.9569	-106.59077	-596.42011	-1065.09403	-1200.16325	-1149.71571	-932.46582	-556.55028	0
137	-126.11885	-187.1441	-61.83892	154.5973	-32.5468	-126.11885	-545.1589	-950.36656	-1075.67174	-1032.54723	-851.91249	-551.66826	0
138	-104.14976	-177.38006	-74.04397	139.95124	-15.45973	-126.11885	-489.01567	-838.0801	-953.62124	-922.70178	-771.35916	-519.93513	0
139	-82.18067	-160.29299	-78.92599	120.42316	-3.25468	-121.23683	-430.43143	-730.67566	-836.45276	-812.85633	-688.36482	-473.55594	0
140	-65.0936	-143.20592	-78.92599	103.33609	7.32303	-111.47279	-369.40618	-628.15324	-729.04832	-712.77492	-610.2525	-422.29473	0
141	-48.00653	-121.23683	-74.04397	83.80801	12.20505	-99.26774	-308.38093	-535.39486	-631.40792	-620.01654	-539.46321	-373.47453	0
142	-35.80148	-99.26774	-64.27993	66.72094	14.64606	-82.18067	-249.79669	-452.40052	-543.53156	-534.58119	-473.55594	-334.41837	0
143	-26.03744	-74.85764	-49.63387	49.63387	12.20505	-62.65259	-196.09447	-379.17022	-465.41924	-461.35089	-417.41271	-302.68524	0
144	-18.71441	-52.88855	-34.98781	34.98781	7.32303	-45.56552	-149.71528	-323.02699	-397.07096	-400.32564	-371.03352	-278.27514	0
145	-16.2734	-33.36047	-17.90074	22.78276	-0.81367	-26.03744	-108.21811	-274.20679	-340.92773	-349.06443	-331.97736	-263.62908	0
146	-16.2734	-16.2734	0	15.45973	-8.1367	-8.95037	-74.04397	-235.15063	-296.98955	-307.56726	-297.80322	-246.54201	0
147	-16.2734	-6.50936	9.76404	10.57771	-13.01872	1.62734	-42.31084	-205.85851	-262.81541	-273.39312	-266.07009	-229.45494	0
148	-18.71441	6.50936	24.4101	5.69569	-20.34175	13.83239	-22.78276	-183.88942	-233.52329	-244.101	-244.101	-212.36787	0
149	-18.71441	11.39138	29.29212	2.44101	-22.78276	18.71441	-3.25468	-166.80235	-213.99521	-219.6909	-227.01393	-197.72181	0
150	-18.71441	13.83239	31.73313	2.44101	-25.22377	21.15542	13.83239	-149.71528	-201.79016	-205.04484	-212.36787	-187.95777	0
151	-18.71441	16.2734	34.17414	0	-25.22377	23.59643	26.85111	-135.06922	-189.58511	-190.39878	-200.16282	-178.19373	0
152	-13.83239	21.15542	34.17414	-4.88202	-22.78276	26.03744	41.49717	-120.42316	-179.82107	-175.75272	-187.95777	-170.8707	0
153	-13.83239	23.59643	36.61515	-4.88202	-25.22377	28.47845	51.26121	-110.65912	-172.49804	-165.98868	-178.19373	-163.54767	0
154	-13.83239	26.03744	39.05616	-7.32303	-25.22377	30.91946	58.58424	-103.33609	-162.734	-158.66565	-168.42969	-151.34262	0
155	-13.83239	26.03744	39.05616	-7.32303	-25.22377	30.91946	65.90727	-96.01306	-157.85198	-153.78363	-156.22464	-139.13757	0
156	-13.83239	28.47845	41.49717	-7.32303	-27.66478	33.36047	68.34828	-91.13104	-150.52895	-146.4606	-144.01959	-124.49151	0
157	-13.83239	30.91946	43.93818	-9.76404	-27.66478	35.80148	73.2303	-91.13104	-145.64693	-139.13757	-134.25555	-112.28646	0
158	-13.83239	30.91946	43.93818	-9.76404	-27.66478	35.80148	73.2303	-91.13104	-143.20592	-134.25555	-129.37353	-104.96343	0
159	-16.2734	30.91946	46.37919	-7.32303	-30.10579	38.24249	73.2303	-91.13104	-143.20592	-129.37353	-129.37353	-107.40444	0
160	-16.2734	30.91946	46.37919	-7.32303	-30.10579	38.24249	73.2303	-88.69003	-143.20592	-129.37353	-131.81454	-112.28646	0
161	-16.2734	33.36047	48.8202	-9.76404	-32.5468	40.6835	78.11232	-86.24902	-145.64693	-129.37353	-136.69656	-122.0505	0
162	-16.2734	35.80148	51.26121	-9.76404	-32.5468	43.12451	80.55333	-86.24902	-148.08794	-126.93252	-139.13757	-126.93252	0
163	-16.2734	38.24249	53.70222	-12.20505	-34.98781	45.56552	82.99434	-86.24902	-150.52895	-124.49151	-144.01959	-129.37353	0
164	-18.71441	40.6835	58.58424	-12.20505	-37.42882	48.00653	85.43535	-86.24902	-150.52895	-124.49151	-141.57858	-126.93252	0
165	-18.71441	40.6835	58.58424	-12.20505	-37.42882	48.00653	87.87636	-83.80801	-148.08794	-124.49151	-139.13757	-119.60949	0
166	-21.15542	43.12451	63.46626	-12.20505	-42.31084	52.88855	90.31737	-86.24902	-148.08794	-124.49151	-131.81454	-109.84545	0
167	-23.59643	43.12451	65.90727	-9.76404	-44.75185	52.88855	90.31737	-88.69003	-150.52895	-122.0505	-129.37353	-104.96343	0
168	-26.03744	45.56552	70.78929	-9.76404	-47.19286	57.77057	87.87636	-91.13104	-152.96996	-122.0505	-136.69656	-104.96343	0
169	-26.03744	48.00653	73.2303	-12.20505	-49.63387	60.21158	87.87636	-96.01306	-152.96996	-122.0505	-139.13757	-112.28646	0
170	-28.47845	52.88855	80.55333	-12.20505	-54.51589	65.0936	87.87636	-98.45407	-157.85198	-124.49151	-144.01959	-124.49151	0
171	-28.47845	57.77057	85.43535	-14.64606	-56.9569	69.97562	87.87636	-100.89508	-165.17501	-126.93252	-151.34262	-139.13757	0
172	-28.47845	65.0936	92.75838	-19.52808	-59.39791	77.29865	87.87636	-103.33609	-170.05703	-129.37353	-153.78363	-148.90161	0
173	-28.47845	69.97562	97.6404	-21.96909	-61.83892	82.18067	90.31737	-108.21811	-174.93905	-134.25555	-156.22464	-151.34262	0
174	-28.47845	77.29865	104.96343	-24.4101	-66.72094	89.5037	92.75838	-113.10013	-177.38006	-136.69656	-146.4606	-144.01959	0
175	-30.91946	79.73966	109.84545	-24.4101	-69.16195	94.38572	95.19939	-115.54114	-179.82107	-139.13757	-144.01959	-131.81454	0
176	-33.36047	82.18067	114.72747	-24.4101	-74.04397	96.82673	95.19939	-117.98215	-182.26208	-139.13757	-141.57858	-114.72747	0
177	-33.36047	87.06269	119.60949	-26.85111	-76.48498	101.70875	92.75838	-117.98215	-189.58511	-141.57858	-139.13757	-102.52242	0
178	-35.80148	91.94471	126.93252	-29.29212	-81.367	109.03178	90.31737	-120.42316	-192.02612	-144.01959	-144.01959	-100.08141	0
179	-38.24249	94.38572	131.81454	-29.29212	-83.80801	111.47279	90.31737	-122.86417	-199.34915	-146.4606	-153.78363	-109.84545	0
180	-38.24249	96.82673	134.25555	-29.29212	-86.24902	113.9138	87.87636	-122.86417	-209.11319	-153.78363	-168.42969	-126.93252	0
181	-40.6835	104.14976	144.01959	-31.73313	-91.13104	123.67784	87.87636	-122.86417	-218.87723	-158.66565	-183.07575	-148.90161	0
182	-40.6835	109.03178	148.90161	-34.17414	-93.57205	128.55986	90.31737	-125.30518	-226.20026	-163.54767	-190.39878	-165.98868	0
183	-43.12451	118.79582	161.10666	-39.05616	-100.89508	138.3239	90.31737	-130.1872	-233.52329	-170.8707	-200.16282	-175.75272	0
184	-45.56552	123.67784	168.42969	-39.05616	-105.7771	145.64693	90.31737	-137.51023	-240.84632	-175.75272	-202.60383	-170.8707	0
185	-48.00653	126.11885	173.31171	-39.05616	-110.65912	148.08794	92.75838	-139.95124	-245.72834	-180.63474	-202.60383	-156.22464	0
186	-50.44754	133.44188	183.07575	-41.49717	-115.54114	157.85198	92.75838	-144.83326	-250.61036	-185.51676	-202.60383	-136.69656	0
187	-52.88855	138.3239	190.39878	-43.93818	-120.42316	162.734	92.75838	-152.15629	-255.49238	-190.39878	-197.72181	-117.16848	0
188	-55.32956	145.64693	200.16282	-46.37919	-127.74619	172.49804	90.31737	-159.47932	-262.81541	-195.2808	-197.72181	-109.84545	0
189	-57.77057	150.52895	207.48585	-46.37919	-132.62821	177.38006	87.87636	-166.80235	-270.13844	-200.16282	-205.04484	-117.16848	0
190	-57.77057	155.41097	212.36787	-48.8202	-135.06922	182.26208	87.87636	-174.12538	-279.90248	-207.48585	-217.24989	-134.25555	0
191	-62.65259	165.17501	227.01393	-51.26121	-144.83326	194.46713	85.43535	-181.44841	-292.10753	-214.80888	-231.89595	-153.78363	0
192	-65.0936	172.49804	236.77797	-53.70222	-149.71528	204.23117	85.43535	-191.21245	-304.31258	-222.13191	-244.101	-170.8707	0
193	-67.53461	182.26208	248.98302	-58.58424	-157.03831	213.99521	85.43535	-198.53548	-311.63561	-227.01393	-253.86504	-180.63474	0
194	-69.97562	192.02612	261.18807	-61.02525	-164.36134	226.20026	85.43535	-208.29952	-318.95864	-234.33696	-258.74706	-175.75272	0
195	-72.41663	199.34915	270.95211	-63.46626	-171.68437	233.52329	87.87636	-213.18154	-323.84066	-241.65999	-261.18807	-161.10666	0
196	-74.85764	206.67218	280.71615	-65.90727	-176.56639	243.28733	87.87636	-222.94558	-326.28167	-246.54201	-261.18807	-139.13757	0
197	-77.29865	216.43622	292.9212	-70.78929	-183.88942	253.05137	87.87636	-230.26861	-331.16369	-248.98302	-258.74706	-122.0505	0
198	-77.29865	226.20026	302.68524	-75.67131	-188.77144	262.81541	85.43535	-240.03265	-333.6047	-253.86504	-256.30605	-109.84545	0
199	-79.73966	233.52329	312.44928	-78.11232	-196.09447	272.57945	85.43535	-249.79669	-340.92773	-258.74706	-263.62908	-114.72747	0
200	-82.18067	243.28733	324.65433	-80.55333	-203.4175	282.34349	85.43535	-259.56073	-348.25076	-268.5111	-275.83413	-129.37353	0
201	-84.62168	253.05137	336.85938	-85.43535	-210.74053	294.54854	85.43535	-266.88376	-358.0148	-275.83413	-288.03918	-148.90161	0
202	-89.5037	260.3744	349.06443	-85.43535	-218.06356	304.31258	85.43535	-279.08881	-367.77884	-283.15716	-297.80322	-163.54767	0
203	-89.5037	272.57945	361.26948	-92.75838	-225.38659	316.51763	87.87636	-286.41184	-375.10187	-290.48019	-305.12625	-170.8707	0
204	-91.94471	284.7845	375.91554	-97.6404	-232.70962	328.72268	87.87636	-296.17588	-377.54288	-295.36221	-307.56726	-163.54767	0
205	-96.82673	292.10753	388.12059	-97.6404	-242.47366	338.48672	87.87636	-301.0579	-382.4249	-300.24423	-307.56726	-148.90161	0
206	-96.82673	301.87157	397.88463	-102.52242	-247.35568	348.25076	90.31737	-310.82194	-384.86591	-302.68524	-302.68524	-122.0505	0
207	-99.26774	314.07662	412.53069	-107.40444	-254.67871	362.89682	90.31737	-318.14497	-389.74793	-305.12625	-297.80322	-100.08141	0
208	-99.26774	326.28167	424.73574	-114.72747	-262.00174	375.10187	85.43535	-327.90901	-392.18894	-305.12625	-297.80322	-85.43535	0
209	-101.70875	333.6047	434.49978	-117.16848	-266.88376	382.4249	85.43535	-335.23204	-397.07096	-307.56726	-305.12625	-85.43535	0
210	-104.14976	340.92773	444.26382	-119.60949	-274.20679	392.18894	82.99434	-342.55507	-404.39399	-312.44928	-312.44928	-100.08141	0
211	-106.59077	350.69177	456.46887	-122.0505	-281.52982	401.95298	82.99434	-349.8781	-411.71702	-317.3313	-322.21332	-117.16848	0
212	-106.59077	365.33783	471.11493	-129.37353	-288.85285	416.59904	82.99434	-354.76012	-416.59904	-317.3313	-324.65433	-131.81454	0
213	-106.59077	375.10187	480.87897	-134.25555	-293.73487	426.36308	82.99434	-359.64214	-416.59904	-317.3313	-324.65433	-131.81454	0
214	-104.14976	387.30692	490.64301	-141.57858	-296.17588	438.56813	80.55333	-364.52416	-416.59904	-317.3313	-319.77231	-119.60949	0
215	-101.70875	397.07096	497.96604	-148.90161	-298.61689	445.89116	78.11232	-364.52416	-414.15803	-314.89029	-314.89029	-100.08141	0
216	-99.26774	409.27601	507.73008	-156.22464	-303.49891	458.09621	78.11232	-369.40618	-411.71702	-310.00827	-310.00827	-70.78929	0
217	-94.38572	419.04005	512.6121	-163.54767	-303.49891	465.41924	73.2303	-369.40618	-406.835	-300.24423	-305.12625	-41.49717	0
218	-94.38572	426.36308	519.93513	-165.98868	-305.93992	472.74227	68.34828	-369.40618	-401.95298	-292.9212	-302.68524	-23.59643	0
219	-94.38572	431.2451	524.81715	-168.42969	-308.38093	477.62429	63.46626	-371.84719	-399.51197	-283.15716	-305.12625	-18.71441	0
220	-91.94471	436.12712	527.25816	-173.31171	-308.38093	480.0653	58.58424	-369.40618	-397.07096	-278.27514	-310.00827	-26.85111	0
221	-89.5037	441.00914	529.69917	-175.75272	-308.38093	484.94732	56.14323	-366.96517	-394.62995	-268.5111	-310.00827	-36.61515	0
222	-89.5037	448.33217	537.0222	-180.63474	-313.26295	492.27035	56.14323	-364.52416	-389.74793	-258.74706	-300.24423	-43.93818	0
223	-87.06269	455.6552	541.90422	-185.51676	-313.26295	497.15237	53.70222	-359.64214	-382.4249	-248.98302	-288.03918	-39.05616	0
224	-84.62168	460.53722	544.34523	-187.95777	-313.26295	502.03439	53.70222	-357.20113	-372.66086	-234.33696	-270.95211	-23.59643	0
225	-82.18067	462.97823	544.34523	-190.39878	-313.26295	502.03439	51.26121	-349.8781	-360.45581	-224.57292	-248.98302	3.25468	0
226	-77.29865	467.86025	544.34523	-195.2808	-310.82194	504.4754	51.26121	-342.55507	-348.25076	-207.48585	-229.45494	37.42882	0
227	-72.41663	470.30126	541.90422	-200.16282	-305.93992	504.4754	46.37919	-335.23204	-336.04571	-192.83979	-209.92686	66.72094	0
228	-69.97562	472.74227	541.90422	-202.60383	-305.93992	506.91641	41.49717	-330.35002	-321.39965	-175.75272	-195.2808	83.80801	0
229	-65.0936	470.30126	534.58119	-202.60383	-298.61689	502.03439	36.61515	-323.02699	-309.1946	-161.10666	-185.51676	86.24902	0
230	-62.65259	467.86025	529.69917	-202.60383	-296.17588	497.15237	34.17414	-313.26295	-299.43056	-148.90161	-180.63474	78.92599	0
231	-57.77057	465.41924	522.37614	-205.04484	-288.85285	492.27035	31.73313	-305.93992	-292.10753	-134.25555	-173.31171	64.27993	0
232	-52.88855	465.41924	517.49412	-207.48585	-283.97083	489.82934	31.73313	-296.17588	-279.90248	-119.60949	-163.54767	54.51589	0
233	-50.44754	460.53722	510.17109	-205.04484	-279.08881	484.94732	29.29212	-286.41184	-262.81541	-102.52242	-151.34262	54.51589	0
234	-45.56552	455.6552	500.40705	-205.04484	-271.76578	477.62429	29.29212	-274.20679	-243.28733	-82.99434	-131.81454	74.04397	0
235	-40.6835	453.21419	493.08402	-207.48585	-266.88376	472.74227	29.29212	-259.56073	-218.87723	-65.90727	-109.84545	100.89508	0
236	-35.80148	445.89116	480.87897	-205.04484	-257.11972	462.97823	26.85111	-247.35568	-192.02612	-43.93818	-87.87636	130.1872	0
237	-30.91946	441.00914	471.11493	-205.04484	-249.79669	455.6552	26.85111	-230.26861	-162.734	-21.96909	-63.46626	157.03831	0
238	-26.03744	433.68611	458.90988	-205.04484	-242.47366	445.89116	21.96909	-213.18154	-131.00087	0	-41.49717	171.68437	0
239	-21.15542	421.48106	441.82281	-200.16282	-230.26861	431.2451	21.96909	-196.09447	-99.26774	20.34175	-21.96909	169.24336	0
240	-13.83239	409.27601	422.29473	-197.72181	-218.06356	414.15803	19.52808	-174.12538	-69.97562	42.31084	-11.39138	154.5973	0
241	-8.95037	399.51197	407.64867	-195.2808	-208.29952	401.95298	19.52808	-152.15629	-40.6835	64.27993	0.81367	137.51023	0
242	-1.62734	389.74793	390.5616	-195.2808	-196.09447	389.74793	21.96909	-130.1872	-11.39138	86.24902	20.34175	127.74619	0
243	4.06835	377.54288	373.47453	-190.39878	-183.88942	375.10187	21.96909	-105.7771	20.34175	108.21811	39.86983	130.1872	0
244	8.95037	365.33783	356.38746	-187.95777	-174.12538	360.45581	21.96909	-81.367	50.44754	130.1872	64.27993	147.27427	0
245	16.2734	348.25076	331.97736	-183.07575	-157.03831	340.92773	24.4101	-54.51589	82.18067	157.03831	91.13104	171.68437	0
246	23.59643	333.6047	310.00827	-178.19373	-142.39225	321.39965	24.4101	-30.10579	113.9138	181.44841	120.42316	200.97649	0
247	30.91946	318.95864	288.03918	-175.75272	-127.74619	304.31258	24.4101	-3.25468	143.20592	208.29952	149.71528	225.38659	0
248	38.24249	301.87157	263.62908	-170.8707	-113.10013	282.34349	24.4101	18.71441	174.93905	235.15063	171.68437	235.15063	0
249	43.12451	284.7845	241.65999	-163.54767	-98.45407	262.81541	24.4101	43.12451	199.34915	257.11972	188.77144	225.38659	0
250	48.00653	265.25642	217.24989	-156.22464	-83.80801	240.84632	24.4101	65.90727	221.31824	276.6478	198.53548	208.29952	0
251	52.88855	245.72834	192.83979	-148.90161	-69.16195	218.87723	26.85111	87.87636	240.84632	293.73487	205.85851	188.77144	0
252	55.32956	228.64127	173.31171	-141.57858	-59.39791	201.79016	29.29212	109.84545	257.93339	305.93992	213.18154	174.12538	0
253	60.21158	211.5542	151.34262	-136.69656	-44.75185	182.26208	31.73313	126.93252	275.02046	315.70396	215.62255	169.24336	0
254	60.21158	194.46713	134.25555	-126.93252	-37.42882	165.17501	36.61515	144.01959	289.66652	323.02699	225.38659	171.68437	0
255	62.65259	174.93905	112.28646	-119.60949	-25.22377	143.20592	39.05616	161.10666	304.31258	327.90901	232.70962	181.44841	0
256	62.65259	157.85198	95.19939	-109.84545	-15.45973	126.11885	39.05616	175.75272	316.51763	327.90901	235.15063	191.21245	0
257	62.65259	138.3239	75.67131	-100.08141	-5.69569	106.59077	39.05616	185.51676	323.84066	327.90901	237.59164	193.65346	0
258	62.65259	123.67784	61.02525	-92.75838	1.62734	91.94471	39.05616	192.83979	328.72268	325.468	235.15063	186.33043	0
259	62.65259	104.14976	41.49717	-82.99434	12.20505	72.41663	39.05616	197.72181	331.16369	318.14497	225.38659	164.36134	0
260	60.21158	87.06269	26.85111	-73.2303	17.08707	57.77057	39.05616	200.16282	328.72268	305.93992	208.29952	132.62821	0
261	57.77057	69.97562	12.20505	-63.46626	24.4101	40.6835	41.49717	202.60383	321.39965	296.17588	186.33043	103.33609	0
262	55.32956	55.32956	0	-56.14323	29.29212	28.47845	43.93818	202.60383	316.51763	281.52982	171.68437	81.367	1500	QRS+0
263	52.88855	40.6835	-13.01872	-46.37919	34.17414	13.83239	46.37919	202.60383	311.63561	269.32477	157.03831	71.60296	0
264	50.44754	28.47845	-22.78276	-39.05616	36.61515	4.06835	46.37919	197.72181	306.75359	254.67871	147.27427	66.72094	0
265	48.00653	13.83239	-34.98781	-31.73313	41.49717	-11.39138	48.8202	195.2808	301.87157	237.59164	135.06922	66.72094	0
266	45.56552	-0.81367	-47.19286	-21.96909	46.37919	-23.59643	48.8202	190.39878	294.54854	222.94558	125.30518	71.60296	0
267	43.12451	-13.83239	-56.9569	-14.64606	48.8202	-35.80148	48.8202	185.51676	287.22551	208.29952	117.98215	71.60296	0
268	40.6835	-26.03744	-66.72094	-7.32303	53.70222	-45.56552	46.37919	180.63474	277.46147	193.65346	105.7771	64.27993	0
269	35.80148	-38.24249	-74.04397	0	53.70222	-55.32956	46.37919	173.31171	265.25642	176.56639	88.69003	42.31084	0
270	33.36047	-50.44754	-83.80801	8.1367	58.58424	-67.53461	46.37919	170.8707	255.49238	159.47932	64.27993	15.45973	0
271	33.36047	-57.77057	-91.13104	10.57771	61.02525	-74.85764	46.37919	165.98868	240.84632	144.83326	44.75185	-8.95037	0
272	28.47845	-62.65259	-91.13104	15.45973	58.58424	-77.29865	48.8202	161.10666	228.64127	132.62821	32.5468	-23.59643	0
273	28.47845	-67.53461	-96.01306	17.90074	61.02525	-82.18067	48.8202	153.78363	221.31824	120.42316	22.78276	-34.17414	0
274	28.47845	-72.41663	-100.89508	20.34175	63.46626	-87.06269	46.37919	146.4606	216.43622	110.65912	15.45973	-29.29212	0
275	28.47845	-77.29865	-105.7771	22.78276	65.90727	-91.94471	46.37919	139.13757	211.5542	103.33609	13.01872	-26.85111	0
276	28.47845	-79.73966	-108.21811	25.22377	68.34828	-94.38572	41.49717	131.81454	206.67218	96.01306	13.01872	-13.83239	0
277	28.47845	-87.06269	-115.54114	27.66478	70.78929	-101.70875	39.05616	124.49151	199.34915	88.69003	13.01872	-11.39138	0
278	28.47845	-91.94471	-120.42316	30.10579	73.2303	-106.59077	36.61515	117.16848	192.02612	83.80801	13.01872	-16.2734	0
279	28.47845	-99.26774	-127.74619	34.98781	78.11232	-113.9138	34.17414	114.72747	182.26208	76.48498	5.69569	-26.85111	0
280	26.03744	-101.70875	-127.74619	37.42882	75.67131	-113.9138	34.17414	114.72747	172.49804	69.16195	-4.06835	-46.37919	0
281	26.03744	-104.14976	-130.1872	37.42882	78.11232	-116.35481	34.17414	109.84545	162.734	61.83892	-14.64606	-63.46626	0
282	26.03744	-104.14976	-130.1872	37.42882	78.11232	-116.35481	36.61515	107.40444	157.85198	59.39791	-21.96909	-70.78929	0
283	26.03744	-104.14976	-130.1872	37.42882	78.11232	-116.35481	39.05616	104.96343	157.85198	54.51589	-26.85111	-78.11232	0
284	23.59643	-106.59077	-130.1872	39.86983	75.67131	-118.79582	39.05616	100.08141	157.85198	52.07488	-26.85111	-73.2303	0
285	23.59643	-106.59077	-130.1872	39.86983	75.67131	-118.79582	39.05616	100.08141	157.85198	52.07488	-21.96909	-63.46626	0
286	26.03744	-106.59077	-132.62821	39.86983	78.11232	-118.79582	39.05616	97.6404	160.29299	56.9569	-14.64606	-48.8202	0
287	26.03744	-111.47279	-137.51023	42.31084	80.55333	-123.67784	39.05616	95.19939	160.29299	59.39791	-6.50936	-39.05616	0
288	26.03744	-113.9138	-139.95124	42.31084	82.99434	-126.11885	34.17414	95.19939	162.734	59.39791	-1.62734	-36.61515	0
289	26.03744	-116.35481	-142.39225	44.75185	82.99434	-128.55986	31.73313	97.6404	157.85198	59.39791	-1.62734	-46.37919	0
290	26.03744	-118.79582	-144.83326	44.75185	85.43535	-131.00087	31.73313	100.08141	152.96996	59.39791	-6.50936	-56.14323	0
291	26.03744	-116.35481	-142.39225	44.75185	82.99434	-128.55986	34.17414	100.08141	148.08794	59.39791	-14.64606	-68.34828	0
292	23.59643	-116.35481	-139.95124	44.75185	80.55333	-128.55986	34.17414	100.08141	145.64693	56.9569	-17.08707	-75.67131	0
293	23.59643	-116.35481	-139.95124	44.75185	80.55333	-128.55986	34.17414	97.6404	145.64693	56.9569	-21.96909	-78.11232	0
294	21.15542	-116.35481	-137.51023	47.19286	78.11232	-126.11885	36.61515	92.75838	145.64693	54.51589	-21.96909	-70.78929	0
295	21.15542	-116.35481	-137.51023	47.19286	78.11232	-126.11885	36.61515	92.75838	150.52895	54.51589	-14.64606	-61.02525	0
296	21.15542	-118.79582	-139.95124	47.19286	80.55333	-128.55986	36.61515	90.31737	152.96996	56.9569	-8.95037	-46.37919	0
297	21.15542	-118.79582	-139.95124	47.19286	80.55333	-128.55986	34.17414	87.87636	152.96996	59.39791	-1.62734	-34.17414	0
298	23.59643	-121.23683	-144.83326	47.19286	82.99434	-133.44188	31.73313	90.31737	155.41097	59.39791	3.25468	-34.17414	0
299	23.59643	-121.23683	-144.83326	47.19286	82.99434	-133.44188	29.29212	90.31737	150.52895	59.39791	3.25468	-41.49717	0
300	23.59643	-121.23683	-144.83326	47.19286	82.99434	-133.44188	29.29212	95.19939	145.64693	56.9569	-1.62734	-51.26121	0
301	23.59643	-118.79582	-142.39225	47.19286	82.99434	-131.00087	29.29212	95.19939	140.76491	56.9569	-11.39138	-65.90727	0
302	23.59643	-116.35481	-139.95124	44.75185	80.55333	-128.55986	31.73313	95.19939	138.3239	54.51589	-14.64606	-73.2303	0
303	23.59643	-113.9138	-137.51023	44.75185	80.55333	-126.11885	34.17414	95.19939	138.3239	52.07488	-19.52808	-73.2303	0
304	21.15542	-113.9138	-135.06922	44.75185	78.11232	-123.67784	34.17414	90.31737	140.76491	47.19286	-19.52808	-65.90727	0
305	21.15542	-113.9138	-135.06922	44.75185	78.11232	-123.67784	34.17414	90.31737	143.20592	47.19286	-14.64606	-53.70222	0
306	21.15542	-116.35481	-137.51023	47.19286	78.11232	-126.11885	34.17414	87.87636	148.08794	52.07488	-8.95037	-39.05616	0
307	21.15542	-116.35481	-137.51023	47.19286	78.11232	-126.11885	31.73313	87.87636	148.08794	56.9569	0.81367	-29.29212	0
308	23.59643	-118.79582	-142.39225	47.19286	82.99434	-131.00087	26.85111	90.31737	150.52895	56.9569	3.25468	-26.85111	0
309	23.59643	-121.23683	-144.83326	47.19286	82.99434	-133.44188	26.85111	90.31737	148.08794	56.9569	3.25468	-34.17414	0
310	21.15542	-121.23683	-142.39225	49.63387	80.55333	-131.00087	26.85111	95.19939	143.20592	56.9569	-1.62734	-46.37919	0
311	21.15542	-118.79582	-139.95124	47.19286	80.55333	-128.55986	29.29212	97.6404	140.76491	56.9569	-8.95037	-58.58424	0
312	23.59643	-113.9138	-137.51023	44.75185	80.55333	-126.11885	29.29212	97.6404	140.76491	54.51589	-14.64606	-65.90727	0
313	23.59643	-113.9138	-137.51023	44.75185	80.55333	-126.11885	34.17414	97.6404	140.76491	52.07488	-17.08707	-65.90727	0
314	23.59643	-113.9138	-137.51023	44.75185	80.55333	-126.11885	34.17414	95.19939	143.20592	49.63387	-17.08707	-61.02525	0
315	23.59643	-113.9138	-137.51023	44.75185	80.55333	-126.11885	34.17414	95.19939	145.64693	49.63387	-14.64606	-53.70222	0
316	23.59643	-116.35481	-139.95124	44.75185	80.55333	-128.55986	34.17414	95.19939	150.52895	52.07488	-8.95037	-39.05616	0
317	21.15542	-118.79582	-139.95124	47.19286	80.55333	-128.55986	34.17414	95.19939	152.96996	56.9569	-1.62734	-31.73313	0
318	21.15542	-121.23683	-142.39225	49.63387	80.55333	-131.00087	29.29212	95.19939	155.41097	56.9569	0.81367	-29.29212	0
319	23.59643	-121.23683	-144.83326	47.19286	82.99434	-133.44188	29.29212	97.6404	155.41097	56.9569	-1.62734	-36.61515	0
320	26.03744	-118.79582	-144.83326	44.75185	85.43535	-131.00087	31.73313	102.52242	152.96996	54.51589	-6.50936	-46.37919	0
321	26.03744	-113.9138	-139.95124	42.31084	82.99434	-126.11885	34.17414	104.96343	150.52895	54.51589	-11.39138	-51.26121	0
322	28.47845	-111.47279	-139.95124	39.86983	82.99434	-126.11885	36.61515	104.96343	150.52895	52.07488	-14.64606	-56.14323	0
323	28.47845	-109.03178	-137.51023	39.86983	82.99434	-123.67784	36.61515	104.96343	155.41097	49.63387	-14.64606	-56.14323	0
324	28.47845	-111.47279	-139.95124	39.86983	82.99434	-126.11885	39.05616	102.52242	157.85198	47.19286	-14.64606	-48.8202	0
325	28.47845	-113.9138	-142.39225	42.31084	85.43535	-128.55986	39.05616	102.52242	162.734	49.63387	-4.06835	-36.61515	0
326	28.47845	-118.79582	-147.27427	44.75185	87.87636	-133.44188	39.05616	102.52242	167.61602	56.9569	3.25468	-23.59643	0
327	28.47845	-121.23683	-149.71528	44.75185	87.87636	-135.88289	36.61515	102.52242	170.05703	64.27993	15.45973	-11.39138	0
328	28.47845	-123.67784	-152.15629	47.19286	90.31737	-138.3239	34.17414	107.40444	172.49804	69.16195	20.34175	-8.95037	0
329	28.47845	-126.11885	-154.5973	47.19286	90.31737	-140.76491	34.17414	112.28646	172.49804	74.04397	20.34175	-8.95037	0
330	28.47845	-126.11885	-154.5973	47.19286	90.31737	-140.76491	34.17414	117.16848	170.05703	74.04397	20.34175	-16.2734	0
331	28.47845	-121.23683	-149.71528	44.75185	87.87636	-135.88289	36.61515	119.60949	167.61602	76.48498	13.01872	-26.85111	0
332	28.47845	-118.79582	-147.27427	44.75185	87.87636	-133.44188	36.61515	122.0505	167.61602	76.48498	8.1367	-29.29212	0
333	28.47845	-116.35481	-144.83326	42.31084	85.43535	-131.00087	39.05616	122.0505	170.05703	78.92599	5.69569	-29.29212	0
334	28.47845	-116.35481	-144.83326	42.31084	85.43535	-131.00087	41.49717	119.60949	172.49804	81.367	5.69569	-21.15542	0
335	28.47845	-116.35481	-144.83326	42.31084	85.43535	-131.00087	41.49717	122.0505	174.93905	86.24902	13.01872	-6.50936	0
336	30.91946	-116.35481	-147.27427	42.31084	87.87636	-131.00087	41.49717	124.49151	179.82107	91.13104	20.34175	10.57771	0
337	30.91946	-118.79582	-149.71528	42.31084	90.31737	-133.44188	41.49717	124.49151	182.26208	98.45407	32.5468	25.22377	0
338	33.36047	-121.23683	-154.5973	42.31084	92.75838	-138.3239	36.61515	129.37353	184.70309	100.89508	37.42882	30.10579	0
339	30.91946	-126.11885	-157.03831	47.19286	92.75838	-140.76491	36.61515	131.81454	184.70309	103.33609	39.86983	30.10579	0
340	30.91946	-128.55986	-159.47932	47.19286	95.19939	-143.20592	36.61515	139.13757	182.26208	103.33609	39.86983	22.78276	0
341	30.91946	-126.11885	-157.03831	47.19286	92.75838	-140.76491	36.61515	141.57858	179.82107	108.21811	32.5468	15.45973	0
342	30.91946	-123.67784	-154.5973	44.75185	92.75838	-138.3239	39.05616	141.57858	179.82107	108.21811	27.66478	8.1367	0
343	30.91946	-123.67784	-154.5973	44.75185	92.75838	-138.3239	39.05616	141.57858	179.82107	108.21811	25.22377	3.25468	0
344	28.47845	-123.67784	-152.15629	47.19286	90.31737	-138.3239	39.05616	136.69656	182.26208	105.7771	25.22377	8.1367	0
345	28.47845	-123.67784	-152.15629	47.19286	90.31737	-138.3239	39.05616	136.69656	184.70309	105.7771	30.10579	17.90074	0
346	28.47845	-126.11885	-154.5973	47.19286	90.31737	-140.76491	39.05616	134.25555	189.58511	110.65912	37.42882	34.98781	0
347	28.47845	-131.00087	-159.47932	49.63387	92.75838	-145.64693	39.05616	134.25555	192.02612	115.54114	47.19286	44.75185	0
348	30.91946	-131.00087	-161.92033	49.63387	95.19939	-145.64693	36.61515	136.69656	194.46713	117.98215	54.51589	47.19286	0
349	33.36047	-133.44188	-166.80235	49.63387	100.08141	-150.52895	36.61515	141.57858	194.46713	122.86417	59.39791	47.19286	0
350	33.36047	-135.88289	-169.24336	49.63387	100.08141	-152.96996	39.05616	148.90161	192.02612	122.86417	59.39791	39.86983	0
351	33.36047	-133.44188	-166.80235	49.63387	100.08141	-150.52895	43.93818	151.34262	189.58511	125.30518	54.51589	30.10579	0
352	33.36047	-133.44188	-166.80235	49.63387	100.08141	-150.52895	46.37919	151.34262	189.58511	125.30518	54.51589	25.22377	0
353	33.36047	-133.44188	-166.80235	49.63387	100.08141	-150.52895	48.8202	153.78363	192.02612	122.86417	52.07488	17.90074	0
354	33.36047	-135.88289	-169.24336	49.63387	100.08141	-152.96996	48.8202	148.90161	194.46713	117.98215	49.63387	22.78276	0
355	30.91946	-140.76491	-171.68437	54.51589	100.08141	-155.41097	48.8202	148.90161	194.46713	115.54114	54.51589	30.10579	0
356	30.91946	-143.20592	-174.12538	54.51589	102.52242	-157.85198	48.8202	146.4606	201.79016	115.54114	59.39791	42.31084	0
357	30.91946	-148.08794	-179.0074	56.9569	104.96343	-162.734	48.8202	146.4606	204.23117	117.98215	69.16195	54.51589	0
358	30.91946	-152.96996	-183.88942	59.39791	107.40444	-167.61602	46.37919	146.4606	206.67218	117.98215	71.60296	54.51589	0
359	30.91946	-155.41097	-186.33043	61.83892	107.40444	-170.05703	46.37919	151.34262	206.67218	120.42316	74.04397	47.19286	0
360	30.91946	-157.85198	-188.77144	61.83892	109.84545	-172.49804	46.37919	156.22464	204.23117	117.98215	74.04397	37.42882	0
361	28.47845	-157.85198	-186.33043	64.27993	107.40444	-172.49804	46.37919	158.66565	201.79016	117.98215	66.72094	27.66478	0
362	28.47845	-157.85198	-186.33043	64.27993	107.40444	-172.49804	48.8202	158.66565	201.79016	115.54114	66.72094	22.78276	0
363	28.47845	-157.85198	-186.33043	64.27993	107.40444	-172.49804	51.26121	156.22464	201.79016	113.10013	59.39791	17.90074	0
364	28.47845	-160.29299	-188.77144	64.27993	107.40444	-174.93905	51.26121	153.78363	204.23117	105.7771	56.9569	22.78276	0
365	28.47845	-162.734	-191.21245	66.72094	109.84545	-177.38006	51.26121	153.78363	204.23117	100.89508	59.39791	30.10579	0
366	30.91946	-162.734	-193.65346	64.27993	112.28646	-177.38006	51.26121	148.90161	206.67218	100.89508	61.83892	42.31084	-1500	QRS-0
367	33.36047	-162.734	-196.09447	64.27993	114.72747	-179.82107	46.37919	148.90161	206.67218	100.89508	66.72094	49.63387	0
368	35.80148	-162.734	-198.53548	61.83892	117.16848	-179.82107	43.93818	148.90161	209.11319	100.89508	69.16195	52.07488	0
369	35.80148	-165.17501	-200.97649	64.27993	117.16848	-182.26208	41.49717	151.34262	204.23117	98.45407	66.72094	42.31084	0
370	35.80148	-165.17501	-200.97649	64.27993	117.16848	-182.26208	41.49717	153.78363	199.34915	96.01306	66.72094	34.98781	0
371	38.24249	-160.29299	-198.53548	59.39791	117.16848	-179.82107	39.05616	153.78363	196.90814	93.57205	59.39791	20.34175	0
372	38.24249	-157.85198	-196.09447	59.39791	117.16848	-177.38006	41.49717	151.34262	194.46713	91.13104	54.51589	13.01872	0
373	38.24249	-157.85198	-196.09447	59.39791	117.16848	-177.38006	41.49717	146.4606	194.46713	83.80801	49.63387	10.57771	0
374	35.80148	-160.29299	-196.09447	61.83892	114.72747	-177.38006	43.93818	144.01959	194.46713	76.48498	47.19286	13.01872	0
375	33.36047	-160.29299	-193.65346	61.83892	112.28646	-177.38006	43.93818	141.57858	192.02612	71.60296	49.63387	22.78276	0
376	33.36047	-160.29299	-193.65346	61.83892	112.28646	-177.38006	41.49717	139.13757	192.02612	69.16195	52.07488	32.5468	0
377	33.36047	-162.734	-196.09447	64.27993	114.72747	-179.82107	41.49717	139.13757	192.02612	69.16195	54.51589	37.42882	0
378	33.36047	-167.61602	-200.97649	66.72094	117.16848	-184.70309	39.05616	139.13757	192.02612	64.27993	56.9569	39.86983	0
379	33.36047	-167.61602	-200.97649	66.72094	117.16848	-184.70309	36.61515	141.57858	189.58511	64.27993	59.39791	34.98781	0
380	33.36047	-167.61602	-200.97649	66.72094	117.16848	-184.70309	34.17414	144.01959	184.70309	61.83892	56.9569	25.22377	0
381	33.36047	-167.61602	-200.97649	66.72094	117.16848	-184.70309	34.17414	144.01959	182.26208	61.83892	49.63387	13.01872	0
382	33.36047	-167.61602	-200.97649	66.72094	117.16848	-184.70309	34.17414	141.57858	182.26208	59.39791	44.75185	3.25468	0
383	33.36047	-170.05703	-203.4175	66.72094	117.16848	-187.1441	29.29212	136.69656	179.82107	56.9569	39.86983	0.81367	0
384	30.91946	-170.05703	-200.97649	69.16195	114.72747	-184.70309	29.29212	129.37353	177.38006	56.9569	37.42882	0.81367	0
385	30.91946	-172.49804	-203.4175	69.16195	117.16848	-187.1441	26.85111	124.49151	172.49804	56.9569	37.42882	5.69569	0
386	30.91946	-172.49804	-203.4175	69.16195	117.16848	-187.1441	24.4101	122.0505	172.49804	59.39791	39.86983	13.01872	0
387	33.36047	-174.93905	-208.29952	69.16195	119.60949	-192.02612	24.4101	119.60949	172.49804	59.39791	42.31084	17.90074	0
388	33.36047	-179.82107	-213.18154	71.60296	122.0505	-196.90814	24.4101	119.60949	167.61602	56.9569	39.86983	17.90074	0
389	33.36047	-179.82107	-213.18154	71.60296	122.0505	-196.90814	21.96909	119.60949	162.734	56.9569	34.98781	13.01872	0
390	33.36047	-179.82107	-213.18154	71.60296	122.0505	-196.90814	21.96909	122.0505	157.85198	54.51589	32.5468	8.1367	0
391	33.36047	-177.38006	-210.74053	71.60296	122.0505	-194.46713	24.4101	122.0505	155.41097	52.07488	27.66478	0.81367	0
392	30.91946	-174.93905	-205.85851	71.60296	117.16848	-189.58511	24.4101	117.16848	155.41097	47.19286	22.78276	-6.50936	0
393	30.91946	-177.38006	-208.29952	71.60296	119.60949	-192.02612	24.4101	114.72747	155.41097	39.86983	17.90074	-13.83239	0
394	28.47845	-177.38006	-205.85851	74.04397	117.16848	-192.02612	24.4101	109.84545	155.41097	37.42882	17.90074	-13.83239	0
395	28.47845	-177.38006	-205.85851	74.04397	117.16848	-192.02612	21.96909	107.40444	155.41097	34.98781	20.34175	-8.95037	0
396	28.47845	-179.82107	-208.29952	74.04397	117.16848	-194.46713	21.96909	102.52242	155.41097	32.5468	22.78276	-1.62734	0
397	26.03744	-182.26208	-208.29952	76.48498	117.16848	-194.46713	19.52808	102.52242	155.41097	32.5468	25.22377	0.81367	0
398	26.03744	-184.70309	-210.74053	78.92599	117.16848	-196.90814	19.52808	102.52242	152.96996	30.10579	25.22377	0.81367	0
399	28.47845	-184.70309	-213.18154	76.48498	119.60949	-199.34915	19.52808	102.52242	148.08794	30.10579	22.78276	-1.62734	0
400	28.47845	-182.26208	-210.74053	76.48498	119.60949	-196.90814	21.96909	107.40444	145.64693	27.66478	20.34175	-6.50936	0
401	28.47845	-182.26208	-210.74053	76.48498	119.60949	-196.90814	21.96909	107.40444	145.64693	25.22377	13.01872	-13.83239	0
402	26.03744	-179.82107	-205.85851	76.48498	114.72747	-192.02612	24.4101	104.96343	145.64693	22.78276	10.57771	-18.71441	0
403	28.47845	-179.82107	-208.29952	74.04397	117.16848	-194.46713	24.4101	102.52242	145.64693	20.34175	5.69569	-23.59643	0
404	28.47845	-179.82107	-208.29952	74.04397	117.16848	-194.46713	24.4101	97.6404	145.64693	20.34175	5.69569	-23.59643	0
405	26.03744	-179.82107	-205.85851	76.48498	114.72747	-192.02612	21.96909	92.75838	145.64693	17.90074	8.1367	-18.71441	0
406	26.03744	-179.82107	-205.85851	76.48498	114.72747	-192.02612	21.96909	90.31737	148.08794	22.78276	13.01872	-13.83239	0
407	26.03744	-182.26208	-208.29952	76.48498	117.16848	-194.46713	19.52808	90.31737	148.08794	27.66478	15.45973	-11.39138	0
408	26.03744	-184.70309	-210.74053	78.92599	117.16848	-196.90814	19.52808	87.87636	145.64693	27.66478	15.45973	-13.83239	0
409	26.03744	-184.70309	-210.74053	78.92599	117.16848	-196.90814	19.52808	87.87636	140.76491	27.66478	13.01872	-21.15542	0
410	26.03744	-182.26208	-208.29952	76.48498	117.16848	-194.46713	21.96909	87.87636	135.88289	27.66478	8.1367	-26.85111	0
411	26.03744	-179.82107	-205.85851	76.48498	114.72747	-192.02612	21.96909	87.87636	135.88289	27.66478	0.81367	-34.17414	0
412	26.03744	-177.38006	-203.4175	74.04397	114.72747	-189.58511	24.4101	85.43535	133.44188	27.66478	-6.50936	-41.49717	0
413	23.59643	-177.38006	-200.97649	76.48498	112.28646	-189.58511	26.85111	80.55333	133.44188	22.78276	-11.39138	-46.37919	0
414	23.59643	-177.38006	-200.97649	76.48498	112.28646	-189.58511	26.85111	78.11232	133.44188	22.78276	-14.64606	-46.37919	0
415	23.59643	-177.38006	-200.97649	76.48498	112.28646	-189.58511	26.85111	75.67131	133.44188	22.78276	-6.50936	-41.49717	0
416	23.59643	-172.49804	-196.09447	74.04397	109.84545	-184.70309	26.85111	73.2303	135.88289	27.66478	-4.06835	-34.17414	0
417	23.59643	-172.49804	-196.09447	74.04397	109.84545	-184.70309	26.85111	73.2303	138.3239	30.10579	0.81367	-31.73313	0
418	26.03744	-172.49804	-198.53548	71.60296	112.28646	-184.70309	26.85111	73.2303	133.44188	30.10579	0.81367	-36.61515	0
419	26.03744	-170.05703	-196.09447	71.60296	109.84545	-182.26208	29.29212	73.2303	128.55986	30.10579	0.81367	-36.61515	0
420	26.03744	-167.61602	-193.65346	69.16195	109.84545	-179.82107	29.29212	75.67131	126.11885	30.10579	0.81367	-43.93818	0
421	23.59643	-162.734	-186.33043	69.16195	104.96343	-174.93905	31.73313	75.67131	123.67784	30.10579	-4.06835	-51.26121	0
422	23.59643	-157.85198	-181.44841	66.72094	102.52242	-170.05703	34.17414	75.67131	123.67784	30.10579	-6.50936	-56.14323	0
423	23.59643	-150.52895	-174.12538	61.83892	97.6404	-162.734	39.05616	75.67131	128.55986	30.10579	-6.50936	-58.58424	0
424	21.15542	-145.64693	-166.80235	61.83892	92.75838	-155.41097	41.49717	75.67131	131.00087	32.5468	-4.06835	-56.14323	0
425	21.15542	-140.76491	-161.92033	59.39791	90.31737	-150.52895	43.93818	75.67131	135.88289	34.98781	3.25468	-51.26121	0
426	23.59643	-133.44188	-157.03831	54.51589	90.31737	-145.64693	48.8202	78.11232	138.3239	42.31084	10.57771	-43.93818	0
427	23.59643	-131.00087	-154.5973	52.07488	87.87636	-143.20592	48.8202	80.55333	140.76491	47.19286	17.90074	-36.61515	0
428	23.59643	-128.55986	-152.15629	52.07488	87.87636	-140.76491	48.8202	82.99434	140.76491	47.19286	20.34175	-34.17414	0
429	23.59643	-123.67784	-147.27427	49.63387	85.43535	-135.88289	48.8202	85.43535	138.3239	47.19286	20.34175	-34.17414	0
430	26.03744	-116.35481	-142.39225	44.75185	82.99434	-128.55986	51.26121	87.87636	135.88289	44.75185	20.34175	-39.05616	0
431	28.47845	-109.03178	-137.51023	39.86983	82.99434	-123.67784	51.26121	87.87636	133.44188	44.75185	15.45973	-43.93818	0
432	28.47845	-101.70875	-130.1872	34.98781	78.11232	-116.35481	51.26121	87.87636	133.44188	42.31084	13.01872	-46.37919	0
433	28.47845	-96.82673	-125.30518	32.5468	75.67131	-111.47279	51.26121	87.87636	138.3239	37.42882	10.57771	-48.8202	0
434	30.91946	-89.5037	-120.42316	27.66478	75.67131	-104.14976	53.70222	87.87636	140.76491	37.42882	10.57771	-51.26121	0
435	33.36047	-82.18067	-115.54114	22.78276	73.2303	-99.26774	53.70222	87.87636	143.20592	39.86983	17.90074	-46.37919	0
436	33.36047	-77.29865	-110.65912	20.34175	70.78929	-94.38572	53.70222	87.87636	148.08794	42.31084	25.22377	-39.05616	0
437	33.36047	-74.85764	-108.21811	20.34175	70.78929	-91.94471	51.26121	87.87636	148.08794	44.75185	30.10579	-31.73313	0
438	35.80148	-72.41663	-108.21811	17.90074	70.78929	-89.5037	46.37919	85.43535	143.20592	44.75185	32.5468	-31.73313	0
439	35.80148	-69.97562	-105.7771	15.45973	70.78929	-87.06269	41.49717	80.55333	135.88289	42.31084	32.5468	-36.61515	0
440	35.80148	-67.53461	-103.33609	15.45973	68.34828	-84.62168	34.17414	78.11232	128.55986	37.42882	32.5468	-36.61515	0
441	38.24249	-62.65259	-100.89508	10.57771	68.34828	-82.18067	26.85111	70.78929	121.23683	34.98781	30.10579	-41.49717	0
442	38.24249	-60.21158	-98.45407	10.57771	68.34828	-79.73966	19.52808	63.46626	116.35481	30.10579	25.22377	-43.93818	0
443	38.24249	-60.21158	-98.45407	10.57771	68.34828	-79.73966	13.83239	56.14323	113.9138	25.22377	20.34175	-48.8202	0
444	38.24249	-60.21158	-98.45407	10.57771	68.34828	-79.73966	11.39138	51.26121	113.9138	22.78276	20.34175	-46.37919	0
445	40.6835	-57.77057	-98.45407	8.1367	68.34828	-77.29865	8.95037	48.8202	113.9138	22.78276	27.66478	-34.17414	0
446	40.6835	-52.88855	-93.57205	5.69569	65.90727	-72.41663	8.95037	48.8202	116.35481	27.66478	34.98781	-26.85111	0
447	43.12451	-48.00653	-91.13104	2.44101	65.90727	-69.97562	8.95037	51.26121	121.23683	32.5468	42.31084	-21.15542	0
448	45.56552	-45.56552	-91.13104	0	68.34828	-67.53461	11.39138	56.14323	121.23683	37.42882	47.19286	-18.71441	0
449	45.56552	-40.6835	-86.24902	-2.44101	65.90727	-62.65259	16.2734	63.46626	123.67784	42.31084	54.51589	-13.83239	0
450	45.56552	-35.80148	-81.367	-4.88202	63.46626	-57.77057	16.2734	70.78929	123.67784	44.75185	59.39791	-16.2734	0
451	48.00653	-33.36047	-81.367	-7.32303	63.46626	-57.77057	19.52808	73.2303	123.67784	47.19286	54.51589	-26.85111	0
452	48.00653	-33.36047	-81.367	-7.32303	63.46626	-57.77057	19.52808	73.2303	123.67784	47.19286	52.07488	-31.73313	0
453	48.00653	-40.6835	-88.69003	-4.88202	68.34828	-65.0936	19.52808	68.34828	121.23683	42.31084	44.75185	-39.05616	0
454	48.00653	-48.00653	-96.01306	0	70.78929	-72.41663	16.2734	63.46626	118.79582	39.86983	42.31084	-36.61515	0
455	48.00653	-55.32956	-103.33609	2.44101	75.67131	-79.73966	13.83239	56.14323	111.47279	34.98781	39.86983	-36.61515	0
456	48.00653	-62.65259	-110.65912	5.69569	78.11232	-87.06269	8.95037	51.26121	109.03178	34.98781	37.42882	-34.17414	0
457	50.44754	-67.53461	-117.98215	8.1367	82.99434	-91.94471	6.50936	45.56552	104.14976	34.98781	37.42882	-29.29212	0
458	50.44754	-69.97562	-120.42316	8.1367	85.43535	-94.38572	4.06835	45.56552	99.26774	34.98781	39.86983	-29.29212	0
459	50.44754	-69.97562	-120.42316	8.1367	85.43535	-94.38572	4.06835	45.56552	91.94471	34.98781	39.86983	-31.73313	0
460	48.00653	-67.53461	-115.54114	8.1367	80.55333	-91.94471	4.06835	48.8202	89.5037	34.98781	39.86983	-39.05616	0
461	43.12451	-67.53461	-110.65912	10.57771	75.67131	-89.5037	6.50936	48.8202	84.62168	34.98781	34.98781	-46.37919	0
462	38.24249	-67.53461	-105.7771	13.01872	70.78929	-87.06269	8.95037	45.56552	84.62168	34.98781	32.5468	-51.26121	0
463	33.36047	-67.53461	-100.89508	15.45973	65.90727	-84.62168	11.39138	43.12451	82.18067	30.10579	25.22377	-58.58424	0
464	28.47845	-72.41663	-100.89508	20.34175	63.46626	-87.06269	13.83239	38.24249	79.73966	25.22377	20.34175	-58.58424	0
465	26.03744	-79.73966	-105.7771	25.22377	65.90727	-91.94471	13.83239	33.36047	74.85764	22.78276	20.34175	-58.58424	0
466	21.15542	-87.06269	-108.21811	32.5468	63.46626	-96.82673	13.83239	26.03744	69.97562	17.90074	15.45973	-56.14323	0
467	16.2734	-96.82673	-113.10013	39.86983	63.46626	-104.14976	8.95037	18.71441	62.65259	13.01872	10.57771	-56.14323	0
468	16.2734	-106.59077	-122.86417	44.75185	68.34828	-113.9138	8.95037	16.2734	55.32956	5.69569	5.69569	-61.02525	0
469	13.83239	-111.47279	-125.30518	47.19286	68.34828	-118.79582	8.95037	11.39138	45.56552	0	-1.62734	-68.34828	0
470	13.83239	-113.9138	-127.74619	49.63387	70.78929	-121.23683	6.50936	8.95037	35.80148	-2.44101	-6.50936	-73.2303	0
471	11.39138	-116.35481	-127.74619	52.07488	68.34828	-121.23683	6.50936	4.06835	30.10579	-9.76404	-14.64606	-80.55333	0
472	11.39138	-116.35481	-127.74619	52.07488	68.34828	-121.23683	6.50936	-0.81367	27.66478	-14.64606	-21.96909	-85.43535	0
473	11.39138	-116.35481	-127.74619	52.07488	68.34828	-121.23683	6.50936	-3.25468	25.22377	-21.96909	-26.85111	-87.87636	0
474	11.39138	-116.35481	-127.74619	52.07488	68.34828	-121.23683	6.50936	-8.1367	25.22377	-24.4101	-29.29212	-87.87636	0
475	8.95037	-116.35481	-125.30518	52.07488	65.90727	-121.23683	4.06835	-10.57771	22.78276	-26.85111	-26.85111	-82.99434	0
476	8.95037	-116.35481	-125.30518	52.07488	65.90727	-121.23683	4.06835	-13.01872	22.78276	-26.85111	-26.85111	-80.55333	0
477	8.95037	-121.23683	-130.1872	54.51589	68.34828	-126.11885	1.62734	-13.01872	20.34175	-26.85111	-26.85111	-80.55333	0
478	6.50936	-123.67784	-130.1872	56.9569	68.34828	-126.11885	1.62734	-13.01872	17.90074	-29.29212	-24.4101	-78.11232	0
479	6.50936	-123.67784	-130.1872	56.9569	68.34828	-126.11885	1.62734	-13.01872	13.01872	-29.29212	-26.85111	-80.55333	0
480	6.50936	-121.23683	-127.74619	56.9569	65.90727	-123.67784	4.06835	-10.57771	8.1367	-29.29212	-29.29212	-82.99434	0
481	6.50936	-121.23683	-127.74619	56.9569	65.90727	-123.67784	4.06835	-10.57771	5.69569	-31.73313	-36.61515	-85.43535	0
482	1.62734	-123.67784	-125.30518	59.39791	63.46626	-123.67784	4.06835	-15.45973	5.69569	-36.61515	-43.93818	-87.87636	0
483	1.62734	-123.67784	-125.30518	59.39791	63.46626	-123.67784	6.50936	-17.90074	5.69569	-39.05616	-48.8202	-90.31737	0
484	1.62734	-123.67784	-125.30518	59.39791	63.46626	-123.67784	6.50936	-22.78276	8.1367	-41.49717	-51.26121	-92.75838	0
485	-1.62734	-123.67784	-122.86417	61.83892	61.02525	-123.67784	8.95037	-25.22377	8.1367	-41.49717	-48.8202	-92.75838	0
486	-1.62734	-126.11885	-125.30518	61.83892	61.02525	-126.11885	8.95037	-25.22377	10.57771	-39.05616	-43.93818	-90.31737	0
487	-1.62734	-131.00087	-130.1872	64.27993	63.46626	-131.00087	8.95037	-27.66478	10.57771	-36.61515	-41.49717	-87.87636	0
488	-1.62734	-133.44188	-132.62821	66.72094	65.90727	-133.44188	8.95037	-22.78276	10.57771	-36.61515	-39.05616	-87.87636	0
489	-1.62734	-131.00087	-130.1872	64.27993	63.46626	-131.00087	8.95037	-20.34175	8.1367	-36.61515	-39.05616	-87.87636	0
490	-1.62734	-128.55986	-127.74619	64.27993	63.46626	-128.55986	8.95037	-15.45973	8.1367	-34.17414	-34.17414	-82.99434	0
491	-1.62734	-126.11885	-125.30518	61.83892	61.02525	-126.11885	11.39138	-13.01872	8.1367	-34.17414	-36.61515	-82.99434	0
492	-1.62734	-126.11885	-125.30518	61.83892	61.02525	-126.11885	11.39138	-13.01872	8.1367	-34.17414	-39.05616	-85.43535	0
493	-1.62734	-123.67784	-122.86417	61.83892	61.02525	-123.67784	13.83239	-13.01872	10.57771	-36.61515	-39.05616	-90.31737	0
494	-1.62734	-123.67784	-122.86417	61.83892	61.02525	-123.67784	13.83239	-13.01872	13.01872	-34.17414	-39.05616	-87.87636	0
495	1.62734	-123.67784	-125.30518	59.39791	63.46626	-123.67784	13.83239	-13.01872	17.90074	-31.73313	-31.73313	-85.43535	0
496	1.62734	-123.67784	-125.30518	59.39791	63.46626	-123.67784	13.83239	-13.01872	20.34175	-26.85111	-26.85111	-85.43535	0
497	1.62734	-126.11885	-127.74619	61.83892	63.46626	-126.11885	13.83239	-13.01872	22.78276	-21.96909	-21.96909	-82.99434	0
498	-1.62734	-128.55986	-127.74619	64.27993	63.46626	-128.55986	13.83239	-10.57771	22.78276	-19.52808	-17.08707	-80.55333	0
499	-1.62734	-126.11885	-125.30518	61.83892	61.02525	-126.11885	11.39138	-5.69569	20.34175	-17.08707	-14.64606	-75.67131	0
500	-1.62734	-123.67784	-122.86417	61.83892	61.02525	-123.67784	11.39138	-0.81367	20.34175	-14.64606	-14.64606	-73.2303	0
501	-1.62734	-123.67784	-122.86417	61.83892	61.02525	-123.67784	11.39138	-0.81367	20.34175	-14.64606	-14.64606	-73.2303	0
502	1.62734	-121.23683	-122.86417	59.39791	61.02525	-121.23683	11.39138	1.62734	20.34175	-12.20505	-19.52808	-70.78929	0
503	1.62734	-121.23683	-122.86417	59.39791	61.02525	-121.23683	13.83239	4.06835	25.22377	-12.20505	-19.52808	-68.34828	0
504	4.06835	-123.67784	-127.74619	59.39791	65.90727	-126.11885	16.2734	11.39138	35.80148	-4.88202	-17.08707	-70.78929	0
505	6.50936	-128.55986	-135.06922	59.39791	70.78929	-131.00087	19.52808	23.59643	55.32956	8.1367	-6.50936	-70.78929	0
506	8.95037	-133.44188	-142.39225	61.83892	75.67131	-138.3239	29.29212	45.56552	82.18067	32.5468	13.01872	-65.90727	0
507	11.39138	-140.76491	-152.15629	64.27993	80.55333	-145.64693	41.49717	78.11232	121.23683	66.72094	39.86983	-61.02525	0
508	16.2734	-150.52895	-166.80235	66.72094	90.31737	-157.85198	56.14323	126.93252	172.49804	113.10013	71.60296	-56.14323	0
509	18.71441	-155.41097	-174.12538	66.72094	95.19939	-165.17501	75.67131	185.51676	228.64127	166.80235	113.10013	-43.93818	0
510	28.47845	-152.96996	-181.44841	61.83892	104.96343	-167.61602	95.19939	251.42403	294.54854	235.15063	166.80235	-21.15542	0
511	40.6835	-140.76491	-181.44841	49.63387	109.84545	-160.29299	109.84545	317.3313	370.21985	318.14497	237.59164	13.01872	0
512	60.21158	-118.79582	-179.0074	27.66478	119.60949	-148.08794	119.60949	388.12059	460.53722	423.1084	327.90901	64.27993	0
513	82.18067	-82.18067	-164.36134	0	122.0505	-123.67784	117.16848	461.35089	560.61863	557.36395	454.84153	139.95124	0
514	106.59077	-35.80148	-142.39225	-36.61515	124.49151	-89.5037	104.96343	522.37614	663.14105	711.14758	611.06617	237.59164	0
515	133.44188	26.03744	-108.21811	-80.55333	122.0505	-40.6835	82.99434	563.87331	751.01741	867.37222	789.2599	362.08315	0
516	157.85198	106.59077	-52.07488	-131.81454	104.96343	28.47845	56.14323	580.96038	816.92468	1023.59686	977.21767	506.10274	0
517	179.82107	196.90814	17.08707	-187.95777	82.99434	106.59077	13.83239	563.87331	853.53983	1160.29342	1162.73443	664.76839	0
518	196.90814	299.43056	102.52242	-248.98302	48.8202	201.79016	-52.07488	483.31998	826.68872	1253.0518	1326.2821	828.31606	0
519	211.5542	401.95298	190.39878	-307.56726	12.20505	296.98955	-144.83326	344.18241	738.81236	1282.34392	1436.12755	969.89464	0
520	216.43622	492.27035	275.83413	-353.94645	-30.10579	384.86591	-252.2377	163.54767	602.1158	1250.61079	1472.7427	1065.09403	0
521	211.5542	577.7057	366.1515	-395.44362	-76.48498	472.74227	-379.17022	-44.75185	438.56813	1187.14453	1455.65563	1123.67827	0
522	194.46713	648.49499	454.02786	-422.29473	-130.1872	550.85459	-506.10274	-271.76578	260.3744	1101.70918	1392.18937	1133.44231	0
523	165.17501	680.22812	515.05311	-422.29473	-174.12538	597.23378	-625.71223	-501.22072	62.65259	984.5407	1279.90291	1082.1811	0
524	126.11885	672.90509	546.78624	-400.32564	-210.74053	609.43883	-723.35263	-711.14758	-143.20592	830.75707	1111.47322	969.89464	0
525	74.85764	626.5259	551.66826	-351.50544	-237.59164	589.91075	-781.93687	-877.13626	-338.48672	640.35829	889.34131	801.46495	0
526	16.2734	555.73661	539.46321	-285.59817	-262.00174	548.41358	-813.67	-1030.91989	-575.26469	344.99608	581.77405	591.53809	0
527	-45.56552	465.41924	510.17109	-209.92686	-276.6478	487.38833	-823.43404	-1182.26251	-851.09882	-51.26121	203.4175	354.76012	0
528	-99.26774	343.36874	441.82281	-122.0505	-269.32477	392.18894	-813.67	-1292.10796	-1095.19982	-444.26382	-163.54767	113.10013	0
529	-145.64693	218.87723	363.71049	-36.61515	-254.67871	289.66652	-801.46495	-1362.89725	-1295.36264	-800.65128	-500.40705	-107.40444	0
530	-179.82107	104.14976	283.15716	37.42882	-230.26861	192.02612	-781.93687	-1389.74836	-1432.0592	-1093.57248	-781.1232	-295.36221	0
531	-199.34915	6.50936	205.04484	96.01306	-200.97649	104.14976	-759.96778	-1387.30735	-1510.17152	-1323.02742	-1000.8141	-439.3818	0
532	-206.67218	-67.53461	139.13757	135.06922	-174.12538	35.80148	-733.11667	-1358.01523	-1519.93556	-1440.1959	-1125.30561	-532.14018	0
533	-199.34915	-123.67784	75.67131	159.47932	-137.51023	-26.03744	-701.38354	-1275.02089	-1424.73617	-1386.49368	-1108.21854	-563.87331	0
534	-184.70309	-157.85198	26.85111	169.24336	-105.7771	-67.53461	-657.44536	-1162.73443	-1283.15759	-1257.12015	-1025.2242	-558.99129	0
535	-165.17501	-172.49804	-8.1367	166.80235	-78.92599	-91.94471	-606.18415	-1052.88898	-1146.46103	-1132.62864	-930.02481	-534.58119	0
536	-143.20592	-170.05703	-27.66478	154.5973	-59.39791	-99.26774	-550.04092	-945.48454	-1019.52851	-1015.46016	-837.26643	-495.52503	0
537	-123.67784	-157.85198	-34.98781	139.95124	-44.75185	-96.82673	-491.45668	-840.52111	-895.037	-903.1737	-746.94906	-449.14584	0
538	-104.14976	-140.76491	-37.42882	120.42316	-34.98781	-89.5037	-430.43143	-735.55768	-780.30953	-798.21027	-659.0727	-402.76665	0
539	-87.06269	-121.23683	-34.98781	103.33609	-27.66478	-79.73966	-369.40618	-637.91728	-672.90509	-700.56987	-578.51937	-351.50544	0
540	-69.97562	-99.26774	-30.10579	83.80801	-20.34175	-65.0936	-310.82194	-545.1589	-577.7057	-607.81149	-500.40705	-302.68524	0
541	-60.21158	-74.85764	-15.45973	66.72094	-22.78276	-45.56552	-252.2377	-464.60557	-489.82934	-529.69917	-436.94079	-263.62908	0
542	-52.88855	-52.88855	0	52.07488	-27.66478	-28.47845	-200.97649	-401.13931	-414.15803	-458.90988	-383.23857	-229.45494	0
543	-48.00653	-30.91946	17.08707	37.42882	-32.5468	-8.95037	-157.03831	-347.43709	-350.69177	-402.76665	-336.85938	-200.16282	0
544	-48.00653	-13.83239	34.17414	30.10579	-42.31084	8.95037	-117.98215	-305.93992	-299.43056	-356.38746	-297.80322	-180.63474	0
545	-45.56552	1.62734	46.37919	20.34175	-44.75185	23.59643	-83.80801	-271.76578	-257.93339	-317.3313	-263.62908	-163.54767	0
546	-45.56552	16.2734	61.02525	13.01872	-52.07488	38.24249	-54.51589	-247.35568	-223.75925	-285.59817	-236.77797	-151.34262	0
547	-45.56552	26.03744	70.78929	8.1367	-56.9569	48.00653	-32.5468	-227.8276	-199.34915	-261.18807	-212.36787	-139.13757	0
548	-45.56552	30.91946	75.67131	5.69569	-59.39791	52.88855	-13.01872	-210.74053	-179.82107	-239.21898	-192.83979	-129.37353	0
549	-45.56552	33.36047	78.11232	5.69569	-61.83892	55.32956	4.06835	-193.65346	-165.17501	-224.57292	-178.19373	-119.60949	0
550	-45.56552	33.36047	78.11232	5.69569	-61.83892	55.32956	16.2734	-179.0074	-155.41097	-209.92686	-165.98868	-112.28646	0
551	-45.56552	35.80148	80.55333	2.44101	-61.83892	57.77057	26.85111	-166.80235	-143.20592	-200.16282	-158.66565	-104.96343	0
552	-45.56552	38.24249	82.99434	2.44101	-64.27993	60.21158	34.17414	-159.47932	-135.88289	-192.83979	-153.78363	-100.08141	0
553	-45.56552	38.24249	82.99434	2.44101	-64.27993	60.21158	41.49717	-154.5973	-128.55986	-187.95777	-148.90161	-97.6404	0
554	-43.12451	40.6835	82.99434	0	-61.83892	60.21158	46.37919	-152.15629	-121.23683	-183.07575	-146.4606	-97.6404	0
555	-40.6835	40.6835	80.55333	0	-59.39791	60.21158	51.26121	-152.15629	-116.35481	-180.63474	-139.13757	-95.19939	0
556	-40.6835	43.12451	82.99434	-2.44101	-61.83892	62.65259	53.70222	-147.27427	-111.47279	-175.75272	-131.81454	-92.75838	0
557	-40.6835	43.12451	82.99434	-2.44101	-61.83892	62.65259	56.14323	-139.95124	-106.59077	-170.8707	-124.49151	-90.31737	0
558	-40.6835	43.12451	82.99434	-2.44101	-61.83892	62.65259	58.58424	-130.1872	-104.14976	-165.98868	-119.60949	-87.87636	0
559	-43.12451	43.12451	85.43535	0	-64.27993	62.65259	61.02525	-117.98215	-104.14976	-165.98868	-114.72747	-82.99434	0
560	-45.56552	45.56552	90.31737	0	-66.72094	67.53461	63.46626	-108.21811	-106.59077	-163.54767	-114.72747	-80.55333	0
561	-45.56552	48.00653	92.75838	-2.44101	-69.16195	69.97562	63.46626	-96.01306	-106.59077	-163.54767	-114.72747	-78.11232	0
562	-45.56552	52.88855	97.6404	-4.88202	-71.60296	74.85764	65.90727	-88.69003	-109.03178	-161.10666	-119.60949	-75.67131	0
563	-48.00653	55.32956	102.52242	-4.88202	-74.04397	77.29865	68.34828	-88.69003	-109.03178	-163.54767	-122.0505	-80.55333	0
564	-48.00653	57.77057	104.96343	-4.88202	-76.48498	79.73966	68.34828	-88.69003	-109.03178	-168.42969	-126.93252	-82.99434	0
565	-48.00653	57.77057	104.96343	-4.88202	-76.48498	79.73966	68.34828	-91.13104	-111.47279	-170.8707	-126.93252	-85.43535	0
566	-50.44754	62.65259	112.28646	-7.32303	-81.367	87.06269	68.34828	-93.57205	-113.9138	-170.8707	-124.49151	-85.43535	0
567	-50.44754	62.65259	112.28646	-7.32303	-81.367	87.06269	68.34828	-93.57205	-113.9138	-170.8707	-122.0505	-82.99434	0
568	-50.44754	62.65259	112.28646	-7.32303	-81.367	87.06269	68.34828	-93.57205	-113.9138	-168.42969	-122.0505	-82.99434	0
569	-52.88855	65.0936	117.16848	-7.32303	-83.80801	89.5037	70.78929	-93.57205	-118.79582	-170.8707	-122.0505	-82.99434	0
570	-52.88855	69.97562	122.0505	-9.76404	-86.24902	94.38572	70.78929	-91.13104	-123.67784	-170.8707	-122.0505	-78.11232	0
571	-55.32956	74.85764	129.37353	-9.76404	-91.13104	101.70875	73.2303	-91.13104	-128.55986	-173.31171	-122.0505	-75.67131	0
572	-55.32956	79.73966	134.25555	-12.20505	-93.57205	106.59077	75.67131	-93.57205	-131.00087	-175.75272	-129.37353	-75.67131	0
573	-55.32956	82.18067	136.69656	-14.64606	-96.01306	109.03178	75.67131	-98.45407	-133.44188	-180.63474	-131.81454	-78.11232	0
574	-57.77057	84.62168	141.57858	-14.64606	-98.45407	111.47279	75.67131	-105.7771	-135.88289	-185.51676	-139.13757	-82.99434	0
575	-57.77057	89.5037	146.4606	-17.08707	-100.89508	116.35481	75.67131	-110.65912	-140.76491	-190.39878	-141.57858	-82.99434	0
576	-60.21158	91.94471	151.34262	-17.08707	-105.7771	121.23683	75.67131	-115.54114	-143.20592	-192.83979	-144.01959	-85.43535	0
577	-60.21158	94.38572	153.78363	-17.08707	-105.7771	123.67784	73.2303	-120.42316	-145.64693	-195.2808	-146.4606	-85.43535	0
578	-62.65259	96.82673	158.66565	-17.08707	-110.65912	126.11885	73.2303	-125.30518	-150.52895	-197.72181	-148.90161	-85.43535	0
579	-65.0936	101.70875	165.98868	-19.52808	-115.54114	133.44188	73.2303	-127.74619	-157.85198	-205.04484	-153.78363	-85.43535	0
580	-65.0936	104.14976	168.42969	-19.52808	-115.54114	135.88289	73.2303	-130.1872	-165.17501	-207.48585	-156.22464	-85.43535	0
581	-67.53461	111.47279	178.19373	-21.96909	-122.86417	143.20592	73.2303	-135.06922	-170.05703	-214.80888	-161.10666	-82.99434	0
582	-67.53461	118.79582	185.51676	-26.85111	-125.30518	150.52895	73.2303	-139.95124	-174.93905	-219.6909	-170.8707	-85.43535	0
583	-67.53461	123.67784	190.39878	-29.29212	-127.74619	155.41097	73.2303	-149.71528	-179.82107	-227.01393	-178.19373	-87.87636	0
584	-67.53461	128.55986	195.2808	-31.73313	-130.1872	160.29299	73.2303	-157.03831	-184.70309	-234.33696	-185.51676	-97.6404	0
585	-67.53461	135.88289	202.60383	-34.17414	-135.06922	167.61602	73.2303	-166.80235	-192.02612	-239.21898	-190.39878	-102.52242	0
586	-69.97562	143.20592	212.36787	-36.61515	-139.95124	177.38006	73.2303	-171.68437	-196.90814	-239.21898	-192.83979	-107.40444	0
587	-69.97562	150.52895	219.6909	-41.49717	-144.83326	184.70309	73.2303	-179.0074	-201.79016	-239.21898	-195.2808	-109.84545	0
588	-74.85764	155.41097	229.45494	-41.49717	-152.15629	192.02612	73.2303	-186.33043	-209.11319	-241.65999	-197.72181	-112.28646	0
589	-77.29865	162.734	239.21898	-43.93818	-157.03831	199.34915	73.2303	-191.21245	-218.87723	-246.54201	-202.60383	-112.28646	0
590	-79.73966	170.05703	248.98302	-46.37919	-164.36134	209.11319	73.2303	-193.65346	-228.64127	-248.98302	-205.04484	-109.84545	0
591	-82.18067	179.82107	261.18807	-48.8202	-171.68437	218.87723	73.2303	-198.53548	-235.9643	-253.86504	-209.92686	-107.40444	0
592	-84.62168	189.58511	273.39312	-53.70222	-179.0074	231.08228	73.2303	-208.29952	-243.28733	-258.74706	-217.24989	-107.40444	0
593	-87.06269	196.90814	283.15716	-56.14323	-183.88942	238.40531	75.67131	-215.62255	-250.61036	-266.07009	-222.13191	-107.40444	0
594	-89.5037	204.23117	292.9212	-58.58424	-191.21245	248.16935	75.67131	-220.50457	-255.49238	-275.83413	-229.45494	-114.72747	0
595	-91.94471	211.5542	302.68524	-61.02525	-196.09447	255.49238	75.67131	-225.38659	-262.81541	-280.71615	-234.33696	-119.60949	0
596	-94.38572	221.31824	314.89029	-63.46626	-203.4175	267.69743	75.67131	-225.38659	-270.13844	-285.59817	-236.77797	-122.0505	0
597	-96.82673	228.64127	324.65433	-65.90727	-210.74053	275.02046	73.2303	-227.8276	-275.02046	-288.03918	-239.21898	-124.49151	0
598	-96.82673	233.52329	329.53635	-68.34828	-213.18154	279.90248	73.2303	-225.38659	-282.34349	-292.9212	-239.21898	-124.49151	0
599	-99.26774	243.28733	341.7414	-73.2303	-220.50457	292.10753	73.2303	-222.94558	-292.10753	-297.80322	-241.65999	-124.49151	0
600	-99.26774	253.05137	351.50544	-78.11232	-225.38659	301.87157	73.2303	-222.94558	-301.87157	-300.24423	-244.101	-119.60949	0
601	-99.26774	262.81541	361.26948	-82.99434	-230.26861	311.63561	73.2303	-225.38659	-309.1946	-305.12625	-246.54201	-112.28646	0
602	-101.70875	275.02046	375.91554	-87.87636	-237.59164	323.84066	73.2303	-232.70962	-314.07662	-310.00827	-251.42403	-109.84545	0
603	-101.70875	282.34349	383.23857	-90.31737	-242.47366	331.16369	75.67131	-240.03265	-318.95864	-314.89029	-256.30605	-104.96343	0
604	-104.14976	292.10753	395.44362	-95.19939	-249.79669	343.36874	75.67131	-247.35568	-326.28167	-322.21332	-261.18807	-104.96343	0
605	-104.14976	304.31258	407.64867	-100.08141	-254.67871	355.57379	75.67131	-254.67871	-331.16369	-324.65433	-263.62908	-100.08141	0
606	-106.59077	314.07662	419.85372	-104.96343	-262.00174	365.33783	75.67131	-262.00174	-333.6047	-324.65433	-263.62908	-95.19939	0
607	-111.47279	321.39965	432.05877	-104.96343	-271.76578	375.10187	73.2303	-269.32477	-338.48672	-324.65433	-261.18807	-90.31737	0
608	-113.9138	328.72268	441.82281	-107.40444	-276.6478	384.86591	73.2303	-274.20679	-343.36874	-327.09534	-258.74706	-87.87636	0
609	-113.9138	340.92773	454.02786	-114.72747	-283.97083	397.07096	73.2303	-276.6478	-350.69177	-327.09534	-256.30605	-80.55333	0
610	-113.9138	350.69177	463.7919	-119.60949	-288.85285	406.835	70.78929	-279.08881	-355.57379	-327.09534	-251.42403	-73.2303	0
611	-116.35481	362.89682	478.43796	-124.49151	-296.17588	419.04005	70.78929	-281.52982	-358.0148	-327.09534	-248.98302	-68.34828	0
612	-118.79582	375.10187	493.08402	-129.37353	-305.93992	433.68611	70.78929	-286.41184	-358.0148	-324.65433	-248.98302	-63.46626	0
613	-118.79582	384.86591	502.84806	-134.25555	-310.82194	443.45015	68.34828	-288.85285	-358.0148	-319.77231	-244.101	-61.02525	0
614	-113.9138	397.07096	510.17109	-141.57858	-310.82194	453.21419	68.34828	-291.29386	-355.57379	-314.89029	-241.65999	-53.70222	0
615	-113.9138	406.835	519.93513	-146.4606	-315.70396	462.97823	65.90727	-296.17588	-355.57379	-307.56726	-234.33696	-43.93818	0
616	-111.47279	416.59904	527.25816	-153.78363	-318.14497	470.30126	61.02525	-298.61689	-353.13278	-297.80322	-224.57292	-39.05616	0
617	-109.03178	423.92207	532.14018	-158.66565	-320.58598	477.62429	56.14323	-298.61689	-348.25076	-288.03918	-214.80888	-29.29212	0
618	-106.59077	428.80409	534.58119	-161.10666	-320.58598	480.0653	53.70222	-293.73487	-345.80975	-275.83413	-205.04484	-21.15542	0
619	-104.14976	436.12712	539.46321	-165.98868	-320.58598	487.38833	48.8202	-291.29386	-343.36874	-268.5111	-192.83979	-11.39138	0
620	-99.26774	441.00914	539.46321	-170.8707	-318.14497	489.82934	43.93818	-286.41184	-340.92773	-258.74706	-180.63474	0.81367	0
621	-96.82673	450.77318	546.78624	-178.19373	-320.58598	497.15237	41.49717	-279.08881	-336.04571	-246.54201	-168.42969	10.57771	0
622	-94.38572	458.09621	551.66826	-183.07575	-323.02699	504.4754	39.05616	-276.6478	-326.28167	-234.33696	-158.66565	17.90074	0
623	-91.94471	460.53722	551.66826	-185.51676	-320.58598	504.4754	36.61515	-271.76578	-318.95864	-219.6909	-146.4606	30.10579	0
624	-89.5037	465.41924	554.10927	-187.95777	-320.58598	509.35742	34.17414	-266.88376	-309.1946	-207.48585	-134.25555	39.86983	0
625	-87.06269	467.86025	554.10927	-190.39878	-320.58598	509.35742	29.29212	-264.44275	-296.98955	-190.39878	-119.60949	49.63387	0
626	-82.18067	467.86025	549.22725	-192.83979	-315.70396	506.91641	26.85111	-257.11972	-284.7845	-173.31171	-100.08141	59.39791	0
627	-79.73966	467.86025	546.78624	-195.2808	-313.26295	506.91641	19.52808	-249.79669	-272.57945	-153.78363	-82.99434	71.60296	0
628	-74.85764	465.41924	539.46321	-195.2808	-305.93992	502.03439	16.2734	-237.59164	-260.3744	-136.69656	-65.90727	83.80801	0
629	-72.41663	462.97823	534.58119	-195.2808	-303.49891	497.15237	13.83239	-225.38659	-250.61036	-119.60949	-48.8202	93.57205	0
630	-67.53461	458.09621	524.81715	-195.2808	-296.17588	489.82934	11.39138	-210.74053	-238.40531	-102.52242	-31.73313	103.33609	0
631	-62.65259	458.09621	519.93513	-197.72181	-291.29386	487.38833	8.95037	-196.09447	-223.75925	-85.43535	-17.08707	113.10013	0
632	-60.21158	455.6552	515.05311	-197.72181	-286.41184	484.94732	8.95037	-183.88942	-209.11319	-68.34828	-6.50936	120.42316	0
633	-55.32956	450.77318	505.28907	-197.72181	-279.08881	477.62429	6.50936	-171.68437	-194.46713	-53.70222	8.1367	127.74619	0
634	-50.44754	443.45015	493.08402	-197.72181	-271.76578	467.86025	6.50936	-157.03831	-174.93905	-34.17414	20.34175	132.62821	-1250	T-0
635	-43.12451	436.12712	478.43796	-197.72181	-259.56073	455.6552	6.50936	-142.39225	-155.41097	-14.64606	39.86983	144.83326	0
636	-38.24249	431.2451	468.67392	-197.72181	-252.2377	448.33217	4.06835	-125.30518	-135.88289	5.69569	61.83892	157.03831	0
637	-30.91946	421.48106	451.58685	-195.2808	-240.03265	436.12712	1.62734	-108.21811	-113.9138	30.10579	83.80801	171.68437	0
638	-23.59643	409.27601	432.05877	-192.83979	-227.8276	419.04005	1.62734	-86.24902	-91.94471	54.51589	108.21811	183.88942	0
639	-16.2734	399.51197	414.9717	-192.83979	-215.62255	406.835	-0.81367	-64.27993	-72.41663	76.48498	127.74619	198.53548	0
640	-11.39138	387.30692	397.88463	-187.95777	-203.4175	392.18894	-0.81367	-39.86983	-50.44754	103.33609	149.71528	210.74053	0
641	-4.06835	377.54288	380.79756	-187.95777	-191.21245	377.54288	-3.25468	-13.01872	-28.47845	127.74619	169.24336	222.94558	0
642	-1.62734	365.33783	366.1515	-183.07575	-183.88942	365.33783	-3.25468	8.95037	-4.06835	154.5973	188.77144	227.8276	0
643	6.50936	350.69177	344.18241	-178.19373	-169.24336	348.25076	-0.81367	33.36047	22.78276	179.0074	205.85851	230.26861	0
644	11.39138	336.04571	324.65433	-173.31171	-157.03831	331.16369	-0.81367	53.70222	48.00653	203.4175	222.94558	232.70962	0
645	18.71441	318.95864	300.24423	-168.42969	-139.95124	309.1946	-0.81367	75.67131	74.85764	230.26861	242.47366	237.59164	0
646	21.15542	301.87157	280.71615	-161.10666	-130.1872	292.10753	-0.81367	100.08141	104.14976	257.11972	264.44275	240.03265	0
647	28.47845	284.7845	256.30605	-156.22464	-113.10013	270.13844	-0.81367	124.49151	131.00087	281.52982	281.52982	242.47366	0
648	33.36047	265.25642	231.89595	-148.90161	-98.45407	248.16935	-0.81367	148.90161	155.41097	303.49891	296.17588	242.47366	0
649	38.24249	248.16935	209.92686	-144.01959	-86.24902	228.64127	1.62734	175.75272	174.93905	318.14497	308.38093	242.47366	0
650	43.12451	231.08228	187.95777	-136.69656	-71.60296	209.11319	4.06835	197.72181	192.02612	332.79103	320.58598	242.47366	0
651	45.56552	216.43622	170.8707	-131.81454	-61.83892	194.46713	6.50936	219.6909	206.67218	342.55507	325.468	235.15063	0
652	50.44754	199.34915	148.90161	-124.49151	-49.63387	174.93905	11.39138	236.77797	221.31824	344.99608	323.02699	227.8276	0
653	55.32956	182.26208	126.93252	-119.60949	-34.98781	155.41097	16.2734	251.42403	233.52329	347.43709	320.58598	218.06356	0
654	55.32956	165.17501	109.84545	-109.84545	-27.66478	138.3239	16.2734	261.18807	245.72834	344.99608	318.14497	210.74053	0
655	55.32956	145.64693	90.31737	-100.08141	-17.90074	118.79582	21.96909	270.95211	253.05137	342.55507	315.70396	205.85851	0
656	55.32956	126.11885	70.78929	-90.31737	-8.1367	99.26774	24.4101	280.71615	260.3744	342.55507	310.82194	200.97649	0
657	55.32956	104.14976	48.8202	-80.55333	4.88202	77.29865	24.4101	285.59817	267.69743	337.67305	303.49891	196.09447	0
658	52.88855	82.18067	29.29212	-68.34828	12.20505	55.32956	26.85111	292.9212	270.13844	332.79103	296.17588	191.21245	0
659	50.44754	62.65259	12.20505	-56.14323	19.52808	38.24249	29.29212	300.24423	265.25642	325.468	286.41184	179.0074	0
660	45.56552	45.56552	0	-46.37919	24.4101	23.59643	31.73313	305.12625	255.49238	310.82194	271.76578	164.36134	0
661	40.6835	28.47845	-13.01872	-34.17414	26.85111	8.95037	34.17414	307.56726	245.72834	296.17588	252.2377	147.27427	0
662	40.6835	16.2734	-25.22377	-29.29212	34.17414	-3.25468	36.61515	305.12625	238.40531	276.6478	232.70962	127.74619	0
663	35.80148	4.06835	-32.5468	-19.52808	34.17414	-13.83239	39.05616	300.24423	228.64127	257.11972	213.18154	108.21811	0
664	33.36047	-6.50936	-39.86983	-14.64606	36.61515	-23.59643	39.05616	292.9212	221.31824	237.59164	196.09447	86.24902	0
665	30.91946	-18.71441	-49.63387	-7.32303	39.05616	-33.36047	39.05616	283.15716	213.99521	218.06356	176.56639	69.16195	0
666	30.91946	-28.47845	-59.39791	-2.44101	43.93818	-43.12451	36.61515	275.83413	209.11319	203.4175	164.36134	56.9569	0
667	30.91946	-38.24249	-69.16195	2.44101	48.8202	-52.88855	34.17414	266.07009	204.23117	191.21245	152.15629	52.07488	0
668	30.91946	-50.44754	-81.367	8.1367	56.14323	-65.0936	29.29212	256.30605	196.90814	179.0074	135.06922	44.75185	0
669	30.91946	-62.65259	-93.57205	15.45973	61.02525	-77.29865	29.29212	251.42403	184.70309	166.80235	120.42316	37.42882	0
670	30.91946	-72.41663	-103.33609	20.34175	65.90727	-87.06269	29.29212	248.98302	170.05703	157.03831	105.7771	32.5468	0
671	28.47845	-74.85764	-103.33609	22.78276	65.90727	-89.5037	29.29212	246.54201	157.85198	144.83326	96.01306	30.10579	0
672	26.03744	-77.29865	-103.33609	25.22377	63.46626	-89.5037	31.73313	241.65999	148.08794	135.06922	93.57205	27.66478	0
673	23.59643	-77.29865	-100.89508	25.22377	61.02525	-89.5037	34.17414	234.33696	140.76491	122.86417	93.57205	20.34175	0
674	21.15542	-82.18067	-103.33609	30.10579	61.02525	-91.94471	34.17414	224.57292	133.44188	113.10013	93.57205	10.57771	0
675	18.71441	-87.06269	-105.7771	32.5468	61.02525	-96.82673	34.17414	217.24989	131.00087	103.33609	88.69003	3.25468	0
676	18.71441	-89.5037	-108.21811	34.98781	63.46626	-99.26774	31.73313	212.36787	128.55986	96.01306	83.80801	0.81367	0
677	18.71441	-94.38572	-113.10013	37.42882	65.90727	-104.14976	29.29212	205.04484	126.11885	96.01306	78.92599	-4.06835	0
678	18.71441	-101.70875	-120.42316	39.86983	68.34828	-111.47279	24.4101	200.16282	123.67784	93.57205	74.04397	-6.50936	0
679	16.2734	-106.59077	-122.86417	44.75185	68.34828	-113.9138	21.96909	200.16282	118.79582	88.69003	56.9569	-8.95037	0
680	18.71441	-111.47279	-130.1872	44.75185	73.2303	-121.23683	21.96909	202.60383	109.03178	88.69003	44.75185	-8.95037	0
681	18.71441	-111.47279	-130.1872	44.75185	73.2303	-121.23683	21.96909	202.60383	104.14976	86.24902	37.42882	-6.50936	0
682	18.71441	-111.47279	-130.1872	44.75185	73.2303	-121.23683	21.96909	202.60383	101.70875	86.24902	39.86983	-6.50936	0
683	18.71441	-111.47279	-130.1872	44.75185	73.2303	-121.23683	24.4101	200.16282	101.70875	81.367	47.19286	-6.50936	0
684	18.71441	-111.47279	-130.1872	44.75185	73.2303	-121.23683	26.85111	195.2808	101.70875	76.48498	47.19286	-11.39138	0
685	18.71441	-113.9138	-132.62821	47.19286	75.67131	-123.67784	26.85111	192.83979	101.70875	74.04397	49.63387	-13.83239	0
686	18.71441	-113.9138	-132.62821	47.19286	75.67131	-123.67784	26.85111	187.95777	104.14976	74.04397	52.07488	-16.2734	0
687	21.15542	-116.35481	-137.51023	47.19286	78.11232	-126.11885	24.4101	187.95777	106.59077	74.04397	54.51589	-16.2734	0
688	21.15542	-121.23683	-142.39225	49.63387	80.55333	-131.00087	19.52808	185.51676	109.03178	76.48498	52.07488	-18.71441	0
689	23.59643	-126.11885	-149.71528	49.63387	85.43535	-138.3239	16.2734	185.51676	104.14976	76.48498	47.19286	-21.15542	0
690	23.59643	-126.11885	-149.71528	49.63387	85.43535	-138.3239	16.2734	190.39878	99.26774	78.92599	44.75185	-18.71441	0
691	23.59643	-126.11885	-149.71528	49.63387	85.43535	-138.3239	16.2734	192.83979	94.38572	78.92599	42.31084	-16.2734	0
692	21.15542	-123.67784	-144.83326	49.63387	82.99434	-133.44188	16.2734	195.2808	91.94471	78.92599	44.75185	-16.2734	0
693	21.15542	-121.23683	-142.39225	49.63387	80.55333	-131.00087	16.2734	192.83979	91.94471	74.04397	52.07488	-16.2734	0
694	18.71441	-121.23683	-139.95124	49.63387	78.11232	-131.00087	16.2734	190.39878	94.38572	71.60296	59.39791	-21.15542	0
695	18.71441	-123.67784	-142.39225	52.07488	80.55333	-133.44188	16.2734	187.95777	96.82673	69.16195	66.72094	-26.85111	0
696	16.2734	-126.11885	-142.39225	54.51589	78.11232	-133.44188	16.2734	185.51676	99.26774	69.16195	66.72094	-26.85111	0
697	18.71441	-126.11885	-144.83326	52.07488	80.55333	-135.88289	16.2734	183.07575	101.70875	74.04397	61.83892	-26.85111	0
698	21.15542	-128.55986	-149.71528	52.07488	85.43535	-138.3239	16.2734	183.07575	104.14976	76.48498	59.39791	-26.85111	0
699	21.15542	-131.00087	-152.15629	54.51589	85.43535	-140.76491	16.2734	183.07575	104.14976	76.48498	52.07488	-26.85111	0
700	21.15542	-133.44188	-154.5973	54.51589	87.87636	-143.20592	16.2734	187.95777	96.82673	76.48498	47.19286	-23.59643	0
701	21.15542	-131.00087	-152.15629	54.51589	85.43535	-140.76491	16.2734	192.83979	96.82673	76.48498	39.86983	-16.2734	0
702	21.15542	-126.11885	-147.27427	52.07488	82.99434	-135.88289	16.2734	192.83979	94.38572	74.04397	34.98781	-13.83239	0
703	21.15542	-123.67784	-144.83326	49.63387	82.99434	-133.44188	16.2734	190.39878	96.82673	69.16195	37.42882	-16.2734	0
704	18.71441	-123.67784	-142.39225	52.07488	80.55333	-133.44188	16.2734	185.51676	99.26774	64.27993	39.86983	-23.59643	0
705	16.2734	-123.67784	-139.95124	52.07488	78.11232	-131.00087	16.2734	183.07575	99.26774	59.39791	42.31084	-26.85111	0
706	16.2734	-123.67784	-139.95124	52.07488	78.11232	-131.00087	16.2734	178.19373	104.14976	59.39791	39.86983	-29.29212	0
707	16.2734	-123.67784	-139.95124	52.07488	78.11232	-131.00087	16.2734	175.75272	106.59077	61.83892	39.86983	-29.29212	0
708	18.71441	-126.11885	-144.83326	52.07488	80.55333	-135.88289	16.2734	173.31171	109.03178	64.27993	32.5468	-29.29212	0
709	18.71441	-131.00087	-149.71528	54.51589	82.99434	-140.76491	16.2734	175.75272	109.03178	66.72094	30.10579	-29.29212	0
710	21.15542	-131.00087	-152.15629	54.51589	85.43535	-140.76491	16.2734	180.63474	104.14976	66.72094	30.10579	-26.85111	0
711	21.15542	-128.55986	-149.71528	52.07488	85.43535	-138.3239	16.2734	183.07575	101.70875	69.16195	32.5468	-21.15542	0
712	21.15542	-123.67784	-144.83326	49.63387	82.99434	-133.44188	19.52808	183.07575	99.26774	69.16195	34.98781	-18.71441	0
713	21.15542	-123.67784	-144.83326	49.63387	82.99434	-133.44188	21.96909	180.63474	101.70875	66.72094	32.5468	-18.71441	0
714	21.15542	-123.67784	-144.83326	49.63387	82.99434	-133.44188	24.4101	173.31171	101.70875	64.27993	37.42882	-23.59643	0
715	18.71441	-123.67784	-142.39225	52.07488	80.55333	-133.44188	24.4101	168.42969	104.14976	59.39791	47.19286	-29.29212	0
716	18.71441	-123.67784	-142.39225	52.07488	80.55333	-133.44188	24.4101	165.98868	106.59077	59.39791	47.19286	-31.73313	0
717	18.71441	-123.67784	-142.39225	52.07488	80.55333	-133.44188	24.4101	161.10666	109.03178	61.83892	49.63387	-31.73313	0
718	21.15542	-128.55986	-149.71528	52.07488	85.43535	-138.3239	19.52808	158.66565	111.47279	66.72094	49.63387	-34.17414	0
719	21.15542	-131.00087	-152.15629	54.51589	85.43535	-140.76491	19.52808	161.10666	109.03178	69.16195	49.63387	-34.17414	0
720	23.59643	-131.00087	-154.5973	52.07488	87.87636	-143.20592	19.52808	165.98868	104.14976	71.60296	52.07488	-31.73313	0
721	26.03744	-128.55986	-154.5973	49.63387	90.31737	-140.76491	19.52808	170.8707	101.70875	71.60296	52.07488	-26.85111	0
722	28.47845	-123.67784	-152.15629	47.19286	90.31737	-138.3239	24.4101	173.31171	101.70875	71.60296	49.63387	-21.15542	0
723	26.03744	-121.23683	-147.27427	47.19286	85.43535	-133.44188	26.85111	173.31171	104.14976	71.60296	44.75185	-21.15542	0
724	26.03744	-121.23683	-147.27427	47.19286	85.43535	-133.44188	29.29212	170.8707	109.03178	69.16195	42.31084	-23.59643	0
725	23.59643	-121.23683	-144.83326	47.19286	82.99434	-133.44188	29.29212	170.8707	113.9138	66.72094	42.31084	-26.85111	0
726	23.59643	-121.23683	-144.83326	47.19286	82.99434	-133.44188	31.73313	170.8707	118.79582	69.16195	44.75185	-26.85111	0
727	23.59643	-121.23683	-144.83326	47.19286	82.99434	-133.44188	36.61515	168.42969	123.67784	74.04397	49.63387	-26.85111	0
728	21.15542	-128.55986	-149.71528	52.07488	85.43535	-138.3239	41.49717	168.42969	128.55986	78.92599	56.9569	-26.85111	0
729	23.59643	-131.00087	-154.5973	52.07488	87.87636	-143.20592	48.8202	173.31171	128.55986	81.367	61.83892	-23.59643	0
730	23.59643	-135.88289	-159.47932	54.51589	90.31737	-148.08794	56.14323	178.19373	126.11885	83.80801	66.72094	-16.2734	0
731	26.03744	-135.88289	-161.92033	54.51589	92.75838	-148.08794	63.46626	185.51676	123.67784	83.80801	66.72094	-11.39138	0
732	26.03744	-131.00087	-157.03831	52.07488	90.31737	-143.20592	73.2303	185.51676	123.67784	86.24902	66.72094	-6.50936	0
733	28.47845	-131.00087	-159.47932	49.63387	92.75838	-145.64693	78.11232	187.95777	126.11885	86.24902	64.27993	-6.50936	0
734	28.47845	-131.00087	-159.47932	49.63387	92.75838	-145.64693	78.11232	187.95777	131.00087	83.80801	59.39791	-11.39138	0
735	28.47845	-131.00087	-159.47932	49.63387	92.75838	-145.64693	78.11232	190.39878	133.44188	81.367	59.39791	-18.71441	0
736	28.47845	-131.00087	-159.47932	49.63387	92.75838	-145.64693	78.11232	192.83979	138.3239	83.80801	59.39791	-21.15542	0
737	28.47845	-133.44188	-161.92033	52.07488	95.19939	-148.08794	78.11232	192.83979	143.20592	88.69003	66.72094	-21.15542	0
738	28.47845	-135.88289	-164.36134	52.07488	95.19939	-150.52895	73.2303	192.83979	145.64693	93.57205	71.60296	-21.15542	0
739	30.91946	-138.3239	-169.24336	52.07488	100.08141	-152.96996	70.78929	197.72181	148.08794	98.45407	76.48498	-16.2734	0
740	33.36047	-138.3239	-171.68437	52.07488	102.52242	-155.41097	70.78929	202.60383	145.64693	100.89508	78.92599	-6.50936	0
741	33.36047	-135.88289	-169.24336	49.63387	100.08141	-152.96996	73.2303	205.04484	145.64693	103.33609	78.92599	0.81367	0
742	33.36047	-133.44188	-166.80235	49.63387	100.08141	-150.52895	75.67131	207.48585	145.64693	103.33609	78.92599	5.69569	0
743	30.91946	-133.44188	-164.36134	49.63387	97.6404	-148.08794	75.67131	205.04484	148.08794	103.33609	74.04397	5.69569	0
744	28.47845	-135.88289	-164.36134	52.07488	95.19939	-150.52895	78.11232	200.16282	150.52895	100.89508	69.16195	0.81367	0
745	23.59643	-140.76491	-164.36134	56.9569	92.75838	-152.96996	78.11232	197.72181	152.96996	100.89508	69.16195	-1.62734	0
746	23.59643	-143.20592	-166.80235	59.39791	95.19939	-155.41097	78.11232	192.83979	155.41097	100.89508	71.60296	-6.50936	0
747	23.59643	-145.64693	-169.24336	59.39791	95.19939	-157.85198	75.67131	190.39878	160.29299	105.7771	76.48498	-6.50936	0
748	26.03744	-150.52895	-176.56639	61.83892	100.08141	-162.734	73.2303	190.39878	165.17501	113.10013	83.80801	-4.06835	0
749	28.47845	-155.41097	-183.88942	61.83892	104.96343	-170.05703	73.2303	192.83979	165.17501	117.98215	88.69003	-1.62734	0
750	28.47845	-157.85198	-186.33043	64.27993	107.40444	-172.49804	70.78929	197.72181	157.85198	120.42316	91.13104	0.81367	0
751	30.91946	-155.41097	-186.33043	61.83892	107.40444	-170.05703	70.78929	200.16282	155.41097	120.42316	91.13104	5.69569	0
752	33.36047	-150.52895	-183.88942	56.9569	107.40444	-167.61602	75.67131	202.60383	155.41097	122.86417	91.13104	10.57771	0
753	33.36047	-150.52895	-183.88942	56.9569	107.40444	-167.61602	75.67131	200.16282	155.41097	122.86417	83.80801	8.1367	0
754	33.36047	-150.52895	-183.88942	56.9569	107.40444	-167.61602	75.67131	195.2808	157.85198	120.42316	78.92599	0.81367	0
755	33.36047	-152.96996	-186.33043	59.39791	109.84545	-170.05703	75.67131	192.83979	160.29299	115.54114	74.04397	-11.39138	0
756	33.36047	-155.41097	-188.77144	59.39791	109.84545	-172.49804	75.67131	190.39878	167.61602	115.54114	76.48498	-13.83239	0
757	33.36047	-157.85198	-191.21245	61.83892	112.28646	-174.93905	75.67131	190.39878	172.49804	120.42316	83.80801	-16.2734	0
758	30.91946	-165.17501	-196.09447	66.72094	112.28646	-179.82107	70.78929	190.39878	177.38006	122.86417	88.69003	-18.71441	0
759	30.91946	-170.05703	-200.97649	69.16195	114.72747	-184.70309	68.34828	195.2808	177.38006	125.30518	88.69003	-18.71441	0
760	30.91946	-172.49804	-203.4175	69.16195	117.16848	-187.1441	68.34828	200.16282	177.38006	127.74619	93.57205	-11.39138	0
761	30.91946	-172.49804	-203.4175	69.16195	117.16848	-187.1441	70.78929	207.48585	177.38006	127.74619	93.57205	-1.62734	0
762	28.47845	-170.05703	-198.53548	69.16195	112.28646	-184.70309	73.2303	207.48585	177.38006	125.30518	93.57205	5.69569	0
763	28.47845	-167.61602	-196.09447	69.16195	112.28646	-182.26208	75.67131	207.48585	177.38006	120.42316	86.24902	3.25468	0
764	28.47845	-167.61602	-196.09447	69.16195	112.28646	-182.26208	75.67131	202.60383	179.82107	113.10013	78.92599	-1.62734	0
765	30.91946	-167.61602	-198.53548	66.72094	114.72747	-182.26208	75.67131	200.16282	179.82107	108.21811	76.48498	-6.50936	0
766	33.36047	-170.05703	-203.4175	66.72094	117.16848	-187.1441	75.67131	197.72181	179.82107	105.7771	76.48498	-13.83239	0
767	33.36047	-172.49804	-205.85851	69.16195	119.60949	-189.58511	70.78929	192.83979	182.26208	105.7771	78.92599	-16.2734	0
768	33.36047	-174.93905	-208.29952	69.16195	119.60949	-192.02612	65.90727	190.39878	184.70309	105.7771	78.92599	-16.2734	0
769	33.36047	-179.82107	-213.18154	71.60296	122.0505	-196.90814	63.46626	187.95777	184.70309	108.21811	78.92599	-18.71441	0
770	35.80148	-179.82107	-215.62255	71.60296	124.49151	-196.90814	61.02525	187.95777	177.38006	108.21811	81.367	-11.39138	0
771	35.80148	-179.82107	-215.62255	71.60296	124.49151	-196.90814	61.02525	190.39878	174.93905	108.21811	78.92599	-6.50936	0
772	35.80148	-174.93905	-210.74053	69.16195	122.0505	-192.02612	63.46626	190.39878	172.49804	103.33609	74.04397	-1.62734	0
773	38.24249	-172.49804	-210.74053	66.72094	124.49151	-192.02612	65.90727	185.51676	170.05703	98.45407	66.72094	0.81367	0
774	38.24249	-172.49804	-210.74053	66.72094	124.49151	-192.02612	68.34828	183.07575	170.05703	93.57205	59.39791	-1.62734	0
775	38.24249	-172.49804	-210.74053	66.72094	124.49151	-192.02612	70.78929	180.63474	170.05703	88.69003	54.51589	-6.50936	0
776	38.24249	-174.93905	-213.18154	66.72094	124.49151	-194.46713	70.78929	178.19373	170.05703	86.24902	54.51589	-13.83239	0
777	35.80148	-174.93905	-210.74053	69.16195	122.0505	-192.02612	70.78929	178.19373	170.05703	83.80801	56.9569	-18.71441	0
778	35.80148	-177.38006	-213.18154	69.16195	124.49151	-194.46713	68.34828	175.75272	172.49804	83.80801	59.39791	-18.71441	0
779	33.36047	-179.82107	-213.18154	71.60296	122.0505	-196.90814	65.90727	175.75272	172.49804	86.24902	61.83892	-18.71441	0
780	30.91946	-182.26208	-213.18154	74.04397	122.0505	-196.90814	63.46626	175.75272	170.05703	86.24902	61.83892	-18.71441	0
781	30.91946	-182.26208	-213.18154	74.04397	122.0505	-196.90814	63.46626	175.75272	167.61602	86.24902	61.83892	-13.83239	0
782	30.91946	-179.82107	-210.74053	74.04397	119.60949	-194.46713	63.46626	175.75272	165.17501	83.80801	59.39791	-8.95037	0
783	30.91946	-179.82107	-210.74053	74.04397	119.60949	-194.46713	63.46626	165.98868	162.734	78.92599	52.07488	-8.95037	0
784	33.36047	-177.38006	-210.74053	71.60296	122.0505	-194.46713	63.46626	156.22464	160.29299	76.48498	44.75185	-13.83239	0
785	33.36047	-177.38006	-210.74053	71.60296	122.0505	-194.46713	61.02525	144.01959	157.85198	69.16195	37.42882	-23.59643	0
786	33.36047	-179.82107	-213.18154	71.60296	122.0505	-196.90814	61.02525	131.81454	155.41097	64.27993	34.98781	-26.85111	0
787	33.36047	-182.26208	-215.62255	74.04397	124.49151	-199.34915	58.58424	117.16848	152.96996	61.83892	34.98781	-34.17414	0
788	30.91946	-184.70309	-215.62255	76.48498	122.0505	-199.34915	53.70222	104.96343	152.96996	61.83892	34.98781	-36.61515	0
789	30.91946	-184.70309	-215.62255	76.48498	122.0505	-199.34915	53.70222	95.19939	148.08794	64.27993	34.98781	-36.61515	0
790	30.91946	-187.1441	-218.06356	76.48498	124.49151	-201.79016	53.70222	90.31737	143.20592	61.83892	37.42882	-34.17414	0
791	28.47845	-187.1441	-215.62255	78.92599	122.0505	-201.79016	51.26121	87.87636	138.3239	61.83892	34.98781	-31.73313	0
792	26.03744	-184.70309	-210.74053	78.92599	117.16848	-196.90814	53.70222	85.43535	133.44188	61.83892	34.98781	-26.85111	0
793	26.03744	-182.26208	-208.29952	76.48498	117.16848	-194.46713	53.70222	80.55333	133.44188	61.83892	30.10579	-26.85111	0
794	28.47845	-179.82107	-208.29952	74.04397	117.16848	-194.46713	53.70222	78.11232	131.00087	59.39791	22.78276	-29.29212	0
795	28.47845	-179.82107	-208.29952	74.04397	117.16848	-194.46713	53.70222	75.67131	131.00087	54.51589	20.34175	-34.17414	0
796	28.47845	-179.82107	-208.29952	74.04397	117.16848	-194.46713	53.70222	70.78929	131.00087	52.07488	17.90074	-41.49717	0
797	30.91946	-177.38006	-208.29952	71.60296	119.60949	-192.02612	51.26121	68.34828	131.00087	52.07488	20.34175	-46.37919	0
798	30.91946	-177.38006	-208.29952	71.60296	119.60949	-192.02612	48.8202	65.90727	131.00087	52.07488	22.78276	-46.37919	0
799	30.91946	-179.82107	-210.74053	74.04397	119.60949	-194.46713	48.8202	63.46626	131.00087	52.07488	22.78276	-46.37919	0
800	28.47845	-182.26208	-210.74053	76.48498	119.60949	-196.90814	48.8202	63.46626	128.55986	49.63387	22.78276	-46.37919	0
801	26.03744	-182.26208	-208.29952	76.48498	117.16848	-194.46713	48.8202	61.02525	126.11885	49.63387	22.78276	-43.93818	0
802	26.03744	-182.26208	-208.29952	76.48498	117.16848	-194.46713	48.8202	61.02525	123.67784	47.19286	22.78276	-39.05616	0
803	23.59643	-179.82107	-203.4175	76.48498	112.28646	-192.02612	48.8202	58.58424	121.23683	44.75185	15.45973	-39.05616	0
804	23.59643	-177.38006	-200.97649	76.48498	112.28646	-189.58511	48.8202	53.70222	121.23683	42.31084	13.01872	-41.49717	0
805	23.59643	-177.38006	-200.97649	76.48498	112.28646	-189.58511	46.37919	51.26121	121.23683	37.42882	8.1367	-46.37919	0
806	26.03744	-177.38006	-203.4175	74.04397	114.72747	-189.58511	43.93818	48.8202	118.79582	34.98781	5.69569	-51.26121	0
807	26.03744	-177.38006	-203.4175	74.04397	114.72747	-189.58511	41.49717	45.56552	116.35481	34.98781	8.1367	-56.14323	0
808	28.47845	-177.38006	-205.85851	74.04397	117.16848	-192.02612	39.05616	45.56552	116.35481	34.98781	8.1367	-58.58424	0
809	28.47845	-177.38006	-205.85851	74.04397	117.16848	-192.02612	39.05616	43.12451	116.35481	34.98781	10.57771	-58.58424	0
810	28.47845	-177.38006	-205.85851	74.04397	117.16848	-192.02612	41.49717	45.56552	113.9138	34.98781	13.01872	-56.14323	0
811	26.03744	-174.93905	-200.97649	74.04397	112.28646	-187.1441	41.49717	45.56552	111.47279	34.98781	13.01872	-56.14323	0
812	23.59643	-167.61602	-191.21245	71.60296	107.40444	-179.82107	48.8202	45.56552	109.03178	34.98781	13.01872	-48.8202	0
813	23.59643	-157.85198	-181.44841	66.72094	102.52242	-170.05703	51.26121	45.56552	111.47279	34.98781	10.57771	-46.37919	0
814	23.59643	-150.52895	-174.12538	61.83892	97.6404	-162.734	56.14323	51.26121	116.35481	37.42882	10.57771	-41.49717	0
815	26.03744	-140.76491	-166.80235	56.9569	95.19939	-152.96996	61.02525	56.14323	118.79582	37.42882	10.57771	-43.93818	0
816	28.47845	-133.44188	-161.92033	52.07488	95.19939	-148.08794	65.90727	58.58424	123.67784	42.31084	10.57771	-41.49717	0
817	28.47845	-126.11885	-154.5973	47.19286	90.31737	-140.76491	70.78929	63.46626	128.55986	47.19286	15.45973	-36.61515	0
818	30.91946	-118.79582	-149.71528	42.31084	90.31737	-133.44188	73.2303	65.90727	133.44188	49.63387	22.78276	-31.73313	0
819	30.91946	-118.79582	-149.71528	42.31084	90.31737	-133.44188	73.2303	68.34828	135.88289	54.51589	25.22377	-29.29212	0
820	30.91946	-118.79582	-149.71528	42.31084	90.31737	-133.44188	75.67131	73.2303	133.44188	54.51589	27.66478	-26.85111	0
821	30.91946	-116.35481	-147.27427	42.31084	87.87636	-131.00087	75.67131	75.67131	131.00087	54.51589	27.66478	-23.59643	0
822	33.36047	-111.47279	-144.83326	37.42882	87.87636	-128.55986	78.11232	78.11232	131.00087	54.51589	27.66478	-18.71441	0
823	33.36047	-106.59077	-139.95124	34.98781	85.43535	-123.67784	78.11232	78.11232	131.00087	54.51589	20.34175	-21.15542	0
824	35.80148	-99.26774	-135.06922	30.10579	85.43535	-116.35481	80.55333	78.11232	133.44188	54.51589	20.34175	-21.15542	0
825	40.6835	-91.94471	-132.62821	25.22377	85.43535	-111.47279	82.99434	80.55333	135.88289	54.51589	17.90074	-23.59643	0
826	40.6835	-84.62168	-125.30518	20.34175	82.99434	-104.14976	82.99434	80.55333	140.76491	54.51589	17.90074	-26.85111	0
827	40.6835	-79.73966	-120.42316	17.90074	80.55333	-99.26774	85.43535	82.99434	143.20592	56.9569	25.22377	-26.85111	0
828	40.6835	-74.85764	-115.54114	15.45973	78.11232	-94.38572	82.99434	82.99434	145.64693	59.39791	30.10579	-26.85111	0
829	40.6835	-74.85764	-115.54114	15.45973	78.11232	-94.38572	80.55333	80.55333	148.08794	61.83892	34.98781	-23.59643	0
830	40.6835	-72.41663	-113.10013	15.45973	75.67131	-91.94471	75.67131	80.55333	145.64693	61.83892	37.42882	-18.71441	0
831	40.6835	-69.97562	-110.65912	13.01872	75.67131	-89.5037	70.78929	75.67131	138.3239	61.83892	37.42882	-13.83239	0
832	40.6835	-67.53461	-108.21811	13.01872	73.2303	-87.06269	63.46626	70.78929	131.00087	59.39791	37.42882	-8.95037	0
833	40.6835	-65.0936	-105.7771	10.57771	73.2303	-84.62168	56.14323	63.46626	126.11885	54.51589	30.10579	-8.95037	0
834	40.6835	-62.65259	-103.33609	10.57771	70.78929	-82.18067	48.8202	56.14323	123.67784	52.07488	25.22377	-8.95037	0
835	45.56552	-62.65259	-108.21811	8.1367	75.67131	-84.62168	43.93818	53.70222	121.23683	47.19286	20.34175	-13.83239	0
836	48.00653	-62.65259	-110.65912	5.69569	78.11232	-87.06269	39.05616	51.26121	118.79582	47.19286	20.34175	-16.2734	0
837	50.44754	-57.77057	-108.21811	2.44101	78.11232	-82.18067	36.61515	51.26121	118.79582	47.19286	22.78276	-16.2734	0
838	50.44754	-55.32956	-105.7771	2.44101	78.11232	-79.73966	34.17414	51.26121	123.67784	52.07488	27.66478	-13.83239	0
839	52.88855	-50.44754	-103.33609	-2.44101	78.11232	-77.29865	34.17414	53.70222	128.55986	59.39791	34.98781	-8.95037	0
840	55.32956	-45.56552	-100.89508	-4.88202	78.11232	-72.41663	39.05616	58.58424	131.00087	64.27993	44.75185	-1.62734	0
841	55.32956	-40.6835	-96.01306	-7.32303	75.67131	-67.53461	41.49717	65.90727	131.00087	69.16195	47.19286	5.69569	0
842	55.32956	-35.80148	-91.13104	-9.76404	73.2303	-62.65259	46.37919	68.34828	133.44188	71.60296	52.07488	13.01872	0
843	55.32956	-33.36047	-88.69003	-12.20505	70.78929	-60.21158	46.37919	68.34828	133.44188	74.04397	49.63387	15.45973	0
844	55.32956	-38.24249	-93.57205	-9.76404	73.2303	-65.0936	46.37919	65.90727	133.44188	71.60296	44.75185	13.01872	0
845	55.32956	-45.56552	-100.89508	-4.88202	78.11232	-72.41663	43.93818	63.46626	128.55986	64.27993	39.86983	5.69569	0
846	52.88855	-55.32956	-108.21811	0	80.55333	-82.18067	39.05616	56.14323	126.11885	59.39791	32.5468	-4.06835	0
847	52.88855	-65.0936	-117.98215	5.69569	85.43535	-91.94471	36.61515	51.26121	121.23683	56.9569	32.5468	-8.95037	0
848	55.32956	-69.97562	-125.30518	5.69569	90.31737	-96.82673	29.29212	45.56552	118.79582	56.9569	32.5468	-11.39138	0
849	55.32956	-77.29865	-132.62821	10.57771	92.75838	-104.14976	26.85111	45.56552	118.79582	56.9569	32.5468	-11.39138	0
850	52.88855	-77.29865	-130.1872	10.57771	90.31737	-104.14976	26.85111	45.56552	113.9138	56.9569	34.98781	-4.06835	0
851	52.88855	-77.29865	-130.1872	10.57771	90.31737	-104.14976	26.85111	45.56552	111.47279	56.9569	37.42882	0.81367	0
852	52.88855	-72.41663	-125.30518	8.1367	87.87636	-99.26774	29.29212	45.56552	106.59077	59.39791	37.42882	5.69569	0
853	50.44754	-69.97562	-120.42316	8.1367	85.43535	-94.38572	29.29212	45.56552	106.59077	56.9569	34.98781	8.1367	0
854	45.56552	-69.97562	-115.54114	10.57771	80.55333	-91.94471	34.17414	40.6835	104.14976	54.51589	30.10579	3.25468	0
855	40.6835	-72.41663	-113.10013	15.45973	75.67131	-91.94471	34.17414	38.24249	101.70875	49.63387	27.66478	-4.06835	0
856	38.24249	-77.29865	-115.54114	17.90074	75.67131	-96.82673	36.61515	33.36047	96.82673	42.31084	20.34175	-13.83239	0
857	33.36047	-84.62168	-117.98215	25.22377	75.67131	-101.70875	36.61515	28.47845	89.5037	37.42882	15.45973	-23.59643	0
858	30.91946	-91.94471	-122.86417	30.10579	75.67131	-106.59077	34.17414	21.15542	84.62168	32.5468	13.01872	-29.29212	0
859	28.47845	-101.70875	-130.1872	34.98781	78.11232	-116.35481	34.17414	16.2734	77.29865	27.66478	10.57771	-31.73313	0
860	26.03744	-109.03178	-135.06922	39.86983	80.55333	-121.23683	34.17414	11.39138	67.53461	20.34175	5.69569	-34.17414	0
861	21.15542	-116.35481	-137.51023	47.19286	78.11232	-126.11885	31.73313	6.50936	55.32956	15.45973	-1.62734	-36.61515	0
862	21.15542	-116.35481	-137.51023	47.19286	78.11232	-126.11885	31.73313	4.06835	48.00653	8.1367	-6.50936	-34.17414	0
863	21.15542	-116.35481	-137.51023	47.19286	78.11232	-126.11885	31.73313	1.62734	40.6835	3.25468	-14.64606	-36.61515	0
864	21.15542	-118.79582	-139.95124	47.19286	80.55333	-128.55986	29.29212	-3.25468	38.24249	-2.44101	-17.08707	-39.05616	0
865	21.15542	-121.23683	-142.39225	49.63387	80.55333	-131.00087	29.29212	-3.25468	35.80148	-7.32303	-24.4101	-48.8202	0
866	21.15542	-121.23683	-142.39225	49.63387	80.55333	-131.00087	29.29212	-3.25468	33.36047	-12.20505	-26.85111	-53.70222	0
867	21.15542	-118.79582	-139.95124	47.19286	80.55333	-128.55986	26.85111	-3.25468	33.36047	-14.64606	-26.85111	-58.58424	0
868	21.15542	-121.23683	-142.39225	49.63387	80.55333	-131.00087	24.4101	-3.25468	33.36047	-14.64606	-24.4101	-58.58424	0
869	18.71441	-126.11885	-144.83326	52.07488	80.55333	-135.88289	24.4101	-3.25468	33.36047	-12.20505	-21.96909	-58.58424	0
870	16.2734	-126.11885	-142.39225	54.51589	78.11232	-133.44188	24.4101	-3.25468	30.10579	-12.20505	-21.96909	-56.14323	0
871	16.2734	-126.11885	-142.39225	54.51589	78.11232	-133.44188	24.4101	-3.25468	25.22377	-14.64606	-21.96909	-51.26121	0
872	16.2734	-126.11885	-142.39225	54.51589	78.11232	-133.44188	24.4101	-3.25468	22.78276	-14.64606	-24.4101	-46.37919	0
873	16.2734	-123.67784	-139.95124	52.07488	78.11232	-131.00087	24.4101	-3.25468	20.34175	-17.08707	-31.73313	-43.93818	0
874	16.2734	-123.67784	-139.95124	52.07488	78.11232	-131.00087	24.4101	-5.69569	17.90074	-19.52808	-39.05616	-46.37919	0
875	16.2734	-123.67784	-139.95124	52.07488	78.11232	-131.00087	26.85111	-5.69569	17.90074	-24.4101	-46.37919	-51.26121	0
876	16.2734	-123.67784	-139.95124	52.07488	78.11232	-131.00087	26.85111	-8.1367	17.90074	-24.4101	-46.37919	-58.58424	0
877	16.2734	-123.67784	-139.95124	52.07488	78.11232	-131.00087	26.85111	-8.1367	15.45973	-24.4101	-46.37919	-61.02525	0
878	16.2734	-126.11885	-142.39225	54.51589	78.11232	-133.44188	26.85111	-8.1367	17.90074	-24.4101	-41.49717	-61.02525	0
879	13.83239	-128.55986	-142.39225	56.9569	78.11232	-135.88289	26.85111	-10.57771	17.90074	-19.52808	-39.05616	-61.02525	0
880	11.39138	-131.00087	-142.39225	59.39791	75.67131	-135.88289	26.85111	-8.1367	15.45973	-19.52808	-39.05616	-58.58424	0
881	11.39138	-128.55986	-139.95124	56.9569	75.67131	-133.44188	26.85111	-5.69569	13.01872	-19.52808	-39.05616	-53.70222	0
882	8.95037	-128.55986	-137.51023	59.39791	73.2303	-133.44188	29.29212	-3.25468	10.57771	-19.52808	-36.61515	-48.8202	0
883	8.95037	-128.55986	-137.51023	59.39791	73.2303	-133.44188	29.29212	-3.25468	8.1367	-19.52808	-41.49717	-46.37919	0
884	8.95037	-126.11885	-135.06922	56.9569	70.78929	-131.00087	29.29212	-5.69569	10.57771	-19.52808	-43.93818	-46.37919	0
885	11.39138	-123.67784	-135.06922	54.51589	73.2303	-128.55986	31.73313	-3.25468	13.01872	-21.96909	-46.37919	-51.26121	0
886	11.39138	-123.67784	-135.06922	54.51589	73.2303	-128.55986	31.73313	-3.25468	15.45973	-21.96909	-46.37919	-53.70222	0
887	13.83239	-121.23683	-135.06922	52.07488	73.2303	-128.55986	31.73313	-3.25468	17.90074	-19.52808	-41.49717	-58.58424	0
888	13.83239	-121.23683	-135.06922	52.07488	73.2303	-128.55986	29.29212	-3.25468	22.78276	-14.64606	-34.17414	-61.02525	0
889	13.83239	-121.23683	-135.06922	52.07488	73.2303	-128.55986	29.29212	-0.81367	27.66478	-9.76404	-29.29212	-56.14323	0
890	13.83239	-121.23683	-135.06922	52.07488	73.2303	-128.55986	26.85111	1.62734	27.66478	-7.32303	-24.4101	-53.70222	0
891	11.39138	-121.23683	-132.62821	54.51589	70.78929	-126.11885	26.85111	4.06835	27.66478	-4.88202	-21.96909	-43.93818	0
892	11.39138	-118.79582	-130.1872	52.07488	70.78929	-123.67784	26.85111	6.50936	30.10579	-2.44101	-17.08707	-34.17414	0
893	11.39138	-113.9138	-125.30518	49.63387	68.34828	-118.79582	26.85111	6.50936	30.10579	0	-19.52808	-31.73313	0
894	11.39138	-113.9138	-125.30518	49.63387	68.34828	-118.79582	26.85111	6.50936	33.36047	0	-19.52808	-31.73313	0
895	13.83239	-116.35481	-130.1872	49.63387	70.78929	-123.67784	31.73313	16.2734	40.6835	5.69569	-19.52808	-34.17414	0
896	16.2734	-118.79582	-135.06922	49.63387	75.67131	-126.11885	36.61515	28.47845	55.32956	15.45973	-11.39138	-39.05616	0
897	18.71441	-123.67784	-142.39225	52.07488	80.55333	-133.44188	41.49717	51.26121	77.29865	34.98781	5.69569	-41.49717	0
898	21.15542	-131.00087	-152.15629	54.51589	85.43535	-140.76491	48.8202	85.43535	109.03178	64.27993	27.66478	-41.49717	0
899	28.47845	-138.3239	-166.80235	54.51589	97.6404	-152.96996	61.02525	131.81454	152.96996	105.7771	54.51589	-36.61515	0
900	33.36047	-143.20592	-176.56639	54.51589	104.96343	-160.29299	78.11232	192.83979	206.67218	154.5973	91.13104	-23.59643	0
901	40.6835	-143.20592	-183.88942	49.63387	112.28646	-162.734	97.6404	261.18807	272.57945	215.62255	137.51023	-4.06835	0
902	52.88855	-135.88289	-188.77144	39.86983	119.60949	-162.734	114.72747	334.41837	343.36874	293.73487	200.97649	27.66478	0
903	65.0936	-118.79582	-183.88942	25.22377	124.49151	-150.52895	126.93252	407.64867	428.80409	388.93426	279.08881	74.04397	0
904	84.62168	-89.5037	-174.12538	2.44101	129.37353	-131.00087	129.37353	478.43796	526.44449	510.98476	393.81628	139.95124	0
905	104.14976	-48.00653	-152.15629	-29.29212	126.93252	-99.26774	122.0505	549.22725	633.84893	659.88637	540.27688	227.8276	0
906	128.55986	6.50936	-122.86417	-68.34828	126.93252	-57.77057	104.96343	600.48846	731.48933	818.55202	708.70657	332.79103	0
907	152.96996	77.29865	-76.48498	-114.72747	114.72747	1.62734	80.55333	624.89856	809.60165	977.21767	894.22333	464.60557	0
908	177.38006	162.734	-15.45973	-170.8707	97.6404	74.85764	46.37919	620.01654	863.30387	1123.67827	1084.62211	618.3892	0
909	196.90814	262.81541	65.90727	-229.45494	65.90727	165.17501	-5.69569	563.87331	873.06791	1240.84675	1262.81584	784.37788	0
910	213.99521	367.77884	153.78363	-290.48019	31.73313	260.3744	-86.24902	441.82281	812.04266	1299.43099	1401.95341	935.7205	0
911	223.75925	460.53722	236.77797	-341.7414	-5.69569	348.25076	-183.88942	273.39312	694.87418	1294.54897	1470.30169	1057.771	0
912	223.75925	548.41358	324.65433	-385.67958	-49.63387	436.12712	-298.61689	65.90727	541.09055	1240.84675	1475.18371	1138.32433	0
913	211.5542	628.96691	417.41271	-419.85372	-103.33609	524.00348	-423.1084	-159.47932	367.77884	1162.73443	1431.24553	1174.93948	0
914	189.58511	680.22812	490.64301	-434.49978	-149.71528	585.02873	-545.1589	-388.93426	182.26208	1065.09403	1343.36917	1152.97039	0
915	152.96996	687.55115	534.58119	-419.85372	-191.21245	611.87984	-652.56334	-615.94819	-26.03744	923.51545	1196.90857	1062.65302	0
916	106.59077	658.25903	551.66826	-383.23857	-222.94558	604.55681	-730.67566	-801.46495	-226.20026	757.52677	1001.62777	921.07444	0
917	50.44754	599.67479	549.22725	-324.65433	-249.79669	575.26469	-772.17283	-952.80757	-436.12712	523.18981	740.4397	728.23465	0
918	-13.83239	519.12146	532.14018	-253.86504	-271.76578	524.00348	-791.70091	-1109.03221	-697.31519	164.36134	386.49325	498.77971	0
919	-72.41663	409.27601	480.87897	-168.42969	-276.6478	443.45015	-791.70091	-1238.40574	-960.94427	-236.77797	5.69569	257.11972	0
920	-121.23683	282.34349	402.76665	-80.55333	-262.00174	340.92773	-781.93687	-1323.84109	-1183.07618	-612.69351	-346.62342	27.66478	0
921	-160.29299	165.17501	324.65433	-2.44101	-242.47366	243.28733	-767.29081	-1370.22028	-1346.62385	-934.90683	-654.19068	-173.31171	0
922	-184.70309	62.65259	246.54201	59.39791	-215.62255	152.96996	-745.32172	-1377.54331	-1451.58728	-1196.0949	-905.61471	-336.85938	0
923	-196.90814	-21.15542	175.75272	108.21811	-186.33043	77.29865	-723.35263	-1362.89725	-1500.40748	-1376.72964	-1086.24945	-466.23291	0
924	-194.46713	-82.18067	112.28646	137.51023	-154.5973	13.83239	-696.50152	-1299.43099	-1451.58728	-1398.69873	-1130.18763	-529.69917	0
925	-182.26208	-126.11885	56.14323	152.15629	-120.42316	-35.80148	-659.88637	-1189.58554	-1324.65476	-1288.85328	-1064.28036	-541.90422	0
926	-162.734	-148.08794	14.64606	154.5973	-88.69003	-67.53461	-611.06617	-1069.97605	-1185.51719	-1159.47975	-973.96299	-532.14018	0
927	-140.76491	-150.52895	-10.57771	144.83326	-66.72094	-82.18067	-559.80496	-955.24858	-1053.70265	-1037.42925	-878.7636	-505.28907	0
928	-118.79582	-143.20592	-25.22377	130.1872	-47.19286	-84.62168	-503.66173	-842.96212	-929.21114	-925.14279	-786.00522	-466.23291	0
929	-99.26774	-128.55986	-30.10579	113.10013	-34.98781	-79.73966	-445.07749	-735.55768	-809.60165	-815.29734	-695.68785	-419.85372	0
930	-82.18067	-111.47279	-30.10579	96.01306	-27.66478	-72.41663	-384.05224	-635.47627	-699.7562	-712.77492	-610.2525	-368.59251	0
931	-65.0936	-91.94471	-27.66478	76.48498	-20.34175	-60.21158	-323.02699	-540.27688	-599.67479	-620.01654	-532.14018	-317.3313	0
932	-52.88855	-67.53461	-15.45973	59.39791	-20.34175	-43.12451	-264.44275	-457.28254	-506.91641	-534.58119	-463.7919	-270.95211	0
933	-45.56552	-45.56552	0	44.75185	-22.78276	-23.59643	-208.29952	-384.05224	-423.92207	-458.90988	-402.76665	-229.45494	0
934	-38.24249	-23.59643	14.64606	30.10579	-27.66478	-6.50936	-161.92033	-325.468	-353.13278	-393.00261	-349.06443	-195.2808	0
935	-38.24249	-6.50936	31.73313	20.34175	-34.98781	11.39138	-120.42316	-279.08881	-294.54854	-341.7414	-305.12625	-173.31171	0
936	-35.80148	13.83239	48.8202	10.57771	-42.31084	30.91946	-86.24902	-240.03265	-245.72834	-300.24423	-268.5111	-158.66565	0
937	-33.36047	30.91946	63.46626	0	-47.19286	45.56552	-54.51589	-210.74053	-209.11319	-263.62908	-234.33696	-148.90161	0
938	-33.36047	40.6835	73.2303	-4.88202	-52.07488	55.32956	-30.10579	-188.77144	-177.38006	-234.33696	-207.48585	-136.69656	0
939	-33.36047	48.00653	80.55333	-7.32303	-56.9569	62.65259	-10.57771	-171.68437	-155.41097	-212.36787	-185.51676	-126.93252	0
940	-33.36047	50.44754	82.99434	-9.76404	-56.9569	65.0936	6.50936	-154.5973	-138.3239	-195.2808	-168.42969	-117.16848	0
941	-33.36047	52.88855	85.43535	-9.76404	-59.39791	67.53461	19.52808	-137.51023	-126.11885	-180.63474	-153.78363	-104.96343	0
942	-30.91946	55.32956	85.43535	-12.20505	-56.9569	69.97562	34.17414	-125.30518	-116.35481	-165.98868	-141.57858	-90.31737	0
943	-30.91946	55.32956	85.43535	-12.20505	-56.9569	69.97562	43.93818	-113.10013	-106.59077	-156.22464	-136.69656	-80.55333	0
944	-30.91946	55.32956	85.43535	-12.20505	-56.9569	69.97562	51.26121	-108.21811	-99.26774	-151.34262	-131.81454	-78.11232	0
945	-33.36047	55.32956	87.87636	-12.20505	-59.39791	69.97562	58.58424	-103.33609	-94.38572	-148.90161	-131.81454	-80.55333	0
946	-33.36047	55.32956	87.87636	-12.20505	-59.39791	69.97562	68.34828	-100.89508	-89.5037	-144.01959	-126.93252	-80.55333	0
947	-35.80148	55.32956	90.31737	-9.76404	-61.83892	72.41663	73.2303	-98.45407	-87.06269	-139.13757	-122.0505	-78.11232	0
948	-35.80148	57.77057	92.75838	-12.20505	-64.27993	74.85764	75.67131	-98.45407	-84.62168	-134.25555	-117.16848	-75.67131	0
949	-33.36047	57.77057	90.31737	-12.20505	-61.83892	72.41663	80.55333	-98.45407	-82.18067	-131.81454	-114.72747	-73.2303	0
950	-33.36047	57.77057	90.31737	-12.20505	-61.83892	72.41663	82.99434	-98.45407	-84.62168	-129.37353	-112.28646	-65.90727	0
951	-35.80148	60.21158	95.19939	-12.20505	-64.27993	77.29865	85.43535	-98.45407	-87.06269	-126.93252	-112.28646	-58.58424	0
952	-35.80148	65.0936	100.08141	-14.64606	-66.72094	82.18067	87.87636	-98.45407	-87.06269	-126.93252	-109.84545	-51.26121	0
953	-35.80148	69.97562	104.96343	-17.08707	-69.16195	87.06269	87.87636	-103.33609	-89.5037	-126.93252	-114.72747	-51.26121	0
954	-35.80148	69.97562	104.96343	-17.08707	-69.16195	87.06269	90.31737	-105.7771	-89.5037	-126.93252	-114.72747	-51.26121	0
955	-38.24249	72.41663	109.84545	-17.08707	-74.04397	89.5037	90.31737	-105.7771	-89.5037	-129.37353	-119.60949	-58.58424	0
956	-38.24249	74.85764	112.28646	-19.52808	-74.04397	91.94471	90.31737	-110.65912	-91.94471	-131.81454	-122.0505	-68.34828	0
957	-38.24249	77.29865	114.72747	-19.52808	-76.48498	94.38572	90.31737	-113.10013	-91.94471	-131.81454	-122.0505	-73.2303	0
958	-38.24249	79.73966	117.16848	-21.96909	-76.48498	96.82673	87.87636	-117.98215	-94.38572	-131.81454	-122.0505	-75.67131	0
959	-38.24249	79.73966	117.16848	-21.96909	-76.48498	96.82673	87.87636	-120.42316	-96.82673	-131.81454	-122.0505	-78.11232	0
960	-38.24249	82.18067	119.60949	-21.96909	-78.92599	99.26774	87.87636	-120.42316	-101.70875	-134.25555	-124.49151	-78.11232	0
961	-40.6835	87.06269	126.93252	-24.4101	-83.80801	106.59077	87.87636	-125.30518	-109.03178	-134.25555	-126.93252	-78.11232	0
962	-43.12451	91.94471	134.25555	-24.4101	-88.69003	111.47279	87.87636	-127.74619	-116.35481	-139.13757	-129.37353	-73.2303	0
963	-43.12451	96.82673	139.13757	-26.85111	-91.13104	116.35481	87.87636	-132.62821	-118.79582	-141.57858	-134.25555	-73.2303	0
964	-48.00653	99.26774	146.4606	-26.85111	-96.01306	121.23683	87.87636	-137.51023	-121.23683	-146.4606	-139.13757	-75.67131	0
965	-48.00653	104.14976	151.34262	-29.29212	-98.45407	126.11885	87.87636	-142.39225	-123.67784	-153.78363	-146.4606	-82.99434	0
966	-48.00653	109.03178	156.22464	-31.73313	-100.89508	131.00087	87.87636	-149.71528	-128.55986	-158.66565	-151.34262	-87.87636	0
967	-50.44754	111.47279	161.10666	-31.73313	-105.7771	135.88289	87.87636	-154.5973	-133.44188	-163.54767	-151.34262	-92.75838	0
968	-50.44754	113.9138	163.54767	-31.73313	-105.7771	138.3239	85.43535	-161.92033	-135.88289	-165.98868	-151.34262	-95.19939	0
969	-50.44754	116.35481	165.98868	-34.17414	-108.21811	140.76491	85.43535	-169.24336	-140.76491	-168.42969	-151.34262	-95.19939	0
970	-52.88855	118.79582	170.8707	-34.17414	-110.65912	143.20592	82.99434	-171.68437	-148.08794	-173.31171	-156.22464	-95.19939	0
971	-55.32956	123.67784	178.19373	-34.17414	-115.54114	150.52895	82.99434	-179.0074	-157.85198	-175.75272	-158.66565	-90.31737	0
972	-57.77057	128.55986	185.51676	-36.61515	-120.42316	155.41097	85.43535	-183.88942	-165.17501	-183.07575	-161.10666	-87.87636	0
973	-62.65259	133.44188	195.2808	-36.61515	-127.74619	162.734	85.43535	-193.65346	-172.49804	-185.51676	-168.42969	-87.87636	0
