samplenr	I	II	III	aVR	aVL	aVF	V1	V2	V3	V4	V5	V6	measurement
0	-13.01872	9.76404	21.96909	1.62734	-18.71441	14.64606	-86.24902	-147.27427	-137.51023	-78.92599	-85.43535	-48.00653	0
1	-8.1367	9.76404	17.08707	-0.81367	-13.83239	12.20505	-83.80801	-144.83326	-139.95124	-78.92599	-85.43535	-45.56552	0
2	-10.57771	7.32303	17.08707	1.62734	-13.83239	12.20505	-78.92599	-135.06922	-139.95124	-76.48498	-85.43535	-43.12451	0
3	-15.45973	7.32303	21.96909	4.06835	-18.71441	14.64606	-74.04397	-132.62821	-137.51023	-74.04397	-85.43535	-40.6835	0
4	-10.57771	4.88202	14.64606	1.62734	-13.83239	9.76404	-76.48498	-135.06922	-137.51023	-74.04397	-87.87636	-48.00653	0
5	-5.69569	2.44101	7.32303	1.62734	-6.50936	4.88202	-78.92599	-135.06922	-135.06922	-74.04397	-92.75838	-55.32956	0
6	-3.25468	2.44101	4.88202	-0.81367	-4.06835	2.44101	-78.92599	-137.51023	-135.06922	-74.04397	-95.19939	-62.65259	0
7	-15.45973	4.88202	19.52808	4.06835	-18.71441	12.20505	-78.92599	-137.51023	-130.1872	-76.48498	-95.19939	-62.65259	0
8	-22.78276	4.88202	26.85111	7.32303	-26.03744	14.64606	-76.48498	-137.51023	-127.74619	-71.60296	-92.75838	-62.65259	0
9	-25.22377	4.88202	29.29212	9.76404	-28.47845	17.08707	-76.48498	-137.51023	-125.30518	-71.60296	-87.87636	-62.65259	0
10	-27.66478	4.88202	31.73313	9.76404	-30.91946	17.08707	-76.48498	-132.62821	-125.30518	-69.16195	-82.99434	-57.77057	0
11	-27.66478	4.88202	31.73313	9.76404	-30.91946	17.08707	-74.04397	-125.30518	-127.74619	-69.16195	-82.99434	-55.32956	0
12	-25.22377	-2.44101	21.96909	12.20505	-23.59643	9.76404	-71.60296	-120.42316	-127.74619	-69.16195	-85.43535	-55.32956	0
13	-27.66478	-4.88202	21.96909	14.64606	-26.03744	7.32303	-69.16195	-117.98215	-127.74619	-69.16195	-90.31737	-55.32956	0
14	-25.22377	-7.32303	17.08707	14.64606	-21.15542	4.88202	-69.16195	-117.98215	-125.30518	-69.16195	-90.31737	-60.21158	0
15	-17.90074	-10.57771	7.32303	12.20505	-13.83239	-2.44101	-71.60296	-122.86417	-122.86417	-69.16195	-95.19939	-65.0936	0
16	-20.34175	-13.01872	7.32303	14.64606	-16.2734	-2.44101	-74.04397	-127.74619	-125.30518	-74.04397	-100.08141	-69.97562	0
17	-25.22377	-10.57771	14.64606	17.08707	-21.15542	2.44101	-74.04397	-132.62821	-127.74619	-78.92599	-104.96343	-72.41663	0
18	-30.10579	-10.57771	19.52808	19.52808	-26.03744	4.88202	-71.60296	-132.62821	-125.30518	-76.48498	-100.08141	-69.97562	0
19	-32.5468	-7.32303	24.4101	19.52808	-28.47845	7.32303	-69.16195	-130.1872	-122.86417	-76.48498	-95.19939	-65.0936	0
20	-32.5468	-7.32303	24.4101	19.52808	-28.47845	7.32303	-69.16195	-127.74619	-125.30518	-76.48498	-90.31737	-60.21158	0
21	-34.98781	-10.57771	24.4101	21.96909	-30.91946	7.32303	-64.27993	-122.86417	-125.30518	-76.48498	-87.87636	-55.32956	0
22	-37.42882	-13.01872	24.4101	24.4101	-33.36047	4.88202	-56.9569	-113.10013	-122.86417	-74.04397	-87.87636	-52.88855	0
23	-34.98781	-13.01872	21.96909	21.96909	-30.91946	4.88202	-54.51589	-108.21811	-120.42316	-69.16195	-87.87636	-52.88855	0
24	-30.10579	-15.45973	14.64606	21.96909	-23.59643	0	-54.51589	-105.7771	-115.54114	-66.72094	-87.87636	-57.77057	0
25	-22.78276	-17.90074	4.88202	19.52808	-16.2734	-7.32303	-56.9569	-105.7771	-110.65912	-66.72094	-92.75838	-62.65259	0
26	-20.34175	-17.90074	2.44101	17.08707	-13.83239	-7.32303	-56.9569	-108.21811	-110.65912	-66.72094	-97.6404	-69.97562	0
27	-13.01872	-10.57771	2.44101	9.76404	-8.95037	-4.88202	-56.9569	-110.65912	-108.21811	-69.16195	-97.6404	-72.41663	0
28	-0.81367	-2.44101	-2.44101	1.62734	0.81367	-2.44101	-59.39791	-113.10013	-108.21811	-69.16195	-97.6404	-72.41663	0
29	19.52808	4.88202	-15.45973	-13.01872	16.2734	-4.88202	-64.27993	-115.54114	-108.21811	-74.04397	-95.19939	-72.41663	0
30	17.08707	9.76404	-7.32303	-13.01872	11.39138	2.44101	-59.39791	-108.21811	-103.33609	-66.72094	-82.99434	-62.65259	0
31	7.32303	12.20505	4.88202	-10.57771	0.81367	9.76404	-49.63387	-98.45407	-96.01306	-59.39791	-73.2303	-50.44754	0
32	4.88202	14.64606	9.76404	-10.57771	-4.06835	12.20505	-42.31084	-88.69003	-91.13104	-52.07488	-68.34828	-43.12451	0
33	4.88202	17.08707	12.20505	-10.57771	-4.06835	14.64606	-34.98781	-83.80801	-91.13104	-46.37919	-68.34828	-40.6835	0
34	-3.25468	17.08707	19.52808	-8.1367	-11.39138	17.08707	-27.66478	-76.48498	-83.80801	-36.61515	-65.90727	-40.6835	0
35	-20.34175	17.08707	36.61515	1.62734	-28.47845	26.85111	-15.45973	-68.34828	-69.16195	-26.85111	-61.02525	-40.6835	0
36	-34.98781	17.08707	51.26121	7.32303	-43.12451	34.17414	-5.69569	-65.90727	-66.72094	-21.96909	-61.02525	-40.6835	0
37	-37.42882	24.4101	61.02525	4.06835	-50.44754	41.49717	-3.25468	-71.60296	-69.16195	-26.85111	-63.46626	-45.56552	0
38	-30.10579	31.73313	61.02525	-0.81367	-45.56552	46.37919	-3.25468	-76.48498	-71.60296	-29.29212	-65.90727	-48.00653	0
39	-22.78276	36.61515	58.58424	-8.1367	-40.6835	46.37919	-3.25468	-76.48498	-71.60296	-34.17414	-58.58424	-45.56552	0
40	-20.34175	36.61515	56.14323	-8.1367	-38.24249	46.37919	-8.1367	-76.48498	-71.60296	-34.17414	-51.26121	-40.6835	0
41	-10.57771	34.17414	43.93818	-13.01872	-28.47845	39.05616	-13.01872	-78.92599	-78.92599	-39.05616	-51.26121	-38.24249	0
42	-3.25468	29.29212	31.73313	-13.01872	-18.71441	29.29212	-20.34175	-78.92599	-83.80801	-41.49717	-56.14323	-38.24249	0
43	9.76404	26.85111	17.08707	-17.90074	-4.06835	21.96909	-30.10579	-83.80801	-91.13104	-46.37919	-58.58424	-40.6835	0
44	12.20505	21.96909	9.76404	-17.90074	0.81367	17.08707	-39.86983	-86.24902	-88.69003	-43.93818	-58.58424	-40.6835	0
45	7.32303	14.64606	7.32303	-10.57771	-1.62734	12.20505	-47.19286	-86.24902	-86.24902	-39.05616	-56.14323	-40.6835	0
46	4.88202	14.64606	9.76404	-10.57771	-4.06835	12.20505	-54.51589	-91.13104	-88.69003	-36.61515	-56.14323	-43.12451	0
47	4.88202	21.96909	17.08707	-13.01872	-6.50936	19.52808	-59.39791	-96.01306	-91.13104	-39.05616	-58.58424	-43.12451	0
48	9.76404	29.29212	19.52808	-20.34175	-6.50936	24.4101	-59.39791	-98.45407	-91.13104	-36.61515	-53.70222	-35.80148	0
49	17.08707	34.17414	17.08707	-25.22377	-1.62734	26.85111	-61.83892	-98.45407	-86.24902	-39.05616	-46.37919	-30.91946	0
50	19.52808	34.17414	14.64606	-27.66478	0.81367	24.4101	-61.83892	-96.01306	-83.80801	-39.05616	-41.49717	-26.03744	0
51	31.73313	31.73313	0	-32.5468	16.2734	17.08707	-61.83892	-96.01306	-91.13104	-46.37919	-43.93818	-26.03744	0
52	36.61515	24.4101	-13.01872	-30.10579	23.59643	7.32303	-56.9569	-93.57205	-91.13104	-49.63387	-48.8202	-23.59643	0
53	36.61515	17.08707	-20.34175	-27.66478	28.47845	0	-54.51589	-93.57205	-93.57205	-46.37919	-53.70222	-23.59643	0
54	31.73313	4.88202	-27.66478	-17.90074	28.47845	-10.57771	-54.51589	-93.57205	-93.57205	-46.37919	-56.14323	-28.47845	0
55	26.85111	-4.88202	-32.5468	-10.57771	28.47845	-17.90074	-54.51589	-98.45407	-96.01306	-46.37919	-61.02525	-35.80148	0
56	19.52808	-10.57771	-30.10579	-5.69569	23.59643	-20.34175	-56.9569	-103.33609	-100.89508	-49.63387	-65.90727	-43.12451	0
57	14.64606	-10.57771	-25.22377	-3.25468	18.71441	-17.90074	-56.9569	-110.65912	-105.7771	-52.07488	-68.34828	-43.12451	0
58	14.64606	-13.01872	-27.66478	-0.81367	18.71441	-20.34175	-56.9569	-115.54114	-108.21811	-54.51589	-70.78929	-45.56552	0
59	19.52808	-10.57771	-30.10579	-5.69569	23.59643	-20.34175	-56.9569	-120.42316	-110.65912	-61.83892	-70.78929	-45.56552	0
60	26.85111	-10.57771	-37.42882	-8.1367	30.91946	-22.78276	-56.9569	-120.42316	-110.65912	-64.27993	-70.78929	-40.6835	0
61	21.96909	-4.88202	-27.66478	-8.1367	23.59643	-15.45973	-52.07488	-115.54114	-108.21811	-64.27993	-63.46626	-33.36047	0
62	29.29212	-4.88202	-34.98781	-13.01872	30.91946	-20.34175	-52.07488	-113.10013	-108.21811	-64.27993	-63.46626	-30.91946	0
63	29.29212	-7.32303	-37.42882	-10.57771	33.36047	-22.78276	-49.63387	-110.65912	-110.65912	-64.27993	-63.46626	-28.47845	0
64	31.73313	-7.32303	-39.86983	-13.01872	35.80148	-22.78276	-49.63387	-108.21811	-108.21811	-61.83892	-63.46626	-30.91946	0
65	24.4101	-10.57771	-34.98781	-8.1367	28.47845	-22.78276	-49.63387	-105.7771	-105.7771	-59.39791	-61.02525	-30.91946	0
66	12.20505	-10.57771	-22.78276	-0.81367	16.2734	-15.45973	-52.07488	-110.65912	-105.7771	-59.39791	-63.46626	-35.80148	0
67	17.08707	-10.57771	-27.66478	-3.25468	21.15542	-17.90074	-61.83892	-122.86417	-117.98215	-69.16195	-70.78929	-45.56552	0
68	24.4101	-13.01872	-37.42882	-5.69569	28.47845	-25.22377	-69.16195	-132.62821	-125.30518	-74.04397	-80.55333	-55.32956	0
69	9.76404	-13.01872	-22.78276	1.62734	13.83239	-17.90074	-66.72094	-132.62821	-122.86417	-76.48498	-78.11232	-52.88855	0
70	2.44101	-17.90074	-20.34175	7.32303	8.95037	-17.90074	-66.72094	-132.62821	-122.86417	-78.92599	-78.11232	-52.88855	0
71	-3.25468	-20.34175	-17.90074	9.76404	6.50936	-20.34175	-66.72094	-130.1872	-125.30518	-81.367	-78.11232	-52.88855	0
72	-0.81367	-27.66478	-27.66478	12.20505	11.39138	-27.66478	-61.83892	-125.30518	-125.30518	-81.367	-82.99434	-55.32956	0
73	-5.69569	-30.10579	-25.22377	17.08707	8.95037	-27.66478	-56.9569	-117.98215	-125.30518	-76.48498	-82.99434	-52.88855	0
74	-22.78276	-32.5468	-10.57771	26.85111	-8.95037	-22.78276	-52.07488	-108.21811	-117.98215	-69.16195	-75.67131	-50.44754	0
75	-20.34175	-34.98781	-15.45973	26.85111	-4.06835	-25.22377	-54.51589	-108.21811	-115.54114	-69.16195	-75.67131	-55.32956	0
76	-10.57771	-34.98781	-25.22377	21.96909	6.50936	-30.10579	-59.39791	-115.54114	-120.42316	-74.04397	-82.99434	-62.65259	0
77	-8.1367	-30.10579	-22.78276	17.08707	6.50936	-27.66478	-61.83892	-120.42316	-122.86417	-78.92599	-85.43535	-65.0936	0
78	-10.57771	-30.10579	-20.34175	19.52808	3.25468	-25.22377	-64.27993	-127.74619	-125.30518	-78.92599	-85.43535	-62.65259	0
79	-10.57771	-32.5468	-22.78276	19.52808	3.25468	-27.66478	-66.72094	-130.1872	-125.30518	-83.80801	-85.43535	-60.21158	0
80	-8.1367	-34.98781	-27.66478	19.52808	8.95037	-32.5468	-66.72094	-135.06922	-125.30518	-86.24902	-82.99434	-57.77057	0
81	-5.69569	-37.42882	-32.5468	19.52808	11.39138	-34.98781	-66.72094	-135.06922	-127.74619	-88.69003	-82.99434	-52.88855	0
82	-5.69569	-39.86983	-34.98781	21.96909	13.83239	-37.42882	-64.27993	-132.62821	-130.1872	-86.24902	-82.99434	-50.44754	0
83	-13.01872	-44.75185	-32.5468	26.85111	8.95037	-39.86983	-59.39791	-125.30518	-127.74619	-81.367	-82.99434	-48.00653	0
84	-3.25468	-44.75185	-42.31084	21.96909	18.71441	-44.75185	-61.83892	-125.30518	-125.30518	-78.92599	-82.99434	-50.44754	0
85	-0.81367	-42.31084	-42.31084	19.52808	18.71441	-42.31084	-61.83892	-122.86417	-120.42316	-74.04397	-80.55333	-52.88855	0
86	-3.25468	-39.86983	-37.42882	19.52808	16.2734	-39.86983	-64.27993	-122.86417	-117.98215	-74.04397	-80.55333	-57.77057	0
87	-3.25468	-34.98781	-32.5468	17.08707	13.83239	-34.98781	-66.72094	-125.30518	-120.42316	-74.04397	-82.99434	-62.65259	0
88	-3.25468	-32.5468	-30.10579	17.08707	11.39138	-32.5468	-66.72094	-130.1872	-120.42316	-74.04397	-82.99434	-62.65259	0
89	2.44101	-27.66478	-30.10579	12.20505	13.83239	-27.66478	-69.16195	-132.62821	-120.42316	-78.92599	-80.55333	-62.65259	0
90	9.76404	-27.66478	-37.42882	7.32303	21.15542	-32.5468	-71.60296	-135.06922	-122.86417	-81.367	-82.99434	-62.65259	0
91	12.20505	-27.66478	-39.86983	7.32303	23.59643	-32.5468	-69.16195	-137.51023	-125.30518	-86.24902	-82.99434	-62.65259	0
92	12.20505	-27.66478	-39.86983	7.32303	23.59643	-32.5468	-66.72094	-132.62821	-125.30518	-83.80801	-82.99434	-60.21158	0
93	4.88202	-22.78276	-27.66478	7.32303	13.83239	-25.22377	-61.83892	-125.30518	-122.86417	-76.48498	-80.55333	-52.88855	0
94	-3.25468	-22.78276	-20.34175	12.20505	6.50936	-22.78276	-56.9569	-120.42316	-115.54114	-69.16195	-75.67131	-50.44754	0
95	-10.57771	-22.78276	-13.01872	14.64606	-1.62734	-17.90074	-56.9569	-115.54114	-108.21811	-61.83892	-70.78929	-50.44754	0
96	-25.22377	-22.78276	2.44101	21.96909	-16.2734	-10.57771	-56.9569	-113.10013	-103.33609	-56.9569	-65.90727	-48.00653	0
97	-37.42882	-17.90074	19.52808	26.85111	-30.91946	0	-56.9569	-115.54114	-103.33609	-54.51589	-63.46626	-45.56552	0
98	-37.42882	-15.45973	21.96909	24.4101	-30.91946	2.44101	-56.9569	-117.98215	-100.89508	-52.07488	-61.02525	-40.6835	0
99	-37.42882	-15.45973	21.96909	24.4101	-30.91946	2.44101	-54.51589	-117.98215	-98.45407	-52.07488	-56.14323	-35.80148	0
100	-30.10579	-15.45973	14.64606	21.96909	-23.59643	0	-56.9569	-120.42316	-100.89508	-56.9569	-56.14323	-35.80148	1000	P+0
101	-20.34175	-17.90074	2.44101	17.08707	-13.83239	-7.32303	-56.9569	-120.42316	-105.7771	-61.83892	-58.58424	-35.80148	0
102	-15.45973	-22.78276	-7.32303	17.08707	-6.50936	-15.45973	-52.07488	-117.98215	-108.21811	-64.27993	-63.46626	-35.80148	0
103	-15.45973	-22.78276	-7.32303	17.08707	-6.50936	-15.45973	-47.19286	-113.10013	-110.65912	-64.27993	-68.34828	-35.80148	0
104	-13.01872	-22.78276	-10.57771	17.08707	-4.06835	-17.90074	-39.86983	-110.65912	-113.10013	-66.72094	-73.2303	-43.12451	0
105	-8.1367	-20.34175	-13.01872	12.20505	0.81367	-17.90074	-34.98781	-113.10013	-117.98215	-76.48498	-82.99434	-55.32956	0
106	-5.69569	-13.01872	-7.32303	7.32303	-1.62734	-10.57771	-22.78276	-120.42316	-130.1872	-91.13104	-97.6404	-67.53461	0
107	-20.34175	4.88202	24.4101	7.32303	-23.59643	14.64606	-5.69569	-125.30518	-139.95124	-105.7771	-104.96343	-72.41663	0
108	-37.42882	31.73313	68.34828	1.62734	-52.88855	48.8202	19.52808	-130.1872	-149.71528	-113.10013	-109.84545	-69.97562	0
109	-54.51589	63.46626	117.16848	-5.69569	-87.06269	90.31737	46.37919	-137.51023	-157.03831	-125.30518	-109.84545	-65.0936	0
110	-74.04397	109.84545	183.07575	-17.90074	-128.55986	146.4606	78.11232	-142.39225	-159.47932	-127.74619	-100.08141	-48.00653	0
111	-86.24902	165.98868	251.42403	-39.86983	-170.05703	207.48585	107.40444	-149.71528	-161.92033	-122.86417	-82.99434	-26.03744	0
112	-103.33609	227.01393	329.53635	-61.83892	-216.43622	278.27514	139.13757	-144.83326	-147.27427	-93.57205	-48.8202	8.95037	0
113	-113.10013	297.80322	410.08968	-93.57205	-262.81541	353.94645	161.10666	-142.39225	-125.30518	-49.63387	-1.62734	60.21158	0
114	-120.42316	368.59251	488.202	-125.30518	-304.31258	427.17675	178.19373	-135.06922	-91.13104	4.88202	64.27993	113.9138	0
115	-115.54114	444.26382	558.99129	-164.36134	-338.48672	500.40705	197.72181	-120.42316	-41.49717	80.55333	144.83326	182.26208	0
116	-103.33609	515.05311	617.57553	-205.85851	-360.45581	566.31432	222.13191	-91.13104	24.4101	173.31171	240.03265	255.49238	0
117	-100.89508	583.40139	683.4828	-242.47366	-392.18894	632.22159	253.86504	-48.8202	107.40444	288.03918	354.76012	348.25076	0
118	-100.89508	641.98563	742.06704	-271.76578	-421.48106	690.80583	288.03918	0	192.83979	407.64867	476.81062	448.33217	0
119	-86.24902	688.36482	773.80017	-301.0579	-431.2451	729.86199	310.00827	24.4101	246.54201	495.52503	579.33304	536.20853	0
120	-64.27993	717.65694	781.1232	-327.90901	-423.92207	749.39007	327.09534	31.73313	278.27514	566.31432	664.76839	614.32085	0
121	-47.19286	717.65694	764.03613	-335.23204	-406.835	739.62603	331.97736	26.85111	290.48019	615.13452	728.23465	675.3461	0
122	-22.78276	685.92381	707.8929	-332.79103	-365.33783	695.68785	314.89029	17.08707	295.36221	654.19068	777.05485	721.72529	0
123	2.44101	634.6626	632.22159	-318.14497	-316.51763	634.6626	278.27514	-2.44101	292.9212	683.4828	806.34697	753.45842	0
124	41.49717	563.87331	522.37614	-303.49891	-240.84632	544.34523	222.13191	-29.29212	288.03918	700.56987	820.99303	763.22246	0
125	82.99434	475.99695	393.00261	-279.08881	-155.41097	434.49978	148.90161	-46.37919	297.80322	722.53896	830.75707	763.22246	0
126	124.49151	380.79756	256.30605	-252.2377	-67.53461	319.77231	65.90727	-56.14323	319.77231	744.50805	835.63909	753.45842	0
127	170.8707	295.36221	124.49151	-232.70962	23.59643	209.92686	-25.22377	-71.60296	331.97736	749.39007	820.99303	733.93034	0
128	217.24989	219.6909	2.44101	-218.06356	106.59077	112.28646	-110.65912	-88.69003	334.41837	737.18502	791.70091	704.63822	0
129	248.98302	158.66565	-91.13104	-203.4175	170.05703	34.17414	-203.4175	-125.30518	310.00827	693.24684	742.88071	670.46408	0
130	275.83413	109.84545	-166.80235	-193.65346	221.31824	-27.66478	-301.0579	-181.44841	256.30605	617.57553	667.2094	619.20287	0
131	288.03918	73.2303	-215.62255	-181.44841	250.61036	-71.60296	-393.81628	-254.67871	173.31171	505.28907	559.80496	543.53156	0
132	290.48019	39.05616	-252.2377	-164.36134	270.13844	-105.7771	-471.9286	-332.79103	68.34828	373.47453	430.43143	450.77318	0
133	278.27514	7.32303	-271.76578	-142.39225	275.02046	-132.62821	-532.95385	-410.90335	-39.05616	236.77797	291.29386	350.69177	0
134	258.74706	-27.66478	-286.41184	-115.54114	270.13844	-157.03831	-598.86112	-481.69264	-139.95124	97.6404	154.5973	240.84632	0
135	248.98302	-69.16195	-318.14497	-91.13104	282.34349	-193.65346	-664.76839	-542.71789	-237.59164	-36.61515	17.90074	128.55986	0
136	239.21898	-117.98215	-357.20113	-61.83892	296.98955	-237.59164	-716.0296	-586.65607	-325.468	-166.80235	-117.16848	13.83239	0
137	224.57292	-169.24336	-393.81628	-27.66478	306.75359	-281.52982	-740.4397	-613.50718	-403.58032	-288.85285	-244.101	-94.38572	0
138	209.92686	-218.06356	-427.99042	4.06835	316.51763	-323.02699	-742.88071	-623.27122	-459.72355	-386.49325	-349.06443	-182.26208	0
139	197.72181	-264.44275	-462.16456	31.73313	328.72268	-362.08315	-733.11667	-613.50718	-506.10274	-474.36961	-434.49978	-253.05137	0
140	187.95777	-303.49891	-491.45668	56.14323	338.48672	-396.25729	-708.70657	-598.86112	-542.71789	-542.71789	-502.84806	-311.63561	0
141	168.42969	-327.90901	-496.3387	78.11232	331.16369	-410.90335	-657.44536	-586.65607	-581.77405	-603.74314	-561.4323	-362.89682	0
142	141.57858	-347.43709	-489.01567	102.52242	314.07662	-418.22638	-589.09708	-579.33304	-620.83021	-657.44536	-615.13452	-411.71702	0
143	112.28646	-354.76012	-467.04658	119.60949	287.22551	-410.90335	-518.30779	-576.89203	-655.00435	-694.06051	-654.19068	-448.33217	0
144	78.11232	-354.76012	-432.87244	136.69656	253.05137	-393.81628	-449.95951	-572.01001	-674.53243	-718.47061	-673.71876	-472.74227	0
145	41.49717	-349.8781	-391.37527	153.78363	213.99521	-369.40618	-384.05224	-569.569	-686.73748	-730.67566	-683.4828	-492.27035	0
146	2.44101	-340.11406	-342.55507	168.42969	170.05703	-340.11406	-318.14497	-559.80496	-691.6195	-735.55768	-688.36482	-506.91641	0
147	-34.98781	-325.468	-291.29386	178.19373	126.11885	-308.38093	-259.56073	-552.48193	-694.06051	-737.99869	-688.36482	-516.68045	0
148	-71.60296	-308.38093	-237.59164	187.95777	82.18067	-274.20679	-198.53548	-542.71789	-684.29647	-728.23465	-678.60078	-516.68045	0
149	-110.65912	-291.29386	-181.44841	200.16282	33.36047	-237.59164	-142.39225	-525.63082	-669.65041	-718.47061	-663.95472	-509.35742	0
150	-139.95124	-276.6478	-137.51023	207.48585	-4.06835	-208.29952	-91.13104	-513.42577	-657.44536	-708.70657	-651.74967	-502.03439	0
151	-171.68437	-264.44275	-93.57205	217.24989	-40.6835	-179.0074	-44.75185	-501.22072	-652.56334	-701.38354	-639.54462	-494.71136	0
152	-203.4175	-257.11972	-54.51589	229.45494	-77.29865	-157.03831	-0.81367	-486.57466	-642.7993	-691.6195	-629.78058	-484.94732	0
153	-227.8276	-249.79669	-22.78276	236.77797	-104.14976	-137.51023	34.17414	-474.36961	-633.03526	-676.97344	-617.57553	-475.18328	0
154	-247.35568	-240.03265	7.32303	241.65999	-128.55986	-117.98215	61.02525	-462.16456	-615.94819	-659.88637	-600.48846	-462.97823	0
155	-259.56073	-232.70962	26.85111	244.101	-145.64693	-103.33609	80.55333	-454.84153	-601.30213	-642.7993	-580.96038	-450.77318	0
156	-266.88376	-222.94558	43.93818	244.101	-157.85198	-91.13104	97.6404	-447.5185	-584.21506	-623.27122	-561.4323	-438.56813	0
157	-274.20679	-208.29952	65.90727	239.21898	-172.49804	-71.60296	107.40444	-440.19547	-569.569	-603.74314	-541.90422	-423.92207	0
158	-266.88376	-198.53548	68.34828	231.89595	-170.05703	-66.72094	114.72747	-435.31345	-554.92294	-584.21506	-524.81715	-409.27601	0
159	-266.88376	-186.33043	80.55333	224.57292	-174.93905	-54.51589	122.0505	-423.1084	-532.95385	-562.24597	-497.96604	-389.74793	0
160	-259.56073	-179.0074	80.55333	217.24989	-172.49804	-49.63387	129.37353	-410.90335	-515.86678	-537.83587	-473.55594	-370.21985	0
161	-254.67871	-169.24336	85.43535	209.92686	-172.49804	-42.31084	136.69656	-393.81628	-498.77971	-520.7488	-451.58685	-353.13278	0
162	-247.35568	-164.36134	82.99434	205.04484	-167.61602	-42.31084	144.01959	-374.2882	-481.69264	-498.77971	-436.94079	-338.48672	0
163	-240.03265	-157.03831	82.99434	197.72181	-162.734	-37.42882	153.78363	-354.76012	-462.16456	-479.25163	-419.85372	-323.84066	0
164	-235.15063	-152.15629	82.99434	192.83979	-160.29299	-34.98781	156.22464	-335.23204	-445.07749	-459.72355	-405.20766	-311.63561	0
165	-225.38659	-152.15629	73.2303	187.95777	-150.52895	-39.86983	156.22464	-323.02699	-430.43143	-445.07749	-393.00261	-306.75359	0
166	-210.74053	-152.15629	58.58424	180.63474	-135.88289	-47.19286	151.34262	-315.70396	-423.1084	-437.75446	-390.5616	-306.75359	0
167	-200.97649	-149.71528	51.26121	173.31171	-128.55986	-49.63387	146.4606	-310.82194	-415.78537	-435.31345	-385.67958	-304.31258	0
168	-188.77144	-149.71528	39.05616	168.42969	-116.35481	-56.9569	144.01959	-305.93992	-408.46234	-425.54941	-380.79756	-296.98955	0
169	-188.77144	-152.15629	36.61515	168.42969	-113.9138	-59.39791	144.01959	-293.73487	-396.25729	-418.22638	-366.1515	-289.66652	0
170	-183.88942	-154.5973	29.29212	168.42969	-109.03178	-64.27993	141.57858	-281.52982	-384.05224	-408.46234	-356.38746	-279.90248	0
171	-181.44841	-159.47932	21.96909	168.42969	-104.14976	-69.16195	144.01959	-266.88376	-374.2882	-398.6983	-344.18241	-270.13844	0
172	-186.33043	-161.92033	24.4101	173.31171	-106.59077	-69.16195	153.78363	-242.47366	-357.20113	-384.05224	-331.97736	-257.93339	0
173	-183.88942	-164.36134	19.52808	173.31171	-104.14976	-74.04397	156.22464	-225.38659	-344.99608	-371.84719	-324.65433	-248.16935	0
174	-191.21245	-169.24336	21.96909	178.19373	-109.03178	-74.04397	158.66565	-208.29952	-330.35002	-359.64214	-314.89029	-240.84632	0
175	-183.88942	-171.68437	12.20505	175.75272	-99.26774	-81.367	158.66565	-198.53548	-318.14497	-349.8781	-310.00827	-240.84632	0
176	-171.68437	-174.12538	-2.44101	170.8707	-87.06269	-88.69003	156.22464	-191.21245	-310.82194	-347.43709	-310.00827	-245.72834	0
177	-161.92033	-171.68437	-10.57771	165.98868	-77.29865	-91.13104	151.34262	-188.77144	-308.38093	-349.8781	-312.44928	-250.61036	0
178	-152.15629	-171.68437	-20.34175	161.10666	-67.53461	-96.01306	148.90161	-186.33043	-305.93992	-347.43709	-312.44928	-253.05137	0
179	-144.83326	-171.68437	-27.66478	156.22464	-60.21158	-100.89508	146.4606	-181.44841	-301.0579	-347.43709	-307.56726	-253.05137	0
180	-149.71528	-171.68437	-22.78276	158.66565	-65.0936	-98.45407	151.34262	-171.68437	-291.29386	-340.11406	-300.24423	-248.16935	0
181	-149.71528	-171.68437	-22.78276	158.66565	-65.0936	-98.45407	156.22464	-164.36134	-286.41184	-337.67305	-295.36221	-243.28733	0
182	-149.71528	-174.12538	-25.22377	161.10666	-65.0936	-100.89508	161.10666	-149.71528	-279.08881	-332.79103	-292.9212	-238.40531	0
183	-152.15629	-174.12538	-22.78276	161.10666	-67.53461	-98.45407	168.42969	-137.51023	-271.76578	-325.468	-290.48019	-233.52329	0
184	-157.03831	-176.56639	-20.34175	165.98868	-69.97562	-98.45407	170.8707	-122.86417	-262.00174	-318.14497	-283.15716	-231.08228	0
185	-154.5973	-179.0074	-25.22377	165.98868	-67.53461	-103.33609	170.8707	-113.10013	-254.67871	-310.82194	-280.71615	-231.08228	0
186	-144.83326	-181.44841	-37.42882	161.10666	-55.32956	-110.65912	170.8707	-108.21811	-249.79669	-310.82194	-283.15716	-235.9643	0
187	-132.62821	-179.0074	-47.19286	153.78363	-45.56552	-113.10013	165.98868	-108.21811	-249.79669	-315.70396	-288.03918	-243.28733	0
188	-120.42316	-179.0074	-59.39791	148.90161	-33.36047	-120.42316	165.98868	-105.7771	-249.79669	-313.26295	-290.48019	-245.72834	0
189	-117.98215	-179.0074	-61.83892	146.4606	-30.91946	-120.42316	168.42969	-100.89508	-242.47366	-313.26295	-285.59817	-243.28733	0
190	-130.1872	-179.0074	-49.63387	153.78363	-43.12451	-115.54114	178.19373	-86.24902	-230.26861	-301.0579	-275.83413	-235.9643	0
191	-135.06922	-176.56639	-42.31084	153.78363	-48.00653	-110.65912	185.51676	-76.48498	-225.38659	-301.0579	-270.95211	-233.52329	0
192	-132.62821	-179.0074	-47.19286	153.78363	-45.56552	-113.10013	192.83979	-65.90727	-218.06356	-293.73487	-270.95211	-231.08228	0
193	-149.71528	-179.0074	-30.10579	163.54767	-62.65259	-105.7771	202.60383	-48.8202	-208.29952	-283.97083	-266.07009	-223.75925	0
194	-161.92033	-183.88942	-22.78276	170.8707	-72.41663	-103.33609	207.48585	-36.61515	-198.53548	-276.6478	-258.74706	-221.31824	0
195	-171.68437	-186.33043	-15.45973	178.19373	-79.73966	-100.89508	209.92686	-26.85111	-188.77144	-269.32477	-258.74706	-221.31824	0
196	-161.92033	-191.21245	-30.10579	175.75272	-67.53461	-110.65912	205.04484	-24.4101	-186.33043	-269.32477	-261.18807	-228.64127	0
197	-154.5973	-188.77144	-34.98781	170.8707	-62.65259	-113.10013	202.60383	-24.4101	-186.33043	-274.20679	-263.62908	-231.08228	0
198	-157.03831	-186.33043	-30.10579	170.8707	-65.0936	-108.21811	207.48585	-17.08707	-179.0074	-266.88376	-261.18807	-226.20026	0
199	-139.95124	-186.33043	-47.19286	161.10666	-48.00653	-117.98215	202.60383	-14.64606	-176.56639	-271.76578	-258.74706	-226.20026	0
200	-135.06922	-188.77144	-54.51589	161.10666	-43.12451	-122.86417	205.04484	-7.32303	-171.68437	-269.32477	-253.86504	-221.31824	0
201	-132.62821	-186.33043	-54.51589	158.66565	-40.6835	-120.42316	212.36787	4.88202	-164.36134	-264.44275	-246.54201	-213.99521	0
202	-130.1872	-188.77144	-59.39791	158.66565	-38.24249	-125.30518	217.24989	19.52808	-157.03831	-257.11972	-241.65999	-206.67218	0
203	-127.74619	-188.77144	-61.83892	156.22464	-35.80148	-125.30518	222.13191	31.73313	-149.71528	-247.35568	-236.77797	-199.34915	0
204	-125.30518	-191.21245	-66.72094	156.22464	-30.91946	-130.1872	222.13191	46.37919	-137.51023	-237.59164	-231.89595	-192.02612	0
205	-127.74619	-196.09447	-69.16195	161.10666	-30.91946	-132.62821	222.13191	58.58424	-125.30518	-225.38659	-224.57292	-184.70309	0
206	-130.1872	-196.09447	-66.72094	161.10666	-33.36047	-132.62821	224.57292	70.78929	-110.65912	-210.74053	-219.6909	-179.82107	0
207	-130.1872	-191.21245	-61.83892	158.66565	-35.80148	-127.74619	224.57292	80.55333	-100.89508	-205.85851	-217.24989	-182.26208	0
208	-130.1872	-188.77144	-59.39791	158.66565	-38.24249	-125.30518	229.45494	92.75838	-88.69003	-193.65346	-209.92686	-182.26208	0
209	-130.1872	-186.33043	-56.9569	156.22464	-38.24249	-122.86417	231.89595	109.84545	-71.60296	-188.77144	-200.16282	-184.70309	0
210	-122.86417	-186.33043	-64.27993	153.78363	-30.91946	-125.30518	236.77797	124.49151	-58.58424	-183.88942	-190.39878	-187.1441	0
211	-122.86417	-183.88942	-61.83892	151.34262	-33.36047	-122.86417	241.65999	141.57858	-46.37919	-179.0074	-180.63474	-187.1441	0
212	-115.54114	-183.88942	-69.16195	148.90161	-26.03744	-127.74619	246.54201	163.54767	-31.73313	-166.80235	-173.31171	-187.1441	0
213	-103.33609	-181.44841	-78.92599	141.57858	-13.83239	-130.1872	251.42403	185.51676	-17.08707	-152.15629	-165.98868	-177.38006	0
214	-98.45407	-183.88942	-86.24902	139.13757	-8.95037	-135.06922	253.86504	207.48585	2.44101	-132.62821	-153.78363	-165.17501	0
215	-91.13104	-186.33043	-96.01306	136.69656	0.81367	-142.39225	251.42403	224.57292	21.96909	-115.54114	-144.01959	-152.96996	0
216	-83.80801	-186.33043	-103.33609	134.25555	8.95037	-144.83326	251.42403	244.101	41.49717	-93.57205	-131.81454	-140.76491	0
217	-78.92599	-183.88942	-105.7771	129.37353	11.39138	-144.83326	248.98302	261.18807	61.02525	-76.48498	-122.0505	-135.88289	0
218	-66.72094	-181.44841	-115.54114	122.0505	23.59643	-149.71528	248.98302	278.27514	80.55333	-59.39791	-112.28646	-133.44188	0
219	-56.9569	-181.44841	-125.30518	117.16848	33.36047	-154.5973	248.98302	302.68524	104.96343	-46.37919	-95.19939	-131.00087	0
220	-54.51589	-181.44841	-127.74619	117.16848	35.80148	-154.5973	253.86504	331.97736	134.25555	-24.4101	-73.2303	-126.11885	0
221	-39.86983	-176.56639	-137.51023	107.40444	48.00653	-157.03831	253.86504	356.38746	158.66565	-7.32303	-56.14323	-121.23683	0
222	-22.78276	-176.56639	-154.5973	97.6404	65.0936	-166.80235	256.30605	388.12059	185.51676	14.64606	-41.49717	-113.9138	0
223	-5.69569	-174.12538	-169.24336	87.87636	79.73966	-171.68437	258.74706	417.41271	214.80888	41.49717	-26.03744	-99.26774	0
224	-5.69569	-174.12538	-169.24336	87.87636	79.73966	-171.68437	261.18807	454.02786	248.98302	75.67131	-1.62734	-74.85764	0
225	-13.01872	-171.68437	-159.47932	90.31737	72.41663	-166.80235	266.07009	490.64301	290.48019	117.16848	27.66478	-50.44754	0
226	-17.90074	-169.24336	-152.15629	92.75838	65.0936	-161.92033	270.95211	527.25816	329.53635	156.22464	54.51589	-28.47845	0
227	-20.34175	-164.36134	-144.83326	90.31737	60.21158	-154.5973	270.95211	554.10927	363.71049	185.51676	76.48498	-16.2734	0
228	-27.66478	-157.03831	-130.1872	90.31737	50.44754	-144.83326	275.83413	588.28341	400.32564	222.13191	105.7771	-0.81367	0
229	-34.98781	-152.15629	-117.98215	92.75838	40.6835	-135.06922	280.71615	624.89856	441.82281	256.30605	139.95124	16.2734	0
230	-32.5468	-149.71528	-117.98215	90.31737	40.6835	-135.06922	283.15716	659.0727	480.87897	290.48019	169.24336	30.91946	0
231	-22.78276	-142.39225	-120.42316	80.55333	48.00653	-132.62821	283.15716	690.80583	515.05311	317.3313	198.53548	45.56552	0
232	2.44101	-139.95124	-142.39225	68.34828	69.97562	-139.95124	275.83413	720.09795	544.34523	344.18241	220.50457	60.21158	0
233	21.96909	-135.06922	-157.03831	56.14323	87.06269	-144.83326	273.39312	749.39007	576.07836	375.91554	244.91467	82.18067	0
234	31.73313	-127.74619	-159.47932	46.37919	94.38572	-142.39225	273.39312	783.56421	615.13452	417.41271	276.6478	111.47279	0
235	39.05616	-120.42316	-159.47932	39.05616	96.82673	-139.95124	270.95211	812.85633	651.74967	456.46887	305.93992	135.88289	0
236	48.8202	-113.10013	-161.92033	31.73313	104.14976	-137.51023	266.07009	839.70744	688.36482	493.08402	332.79103	157.85198	0
237	53.70222	-100.89508	-154.5973	21.96909	101.70875	-127.74619	261.18807	861.67653	720.09795	527.25816	359.64214	177.38006	0
238	56.14323	-86.24902	-142.39225	14.64606	96.82673	-113.10013	261.18807	886.08663	756.7131	566.31432	391.37527	199.34915	0
239	63.46626	-74.04397	-137.51023	4.06835	99.26774	-105.7771	256.30605	908.05572	790.88724	600.48846	423.1084	213.99521	0
240	70.78929	-61.83892	-132.62821	-5.69569	99.26774	-96.01306	253.86504	930.02481	822.62037	632.22159	454.84153	231.08228	0
241	90.31737	-47.19286	-137.51023	-22.78276	111.47279	-91.13104	246.54201	947.11188	844.58946	654.19068	481.69264	245.72834	0
242	104.96343	-37.42882	-142.39225	-34.98781	121.23683	-88.69003	241.65999	969.08097	871.44057	683.4828	506.10274	265.25642	0
243	112.28646	-25.22377	-137.51023	-44.75185	123.67784	-81.367	239.21898	988.60905	895.85067	715.21593	532.95385	292.10753	0
244	117.16848	-15.45973	-132.62821	-52.07488	123.67784	-74.04397	234.33696	1005.69612	920.26077	744.50805	557.36395	316.51763	0
245	119.60949	-4.88202	-125.30518	-56.9569	121.23683	-64.27993	227.01393	1020.34218	942.22986	771.35916	581.77405	340.92773	0
246	131.81454	7.32303	-125.30518	-69.16195	128.55986	-59.39791	222.13191	1030.10622	961.75794	793.32825	601.30213	360.45581	0
247	139.13757	26.85111	-113.10013	-83.80801	126.11885	-42.31084	214.80888	1032.54723	976.404	812.85633	620.83021	377.54288	0
248	141.57858	43.93818	-98.45407	-93.57205	118.79582	-27.66478	207.48585	1037.42925	991.05006	834.82542	642.7993	394.62995	0
249	148.90161	58.58424	-91.13104	-103.33609	118.79582	-15.45973	200.16282	1039.87026	1005.69612	851.91249	664.76839	409.27601	0
250	161.10666	70.78929	-91.13104	-115.54114	126.11885	-10.57771	192.83979	1037.42925	1013.01915	864.11754	681.85546	419.04005	0
251	161.10666	85.43535	-76.48498	-122.86417	118.79582	4.88202	185.51676	1034.98824	1015.46016	876.32259	701.38354	436.12712	0
252	165.98868	95.19939	-71.60296	-130.1872	118.79582	12.20505	178.19373	1034.98824	1015.46016	886.08663	713.58859	450.77318	0
253	165.98868	102.52242	-64.27993	-135.06922	113.9138	19.52808	170.8707	1030.10622	1015.46016	893.40966	723.35263	472.74227	0
254	173.31171	114.72747	-59.39791	-144.83326	116.35481	29.29212	161.10666	1022.78319	1015.46016	898.29168	733.11667	494.71136	0
255	180.63474	126.93252	-54.51589	-154.5973	116.35481	36.61515	148.90161	1008.13713	1008.13713	900.73269	737.99869	511.79843	0
256	190.39878	141.57858	-49.63387	-166.80235	118.79582	46.37919	141.57858	993.49107	1000.8141	898.29168	740.4397	526.44449	0
257	195.2808	158.66565	-37.42882	-176.56639	116.35481	61.02525	129.37353	969.08097	983.72703	890.96865	737.99869	528.8855	0
258	205.04484	173.31171	-32.5468	-188.77144	118.79582	70.78929	117.16848	942.22986	966.63996	881.20461	733.11667	526.44449	0
259	205.04484	185.51676	-20.34175	-196.09447	111.47279	82.99434	107.40444	920.26077	951.9939	871.44057	733.11667	524.00348	0
260	200.16282	197.72181	-2.44101	-198.53548	101.70875	97.6404	100.08141	898.29168	934.90683	861.67653	735.55768	516.68045	0
261	192.83979	209.92686	17.08707	-200.97649	87.06269	114.72747	92.75838	871.44057	910.49673	847.03047	733.11667	506.91641	0
262	187.95777	219.6909	31.73313	-203.4175	77.29865	126.93252	87.87636	849.47148	886.08663	832.38441	723.35263	504.4754	0
263	180.63474	229.45494	48.8202	-205.85851	65.0936	139.13757	82.99434	825.06138	864.11754	820.17936	716.0296	509.35742	0
264	175.75272	241.65999	65.90727	-208.29952	55.32956	153.78363	73.2303	800.65128	839.70744	803.09229	706.26556	516.68045	0
265	175.75272	251.42403	75.67131	-213.18154	50.44754	163.54767	63.46626	766.47714	812.85633	783.56421	694.06051	526.44449	0
266	180.63474	261.18807	80.55333	-220.50457	50.44754	170.8707	53.70222	729.86199	781.1232	761.59512	676.97344	531.32651	0
267	180.63474	270.95211	90.31737	-225.38659	45.56552	180.63474	41.49717	690.80583	746.94906	732.303	657.44536	528.8855	0
268	183.07575	283.15716	100.08141	-232.70962	40.6835	192.83979	34.17414	651.74967	715.21593	707.8929	640.35829	524.00348	0
269	183.07575	290.48019	107.40444	-237.59164	38.24249	200.16282	26.85111	615.13452	683.4828	678.60078	628.15324	511.79843	0
270	185.51676	295.36221	109.84545	-240.03265	38.24249	202.60383	17.08707	578.51937	649.30866	651.74967	611.06617	494.71136	0
271	180.63474	300.24423	119.60949	-240.03265	30.91946	209.92686	14.64606	541.90422	615.13452	622.45755	596.42011	477.62429	0
272	180.63474	300.24423	119.60949	-240.03265	30.91946	209.92686	8.95037	512.6121	578.51937	595.60644	576.89203	462.97823	0
273	187.95777	300.24423	112.28646	-244.91467	38.24249	207.48585	4.06835	478.43796	541.90422	566.31432	552.48193	450.77318	0
274	185.51676	297.80322	112.28646	-242.47366	35.80148	205.04484	-5.69569	446.70483	507.73008	541.90422	530.51284	443.45015	0
275	165.98868	295.36221	129.37353	-230.26861	18.71441	212.36787	-5.69569	417.41271	483.31998	522.37614	515.86678	443.45015	0
276	151.34262	290.48019	139.13757	-220.50457	6.50936	214.80888	-5.69569	390.5616	458.90988	502.84806	496.3387	441.00914	0
277	139.13757	290.48019	151.34262	-215.62255	-6.50936	222.13191	-10.57771	356.38746	427.17675	473.55594	471.9286	428.80409	0
278	126.93252	288.03918	161.10666	-208.29952	-18.71441	224.57292	-10.57771	327.09534	400.32564	449.14584	452.40052	416.59904	0
279	112.28646	285.59817	173.31171	-198.53548	-30.91946	229.45494	-10.57771	305.12625	378.35655	424.73574	437.75446	399.51197	0
280	102.52242	280.71615	178.19373	-191.21245	-38.24249	229.45494	-8.1367	280.71615	356.38746	397.88463	420.66739	377.54288	0
281	90.31737	273.39312	183.07575	-181.44841	-48.00653	229.45494	-8.1367	253.86504	327.09534	368.59251	401.13931	355.57379	0
282	100.08141	261.18807	161.10666	-181.44841	-30.91946	212.36787	-15.45973	227.01393	292.9212	339.30039	371.84719	331.16369	0
283	100.08141	248.98302	148.90161	-174.12538	-26.03744	200.16282	-17.90074	205.04484	263.62908	314.89029	344.99608	316.51763	0
284	107.40444	239.21898	131.81454	-174.12538	-13.83239	185.51676	-25.22377	183.07575	239.21898	290.48019	323.02699	304.31258	0
285	112.28646	227.01393	114.72747	-169.24336	-1.62734	170.8707	-32.5468	156.22464	214.80888	268.5111	298.61689	292.10753	0
286	107.40444	212.36787	104.96343	-159.47932	0.81367	158.66565	-37.42882	134.25555	192.83979	248.98302	276.6478	282.34349	0
287	97.6404	205.04484	107.40444	-152.15629	-6.50936	156.22464	-42.31084	112.28646	170.8707	224.57292	254.67871	265.25642	0
288	90.31737	197.72181	107.40444	-144.83326	-8.95037	153.78363	-44.75185	92.75838	151.34262	205.04484	235.15063	248.16935	0
289	92.75838	190.39878	97.6404	-142.39225	-4.06835	144.01959	-47.19286	75.67131	134.25555	183.07575	220.50457	226.20026	0
290	92.75838	178.19373	85.43535	-135.06922	3.25468	131.81454	-49.63387	61.02525	117.16848	161.10666	203.4175	201.79016	1500	QRS+0
291	85.43535	170.8707	85.43535	-127.74619	-1.62734	129.37353	-47.19286	46.37919	97.6404	139.13757	188.77144	179.82107	0
292	78.11232	156.22464	78.11232	-117.98215	-1.62734	117.16848	-44.75185	41.49717	85.43535	124.49151	174.12538	165.17501	0
293	75.67131	146.4606	70.78929	-110.65912	0.81367	109.84545	-42.31084	34.17414	73.2303	114.72747	159.47932	157.85198	0
294	75.67131	136.69656	61.02525	-105.7771	6.50936	100.08141	-47.19286	21.96909	61.02525	102.52242	147.27427	152.96996	0
295	75.67131	126.93252	51.26121	-100.89508	11.39138	90.31737	-49.63387	14.64606	51.26121	95.19939	135.06922	152.96996	0
296	73.2303	119.60949	46.37919	-96.01306	13.83239	82.99434	-49.63387	4.88202	43.93818	87.87636	125.30518	152.96996	0
297	56.14323	114.72747	58.58424	-86.24902	-1.62734	87.87636	-47.19286	-2.44101	39.05616	78.11232	115.54114	148.08794	0
298	48.8202	109.84545	61.02525	-78.92599	-6.50936	85.43535	-44.75185	-12.20505	29.29212	73.2303	108.21811	140.76491	0
299	51.26121	102.52242	51.26121	-76.48498	-1.62734	78.11232	-47.19286	-19.52808	24.4101	61.02525	100.89508	126.11885	0
300	48.8202	97.6404	48.8202	-74.04397	-1.62734	73.2303	-47.19286	-24.4101	17.08707	51.26121	96.01306	111.47279	0
301	46.37919	92.75838	46.37919	-69.16195	-1.62734	70.78929	-47.19286	-31.73313	9.76404	41.49717	91.13104	96.82673	0
302	46.37919	82.99434	36.61515	-64.27993	3.25468	61.02525	-44.75185	-34.17414	0	34.17414	83.80801	87.06269	0
303	43.93818	75.67131	31.73313	-59.39791	6.50936	53.70222	-44.75185	-36.61515	-4.88202	31.73313	76.48498	84.62168	0
304	48.8202	70.78929	21.96909	-59.39791	13.83239	46.37919	-47.19286	-39.05616	-12.20505	26.85111	69.16195	87.06269	0
305	53.70222	63.46626	9.76404	-59.39791	21.15542	36.61515	-54.51589	-46.37919	-17.08707	21.96909	61.83892	87.06269	0
306	56.14323	58.58424	2.44101	-56.9569	26.03744	31.73313	-56.9569	-53.70222	-21.96909	17.08707	54.51589	91.94471	0
307	48.8202	58.58424	9.76404	-54.51589	18.71441	34.17414	-59.39791	-58.58424	-24.4101	14.64606	49.63387	91.94471	0
308	39.05616	56.14323	17.08707	-47.19286	11.39138	36.61515	-59.39791	-63.46626	-24.4101	14.64606	47.19286	91.94471	0
309	41.49717	56.14323	14.64606	-49.63387	13.83239	36.61515	-59.39791	-63.46626	-24.4101	7.32303	49.63387	84.62168	0
310	46.37919	53.70222	7.32303	-49.63387	18.71441	31.73313	-59.39791	-65.90727	-26.85111	4.88202	49.63387	72.41663	0
311	41.49717	53.70222	12.20505	-47.19286	13.83239	34.17414	-52.07488	-63.46626	-29.29212	2.44101	52.07488	65.0936	0
312	39.05616	46.37919	7.32303	-42.31084	16.2734	26.85111	-49.63387	-58.58424	-31.73313	0	49.63387	60.21158	0
313	41.49717	39.05616	-2.44101	-39.86983	21.15542	19.52808	-49.63387	-58.58424	-36.61515	-2.44101	42.31084	57.77057	0
314	46.37919	31.73313	-15.45973	-39.86983	30.91946	9.76404	-54.51589	-58.58424	-39.05616	-4.88202	37.42882	60.21158	0
315	41.49717	26.85111	-15.45973	-34.98781	28.47845	7.32303	-54.51589	-61.02525	-36.61515	-4.88202	34.98781	62.65259	0
316	43.93818	17.08707	-27.66478	-30.10579	35.80148	-4.88202	-56.9569	-63.46626	-39.05616	-7.32303	27.66478	65.0936	0
317	41.49717	17.08707	-25.22377	-30.10579	33.36047	-2.44101	-61.83892	-71.60296	-43.93818	-17.08707	20.34175	60.21158	0
318	39.05616	17.08707	-22.78276	-27.66478	30.91946	-2.44101	-61.83892	-74.04397	-43.93818	-17.08707	17.90074	55.32956	0
319	36.61515	17.08707	-20.34175	-27.66478	28.47845	0	-56.9569	-71.60296	-41.49717	-17.08707	22.78276	48.00653	0
320	29.29212	17.08707	-13.01872	-22.78276	21.15542	2.44101	-52.07488	-68.34828	-39.05616	-17.08707	27.66478	43.12451	0
321	31.73313	17.08707	-15.45973	-25.22377	23.59643	2.44101	-52.07488	-68.34828	-41.49717	-21.96909	30.10579	35.80148	0
322	29.29212	9.76404	-20.34175	-20.34175	23.59643	-4.88202	-47.19286	-61.02525	-41.49717	-19.52808	30.10579	33.36047	0
323	19.52808	0	-20.34175	-10.57771	18.71441	-10.57771	-42.31084	-53.70222	-39.05616	-17.08707	30.10579	38.24249	0
324	14.64606	-7.32303	-22.78276	-3.25468	18.71441	-15.45973	-42.31084	-51.26121	-36.61515	-14.64606	30.10579	45.56552	0
325	14.64606	-13.01872	-27.66478	-0.81367	18.71441	-20.34175	-42.31084	-51.26121	-36.61515	-14.64606	25.22377	50.44754	0
326	24.4101	-20.34175	-44.75185	-3.25468	33.36047	-32.5468	-42.31084	-56.14323	-39.05616	-14.64606	17.90074	48.00653	0
327	19.52808	-17.90074	-37.42882	-0.81367	26.03744	-27.66478	-42.31084	-58.58424	-41.49717	-19.52808	13.01872	45.56552	0
328	4.88202	-15.45973	-20.34175	4.06835	11.39138	-17.90074	-37.42882	-61.02525	-41.49717	-17.08707	10.57771	40.6835	0
329	7.32303	-10.57771	-17.90074	1.62734	11.39138	-13.01872	-34.98781	-58.58424	-39.05616	-19.52808	10.57771	30.91946	0
330	12.20505	-10.57771	-22.78276	-0.81367	16.2734	-15.45973	-34.98781	-61.02525	-39.05616	-24.4101	10.57771	16.2734	0
331	7.32303	-10.57771	-17.90074	1.62734	11.39138	-13.01872	-30.10579	-58.58424	-39.05616	-26.85111	10.57771	6.50936	0
332	2.44101	-10.57771	-13.01872	4.06835	6.50936	-10.57771	-25.22377	-48.8202	-36.61515	-29.29212	8.1367	4.06835	0
333	-0.81367	-15.45973	-15.45973	7.32303	6.50936	-15.45973	-20.34175	-39.05616	-34.17414	-29.29212	5.69569	1.62734	0
334	12.20505	-20.34175	-32.5468	4.06835	21.15542	-25.22377	-22.78276	-41.49717	-36.61515	-31.73313	0.81367	-8.1367	0
335	12.20505	-25.22377	-37.42882	4.06835	23.59643	-30.10579	-25.22377	-39.05616	-34.17414	-31.73313	-1.62734	-11.39138	0
336	9.76404	-27.66478	-37.42882	7.32303	21.15542	-32.5468	-25.22377	-36.61515	-34.17414	-26.85111	-4.06835	-11.39138	0
337	7.32303	-25.22377	-32.5468	7.32303	18.71441	-27.66478	-25.22377	-41.49717	-36.61515	-29.29212	-8.95037	-16.2734	0
338	12.20505	-17.90074	-30.10579	1.62734	18.71441	-22.78276	-25.22377	-46.37919	-39.05616	-29.29212	-8.95037	-21.15542	0
339	9.76404	-15.45973	-25.22377	1.62734	16.2734	-20.34175	-22.78276	-46.37919	-34.17414	-29.29212	-6.50936	-21.15542	0
340	2.44101	-10.57771	-13.01872	4.06835	6.50936	-10.57771	-15.45973	-41.49717	-29.29212	-26.85111	-1.62734	-16.2734	0
341	-0.81367	-10.57771	-10.57771	4.06835	3.25468	-10.57771	-13.01872	-41.49717	-29.29212	-31.73313	-1.62734	-11.39138	0
342	2.44101	-13.01872	-15.45973	4.06835	6.50936	-13.01872	-8.1367	-34.17414	-31.73313	-34.17414	-1.62734	-11.39138	0
343	2.44101	-15.45973	-17.90074	4.06835	8.95037	-15.45973	-0.81367	-24.4101	-26.85111	-31.73313	-1.62734	-5.69569	0
344	-3.25468	-20.34175	-17.90074	9.76404	6.50936	-20.34175	4.06835	-19.52808	-21.96909	-29.29212	-4.06835	1.62734	0
345	-8.1367	-25.22377	-17.90074	14.64606	3.25468	-22.78276	1.62734	-17.08707	-19.52808	-29.29212	-4.06835	1.62734	0
346	-0.81367	-27.66478	-27.66478	12.20505	11.39138	-27.66478	-0.81367	-19.52808	-21.96909	-31.73313	-11.39138	-3.25468	0
347	-0.81367	-25.22377	-25.22377	12.20505	11.39138	-25.22377	-5.69569	-26.85111	-24.4101	-36.61515	-13.83239	-8.1367	0
348	7.32303	-17.90074	-25.22377	4.06835	13.83239	-20.34175	-13.01872	-34.17414	-29.29212	-39.05616	-18.71441	-11.39138	0
349	17.08707	-13.01872	-30.10579	-3.25468	21.15542	-20.34175	-15.45973	-36.61515	-29.29212	-46.37919	-18.71441	-16.2734	0
350	12.20505	-10.57771	-22.78276	-0.81367	16.2734	-15.45973	-13.01872	-36.61515	-26.85111	-46.37919	-13.83239	-13.83239	0
351	-0.81367	-10.57771	-10.57771	4.06835	3.25468	-10.57771	-8.1367	-31.73313	-24.4101	-43.93818	-6.50936	-11.39138	0
352	-8.1367	-10.57771	-2.44101	7.32303	-4.06835	-7.32303	-3.25468	-21.96909	-21.96909	-43.93818	-4.06835	-8.1367	0
353	-10.57771	-15.45973	-4.88202	12.20505	-4.06835	-10.57771	-0.81367	-17.08707	-19.52808	-43.93818	-6.50936	-8.1367	0
354	-10.57771	-17.90074	-7.32303	12.20505	-4.06835	-13.01872	1.62734	-12.20505	-17.08707	-39.05616	-8.95037	-3.25468	0
355	-15.45973	-22.78276	-7.32303	17.08707	-6.50936	-15.45973	-0.81367	-12.20505	-14.64606	-36.61515	-8.95037	-0.81367	0
356	-15.45973	-25.22377	-10.57771	19.52808	-4.06835	-17.90074	-3.25468	-12.20505	-17.08707	-34.17414	-11.39138	-5.69569	0
357	-10.57771	-22.78276	-13.01872	14.64606	-1.62734	-17.90074	-10.57771	-19.52808	-21.96909	-39.05616	-18.71441	-11.39138	0
358	-5.69569	-13.01872	-7.32303	7.32303	-1.62734	-10.57771	-15.45973	-26.85111	-29.29212	-41.49717	-23.59643	-13.83239	0
359	-3.25468	-7.32303	-4.88202	4.06835	0.81367	-7.32303	-15.45973	-29.29212	-29.29212	-43.93818	-21.15542	-13.83239	0
360	-8.1367	-2.44101	4.88202	4.06835	-6.50936	0	-13.01872	-29.29212	-29.29212	-43.93818	-16.2734	-11.39138	0
361	-17.90074	2.44101	19.52808	7.32303	-18.71441	9.76404	-8.1367	-26.85111	-26.85111	-43.93818	-8.95037	-8.1367	0
362	-27.66478	2.44101	29.29212	12.20505	-28.47845	14.64606	-0.81367	-19.52808	-24.4101	-39.05616	-6.50936	-3.25468	0
363	-20.34175	2.44101	21.96909	7.32303	-21.15542	12.20505	-0.81367	-17.08707	-26.85111	-39.05616	-11.39138	-3.25468	0
364	-15.45973	0	14.64606	7.32303	-16.2734	7.32303	-0.81367	-17.08707	-24.4101	-39.05616	-13.83239	-3.25468	0
365	-15.45973	-2.44101	12.20505	7.32303	-13.83239	4.88202	-5.69569	-19.52808	-21.96909	-34.17414	-13.83239	-8.1367	0
366	-13.01872	-2.44101	9.76404	7.32303	-11.39138	2.44101	-5.69569	-19.52808	-21.96909	-31.73313	-16.2734	-11.39138	0
367	-8.1367	0	7.32303	4.06835	-8.95037	2.44101	-10.57771	-26.85111	-24.4101	-34.17414	-21.15542	-16.2734	0
368	-8.1367	7.32303	14.64606	-0.81367	-11.39138	9.76404	-15.45973	-34.17414	-29.29212	-34.17414	-23.59643	-21.15542	0
369	-17.90074	12.20505	29.29212	1.62734	-23.59643	19.52808	-13.01872	-34.17414	-24.4101	-34.17414	-21.15542	-18.71441	0
370	-22.78276	14.64606	36.61515	4.06835	-30.91946	24.4101	-10.57771	-34.17414	-24.4101	-36.61515	-18.71441	-18.71441	0
371	-25.22377	19.52808	43.93818	1.62734	-35.80148	31.73313	-8.1367	-34.17414	-26.85111	-41.49717	-16.2734	-16.2734	0
372	-20.34175	21.96909	41.49717	-0.81367	-30.91946	31.73313	-8.1367	-34.17414	-26.85111	-46.37919	-18.71441	-16.2734	0
373	-22.78276	21.96909	43.93818	-0.81367	-33.36047	31.73313	-3.25468	-26.85111	-24.4101	-43.93818	-23.59643	-13.83239	0
374	-17.90074	21.96909	39.05616	-3.25468	-28.47845	29.29212	-3.25468	-24.4101	-24.4101	-39.05616	-23.59643	-13.83239	0
375	-8.1367	26.85111	34.17414	-10.57771	-21.15542	29.29212	-8.1367	-26.85111	-21.96909	-36.61515	-23.59643	-16.2734	0
376	-0.81367	26.85111	26.85111	-13.01872	-13.83239	26.85111	-15.45973	-29.29212	-21.96909	-34.17414	-28.47845	-21.15542	0
377	2.44101	29.29212	26.85111	-15.45973	-13.83239	29.29212	-22.78276	-36.61515	-29.29212	-36.61515	-34.17414	-26.03744	0
378	4.88202	34.17414	29.29212	-20.34175	-13.83239	31.73313	-30.10579	-43.93818	-31.73313	-36.61515	-34.17414	-28.47845	0
379	12.20505	39.05616	26.85111	-25.22377	-8.95037	34.17414	-34.98781	-51.26121	-34.17414	-39.05616	-30.91946	-28.47845	0
380	12.20505	41.49717	29.29212	-27.66478	-8.95037	36.61515	-37.42882	-53.70222	-36.61515	-41.49717	-26.03744	-23.59643	0
381	2.44101	41.49717	39.05616	-22.78276	-18.71441	41.49717	-37.42882	-56.14323	-39.05616	-49.63387	-23.59643	-18.71441	0
382	-5.69569	41.49717	46.37919	-17.90074	-26.03744	43.93818	-34.98781	-53.70222	-39.05616	-49.63387	-23.59643	-13.83239	0
383	-5.69569	41.49717	46.37919	-17.90074	-26.03744	43.93818	-32.5468	-51.26121	-41.49717	-49.63387	-23.59643	-11.39138	0
384	-13.01872	39.05616	51.26121	-13.01872	-33.36047	43.93818	-27.66478	-48.8202	-36.61515	-43.93818	-23.59643	-8.1367	0
385	-17.90074	36.61515	53.70222	-10.57771	-35.80148	43.93818	-27.66478	-48.8202	-34.17414	-41.49717	-23.59643	-5.69569	0
386	-15.45973	31.73313	46.37919	-8.1367	-30.91946	39.05616	-30.10579	-53.70222	-34.17414	-39.05616	-28.47845	-11.39138	0
387	-10.57771	31.73313	41.49717	-10.57771	-26.03744	36.61515	-34.98781	-61.02525	-36.61515	-41.49717	-34.17414	-13.83239	0
388	-5.69569	36.61515	41.49717	-15.45973	-23.59643	39.05616	-37.42882	-71.60296	-41.49717	-43.93818	-34.17414	-18.71441	0
389	-3.25468	41.49717	43.93818	-20.34175	-23.59643	41.49717	-37.42882	-71.60296	-41.49717	-46.37919	-30.91946	-18.71441	0
390	-0.81367	41.49717	41.49717	-20.34175	-21.15542	41.49717	-39.86983	-74.04397	-43.93818	-49.63387	-28.47845	-18.71441	0
391	2.44101	43.93818	41.49717	-22.78276	-21.15542	43.93818	-44.75185	-78.92599	-48.8202	-52.07488	-28.47845	-18.71441	0
392	-0.81367	43.93818	43.93818	-22.78276	-23.59643	43.93818	-42.31084	-78.92599	-48.8202	-49.63387	-26.03744	-13.83239	-1500	QRS-0
393	-8.1367	41.49717	48.8202	-17.90074	-28.47845	43.93818	-39.86983	-74.04397	-48.8202	-46.37919	-26.03744	-13.83239	0
394	-15.45973	41.49717	56.14323	-13.01872	-35.80148	48.8202	-39.86983	-71.60296	-48.8202	-41.49717	-28.47845	-11.39138	0
395	-10.57771	39.05616	48.8202	-15.45973	-30.91946	43.93818	-44.75185	-76.48498	-48.8202	-41.49717	-30.91946	-16.2734	0
396	-13.01872	34.17414	46.37919	-10.57771	-30.91946	39.05616	-49.63387	-76.48498	-48.8202	-39.05616	-34.17414	-18.71441	0
397	-17.90074	36.61515	53.70222	-10.57771	-35.80148	43.93818	-49.63387	-83.80801	-51.26121	-39.05616	-36.61515	-21.15542	0
398	-20.34175	41.49717	61.02525	-10.57771	-40.6835	51.26121	-54.51589	-91.13104	-58.58424	-46.37919	-41.49717	-26.03744	0
399	-8.1367	46.37919	53.70222	-20.34175	-30.91946	48.8202	-56.9569	-96.01306	-64.27993	-49.63387	-43.93818	-28.47845	0
400	-0.81367	48.8202	48.8202	-25.22377	-26.03744	48.8202	-61.83892	-103.33609	-66.72094	-56.9569	-43.93818	-28.47845	0
401	-0.81367	48.8202	48.8202	-25.22377	-26.03744	48.8202	-61.83892	-105.7771	-74.04397	-64.27993	-43.93818	-30.91946	0
402	-0.81367	48.8202	48.8202	-25.22377	-26.03744	48.8202	-61.83892	-105.7771	-76.48498	-64.27993	-46.37919	-30.91946	0
403	-0.81367	46.37919	46.37919	-22.78276	-23.59643	46.37919	-61.83892	-105.7771	-78.92599	-66.72094	-51.26121	-33.36047	0
404	4.88202	43.93818	39.05616	-25.22377	-18.71441	41.49717	-61.83892	-105.7771	-78.92599	-66.72094	-56.14323	-35.80148	0
405	12.20505	41.49717	29.29212	-27.66478	-8.95037	36.61515	-66.72094	-110.65912	-81.367	-66.72094	-61.02525	-38.24249	0
406	14.64606	36.61515	21.96909	-25.22377	-4.06835	29.29212	-69.16195	-115.54114	-83.80801	-66.72094	-63.46626	-43.12451	0
407	17.08707	36.61515	19.52808	-27.66478	-1.62734	29.29212	-74.04397	-120.42316	-86.24902	-69.16195	-65.90727	-45.56552	0
408	17.08707	43.93818	26.85111	-30.10579	-6.50936	36.61515	-76.48498	-125.30518	-91.13104	-71.60296	-65.90727	-45.56552	0
409	21.96909	43.93818	21.96909	-32.5468	-1.62734	34.17414	-78.92599	-130.1872	-93.57205	-74.04397	-65.90727	-45.56552	0
410	24.4101	46.37919	21.96909	-34.98781	0.81367	34.17414	-81.367	-135.06922	-98.45407	-78.92599	-63.46626	-43.12451	0
411	24.4101	48.8202	24.4101	-37.42882	-1.62734	36.61515	-83.80801	-137.51023	-103.33609	-83.80801	-61.02525	-43.12451	0
412	29.29212	51.26121	21.96909	-39.86983	3.25468	36.61515	-81.367	-137.51023	-105.7771	-83.80801	-61.02525	-43.12451	0
413	24.4101	51.26121	26.85111	-37.42882	-1.62734	39.05616	-76.48498	-130.1872	-103.33609	-81.367	-61.02525	-40.6835	0
414	14.64606	46.37919	31.73313	-30.10579	-8.95037	39.05616	-76.48498	-130.1872	-100.89508	-78.92599	-65.90727	-40.6835	0
415	17.08707	46.37919	29.29212	-32.5468	-6.50936	39.05616	-81.367	-132.62821	-100.89508	-81.367	-68.34828	-45.56552	0
416	17.08707	43.93818	26.85111	-30.10579	-6.50936	36.61515	-86.24902	-137.51023	-105.7771	-83.80801	-73.2303	-48.00653	0
417	7.32303	43.93818	36.61515	-25.22377	-16.2734	41.49717	-88.69003	-144.83326	-108.21811	-83.80801	-73.2303	-48.00653	0
418	-0.81367	43.93818	43.93818	-22.78276	-23.59643	43.93818	-93.57205	-149.71528	-110.65912	-86.24902	-75.67131	-48.00653	0
419	-3.25468	43.93818	46.37919	-20.34175	-26.03744	43.93818	-96.01306	-154.5973	-115.54114	-91.13104	-75.67131	-48.00653	0
420	9.76404	46.37919	36.61515	-27.66478	-13.83239	41.49717	-103.33609	-164.36134	-125.30518	-98.45407	-75.67131	-48.00653	0
421	17.08707	48.8202	31.73313	-32.5468	-8.95037	41.49717	-105.7771	-169.24336	-132.62821	-103.33609	-75.67131	-48.00653	0
422	19.52808	51.26121	31.73313	-34.98781	-6.50936	41.49717	-103.33609	-169.24336	-132.62821	-103.33609	-75.67131	-48.00653	0
423	24.4101	51.26121	26.85111	-37.42882	-1.62734	39.05616	-100.89508	-169.24336	-135.06922	-103.33609	-78.11232	-48.00653	0
424	21.96909	51.26121	29.29212	-37.42882	-4.06835	41.49717	-98.45407	-166.80235	-132.62821	-98.45407	-80.55333	-48.00653	0
425	14.64606	51.26121	36.61515	-32.5468	-11.39138	43.93818	-96.01306	-166.80235	-130.1872	-96.01306	-80.55333	-45.56552	0
426	14.64606	48.8202	34.17414	-32.5468	-11.39138	41.49717	-96.01306	-169.24336	-130.1872	-96.01306	-85.43535	-48.00653	0
427	9.76404	48.8202	39.05616	-30.10579	-16.2734	43.93818	-96.01306	-171.68437	-132.62821	-96.01306	-87.87636	-50.44754	0
428	2.44101	53.70222	51.26121	-27.66478	-26.03744	53.70222	-98.45407	-179.0074	-135.06922	-96.01306	-90.31737	-50.44754	0
429	-0.81367	53.70222	53.70222	-27.66478	-28.47845	53.70222	-96.01306	-179.0074	-137.51023	-100.89508	-87.87636	-50.44754	0
430	2.44101	56.14323	53.70222	-30.10579	-26.03744	56.14323	-98.45407	-181.44841	-139.95124	-103.33609	-87.87636	-50.44754	0
431	4.88202	56.14323	51.26121	-30.10579	-23.59643	53.70222	-100.89508	-181.44841	-144.83326	-108.21811	-87.87636	-50.44754	0
432	9.76404	56.14323	46.37919	-32.5468	-18.71441	51.26121	-100.89508	-181.44841	-149.71528	-110.65912	-87.87636	-52.88855	0
433	14.64606	51.26121	36.61515	-32.5468	-11.39138	43.93818	-100.89508	-179.0074	-152.15629	-115.54114	-92.75838	-55.32956	0
434	21.96909	51.26121	29.29212	-37.42882	-4.06835	41.49717	-100.89508	-179.0074	-152.15629	-117.98215	-97.6404	-57.77057	0
435	21.96909	48.8202	26.85111	-34.98781	-4.06835	39.05616	-103.33609	-176.56639	-149.71528	-115.54114	-97.6404	-60.21158	0
436	14.64606	46.37919	31.73313	-30.10579	-8.95037	39.05616	-103.33609	-176.56639	-144.83326	-113.10013	-100.08141	-62.65259	0
437	14.64606	46.37919	31.73313	-30.10579	-8.95037	39.05616	-105.7771	-181.44841	-144.83326	-117.98215	-102.52242	-65.0936	0
438	12.20505	48.8202	36.61515	-30.10579	-13.83239	43.93818	-108.21811	-186.33043	-144.83326	-120.42316	-102.52242	-67.53461	0
439	2.44101	51.26121	48.8202	-27.66478	-23.59643	51.26121	-103.33609	-183.88942	-142.39225	-120.42316	-97.6404	-60.21158	0
440	-5.69569	53.70222	58.58424	-25.22377	-33.36047	56.14323	-98.45407	-179.0074	-142.39225	-115.54114	-90.31737	-55.32956	0
441	-13.01872	53.70222	65.90727	-20.34175	-40.6835	58.58424	-96.01306	-176.56639	-142.39225	-115.54114	-87.87636	-52.88855	0
442	-20.34175	48.8202	68.34828	-15.45973	-45.56552	58.58424	-93.57205	-174.12538	-144.83326	-113.10013	-90.31737	-52.88855	0
443	-13.01872	43.93818	56.14323	-15.45973	-35.80148	48.8202	-93.57205	-171.68437	-147.27427	-115.54114	-95.19939	-55.32956	0
444	-15.45973	39.05616	53.70222	-13.01872	-35.80148	46.37919	-91.13104	-166.80235	-144.83326	-110.65912	-100.08141	-55.32956	0
445	-13.01872	34.17414	46.37919	-10.57771	-30.91946	39.05616	-93.57205	-169.24336	-142.39225	-108.21811	-104.96343	-60.21158	0
446	-10.57771	29.29212	39.05616	-10.57771	-26.03744	34.17414	-98.45407	-171.68437	-144.83326	-108.21811	-109.84545	-67.53461	0
447	-10.57771	29.29212	39.05616	-10.57771	-26.03744	34.17414	-100.89508	-174.12538	-144.83326	-110.65912	-117.16848	-69.97562	0
448	2.44101	36.61515	34.17414	-20.34175	-16.2734	36.61515	-108.21811	-181.44841	-147.27427	-117.98215	-119.60949	-77.29865	0
449	-0.81367	41.49717	41.49717	-20.34175	-21.15542	41.49717	-105.7771	-179.0074	-144.83326	-117.98215	-114.72747	-74.85764	0
450	-3.25468	43.93818	46.37919	-20.34175	-26.03744	43.93818	-105.7771	-179.0074	-147.27427	-120.42316	-112.28646	-74.85764	0
451	-5.69569	43.93818	48.8202	-20.34175	-28.47845	46.37919	-105.7771	-179.0074	-152.15629	-122.86417	-109.84545	-72.41663	0
452	-10.57771	43.93818	53.70222	-17.90074	-33.36047	48.8202	-103.33609	-174.12538	-154.5973	-122.86417	-109.84545	-72.41663	0
453	-8.1367	39.05616	46.37919	-15.45973	-28.47845	41.49717	-100.89508	-169.24336	-154.5973	-125.30518	-112.28646	-74.85764	0
454	-15.45973	36.61515	51.26121	-10.57771	-33.36047	43.93818	-98.45407	-164.36134	-149.71528	-122.86417	-117.16848	-77.29865	0
455	-20.34175	29.29212	48.8202	-5.69569	-35.80148	39.05616	-98.45407	-164.36134	-147.27427	-120.42316	-119.60949	-79.73966	0
456	-20.34175	24.4101	43.93818	-3.25468	-33.36047	34.17414	-98.45407	-166.80235	-147.27427	-120.42316	-124.49151	-84.62168	0
457	-13.01872	24.4101	36.61515	-5.69569	-26.03744	29.29212	-103.33609	-171.68437	-149.71528	-125.30518	-129.37353	-89.5037	0
458	-8.1367	29.29212	36.61515	-10.57771	-23.59643	31.73313	-105.7771	-176.56639	-149.71528	-127.74619	-129.37353	-91.94471	0
459	-8.1367	29.29212	36.61515	-10.57771	-23.59643	31.73313	-105.7771	-176.56639	-147.27427	-127.74619	-122.0505	-89.5037	0
460	-10.57771	31.73313	41.49717	-10.57771	-26.03744	36.61515	-100.89508	-174.12538	-147.27427	-127.74619	-114.72747	-87.06269	0
461	-15.45973	29.29212	43.93818	-8.1367	-30.91946	36.61515	-100.89508	-171.68437	-147.27427	-125.30518	-107.40444	-82.18067	0
462	-13.01872	26.85111	39.05616	-8.1367	-26.03744	31.73313	-98.45407	-166.80235	-147.27427	-122.86417	-104.96343	-82.18067	0
463	-15.45973	21.96909	36.61515	-3.25468	-26.03744	29.29212	-96.01306	-159.47932	-144.83326	-120.42316	-104.96343	-82.18067	0
464	-20.34175	17.08707	36.61515	1.62734	-28.47845	26.85111	-93.57205	-154.5973	-139.95124	-115.54114	-107.40444	-82.18067	0
465	-10.57771	12.20505	21.96909	-0.81367	-16.2734	17.08707	-96.01306	-152.15629	-137.51023	-115.54114	-112.28646	-89.5037	0
466	-5.69569	7.32303	12.20505	-0.81367	-8.95037	9.76404	-98.45407	-154.5973	-135.06922	-115.54114	-122.0505	-96.82673	0
467	-8.1367	4.88202	12.20505	1.62734	-11.39138	7.32303	-100.89508	-159.47932	-135.06922	-117.98215	-129.37353	-101.70875	0
468	-5.69569	7.32303	12.20505	-0.81367	-8.95037	9.76404	-105.7771	-164.36134	-135.06922	-122.86417	-131.81454	-106.59077	0
469	-0.81367	12.20505	12.20505	-5.69569	-6.50936	12.20505	-103.33609	-166.80235	-137.51023	-127.74619	-131.81454	-106.59077	0
470	-0.81367	12.20505	12.20505	-5.69569	-6.50936	12.20505	-103.33609	-166.80235	-139.95124	-130.1872	-126.93252	-106.59077	0
471	-10.57771	14.64606	24.4101	-3.25468	-18.71441	19.52808	-96.01306	-161.92033	-139.95124	-130.1872	-122.0505	-99.26774	0
472	-13.01872	14.64606	26.85111	-0.81367	-21.15542	19.52808	-93.57205	-154.5973	-142.39225	-130.1872	-117.16848	-99.26774	0
473	-8.1367	12.20505	19.52808	-3.25468	-13.83239	14.64606	-91.13104	-147.27427	-142.39225	-127.74619	-117.16848	-99.26774	0
474	-13.01872	7.32303	19.52808	1.62734	-16.2734	12.20505	-88.69003	-139.95124	-137.51023	-120.42316	-117.16848	-99.26774	0
475	-17.90074	7.32303	24.4101	4.06835	-21.15542	14.64606	-86.24902	-130.1872	-130.1872	-113.10013	-117.16848	-96.82673	0
476	-13.01872	7.32303	19.52808	1.62734	-16.2734	12.20505	-86.24902	-127.74619	-125.30518	-105.7771	-119.60949	-99.26774	0
477	-3.25468	12.20505	14.64606	-5.69569	-8.95037	12.20505	-88.69003	-130.1872	-122.86417	-105.7771	-124.49151	-101.70875	0
478	-3.25468	19.52808	21.96909	-8.1367	-13.83239	19.52808	-86.24902	-130.1872	-117.98215	-103.33609	-122.0505	-99.26774	0
479	-15.45973	24.4101	39.05616	-5.69569	-28.47845	31.73313	-78.92599	-130.1872	-110.65912	-103.33609	-112.28646	-89.5037	0
480	-13.01872	31.73313	43.93818	-10.57771	-28.47845	36.61515	-76.48498	-127.74619	-110.65912	-103.33609	-104.96343	-84.62168	0
481	-3.25468	39.05616	41.49717	-17.90074	-23.59643	39.05616	-74.04397	-127.74619	-113.10013	-108.21811	-100.08141	-82.18067	0
482	-0.81367	41.49717	41.49717	-20.34175	-21.15542	41.49717	-69.16195	-125.30518	-113.10013	-108.21811	-95.19939	-79.73966	0
483	-5.69569	41.49717	46.37919	-17.90074	-26.03744	43.93818	-61.83892	-115.54114	-108.21811	-100.89508	-87.87636	-74.85764	0
484	-13.01872	39.05616	51.26121	-13.01872	-33.36047	43.93818	-56.9569	-110.65912	-103.33609	-93.57205	-87.87636	-72.41663	0
485	-8.1367	39.05616	46.37919	-15.45973	-28.47845	41.49717	-54.51589	-105.7771	-100.89508	-88.69003	-90.31737	-74.85764	0
486	-13.01872	39.05616	51.26121	-13.01872	-33.36047	43.93818	-44.75185	-100.89508	-93.57205	-78.92599	-90.31737	-74.85764	0
487	-13.01872	43.93818	56.14323	-15.45973	-35.80148	48.8202	-39.86983	-100.89508	-88.69003	-74.04397	-90.31737	-74.85764	0
488	-13.01872	48.8202	61.02525	-17.90074	-38.24249	53.70222	-34.98781	-100.89508	-86.24902	-74.04397	-90.31737	-74.85764	0
489	-15.45973	51.26121	65.90727	-17.90074	-40.6835	58.58424	-30.10579	-103.33609	-83.80801	-74.04397	-85.43535	-69.97562	0
490	-15.45973	51.26121	65.90727	-17.90074	-40.6835	58.58424	-27.66478	-103.33609	-83.80801	-74.04397	-78.11232	-67.53461	0
491	-15.45973	51.26121	65.90727	-17.90074	-40.6835	58.58424	-27.66478	-100.89508	-83.80801	-76.48498	-70.78929	-62.65259	0
492	-0.81367	51.26121	51.26121	-25.22377	-26.03744	51.26121	-34.98781	-100.89508	-91.13104	-81.367	-70.78929	-65.0936	0
493	12.20505	46.37919	34.17414	-30.10579	-11.39138	41.49717	-42.31084	-103.33609	-93.57205	-86.24902	-73.2303	-69.97562	0
494	17.08707	41.49717	24.4101	-30.10579	-4.06835	34.17414	-49.63387	-105.7771	-96.01306	-86.24902	-78.11232	-72.41663	0
495	14.64606	36.61515	21.96909	-25.22377	-4.06835	29.29212	-56.9569	-103.33609	-93.57205	-81.367	-78.11232	-69.97562	0
496	14.64606	34.17414	19.52808	-25.22377	-4.06835	26.85111	-66.72094	-108.21811	-93.57205	-76.48498	-80.55333	-69.97562	0
497	17.08707	34.17414	17.08707	-25.22377	-1.62734	26.85111	-74.04397	-113.10013	-93.57205	-76.48498	-82.99434	-69.97562	0
498	14.64606	39.05616	24.4101	-27.66478	-6.50936	31.73313	-78.92599	-117.98215	-93.57205	-76.48498	-80.55333	-67.53461	0
499	9.76404	41.49717	31.73313	-25.22377	-11.39138	36.61515	-78.92599	-117.98215	-91.13104	-76.48498	-73.2303	-60.21158	0
500	2.44101	41.49717	39.05616	-22.78276	-18.71441	41.49717	-76.48498	-117.98215	-91.13104	-76.48498	-68.34828	-52.88855	0
501	-0.81367	41.49717	41.49717	-20.34175	-21.15542	41.49717	-76.48498	-117.98215	-93.57205	-78.92599	-63.46626	-48.00653	0
502	7.32303	41.49717	34.17414	-25.22377	-13.83239	39.05616	-74.04397	-115.54114	-96.01306	-81.367	-63.46626	-48.00653	0
503	17.08707	36.61515	19.52808	-27.66478	-1.62734	29.29212	-71.60296	-113.10013	-96.01306	-81.367	-63.46626	-48.00653	0
504	21.96909	29.29212	7.32303	-25.22377	6.50936	19.52808	-69.16195	-113.10013	-96.01306	-81.367	-68.34828	-50.44754	0
505	31.73313	24.4101	-7.32303	-27.66478	18.71441	9.76404	-71.60296	-115.54114	-98.45407	-81.367	-75.67131	-55.32956	0
506	34.17414	12.20505	-22.78276	-22.78276	28.47845	-4.88202	-74.04397	-120.42316	-100.89508	-83.80801	-82.99434	-60.21158	0
507	29.29212	4.88202	-25.22377	-17.90074	26.03744	-10.57771	-74.04397	-122.86417	-103.33609	-83.80801	-87.87636	-62.65259	0
508	21.96909	2.44101	-20.34175	-13.01872	21.15542	-7.32303	-74.04397	-127.74619	-103.33609	-86.24902	-87.87636	-65.0936	0
509	21.96909	0	-22.78276	-10.57771	21.15542	-10.57771	-74.04397	-132.62821	-108.21811	-91.13104	-87.87636	-65.0936	0
510	17.08707	0	-17.90074	-8.1367	16.2734	-7.32303	-74.04397	-132.62821	-113.10013	-96.01306	-85.43535	-60.21158	0
511	9.76404	0	-10.57771	-5.69569	8.95037	-4.88202	-71.60296	-135.06922	-113.10013	-96.01306	-80.55333	-57.77057	0
512	2.44101	0	-2.44101	-0.81367	0.81367	0	-64.27993	-125.30518	-110.65912	-91.13104	-70.78929	-50.44754	0
513	7.32303	2.44101	-4.88202	-5.69569	6.50936	0	-61.83892	-120.42316	-105.7771	-91.13104	-65.90727	-48.00653	0
514	14.64606	4.88202	-10.57771	-10.57771	11.39138	-2.44101	-61.83892	-117.98215	-103.33609	-86.24902	-65.90727	-48.00653	0
515	14.64606	0	-15.45973	-8.1367	13.83239	-7.32303	-61.83892	-115.54114	-100.89508	-81.367	-65.90727	-45.56552	0
516	7.32303	-7.32303	-15.45973	-0.81367	11.39138	-10.57771	-64.27993	-113.10013	-98.45407	-76.48498	-65.90727	-50.44754	0
517	7.32303	-10.57771	-17.90074	1.62734	11.39138	-13.01872	-71.60296	-120.42316	-98.45407	-78.92599	-73.2303	-55.32956	0
518	7.32303	-10.57771	-17.90074	1.62734	11.39138	-13.01872	-76.48498	-130.1872	-105.7771	-86.24902	-78.11232	-62.65259	0
519	9.76404	-13.01872	-22.78276	1.62734	13.83239	-17.90074	-81.367	-139.95124	-113.10013	-96.01306	-85.43535	-67.53461	0
520	12.20505	-13.01872	-25.22377	-0.81367	16.2734	-17.90074	-81.367	-147.27427	-120.42316	-103.33609	-87.87636	-72.41663	0
521	9.76404	-17.90074	-27.66478	4.06835	16.2734	-22.78276	-81.367	-149.71528	-127.74619	-108.21811	-92.75838	-77.29865	0
522	12.20505	-17.90074	-30.10579	1.62734	18.71441	-22.78276	-78.92599	-152.15629	-132.62821	-113.10013	-92.75838	-82.18067	0
523	7.32303	-22.78276	-30.10579	7.32303	16.2734	-25.22377	-74.04397	-147.27427	-130.1872	-113.10013	-92.75838	-82.18067	0
524	-3.25468	-27.66478	-25.22377	14.64606	8.95037	-27.66478	-66.72094	-137.51023	-122.86417	-105.7771	-90.31737	-82.18067	0
525	-15.45973	-30.10579	-15.45973	21.96909	-1.62734	-22.78276	-64.27993	-130.1872	-117.98215	-98.45407	-87.87636	-79.73966	0
526	-22.78276	-37.42882	-15.45973	29.29212	-6.50936	-27.66478	-64.27993	-127.74619	-113.10013	-91.13104	-87.87636	-79.73966	0
527	-37.42882	-42.31084	-4.88202	39.05616	-18.71441	-25.22377	-64.27993	-127.74619	-108.21811	-86.24902	-85.43535	-77.29865	0
528	-42.31084	-39.86983	2.44101	39.05616	-23.59643	-20.34175	-66.72094	-130.1872	-105.7771	-83.80801	-80.55333	-74.85764	0
529	-30.10579	-39.86983	-10.57771	34.17414	-11.39138	-25.22377	-71.60296	-137.51023	-110.65912	-88.69003	-80.55333	-72.41663	0
530	-22.78276	-39.86983	-17.90074	29.29212	-4.06835	-30.10579	-74.04397	-139.95124	-115.54114	-93.57205	-80.55333	-72.41663	0
531	-15.45973	-37.42882	-22.78276	24.4101	0.81367	-30.10579	-76.48498	-142.39225	-120.42316	-98.45407	-80.55333	-67.53461	0
532	-8.1367	-37.42882	-30.10579	21.96909	8.95037	-34.98781	-76.48498	-142.39225	-120.42316	-98.45407	-78.11232	-67.53461	0
533	-0.81367	-37.42882	-37.42882	17.08707	16.2734	-37.42882	-74.04397	-139.95124	-120.42316	-100.89508	-75.67131	-65.0936	0
534	-0.81367	-42.31084	-42.31084	19.52808	18.71441	-42.31084	-71.60296	-137.51023	-117.98215	-98.45407	-75.67131	-62.65259	0
535	-8.1367	-44.75185	-37.42882	24.4101	13.83239	-42.31084	-66.72094	-132.62821	-113.10013	-93.57205	-75.67131	-60.21158	0
536	-13.01872	-49.63387	-37.42882	29.29212	11.39138	-44.75185	-66.72094	-130.1872	-108.21811	-88.69003	-75.67131	-60.21158	0
537	-15.45973	-49.63387	-34.98781	31.73313	8.95037	-42.31084	-69.16195	-130.1872	-105.7771	-86.24902	-78.11232	-65.0936	0
538	-15.45973	-47.19286	-32.5468	29.29212	6.50936	-39.86983	-71.60296	-135.06922	-105.7771	-86.24902	-78.11232	-67.53461	0
539	-20.34175	-44.75185	-25.22377	31.73313	0.81367	-34.98781	-71.60296	-139.95124	-108.21811	-88.69003	-78.11232	-67.53461	0
540	-13.01872	-39.86983	-27.66478	24.4101	6.50936	-34.98781	-74.04397	-139.95124	-110.65912	-93.57205	-78.11232	-67.53461	0
541	-3.25468	-37.42882	-34.98781	19.52808	13.83239	-37.42882	-76.48498	-144.83326	-115.54114	-98.45407	-80.55333	-69.97562	0
542	-0.81367	-32.5468	-32.5468	14.64606	13.83239	-32.5468	-76.48498	-144.83326	-115.54114	-98.45407	-80.55333	-69.97562	0
543	-0.81367	-30.10579	-30.10579	14.64606	13.83239	-30.10579	-71.60296	-139.95124	-113.10013	-98.45407	-75.67131	-67.53461	0
544	7.32303	-30.10579	-37.42882	9.76404	21.15542	-32.5468	-71.60296	-135.06922	-110.65912	-96.01306	-78.11232	-67.53461	0
545	2.44101	-30.10579	-32.5468	12.20505	16.2734	-30.10579	-69.16195	-130.1872	-105.7771	-91.13104	-75.67131	-62.65259	0
546	-3.25468	-27.66478	-25.22377	14.64606	8.95037	-27.66478	-64.27993	-125.30518	-98.45407	-81.367	-70.78929	-60.21158	0
547	-10.57771	-25.22377	-15.45973	17.08707	0.81367	-20.34175	-61.83892	-122.86417	-91.13104	-76.48498	-68.34828	-55.32956	0
548	-17.90074	-20.34175	-2.44101	17.08707	-8.95037	-13.01872	-61.83892	-122.86417	-88.69003	-74.04397	-63.46626	-52.88855	0
549	-17.90074	-17.90074	0	17.08707	-11.39138	-10.57771	-61.83892	-127.74619	-91.13104	-74.04397	-63.46626	-50.44754	0
550	-15.45973	-13.01872	2.44101	12.20505	-11.39138	-4.88202	-61.83892	-127.74619	-93.57205	-76.48498	-61.02525	-48.00653	0
551	-20.34175	-13.01872	7.32303	14.64606	-16.2734	-2.44101	-59.39791	-127.74619	-96.01306	-78.92599	-61.02525	-48.00653	0
552	-13.01872	-13.01872	0	12.20505	-8.95037	-7.32303	-59.39791	-130.1872	-103.33609	-83.80801	-61.02525	-50.44754	0
553	-10.57771	-17.90074	-7.32303	12.20505	-4.06835	-13.01872	-56.9569	-127.74619	-105.7771	-86.24902	-63.46626	-52.88855	0
554	-5.69569	-20.34175	-15.45973	12.20505	3.25468	-17.90074	-52.07488	-125.30518	-105.7771	-88.69003	-68.34828	-55.32956	0
555	-3.25468	-20.34175	-17.90074	9.76404	6.50936	-20.34175	-44.75185	-122.86417	-108.21811	-93.57205	-75.67131	-62.65259	0
556	-3.25468	-22.78276	-20.34175	12.20505	6.50936	-22.78276	-34.98781	-122.86417	-110.65912	-98.45407	-87.87636	-72.41663	0
557	-8.1367	-17.90074	-10.57771	12.20505	-1.62734	-15.45973	-20.34175	-125.30518	-117.98215	-108.21811	-100.08141	-82.18067	0
558	-17.90074	0	17.08707	7.32303	-18.71441	7.32303	-3.25468	-132.62821	-127.74619	-122.86417	-107.40444	-89.5037	0
559	-27.66478	26.85111	53.70222	-0.81367	-40.6835	39.05616	21.96909	-142.39225	-139.95124	-139.95124	-117.16848	-91.94471	0
560	-44.75185	63.46626	107.40444	-10.57771	-77.29865	85.43535	51.26121	-147.27427	-149.71528	-149.71528	-117.16848	-89.5037	0
561	-56.9569	112.28646	168.42969	-27.66478	-113.9138	139.13757	80.55333	-157.03831	-161.92033	-157.03831	-112.28646	-77.29865	0
562	-66.72094	170.8707	236.77797	-52.07488	-152.96996	202.60383	107.40444	-166.80235	-164.36134	-152.15629	-92.75838	-55.32956	0
563	-76.48498	236.77797	312.44928	-81.367	-194.46713	273.39312	131.81454	-166.80235	-147.27427	-127.74619	-56.14323	-21.15542	0
564	-88.69003	305.12625	393.00261	-108.21811	-240.84632	349.06443	158.66565	-161.92033	-120.42316	-81.367	-4.06835	33.36047	0
565	-96.01306	378.35655	473.55594	-142.39225	-284.7845	424.73574	175.75272	-152.15629	-81.367	-17.08707	66.72094	96.82673	0
566	-98.45407	456.46887	554.10927	-179.0074	-326.28167	505.28907	200.16282	-130.1872	-21.96909	70.78929	154.5973	174.93905	0
567	-91.13104	529.69917	620.01654	-220.50457	-355.57379	573.63735	227.01393	-93.57205	51.26121	175.75272	257.11972	260.3744	0
568	-96.01306	593.16543	688.36482	-249.79669	-392.18894	639.54462	258.74706	-43.93818	144.01959	297.80322	384.05224	358.0148	0
569	-88.69003	649.30866	737.18502	-281.52982	-414.15803	693.24684	290.48019	-2.44101	224.57292	412.53069	503.66173	458.09621	0
570	-69.16195	695.68785	764.03613	-313.26295	-416.59904	729.86199	310.00827	21.96909	270.95211	497.96604	603.74314	543.53156	0
571	-47.19286	722.53896	768.91815	-337.67305	-409.27601	744.50805	322.21332	24.4101	295.36221	558.99129	681.85546	616.76186	0
572	-25.22377	715.21593	739.62603	-344.99608	-382.4249	727.42098	322.21332	14.64606	302.68524	602.92947	742.88071	670.46408	0
573	-0.81367	678.60078	678.60078	-340.11406	-340.92773	678.60078	297.80322	-4.88202	300.24423	632.22159	786.81889	711.96125	0
574	34.17414	622.45755	588.28341	-327.90901	-277.46147	605.37048	256.30605	-29.29212	295.36221	656.63169	811.22899	738.81236	0
575	75.67131	549.22725	473.55594	-313.26295	-199.34915	512.6121	197.72181	-58.58424	288.03918	671.27775	823.43404	748.5764	0
576	119.60949	458.90988	339.30039	-288.85285	-111.47279	400.32564	126.93252	-74.04397	300.24423	700.56987	830.75707	751.01741	0
577	161.10666	366.1515	205.04484	-264.44275	-23.59643	285.59817	46.37919	-78.92599	324.65433	727.42098	833.19808	746.13539	0
578	200.16282	280.71615	80.55333	-240.03265	60.21158	180.63474	-37.42882	-88.69003	344.18241	737.18502	820.99303	729.04832	0
579	234.33696	205.04484	-30.10579	-220.50457	131.00087	87.87636	-122.86417	-108.21811	341.7414	717.65694	786.81889	697.31519	0
580	266.07009	148.90161	-117.98215	-208.29952	192.02612	17.08707	-210.74053	-142.39225	312.44928	668.83674	735.55768	660.70004	0
581	288.03918	102.52242	-186.33043	-196.09447	235.9643	-42.31084	-308.38093	-198.53548	251.42403	585.8424	652.56334	602.1158	0
582	290.48019	68.34828	-222.94558	-179.0074	255.49238	-76.48498	-393.81628	-269.32477	163.54767	471.11493	545.1589	526.44449	0
583	290.48019	34.17414	-257.11972	-161.92033	272.57945	-110.65912	-467.04658	-349.8781	58.58424	331.97736	415.78537	428.80409	0
584	280.71615	0	-281.52982	-139.95124	279.90248	-139.95124	-532.95385	-430.43143	-51.26121	190.39878	274.20679	323.84066	0
585	270.95211	-34.98781	-305.93992	-117.98215	287.22551	-169.24336	-598.86112	-501.22072	-154.5973	51.26121	135.06922	216.43622	0
586	270.95211	-83.80801	-354.76012	-93.57205	311.63561	-218.06356	-667.2094	-559.80496	-249.79669	-76.48498	-4.06835	106.59077	0
587	258.74706	-137.51023	-396.25729	-61.83892	326.28167	-266.88376	-716.0296	-601.30213	-332.79103	-200.97649	-136.69656	-5.69569	0
588	241.65999	-188.77144	-430.43143	-27.66478	333.6047	-308.38093	-733.11667	-623.27122	-403.58032	-315.70396	-256.30605	-109.03178	0
589	229.45494	-237.59164	-467.04658	4.06835	345.80975	-352.31911	-737.99869	-625.71223	-457.28254	-413.34436	-358.82847	-196.90814	0
590	219.6909	-283.97083	-503.66173	31.73313	360.45581	-393.81628	-725.79364	-615.94819	-503.66173	-498.77971	-441.82281	-272.57945	0
591	209.92686	-318.14497	-528.07183	53.70222	367.77884	-423.1084	-696.50152	-598.86112	-545.1589	-567.12799	-512.6121	-333.6047	0
592	183.07575	-337.67305	-520.7488	75.67131	350.69177	-427.99042	-640.35829	-586.65607	-579.33304	-628.15324	-568.75533	-387.30692	0
593	156.22464	-352.31911	-508.54375	97.6404	331.16369	-430.43143	-567.12799	-574.45102	-613.50718	-679.41445	-615.13452	-433.68611	0
594	134.25555	-359.64214	-493.89769	112.28646	311.63561	-425.54941	-498.77971	-569.569	-640.35829	-713.58859	-649.30866	-467.86025	0
595	109.84545	-359.64214	-469.48759	124.49151	287.22551	-413.34436	-435.31345	-569.569	-662.32738	-737.99869	-673.71876	-492.27035	0
596	82.99434	-357.20113	-440.19547	136.69656	260.3744	-398.6983	-371.84719	-564.68698	-674.53243	-747.76273	-685.92381	-511.79843	0
597	48.8202	-349.8781	-398.6983	148.90161	221.31824	-374.2882	-310.82194	-559.80496	-676.97344	-750.20374	-688.36482	-524.00348	0
598	9.76404	-340.11406	-349.8781	163.54767	177.38006	-344.99608	-254.67871	-552.48193	-674.53243	-747.76273	-685.92381	-533.76752	0
599	-22.78276	-327.90901	-305.93992	173.31171	140.76491	-318.14497	-200.97649	-542.71789	-669.65041	-742.88071	-678.60078	-533.76752	0
600	-56.9569	-315.70396	-259.56073	185.51676	99.26774	-288.85285	-149.71528	-532.95385	-664.76839	-737.99869	-668.83674	-533.76752	0
601	-98.45407	-305.93992	-208.29952	200.16282	52.88855	-257.11972	-98.45407	-520.7488	-657.44536	-730.67566	-656.63169	-528.8855	0
602	-142.39225	-296.17588	-154.5973	217.24989	3.25468	-225.38659	-47.19286	-506.10274	-650.12233	-720.91162	-641.98563	-521.56247	0
603	-174.12538	-286.41184	-113.10013	229.45494	-33.36047	-200.97649	-5.69569	-493.89769	-640.35829	-713.58859	-629.78058	-514.23944	0
604	-198.53548	-279.08881	-81.367	236.77797	-60.21158	-181.44841	29.29212	-484.13365	-628.15324	-701.38354	-620.01654	-504.4754	0
605	-227.8276	-271.76578	-44.75185	248.98302	-94.38572	-159.47932	58.58424	-471.9286	-613.50718	-679.41445	-600.48846	-487.38833	0
606	-249.79669	-262.00174	-13.01872	253.86504	-121.23683	-137.51023	82.99434	-459.72355	-591.53809	-655.00435	-578.51937	-467.86025	0
607	-262.00174	-252.2377	9.76404	256.30605	-138.3239	-122.86417	100.08141	-452.40052	-574.45102	-633.03526	-558.99129	-453.21419	0
608	-266.88376	-237.59164	29.29212	251.42403	-150.52895	-105.7771	109.84545	-447.5185	-554.92294	-611.06617	-537.0222	-438.56813	0
609	-266.88376	-222.94558	43.93818	244.101	-157.85198	-91.13104	122.0505	-440.19547	-540.27688	-591.53809	-515.05311	-421.48106	0
610	-262.00174	-210.74053	51.26121	234.33696	-157.85198	-81.367	131.81454	-425.54941	-523.18981	-572.01001	-490.64301	-404.39399	0
611	-252.2377	-200.97649	51.26121	224.57292	-152.96996	-76.48498	134.25555	-415.78537	-510.98476	-554.92294	-473.55594	-389.74793	0
612	-237.59164	-191.21245	46.37919	212.36787	-143.20592	-74.04397	141.57858	-403.58032	-496.3387	-537.83587	-456.46887	-379.98389	0
613	-230.26861	-186.33043	43.93818	207.48585	-138.3239	-71.60296	151.34262	-384.05224	-476.81062	-520.7488	-436.94079	-365.33783	0
614	-222.94558	-181.44841	41.49717	200.16282	-133.44188	-71.60296	156.22464	-362.08315	-457.28254	-501.22072	-422.29473	-350.69177	0
615	-215.62255	-181.44841	34.17414	197.72181	-126.11885	-74.04397	156.22464	-344.99608	-440.19547	-484.13365	-407.64867	-340.92773	0
616	-200.97649	-183.88942	17.08707	190.39878	-111.47279	-83.80801	153.78363	-332.79103	-425.54941	-467.04658	-397.88463	-333.6047	0
617	-193.65346	-181.44841	12.20505	185.51676	-104.14976	-86.24902	151.34262	-320.58598	-408.46234	-449.95951	-388.12059	-323.84066	0
618	-193.65346	-181.44841	12.20505	185.51676	-104.14976	-86.24902	151.34262	-310.82194	-393.81628	-440.19547	-378.35655	-316.51763	0
619	-188.77144	-183.88942	4.88202	185.51676	-99.26774	-91.13104	148.90161	-303.49891	-386.49325	-432.87244	-368.59251	-309.1946	0
620	-179.0074	-186.33043	-7.32303	180.63474	-87.06269	-98.45407	144.01959	-296.17588	-381.61123	-427.99042	-363.71049	-306.75359	0
621	-183.88942	-188.77144	-4.88202	185.51676	-91.94471	-98.45407	148.90161	-283.97083	-371.84719	-418.22638	-353.94645	-296.98955	0
622	-181.44841	-191.21245	-10.57771	185.51676	-87.06269	-100.89508	151.34262	-271.76578	-364.52416	-413.34436	-344.18241	-292.10753	0
623	-176.56639	-196.09447	-20.34175	185.51676	-79.73966	-108.21811	153.78363	-254.67871	-354.76012	-406.02133	-334.41837	-287.22551	0
624	-169.24336	-200.97649	-32.5468	183.07575	-69.97562	-117.98215	153.78363	-242.47366	-344.99608	-396.25729	-331.97736	-282.34349	0
625	-159.47932	-200.97649	-42.31084	178.19373	-60.21158	-122.86417	151.34262	-227.8276	-335.23204	-386.49325	-327.09534	-277.46147	0
626	-144.83326	-203.4175	-59.39791	173.31171	-45.56552	-132.62821	148.90161	-220.50457	-327.90901	-376.72921	-324.65433	-277.46147	0
627	-137.51023	-203.4175	-66.72094	168.42969	-38.24249	-135.06922	144.01959	-213.18154	-318.14497	-371.84719	-324.65433	-277.46147	0
628	-127.74619	-200.97649	-74.04397	163.54767	-28.47845	-137.51023	144.01959	-208.29952	-310.82194	-366.96517	-319.77231	-277.46147	0
629	-130.1872	-196.09447	-66.72094	161.10666	-33.36047	-132.62821	144.01959	-203.4175	-303.49891	-362.08315	-312.44928	-272.57945	0
630	-132.62821	-193.65346	-61.83892	161.10666	-38.24249	-127.74619	151.34262	-191.21245	-296.17588	-357.20113	-305.12625	-265.25642	0
631	-130.1872	-193.65346	-64.27993	161.10666	-35.80148	-130.1872	153.78363	-183.88942	-291.29386	-354.76012	-300.24423	-265.25642	0
632	-137.51023	-193.65346	-56.9569	163.54767	-43.12451	-125.30518	161.10666	-171.68437	-281.52982	-349.8781	-292.9212	-260.3744	0
633	-139.95124	-198.53548	-59.39791	168.42969	-43.12451	-130.1872	168.42969	-157.03831	-271.76578	-344.99608	-288.03918	-257.93339	0
634	-132.62821	-203.4175	-71.60296	165.98868	-33.36047	-137.51023	173.31171	-147.27427	-264.44275	-342.55507	-288.03918	-257.93339	0
635	-130.1872	-205.85851	-76.48498	165.98868	-28.47845	-142.39225	175.75272	-137.51023	-257.11972	-337.67305	-288.03918	-257.93339	0
636	-127.74619	-210.74053	-83.80801	168.42969	-23.59643	-147.27427	178.19373	-130.1872	-249.79669	-327.90901	-288.03918	-257.93339	0
637	-127.74619	-213.18154	-86.24902	168.42969	-23.59643	-149.71528	180.63474	-122.86417	-240.03265	-323.02699	-288.03918	-255.49238	0
638	-127.74619	-210.74053	-83.80801	168.42969	-23.59643	-147.27427	180.63474	-117.98215	-232.70962	-318.14497	-283.15716	-253.05137	0
639	-127.74619	-208.29952	-81.367	165.98868	-26.03744	-144.83326	185.51676	-113.10013	-227.8276	-313.26295	-278.27514	-248.16935	0
640	-122.86417	-205.85851	-83.80801	163.54767	-21.15542	-144.83326	187.95777	-103.33609	-222.94558	-310.82194	-270.95211	-243.28733	0
641	-125.30518	-203.4175	-78.92599	163.54767	-26.03744	-142.39225	192.83979	-96.01306	-218.06356	-305.93992	-266.07009	-238.40531	0
642	-120.42316	-200.97649	-81.367	158.66565	-21.15542	-142.39225	195.2808	-86.24902	-213.18154	-301.0579	-258.74706	-238.40531	0
643	-113.10013	-200.97649	-88.69003	156.22464	-13.83239	-144.83326	197.72181	-71.60296	-205.85851	-301.0579	-258.74706	-238.40531	0
644	-113.10013	-203.4175	-91.13104	156.22464	-13.83239	-147.27427	202.60383	-58.58424	-196.09447	-293.73487	-256.30605	-238.40531	0
645	-105.7771	-203.4175	-98.45407	153.78363	-6.50936	-152.15629	202.60383	-51.26121	-191.21245	-288.85285	-258.74706	-238.40531	0
646	-96.01306	-205.85851	-110.65912	148.90161	6.50936	-159.47932	202.60383	-43.93818	-183.88942	-283.97083	-258.74706	-240.84632	0
647	-88.69003	-208.29952	-120.42316	146.4606	13.83239	-164.36134	197.72181	-36.61515	-176.56639	-281.52982	-263.62908	-245.72834	0
648	-86.24902	-205.85851	-120.42316	144.01959	16.2734	-164.36134	197.72181	-34.17414	-174.12538	-279.08881	-263.62908	-248.16935	0
649	-93.57205	-203.4175	-110.65912	146.4606	6.50936	-157.03831	200.16282	-29.29212	-166.80235	-276.6478	-258.74706	-245.72834	0
650	-105.7771	-203.4175	-98.45407	153.78363	-6.50936	-152.15629	207.48585	-14.64606	-157.03831	-269.32477	-248.98302	-238.40531	0
651	-113.10013	-200.97649	-88.69003	156.22464	-13.83239	-144.83326	212.36787	-2.44101	-149.71528	-262.00174	-241.65999	-233.52329	0
652	-120.42316	-200.97649	-81.367	158.66565	-21.15542	-142.39225	219.6909	14.64606	-139.95124	-257.11972	-231.89595	-228.64127	0
653	-125.30518	-200.97649	-76.48498	161.10666	-26.03744	-139.95124	227.01393	31.73313	-127.74619	-252.2377	-224.57292	-223.75925	0
654	-132.62821	-203.4175	-71.60296	165.98868	-33.36047	-137.51023	236.77797	56.14323	-108.21811	-235.15063	-214.80888	-213.99521	0
655	-127.74619	-203.4175	-76.48498	163.54767	-28.47845	-139.95124	239.21898	70.78929	-96.01306	-227.8276	-212.36787	-211.5542	0
656	-108.21811	-205.85851	-98.45407	156.22464	-6.50936	-152.15629	234.33696	80.55333	-86.24902	-218.06356	-209.92686	-211.5542	0
657	-91.13104	-203.4175	-113.10013	146.4606	8.95037	-159.47932	231.89595	87.87636	-76.48498	-210.74053	-212.36787	-213.99521	0
658	-83.80801	-203.4175	-120.42316	141.57858	16.2734	-161.92033	229.45494	95.19939	-66.72094	-205.85851	-207.48585	-216.43622	0
659	-91.13104	-200.97649	-110.65912	144.01959	8.95037	-157.03831	234.33696	107.40444	-56.14323	-196.09447	-197.72181	-211.5542	0
660	-83.80801	-200.97649	-117.98215	141.57858	16.2734	-159.47932	231.89595	119.60949	-48.8202	-191.21245	-192.83979	-209.11319	0
661	-81.367	-198.53548	-117.98215	139.13757	16.2734	-159.47932	234.33696	134.25555	-39.05616	-183.88942	-183.07575	-206.67218	0
662	-86.24902	-198.53548	-113.10013	141.57858	11.39138	-157.03831	239.21898	153.78363	-21.96909	-174.12538	-170.8707	-199.34915	0
663	-93.57205	-203.4175	-110.65912	146.4606	6.50936	-157.03831	246.54201	180.63474	0	-157.03831	-158.66565	-187.1441	0
664	-91.13104	-203.4175	-113.10013	146.4606	8.95037	-159.47932	253.86504	207.48585	21.96909	-137.51023	-148.90161	-170.05703	0
665	-86.24902	-200.97649	-115.54114	141.57858	13.83239	-159.47932	256.30605	234.33696	43.93818	-115.54114	-134.25555	-155.41097	0
666	-83.80801	-200.97649	-117.98215	141.57858	16.2734	-159.47932	258.74706	258.74706	70.78929	-88.69003	-122.0505	-143.20592	0
667	-83.80801	-198.53548	-115.54114	139.13757	13.83239	-157.03831	261.18807	280.71615	97.6404	-66.72094	-109.84545	-133.44188	0
668	-76.48498	-191.21245	-115.54114	131.81454	18.71441	-154.5973	261.18807	297.80322	122.0505	-49.63387	-97.6404	-133.44188	0
669	-66.72094	-186.33043	-120.42316	124.49151	26.03744	-154.5973	261.18807	317.3313	144.01959	-31.73313	-82.99434	-133.44188	0
670	-59.39791	-181.44841	-122.86417	119.60949	30.91946	-152.15629	261.18807	341.7414	165.98868	-17.08707	-65.90727	-131.00087	0
671	-56.9569	-179.0074	-122.86417	117.16848	30.91946	-152.15629	263.62908	363.71049	190.39878	0	-48.8202	-128.55986	0
672	-52.07488	-176.56639	-125.30518	112.28646	35.80148	-152.15629	266.07009	390.5616	214.80888	19.52808	-30.91946	-121.23683	0
673	-42.31084	-176.56639	-135.06922	107.40444	45.56552	-157.03831	270.95211	422.29473	244.101	41.49717	-11.39138	-109.03178	0
674	-39.86983	-179.0074	-139.95124	107.40444	48.00653	-159.47932	278.27514	458.90988	280.71615	73.2303	13.01872	-89.5037	0
675	-44.75185	-179.0074	-135.06922	109.84545	43.12451	-157.03831	280.71615	493.08402	314.89029	109.84545	37.42882	-67.53461	0
676	-37.42882	-179.0074	-142.39225	107.40444	50.44754	-161.92033	283.15716	527.25816	353.94645	151.34262	59.39791	-48.00653	0
677	-32.5468	-171.68437	-139.95124	100.08141	52.88855	-157.03831	285.59817	558.99129	390.5616	190.39878	83.80801	-28.47845	0
678	-22.78276	-166.80235	-144.83326	92.75838	60.21158	-157.03831	285.59817	588.28341	427.17675	222.13191	108.21811	-13.83239	0
679	-17.90074	-159.47932	-142.39225	87.87636	60.21158	-152.15629	283.15716	615.13452	458.90988	253.86504	135.06922	1.62734	0
680	-15.45973	-154.5973	-139.95124	82.99434	60.21158	-147.27427	283.15716	646.86765	495.52503	283.15716	164.36134	21.15542	0
681	-3.25468	-149.71528	-147.27427	75.67131	69.97562	-149.71528	280.71615	676.15977	527.25816	310.00827	188.77144	35.80148	0
682	-0.81367	-142.39225	-142.39225	70.78929	69.97562	-142.39225	283.15716	710.33391	563.87331	341.7414	220.50457	57.77057	0
683	12.20505	-139.95124	-152.15629	63.46626	79.73966	-144.83326	283.15716	744.50805	600.48846	373.47453	249.79669	77.29865	0
684	24.4101	-135.06922	-159.47932	53.70222	89.5037	-147.27427	280.71615	781.1232	639.54462	410.08968	276.6478	96.82673	0
685	31.73313	-127.74619	-159.47932	46.37919	94.38572	-142.39225	278.27514	815.29734	681.04179	451.58685	308.38093	118.79582	0
686	43.93818	-120.42316	-164.36134	36.61515	101.70875	-142.39225	273.39312	844.58946	720.09795	495.52503	335.23204	138.3239	-1250	T-0
687	53.70222	-108.21811	-161.92033	26.85111	106.59077	-135.06922	270.95211	873.88158	759.15411	539.46321	364.52416	157.85198	0
688	70.78929	-96.01306	-166.80235	12.20505	116.35481	-130.1872	263.62908	893.40966	790.88724	571.19634	391.37527	172.49804	0
689	85.43535	-83.80801	-169.24336	-0.81367	126.11885	-125.30518	256.30605	910.49673	817.73835	600.48846	418.22638	189.58511	0
690	95.19939	-74.04397	-169.24336	-10.57771	131.00087	-120.42316	251.42403	934.90683	847.03047	627.33957	445.07749	209.11319	0
691	95.19939	-61.83892	-157.03831	-17.90074	123.67784	-108.21811	251.42403	956.87592	873.88158	656.63169	476.81062	231.08228	0
692	95.19939	-52.07488	-147.27427	-22.78276	118.79582	-98.45407	251.42403	981.28602	903.1737	688.36482	508.54375	257.93339	0
693	97.6404	-42.31084	-139.95124	-27.66478	116.35481	-91.13104	251.42403	1003.25511	932.46582	715.21593	535.39486	279.90248	0
694	102.52242	-34.98781	-137.51023	-34.98781	118.79582	-86.24902	251.42403	1027.66521	959.31693	746.94906	559.80496	304.31258	0
695	104.96343	-22.78276	-127.74619	-42.31084	113.9138	-74.04397	246.54201	1047.19329	988.60905	781.1232	589.09708	328.72268	0
696	107.40444	-10.57771	-117.98215	-49.63387	111.47279	-64.27993	241.65999	1061.83935	1015.46016	817.73835	613.50718	353.13278	0
697	112.28646	0	-113.10013	-56.9569	111.47279	-56.9569	231.89595	1069.16238	1037.42925	844.58946	635.47627	372.66086	0
698	124.49151	17.08707	-108.21811	-71.60296	116.35481	-44.75185	222.13191	1071.60339	1054.51632	866.55855	657.44536	387.30692	0
699	134.25555	34.17414	-100.89508	-83.80801	116.35481	-32.5468	212.36787	1071.60339	1064.28036	881.20461	676.97344	404.39399	0
700	151.34262	51.26121	-100.89508	-100.89508	126.11885	-25.22377	202.60383	1071.60339	1069.16238	890.96865	694.06051	416.59904	0
701	163.54767	65.90727	-98.45407	-115.54114	131.00087	-15.45973	190.39878	1066.72137	1069.16238	898.29168	708.70657	428.80409	0
702	173.31171	78.11232	-96.01306	-125.30518	133.44188	-7.32303	183.07575	1064.28036	1071.60339	905.61471	725.79364	445.89116	0
703	183.07575	90.31737	-93.57205	-137.51023	138.3239	0	175.75272	1061.83935	1074.0444	912.93774	740.4397	462.97823	0
704	195.2808	100.08141	-96.01306	-147.27427	145.64693	2.44101	168.42969	1056.95733	1071.60339	920.26077	745.32172	477.62429	0
705	185.51676	112.28646	-74.04397	-149.71528	128.55986	19.52808	163.54767	1052.07531	1071.60339	930.02481	757.52677	497.15237	0
706	180.63474	122.0505	-59.39791	-152.15629	118.79582	31.73313	156.22464	1042.31127	1069.16238	942.22986	764.8498	514.23944	0
707	173.31171	136.69656	-37.42882	-154.5973	104.14976	51.26121	146.4606	1027.66521	1064.28036	944.67087	767.29081	524.00348	0
708	168.42969	153.78363	-15.45973	-161.92033	91.94471	70.78929	136.69656	1008.13713	1054.51632	942.22986	769.73182	528.8855	0
709	168.42969	173.31171	4.88202	-171.68437	82.18067	90.31737	129.37353	983.72703	1039.87026	934.90683	772.17283	528.8855	0
710	165.98868	187.95777	21.96909	-176.56639	72.41663	104.96343	119.60949	959.31693	1020.34218	920.26077	772.17283	526.44449	0
711	170.8707	202.60383	31.73313	-186.33043	69.97562	117.16848	107.40444	932.46582	995.93208	903.1737	764.8498	521.56247	0
712	183.07575	214.80888	31.73313	-198.53548	74.85764	124.49151	95.19939	903.1737	966.63996	883.64562	757.52677	516.68045	0
713	187.95777	227.01393	39.05616	-208.29952	74.85764	134.25555	87.87636	878.7636	942.22986	866.55855	752.64475	516.68045	0
714	187.95777	236.77797	48.8202	-213.18154	69.97562	144.01959	82.99434	856.79451	920.26077	851.91249	745.32172	524.00348	0
715	183.07575	244.101	61.02525	-213.18154	60.21158	153.78363	73.2303	827.50239	890.96865	832.38441	733.11667	528.8855	0
716	187.95777	248.98302	61.02525	-218.06356	62.65259	156.22464	61.02525	793.32825	861.67653	815.29734	718.47061	528.8855	0
717	187.95777	261.18807	73.2303	-225.38659	57.77057	168.42969	51.26121	759.15411	834.82542	795.76926	703.82455	528.8855	0
718	178.19373	273.39312	95.19939	-225.38659	40.6835	185.51676	43.93818	724.97997	805.5333	776.24118	694.06051	521.56247	0
719	163.54767	283.15716	119.60949	-222.94558	21.15542	202.60383	39.05616	685.92381	773.80017	749.39007	681.85546	514.23944	0
720	158.66565	288.03918	129.37353	-222.94558	13.83239	209.92686	31.73313	649.30866	737.18502	720.09795	664.76839	502.03439	0
721	158.66565	292.9212	134.25555	-225.38659	11.39138	214.80888	24.4101	612.69351	700.56987	688.36482	645.24031	487.38833	0
722	151.34262	300.24423	148.90161	-225.38659	0.81367	224.57292	24.4101	580.96038	666.39573	661.51371	630.59425	480.0653	0
723	139.13757	300.24423	161.10666	-220.50457	-11.39138	231.89595	24.4101	551.66826	634.6626	634.6626	611.06617	472.74227	0
724	134.25555	297.80322	163.54767	-215.62255	-16.2734	231.89595	21.96909	522.37614	605.37048	607.81149	589.09708	467.86025	0
725	126.93252	297.80322	170.8707	-213.18154	-23.59643	234.33696	14.64606	490.64301	573.63735	580.96038	567.12799	460.53722	0
726	129.37353	295.36221	165.98868	-213.18154	-18.71441	231.89595	8.95037	456.46887	541.90422	554.10927	540.27688	448.33217	0
727	129.37353	292.9212	163.54767	-210.74053	-18.71441	229.45494	1.62734	422.29473	510.17109	527.25816	513.42577	431.2451	0
728	129.37353	295.36221	165.98868	-213.18154	-18.71441	231.89595	-8.1367	383.23857	475.99695	495.52503	489.01567	409.27601	0
729	129.37353	292.9212	163.54767	-210.74053	-18.71441	229.45494	-15.45973	346.62342	439.3818	461.35089	464.60557	389.74793	0
730	122.0505	288.03918	165.98868	-205.85851	-23.59643	227.01393	-20.34175	314.89029	407.64867	432.05877	442.63648	372.66086	0
731	114.72747	280.71615	165.98868	-198.53548	-26.03744	224.57292	-20.34175	288.03918	375.91554	402.76665	420.66739	353.13278	0
732	109.84545	273.39312	163.54767	-191.21245	-28.47845	219.6909	-22.78276	261.18807	346.62342	373.47453	401.13931	338.48672	0
733	100.08141	263.62908	163.54767	-181.44841	-33.36047	214.80888	-25.22377	244.101	322.21332	346.62342	381.61123	326.28167	0
734	92.75838	248.98302	156.22464	-171.68437	-33.36047	202.60383	-22.78276	227.01393	300.24423	327.09534	359.64214	316.51763	0
735	75.67131	239.21898	163.54767	-157.03831	-45.56552	202.60383	-22.78276	212.36787	280.71615	310.00827	342.55507	309.1946	0
736	65.90727	227.01393	161.10666	-147.27427	-48.00653	195.2808	-25.22377	190.39878	261.18807	292.9212	320.58598	294.54854	0
737	73.2303	217.24989	144.01959	-144.83326	-35.80148	180.63474	-32.5468	163.54767	239.21898	270.95211	293.73487	272.57945	0
738	68.34828	207.48585	139.13757	-137.51023	-35.80148	173.31171	-37.42882	139.13757	217.24989	248.98302	274.20679	253.05137	0
739	58.58424	200.16282	141.57858	-130.1872	-43.12451	170.8707	-39.86983	117.16848	195.2808	227.01393	257.11972	233.52329	0
740	56.14323	187.95777	131.81454	-122.86417	-38.24249	161.10666	-42.31084	97.6404	173.31171	202.60383	240.03265	216.43622	0
741	56.14323	180.63474	124.49151	-117.98215	-35.80148	153.78363	-44.75185	80.55333	151.34262	180.63474	222.94558	199.34915	0
742	61.02525	170.8707	109.84545	-115.54114	-26.03744	141.57858	-47.19286	68.34828	131.81454	158.66565	208.29952	184.70309	0
743	63.46626	158.66565	95.19939	-110.65912	-16.2734	126.93252	-47.19286	56.14323	117.16848	141.57858	191.21245	174.93905	0
744	65.90727	146.4606	80.55333	-105.7771	-8.95037	114.72747	-47.19286	48.8202	102.52242	129.37353	176.56639	167.61602	0
745	65.90727	136.69656	70.78929	-100.89508	-4.06835	104.96343	-49.63387	39.05616	90.31737	119.60949	164.36134	160.29299	0
746	68.34828	126.93252	58.58424	-98.45407	3.25468	92.75838	-56.9569	24.4101	78.11232	112.28646	147.27427	150.52895	0
747	63.46626	117.16848	53.70222	-91.13104	3.25468	85.43535	-59.39791	12.20505	68.34828	102.52242	132.62821	138.3239	0
748	48.8202	109.84545	61.02525	-78.92599	-6.50936	85.43535	-61.83892	2.44101	61.02525	95.19939	125.30518	128.55986	0
749	36.61515	107.40444	70.78929	-71.60296	-18.71441	90.31737	-59.39791	-7.32303	51.26121	85.43535	120.42316	118.79582	0
750	31.73313	107.40444	75.67131	-69.16195	-23.59643	92.75838	-56.9569	-12.20505	41.49717	75.67131	113.10013	111.47279	0
751	39.05616	102.52242	63.46626	-71.60296	-13.83239	82.99434	-59.39791	-24.4101	29.29212	61.02525	103.33609	99.26774	0
752	41.49717	97.6404	56.14323	-69.16195	-8.95037	78.11232	-59.39791	-29.29212	17.08707	46.37919	96.01306	94.38572	0
753	26.85111	92.75838	65.90727	-59.39791	-21.15542	80.55333	-52.07488	-29.29212	17.08707	43.93818	96.01306	96.82673	0
754	26.85111	85.43535	58.58424	-56.9569	-16.2734	73.2303	-49.63387	-29.29212	12.20505	41.49717	88.69003	101.70875	0
755	26.85111	80.55333	53.70222	-54.51589	-13.83239	68.34828	-52.07488	-31.73313	4.88202	39.05616	83.80801	104.14976	0
756	34.17414	75.67131	41.49717	-54.51589	-4.06835	58.58424	-56.9569	-41.49717	0	39.05616	74.04397	101.70875	0
757	26.85111	73.2303	46.37919	-49.63387	-11.39138	61.02525	-56.9569	-46.37919	0	39.05616	69.16195	101.70875	0
758	12.20505	73.2303	61.02525	-42.31084	-26.03744	68.34828	-56.9569	-51.26121	0	39.05616	69.16195	96.82673	0
759	4.88202	75.67131	70.78929	-39.86983	-33.36047	73.2303	-54.51589	-58.58424	-2.44101	36.61515	66.72094	89.5037	0
760	7.32303	75.67131	68.34828	-42.31084	-30.91946	73.2303	-56.9569	-63.46626	-9.76404	26.85111	61.83892	77.29865	0
761	17.08707	73.2303	56.14323	-44.75185	-21.15542	65.90727	-56.9569	-68.34828	-14.64606	17.08707	56.9569	65.0936	0
762	21.96909	70.78929	48.8202	-47.19286	-13.83239	61.02525	-59.39791	-68.34828	-19.52808	9.76404	54.51589	57.77057	0
763	21.96909	65.90727	43.93818	-44.75185	-11.39138	56.14323	-56.9569	-65.90727	-19.52808	4.88202	52.07488	57.77057	0
764	21.96909	58.58424	36.61515	-39.86983	-8.95037	48.8202	-54.51589	-61.02525	-21.96909	4.88202	47.19286	65.0936	0
765	24.4101	51.26121	26.85111	-37.42882	-1.62734	39.05616	-59.39791	-61.02525	-21.96909	4.88202	42.31084	67.53461	0
766	24.4101	43.93818	19.52808	-34.98781	0.81367	31.73313	-61.83892	-61.02525	-21.96909	9.76404	37.42882	72.41663	0
767	17.08707	41.49717	24.4101	-30.10579	-4.06835	34.17414	-61.83892	-63.46626	-19.52808	9.76404	32.5468	72.41663	0
768	9.76404	41.49717	31.73313	-25.22377	-11.39138	36.61515	-61.83892	-63.46626	-17.08707	9.76404	30.10579	65.0936	0
769	-0.81367	43.93818	43.93818	-22.78276	-23.59643	43.93818	-59.39791	-65.90727	-19.52808	7.32303	30.10579	55.32956	0
770	2.44101	46.37919	43.93818	-25.22377	-21.15542	46.37919	-56.9569	-68.34828	-24.4101	0	27.66478	43.12451	0
771	2.44101	48.8202	46.37919	-25.22377	-23.59643	48.8202	-54.51589	-68.34828	-26.85111	-2.44101	27.66478	30.91946	0
772	2.44101	46.37919	43.93818	-25.22377	-21.15542	46.37919	-52.07488	-68.34828	-31.73313	-9.76404	27.66478	23.59643	0
773	2.44101	39.05616	36.61515	-20.34175	-18.71441	39.05616	-52.07488	-65.90727	-31.73313	-17.08707	25.22377	21.15542	0
774	7.32303	31.73313	24.4101	-20.34175	-8.95037	29.29212	-47.19286	-61.02525	-31.73313	-19.52808	20.34175	26.03744	0
775	12.20505	24.4101	12.20505	-17.90074	-1.62734	19.52808	-49.63387	-61.02525	-34.17414	-19.52808	17.90074	33.36047	0
776	4.88202	19.52808	14.64606	-13.01872	-6.50936	17.08707	-49.63387	-58.58424	-31.73313	-14.64606	17.90074	40.6835	0
777	-0.81367	12.20505	12.20505	-5.69569	-6.50936	12.20505	-49.63387	-58.58424	-29.29212	-12.20505	15.45973	40.6835	0
778	-0.81367	9.76404	9.76404	-5.69569	-6.50936	9.76404	-49.63387	-61.02525	-26.85111	-12.20505	15.45973	33.36047	0
779	-0.81367	17.08707	17.08707	-8.1367	-8.95037	17.08707	-44.75185	-63.46626	-26.85111	-12.20505	15.45973	26.03744	0
780	2.44101	21.96909	19.52808	-13.01872	-8.95037	21.96909	-39.86983	-61.02525	-29.29212	-12.20505	15.45973	16.2734	0
781	-3.25468	21.96909	24.4101	-10.57771	-13.83239	21.96909	-34.98781	-58.58424	-31.73313	-14.64606	15.45973	6.50936	0
782	-5.69569	19.52808	24.4101	-8.1367	-16.2734	21.96909	-32.5468	-56.14323	-31.73313	-17.08707	15.45973	-0.81367	0
783	-3.25468	19.52808	21.96909	-8.1367	-13.83239	19.52808	-27.66478	-48.8202	-29.29212	-21.96909	13.01872	-3.25468	0
784	-3.25468	14.64606	17.08707	-5.69569	-11.39138	14.64606	-22.78276	-41.49717	-26.85111	-21.96909	10.57771	-3.25468	0
785	-3.25468	9.76404	12.20505	-3.25468	-8.95037	9.76404	-22.78276	-36.61515	-24.4101	-24.4101	8.1367	-3.25468	0
786	-3.25468	2.44101	4.88202	-0.81367	-4.06835	2.44101	-22.78276	-36.61515	-21.96909	-21.96909	3.25468	-0.81367	0
787	-3.25468	0	2.44101	1.62734	-4.06835	0	-25.22377	-36.61515	-21.96909	-21.96909	0.81367	-0.81367	0
788	-3.25468	0	2.44101	1.62734	-4.06835	0	-27.66478	-39.05616	-19.52808	-19.52808	0.81367	-3.25468	0
789	-8.1367	0	7.32303	4.06835	-8.95037	2.44101	-27.66478	-43.93818	-21.96909	-19.52808	0.81367	-3.25468	0
790	-10.57771	2.44101	12.20505	4.06835	-11.39138	7.32303	-27.66478	-41.49717	-24.4101	-24.4101	3.25468	-3.25468	0
791	-13.01872	4.88202	17.08707	4.06835	-16.2734	9.76404	-25.22377	-39.05616	-24.4101	-24.4101	3.25468	-3.25468	0
792	-13.01872	7.32303	19.52808	1.62734	-16.2734	12.20505	-20.34175	-36.61515	-26.85111	-26.85111	5.69569	-3.25468	0
793	-20.34175	7.32303	26.85111	4.06835	-23.59643	17.08707	-13.01872	-29.29212	-21.96909	-29.29212	5.69569	-0.81367	0
794	-17.90074	0	17.08707	7.32303	-18.71441	7.32303	-8.1367	-21.96909	-19.52808	-31.73313	5.69569	-0.81367	0
795	-15.45973	0	14.64606	7.32303	-16.2734	7.32303	-5.69569	-17.08707	-17.08707	-34.17414	0.81367	-3.25468	0
796	-10.57771	-4.88202	4.88202	7.32303	-8.95037	0	-5.69569	-17.08707	-17.08707	-34.17414	-4.06835	-3.25468	0
797	-5.69569	-4.88202	0	4.06835	-4.06835	-2.44101	-5.69569	-19.52808	-17.08707	-31.73313	-8.95037	-3.25468	0
798	-10.57771	-2.44101	7.32303	4.06835	-8.95037	2.44101	-5.69569	-19.52808	-12.20505	-29.29212	-6.50936	-3.25468	0
799	-10.57771	4.88202	14.64606	1.62734	-13.83239	9.76404	-5.69569	-21.96909	-14.64606	-31.73313	-4.06835	-3.25468	0
800	-5.69569	12.20505	17.08707	-3.25468	-11.39138	14.64606	-8.1367	-21.96909	-17.08707	-34.17414	-4.06835	-5.69569	0
801	-8.1367	14.64606	21.96909	-3.25468	-16.2734	17.08707	-8.1367	-24.4101	-19.52808	-36.61515	-1.62734	-5.69569	0
802	-20.34175	12.20505	31.73313	4.06835	-26.03744	21.96909	-5.69569	-19.52808	-17.08707	-36.61515	0.81367	-3.25468	0
803	-20.34175	9.76404	29.29212	4.06835	-26.03744	19.52808	-5.69569	-19.52808	-17.08707	-46.37919	0.81367	-5.69569	0
804	-13.01872	4.88202	17.08707	4.06835	-16.2734	9.76404	-5.69569	-17.08707	-17.08707	-49.63387	-1.62734	-8.1367	0
805	-15.45973	-2.44101	12.20505	7.32303	-13.83239	4.88202	-5.69569	-14.64606	-17.08707	-49.63387	-6.50936	-11.39138	0
806	-15.45973	-10.57771	4.88202	12.20505	-11.39138	-2.44101	-5.69569	-14.64606	-14.64606	-46.37919	-13.83239	-11.39138	0
807	-22.78276	-10.57771	12.20505	14.64606	-18.71441	0	-5.69569	-17.08707	-14.64606	-43.93818	-18.71441	-11.39138	0
808	-22.78276	-10.57771	12.20505	14.64606	-18.71441	0	-8.1367	-19.52808	-14.64606	-41.49717	-18.71441	-11.39138	0
809	-27.66478	-2.44101	24.4101	14.64606	-26.03744	9.76404	-10.57771	-24.4101	-17.08707	-41.49717	-18.71441	-11.39138	0
810	-34.98781	4.88202	39.05616	14.64606	-38.24249	21.96909	-10.57771	-24.4101	-19.52808	-41.49717	-16.2734	-13.83239	0
811	-34.98781	9.76404	43.93818	12.20505	-40.6835	26.85111	-10.57771	-26.85111	-24.4101	-41.49717	-16.2734	-13.83239	0
812	-34.98781	12.20505	46.37919	9.76404	-40.6835	29.29212	-8.1367	-29.29212	-26.85111	-46.37919	-13.83239	-13.83239	0
813	-37.42882	17.08707	53.70222	9.76404	-45.56552	34.17414	-5.69569	-24.4101	-21.96909	-49.63387	-8.95037	-13.83239	0
814	-44.75185	12.20505	56.14323	14.64606	-50.44754	34.17414	1.62734	-14.64606	-14.64606	-49.63387	-6.50936	-11.39138	0
815	-44.75185	12.20505	56.14323	14.64606	-50.44754	34.17414	4.06835	-12.20505	-14.64606	-49.63387	-6.50936	-11.39138	0
816	-47.19286	7.32303	53.70222	19.52808	-50.44754	29.29212	6.50936	-9.76404	-9.76404	-43.93818	-6.50936	-5.69569	0
817	-47.19286	7.32303	53.70222	19.52808	-50.44754	29.29212	8.95037	-9.76404	-7.32303	-36.61515	-8.95037	-0.81367	0
818	-49.63387	4.88202	53.70222	21.96909	-52.88855	29.29212	6.50936	-9.76404	-2.44101	-31.73313	-6.50936	1.62734	0
819	-49.63387	9.76404	58.58424	19.52808	-55.32956	34.17414	4.06835	-17.08707	-4.88202	-29.29212	-6.50936	1.62734	0
820	-39.86983	12.20505	51.26121	12.20505	-45.56552	31.73313	-0.81367	-19.52808	-12.20505	-29.29212	-8.95037	-3.25468	0
821	-37.42882	17.08707	53.70222	9.76404	-45.56552	34.17414	-0.81367	-21.96909	-14.64606	-29.29212	-8.95037	-3.25468	0
822	-32.5468	21.96909	53.70222	4.06835	-43.12451	36.61515	-0.81367	-24.4101	-17.08707	-29.29212	-6.50936	-5.69569	0
823	-30.10579	26.85111	56.14323	1.62734	-43.12451	41.49717	-0.81367	-24.4101	-17.08707	-34.17414	-6.50936	-8.1367	0
824	-20.34175	26.85111	46.37919	-3.25468	-33.36047	36.61515	1.62734	-21.96909	-14.64606	-39.05616	-8.95037	-11.39138	0
825	-20.34175	26.85111	46.37919	-3.25468	-33.36047	36.61515	1.62734	-19.52808	-12.20505	-39.05616	-8.95037	-11.39138	0
826	-25.22377	26.85111	51.26121	-0.81367	-38.24249	39.05616	4.06835	-17.08707	-7.32303	-31.73313	-8.95037	-8.1367	0
827	-27.66478	21.96909	48.8202	1.62734	-38.24249	34.17414	4.06835	-19.52808	-4.88202	-29.29212	-11.39138	-5.69569	0
828	-25.22377	19.52808	43.93818	1.62734	-35.80148	31.73313	-3.25468	-24.4101	-4.88202	-29.29212	-13.83239	-5.69569	0
829	-25.22377	21.96909	46.37919	1.62734	-35.80148	34.17414	-8.1367	-31.73313	-9.76404	-26.85111	-13.83239	-5.69569	0
830	-27.66478	24.4101	51.26121	1.62734	-40.6835	36.61515	-13.01872	-31.73313	-12.20505	-24.4101	-11.39138	-3.25468	0
831	-27.66478	26.85111	53.70222	-0.81367	-40.6835	39.05616	-17.90074	-39.05616	-19.52808	-21.96909	-11.39138	-3.25468	0
832	-25.22377	29.29212	53.70222	-3.25468	-40.6835	41.49717	-22.78276	-46.37919	-24.4101	-29.29212	-11.39138	-5.69569	0
833	-22.78276	26.85111	48.8202	-3.25468	-35.80148	36.61515	-27.66478	-51.26121	-29.29212	-36.61515	-11.39138	-8.1367	0
834	-15.45973	26.85111	41.49717	-5.69569	-28.47845	34.17414	-27.66478	-51.26121	-29.29212	-43.93818	-11.39138	-11.39138	0
835	-17.90074	24.4101	41.49717	-3.25468	-30.91946	31.73313	-25.22377	-48.8202	-29.29212	-43.93818	-13.83239	-11.39138	0
836	-22.78276	21.96909	43.93818	-0.81367	-33.36047	31.73313	-20.34175	-51.26121	-29.29212	-41.49717	-18.71441	-11.39138	0
837	-25.22377	19.52808	43.93818	1.62734	-35.80148	31.73313	-20.34175	-53.70222	-31.73313	-41.49717	-23.59643	-11.39138	0
838	-27.66478	14.64606	41.49717	4.06835	-35.80148	26.85111	-20.34175	-53.70222	-26.85111	-36.61515	-21.15542	-8.1367	0
839	-34.98781	17.08707	51.26121	7.32303	-43.12451	34.17414	-20.34175	-56.14323	-26.85111	-36.61515	-21.15542	-8.1367	0
840	-39.86983	19.52808	58.58424	9.76404	-50.44754	39.05616	-22.78276	-53.70222	-31.73313	-34.17414	-18.71441	-8.1367	0
841	-47.19286	21.96909	68.34828	12.20505	-57.77057	43.93818	-25.22377	-56.14323	-34.17414	-29.29212	-18.71441	-11.39138	0
842	-54.51589	24.4101	78.11232	14.64606	-67.53461	51.26121	-25.22377	-53.70222	-34.17414	-29.29212	-13.83239	-11.39138	0
843	-52.07488	24.4101	75.67131	12.20505	-65.0936	48.8202	-27.66478	-56.14323	-36.61515	-34.17414	-11.39138	-11.39138	0
844	-44.75185	21.96909	65.90727	9.76404	-55.32956	43.93818	-30.10579	-58.58424	-39.05616	-41.49717	-16.2734	-18.71441	0
845	-32.5468	19.52808	51.26121	4.06835	-43.12451	34.17414	-32.5468	-63.46626	-46.37919	-46.37919	-26.03744	-26.03744	0
846	-34.98781	14.64606	48.8202	9.76404	-43.12451	31.73313	-30.10579	-63.46626	-46.37919	-41.49717	-28.47845	-23.59643	0
847	-27.66478	12.20505	39.05616	7.32303	-33.36047	24.4101	-30.10579	-71.60296	-48.8202	-43.93818	-34.17414	-26.03744	0
848	-0.81367	9.76404	9.76404	-5.69569	-6.50936	9.76404	-42.31084	-81.367	-61.02525	-52.07488	-43.93818	-35.80148	0
849	17.08707	12.20505	-4.88202	-15.45973	11.39138	4.88202	-52.07488	-96.01306	-66.72094	-59.39791	-51.26121	-43.12451	0
850	19.52808	14.64606	-4.88202	-17.90074	11.39138	4.88202	-56.9569	-98.45407	-74.04397	-59.39791	-53.70222	-43.12451	0
851	7.32303	17.08707	9.76404	-13.01872	-1.62734	14.64606	-54.51589	-98.45407	-76.48498	-54.51589	-48.8202	-40.6835	0
852	2.44101	21.96909	19.52808	-13.01872	-8.95037	21.96909	-54.51589	-98.45407	-76.48498	-52.07488	-43.93818	-38.24249	0
853	12.20505	24.4101	12.20505	-17.90074	-1.62734	19.52808	-59.39791	-105.7771	-81.367	-61.83892	-43.93818	-43.12451	0
854	-0.81367	21.96909	21.96909	-10.57771	-11.39138	21.96909	-54.51589	-100.89508	-76.48498	-64.27993	-39.05616	-40.6835	0
855	-10.57771	19.52808	29.29212	-5.69569	-21.15542	24.4101	-49.63387	-96.01306	-71.60296	-61.83892	-39.05616	-38.24249	0
856	-15.45973	17.08707	31.73313	-0.81367	-23.59643	24.4101	-47.19286	-96.01306	-71.60296	-61.83892	-43.93818	-38.24249	0
857	-17.90074	12.20505	29.29212	1.62734	-23.59643	19.52808	-47.19286	-100.89508	-71.60296	-61.83892	-48.8202	-38.24249	0
858	-15.45973	7.32303	21.96909	4.06835	-18.71441	14.64606	-52.07488	-108.21811	-74.04397	-66.72094	-51.26121	-38.24249	0
859	-20.34175	4.88202	24.4101	7.32303	-23.59643	14.64606	-56.9569	-113.10013	-78.92599	-69.16195	-51.26121	-40.6835	0
860	-25.22377	4.88202	29.29212	9.76404	-28.47845	17.08707	-56.9569	-113.10013	-83.80801	-66.72094	-51.26121	-40.6835	0
861	-22.78276	7.32303	29.29212	7.32303	-26.03744	17.08707	-61.83892	-120.42316	-91.13104	-66.72094	-51.26121	-43.12451	0
862	-25.22377	9.76404	34.17414	7.32303	-30.91946	21.96909	-61.83892	-120.42316	-93.57205	-66.72094	-48.8202	-43.12451	0
863	-27.66478	12.20505	39.05616	7.32303	-33.36047	24.4101	-61.83892	-120.42316	-93.57205	-71.60296	-43.93818	-43.12451	0
864	-22.78276	12.20505	34.17414	4.06835	-28.47845	21.96909	-61.83892	-117.98215	-91.13104	-74.04397	-43.93818	-43.12451	0
865	-20.34175	14.64606	34.17414	1.62734	-28.47845	24.4101	-59.39791	-115.54114	-91.13104	-74.04397	-46.37919	-43.12451	0
866	-15.45973	12.20505	26.85111	1.62734	-21.15542	19.52808	-59.39791	-117.98215	-91.13104	-74.04397	-51.26121	-40.6835	0
867	-13.01872	12.20505	24.4101	-0.81367	-18.71441	17.08707	-56.9569	-122.86417	-93.57205	-74.04397	-56.14323	-38.24249	0
868	-8.1367	9.76404	17.08707	-0.81367	-13.83239	12.20505	-61.83892	-127.74619	-93.57205	-74.04397	-58.58424	-38.24249	0
869	-3.25468	12.20505	14.64606	-5.69569	-8.95037	12.20505	-66.72094	-135.06922	-98.45407	-76.48498	-61.02525	-38.24249	0
870	2.44101	12.20505	9.76404	-8.1367	-4.06835	12.20505	-71.60296	-142.39225	-108.21811	-78.92599	-65.90727	-43.12451	0
871	9.76404	14.64606	4.88202	-13.01872	0.81367	9.76404	-78.92599	-149.71528	-115.54114	-81.367	-68.34828	-45.56552	0
872	9.76404	17.08707	7.32303	-13.01872	0.81367	12.20505	-78.92599	-149.71528	-120.42316	-81.367	-65.90727	-45.56552	0
873	12.20505	19.52808	7.32303	-15.45973	0.81367	14.64606	-81.367	-149.71528	-120.42316	-88.69003	-63.46626	-48.00653	0
874	9.76404	17.08707	7.32303	-13.01872	0.81367	12.20505	-78.92599	-149.71528	-117.98215	-93.57205	-61.02525	-48.00653	0
875	2.44101	14.64606	12.20505	-8.1367	-6.50936	14.64606	-76.48498	-144.83326	-117.98215	-93.57205	-61.02525	-48.00653	0
876	-0.81367	9.76404	9.76404	-5.69569	-6.50936	9.76404	-71.60296	-144.83326	-115.54114	-91.13104	-63.46626	-45.56552	0
877	2.44101	9.76404	7.32303	-5.69569	-4.06835	9.76404	-71.60296	-147.27427	-115.54114	-88.69003	-65.90727	-45.56552	0
878	4.88202	4.88202	0	-5.69569	0.81367	2.44101	-74.04397	-152.15629	-115.54114	-88.69003	-65.90727	-43.12451	0
879	9.76404	7.32303	-2.44101	-8.1367	6.50936	2.44101	-78.92599	-159.47932	-122.86417	-91.13104	-70.78929	-45.56552	0
880	12.20505	9.76404	-2.44101	-10.57771	6.50936	4.88202	-81.367	-164.36134	-127.74619	-91.13104	-73.2303	-48.00653	0
881	17.08707	14.64606	-2.44101	-15.45973	8.95037	7.32303	-83.80801	-169.24336	-135.06922	-88.69003	-73.2303	-48.00653	0
882	19.52808	17.08707	-2.44101	-17.90074	11.39138	7.32303	-83.80801	-174.12538	-139.95124	-91.13104	-73.2303	-50.44754	0
883	19.52808	21.96909	2.44101	-20.34175	8.95037	12.20505	-81.367	-174.12538	-142.39225	-98.45407	-68.34828	-50.44754	0
884	19.52808	21.96909	2.44101	-20.34175	8.95037	12.20505	-78.92599	-166.80235	-139.95124	-103.33609	-68.34828	-50.44754	0
885	19.52808	17.08707	-2.44101	-17.90074	11.39138	7.32303	-78.92599	-164.36134	-142.39225	-105.7771	-75.67131	-52.88855	0
886	14.64606	12.20505	-2.44101	-13.01872	8.95037	4.88202	-76.48498	-161.92033	-142.39225	-105.7771	-78.11232	-52.88855	0
887	12.20505	7.32303	-4.88202	-10.57771	8.95037	2.44101	-74.04397	-161.92033	-139.95124	-105.7771	-82.99434	-50.44754	0
888	12.20505	4.88202	-7.32303	-8.1367	8.95037	0	-76.48498	-161.92033	-135.06922	-105.7771	-85.43535	-50.44754	0
889	17.08707	4.88202	-13.01872	-10.57771	13.83239	-2.44101	-81.367	-166.80235	-139.95124	-110.65912	-92.75838	-55.32956	0
890	14.64606	4.88202	-10.57771	-10.57771	11.39138	-2.44101	-86.24902	-171.68437	-142.39225	-110.65912	-95.19939	-55.32956	0
891	7.32303	7.32303	0	-8.1367	3.25468	4.88202	-86.24902	-171.68437	-144.83326	-108.21811	-95.19939	-55.32956	0
892	2.44101	7.32303	4.88202	-5.69569	-1.62734	7.32303	-83.80801	-171.68437	-142.39225	-110.65912	-92.75838	-55.32956	0
893	-0.81367	9.76404	9.76404	-5.69569	-6.50936	9.76404	-83.80801	-171.68437	-142.39225	-115.54114	-90.31737	-57.77057	0
894	4.88202	7.32303	2.44101	-5.69569	0.81367	4.88202	-83.80801	-166.80235	-142.39225	-120.42316	-90.31737	-62.65259	0
895	-0.81367	2.44101	2.44101	-0.81367	-1.62734	2.44101	-81.367	-164.36134	-144.83326	-117.98215	-92.75838	-65.0936	0
896	-8.1367	-4.88202	2.44101	4.06835	-6.50936	-2.44101	-78.92599	-161.92033	-142.39225	-110.65912	-95.19939	-65.0936	0
897	-10.57771	-10.57771	0	9.76404	-6.50936	-4.88202	-76.48498	-161.92033	-142.39225	-105.7771	-100.08141	-65.0936	0
898	-3.25468	-10.57771	-7.32303	4.06835	0.81367	-10.57771	-78.92599	-164.36134	-139.95124	-103.33609	-102.52242	-67.53461	0
899	-0.81367	-10.57771	-10.57771	4.06835	3.25468	-10.57771	-83.80801	-169.24336	-142.39225	-103.33609	-104.96343	-69.97562	0
900	7.32303	-10.57771	-17.90074	1.62734	11.39138	-13.01872	-88.69003	-171.68437	-144.83326	-105.7771	-109.84545	-74.85764	0
901	-0.81367	-7.32303	-7.32303	4.06835	3.25468	-7.32303	-88.69003	-171.68437	-147.27427	-105.7771	-109.84545	-74.85764	0
902	2.44101	-4.88202	-7.32303	1.62734	3.25468	-4.88202	-88.69003	-171.68437	-144.83326	-108.21811	-107.40444	-77.29865	0
903	-0.81367	-2.44101	-2.44101	1.62734	0.81367	-2.44101	-88.69003	-169.24336	-142.39225	-113.10013	-102.52242	-77.29865	0
904	4.88202	-4.88202	-10.57771	-0.81367	6.50936	-7.32303	-86.24902	-164.36134	-142.39225	-117.98215	-100.08141	-82.18067	0
905	7.32303	-4.88202	-13.01872	-0.81367	8.95037	-7.32303	-83.80801	-159.47932	-142.39225	-117.98215	-102.52242	-82.18067	0
906	12.20505	-4.88202	-17.90074	-3.25468	13.83239	-10.57771	-81.367	-159.47932	-142.39225	-115.54114	-102.52242	-82.18067	0
907	7.32303	-4.88202	-13.01872	-0.81367	8.95037	-7.32303	-76.48498	-157.03831	-137.51023	-108.21811	-102.52242	-79.73966	0
908	7.32303	-7.32303	-15.45973	-0.81367	11.39138	-10.57771	-76.48498	-154.5973	-132.62821	-105.7771	-102.52242	-77.29865	0
909	2.44101	-10.57771	-13.01872	4.06835	6.50936	-10.57771	-81.367	-157.03831	-135.06922	-105.7771	-104.96343	-79.73966	0
910	-3.25468	-10.57771	-7.32303	4.06835	0.81367	-10.57771	-83.80801	-159.47932	-137.51023	-105.7771	-107.40444	-84.62168	0
911	-8.1367	-10.57771	-2.44101	7.32303	-4.06835	-7.32303	-83.80801	-161.92033	-139.95124	-105.7771	-107.40444	-84.62168	0
912	-22.78276	-10.57771	12.20505	14.64606	-18.71441	0	-81.367	-159.47932	-137.51023	-105.7771	-102.52242	-84.62168	0
913	-30.10579	-13.01872	17.08707	19.52808	-26.03744	2.44101	-81.367	-157.03831	-137.51023	-110.65912	-100.08141	-87.06269	0
914	-17.90074	-15.45973	2.44101	14.64606	-11.39138	-7.32303	-83.80801	-159.47932	-142.39225	-117.98215	-102.52242	-96.82673	0
915	-8.1367	-17.90074	-10.57771	12.20505	-1.62734	-15.45973	-81.367	-154.5973	-144.83326	-117.98215	-107.40444	-99.26774	0
916	-8.1367	-15.45973	-7.32303	9.76404	-1.62734	-13.01872	-74.04397	-149.71528	-139.95124	-115.54114	-109.84545	-96.82673	0
917	-8.1367	-15.45973	-7.32303	9.76404	-1.62734	-13.01872	-74.04397	-149.71528	-139.95124	-113.10013	-114.72747	-96.82673	0
918	-0.81367	-20.34175	-20.34175	9.76404	8.95037	-20.34175	-78.92599	-154.5973	-137.51023	-113.10013	-119.60949	-99.26774	0
919	-0.81367	-20.34175	-20.34175	9.76404	8.95037	-20.34175	-78.92599	-157.03831	-135.06922	-110.65912	-122.0505	-99.26774	0
920	-20.34175	-17.90074	2.44101	17.08707	-13.83239	-7.32303	-74.04397	-152.15629	-130.1872	-105.7771	-117.16848	-91.94471	0
921	-30.10579	-15.45973	14.64606	21.96909	-23.59643	0	-71.60296	-154.5973	-132.62821	-103.33609	-117.16848	-89.5037	0
922	-30.10579	-15.45973	14.64606	21.96909	-23.59643	0	-71.60296	-159.47932	-135.06922	-108.21811	-112.28646	-89.5037	0
923	-27.66478	-15.45973	12.20505	19.52808	-21.15542	-2.44101	-71.60296	-157.03831	-135.06922	-115.54114	-107.40444	-89.5037	0
924	-25.22377	-15.45973	9.76404	19.52808	-18.71441	-2.44101	-69.16195	-149.71528	-132.62821	-117.98215	-102.52242	-89.5037	0
925	-22.78276	-17.90074	4.88202	19.52808	-16.2734	-7.32303	-69.16195	-144.83326	-132.62821	-117.98215	-102.52242	-89.5037	0
926	-10.57771	-20.34175	-10.57771	14.64606	-1.62734	-15.45973	-71.60296	-144.83326	-137.51023	-120.42316	-112.28646	-91.94471	0
927	-0.81367	-22.78276	-22.78276	9.76404	8.95037	-22.78276	-74.04397	-144.83326	-137.51023	-120.42316	-119.60949	-91.94471	0
928	7.32303	-25.22377	-32.5468	7.32303	18.71441	-27.66478	-78.92599	-147.27427	-132.62821	-117.98215	-122.0505	-94.38572	0
929	19.52808	-25.22377	-44.75185	1.62734	30.91946	-34.98781	-81.367	-152.15629	-132.62821	-115.54114	-126.93252	-96.82673	0
930	17.08707	-17.90074	-34.98781	-0.81367	23.59643	-25.22377	-81.367	-154.5973	-132.62821	-113.10013	-126.93252	-96.82673	0
931	9.76404	-10.57771	-20.34175	-0.81367	13.83239	-15.45973	-76.48498	-152.15629	-127.74619	-105.7771	-119.60949	-89.5037	0
932	7.32303	-2.44101	-10.57771	-3.25468	8.95037	-4.88202	-71.60296	-149.71528	-122.86417	-103.33609	-109.84545	-87.06269	0
933	7.32303	7.32303	0	-8.1367	3.25468	4.88202	-66.72094	-144.83326	-117.98215	-103.33609	-100.08141	-82.18067	0
934	2.44101	12.20505	9.76404	-8.1367	-4.06835	12.20505	-56.9569	-130.1872	-108.21811	-96.01306	-85.43535	-74.85764	0
935	-0.81367	19.52808	19.52808	-10.57771	-11.39138	19.52808	-49.63387	-120.42316	-103.33609	-88.69003	-80.55333	-69.97562	0
936	-5.69569	19.52808	24.4101	-8.1367	-16.2734	21.96909	-42.31084	-115.54114	-100.89508	-81.367	-80.55333	-65.0936	0
937	2.44101	19.52808	17.08707	-10.57771	-8.95037	19.52808	-37.42882	-110.65912	-98.45407	-78.92599	-82.99434	-62.65259	0
938	7.32303	19.52808	12.20505	-13.01872	-4.06835	17.08707	-34.98781	-108.21811	-93.57205	-74.04397	-82.99434	-60.21158	0
939	7.32303	21.96909	14.64606	-15.45973	-4.06835	19.52808	-27.66478	-108.21811	-91.13104	-66.72094	-82.99434	-57.77057	0
940	4.88202	21.96909	17.08707	-13.01872	-6.50936	19.52808	-22.78276	-113.10013	-93.57205	-69.16195	-85.43535	-60.21158	0
941	-0.81367	26.85111	26.85111	-13.01872	-13.83239	26.85111	-17.90074	-113.10013	-93.57205	-69.16195	-87.87636	-60.21158	0
942	-0.81367	31.73313	31.73313	-15.45973	-16.2734	31.73313	-13.01872	-115.54114	-91.13104	-71.60296	-78.11232	-57.77057	0
943	4.88202	36.61515	31.73313	-20.34175	-13.83239	34.17414	-13.01872	-113.10013	-91.13104	-76.48498	-70.78929	-57.77057	0
944	12.20505	36.61515	24.4101	-25.22377	-6.50936	31.73313	-13.01872	-108.21811	-91.13104	-81.367	-65.90727	-57.77057	0
945	7.32303	34.17414	26.85111	-20.34175	-11.39138	31.73313	-15.45973	-105.7771	-91.13104	-81.367	-65.90727	-57.77057	0
946	12.20505	31.73313	19.52808	-22.78276	-4.06835	26.85111	-22.78276	-105.7771	-93.57205	-81.367	-65.90727	-55.32956	0
947	24.4101	29.29212	4.88202	-27.66478	8.95037	17.08707	-32.5468	-108.21811	-93.57205	-78.92599	-70.78929	-55.32956	0
948	31.73313	24.4101	-7.32303	-27.66478	18.71441	9.76404	-42.31084	-110.65912	-91.13104	-71.60296	-70.78929	-52.88855	0
949	26.85111	21.96909	-4.88202	-25.22377	16.2734	9.76404	-52.07488	-115.54114	-91.13104	-66.72094	-70.78929	-50.44754	0
950	21.96909	21.96909	0	-22.78276	11.39138	12.20505	-59.39791	-120.42316	-93.57205	-66.72094	-73.2303	-45.56552	0
951	19.52808	26.85111	7.32303	-22.78276	6.50936	17.08707	-61.83892	-122.86417	-96.01306	-66.72094	-73.2303	-43.12451	0
952	24.4101	26.85111	2.44101	-25.22377	11.39138	14.64606	-66.72094	-130.1872	-98.45407	-71.60296	-68.34828	-43.12451	0
953	24.4101	29.29212	4.88202	-27.66478	8.95037	17.08707	-66.72094	-127.74619	-98.45407	-78.92599	-63.46626	-40.6835	0
954	21.96909	24.4101	2.44101	-22.78276	8.95037	14.64606	-64.27993	-122.86417	-98.45407	-83.80801	-61.02525	-40.6835	0
955	29.29212	21.96909	-7.32303	-25.22377	18.71441	7.32303	-64.27993	-120.42316	-105.7771	-88.69003	-63.46626	-43.12451	0
956	29.29212	17.08707	-13.01872	-22.78276	21.15542	2.44101	-59.39791	-117.98215	-105.7771	-88.69003	-63.46626	-38.24249	0
957	26.85111	7.32303	-20.34175	-17.90074	23.59643	-4.88202	-56.9569	-115.54114	-105.7771	-83.80801	-68.34828	-35.80148	0
958	24.4101	-4.88202	-30.10579	-10.57771	26.03744	-17.90074	-59.39791	-117.98215	-103.33609	-81.367	-70.78929	-35.80148	0
959	17.08707	-10.57771	-27.66478	-3.25468	21.15542	-17.90074	-59.39791	-120.42316	-103.33609	-78.92599	-75.67131	-33.36047	0
960	9.76404	-10.57771	-20.34175	-0.81367	13.83239	-15.45973	-59.39791	-125.30518	-105.7771	-78.92599	-80.55333	-33.36047	0
961	-0.81367	-13.01872	-13.01872	4.06835	3.25468	-13.01872	-56.9569	-125.30518	-105.7771	-78.92599	-80.55333	-33.36047	0
962	-3.25468	-13.01872	-10.57771	7.32303	0.81367	-13.01872	-54.51589	-127.74619	-103.33609	-78.92599	-75.67131	-33.36047	0
963	-8.1367	-10.57771	-2.44101	7.32303	-4.06835	-7.32303	-52.07488	-125.30518	-100.89508	-86.24902	-70.78929	-30.91946	0
964	-3.25468	-7.32303	-4.88202	4.06835	0.81367	-7.32303	-49.63387	-122.86417	-100.89508	-88.69003	-65.90727	-30.91946	0
965	-0.81367	-4.88202	-4.88202	1.62734	0.81367	-4.88202	-47.19286	-115.54114	-100.89508	-88.69003	-61.02525	-30.91946	0
966	-0.81367	-7.32303	-7.32303	4.06835	3.25468	-7.32303	-42.31084	-110.65912	-98.45407	-83.80801	-58.58424	-28.47845	0
967	-0.81367	-10.57771	-10.57771	4.06835	3.25468	-10.57771	-39.86983	-105.7771	-96.01306	-78.92599	-58.58424	-23.59643	0
968	2.44101	-10.57771	-13.01872	4.06835	6.50936	-10.57771	-44.75185	-108.21811	-96.01306	-76.48498	-61.02525	-26.03744	0
969	4.88202	-10.57771	-15.45973	1.62734	8.95037	-13.01872	-49.63387	-115.54114	-100.89508	-76.48498	-68.34828	-28.47845	0
970	12.20505	-10.57771	-22.78276	-0.81367	16.2734	-15.45973	-56.9569	-122.86417	-108.21811	-81.367	-75.67131	-35.80148	0
971	9.76404	-13.01872	-22.78276	1.62734	13.83239	-17.90074	-59.39791	-132.62821	-115.54114	-83.80801	-80.55333	-40.6835	0
972	4.88202	-13.01872	-17.90074	4.06835	8.95037	-15.45973	-61.83892	-137.51023	-115.54114	-91.13104	-82.99434	-45.56552	0
973	21.96909	-13.01872	-34.98781	-5.69569	26.03744	-22.78276	-69.16195	-147.27427	-125.30518	-105.7771	-87.87636	-55.32956	0
