samplenr	I	II	III	aVR	aVL	aVF	V1	V2	V3	V4	V5	V6	measurement
0	21.15542	-26.85111	-48.8202	3.25468	34.17414	-36.61515	-50.44754	26.85111	160.29299	137.51023	46.37919	-8.95037	0
1	21.15542	-26.85111	-48.8202	3.25468	34.17414	-36.61515	-50.44754	26.85111	160.29299	137.51023	46.37919	-8.95037	0
2	21.15542	-29.29212	-51.26121	3.25468	34.17414	-39.05616	-50.44754	29.29212	160.29299	139.95124	46.37919	-8.95037	0
3	23.59643	-26.85111	-51.26121	0.81367	36.61515	-39.05616	-50.44754	31.73313	157.85198	142.39225	46.37919	-8.95037	0
4	23.59643	-26.85111	-51.26121	0.81367	36.61515	-39.05616	-48.00653	31.73313	157.85198	142.39225	51.26121	-6.50936	0
5	23.59643	-26.85111	-51.26121	0.81367	36.61515	-39.05616	-48.00653	34.17414	157.85198	142.39225	51.26121	-6.50936	0
6	26.03744	-26.85111	-53.70222	0.81367	39.05616	-39.05616	-45.56552	36.61515	160.29299	144.83326	48.8202	-6.50936	0
7	26.03744	-24.4101	-51.26121	-1.62734	36.61515	-36.61515	-40.6835	41.49717	165.17501	144.83326	53.70222	-6.50936	0
8	26.03744	-21.96909	-48.8202	-1.62734	36.61515	-34.17414	-33.36047	46.37919	165.17501	152.15629	58.58424	-4.06835	0
9	26.03744	-17.08707	-43.93818	-4.06835	34.17414	-29.29212	-28.47845	48.8202	170.05703	157.03831	61.02525	0.81367	0
10	28.47845	-8.95037	-39.05616	-8.95037	34.17414	-24.4101	-21.15542	53.70222	174.93905	161.92033	65.90727	3.25468	0
11	28.47845	-4.06835	-34.17414	-11.39138	31.73313	-19.52808	-13.83239	61.02525	179.82107	169.24336	68.34828	8.1367	0
12	28.47845	0.81367	-29.29212	-13.83239	29.29212	-13.83239	-8.95037	65.90727	184.70309	174.12538	73.2303	10.57771	0
13	28.47845	8.1367	-21.96909	-18.71441	24.4101	-6.50936	-4.06835	70.78929	189.58511	176.56639	75.67131	17.90074	0
14	30.91946	17.90074	-13.83239	-23.59643	21.96909	3.25468	3.25468	78.11232	194.46713	176.56639	82.99434	22.78276	0
15	30.91946	22.78276	-8.95037	-26.03744	19.52808	8.1367	5.69569	82.99434	196.90814	171.68437	85.43535	25.22377	0
16	30.91946	27.66478	-4.06835	-28.47845	17.08707	13.01872	8.1367	85.43535	201.79016	169.24336	85.43535	25.22377	0
17	33.36047	30.10579	-4.06835	-30.91946	19.52808	13.01872	13.01872	90.31737	209.11319	164.36134	87.87636	27.66478	0
18	33.36047	34.98781	0.81367	-33.36047	17.08707	17.90074	20.34175	96.01306	213.99521	161.92033	92.75838	30.10579	0
19	33.36047	37.42882	3.25468	-35.80148	14.64606	20.34175	25.22377	100.89508	221.31824	157.03831	97.6404	32.5468	0
20	38.24249	42.31084	3.25468	-40.6835	17.08707	22.78276	28.47845	105.7771	228.64127	154.5973	102.52242	34.98781	0
21	40.6835	52.07488	10.57771	-45.56552	14.64606	32.5468	35.80148	113.10013	233.52329	154.5973	104.96343	39.86983	0
22	43.12451	56.9569	13.01872	-50.44754	14.64606	34.98781	40.6835	117.98215	238.40531	157.03831	109.84545	39.86983	0
23	43.12451	61.83892	17.90074	-52.88855	12.20505	39.86983	43.12451	117.98215	243.28733	157.03831	114.72747	42.31084	0
24	45.56552	69.16195	22.78276	-57.77057	12.20505	47.19286	43.12451	120.42316	248.16935	154.5973	119.60949	47.19286	0
25	52.88855	78.92599	25.22377	-65.0936	14.64606	52.07488	40.6835	122.86417	253.05137	157.03831	119.60949	52.07488	0
26	55.32956	83.80801	27.66478	-69.97562	14.64606	56.9569	33.36047	117.98215	255.49238	157.03831	119.60949	52.07488	0
27	60.21158	88.69003	27.66478	-74.85764	17.08707	59.39791	25.22377	115.54114	257.93339	157.03831	122.0505	52.07488	0
28	67.53461	93.57205	25.22377	-79.73966	21.96909	59.39791	20.34175	113.10013	255.49238	157.03831	124.49151	54.51589	0
29	69.97562	93.57205	22.78276	-82.18067	24.4101	59.39791	10.57771	105.7771	253.05137	157.03831	124.49151	54.51589	0
30	77.29865	96.01306	17.90074	-87.06269	29.29212	56.9569	-1.62734	100.89508	253.05137	154.5973	124.49151	54.51589	0
31	79.73966	98.45407	17.90074	-89.5037	31.73313	59.39791	-11.39138	96.01306	250.61036	154.5973	124.49151	54.51589	0
32	82.18067	103.33609	20.34175	-91.94471	31.73313	61.83892	-21.15542	92.75838	248.16935	154.5973	126.93252	56.9569	0
33	82.18067	103.33609	20.34175	-91.94471	31.73313	61.83892	-28.47845	90.31737	245.72834	154.5973	126.93252	59.39791	0
34	82.18067	105.7771	22.78276	-94.38572	29.29212	64.27993	-35.80148	85.43535	245.72834	149.71528	129.37353	59.39791	0
35	84.62168	108.21811	22.78276	-96.82673	31.73313	66.72094	-40.6835	82.99434	243.28733	147.27427	129.37353	61.83892	0
36	87.06269	110.65912	22.78276	-99.26774	31.73313	66.72094	-48.00653	80.55333	245.72834	142.39225	129.37353	61.83892	0
37	87.06269	110.65912	22.78276	-99.26774	31.73313	66.72094	-50.44754	80.55333	245.72834	139.95124	131.81454	64.27993	0
38	91.94471	110.65912	17.90074	-101.70875	36.61515	64.27993	-52.88855	80.55333	245.72834	139.95124	134.25555	66.72094	0
39	91.94471	108.21811	15.45973	-99.26774	39.05616	61.83892	-57.77057	75.67131	245.72834	135.06922	136.69656	69.16195	0
40	99.26774	105.7771	5.69569	-101.70875	46.37919	56.9569	-60.21158	75.67131	245.72834	132.62821	136.69656	69.16195	0
41	101.70875	98.45407	-4.06835	-99.26774	53.70222	47.19286	-65.0936	73.2303	243.28733	127.74619	136.69656	69.16195	0
42	99.26774	88.69003	-11.39138	-94.38572	56.14323	39.86983	-65.0936	70.78929	235.9643	122.86417	134.25555	66.72094	0
43	99.26774	81.367	-19.52808	-89.5037	58.58424	32.5468	-65.0936	70.78929	233.52329	120.42316	134.25555	64.27993	0
44	94.38572	69.16195	-26.85111	-82.18067	61.02525	22.78276	-65.0936	73.2303	231.08228	113.10013	131.81454	64.27993	0
45	87.06269	56.9569	-31.73313	-72.41663	58.58424	13.01872	-65.0936	73.2303	226.20026	108.21811	126.93252	56.9569	0
46	82.18067	49.63387	-34.17414	-65.0936	58.58424	8.1367	-62.65259	75.67131	226.20026	103.33609	122.0505	54.51589	0
47	77.29865	42.31084	-36.61515	-60.21158	56.14323	3.25468	-57.77057	80.55333	231.08228	103.33609	119.60949	52.07488	0
48	72.41663	34.98781	-39.05616	-52.88855	56.14323	-1.62734	-50.44754	85.43535	231.08228	103.33609	119.60949	47.19286	0
49	65.0936	27.66478	-39.05616	-45.56552	51.26121	-4.06835	-48.00653	87.87636	231.08228	100.89508	114.72747	44.75185	0
50	60.21158	17.90074	-43.93818	-38.24249	51.26121	-11.39138	-43.12451	87.87636	231.08228	96.01306	107.40444	37.42882	0
51	55.32956	10.57771	-46.37919	-33.36047	51.26121	-17.08707	-38.24249	92.75838	231.08228	88.69003	102.52242	32.5468	0
52	48.00653	0.81367	-48.8202	-23.59643	48.8202	-24.4101	-35.80148	92.75838	228.64127	86.24902	97.6404	25.22377	0
53	43.12451	-6.50936	-51.26121	-18.71441	46.37919	-29.29212	-35.80148	92.75838	223.75925	81.367	92.75838	22.78276	0
54	38.24249	-17.08707	-56.14323	-11.39138	46.37919	-36.61515	-33.36047	92.75838	221.31824	74.04397	87.87636	15.45973	0
55	35.80148	-26.85111	-63.46626	-4.06835	48.8202	-43.93818	-35.80148	92.75838	213.99521	64.27993	78.11232	8.1367	0
56	33.36047	-36.61515	-70.78929	0.81367	51.26121	-53.70222	-35.80148	92.75838	209.11319	54.51589	70.78929	-1.62734	0
57	28.47845	-48.8202	-78.11232	8.1367	51.26121	-63.46626	-38.24249	90.31737	204.23117	47.19286	63.46626	-8.95037	0
58	26.03744	-56.14323	-82.99434	13.83239	53.70222	-68.34828	-35.80148	90.31737	199.34915	44.75185	58.58424	-14.64606	0
59	23.59643	-58.58424	-82.99434	16.2734	51.26121	-70.78929	-33.36047	90.31737	199.34915	42.31084	56.14323	-14.64606	0
60	26.03744	-63.46626	-90.31737	18.71441	56.14323	-75.67131	-33.36047	87.87636	196.90814	37.42882	53.70222	-17.08707	0
61	26.03744	-68.34828	-95.19939	21.15542	58.58424	-80.55333	-33.36047	85.43535	192.02612	34.98781	51.26121	-19.52808	0
62	21.15542	-70.78929	-92.75838	23.59643	56.14323	-80.55333	-33.36047	85.43535	189.58511	30.10579	48.8202	-19.52808	0
63	16.2734	-75.67131	-92.75838	28.47845	53.70222	-82.99434	-33.36047	82.99434	184.70309	27.66478	46.37919	-21.96909	0
64	11.39138	-82.99434	-95.19939	35.80148	51.26121	-87.87636	-33.36047	82.99434	182.26208	21.96909	43.93818	-21.96909	0
65	6.50936	-85.43535	-92.75838	38.24249	48.8202	-87.87636	-35.80148	82.99434	182.26208	19.52808	41.49717	-24.4101	0
66	6.50936	-87.87636	-95.19939	40.6835	48.8202	-90.31737	-35.80148	82.99434	179.82107	14.64606	39.05616	-24.4101	0
67	4.06835	-90.31737	-95.19939	43.12451	48.8202	-92.75838	-33.36047	85.43535	179.82107	12.20505	39.05616	-26.85111	0
68	1.62734	-95.19939	-97.6404	45.56552	48.8202	-95.19939	-30.91946	85.43535	174.93905	9.76404	36.61515	-26.85111	0
69	-1.62734	-95.19939	-95.19939	48.00653	46.37919	-95.19939	-28.47845	85.43535	174.93905	7.32303	36.61515	-29.29212	0
70	1.62734	-92.75838	-95.19939	45.56552	46.37919	-92.75838	-26.03744	85.43535	174.93905	7.32303	36.61515	-29.29212	0
71	4.06835	-90.31737	-95.19939	43.12451	48.8202	-92.75838	-23.59643	87.87636	177.38006	4.88202	36.61515	-31.73313	0
72	4.06835	-90.31737	-95.19939	43.12451	48.8202	-92.75838	-21.15542	90.31737	177.38006	4.88202	36.61515	-31.73313	0
73	1.62734	-90.31737	-92.75838	43.12451	46.37919	-90.31737	-18.71441	92.75838	177.38006	2.44101	36.61515	-31.73313	0
74	1.62734	-87.87636	-90.31737	43.12451	43.93818	-87.87636	-16.2734	92.75838	177.38006	2.44101	39.05616	-31.73313	0
75	1.62734	-87.87636	-90.31737	43.12451	43.93818	-87.87636	-16.2734	92.75838	177.38006	0	39.05616	-31.73313	0
76	1.62734	-87.87636	-90.31737	43.12451	43.93818	-87.87636	-13.83239	92.75838	177.38006	-2.44101	34.17414	-34.17414	0
77	1.62734	-90.31737	-92.75838	43.12451	46.37919	-90.31737	-11.39138	92.75838	177.38006	-2.44101	34.17414	-36.61515	0
78	-1.62734	-95.19939	-95.19939	48.00653	46.37919	-95.19939	-6.50936	96.01306	177.38006	-2.44101	34.17414	-36.61515	0
79	-4.06835	-97.6404	-95.19939	50.44754	43.93818	-97.6404	-4.06835	96.01306	174.93905	0	34.17414	-36.61515	0
80	-1.62734	-95.19939	-95.19939	48.00653	46.37919	-95.19939	-1.62734	92.75838	177.38006	4.88202	34.17414	-34.17414	0
81	-1.62734	-95.19939	-95.19939	48.00653	46.37919	-95.19939	0.81367	96.01306	174.93905	7.32303	34.17414	-34.17414	0
82	-4.06835	-97.6404	-95.19939	50.44754	43.93818	-97.6404	0.81367	96.01306	172.49804	12.20505	31.73313	-34.17414	0
83	-4.06835	-97.6404	-95.19939	50.44754	43.93818	-97.6404	3.25468	96.01306	170.05703	17.08707	31.73313	-34.17414	0
84	-4.06835	-95.19939	-92.75838	48.00653	43.93818	-95.19939	5.69569	96.01306	170.05703	19.52808	31.73313	-31.73313	0
85	-4.06835	-92.75838	-90.31737	48.00653	41.49717	-92.75838	5.69569	96.01306	170.05703	21.96909	31.73313	-31.73313	0
86	-4.06835	-92.75838	-90.31737	48.00653	41.49717	-92.75838	5.69569	92.75838	170.05703	21.96909	26.85111	-34.17414	0
87	-4.06835	-92.75838	-90.31737	48.00653	41.49717	-92.75838	5.69569	92.75838	167.61602	21.96909	26.85111	-36.61515	0
88	-1.62734	-95.19939	-95.19939	48.00653	46.37919	-95.19939	8.1367	90.31737	165.17501	21.96909	24.4101	-36.61515	0
89	-4.06835	-97.6404	-95.19939	50.44754	43.93818	-97.6404	8.1367	87.87636	165.17501	21.96909	24.4101	-36.61515	0
90	-1.62734	-95.19939	-95.19939	48.00653	46.37919	-95.19939	13.01872	87.87636	167.61602	21.96909	24.4101	-36.61515	0
91	-1.62734	-92.75838	-92.75838	45.56552	43.93818	-92.75838	13.01872	87.87636	167.61602	21.96909	24.4101	-36.61515	0
92	-1.62734	-95.19939	-95.19939	48.00653	46.37919	-95.19939	15.45973	85.43535	165.17501	21.96909	21.96909	-39.05616	0
93	-1.62734	-95.19939	-95.19939	48.00653	46.37919	-95.19939	20.34175	87.87636	165.17501	25.22377	21.96909	-39.05616	0
94	-1.62734	-97.6404	-97.6404	48.00653	46.37919	-97.6404	25.22377	92.75838	167.61602	25.22377	21.96909	-36.61515	0
95	-1.62734	-95.19939	-95.19939	48.00653	46.37919	-95.19939	25.22377	96.01306	170.05703	27.66478	21.96909	-36.61515	0
96	1.62734	-95.19939	-97.6404	45.56552	48.8202	-95.19939	25.22377	96.01306	170.05703	25.22377	19.52808	-36.61515	0
97	4.06835	-95.19939	-100.08141	45.56552	51.26121	-97.6404	22.78276	87.87636	165.17501	21.96909	19.52808	-36.61515	0
98	6.50936	-87.87636	-95.19939	40.6835	48.8202	-90.31737	15.45973	75.67131	157.85198	12.20505	31.73313	-31.73313	0
99	23.59643	-129.37353	-153.78363	52.88855	87.87636	-141.57858	3.25468	58.58424	152.96996	17.08707	26.85111	-39.05616	0
100	-1.62734	-124.49151	-124.49151	62.65259	61.02525	-124.49151	-11.39138	70.78929	135.88289	12.20505	26.85111	-48.8202	1000	P+0
101	-18.71441	-92.75838	-75.67131	55.32956	26.85111	-85.43535	-16.2734	0	96.01306	25.22377	48.8202	-26.85111	0
102	1.62734	-17.08707	-19.52808	8.1367	9.76404	-17.08707	-48.00653	-36.61515	104.14976	52.07488	75.67131	5.69569	0
103	40.6835	37.42882	-4.06835	-38.24249	21.96909	17.90074	-82.18067	-73.2303	128.55986	93.57205	104.96343	34.98781	0
104	50.44754	39.86983	-11.39138	-45.56552	31.73313	15.45973	-101.70875	-78.11232	111.47279	100.89508	104.96343	52.07488	0
105	67.53461	30.10579	-39.05616	-48.00653	53.70222	-4.06835	-118.79582	-85.43535	88.69003	108.21811	104.96343	66.72094	0
106	123.67784	37.42882	-87.87636	-79.73966	104.96343	-24.4101	-118.79582	-68.34828	194.46713	159.47932	146.4606	105.7771	0
107	160.29299	47.19286	-114.72747	-104.14976	136.69656	-34.17414	-96.82673	-46.37919	192.02612	240.03265	217.24989	159.47932	0
108	213.99521	81.367	-134.25555	-148.08794	173.31171	-26.85111	-113.9138	-80.55333	267.69743	347.43709	327.09534	244.91467	0
109	287.22551	205.85851	-82.99434	-245.72834	185.51676	61.83892	-145.64693	-107.40444	367.77884	515.86678	468.67392	357.20113	0
110	370.21985	359.64214	-11.39138	-365.33783	190.39878	174.12538	-253.05137	-229.45494	460.53722	720.91162	681.04179	518.30779	0
111	467.86025	535.39486	66.72094	-502.03439	200.16282	301.0579	-423.92207	-393.00261	580.14671	969.89464	932.46582	713.58859	0
112	577.7057	737.99869	159.47932	-658.25903	209.92686	449.95951	-636.28994	-624.89856	650.936	1211.55463	1183.88985	906.42838	0
113	685.11014	906.42838	220.50457	-794.95559	231.89595	564.68698	-873.06791	-934.90683	619.20287	1389.74836	1396.25772	1087.06312	0
114	755.89943	1113.91423	357.20113	-934.09316	200.16282	735.55768	-1043.93861	-1147.2747	680.22812	1594.7932	1603.74357	1265.25685	0
115	687.55115	1267.69786	579.33304	-978.03134	53.70222	923.51545	-1134.25598	-1474.37004	580.14671	1631.40835	1683.48323	1360.45624	0
116	555.73661	1262.81584	706.26556	-909.68306	-76.48498	984.5407	-1168.43012	-1894.22376	255.49238	1414.15846	1569.56943	1323.84109	0
117	348.25076	962.57161	613.50718	-655.81802	-132.62821	789.2599	-1043.93861	-2121.23769	-128.55986	974.77666	1205.85894	1050.44797	0
118	148.08794	686.73748	537.83587	-416.59904	-196.09447	613.50718	-882.83195	-2321.40051	-575.26469	430.43143	793.32825	757.52677	0
119	-30.91946	484.13365	513.42577	-226.20026	-271.76578	498.77971	-836.45276	-2567.94252	-1231.89638	-185.51676	363.71049	484.13365	0
120	-157.85198	298.61689	454.84153	-69.97562	-305.93992	376.72921	-836.45276	-2770.54635	-1947.11231	-925.14279	-100.89508	210.74053	0
121	-250.61036	222.94558	471.9286	13.83239	-362.08315	347.43709	-858.42185	-2895.03786	-2413.34522	-1342.5555	-344.99608	81.367	0
122	-318.95864	169.24336	486.57466	74.85764	-403.58032	327.90901	-851.09882	-2897.47887	-2591.53895	-1542.71832	-498.77971	-24.4101	0
123	-355.57379	117.98215	471.9286	118.79582	-413.34436	293.73487	-968.2673	-2873.06877	-2589.09794	-1572.01044	-540.27688	-73.2303	0
124	-360.45581	105.7771	464.60557	126.11885	-413.34436	283.97083	-1136.69699	-2755.90029	-2449.96037	-1486.57509	-523.18981	-82.99434	0
125	-387.30692	69.16195	454.84153	157.85198	-420.66739	262.00174	-1200.16325	-2582.58858	-2276.64866	-1381.61166	-520.7488	-119.60949	0
126	-362.89682	37.42882	398.6983	162.734	-381.61123	218.06356	-1151.34305	-2358.01566	-2061.83978	-1271.76621	-515.86678	-151.34262	0
127	-321.39965	39.86983	359.64214	140.76491	-340.11406	198.53548	-1051.26164	-2082.18153	-1800.65171	-1135.06965	-481.69264	-153.78363	0
128	-287.22551	42.31084	327.90901	121.23683	-308.38093	183.88942	-929.21114	-1820.99346	-1556.55071	-1020.34218	-459.72355	-161.10666	0
129	-267.69743	64.27993	330.35002	101.70875	-298.61689	196.09447	-816.92468	-1589.09751	-1366.15193	-895.85067	-445.07749	-165.98868	0
130	-226.20026	56.9569	281.52982	84.62168	-254.67871	169.24336	-677.78711	-1340.11449	-1153.78406	-776.24118	-401.13931	-146.4606	0
131	-201.79016	59.39791	259.56073	69.97562	-230.26861	159.47932	-589.91075	-1144.83369	-987.79538	-676.15977	-340.11406	-129.37353	0
132	-179.82107	61.83892	240.03265	57.77057	-210.74053	149.71528	-482.50631	-944.67087	-809.60165	-595.60644	-305.93992	-124.49151	0
133	-160.29299	61.83892	220.50457	48.00653	-191.21245	139.95124	-426.36308	-807.97431	-672.90509	-534.58119	-271.76578	-117.16848	0
134	-140.76491	59.39791	198.53548	40.6835	-169.24336	127.74619	-345.80975	-666.39573	-572.82368	-473.55594	-237.59164	-109.84545	0
135	-126.11885	47.19286	171.68437	38.24249	-149.71528	108.21811	-267.69743	-534.58119	-487.38833	-410.08968	-205.85851	-104.96343	0
136	-109.03178	34.98781	142.39225	35.80148	-125.30518	88.69003	-170.05703	-388.12059	-362.89682	-329.53635	-164.36134	-102.52242	0
137	-94.38572	17.90074	110.65912	38.24249	-103.33609	64.27993	-101.70875	-278.27514	-267.69743	-266.07009	-137.51023	-97.6404	0
138	-84.62168	0.81367	83.80801	40.6835	-83.80801	42.31084	-60.21158	-202.60383	-187.1441	-227.01393	-125.30518	-90.31737	0
139	-77.29865	-17.08707	59.39791	45.56552	-69.16195	20.34175	-18.71441	-126.93252	-126.11885	-161.10666	-125.30518	-85.43535	0
140	-67.53461	-29.29212	37.42882	48.00653	-54.51589	3.25468	33.36047	-56.14323	-57.77057	-104.96343	-110.65912	-80.55333	0
141	-60.21158	-41.49717	17.90074	50.44754	-39.86983	-11.39138	60.21158	-2.44101	-11.39138	-63.46626	-88.69003	-78.11232	0
142	-55.32956	-53.70222	0.81367	52.88855	-30.10579	-26.85111	77.29865	48.8202	49.63387	-51.26121	-76.48498	-75.67131	0
143	-48.00653	-56.14323	-8.95037	50.44754	-20.34175	-34.17414	72.41663	68.34828	91.13104	-43.93818	-64.27993	-73.2303	0
144	-45.56552	-61.02525	-17.08707	52.88855	-15.45973	-39.05616	77.29865	103.33609	111.47279	-39.05616	-54.51589	-70.78929	0
145	-38.24249	-65.90727	-29.29212	50.44754	-5.69569	-48.8202	87.06269	125.30518	113.9138	-39.05616	-49.63387	-68.34828	0
146	-35.80148	-65.90727	-31.73313	50.44754	-3.25468	-48.8202	99.26774	147.27427	123.67784	-39.05616	-47.19286	-70.78929	0
147	-33.36047	-73.2303	-41.49717	52.88855	1.62734	-58.58424	109.03178	174.12538	148.08794	-4.88202	-42.31084	-70.78929	0
148	-30.91946	-78.11232	-48.8202	52.88855	6.50936	-63.46626	118.79582	188.77144	162.734	7.32303	-37.42882	-70.78929	0
149	-28.47845	-80.55333	-53.70222	52.88855	12.20505	-68.34828	126.11885	215.62255	167.61602	17.08707	-34.98781	-70.78929	0
150	-26.03744	-85.43535	-61.02525	55.32956	17.08707	-73.2303	133.44188	222.94558	189.58511	25.22377	-30.10579	-70.78929	0
151	-26.03744	-90.31737	-65.90727	57.77057	19.52808	-78.11232	143.20592	235.15063	201.79016	34.98781	-25.22377	-68.34828	0
152	-26.03744	-95.19939	-70.78929	60.21158	21.96909	-82.99434	150.52895	249.79669	213.99521	47.19286	-20.34175	-65.90727	0
153	-26.03744	-97.6404	-73.2303	60.21158	21.96909	-85.43535	155.41097	264.44275	226.20026	56.9569	-17.08707	-63.46626	0
154	-23.59643	-102.52242	-80.55333	62.65259	26.85111	-92.75838	160.29299	276.6478	235.9643	61.83892	-12.20505	-63.46626	0
155	-18.71441	-100.08141	-82.99434	57.77057	31.73313	-92.75838	162.734	286.41184	245.72834	66.72094	-12.20505	-61.02525	0
156	-13.83239	-97.6404	-85.43535	55.32956	34.17414	-92.75838	167.61602	296.17588	255.49238	74.04397	-9.76404	-61.02525	0
157	-11.39138	-100.08141	-90.31737	55.32956	39.05616	-95.19939	170.05703	305.93992	262.81541	81.367	-7.32303	-61.02525	0
158	-6.50936	-100.08141	-95.19939	52.88855	43.93818	-97.6404	174.93905	315.70396	267.69743	86.24902	-4.88202	-58.58424	0
159	-6.50936	-95.19939	-90.31737	50.44754	41.49717	-92.75838	177.38006	323.02699	275.02046	93.57205	-2.44101	-56.14323	0
160	-1.62734	-92.75838	-92.75838	45.56552	43.93818	-92.75838	179.82107	330.35002	282.34349	96.01306	0	-56.14323	0
161	1.62734	-92.75838	-95.19939	45.56552	46.37919	-92.75838	182.26208	335.23204	287.22551	98.45407	2.44101	-56.14323	0
162	4.06835	-92.75838	-97.6404	43.12451	48.8202	-95.19939	182.26208	342.55507	292.10753	103.33609	4.88202	-53.70222	0
163	4.06835	-90.31737	-95.19939	43.12451	48.8202	-92.75838	184.70309	349.8781	296.98955	105.7771	9.76404	-51.26121	0
164	4.06835	-90.31737	-95.19939	43.12451	48.8202	-92.75838	184.70309	354.76012	301.87157	105.7771	12.20505	-48.8202	0
165	4.06835	-90.31737	-95.19939	43.12451	48.8202	-92.75838	184.70309	359.64214	304.31258	105.7771	12.20505	-48.8202	0
166	4.06835	-87.87636	-92.75838	40.6835	46.37919	-90.31737	184.70309	364.52416	306.75359	103.33609	12.20505	-48.8202	0
167	4.06835	-90.31737	-95.19939	43.12451	48.8202	-92.75838	184.70309	366.96517	309.1946	100.89508	9.76404	-48.8202	0
168	4.06835	-92.75838	-97.6404	43.12451	48.8202	-95.19939	187.1441	374.2882	309.1946	100.89508	12.20505	-48.8202	0
169	-1.62734	-92.75838	-92.75838	45.56552	43.93818	-92.75838	189.58511	376.72921	314.07662	103.33609	12.20505	-48.8202	0
170	-1.62734	-95.19939	-95.19939	48.00653	46.37919	-95.19939	189.58511	379.17022	316.51763	103.33609	12.20505	-51.26121	0
171	-6.50936	-100.08141	-95.19939	52.88855	43.93818	-97.6404	189.58511	384.05224	318.95864	105.7771	12.20505	-51.26121	0
172	-11.39138	-102.52242	-92.75838	55.32956	39.05616	-97.6404	189.58511	386.49325	321.39965	108.21811	12.20505	-53.70222	0
173	-11.39138	-102.52242	-92.75838	55.32956	39.05616	-97.6404	189.58511	391.37527	323.84066	108.21811	14.64606	-53.70222	0
174	-11.39138	-102.52242	-92.75838	55.32956	39.05616	-97.6404	192.02612	396.25729	326.28167	108.21811	17.08707	-53.70222	0
175	-8.95037	-102.52242	-95.19939	55.32956	41.49717	-100.08141	189.58511	398.6983	328.72268	108.21811	14.64606	-53.70222	0
176	-8.95037	-102.52242	-95.19939	55.32956	41.49717	-100.08141	189.58511	401.13931	331.16369	108.21811	14.64606	-53.70222	0
177	-8.95037	-107.40444	-100.08141	57.77057	43.93818	-104.96343	189.58511	406.02133	331.16369	108.21811	12.20505	-58.58424	0
178	-6.50936	-104.96343	-100.08141	55.32956	46.37919	-102.52242	192.02612	410.90335	333.6047	108.21811	12.20505	-58.58424	0
179	-6.50936	-102.52242	-97.6404	52.88855	43.93818	-100.08141	194.46713	413.34436	336.04571	110.65912	12.20505	-58.58424	0
180	-4.06835	-100.08141	-97.6404	50.44754	46.37919	-100.08141	196.90814	418.22638	340.92773	113.10013	14.64606	-58.58424	0
181	-1.62734	-97.6404	-97.6404	48.00653	46.37919	-97.6404	199.34915	423.1084	343.36874	113.10013	12.20505	-61.02525	0
182	-4.06835	-97.6404	-95.19939	50.44754	43.93818	-97.6404	201.79016	425.54941	343.36874	115.54114	12.20505	-63.46626	0
183	-6.50936	-95.19939	-90.31737	50.44754	41.49717	-92.75838	204.23117	430.43143	345.80975	117.98215	12.20505	-63.46626	0
184	-6.50936	-92.75838	-87.87636	48.00653	39.05616	-90.31737	209.11319	435.31345	350.69177	115.54114	12.20505	-63.46626	0
185	-6.50936	-90.31737	-85.43535	48.00653	39.05616	-87.87636	209.11319	437.75446	353.13278	117.98215	9.76404	-63.46626	0
186	-8.95037	-90.31737	-82.99434	48.00653	36.61515	-87.87636	213.99521	442.63648	353.13278	117.98215	7.32303	-65.90727	0
187	-8.95037	-90.31737	-82.99434	48.00653	36.61515	-87.87636	218.87723	447.5185	355.57379	117.98215	7.32303	-68.34828	0
188	-8.95037	-92.75838	-85.43535	50.44754	36.61515	-90.31737	223.75925	452.40052	353.13278	120.42316	4.88202	-68.34828	0
189	-11.39138	-95.19939	-85.43535	52.88855	36.61515	-90.31737	228.64127	452.40052	353.13278	120.42316	4.88202	-70.78929	0
190	-13.83239	-95.19939	-82.99434	52.88855	34.17414	-90.31737	231.08228	457.28254	358.0148	120.42316	2.44101	-73.2303	0
191	-13.83239	-95.19939	-82.99434	52.88855	34.17414	-90.31737	235.9643	462.16456	358.0148	122.86417	2.44101	-73.2303	0
192	-13.83239	-95.19939	-82.99434	52.88855	34.17414	-90.31737	238.40531	467.04658	358.0148	125.30518	2.44101	-73.2303	0
193	-18.71441	-92.75838	-75.67131	55.32956	26.85111	-85.43535	240.84632	471.9286	358.0148	127.74619	0	-73.2303	0
194	-18.71441	-92.75838	-75.67131	55.32956	26.85111	-85.43535	243.28733	476.81062	358.0148	127.74619	0	-73.2303	0
195	-18.71441	-92.75838	-75.67131	55.32956	26.85111	-85.43535	243.28733	481.69264	358.0148	127.74619	-2.44101	-73.2303	0
196	-21.15542	-92.75838	-73.2303	55.32956	24.4101	-82.99434	243.28733	484.13365	358.0148	125.30518	-7.32303	-78.11232	0
197	-23.59643	-97.6404	-75.67131	60.21158	24.4101	-87.87636	245.72834	489.01567	355.57379	125.30518	-9.76404	-78.11232	0
198	-23.59643	-97.6404	-75.67131	60.21158	24.4101	-87.87636	250.61036	493.89769	353.13278	125.30518	-12.20505	-78.11232	0
199	-26.03744	-100.08141	-75.67131	62.65259	24.4101	-87.87636	253.05137	496.3387	353.13278	125.30518	-14.64606	-78.11232	0
200	-26.03744	-100.08141	-75.67131	62.65259	24.4101	-87.87636	257.93339	501.22072	355.57379	125.30518	-14.64606	-78.11232	0
201	-26.03744	-100.08141	-75.67131	62.65259	24.4101	-87.87636	260.3744	508.54375	355.57379	127.74619	-14.64606	-78.11232	0
202	-28.47845	-97.6404	-70.78929	62.65259	19.52808	-85.43535	265.25642	513.42577	355.57379	130.1872	-14.64606	-78.11232	0
203	-30.91946	-95.19939	-65.90727	62.65259	17.08707	-80.55333	270.13844	518.30779	353.13278	132.62821	-14.64606	-78.11232	0
204	-33.36047	-90.31737	-58.58424	60.21158	12.20505	-75.67131	275.02046	523.18981	355.57379	130.1872	-14.64606	-78.11232	0
205	-33.36047	-90.31737	-58.58424	60.21158	12.20505	-75.67131	275.02046	528.07183	350.69177	127.74619	-17.08707	-78.11232	0
206	-33.36047	-87.87636	-56.14323	60.21158	9.76404	-73.2303	279.90248	532.95385	348.25076	125.30518	-20.34175	-80.55333	0
207	-33.36047	-87.87636	-56.14323	60.21158	9.76404	-73.2303	284.7845	537.83587	345.80975	122.86417	-20.34175	-82.99434	0
208	-38.24249	-90.31737	-53.70222	62.65259	6.50936	-73.2303	289.66652	542.71789	340.92773	120.42316	-25.22377	-82.99434	0
209	-40.6835	-87.87636	-48.8202	62.65259	1.62734	-68.34828	294.54854	542.71789	338.48672	117.98215	-27.66478	-85.43535	0
210	-35.80148	-85.43535	-51.26121	60.21158	6.50936	-68.34828	301.87157	550.04092	338.48672	115.54114	-27.66478	-85.43535	0
211	-33.36047	-80.55333	-48.8202	55.32956	6.50936	-65.90727	309.1946	554.92294	333.6047	113.10013	-30.10579	-85.43535	0
212	-35.80148	-78.11232	-43.93818	55.32956	1.62734	-61.02525	316.51763	557.36395	328.72268	110.65912	-32.5468	-85.43535	0
213	-33.36047	-73.2303	-41.49717	52.88855	1.62734	-58.58424	323.84066	562.24597	323.84066	110.65912	-32.5468	-82.99434	0
214	-33.36047	-68.34828	-36.61515	50.44754	-0.81367	-53.70222	331.16369	564.68698	321.39965	103.33609	-32.5468	-80.55333	0
215	-30.91946	-63.46626	-34.17414	45.56552	-0.81367	-48.8202	338.48672	567.12799	316.51763	100.89508	-34.98781	-80.55333	0
216	-30.91946	-58.58424	-29.29212	43.12451	-3.25468	-43.93818	343.36874	567.12799	306.75359	96.01306	-39.86983	-80.55333	0
217	-35.80148	-56.14323	-21.96909	45.56552	-8.1367	-39.05616	348.25076	567.12799	299.43056	91.13104	-42.31084	-82.99434	0
218	-40.6835	-56.14323	-17.08707	48.00653	-13.01872	-36.61515	355.57379	567.12799	287.22551	86.24902	-44.75185	-82.99434	0
219	-48.00653	-56.14323	-8.95037	50.44754	-20.34175	-34.17414	360.45581	562.24597	277.46147	78.92599	-49.63387	-85.43535	0
220	-50.44754	-56.14323	-6.50936	52.88855	-22.78276	-31.73313	362.89682	554.92294	265.25642	71.60296	-54.51589	-87.87636	0
221	-52.88855	-56.14323	-4.06835	52.88855	-25.22377	-31.73313	365.33783	550.04092	253.05137	61.83892	-59.39791	-90.31737	0
222	-55.32956	-53.70222	0.81367	52.88855	-30.10579	-26.85111	367.77884	542.71789	235.9643	54.51589	-64.27993	-90.31737	0
223	-57.77057	-48.8202	8.1367	52.88855	-34.98781	-21.96909	367.77884	535.39486	221.31824	47.19286	-69.16195	-90.31737	0
224	-57.77057	-41.49717	15.45973	48.00653	-37.42882	-13.83239	370.21985	528.07183	206.67218	34.98781	-71.60296	-90.31737	0
225	-57.77057	-36.61515	20.34175	45.56552	-39.86983	-8.95037	370.21985	518.30779	189.58511	21.96909	-76.48498	-90.31737	0
226	-57.77057	-29.29212	27.66478	43.12451	-44.75185	-1.62734	370.21985	508.54375	170.05703	12.20505	-83.80801	-92.75838	0
227	-57.77057	-26.85111	30.10579	40.6835	-44.75185	0.81367	370.21985	496.3387	165.17501	0	-88.69003	-92.75838	0
228	-60.21158	-24.4101	34.98781	40.6835	-49.63387	5.69569	370.21985	484.13365	155.41097	-12.20505	-93.57205	-92.75838	0
229	-62.65259	-21.96909	39.86983	40.6835	-52.07488	8.1367	367.77884	469.48759	111.47279	-26.85111	-98.45407	-92.75838	0
230	-62.65259	-19.52808	42.31084	40.6835	-54.51589	10.57771	365.33783	452.40052	78.92599	-41.49717	-103.33609	-92.75838	0
231	-67.53461	-17.08707	49.63387	40.6835	-59.39791	15.45973	362.89682	435.31345	54.51589	-56.14323	-110.65912	-92.75838	0
232	-72.41663	-19.52808	52.07488	45.56552	-64.27993	15.45973	358.0148	418.22638	32.5468	-70.78929	-115.54114	-97.6404	0
233	-77.29865	-17.08707	59.39791	45.56552	-69.16195	20.34175	350.69177	398.6983	15.45973	-87.87636	-122.86417	-97.6404	0
234	-82.18067	-19.52808	61.83892	50.44754	-74.04397	20.34175	340.92773	376.72921	-18.71441	-107.40444	-130.1872	-100.08141	0
235	-87.06269	-21.96909	64.27993	52.88855	-76.48498	20.34175	331.16369	369.40618	-67.53461	-124.49151	-139.95124	-102.52242	0
236	-94.38572	-21.96909	71.60296	57.77057	-83.80801	25.22377	321.39965	337.67305	-91.94471	-144.01959	-152.15629	-104.96343	0
237	-96.82673	-21.96909	74.04397	57.77057	-86.24902	25.22377	314.07662	298.61689	-123.67784	-161.10666	-159.47932	-107.40444	0
238	-101.70875	-21.96909	78.92599	60.21158	-91.13104	27.66478	304.31258	276.6478	-140.76491	-178.19373	-166.80235	-109.84545	0
239	-106.59077	-21.96909	83.80801	62.65259	-96.01306	30.10579	294.54854	257.11972	-179.82107	-195.2808	-176.56639	-112.28646	0
240	-106.59077	-19.52808	86.24902	62.65259	-98.45407	32.5468	284.7845	232.70962	-209.11319	-212.36787	-181.44841	-112.28646	0
241	-109.03178	-17.08707	91.13104	62.65259	-100.89508	37.42882	275.02046	208.29952	-245.72834	-229.45494	-188.77144	-114.72747	0
242	-113.9138	-17.08707	96.01306	65.0936	-105.7771	39.86983	262.81541	186.33043	-272.57945	-246.54201	-196.09447	-114.72747	0
243	-113.9138	-11.39138	100.89508	62.65259	-108.21811	44.75185	250.61036	149.71528	-292.10753	-263.62908	-198.53548	-114.72747	0
244	-116.35481	-6.50936	108.21811	60.21158	-113.10013	49.63387	235.9643	137.51023	-328.72268	-283.15716	-205.85851	-109.84545	0
245	-116.35481	-4.06835	110.65912	60.21158	-113.10013	52.07488	218.87723	90.31737	-392.18894	-300.24423	-213.18154	-109.84545	0
246	-116.35481	-1.62734	113.10013	57.77057	-115.54114	54.51589	201.79016	48.8202	-426.36308	-319.77231	-220.50457	-112.28646	0
247	-118.79582	-1.62734	115.54114	60.21158	-117.98215	56.9569	184.70309	12.20505	-453.21419	-339.30039	-225.38659	-112.28646	0
248	-118.79582	0.81367	117.98215	57.77057	-117.98215	59.39791	167.61602	-21.96909	-482.50631	-353.94645	-230.26861	-114.72747	0
249	-121.23683	0.81367	120.42316	60.21158	-120.42316	59.39791	148.08794	-63.46626	-531.32651	-371.03352	-235.15063	-114.72747	0
250	-121.23683	-1.62734	117.98215	60.21158	-120.42316	56.9569	131.00087	-100.08141	-558.17762	-385.67958	-237.59164	-114.72747	0
251	-123.67784	-4.06835	117.98215	62.65259	-120.42316	56.9569	111.47279	-139.13757	-587.46974	-397.88463	-242.47366	-114.72747	0
252	-123.67784	-4.06835	117.98215	62.65259	-120.42316	56.9569	94.38572	-158.66565	-597.23378	-410.08968	-244.91467	-112.28646	0
253	-128.55986	-4.06835	122.86417	65.0936	-125.30518	59.39791	74.85764	-209.92686	-611.87984	-419.85372	-247.35568	-112.28646	0
254	-128.55986	-4.06835	122.86417	65.0936	-125.30518	59.39791	57.77057	-229.45494	-650.936	-432.05877	-247.35568	-112.28646	0
255	-131.00087	-6.50936	122.86417	67.53461	-127.74619	56.9569	38.24249	-253.86504	-685.11014	-444.26382	-254.67871	-112.28646	0
256	-131.00087	-8.95037	120.42316	69.97562	-125.30518	54.51589	20.34175	-275.83413	-699.7562	-451.58685	-259.56073	-112.28646	0
257	-133.44188	-13.83239	117.98215	72.41663	-125.30518	52.07488	5.69569	-302.68524	-716.84327	-458.90988	-259.56073	-112.28646	0
258	-133.44188	-17.08707	115.54114	74.85764	-125.30518	49.63387	-6.50936	-331.97736	-733.93034	-463.7919	-259.56073	-112.28646	0
259	-133.44188	-19.52808	113.10013	74.85764	-125.30518	47.19286	-21.15542	-361.26948	-746.13539	-466.23291	-259.56073	-112.28646	0
260	-133.44188	-24.4101	108.21811	77.29865	-122.86417	42.31084	-33.36047	-361.26948	-755.89943	-468.67392	-259.56073	-112.28646	0
261	-128.55986	-26.85111	100.89508	77.29865	-115.54114	37.42882	-43.12451	-375.91554	-763.22246	-468.67392	-259.56073	-112.28646	0
262	-123.67784	-29.29212	93.57205	74.85764	-110.65912	32.5468	-52.88855	-385.67958	-768.10448	-466.23291	-254.67871	-112.28646	0
263	-116.35481	-26.85111	88.69003	69.97562	-103.33609	30.10579	-60.21158	-393.00261	-768.10448	-458.90988	-249.79669	-109.84545	0
264	-111.47279	-24.4101	86.24902	67.53461	-100.89508	30.10579	-67.53461	-395.44362	-763.22246	-454.02786	-242.47366	-107.40444	0
265	-109.03178	-26.85111	81.367	67.53461	-96.01306	27.66478	-74.85764	-397.88463	-760.78145	-449.14584	-240.03265	-107.40444	0
266	-104.14976	-26.85111	76.48498	65.0936	-91.13104	25.22377	-82.18067	-400.32564	-753.45842	-441.82281	-237.59164	-107.40444	0
267	-99.26774	-26.85111	71.60296	62.65259	-86.24902	22.78276	-87.06269	-397.88463	-741.25337	-432.05877	-232.70962	-107.40444	0
268	-94.38572	-29.29212	64.27993	60.21158	-81.367	17.90074	-89.5037	-390.5616	-729.04832	-419.85372	-225.38659	-107.40444	0
269	-89.5037	-29.29212	59.39791	57.77057	-76.48498	15.45973	-89.5037	-383.23857	-711.96125	-407.64867	-218.06356	-104.96343	0
270	-82.18067	-29.29212	52.07488	55.32956	-69.16195	10.57771	-91.94471	-373.47453	-692.43317	-393.00261	-210.74053	-102.52242	0
271	-79.73966	-31.73313	47.19286	55.32956	-64.27993	8.1367	-94.38572	-361.26948	-672.90509	-378.35655	-203.4175	-100.08141	0
272	-77.29865	-34.17414	42.31084	55.32956	-61.83892	3.25468	-96.82673	-349.06443	-653.37701	-363.71049	-196.09447	-97.6404	0
273	-72.41663	-36.61515	34.98781	52.88855	-54.51589	-1.62734	-96.82673	-336.85938	-631.40792	-344.18241	-186.33043	-92.75838	0
274	-67.53461	-34.17414	32.5468	50.44754	-52.07488	-1.62734	-96.82673	-322.21332	-604.55681	-329.53635	-174.12538	-87.87636	0
275	-62.65259	-36.61515	25.22377	48.00653	-44.75185	-6.50936	-99.26774	-307.56726	-582.58772	-314.89029	-169.24336	-87.87636	0
276	-60.21158	-34.17414	25.22377	45.56552	-44.75185	-4.06835	-99.26774	-292.9212	-558.17762	-300.24423	-161.92033	-87.87636	0
277	-52.88855	-31.73313	20.34175	40.6835	-37.42882	-6.50936	-96.82673	-278.27514	-533.76752	-283.15716	-152.15629	-85.43535	0
278	-52.88855	-34.17414	17.90074	43.12451	-37.42882	-8.95037	-94.38572	-261.18807	-511.79843	-268.5111	-144.83326	-82.99434	0
279	-52.88855	-36.61515	15.45973	43.12451	-34.98781	-11.39138	-94.38572	-246.54201	-487.38833	-251.42403	-139.95124	-80.55333	0
280	-45.56552	-36.61515	8.1367	40.6835	-27.66478	-13.83239	-91.94471	-231.89595	-462.97823	-234.33696	-130.1872	-80.55333	0
281	-43.12451	-31.73313	10.57771	35.80148	-27.66478	-11.39138	-87.06269	-212.36787	-438.56813	-217.24989	-122.86417	-78.11232	0
282	-40.6835	-29.29212	10.57771	33.36047	-27.66478	-8.95037	-84.62168	-197.72181	-416.59904	-202.60383	-115.54114	-75.67131	0
283	-38.24249	-26.85111	10.57771	30.91946	-25.22377	-8.95037	-82.18067	-183.07575	-394.62995	-185.51676	-105.7771	-68.34828	0
284	-35.80148	-26.85111	8.1367	30.91946	-22.78276	-8.95037	-82.18067	-168.42969	-370.21985	-173.31171	-96.01306	-63.46626	0
285	-35.80148	-26.85111	8.1367	30.91946	-22.78276	-8.95037	-82.18067	-156.22464	-348.25076	-161.10666	-93.57205	-61.02525	0
286	-33.36047	-29.29212	3.25468	30.91946	-20.34175	-13.83239	-82.18067	-144.01959	-328.72268	-151.34262	-88.69003	-61.02525	0
287	-30.91946	-31.73313	-1.62734	30.91946	-15.45973	-17.08707	-82.18067	-134.25555	-306.75359	-139.13757	-83.80801	-61.02525	0
288	-30.91946	-36.61515	-6.50936	33.36047	-13.01872	-21.96909	-77.29865	-122.0505	-289.66652	-129.37353	-78.92599	-61.02525	0
289	-33.36047	-39.05616	-6.50936	35.80148	-15.45973	-24.4101	-77.29865	-114.72747	-267.69743	-119.60949	-74.04397	-61.02525	0
290	-28.47845	-41.49717	-13.83239	33.36047	-8.1367	-29.29212	-72.41663	-102.52242	-245.72834	-107.40444	-66.72094	-58.58424	0
291	-26.03744	-41.49717	-17.08707	33.36047	-5.69569	-29.29212	-67.53461	-90.31737	-228.64127	-95.19939	-59.39791	-56.14323	0
292	-23.59643	-41.49717	-19.52808	30.91946	-3.25468	-31.73313	-62.65259	-78.11232	-209.11319	-82.99434	-52.07488	-53.70222	0
293	-16.2734	-36.61515	-21.96909	26.03744	1.62734	-29.29212	-60.21158	-68.34828	-189.58511	-70.78929	-44.75185	-48.8202	0
294	-11.39138	-34.17414	-24.4101	21.15542	4.06835	-29.29212	-55.32956	-56.14323	-172.49804	-63.46626	-34.98781	-43.93818	0
295	-6.50936	-29.29212	-24.4101	16.2734	6.50936	-26.85111	-52.88855	-48.8202	-155.41097	-53.70222	-30.10579	-41.49717	0
296	-1.62734	-26.85111	-26.85111	13.83239	12.20505	-26.85111	-52.88855	-39.05616	-140.76491	-43.93818	-25.22377	-39.05616	1500	QRS+0
297	1.62734	-24.4101	-26.85111	11.39138	12.20505	-24.4101	-48.00653	-31.73313	-123.67784	-39.05616	-20.34175	-36.61515	0
298	6.50936	-21.96909	-29.29212	8.1367	17.08707	-24.4101	-45.56552	-21.96909	-111.47279	-29.29212	-17.08707	-34.17414	0
299	6.50936	-21.96909	-29.29212	8.1367	17.08707	-24.4101	-43.12451	-19.52808	-99.26774	-24.4101	-14.64606	-34.17414	0
300	6.50936	-24.4101	-31.73313	8.1367	17.08707	-26.85111	-40.6835	-14.64606	-87.06269	-17.08707	-14.64606	-36.61515	0
301	4.06835	-29.29212	-34.17414	11.39138	17.08707	-31.73313	-40.6835	-7.32303	-77.29865	-9.76404	-9.76404	-39.05616	0
302	1.62734	-31.73313	-34.17414	13.83239	17.08707	-31.73313	-38.24249	-2.44101	-67.53461	-4.88202	-9.76404	-39.05616	0
303	-1.62734	-31.73313	-31.73313	16.2734	14.64606	-31.73313	-35.80148	4.88202	-57.77057	2.44101	-7.32303	-39.05616	0
304	-1.62734	-34.17414	-34.17414	16.2734	14.64606	-34.17414	-35.80148	9.76404	-45.56552	4.88202	-4.88202	-39.05616	0
305	-4.06835	-34.17414	-31.73313	18.71441	12.20505	-34.17414	-35.80148	14.64606	-38.24249	7.32303	-4.88202	-41.49717	0
306	-6.50936	-36.61515	-31.73313	21.15542	12.20505	-34.17414	-35.80148	17.08707	-30.91946	9.76404	-4.88202	-41.49717	0
307	-6.50936	-36.61515	-31.73313	21.15542	12.20505	-34.17414	-33.36047	21.96909	-21.15542	12.20505	-2.44101	-41.49717	0
308	-6.50936	-34.17414	-29.29212	18.71441	9.76404	-31.73313	-30.91946	26.85111	-13.83239	12.20505	-2.44101	-41.49717	0
309	-4.06835	-31.73313	-29.29212	16.2734	12.20505	-31.73313	-28.47845	29.29212	-4.06835	14.64606	0	-39.05616	0
310	1.62734	-29.29212	-31.73313	13.83239	14.64606	-29.29212	-23.59643	31.73313	5.69569	19.52808	0	-41.49717	0
311	4.06835	-26.85111	-31.73313	11.39138	17.08707	-29.29212	-21.15542	39.05616	10.57771	21.96909	4.88202	-39.05616	0
312	6.50936	-24.4101	-31.73313	8.1367	17.08707	-26.85111	-16.2734	41.49717	15.45973	25.22377	7.32303	-39.05616	0
313	8.95037	-21.96909	-31.73313	5.69569	19.52808	-26.85111	-13.83239	41.49717	20.34175	30.10579	9.76404	-39.05616	0
314	8.95037	-19.52808	-29.29212	5.69569	17.08707	-24.4101	-11.39138	43.93818	25.22377	32.5468	12.20505	-39.05616	0
315	6.50936	-17.08707	-24.4101	5.69569	14.64606	-19.52808	-11.39138	46.37919	27.66478	34.98781	9.76404	-39.05616	0
316	6.50936	-17.08707	-24.4101	5.69569	14.64606	-19.52808	-11.39138	46.37919	32.5468	37.42882	9.76404	-41.49717	0
317	4.06835	-17.08707	-21.96909	5.69569	12.20505	-19.52808	-8.95037	48.8202	37.42882	37.42882	12.20505	-41.49717	0
318	1.62734	-17.08707	-19.52808	8.1367	9.76404	-17.08707	-8.95037	51.26121	39.86983	34.98781	9.76404	-41.49717	0
319	-1.62734	-17.08707	-17.08707	8.1367	6.50936	-17.08707	-8.95037	51.26121	44.75185	37.42882	7.32303	-41.49717	0
320	-1.62734	-21.96909	-21.96909	11.39138	9.76404	-21.96909	-8.95037	51.26121	49.63387	37.42882	7.32303	-43.93818	0
321	-1.62734	-24.4101	-24.4101	11.39138	9.76404	-24.4101	-6.50936	56.14323	49.63387	39.86983	9.76404	-43.93818	0
322	-1.62734	-24.4101	-24.4101	11.39138	9.76404	-24.4101	-6.50936	56.14323	52.07488	42.31084	9.76404	-41.49717	0
323	1.62734	-24.4101	-26.85111	11.39138	12.20505	-24.4101	-4.06835	56.14323	54.51589	44.75185	9.76404	-39.05616	0
324	1.62734	-26.85111	-29.29212	11.39138	14.64606	-26.85111	-4.06835	56.14323	56.9569	42.31084	12.20505	-39.05616	0
325	-1.62734	-29.29212	-29.29212	13.83239	12.20505	-29.29212	-6.50936	56.14323	56.9569	42.31084	12.20505	-39.05616	0
326	-1.62734	-26.85111	-26.85111	13.83239	12.20505	-26.85111	-8.95037	56.14323	59.39791	42.31084	9.76404	-39.05616	0
327	-1.62734	-24.4101	-24.4101	11.39138	9.76404	-24.4101	-8.95037	53.70222	61.83892	42.31084	9.76404	-39.05616	0
328	-1.62734	-24.4101	-24.4101	11.39138	9.76404	-24.4101	-8.95037	56.14323	61.83892	39.86983	9.76404	-39.05616	0
329	-1.62734	-24.4101	-24.4101	11.39138	9.76404	-24.4101	-11.39138	53.70222	64.27993	39.86983	7.32303	-39.05616	0
330	-1.62734	-24.4101	-24.4101	11.39138	9.76404	-24.4101	-11.39138	53.70222	66.72094	39.86983	7.32303	-41.49717	0
331	1.62734	-24.4101	-26.85111	11.39138	12.20505	-24.4101	-8.95037	53.70222	66.72094	39.86983	7.32303	-39.05616	0
332	1.62734	-24.4101	-26.85111	11.39138	12.20505	-24.4101	-8.95037	53.70222	66.72094	42.31084	7.32303	-39.05616	0
333	4.06835	-21.96909	-26.85111	8.1367	14.64606	-24.4101	-8.95037	53.70222	71.60296	42.31084	9.76404	-39.05616	0
334	8.95037	-19.52808	-29.29212	5.69569	17.08707	-24.4101	-8.95037	53.70222	74.04397	42.31084	12.20505	-36.61515	0
335	6.50936	-19.52808	-26.85111	5.69569	14.64606	-21.96909	-13.83239	53.70222	74.04397	42.31084	9.76404	-36.61515	0
336	6.50936	-19.52808	-26.85111	5.69569	14.64606	-21.96909	-13.83239	53.70222	76.48498	42.31084	9.76404	-36.61515	0
337	6.50936	-17.08707	-24.4101	5.69569	14.64606	-19.52808	-13.83239	56.14323	78.92599	39.86983	9.76404	-36.61515	0
338	6.50936	-19.52808	-26.85111	5.69569	14.64606	-21.96909	-13.83239	58.58424	81.367	37.42882	9.76404	-36.61515	0
339	8.95037	-17.08707	-26.85111	3.25468	17.08707	-21.96909	-16.2734	56.14323	81.367	37.42882	9.76404	-36.61515	0
340	11.39138	-17.08707	-29.29212	3.25468	19.52808	-21.96909	-16.2734	56.14323	83.80801	37.42882	9.76404	-39.05616	0
341	13.83239	-19.52808	-34.17414	3.25468	21.96909	-26.85111	-16.2734	58.58424	83.80801	39.86983	12.20505	-39.05616	0
342	11.39138	-19.52808	-31.73313	3.25468	19.52808	-24.4101	-18.71441	58.58424	83.80801	39.86983	12.20505	-39.05616	0
343	11.39138	-19.52808	-31.73313	3.25468	19.52808	-24.4101	-21.15542	56.14323	83.80801	39.86983	12.20505	-39.05616	0
344	13.83239	-19.52808	-34.17414	3.25468	21.96909	-26.85111	-23.59643	56.14323	86.24902	37.42882	14.64606	-36.61515	0
345	16.2734	-21.96909	-39.05616	3.25468	26.85111	-29.29212	-26.03744	56.14323	86.24902	34.98781	12.20505	-34.17414	0
346	13.83239	-21.96909	-36.61515	3.25468	24.4101	-29.29212	-30.91946	56.14323	86.24902	32.5468	12.20505	-34.17414	0
347	16.2734	-21.96909	-39.05616	3.25468	26.85111	-29.29212	-30.91946	53.70222	88.69003	32.5468	12.20505	-34.17414	0
348	13.83239	-24.4101	-39.05616	5.69569	24.4101	-31.73313	-33.36047	53.70222	88.69003	30.10579	12.20505	-31.73313	0
349	11.39138	-24.4101	-36.61515	5.69569	21.96909	-29.29212	-35.80148	51.26121	91.13104	30.10579	12.20505	-31.73313	0
350	13.83239	-26.85111	-41.49717	5.69569	26.85111	-34.17414	-35.80148	48.8202	96.01306	30.10579	9.76404	-31.73313	0
351	13.83239	-29.29212	-43.93818	8.1367	26.85111	-36.61515	-35.80148	51.26121	96.01306	30.10579	9.76404	-31.73313	0
352	11.39138	-29.29212	-41.49717	8.1367	24.4101	-34.17414	-35.80148	48.8202	96.01306	32.5468	12.20505	-29.29212	0
353	11.39138	-29.29212	-41.49717	8.1367	24.4101	-34.17414	-35.80148	46.37919	96.01306	32.5468	14.64606	-29.29212	0
354	11.39138	-31.73313	-43.93818	8.1367	26.85111	-36.61515	-35.80148	43.93818	96.01306	30.10579	14.64606	-26.85111	0
355	11.39138	-31.73313	-43.93818	8.1367	26.85111	-36.61515	-38.24249	43.93818	98.45407	32.5468	14.64606	-26.85111	0
356	13.83239	-24.4101	-39.05616	5.69569	24.4101	-31.73313	-40.6835	43.93818	101.70875	32.5468	17.08707	-24.4101	0
357	18.71441	-21.96909	-41.49717	0.81367	29.29212	-31.73313	-40.6835	43.93818	104.14976	32.5468	21.96909	-21.96909	0
358	21.15542	-21.96909	-43.93818	0.81367	31.73313	-31.73313	-43.12451	43.93818	106.59077	30.10579	21.96909	-21.96909	0
359	21.15542	-21.96909	-43.93818	0.81367	31.73313	-31.73313	-45.56552	41.49717	111.47279	30.10579	21.96909	-21.96909	0
360	23.59643	-24.4101	-48.8202	0.81367	34.17414	-36.61515	-45.56552	41.49717	116.35481	30.10579	21.96909	-24.4101	0
361	23.59643	-26.85111	-51.26121	0.81367	36.61515	-39.05616	-45.56552	43.93818	116.35481	32.5468	24.4101	-21.96909	0
362	26.03744	-21.96909	-48.8202	-1.62734	36.61515	-34.17414	-43.12451	43.93818	118.79582	34.98781	29.29212	-21.96909	0
363	30.91946	-19.52808	-51.26121	-6.50936	39.05616	-34.17414	-43.12451	46.37919	118.79582	37.42882	31.73313	-19.52808	0
364	30.91946	-19.52808	-51.26121	-6.50936	39.05616	-34.17414	-43.12451	46.37919	121.23683	39.86983	34.17414	-19.52808	0
365	30.91946	-19.52808	-51.26121	-6.50936	39.05616	-34.17414	-45.56552	46.37919	118.79582	39.86983	34.17414	-19.52808	0
366	30.91946	-19.52808	-51.26121	-6.50936	39.05616	-34.17414	-48.00653	43.93818	118.79582	37.42882	31.73313	-17.08707	0
367	30.91946	-17.08707	-48.8202	-6.50936	39.05616	-31.73313	-50.44754	43.93818	118.79582	34.98781	34.17414	-17.08707	0
368	33.36047	-13.83239	-48.8202	-8.95037	41.49717	-31.73313	-50.44754	43.93818	118.79582	32.5468	31.73313	-17.08707	0
369	38.24249	-11.39138	-51.26121	-13.83239	43.93818	-31.73313	-52.88855	41.49717	121.23683	32.5468	29.29212	-17.08707	0
370	38.24249	-11.39138	-51.26121	-13.83239	43.93818	-31.73313	-52.88855	41.49717	123.67784	32.5468	29.29212	-17.08707	0
371	35.80148	-13.83239	-51.26121	-11.39138	43.93818	-31.73313	-52.88855	41.49717	123.67784	32.5468	26.85111	-19.52808	0
372	33.36047	-17.08707	-51.26121	-8.95037	41.49717	-34.17414	-52.88855	39.05616	121.23683	30.10579	26.85111	-21.96909	0
373	33.36047	-19.52808	-53.70222	-6.50936	41.49717	-36.61515	-55.32956	36.61515	121.23683	30.10579	26.85111	-19.52808	0
374	33.36047	-19.52808	-53.70222	-6.50936	41.49717	-36.61515	-55.32956	39.05616	121.23683	32.5468	26.85111	-19.52808	0
375	30.91946	-17.08707	-48.8202	-6.50936	39.05616	-31.73313	-55.32956	39.05616	118.79582	32.5468	29.29212	-17.08707	0
376	30.91946	-17.08707	-48.8202	-6.50936	39.05616	-31.73313	-55.32956	39.05616	121.23683	32.5468	31.73313	-17.08707	0
377	30.91946	-17.08707	-48.8202	-6.50936	39.05616	-31.73313	-57.77057	39.05616	121.23683	30.10579	31.73313	-14.64606	0
378	30.91946	-13.83239	-46.37919	-8.95037	39.05616	-29.29212	-60.21158	36.61515	118.79582	27.66478	31.73313	-14.64606	0
379	33.36047	-11.39138	-46.37919	-11.39138	39.05616	-29.29212	-62.65259	34.17414	118.79582	21.96909	31.73313	-14.64606	0
380	35.80148	-11.39138	-48.8202	-11.39138	41.49717	-29.29212	-62.65259	31.73313	121.23683	21.96909	31.73313	-14.64606	0
381	33.36047	-13.83239	-48.8202	-8.95037	41.49717	-31.73313	-62.65259	31.73313	121.23683	21.96909	31.73313	-14.64606	0
382	33.36047	-17.08707	-51.26121	-8.95037	41.49717	-34.17414	-62.65259	29.29212	118.79582	21.96909	31.73313	-14.64606	0
383	28.47845	-19.52808	-48.8202	-4.06835	36.61515	-34.17414	-62.65259	26.85111	116.35481	19.52808	31.73313	-14.64606	0
384	28.47845	-21.96909	-51.26121	-4.06835	39.05616	-36.61515	-62.65259	26.85111	116.35481	19.52808	31.73313	-14.64606	0
385	26.03744	-24.4101	-51.26121	-1.62734	36.61515	-36.61515	-62.65259	26.85111	113.9138	19.52808	34.17414	-14.64606	0
386	26.03744	-21.96909	-48.8202	-1.62734	36.61515	-34.17414	-62.65259	24.4101	113.9138	19.52808	34.17414	-11.39138	0
387	26.03744	-24.4101	-51.26121	-1.62734	36.61515	-36.61515	-62.65259	24.4101	113.9138	17.08707	34.17414	-11.39138	0
388	28.47845	-21.96909	-51.26121	-4.06835	39.05616	-36.61515	-62.65259	24.4101	113.9138	14.64606	34.17414	-11.39138	-1500	QRS-0
389	30.91946	-21.96909	-53.70222	-4.06835	41.49717	-36.61515	-65.0936	24.4101	116.35481	14.64606	31.73313	-11.39138	0
390	30.91946	-21.96909	-53.70222	-4.06835	41.49717	-36.61515	-62.65259	24.4101	118.79582	17.08707	31.73313	-14.64606	0
391	30.91946	-21.96909	-53.70222	-4.06835	41.49717	-36.61515	-62.65259	24.4101	118.79582	17.08707	31.73313	-14.64606	0
392	33.36047	-21.96909	-56.14323	-6.50936	43.93818	-39.05616	-62.65259	21.96909	118.79582	17.08707	29.29212	-14.64606	0
393	35.80148	-24.4101	-61.02525	-6.50936	46.37919	-41.49717	-65.0936	21.96909	118.79582	17.08707	29.29212	-14.64606	0
394	35.80148	-24.4101	-61.02525	-6.50936	46.37919	-41.49717	-65.0936	21.96909	121.23683	17.08707	29.29212	-14.64606	0
395	35.80148	-24.4101	-61.02525	-6.50936	46.37919	-41.49717	-65.0936	21.96909	121.23683	19.52808	31.73313	-14.64606	0
396	35.80148	-21.96909	-58.58424	-6.50936	46.37919	-39.05616	-62.65259	21.96909	121.23683	21.96909	31.73313	-8.95037	0
397	35.80148	-21.96909	-58.58424	-6.50936	46.37919	-39.05616	-65.0936	21.96909	121.23683	21.96909	34.17414	-8.95037	0
398	33.36047	-21.96909	-56.14323	-6.50936	43.93818	-39.05616	-67.53461	21.96909	121.23683	19.52808	34.17414	-8.95037	0
399	35.80148	-19.52808	-56.14323	-8.95037	43.93818	-36.61515	-69.97562	19.52808	126.11885	19.52808	31.73313	-8.95037	0
400	35.80148	-19.52808	-56.14323	-8.95037	43.93818	-36.61515	-69.97562	19.52808	128.55986	21.96909	34.17414	-8.95037	0
401	33.36047	-19.52808	-53.70222	-6.50936	41.49717	-36.61515	-69.97562	24.4101	128.55986	21.96909	36.61515	-8.95037	0
402	33.36047	-19.52808	-53.70222	-6.50936	41.49717	-36.61515	-69.97562	21.96909	131.00087	25.22377	36.61515	-6.50936	0
403	30.91946	-21.96909	-53.70222	-4.06835	41.49717	-36.61515	-69.97562	21.96909	131.00087	25.22377	36.61515	-6.50936	0
404	30.91946	-24.4101	-56.14323	-4.06835	41.49717	-39.05616	-72.41663	21.96909	131.00087	25.22377	36.61515	-8.95037	0
405	28.47845	-29.29212	-58.58424	0.81367	41.49717	-43.93818	-74.85764	19.52808	131.00087	25.22377	36.61515	-11.39138	0
406	28.47845	-29.29212	-58.58424	0.81367	41.49717	-43.93818	-77.29865	19.52808	131.00087	25.22377	36.61515	-11.39138	0
407	28.47845	-29.29212	-58.58424	0.81367	41.49717	-43.93818	-77.29865	21.96909	133.44188	21.96909	39.05616	-11.39138	0
408	26.03744	-31.73313	-58.58424	3.25468	41.49717	-43.93818	-79.73966	21.96909	133.44188	21.96909	36.61515	-11.39138	0
409	23.59643	-31.73313	-56.14323	3.25468	39.05616	-43.93818	-79.73966	21.96909	135.88289	21.96909	34.17414	-14.64606	0
410	26.03744	-31.73313	-58.58424	3.25468	41.49717	-43.93818	-79.73966	21.96909	138.3239	21.96909	34.17414	-14.64606	0
411	30.91946	-26.85111	-58.58424	-1.62734	43.93818	-41.49717	-79.73966	24.4101	138.3239	21.96909	34.17414	-17.08707	0
412	33.36047	-21.96909	-56.14323	-6.50936	43.93818	-39.05616	-77.29865	24.4101	140.76491	21.96909	36.61515	-17.08707	0
413	33.36047	-21.96909	-56.14323	-6.50936	43.93818	-39.05616	-74.85764	24.4101	143.20592	21.96909	36.61515	-14.64606	0
414	38.24249	-17.08707	-56.14323	-11.39138	46.37919	-36.61515	-74.85764	26.85111	145.64693	25.22377	39.05616	-14.64606	0
415	43.12451	-17.08707	-61.02525	-13.83239	51.26121	-39.05616	-72.41663	26.85111	145.64693	27.66478	41.49717	-14.64606	0
416	45.56552	-11.39138	-58.58424	-16.2734	51.26121	-34.17414	-72.41663	29.29212	148.08794	30.10579	41.49717	-14.64606	0
417	48.00653	-8.95037	-58.58424	-18.71441	53.70222	-34.17414	-72.41663	29.29212	150.52895	30.10579	43.93818	-11.39138	0
418	50.44754	-8.95037	-61.02525	-21.15542	56.14323	-34.17414	-72.41663	31.73313	152.96996	30.10579	43.93818	-11.39138	0
419	48.00653	-13.83239	-63.46626	-16.2734	56.14323	-39.05616	-72.41663	31.73313	155.41097	30.10579	43.93818	-11.39138	0
420	48.00653	-17.08707	-65.90727	-16.2734	56.14323	-41.49717	-72.41663	31.73313	157.85198	32.5468	43.93818	-14.64606	0
421	48.00653	-19.52808	-68.34828	-13.83239	56.14323	-43.93818	-72.41663	34.17414	157.85198	34.98781	43.93818	-14.64606	0
422	48.00653	-17.08707	-65.90727	-16.2734	56.14323	-41.49717	-72.41663	34.17414	160.29299	37.42882	48.8202	-14.64606	0
423	48.00653	-19.52808	-68.34828	-13.83239	56.14323	-43.93818	-72.41663	34.17414	160.29299	39.86983	48.8202	-14.64606	0
424	48.00653	-19.52808	-68.34828	-13.83239	56.14323	-43.93818	-69.97562	36.61515	160.29299	42.31084	51.26121	-11.39138	0
425	48.00653	-19.52808	-68.34828	-13.83239	56.14323	-43.93818	-69.97562	39.05616	160.29299	47.19286	53.70222	-11.39138	0
426	48.00653	-17.08707	-65.90727	-16.2734	56.14323	-41.49717	-69.97562	39.05616	160.29299	49.63387	56.14323	-8.95037	0
427	45.56552	-17.08707	-63.46626	-13.83239	53.70222	-39.05616	-69.97562	41.49717	162.734	49.63387	56.14323	-8.95037	0
428	45.56552	-17.08707	-63.46626	-13.83239	53.70222	-39.05616	-69.97562	41.49717	162.734	49.63387	56.14323	-8.95037	0
429	45.56552	-13.83239	-61.02525	-16.2734	53.70222	-36.61515	-72.41663	43.93818	165.17501	52.07488	53.70222	-8.95037	0
430	43.12451	-17.08707	-61.02525	-13.83239	51.26121	-39.05616	-69.97562	43.93818	170.05703	54.51589	56.14323	-11.39138	0
431	40.6835	-13.83239	-56.14323	-13.83239	48.8202	-34.17414	-67.53461	48.8202	172.49804	59.39791	56.14323	-11.39138	0
432	40.6835	-8.95037	-51.26121	-16.2734	46.37919	-29.29212	-62.65259	51.26121	177.38006	64.27993	61.02525	-6.50936	0
433	43.12451	-4.06835	-48.8202	-18.71441	46.37919	-26.85111	-57.77057	58.58424	182.26208	69.16195	63.46626	-4.06835	0
434	45.56552	5.69569	-41.49717	-26.03744	43.93818	-17.08707	-50.44754	63.46626	187.1441	76.48498	68.34828	0.81367	0
435	48.00653	10.57771	-39.05616	-28.47845	43.93818	-13.83239	-45.56552	70.78929	189.58511	83.80801	73.2303	3.25468	0
436	48.00653	20.34175	-29.29212	-33.36047	39.05616	-4.06835	-38.24249	75.67131	196.90814	91.13104	78.11232	8.1367	0
437	50.44754	27.66478	-24.4101	-38.24249	36.61515	3.25468	-33.36047	82.99434	201.79016	96.01306	82.99434	10.57771	0
438	52.88855	34.98781	-19.52808	-43.12451	36.61515	8.1367	-28.47845	90.31737	206.67218	100.89508	85.43535	13.01872	0
439	57.77057	44.75185	-13.83239	-50.44754	36.61515	15.45973	-23.59643	92.75838	213.99521	105.7771	85.43535	17.90074	0
440	60.21158	49.63387	-11.39138	-55.32956	36.61515	20.34175	-18.71441	98.45407	218.87723	113.10013	90.31737	17.90074	0
441	65.0936	54.51589	-11.39138	-60.21158	39.05616	22.78276	-13.83239	105.7771	221.31824	117.98215	92.75838	20.34175	0
442	67.53461	59.39791	-8.95037	-62.65259	39.05616	25.22377	-11.39138	108.21811	228.64127	122.86417	95.19939	20.34175	0
443	72.41663	66.72094	-6.50936	-69.97562	39.05616	30.10579	-8.95037	115.54114	235.9643	127.74619	100.08141	25.22377	0
444	82.18067	71.60296	-11.39138	-77.29865	46.37919	30.10579	-6.50936	122.86417	240.84632	132.62821	104.96343	27.66478	0
445	84.62168	76.48498	-8.95037	-79.73966	46.37919	34.98781	-4.06835	127.74619	245.72834	139.95124	109.84545	32.5468	0
446	87.06269	83.80801	-4.06835	-84.62168	46.37919	39.86983	-4.06835	132.62821	250.61036	144.83326	114.72747	37.42882	0
447	89.5037	88.69003	-1.62734	-89.5037	46.37919	44.75185	-4.06835	132.62821	255.49238	149.71528	119.60949	39.86983	0
448	89.5037	96.01306	5.69569	-91.94471	41.49717	52.07488	-11.39138	132.62821	260.3744	149.71528	122.0505	42.31084	0
449	91.94471	100.89508	8.1367	-96.82673	41.49717	54.51589	-18.71441	132.62821	265.25642	154.5973	122.0505	44.75185	0
450	94.38572	103.33609	8.1367	-99.26774	43.93818	56.9569	-23.59643	127.74619	270.13844	159.47932	124.49151	44.75185	0
451	89.5037	100.89508	10.57771	-94.38572	39.05616	56.9569	-33.36047	122.86417	265.25642	159.47932	124.49151	44.75185	0
452	89.5037	100.89508	10.57771	-94.38572	39.05616	56.9569	-45.56552	115.54114	265.25642	159.47932	124.49151	44.75185	0
453	94.38572	103.33609	8.1367	-99.26774	43.93818	56.9569	-55.32956	110.65912	265.25642	159.47932	124.49151	44.75185	0
454	99.26774	105.7771	5.69569	-101.70875	46.37919	56.9569	-65.0936	105.7771	265.25642	161.92033	124.49151	44.75185	0
455	99.26774	105.7771	5.69569	-101.70875	46.37919	56.9569	-74.85764	103.33609	262.81541	164.36134	126.93252	47.19286	0
456	99.26774	105.7771	5.69569	-101.70875	46.37919	56.9569	-82.18067	98.45407	262.81541	166.80235	129.37353	52.07488	0
457	96.82673	105.7771	8.1367	-101.70875	43.93818	56.9569	-89.5037	96.01306	260.3744	166.80235	129.37353	52.07488	0
458	96.82673	108.21811	10.57771	-101.70875	43.93818	59.39791	-99.26774	92.75838	257.93339	164.36134	129.37353	54.51589	0
459	99.26774	113.10013	13.01872	-106.59077	43.93818	64.27993	-104.14976	92.75838	257.93339	166.80235	129.37353	56.9569	0
460	101.70875	115.54114	13.01872	-109.03178	43.93818	64.27993	-106.59077	90.31737	257.93339	169.24336	131.81454	56.9569	0
461	101.70875	115.54114	13.01872	-109.03178	43.93818	64.27993	-106.59077	90.31737	255.49238	171.68437	134.25555	56.9569	0
462	101.70875	115.54114	13.01872	-109.03178	43.93818	64.27993	-109.03178	87.87636	255.49238	174.12538	134.25555	59.39791	0
463	106.59077	115.54114	8.1367	-111.47279	48.8202	61.83892	-111.47279	85.43535	253.05137	174.12538	134.25555	59.39791	0
464	113.9138	113.10013	-1.62734	-113.9138	58.58424	56.9569	-111.47279	82.99434	250.61036	174.12538	134.25555	56.9569	0
465	116.35481	108.21811	-8.95037	-111.47279	63.46626	49.63387	-111.47279	82.99434	245.72834	171.68437	131.81454	54.51589	0
466	118.79582	105.7771	-13.83239	-111.47279	65.90727	47.19286	-106.59077	82.99434	243.28733	171.68437	129.37353	54.51589	0
467	118.79582	98.45407	-21.96909	-109.03178	70.78929	39.86983	-101.70875	82.99434	240.84632	166.80235	126.93252	52.07488	0
468	116.35481	91.13104	-26.85111	-104.14976	70.78929	32.5468	-99.26774	82.99434	240.84632	161.92033	119.60949	47.19286	0
469	113.9138	83.80801	-31.73313	-99.26774	73.2303	27.66478	-94.38572	85.43535	238.40531	161.92033	114.72747	42.31084	0
470	111.47279	76.48498	-36.61515	-94.38572	73.2303	20.34175	-87.06269	87.87636	240.84632	161.92033	114.72747	39.86983	0
471	101.70875	66.72094	-36.61515	-84.62168	68.34828	15.45973	-82.18067	92.75838	238.40531	159.47932	109.84545	34.98781	0
472	91.94471	54.51589	-39.05616	-72.41663	65.90727	8.1367	-77.29865	92.75838	235.9643	157.03831	107.40444	27.66478	0
473	84.62168	42.31084	-43.93818	-62.65259	63.46626	0.81367	-72.41663	92.75838	235.9643	154.5973	100.08141	20.34175	0
474	77.29865	30.10579	-48.8202	-52.88855	63.46626	-8.95037	-65.0936	92.75838	231.08228	152.15629	95.19939	13.01872	0
475	67.53461	20.34175	-48.8202	-43.12451	58.58424	-13.83239	-62.65259	96.01306	226.20026	149.71528	90.31737	5.69569	0
476	60.21158	10.57771	-51.26121	-35.80148	56.14323	-19.52808	-57.77057	96.01306	223.75925	144.83326	82.99434	0.81367	0
477	50.44754	-1.62734	-53.70222	-23.59643	51.26121	-26.85111	-55.32956	92.75838	218.87723	137.51023	75.67131	-6.50936	0
478	40.6835	-17.08707	-58.58424	-11.39138	48.8202	-36.61515	-55.32956	90.31737	213.99521	127.74619	65.90727	-14.64606	0
479	30.91946	-26.85111	-58.58424	-1.62734	43.93818	-41.49717	-55.32956	87.87636	206.67218	120.42316	53.70222	-24.4101	0
480	26.03744	-39.05616	-65.90727	5.69569	43.93818	-51.26121	-55.32956	85.43535	204.23117	113.10013	46.37919	-31.73313	0
481	21.15542	-46.37919	-68.34828	11.39138	43.93818	-56.14323	-52.88855	85.43535	194.46713	110.65912	41.49717	-36.61515	0
482	21.15542	-48.8202	-70.78929	13.83239	43.93818	-58.58424	-50.44754	80.55333	192.02612	108.21811	39.05616	-39.05616	0
483	18.71441	-53.70222	-73.2303	16.2734	43.93818	-63.46626	-48.00653	78.11232	189.58511	105.7771	36.61515	-41.49717	0
484	21.15542	-56.14323	-78.11232	16.2734	48.8202	-65.90727	-45.56552	78.11232	184.70309	103.33609	34.17414	-43.93818	0
485	23.59643	-56.14323	-80.55333	16.2734	51.26121	-68.34828	-43.12451	78.11232	182.26208	103.33609	31.73313	-46.37919	0
486	23.59643	-53.70222	-78.11232	13.83239	48.8202	-65.90727	-43.12451	78.11232	177.38006	103.33609	31.73313	-46.37919	0
487	23.59643	-53.70222	-78.11232	13.83239	48.8202	-65.90727	-40.6835	78.11232	177.38006	103.33609	29.29212	-48.8202	0
488	26.03744	-51.26121	-78.11232	11.39138	51.26121	-63.46626	-40.6835	78.11232	177.38006	100.89508	29.29212	-48.8202	0
489	26.03744	-48.8202	-75.67131	11.39138	48.8202	-61.02525	-40.6835	78.11232	177.38006	100.89508	26.85111	-48.8202	0
490	23.59643	-51.26121	-75.67131	13.83239	48.8202	-63.46626	-38.24249	80.55333	179.82107	100.89508	26.85111	-51.26121	0
491	18.71441	-56.14323	-75.67131	18.71441	46.37919	-65.90727	-38.24249	80.55333	177.38006	100.89508	24.4101	-51.26121	0
492	16.2734	-58.58424	-75.67131	21.15542	43.93818	-65.90727	-38.24249	80.55333	174.93905	100.89508	24.4101	-53.70222	0
493	16.2734	-58.58424	-75.67131	21.15542	43.93818	-65.90727	-35.80148	80.55333	174.93905	100.89508	21.96909	-53.70222	0
494	16.2734	-63.46626	-80.55333	23.59643	46.37919	-70.78929	-35.80148	80.55333	172.49804	103.33609	21.96909	-56.14323	0
495	13.83239	-63.46626	-78.11232	23.59643	43.93818	-70.78929	-30.91946	82.99434	172.49804	103.33609	21.96909	-56.14323	0
496	11.39138	-63.46626	-75.67131	26.03744	41.49717	-68.34828	-28.47845	82.99434	170.05703	105.7771	24.4101	-53.70222	0
497	11.39138	-63.46626	-75.67131	26.03744	41.49717	-68.34828	-26.03744	82.99434	167.61602	103.33609	24.4101	-53.70222	0
498	6.50936	-65.90727	-73.2303	28.47845	39.05616	-68.34828	-26.03744	80.55333	167.61602	100.89508	21.96909	-58.58424	0
499	6.50936	-65.90727	-73.2303	28.47845	39.05616	-68.34828	-21.15542	80.55333	167.61602	98.45407	17.08707	-61.02525	0
500	8.95037	-65.90727	-75.67131	28.47845	41.49717	-70.78929	-16.2734	80.55333	167.61602	98.45407	17.08707	-61.02525	0
501	11.39138	-65.90727	-78.11232	26.03744	43.93818	-70.78929	-11.39138	80.55333	162.734	98.45407	17.08707	-61.02525	0
502	11.39138	-65.90727	-78.11232	26.03744	43.93818	-70.78929	-6.50936	78.11232	162.734	98.45407	17.08707	-61.02525	0
503	11.39138	-65.90727	-78.11232	26.03744	43.93818	-70.78929	-1.62734	78.11232	165.17501	100.89508	14.64606	-61.02525	0
504	11.39138	-65.90727	-78.11232	26.03744	43.93818	-70.78929	0.81367	78.11232	165.17501	100.89508	14.64606	-61.02525	0
505	11.39138	-65.90727	-78.11232	26.03744	43.93818	-70.78929	3.25468	78.11232	165.17501	100.89508	14.64606	-61.02525	0
506	6.50936	-63.46626	-70.78929	28.47845	36.61515	-65.90727	5.69569	78.11232	165.17501	103.33609	17.08707	-61.02525	0
507	6.50936	-65.90727	-73.2303	28.47845	39.05616	-68.34828	8.1367	78.11232	165.17501	100.89508	17.08707	-61.02525	0
508	4.06835	-68.34828	-73.2303	30.91946	36.61515	-70.78929	8.1367	78.11232	165.17501	98.45407	14.64606	-63.46626	0
509	1.62734	-68.34828	-70.78929	33.36047	34.17414	-68.34828	5.69569	75.67131	165.17501	96.01306	12.20505	-65.90727	0
510	-1.62734	-70.78929	-70.78929	35.80148	34.17414	-70.78929	8.1367	73.2303	165.17501	96.01306	9.76404	-68.34828	0
511	-1.62734	-70.78929	-70.78929	35.80148	34.17414	-70.78929	10.57771	73.2303	165.17501	96.01306	9.76404	-70.78929	0
512	-4.06835	-70.78929	-68.34828	35.80148	31.73313	-70.78929	10.57771	70.78929	165.17501	93.57205	9.76404	-70.78929	0
513	-4.06835	-73.2303	-70.78929	38.24249	31.73313	-73.2303	10.57771	70.78929	167.61602	93.57205	9.76404	-73.2303	0
514	-1.62734	-73.2303	-73.2303	35.80148	34.17414	-73.2303	10.57771	70.78929	167.61602	93.57205	9.76404	-70.78929	0
515	-1.62734	-73.2303	-73.2303	35.80148	34.17414	-73.2303	13.01872	70.78929	167.61602	96.01306	9.76404	-70.78929	0
516	-1.62734	-70.78929	-70.78929	35.80148	34.17414	-70.78929	13.01872	75.67131	167.61602	98.45407	12.20505	-68.34828	0
517	-1.62734	-70.78929	-70.78929	35.80148	34.17414	-70.78929	15.45973	78.11232	172.49804	96.01306	12.20505	-68.34828	0
518	4.06835	-70.78929	-75.67131	33.36047	39.05616	-73.2303	10.57771	80.55333	172.49804	93.57205	9.76404	-68.34828	0
519	6.50936	-68.34828	-75.67131	30.91946	39.05616	-70.78929	5.69569	78.11232	167.61602	91.13104	4.88202	-68.34828	0
520	8.95037	-68.34828	-78.11232	28.47845	41.49717	-73.2303	-1.62734	65.90727	160.29299	88.69003	4.88202	-68.34828	0
521	11.39138	-61.02525	-73.2303	23.59643	41.49717	-65.90727	-11.39138	51.26121	148.08794	96.01306	-12.20505	-63.46626	0
522	21.15542	-63.46626	-85.43535	21.15542	51.26121	-73.2303	-26.03744	29.29212	138.3239	83.80801	-37.42882	-80.55333	0
523	30.91946	-56.14323	-87.87636	11.39138	58.58424	-70.78929	-26.03744	26.85111	135.88289	86.24902	-22.78276	-61.02525	0
524	40.6835	-36.61515	-78.11232	-1.62734	58.58424	-56.14323	-55.32956	-26.85111	104.14976	76.48498	12.20505	-39.05616	0
525	60.21158	-4.06835	-65.90727	-28.47845	63.46626	-34.17414	-101.70875	-68.34828	86.24902	96.01306	48.8202	3.25468	0
526	67.53461	-8.95037	-78.11232	-28.47845	73.2303	-43.93818	-128.55986	-117.16848	93.57205	115.54114	85.43535	22.78276	0
527	82.18067	-17.08707	-100.08141	-33.36047	90.31737	-58.58424	-145.64693	-122.0505	44.75185	113.10013	100.08141	27.66478	0
528	91.94471	-13.83239	-107.40444	-38.24249	100.08141	-61.02525	-152.96996	-131.81454	32.5468	132.62821	117.16848	25.22377	0
529	109.03178	8.1367	-102.52242	-57.77057	104.96343	-46.37919	-157.85198	-114.72747	162.734	203.4175	161.10666	47.19286	0
530	145.64693	42.31084	-104.96343	-94.38572	124.49151	-31.73313	-133.44188	-104.96343	143.20592	305.93992	224.57292	93.57205	0
531	196.90814	117.98215	-80.55333	-157.85198	139.13757	20.34175	-152.96996	-136.69656	223.75925	435.31345	331.97736	161.92033	0
532	277.46147	276.6478	-1.62734	-277.46147	139.13757	137.51023	-199.34915	-173.31171	338.48672	613.50718	468.67392	298.61689	0
533	379.98389	437.75446	56.9569	-409.27601	161.10666	247.35568	-309.1946	-295.36221	441.00914	818.55202	651.74967	464.60557	0
534	504.4754	606.18415	100.89508	-555.73661	202.60383	354.76012	-492.27035	-444.26382	580.14671	1038.24292	883.64562	652.56334	0
535	633.84893	789.2599	154.5973	-711.96125	239.21898	471.9286	-729.04832	-673.71876	631.40792	1257.93382	1139.95167	891.78232	0
536	765.66347	935.7205	169.24336	-851.09882	297.80322	552.48193	-943.8572	-954.43491	636.28994	1423.9225	1352.31954	1074.85807	0
537	814.48367	1113.91423	298.61689	-963.38528	258.74706	706.26556	-1117.16891	-1176.56682	655.81802	1592.35219	1567.12842	1257.93382	0
538	765.66347	1245.72877	479.25163	-1004.88245	144.01959	862.4902	-1183.07618	-1493.89812	545.97257	1582.58815	1640.35872	1348.25119	0
539	587.46974	1155.4114	567.12799	-870.6269	9.76404	862.4902	-1158.66608	-1867.37265	221.31824	1331.16412	1491.45711	1238.40574	0
540	350.69177	840.52111	489.01567	-594.79277	-69.16195	664.76839	-995.11841	-2082.18153	-184.70309	862.4902	1093.57248	913.75141	0
541	111.47279	603.74314	491.45668	-358.0148	-191.21245	547.59991	-855.98084	-2328.72354	-687.55115	337.67305	703.01088	618.3892	0
542	-82.18067	410.90335	491.45668	-165.17501	-286.41184	449.95951	-831.57074	-2611.8807	-1373.47496	-302.68524	239.21898	320.58598	0
543	-199.34915	276.6478	474.36961	-38.24249	-337.67305	374.2882	-863.30387	-2824.24857	-2025.22463	-937.34784	-198.53548	66.72094	0
544	-296.98955	247.35568	542.71789	23.59643	-420.66739	393.81628	-868.18589	-2934.09402	-2393.81714	-1264.44318	-401.13931	-41.49717	0
545	-355.57379	220.50457	574.45102	67.53461	-464.60557	396.25729	-882.83195	-2921.88897	-2520.74966	-1410.90378	-540.27688	-109.84545	0
546	-343.36874	208.29952	550.04092	67.53461	-447.5185	379.17022	-1000.00043	-2895.03786	-2471.92946	-1410.90378	-562.24597	-117.16848	0
547	-333.6047	198.53548	530.51284	67.53461	-432.87244	364.52416	-1146.46103	-2755.90029	-2332.79189	-1340.11449	-557.36395	-117.16848	0
548	-343.36874	125.30518	467.04658	109.03178	-406.02133	296.17588	-1209.92729	-2563.0605	-2144.83412	-1259.56116	-547.59991	-141.57858	0
549	-318.95864	64.27993	381.61123	126.11885	-349.8781	222.94558	-1163.5481	-2328.72354	-1937.34827	-1164.36177	-520.7488	-151.34262	0
550	-282.34349	37.42882	318.14497	121.23683	-301.0579	176.56639	-1053.70265	-2045.56638	-1690.80626	-1037.42925	-471.9286	-158.66565	0
551	-253.05137	22.78276	274.20679	113.9138	-264.44275	147.27427	-936.53417	-1794.14235	-1485.76142	-932.46582	-432.87244	-185.51676	0
552	-243.28733	37.42882	279.08881	101.70875	-262.00174	157.03831	-814.48367	-1554.92337	-1292.92163	-805.5333	-401.13931	-190.39878	0
553	-221.31824	78.92599	298.61689	69.97562	-259.56073	188.77144	-685.11014	-1330.35045	-1109.84588	-666.39573	-366.96517	-173.31171	0
554	-194.46713	78.92599	271.76578	57.77057	-232.70962	174.12538	-577.7057	-1117.98258	-936.53417	-556.55028	-332.79103	-170.8707	0
555	-172.49804	76.48498	247.35568	48.00653	-210.74053	161.92033	-489.82934	-927.5838	-780.30953	-471.11493	-298.61689	-168.42969	0
556	-152.96996	71.60296	222.94558	40.6835	-188.77144	147.27427	-431.2451	-812.85633	-631.40792	-405.20766	-259.56073	-163.54767	0
557	-135.88289	61.83892	196.09447	35.80148	-166.80235	127.74619	-365.33783	-668.83674	-536.20853	-349.06443	-244.91467	-158.66565	0
558	-118.79582	52.07488	169.24336	33.36047	-144.83326	110.65912	-277.46147	-529.69917	-421.48106	-285.59817	-222.94558	-153.78363	0
559	-101.70875	37.42882	137.51023	30.91946	-120.42316	86.24902	-196.90814	-390.5616	-309.1946	-231.89595	-196.09447	-151.34262	0
560	-89.5037	22.78276	110.65912	33.36047	-100.89508	66.72094	-143.20592	-285.59817	-218.87723	-200.16282	-179.0074	-148.90161	0
561	-77.29865	8.1367	83.80801	33.36047	-81.367	44.75185	-89.5037	-185.51676	-143.20592	-163.54767	-149.71528	-141.57858	0
562	-67.53461	-8.95037	56.9569	38.24249	-61.83892	22.78276	-45.56552	-100.08141	-72.41663	-102.52242	-120.42316	-139.13757	0
563	-60.21158	-19.52808	39.86983	38.24249	-52.07488	10.57771	-1.62734	-39.05616	-23.59643	-43.93818	-105.7771	-136.69656	0
564	-52.88855	-29.29212	22.78276	40.6835	-39.86983	-4.06835	30.91946	19.52808	10.57771	-12.20505	-91.13104	-131.81454	0
565	-48.00653	-36.61515	10.57771	40.6835	-30.10579	-13.83239	35.80148	56.14323	37.42882	9.76404	-81.367	-129.37353	0
566	-43.12451	-41.49717	0.81367	40.6835	-22.78276	-21.96909	35.80148	53.70222	74.04397	19.52808	-71.60296	-126.93252	0
567	-40.6835	-48.8202	-8.95037	43.12451	-17.90074	-29.29212	38.24249	90.31737	78.92599	37.42882	-61.83892	-126.93252	0
568	-35.80148	-51.26121	-17.08707	43.12451	-10.57771	-34.17414	48.00653	108.21811	101.70875	47.19286	-56.9569	-126.93252	0
569	-33.36047	-53.70222	-21.96909	43.12451	-8.1367	-39.05616	52.88855	122.86417	123.67784	52.07488	-56.9569	-126.93252	0
570	-28.47845	-58.58424	-31.73313	43.12451	-0.81367	-46.37919	62.65259	142.39225	157.85198	54.51589	-52.07488	-129.37353	0
571	-23.59643	-58.58424	-36.61515	40.6835	4.06835	-48.8202	69.97562	176.56639	179.82107	66.72094	-47.19286	-129.37353	0
572	-21.15542	-61.02525	-41.49717	40.6835	9.76404	-51.26121	79.73966	200.97649	174.93905	78.92599	-42.31084	-129.37353	0
573	-16.2734	-61.02525	-46.37919	38.24249	14.64606	-53.70222	87.06269	208.29952	192.02612	91.13104	-37.42882	-126.93252	0
574	-13.83239	-63.46626	-51.26121	38.24249	17.08707	-58.58424	94.38572	225.38659	204.23117	100.89508	-34.98781	-126.93252	0
575	-11.39138	-65.90727	-56.14323	38.24249	21.96909	-61.02525	99.26774	240.03265	216.43622	110.65912	-32.5468	-126.93252	0
576	-8.95037	-68.34828	-61.02525	38.24249	24.4101	-65.90727	104.14976	252.2377	226.20026	120.42316	-30.10579	-124.49151	0
577	-6.50936	-70.78929	-65.90727	38.24249	29.29212	-68.34828	109.03178	264.44275	238.40531	125.30518	-25.22377	-124.49151	0
578	-4.06835	-73.2303	-70.78929	38.24249	31.73313	-73.2303	111.47279	274.20679	248.16935	127.74619	-25.22377	-124.49151	0
579	-4.06835	-75.67131	-73.2303	38.24249	34.17414	-75.67131	116.35481	283.97083	257.93339	132.62821	-22.78276	-124.49151	0
580	-1.62734	-78.11232	-78.11232	38.24249	36.61515	-78.11232	121.23683	293.73487	265.25642	139.95124	-20.34175	-124.49151	0
581	-1.62734	-78.11232	-78.11232	38.24249	36.61515	-78.11232	126.11885	303.49891	267.69743	147.27427	-20.34175	-119.60949	0
582	-1.62734	-78.11232	-78.11232	38.24249	36.61515	-78.11232	128.55986	310.82194	275.02046	152.15629	-17.08707	-119.60949	0
583	1.62734	-75.67131	-78.11232	35.80148	39.05616	-75.67131	133.44188	318.14497	279.90248	157.03831	-14.64606	-119.60949	0
584	6.50936	-73.2303	-80.55333	33.36047	41.49717	-75.67131	135.88289	325.468	284.7845	161.92033	-12.20505	-119.60949	0
585	4.06835	-78.11232	-82.99434	35.80148	41.49717	-80.55333	138.3239	330.35002	287.22551	166.80235	-12.20505	-117.16848	0
586	1.62734	-78.11232	-80.55333	38.24249	39.05616	-78.11232	140.76491	335.23204	289.66652	169.24336	-9.76404	-117.16848	0
587	1.62734	-80.55333	-82.99434	38.24249	41.49717	-80.55333	140.76491	342.55507	294.54854	169.24336	-9.76404	-117.16848	0
588	1.62734	-80.55333	-82.99434	38.24249	41.49717	-80.55333	140.76491	344.99608	296.98955	169.24336	-9.76404	-119.60949	0
589	-1.62734	-82.99434	-82.99434	40.6835	39.05616	-82.99434	140.76491	349.8781	299.43056	169.24336	-14.64606	-122.0505	0
590	-1.62734	-82.99434	-82.99434	40.6835	39.05616	-82.99434	145.64693	352.31911	301.87157	171.68437	-14.64606	-122.0505	0
591	-1.62734	-82.99434	-82.99434	40.6835	39.05616	-82.99434	148.08794	359.64214	301.87157	171.68437	-14.64606	-124.49151	0
592	-1.62734	-85.43535	-85.43535	43.12451	41.49717	-85.43535	148.08794	362.08315	304.31258	174.12538	-14.64606	-126.93252	0
593	-4.06835	-85.43535	-82.99434	43.12451	39.05616	-85.43535	150.52895	364.52416	306.75359	174.12538	-14.64606	-129.37353	0
594	-1.62734	-85.43535	-85.43535	43.12451	41.49717	-85.43535	155.41097	369.40618	311.63561	176.56639	-14.64606	-131.81454	0
595	-1.62734	-80.55333	-80.55333	40.6835	39.05616	-80.55333	160.29299	374.2882	311.63561	179.0074	-12.20505	-131.81454	0
596	-1.62734	-75.67131	-75.67131	38.24249	36.61515	-75.67131	162.734	376.72921	316.51763	181.44841	-12.20505	-131.81454	0
597	-1.62734	-70.78929	-70.78929	35.80148	34.17414	-70.78929	162.734	381.61123	321.39965	181.44841	-9.76404	-131.81454	0
598	1.62734	-70.78929	-73.2303	33.36047	36.61515	-70.78929	162.734	384.05224	323.84066	179.0074	-14.64606	-134.25555	0
599	-1.62734	-68.34828	-68.34828	33.36047	31.73313	-68.34828	162.734	384.05224	326.28167	179.0074	-17.08707	-136.69656	0
600	1.62734	-68.34828	-70.78929	33.36047	34.17414	-68.34828	162.734	388.93426	328.72268	179.0074	-17.08707	-139.13757	0
601	-1.62734	-68.34828	-68.34828	33.36047	31.73313	-68.34828	165.17501	393.81628	328.72268	181.44841	-20.34175	-139.13757	0
602	-1.62734	-68.34828	-68.34828	33.36047	31.73313	-68.34828	167.61602	396.25729	331.16369	181.44841	-20.34175	-139.13757	0
603	1.62734	-68.34828	-70.78929	33.36047	34.17414	-68.34828	167.61602	401.13931	336.04571	181.44841	-20.34175	-139.13757	0
604	1.62734	-68.34828	-70.78929	33.36047	34.17414	-68.34828	170.05703	403.58032	336.04571	183.88942	-20.34175	-139.13757	0
605	-1.62734	-70.78929	-70.78929	35.80148	34.17414	-70.78929	170.05703	408.46234	336.04571	186.33043	-20.34175	-139.13757	0
606	-1.62734	-68.34828	-68.34828	33.36047	31.73313	-68.34828	172.49804	413.34436	338.48672	188.77144	-20.34175	-139.13757	0
607	-4.06835	-70.78929	-68.34828	35.80148	31.73313	-70.78929	174.93905	415.78537	340.92773	186.33043	-20.34175	-139.13757	0
608	-1.62734	-70.78929	-70.78929	35.80148	34.17414	-70.78929	177.38006	420.66739	343.36874	183.88942	-20.34175	-139.13757	0
609	-4.06835	-70.78929	-68.34828	35.80148	31.73313	-70.78929	179.82107	423.1084	345.80975	183.88942	-22.78276	-139.13757	0
610	-6.50936	-78.11232	-73.2303	40.6835	31.73313	-75.67131	182.26208	427.99042	345.80975	183.88942	-22.78276	-141.57858	0
611	-8.95037	-80.55333	-73.2303	43.12451	31.73313	-78.11232	187.1441	432.87244	345.80975	183.88942	-22.78276	-141.57858	0
612	-8.95037	-82.99434	-75.67131	45.56552	31.73313	-80.55333	189.58511	435.31345	345.80975	183.88942	-22.78276	-141.57858	0
613	-4.06835	-80.55333	-78.11232	40.6835	36.61515	-80.55333	192.02612	440.19547	348.25076	183.88942	-22.78276	-141.57858	0
614	-1.62734	-82.99434	-82.99434	40.6835	39.05616	-82.99434	194.46713	447.5185	350.69177	183.88942	-22.78276	-141.57858	0
615	-4.06835	-85.43535	-82.99434	43.12451	39.05616	-85.43535	194.46713	452.40052	350.69177	186.33043	-22.78276	-141.57858	0
616	-6.50936	-82.99434	-78.11232	43.12451	34.17414	-80.55333	196.90814	457.28254	350.69177	188.77144	-22.78276	-139.13757	0
617	-11.39138	-82.99434	-73.2303	45.56552	29.29212	-78.11232	199.34915	462.16456	350.69177	183.88942	-22.78276	-141.57858	0
618	-11.39138	-82.99434	-73.2303	45.56552	29.29212	-78.11232	196.90814	464.60557	350.69177	179.0074	-27.66478	-141.57858	0
619	-13.83239	-82.99434	-70.78929	48.00653	26.85111	-78.11232	194.46713	467.04658	348.25076	174.12538	-32.5468	-146.4606	0
620	-13.83239	-85.43535	-73.2303	48.00653	29.29212	-80.55333	194.46713	469.48759	345.80975	171.68437	-34.98781	-151.34262	0
621	-18.71441	-87.87636	-70.78929	52.88855	24.4101	-80.55333	196.90814	474.36961	340.92773	169.24336	-39.86983	-151.34262	0
622	-21.15542	-87.87636	-68.34828	52.88855	21.96909	-78.11232	199.34915	476.81062	340.92773	166.80235	-42.31084	-151.34262	0
623	-18.71441	-82.99434	-65.90727	50.44754	21.96909	-75.67131	204.23117	481.69264	343.36874	164.36134	-42.31084	-151.34262	0
624	-16.2734	-82.99434	-68.34828	48.00653	24.4101	-75.67131	209.11319	486.57466	343.36874	161.92033	-44.75185	-151.34262	0
625	-13.83239	-80.55333	-68.34828	45.56552	26.85111	-75.67131	213.99521	493.89769	340.92773	161.92033	-44.75185	-151.34262	0
626	-11.39138	-73.2303	-63.46626	40.6835	24.4101	-68.34828	221.31824	501.22072	343.36874	161.92033	-42.31084	-146.4606	0
627	-8.95037	-65.90727	-58.58424	35.80148	24.4101	-63.46626	226.20026	506.10274	345.80975	159.47932	-39.86983	-146.4606	0
628	-8.95037	-63.46626	-56.14323	35.80148	21.96909	-61.02525	228.64127	513.42577	345.80975	157.03831	-42.31084	-146.4606	0
629	-11.39138	-61.02525	-51.26121	35.80148	19.52808	-56.14323	233.52329	518.30779	345.80975	154.5973	-44.75185	-144.01959	0
630	-16.2734	-63.46626	-48.8202	38.24249	14.64606	-56.14323	238.40531	523.18981	343.36874	152.15629	-44.75185	-146.4606	0
631	-23.59643	-68.34828	-46.37919	45.56552	9.76404	-58.58424	243.28733	528.07183	336.04571	147.27427	-47.19286	-146.4606	0
632	-26.03744	-68.34828	-43.93818	45.56552	6.50936	-56.14323	245.72834	530.51284	333.6047	144.83326	-47.19286	-146.4606	0
633	-28.47845	-65.90727	-39.05616	45.56552	4.06835	-53.70222	250.61036	532.95385	331.16369	139.95124	-47.19286	-148.90161	0
634	-28.47845	-65.90727	-39.05616	45.56552	4.06835	-53.70222	255.49238	535.39486	326.28167	135.06922	-49.63387	-148.90161	0
635	-33.36047	-65.90727	-34.17414	48.00653	-0.81367	-51.26121	260.3744	540.27688	323.84066	132.62821	-49.63387	-146.4606	0
636	-35.80148	-63.46626	-29.29212	48.00653	-5.69569	-46.37919	265.25642	540.27688	318.95864	125.30518	-49.63387	-141.57858	0
637	-40.6835	-61.02525	-21.96909	50.44754	-10.57771	-41.49717	270.13844	542.71789	311.63561	115.54114	-52.07488	-136.69656	0
638	-43.12451	-58.58424	-17.08707	50.44754	-15.45973	-39.05616	270.13844	542.71789	306.75359	105.7771	-56.9569	-131.81454	0
639	-43.12451	-56.14323	-13.83239	48.00653	-15.45973	-36.61515	275.02046	542.71789	299.43056	98.45407	-59.39791	-126.93252	0
640	-43.12451	-53.70222	-11.39138	48.00653	-17.90074	-34.17414	279.90248	542.71789	292.10753	91.13104	-61.83892	-122.0505	0
641	-48.00653	-53.70222	-6.50936	50.44754	-22.78276	-31.73313	282.34349	542.71789	279.90248	83.80801	-64.27993	-117.16848	0
642	-50.44754	-53.70222	-4.06835	50.44754	-25.22377	-29.29212	284.7845	537.83587	267.69743	74.04397	-69.16195	-114.72747	0
643	-55.32956	-53.70222	0.81367	52.88855	-30.10579	-26.85111	289.66652	532.95385	255.49238	64.27993	-74.04397	-109.84545	0
644	-57.77057	-51.26121	5.69569	52.88855	-32.5468	-24.4101	292.10753	530.51284	243.28733	54.51589	-76.48498	-109.84545	0
645	-57.77057	-48.8202	8.1367	52.88855	-34.98781	-21.96909	294.54854	525.63082	228.64127	44.75185	-81.367	-109.84545	0
646	-62.65259	-46.37919	15.45973	52.88855	-39.86983	-17.08707	296.98955	518.30779	213.99521	34.98781	-83.80801	-107.40444	0
647	-67.53461	-43.93818	22.78276	55.32956	-47.19286	-11.39138	296.98955	510.98476	199.34915	21.96909	-91.13104	-107.40444	0
648	-69.97562	-41.49717	27.66478	55.32956	-49.63387	-6.50936	296.98955	501.22072	182.26208	7.32303	-98.45407	-109.84545	0
649	-72.41663	-36.61515	34.98781	52.88855	-54.51589	-1.62734	294.54854	489.01567	162.734	-7.32303	-105.7771	-109.84545	0
650	-74.85764	-34.17414	39.86983	52.88855	-59.39791	3.25468	294.54854	479.25163	143.20592	-21.96909	-113.10013	-112.28646	0
651	-79.73966	-36.61515	42.31084	57.77057	-61.83892	3.25468	294.54854	467.04658	118.79582	-36.61515	-117.98215	-112.28646	0
652	-82.18067	-31.73313	49.63387	55.32956	-66.72094	8.1367	294.54854	452.40052	88.69003	-51.26121	-122.86417	-114.72747	0
653	-77.29865	-26.85111	49.63387	50.44754	-64.27993	10.57771	292.10753	435.31345	69.16195	-65.90727	-127.74619	-112.28646	0
654	-79.73966	-24.4101	54.51589	50.44754	-69.16195	15.45973	287.22551	420.66739	42.31084	-82.99434	-132.62821	-114.72747	0
655	-79.73966	-21.96909	56.9569	50.44754	-69.16195	17.90074	282.34349	401.13931	15.45973	-97.6404	-135.06922	-114.72747	0
656	-79.73966	-17.08707	61.83892	48.00653	-71.60296	22.78276	277.46147	384.05224	30.10579	-109.84545	-137.51023	-112.28646	0
657	-82.18067	-13.83239	66.72094	48.00653	-74.04397	25.22377	270.13844	381.61123	-8.95037	-129.37353	-142.39225	-112.28646	0
658	-84.62168	-13.83239	69.16195	48.00653	-76.48498	27.66478	260.3744	344.99608	-52.88855	-148.90161	-149.71528	-114.72747	0
659	-84.62168	-8.95037	74.04397	45.56552	-78.92599	32.5468	253.05137	327.90901	-67.53461	-165.98868	-157.03831	-114.72747	0
660	-89.5037	-6.50936	81.367	48.00653	-86.24902	37.42882	245.72834	303.49891	-99.26774	-183.07575	-164.36134	-117.16848	0
661	-99.26774	-6.50936	91.13104	52.88855	-96.01306	42.31084	238.40531	279.08881	-150.52895	-202.60383	-171.68437	-117.16848	0
662	-104.14976	-6.50936	96.01306	55.32956	-100.89508	44.75185	226.20026	262.00174	-189.58511	-222.13191	-179.0074	-119.60949	0
663	-109.03178	-6.50936	100.89508	57.77057	-105.7771	47.19286	216.43622	232.70962	-231.08228	-241.65999	-186.33043	-117.16848	0
664	-113.9138	-8.95037	103.33609	60.21158	-108.21811	47.19286	204.23117	200.97649	-267.69743	-263.62908	-193.65346	-117.16848	0
665	-118.79582	-8.95037	108.21811	62.65259	-113.10013	49.63387	192.02612	171.68437	-299.43056	-280.71615	-198.53548	-114.72747	0
666	-126.11885	-8.95037	115.54114	67.53461	-120.42316	52.07488	179.82107	120.42316	-306.75359	-300.24423	-203.4175	-112.28646	0
667	-128.55986	-4.06835	122.86417	65.0936	-125.30518	59.39791	165.17501	105.7771	-350.69177	-322.21332	-205.85851	-112.28646	0
668	-131.00087	0.81367	130.1872	65.0936	-130.1872	64.27993	150.52895	68.34828	-382.4249	-341.7414	-213.18154	-112.28646	0
669	-131.00087	3.25468	132.62821	62.65259	-132.62821	66.72094	135.88289	34.17414	-406.835	-358.82847	-218.06356	-109.84545	0
670	-133.44188	0.81367	132.62821	65.0936	-132.62821	66.72094	123.67784	2.44101	-436.12712	-375.91554	-225.38659	-112.28646	0
671	-138.3239	0.81367	137.51023	67.53461	-137.51023	69.16195	111.47279	-21.96909	-470.30126	-393.00261	-230.26861	-112.28646	0
672	-138.3239	0.81367	137.51023	67.53461	-137.51023	69.16195	96.82673	-53.70222	-506.91641	-410.08968	-232.70962	-112.28646	0
673	-140.76491	0.81367	139.95124	69.97562	-139.95124	69.16195	82.18067	-97.6404	-558.17762	-427.17675	-240.03265	-112.28646	0
674	-138.3239	-1.62734	135.06922	69.97562	-137.51023	66.72094	67.53461	-131.81454	-609.43883	-444.26382	-242.47366	-112.28646	0
675	-140.76491	-4.06835	135.06922	72.41663	-137.51023	64.27993	52.88855	-163.54767	-653.37701	-458.90988	-249.79669	-112.28646	0
676	-143.20592	-8.95037	132.62821	74.85764	-137.51023	61.83892	35.80148	-209.92686	-653.37701	-473.55594	-252.2377	-112.28646	0
677	-145.64693	-8.95037	135.06922	77.29865	-139.95124	61.83892	20.34175	-236.77797	-704.63822	-490.64301	-254.67871	-112.28646	0
678	-140.76491	-8.95037	130.1872	74.85764	-135.06922	59.39791	3.25468	-266.07009	-726.60731	-505.28907	-257.11972	-109.84545	0
679	-138.3239	-8.95037	127.74619	72.41663	-132.62821	59.39791	-13.83239	-305.12625	-753.45842	-515.05311	-262.00174	-109.84545	0
680	-135.88289	-8.95037	125.30518	72.41663	-130.1872	56.9569	-26.03744	-322.21332	-753.45842	-522.37614	-262.00174	-112.28646	0
681	-133.44188	-8.95037	122.86417	69.97562	-127.74619	56.9569	-38.24249	-346.62342	-770.54549	-529.69917	-262.00174	-112.28646	0
682	-126.11885	-4.06835	120.42316	65.0936	-122.86417	56.9569	-50.44754	-353.94645	-787.63256	-534.58119	-262.00174	-112.28646	0
683	-121.23683	-1.62734	117.98215	60.21158	-120.42316	56.9569	-62.65259	-380.79756	-797.3966	-537.0222	-262.00174	-112.28646	0
684	-113.9138	-1.62734	110.65912	57.77057	-113.10013	54.51589	-74.85764	-378.35655	-804.71963	-539.46321	-262.00174	-112.28646	0
685	-111.47279	-1.62734	108.21811	55.32956	-110.65912	52.07488	-84.62168	-388.12059	-809.60165	-537.0222	-259.56073	-112.28646	0
686	-111.47279	-4.06835	105.7771	57.77057	-108.21811	49.63387	-94.38572	-395.44362	-809.60165	-534.58119	-257.11972	-109.84545	0
687	-113.9138	-8.95037	103.33609	60.21158	-108.21811	47.19286	-104.14976	-402.76665	-809.60165	-534.58119	-254.67871	-109.84545	0
688	-111.47279	-13.83239	96.01306	62.65259	-103.33609	39.86983	-113.9138	-402.76665	-804.71963	-532.14018	-249.79669	-109.84545	0
689	-106.59077	-13.83239	91.13104	60.21158	-98.45407	37.42882	-121.23683	-402.76665	-797.3966	-524.81715	-249.79669	-109.84545	0
690	-106.59077	-19.52808	86.24902	62.65259	-98.45407	32.5468	-128.55986	-402.76665	-787.63256	-517.49412	-244.91467	-109.84545	-1250	T-0
691	-109.03178	-24.4101	83.80801	65.0936	-98.45407	30.10579	-131.00087	-397.88463	-780.30953	-507.73008	-240.03265	-107.40444	0
692	-106.59077	-24.4101	81.367	65.0936	-96.01306	27.66478	-133.44188	-393.00261	-763.22246	-493.08402	-232.70962	-107.40444	0
693	-104.14976	-26.85111	76.48498	65.0936	-91.13104	25.22377	-133.44188	-385.67958	-746.13539	-480.87897	-225.38659	-107.40444	0
694	-99.26774	-31.73313	66.72094	65.0936	-83.80801	17.90074	-133.44188	-375.91554	-729.04832	-468.67392	-220.50457	-104.96343	0
695	-96.82673	-34.17414	61.83892	65.0936	-81.367	13.01872	-133.44188	-363.71049	-711.96125	-451.58685	-213.18154	-104.96343	0
696	-94.38572	-34.17414	59.39791	62.65259	-78.92599	13.01872	-131.00087	-351.50544	-687.55115	-432.05877	-203.4175	-102.52242	0
697	-89.5037	-34.17414	54.51589	60.21158	-74.04397	10.57771	-126.11885	-334.41837	-670.46408	-414.9717	-193.65346	-97.6404	0
698	-87.06269	-36.61515	49.63387	60.21158	-69.16195	5.69569	-123.67784	-319.77231	-648.49499	-397.88463	-183.88942	-95.19939	0
699	-79.73966	-36.61515	42.31084	57.77057	-61.83892	3.25468	-118.79582	-305.12625	-628.96691	-380.79756	-176.56639	-90.31737	0
700	-77.29865	-39.05616	37.42882	57.77057	-59.39791	-1.62734	-111.47279	-288.03918	-585.02873	-361.26948	-166.80235	-87.87636	0
701	-77.29865	-41.49717	34.98781	57.77057	-56.9569	-4.06835	-106.59077	-268.5111	-563.05964	-341.7414	-157.03831	-82.99434	0
702	-74.85764	-41.49717	32.5468	57.77057	-54.51589	-4.06835	-99.26774	-253.86504	-533.76752	-324.65433	-147.27427	-78.11232	0
703	-69.97562	-41.49717	27.66478	55.32956	-49.63387	-6.50936	-91.94471	-236.77797	-506.91641	-305.12625	-135.06922	-70.78929	0
704	-62.65259	-39.05616	22.78276	50.44754	-44.75185	-8.95037	-87.06269	-219.6909	-480.0653	-288.03918	-127.74619	-65.90727	0
705	-57.77057	-36.61515	20.34175	45.56552	-39.86983	-8.95037	-79.73966	-205.04484	-455.6552	-270.95211	-120.42316	-61.02525	0
706	-52.88855	-31.73313	20.34175	40.6835	-37.42882	-6.50936	-74.85764	-190.39878	-431.2451	-253.86504	-108.21811	-53.70222	0
707	-45.56552	-29.29212	15.45973	35.80148	-32.5468	-6.50936	-69.97562	-175.75272	-389.74793	-236.77797	-98.45407	-46.37919	0
708	-40.6835	-26.85111	13.01872	33.36047	-27.66478	-6.50936	-65.0936	-161.10666	-372.66086	-222.13191	-93.57205	-41.49717	0
709	-30.91946	-24.4101	5.69569	26.03744	-20.34175	-8.95037	-60.21158	-146.4606	-348.25076	-205.04484	-86.24902	-34.17414	0
710	-21.15542	-24.4101	-4.06835	21.15542	-10.57771	-13.83239	-52.88855	-131.81454	-331.16369	-187.95777	-78.92599	-29.29212	0
711	-16.2734	-21.96909	-6.50936	18.71441	-5.69569	-13.83239	-50.44754	-117.16848	-311.63561	-173.31171	-71.60296	-21.96909	0
712	-13.83239	-21.96909	-8.95037	16.2734	-3.25468	-17.08707	-48.00653	-107.40444	-289.66652	-156.22464	-61.83892	-14.64606	0
713	-11.39138	-21.96909	-11.39138	16.2734	-0.81367	-17.08707	-43.12451	-95.19939	-267.69743	-141.57858	-52.07488	-11.39138	0
714	-8.95037	-26.85111	-19.52808	16.2734	4.06835	-24.4101	-40.6835	-82.99434	-248.16935	-129.37353	-47.19286	-8.95037	0
715	-8.95037	-29.29212	-21.96909	18.71441	4.06835	-26.85111	-38.24249	-73.2303	-231.08228	-117.16848	-42.31084	-8.95037	0
716	-11.39138	-31.73313	-21.96909	21.15542	4.06835	-26.85111	-35.80148	-65.90727	-213.99521	-107.40444	-34.98781	-8.95037	0
717	-13.83239	-36.61515	-24.4101	23.59643	4.06835	-31.73313	-33.36047	-56.14323	-199.34915	-97.6404	-30.10579	-8.95037	0
718	-13.83239	-39.05616	-26.85111	26.03744	4.06835	-34.17414	-30.91946	-48.8202	-184.70309	-90.31737	-27.66478	-8.95037	0
719	-16.2734	-39.05616	-24.4101	26.03744	1.62734	-31.73313	-26.03744	-43.93818	-170.05703	-80.55333	-27.66478	-8.95037	0
720	-13.83239	-39.05616	-26.85111	26.03744	4.06835	-34.17414	-18.71441	-34.17414	-155.41097	-73.2303	-25.22377	-14.64606	0
721	-11.39138	-36.61515	-26.85111	23.59643	6.50936	-31.73313	-13.83239	-24.4101	-145.64693	-65.90727	-22.78276	-14.64606	0
722	-8.95037	-34.17414	-26.85111	21.15542	6.50936	-31.73313	-6.50936	-17.08707	-131.00087	-58.58424	-22.78276	-14.64606	0
723	-4.06835	-31.73313	-29.29212	16.2734	12.20505	-31.73313	3.25468	-7.32303	-113.9138	-48.8202	-20.34175	-11.39138	0
724	-1.62734	-26.85111	-26.85111	13.83239	12.20505	-26.85111	13.01872	0	-101.70875	-43.93818	-20.34175	-11.39138	0
725	1.62734	-24.4101	-26.85111	11.39138	12.20505	-24.4101	17.90074	7.32303	-89.5037	-36.61515	-20.34175	-11.39138	0
726	4.06835	-21.96909	-26.85111	8.1367	14.64606	-24.4101	25.22377	14.64606	-77.29865	-29.29212	-12.20505	-8.95037	0
727	8.95037	-21.96909	-31.73313	5.69569	19.52808	-26.85111	30.91946	21.96909	-65.0936	-24.4101	-7.32303	-6.50936	0
728	13.83239	-19.52808	-34.17414	3.25468	21.96909	-26.85111	35.80148	29.29212	-55.32956	-21.96909	-4.88202	-4.06835	0
729	13.83239	-21.96909	-36.61515	3.25468	24.4101	-29.29212	38.24249	29.29212	-48.00653	-14.64606	-4.88202	-4.06835	0
730	13.83239	-24.4101	-39.05616	5.69569	24.4101	-31.73313	40.6835	34.17414	-40.6835	-9.76404	-2.44101	-4.06835	0
731	8.95037	-26.85111	-36.61515	8.1367	21.96909	-31.73313	43.12451	39.05616	-35.80148	-2.44101	0	-4.06835	0
732	8.95037	-24.4101	-34.17414	8.1367	19.52808	-29.29212	45.56552	41.49717	-26.03744	4.88202	0	-1.62734	0
733	8.95037	-21.96909	-31.73313	5.69569	19.52808	-26.85111	48.00653	46.37919	-13.83239	9.76404	2.44101	3.25468	0
734	13.83239	-21.96909	-36.61515	3.25468	24.4101	-29.29212	50.44754	51.26121	-6.50936	12.20505	2.44101	3.25468	0
735	13.83239	-21.96909	-36.61515	3.25468	24.4101	-29.29212	50.44754	51.26121	-1.62734	14.64606	2.44101	3.25468	0
736	13.83239	-21.96909	-36.61515	3.25468	24.4101	-29.29212	50.44754	53.70222	5.69569	17.08707	4.88202	5.69569	0
737	11.39138	-21.96909	-34.17414	5.69569	21.96909	-26.85111	50.44754	56.14323	13.01872	17.08707	9.76404	5.69569	0
738	11.39138	-21.96909	-34.17414	5.69569	21.96909	-26.85111	50.44754	58.58424	15.45973	17.08707	9.76404	5.69569	0
739	13.83239	-21.96909	-36.61515	3.25468	24.4101	-29.29212	48.00653	58.58424	22.78276	19.52808	9.76404	8.1367	0
740	13.83239	-21.96909	-36.61515	3.25468	24.4101	-29.29212	50.44754	58.58424	25.22377	21.96909	9.76404	5.69569	0
741	13.83239	-24.4101	-39.05616	5.69569	24.4101	-31.73313	50.44754	61.02525	25.22377	21.96909	9.76404	8.1367	0
742	11.39138	-24.4101	-36.61515	5.69569	21.96909	-29.29212	50.44754	61.02525	30.10579	25.22377	9.76404	8.1367	0
743	11.39138	-21.96909	-34.17414	5.69569	21.96909	-26.85111	50.44754	61.02525	34.98781	25.22377	9.76404	8.1367	0
744	11.39138	-21.96909	-34.17414	5.69569	21.96909	-26.85111	52.88855	63.46626	37.42882	25.22377	7.32303	5.69569	0
745	8.95037	-19.52808	-29.29212	5.69569	17.08707	-24.4101	52.88855	63.46626	39.86983	27.66478	4.88202	5.69569	0
746	6.50936	-17.08707	-24.4101	5.69569	14.64606	-19.52808	52.88855	65.90727	44.75185	30.10579	9.76404	5.69569	0
747	6.50936	-19.52808	-26.85111	5.69569	14.64606	-21.96909	52.88855	65.90727	49.63387	30.10579	9.76404	8.1367	0
748	8.95037	-19.52808	-29.29212	5.69569	17.08707	-24.4101	52.88855	68.34828	52.07488	30.10579	9.76404	8.1367	0
749	11.39138	-19.52808	-31.73313	3.25468	19.52808	-24.4101	52.88855	68.34828	54.51589	32.5468	9.76404	8.1367	0
750	16.2734	-19.52808	-36.61515	0.81367	24.4101	-26.85111	52.88855	70.78929	59.39791	34.98781	12.20505	8.1367	0
751	16.2734	-19.52808	-36.61515	0.81367	24.4101	-26.85111	50.44754	73.2303	59.39791	37.42882	14.64606	10.57771	0
752	13.83239	-21.96909	-36.61515	3.25468	24.4101	-29.29212	50.44754	73.2303	61.83892	44.75185	17.08707	13.01872	0
753	13.83239	-24.4101	-39.05616	5.69569	24.4101	-31.73313	50.44754	75.67131	64.27993	47.19286	19.52808	15.45973	0
754	16.2734	-26.85111	-43.93818	5.69569	29.29212	-34.17414	48.00653	78.11232	66.72094	49.63387	19.52808	15.45973	0
755	16.2734	-26.85111	-43.93818	5.69569	29.29212	-34.17414	45.56552	78.11232	69.16195	52.07488	17.08707	15.45973	0
756	13.83239	-26.85111	-41.49717	5.69569	26.85111	-34.17414	40.6835	75.67131	71.60296	52.07488	19.52808	13.01872	0
757	16.2734	-26.85111	-43.93818	5.69569	29.29212	-34.17414	35.80148	75.67131	74.04397	54.51589	19.52808	13.01872	0
758	13.83239	-26.85111	-41.49717	5.69569	26.85111	-34.17414	30.91946	73.2303	74.04397	52.07488	17.08707	10.57771	0
759	13.83239	-24.4101	-39.05616	5.69569	24.4101	-31.73313	28.47845	70.78929	74.04397	54.51589	14.64606	10.57771	0
760	16.2734	-21.96909	-39.05616	3.25468	26.85111	-29.29212	25.22377	70.78929	76.48498	56.9569	14.64606	10.57771	0
761	16.2734	-19.52808	-36.61515	0.81367	24.4101	-26.85111	20.34175	70.78929	74.04397	59.39791	14.64606	10.57771	0
762	16.2734	-17.08707	-34.17414	0.81367	24.4101	-24.4101	17.90074	68.34828	76.48498	61.83892	14.64606	13.01872	0
763	21.15542	-17.08707	-39.05616	-1.62734	29.29212	-26.85111	15.45973	68.34828	81.367	64.27993	14.64606	15.45973	0
764	26.03744	-11.39138	-39.05616	-6.50936	31.73313	-24.4101	15.45973	70.78929	83.80801	66.72094	17.08707	17.90074	0
765	26.03744	-8.95037	-36.61515	-8.95037	31.73313	-21.96909	15.45973	73.2303	86.24902	69.16195	19.52808	20.34175	0
766	26.03744	-4.06835	-31.73313	-11.39138	29.29212	-17.08707	13.01872	73.2303	88.69003	74.04397	26.85111	20.34175	0
767	28.47845	-4.06835	-34.17414	-11.39138	31.73313	-19.52808	13.01872	73.2303	91.13104	76.48498	29.29212	22.78276	0
768	26.03744	-6.50936	-34.17414	-8.95037	29.29212	-19.52808	10.57771	73.2303	91.13104	76.48498	26.85111	20.34175	0
769	23.59643	-6.50936	-31.73313	-8.95037	26.85111	-19.52808	10.57771	70.78929	91.13104	78.92599	24.4101	17.90074	0
770	23.59643	-8.95037	-34.17414	-6.50936	29.29212	-21.96909	13.01872	70.78929	93.57205	83.80801	24.4101	15.45973	0
771	21.15542	-11.39138	-34.17414	-4.06835	26.85111	-21.96909	13.01872	73.2303	91.13104	86.24902	26.85111	15.45973	0
772	16.2734	-17.08707	-34.17414	0.81367	24.4101	-24.4101	13.01872	73.2303	93.57205	91.13104	24.4101	15.45973	0
773	13.83239	-17.08707	-31.73313	0.81367	21.96909	-24.4101	13.01872	70.78929	96.01306	91.13104	24.4101	15.45973	0
774	16.2734	-21.96909	-39.05616	3.25468	26.85111	-29.29212	10.57771	70.78929	96.01306	93.57205	21.96909	13.01872	0
775	18.71441	-19.52808	-39.05616	0.81367	26.85111	-29.29212	10.57771	73.2303	96.01306	96.01306	21.96909	15.45973	0
776	21.15542	-19.52808	-41.49717	-1.62734	29.29212	-29.29212	10.57771	73.2303	98.45407	98.45407	26.85111	17.90074	0
777	23.59643	-19.52808	-43.93818	-1.62734	31.73313	-31.73313	8.1367	73.2303	101.70875	103.33609	31.73313	20.34175	0
778	23.59643	-21.96909	-46.37919	-1.62734	34.17414	-34.17414	5.69569	73.2303	101.70875	105.7771	36.61515	25.22377	0
779	23.59643	-21.96909	-46.37919	-1.62734	34.17414	-34.17414	3.25468	73.2303	104.14976	110.65912	39.05616	27.66478	0
780	28.47845	-21.96909	-51.26121	-4.06835	39.05616	-36.61515	3.25468	70.78929	106.59077	117.98215	41.49717	30.10579	0
781	30.91946	-19.52808	-51.26121	-6.50936	39.05616	-34.17414	3.25468	73.2303	109.03178	125.30518	46.37919	32.5468	0
782	33.36047	-17.08707	-51.26121	-8.95037	41.49717	-34.17414	3.25468	73.2303	113.9138	132.62821	48.8202	34.98781	0
783	33.36047	-17.08707	-51.26121	-8.95037	41.49717	-34.17414	3.25468	73.2303	118.79582	135.06922	51.26121	37.42882	0
784	33.36047	-19.52808	-53.70222	-6.50936	41.49717	-36.61515	0.81367	73.2303	121.23683	137.51023	51.26121	34.98781	0
785	33.36047	-17.08707	-51.26121	-8.95037	41.49717	-34.17414	-1.62734	73.2303	123.67784	139.95124	51.26121	34.98781	0
786	35.80148	-17.08707	-53.70222	-8.95037	43.93818	-34.17414	-4.06835	70.78929	126.11885	142.39225	53.70222	34.98781	0
787	40.6835	-13.83239	-56.14323	-13.83239	48.8202	-34.17414	-6.50936	70.78929	128.55986	144.83326	56.14323	34.98781	0
788	43.12451	-11.39138	-56.14323	-16.2734	48.8202	-34.17414	-6.50936	70.78929	128.55986	147.27427	58.58424	34.98781	0
789	43.12451	-8.95037	-53.70222	-16.2734	48.8202	-31.73313	-11.39138	65.90727	126.11885	147.27427	56.14323	34.98781	0
790	40.6835	-11.39138	-53.70222	-13.83239	46.37919	-31.73313	-13.83239	61.02525	123.67784	149.71528	56.14323	32.5468	0
791	35.80148	-13.83239	-51.26121	-11.39138	43.93818	-31.73313	-18.71441	61.02525	116.35481	149.71528	51.26121	30.10579	0
792	30.91946	-17.08707	-48.8202	-6.50936	39.05616	-31.73313	-18.71441	56.14323	116.35481	152.15629	48.8202	27.66478	0
793	26.03744	-17.08707	-43.93818	-4.06835	34.17414	-29.29212	-18.71441	53.70222	118.79582	152.15629	46.37919	27.66478	0
794	23.59643	-17.08707	-41.49717	-4.06835	31.73313	-29.29212	-18.71441	53.70222	118.79582	149.71528	41.49717	25.22377	0
795	26.03744	-17.08707	-43.93818	-4.06835	34.17414	-29.29212	-18.71441	53.70222	118.79582	147.27427	36.61515	22.78276	0
796	26.03744	-13.83239	-41.49717	-6.50936	34.17414	-26.85111	-18.71441	53.70222	118.79582	144.83326	34.17414	20.34175	0
797	28.47845	-11.39138	-41.49717	-8.95037	34.17414	-26.85111	-18.71441	53.70222	118.79582	147.27427	31.73313	20.34175	0
798	33.36047	-6.50936	-41.49717	-13.83239	36.61515	-24.4101	-18.71441	56.14323	118.79582	147.27427	31.73313	20.34175	0
799	38.24249	-1.62734	-41.49717	-18.71441	39.05616	-21.96909	-18.71441	56.14323	118.79582	149.71528	34.17414	20.34175	0
800	40.6835	3.25468	-39.05616	-21.15542	39.05616	-17.08707	-18.71441	58.58424	118.79582	152.15629	36.61515	20.34175	0
801	45.56552	5.69569	-41.49717	-26.03744	43.93818	-17.08707	-23.59643	58.58424	118.79582	154.5973	39.05616	22.78276	0
802	52.88855	13.01872	-41.49717	-33.36047	46.37919	-13.83239	-23.59643	58.58424	121.23683	159.47932	43.93818	27.66478	0
803	52.88855	17.90074	-36.61515	-35.80148	43.93818	-8.95037	-21.15542	58.58424	123.67784	161.92033	46.37919	30.10579	0
804	50.44754	15.45973	-36.61515	-33.36047	43.93818	-8.95037	-21.15542	56.14323	123.67784	161.92033	46.37919	30.10579	0
805	50.44754	15.45973	-36.61515	-33.36047	43.93818	-8.95037	-21.15542	53.70222	126.11885	161.92033	46.37919	30.10579	0
806	48.00653	10.57771	-39.05616	-28.47845	43.93818	-13.83239	-23.59643	48.8202	126.11885	161.92033	51.26121	30.10579	0
807	43.12451	3.25468	-41.49717	-23.59643	41.49717	-19.52808	-23.59643	48.8202	123.67784	164.36134	51.26121	32.5468	0
808	38.24249	-1.62734	-41.49717	-18.71441	39.05616	-21.96909	-21.15542	43.93818	118.79582	161.92033	51.26121	32.5468	0
809	35.80148	-6.50936	-43.93818	-13.83239	39.05616	-24.4101	-18.71441	41.49717	118.79582	161.92033	53.70222	32.5468	0
810	28.47845	-11.39138	-41.49717	-8.95037	34.17414	-26.85111	-18.71441	39.05616	116.35481	161.92033	51.26121	32.5468	0
811	26.03744	-17.08707	-43.93818	-4.06835	34.17414	-29.29212	-18.71441	39.05616	113.9138	164.36134	53.70222	32.5468	0
812	26.03744	-17.08707	-43.93818	-4.06835	34.17414	-29.29212	-16.2734	39.05616	118.79582	169.24336	56.14323	34.98781	0
813	26.03744	-13.83239	-41.49717	-6.50936	34.17414	-26.85111	-13.83239	41.49717	123.67784	174.12538	61.02525	39.86983	0
814	26.03744	-11.39138	-39.05616	-6.50936	31.73313	-24.4101	-11.39138	41.49717	123.67784	176.56639	61.02525	39.86983	0
815	28.47845	-11.39138	-41.49717	-8.95037	34.17414	-26.85111	-11.39138	39.05616	126.11885	179.0074	58.58424	39.86983	0
816	30.91946	-8.95037	-41.49717	-11.39138	36.61515	-24.4101	-11.39138	39.05616	126.11885	179.0074	63.46626	37.42882	0
817	33.36047	-6.50936	-41.49717	-13.83239	36.61515	-24.4101	-8.95037	39.05616	128.55986	183.88942	65.90727	37.42882	0
818	38.24249	-4.06835	-43.93818	-16.2734	41.49717	-24.4101	-4.06835	41.49717	131.00087	188.77144	65.90727	39.86983	0
819	40.6835	-4.06835	-46.37919	-18.71441	43.93818	-24.4101	-4.06835	39.05616	131.00087	188.77144	65.90727	39.86983	0
820	38.24249	-6.50936	-46.37919	-16.2734	41.49717	-26.85111	-1.62734	39.05616	131.00087	188.77144	65.90727	37.42882	0
821	33.36047	-13.83239	-48.8202	-8.95037	41.49717	-31.73313	-1.62734	39.05616	128.55986	188.77144	63.46626	34.98781	0
822	30.91946	-17.08707	-48.8202	-6.50936	39.05616	-31.73313	-4.06835	36.61515	128.55986	188.77144	61.02525	34.98781	0
823	28.47845	-19.52808	-48.8202	-4.06835	36.61515	-34.17414	-4.06835	36.61515	131.00087	188.77144	61.02525	32.5468	0
824	28.47845	-17.08707	-46.37919	-6.50936	36.61515	-31.73313	-1.62734	36.61515	133.44188	188.77144	58.58424	30.10579	0
825	33.36047	-13.83239	-48.8202	-8.95037	41.49717	-31.73313	0.81367	36.61515	135.88289	191.21245	58.58424	30.10579	0
826	35.80148	-11.39138	-48.8202	-11.39138	41.49717	-29.29212	3.25468	36.61515	135.88289	191.21245	58.58424	25.22377	0
827	35.80148	-8.95037	-46.37919	-13.83239	41.49717	-26.85111	3.25468	36.61515	135.88289	191.21245	58.58424	22.78276	0
828	35.80148	-6.50936	-43.93818	-13.83239	39.05616	-24.4101	3.25468	36.61515	135.88289	193.65346	58.58424	20.34175	0
829	40.6835	0.81367	-41.49717	-21.15542	41.49717	-19.52808	5.69569	34.17414	135.88289	198.53548	61.02525	17.90074	0
830	45.56552	3.25468	-43.93818	-23.59643	43.93818	-19.52808	5.69569	34.17414	135.88289	200.97649	63.46626	17.90074	0
831	43.12451	3.25468	-41.49717	-23.59643	41.49717	-19.52808	3.25468	34.17414	135.88289	200.97649	63.46626	20.34175	0
832	40.6835	0.81367	-41.49717	-21.15542	41.49717	-19.52808	3.25468	34.17414	138.3239	205.85851	65.90727	22.78276	0
833	38.24249	-6.50936	-46.37919	-16.2734	41.49717	-26.85111	3.25468	34.17414	140.76491	205.85851	68.34828	25.22377	0
834	38.24249	-8.95037	-48.8202	-13.83239	43.93818	-29.29212	3.25468	34.17414	143.20592	208.29952	70.78929	30.10579	0
835	35.80148	-17.08707	-53.70222	-8.95037	43.93818	-34.17414	5.69569	36.61515	145.64693	208.29952	70.78929	30.10579	0
836	33.36047	-17.08707	-51.26121	-8.95037	41.49717	-34.17414	5.69569	36.61515	148.08794	210.74053	75.67131	32.5468	0
837	33.36047	-19.52808	-53.70222	-6.50936	41.49717	-36.61515	8.1367	39.05616	152.96996	215.62255	80.55333	34.98781	0
838	30.91946	-19.52808	-51.26121	-6.50936	39.05616	-34.17414	13.01872	41.49717	155.41097	220.50457	85.43535	37.42882	0
839	35.80148	-17.08707	-53.70222	-8.95037	43.93818	-34.17414	17.90074	46.37919	157.85198	225.38659	87.87636	39.86983	0
840	38.24249	-11.39138	-51.26121	-13.83239	43.93818	-31.73313	20.34175	48.8202	157.85198	227.8276	90.31737	39.86983	0
841	40.6835	-6.50936	-48.8202	-16.2734	43.93818	-26.85111	22.78276	51.26121	160.29299	232.70962	92.75838	39.86983	0
842	38.24249	-6.50936	-46.37919	-16.2734	41.49717	-26.85111	22.78276	53.70222	160.29299	235.15063	90.31737	37.42882	0
843	38.24249	-4.06835	-43.93818	-16.2734	41.49717	-24.4101	25.22377	53.70222	165.17501	237.59164	92.75838	39.86983	0
844	38.24249	-4.06835	-43.93818	-16.2734	41.49717	-24.4101	25.22377	53.70222	167.61602	240.03265	92.75838	39.86983	0
845	38.24249	-4.06835	-43.93818	-16.2734	41.49717	-24.4101	25.22377	56.14323	167.61602	242.47366	90.31737	37.42882	0
846	40.6835	-4.06835	-46.37919	-18.71441	43.93818	-24.4101	25.22377	56.14323	167.61602	242.47366	92.75838	34.98781	0
847	40.6835	-4.06835	-46.37919	-18.71441	43.93818	-24.4101	25.22377	58.58424	170.05703	247.35568	92.75838	34.98781	0
848	43.12451	-1.62734	-46.37919	-21.15542	43.93818	-24.4101	30.91946	63.46626	174.93905	254.67871	95.19939	34.98781	0
849	45.56552	0.81367	-46.37919	-23.59643	46.37919	-21.96909	33.36047	65.90727	177.38006	259.56073	97.6404	34.98781	0
850	50.44754	10.57771	-41.49717	-30.91946	46.37919	-13.83239	38.24249	73.2303	182.26208	269.32477	102.52242	39.86983	0
851	52.88855	17.90074	-36.61515	-35.80148	43.93818	-8.95037	43.12451	78.11232	184.70309	276.6478	107.40444	42.31084	0
852	57.77057	30.10579	-29.29212	-43.12451	43.93818	0.81367	45.56552	82.99434	192.02612	283.97083	109.84545	47.19286	0
853	62.65259	39.86983	-24.4101	-50.44754	43.93818	8.1367	50.44754	87.87636	196.90814	288.85285	112.28646	49.63387	0
854	62.65259	47.19286	-17.08707	-55.32956	39.05616	15.45973	52.88855	92.75838	201.79016	291.29386	112.28646	52.07488	0
855	62.65259	54.51589	-8.95037	-57.77057	36.61515	22.78276	57.77057	96.01306	204.23117	296.17588	114.72747	54.51589	0
856	65.0936	59.39791	-6.50936	-62.65259	36.61515	27.66478	60.21158	96.01306	206.67218	298.61689	119.60949	54.51589	0
857	65.0936	64.27993	-1.62734	-65.0936	34.17414	32.5468	62.65259	103.33609	211.5542	303.49891	124.49151	56.9569	0
858	69.97562	71.60296	0.81367	-69.97562	34.17414	37.42882	69.97562	105.7771	218.87723	310.82194	129.37353	61.83892	0
859	74.85764	74.04397	-1.62734	-74.85764	39.05616	37.42882	72.41663	110.65912	226.20026	315.70396	131.81454	66.72094	0
860	77.29865	74.04397	-4.06835	-74.85764	41.49717	34.98781	79.73966	115.54114	231.08228	323.02699	139.13757	69.16195	0
861	77.29865	74.04397	-4.06835	-74.85764	41.49717	34.98781	82.18067	122.86417	233.52329	330.35002	144.01959	74.04397	0
862	79.73966	78.92599	-1.62734	-79.73966	41.49717	39.86983	89.5037	130.1872	245.72834	340.11406	153.78363	83.80801	0
863	82.18067	86.24902	3.25468	-84.62168	39.05616	44.75185	96.82673	135.06922	255.49238	347.43709	161.10666	91.13104	0
864	84.62168	91.13104	5.69569	-87.06269	39.05616	49.63387	96.82673	137.51023	262.81541	354.76012	165.98868	96.01306	0
865	89.5037	98.45407	8.1367	-94.38572	41.49717	54.51589	96.82673	137.51023	270.13844	359.64214	168.42969	98.45407	0
866	91.94471	100.89508	8.1367	-96.82673	41.49717	54.51589	91.94471	135.06922	272.57945	362.08315	175.75272	100.89508	0
867	94.38572	103.33609	8.1367	-99.26774	43.93818	56.9569	84.62168	132.62821	272.57945	364.52416	178.19373	103.33609	0
868	94.38572	108.21811	13.01872	-101.70875	41.49717	61.83892	77.29865	127.74619	272.57945	364.52416	178.19373	103.33609	0
869	96.82673	115.54114	17.90074	-106.59077	39.05616	66.72094	69.97562	120.42316	272.57945	366.96517	178.19373	103.33609	0
870	96.82673	117.98215	20.34175	-106.59077	39.05616	69.16195	60.21158	115.54114	272.57945	366.96517	180.63474	103.33609	0
871	101.70875	122.86417	20.34175	-111.47279	41.49717	71.60296	50.44754	108.21811	267.69743	366.96517	180.63474	100.89508	0
872	101.70875	125.30518	22.78276	-113.9138	39.05616	74.04397	40.6835	103.33609	267.69743	366.96517	178.19373	103.33609	0
873	104.14976	127.74619	22.78276	-116.35481	41.49717	76.48498	35.80148	100.89508	270.13844	366.96517	178.19373	105.7771	0
874	101.70875	127.74619	25.22377	-113.9138	39.05616	76.48498	30.91946	96.01306	267.69743	366.96517	178.19373	105.7771	0
875	101.70875	127.74619	25.22377	-113.9138	39.05616	76.48498	25.22377	92.75838	267.69743	366.96517	178.19373	108.21811	0
876	104.14976	132.62821	27.66478	-118.79582	39.05616	81.367	25.22377	92.75838	267.69743	369.40618	185.51676	110.65912	0
877	106.59077	130.1872	22.78276	-118.79582	41.49717	76.48498	20.34175	92.75838	267.69743	374.2882	187.95777	115.54114	0
878	109.03178	127.74619	17.90074	-118.79582	46.37919	74.04397	15.45973	90.31737	265.25642	374.2882	190.39878	115.54114	0
879	109.03178	125.30518	15.45973	-116.35481	46.37919	71.60296	10.57771	82.99434	260.3744	374.2882	187.95777	115.54114	0
880	111.47279	122.86417	10.57771	-116.35481	51.26121	66.72094	3.25468	78.11232	255.49238	371.84719	185.51676	113.10013	0
881	116.35481	122.86417	5.69569	-118.79582	56.14323	64.27993	-4.06835	73.2303	248.16935	366.96517	180.63474	108.21811	0
882	116.35481	122.86417	5.69569	-118.79582	56.14323	64.27993	-6.50936	73.2303	245.72834	364.52416	175.75272	103.33609	0
883	118.79582	122.86417	3.25468	-121.23683	58.58424	64.27993	-6.50936	73.2303	245.72834	364.52416	170.8707	98.45407	0
884	118.79582	117.98215	-1.62734	-118.79582	61.02525	59.39791	-6.50936	73.2303	245.72834	357.20113	163.54767	93.57205	0
885	116.35481	110.65912	-6.50936	-113.9138	61.02525	52.07488	-6.50936	73.2303	243.28733	352.31911	158.66565	88.69003	0
886	111.47279	100.89508	-11.39138	-106.59077	61.02525	44.75185	-6.50936	73.2303	240.84632	347.43709	158.66565	86.24902	0
887	104.14976	88.69003	-17.08707	-96.82673	61.02525	37.42882	-1.62734	78.11232	238.40531	344.99608	158.66565	81.367	0
888	91.94471	71.60296	-21.96909	-82.18067	56.14323	25.22377	5.69569	85.43535	238.40531	344.99608	156.22464	78.92599	0
889	79.73966	52.07488	-29.29212	-65.0936	53.70222	13.01872	13.01872	87.87636	238.40531	344.99608	156.22464	76.48498	0
890	67.53461	30.10579	-39.05616	-48.00653	53.70222	-4.06835	17.90074	92.75838	238.40531	344.99608	153.78363	74.04397	0
891	60.21158	10.57771	-51.26121	-35.80148	56.14323	-19.52808	17.90074	96.01306	233.52329	342.55507	151.34262	71.60296	0
892	52.88855	-4.06835	-58.58424	-23.59643	56.14323	-31.73313	20.34175	96.01306	231.08228	340.11406	146.4606	69.16195	0
893	48.00653	-17.08707	-65.90727	-16.2734	56.14323	-41.49717	22.78276	98.45407	231.08228	332.79103	139.13757	61.83892	0
894	40.6835	-24.4101	-65.90727	-8.95037	51.26121	-43.93818	22.78276	96.01306	226.20026	327.90901	126.93252	52.07488	0
895	38.24249	-31.73313	-70.78929	-4.06835	53.70222	-51.26121	22.78276	96.01306	223.75925	320.58598	117.16848	42.31084	0
896	35.80148	-36.61515	-73.2303	0.81367	53.70222	-53.70222	22.78276	92.75838	218.87723	313.26295	112.28646	32.5468	0
897	33.36047	-39.05616	-73.2303	3.25468	51.26121	-56.14323	22.78276	92.75838	211.5542	308.38093	107.40444	25.22377	0
898	33.36047	-36.61515	-70.78929	0.81367	51.26121	-53.70222	22.78276	90.31737	206.67218	303.49891	102.52242	20.34175	0
899	33.36047	-34.17414	-68.34828	0.81367	48.8202	-51.26121	25.22377	85.43535	201.79016	301.0579	100.08141	17.90074	0
900	33.36047	-36.61515	-70.78929	0.81367	51.26121	-53.70222	25.22377	85.43535	196.90814	298.61689	97.6404	15.45973	0
901	30.91946	-39.05616	-70.78929	3.25468	48.8202	-53.70222	25.22377	85.43535	192.02612	296.17588	97.6404	13.01872	0
902	28.47845	-41.49717	-70.78929	5.69569	48.8202	-56.14323	25.22377	85.43535	192.02612	296.17588	97.6404	15.45973	0
903	26.03744	-41.49717	-68.34828	8.1367	46.37919	-53.70222	25.22377	85.43535	192.02612	296.17588	100.08141	17.90074	0
904	28.47845	-43.93818	-73.2303	8.1367	48.8202	-58.58424	28.47845	87.87636	192.02612	296.17588	97.6404	17.90074	0
905	30.91946	-46.37919	-78.11232	8.1367	53.70222	-61.02525	28.47845	90.31737	192.02612	293.73487	95.19939	15.45973	0
906	30.91946	-51.26121	-82.99434	8.1367	56.14323	-65.90727	28.47845	90.31737	192.02612	293.73487	95.19939	10.57771	0
907	33.36047	-53.70222	-87.87636	8.1367	58.58424	-70.78929	28.47845	92.75838	189.58511	293.73487	90.31737	8.1367	0
908	33.36047	-53.70222	-87.87636	8.1367	58.58424	-70.78929	33.36047	92.75838	189.58511	293.73487	87.87636	5.69569	0
909	33.36047	-53.70222	-87.87636	8.1367	58.58424	-70.78929	35.80148	92.75838	189.58511	293.73487	82.99434	3.25468	0
910	33.36047	-56.14323	-90.31737	11.39138	61.02525	-73.2303	35.80148	92.75838	189.58511	293.73487	75.67131	-1.62734	0
911	30.91946	-56.14323	-87.87636	11.39138	58.58424	-70.78929	35.80148	96.01306	184.70309	293.73487	70.78929	-4.06835	0
912	26.03744	-58.58424	-85.43535	16.2734	53.70222	-70.78929	38.24249	96.01306	184.70309	291.29386	63.46626	-8.95037	0
913	21.15542	-58.58424	-80.55333	18.71441	48.8202	-68.34828	40.6835	96.01306	187.1441	291.29386	61.02525	-8.95037	0
914	21.15542	-58.58424	-80.55333	18.71441	48.8202	-68.34828	43.12451	96.01306	187.1441	291.29386	58.58424	-8.95037	0
915	16.2734	-61.02525	-78.11232	21.15542	46.37919	-68.34828	45.56552	96.01306	187.1441	288.85285	53.70222	-11.39138	0
916	13.83239	-63.46626	-78.11232	23.59643	43.93818	-70.78929	45.56552	96.01306	184.70309	286.41184	53.70222	-11.39138	0
917	8.95037	-65.90727	-75.67131	28.47845	41.49717	-70.78929	48.00653	96.01306	182.26208	288.85285	53.70222	-11.39138	0
918	8.95037	-70.78929	-80.55333	30.91946	43.93818	-75.67131	50.44754	96.01306	182.26208	291.29386	56.14323	-11.39138	0
919	6.50936	-73.2303	-80.55333	33.36047	41.49717	-75.67131	52.88855	96.01306	182.26208	293.73487	58.58424	-8.95037	0
920	6.50936	-75.67131	-82.99434	33.36047	43.93818	-78.11232	55.32956	98.45407	182.26208	296.17588	61.02525	-8.95037	0
921	8.95037	-75.67131	-85.43535	33.36047	46.37919	-80.55333	55.32956	98.45407	182.26208	298.61689	63.46626	-8.95037	0
922	8.95037	-73.2303	-82.99434	30.91946	43.93818	-78.11232	55.32956	98.45407	182.26208	301.0579	63.46626	-6.50936	0
923	8.95037	-70.78929	-80.55333	30.91946	43.93818	-75.67131	55.32956	96.01306	184.70309	303.49891	65.90727	-6.50936	0
924	6.50936	-70.78929	-78.11232	30.91946	41.49717	-73.2303	55.32956	96.01306	184.70309	301.0579	63.46626	-8.95037	0
925	6.50936	-70.78929	-78.11232	30.91946	41.49717	-73.2303	55.32956	92.75838	184.70309	298.61689	61.02525	-8.95037	0
926	1.62734	-70.78929	-73.2303	33.36047	36.61515	-70.78929	55.32956	90.31737	182.26208	296.17588	61.02525	-11.39138	0
927	1.62734	-73.2303	-75.67131	35.80148	36.61515	-73.2303	55.32956	87.87636	179.82107	293.73487	58.58424	-14.64606	0
928	4.06835	-68.34828	-73.2303	30.91946	36.61515	-70.78929	57.77057	87.87636	179.82107	293.73487	56.14323	-11.39138	0
929	-1.62734	-65.90727	-65.90727	33.36047	31.73313	-65.90727	60.21158	85.43535	179.82107	293.73487	56.14323	-11.39138	0
930	1.62734	-63.46626	-65.90727	30.91946	31.73313	-63.46626	62.65259	85.43535	182.26208	296.17588	53.70222	-11.39138	0
931	-1.62734	-61.02525	-61.02525	30.91946	29.29212	-61.02525	65.0936	87.87636	182.26208	296.17588	51.26121	-11.39138	0
932	4.06835	-61.02525	-65.90727	28.47845	34.17414	-63.46626	69.97562	90.31737	182.26208	296.17588	48.8202	-11.39138	0
933	6.50936	-61.02525	-68.34828	26.03744	36.61515	-63.46626	72.41663	92.75838	184.70309	293.73487	43.93818	-11.39138	0
934	6.50936	-61.02525	-68.34828	26.03744	36.61515	-63.46626	74.85764	92.75838	187.1441	291.29386	39.05616	-11.39138	0
935	8.95037	-61.02525	-70.78929	26.03744	39.05616	-65.90727	74.85764	92.75838	184.70309	288.85285	34.17414	-14.64606	0
936	8.95037	-63.46626	-73.2303	26.03744	39.05616	-68.34828	72.41663	85.43535	177.38006	281.52982	34.17414	-14.64606	0
937	8.95037	-63.46626	-73.2303	26.03744	39.05616	-68.34828	65.0936	70.78929	165.17501	274.20679	14.64606	-17.08707	0
938	8.95037	-61.02525	-70.78929	26.03744	39.05616	-65.90727	57.77057	48.8202	148.08794	283.97083	-4.88202	-41.49717	0
939	28.47845	-68.34828	-97.6404	18.71441	61.02525	-82.99434	45.56552	19.52808	126.11885	266.88376	4.88202	-24.4101	0
940	18.71441	-73.2303	-92.75838	26.03744	53.70222	-82.99434	43.12451	-9.76404	98.45407	230.26861	26.85111	-6.50936	0
941	28.47845	-65.90727	-95.19939	18.71441	61.02525	-80.55333	8.1367	-46.37919	71.60296	225.38659	29.29212	22.78276	0
942	11.39138	-43.93818	-56.14323	16.2734	31.73313	-48.8202	-11.39138	-97.6404	47.19286	235.15063	53.70222	34.98781	0
943	13.83239	-43.93818	-58.58424	13.83239	34.17414	-51.26121	-48.00653	-144.01959	-21.15542	222.94558	63.46626	39.86983	0
944	33.36047	-61.02525	-95.19939	13.83239	63.46626	-78.11232	-69.97562	-148.90161	13.01872	218.06356	75.67131	37.42882	0
945	52.88855	-53.70222	-107.40444	0.81367	78.11232	-80.55333	-77.29865	-131.81454	15.45973	266.88376	126.93252	64.27993	0
946	109.03178	-6.50936	-117.16848	-50.44754	112.28646	-61.02525	-74.85764	-87.87636	-21.15542	357.20113	192.83979	113.10013	0
947	140.76491	66.72094	-75.67131	-104.14976	107.40444	-4.06835	-91.94471	-82.99434	-6.50936	528.07183	292.9212	186.33043	0
948	170.05703	174.12538	3.25468	-172.49804	82.99434	88.69003	-201.79016	-75.67131	52.07488	564.68698	395.44362	283.97083	0
949	262.81541	347.43709	83.80801	-304.31258	90.31737	215.62255	-275.02046	-126.93252	150.52895	737.99869	573.63735	449.95951	0
950	331.16369	479.25163	147.27427	-404.39399	92.75838	313.26295	-267.69743	-234.33696	255.49238	935.7205	793.32825	637.91728	0
951	453.21419	664.76839	210.74053	-558.17762	122.0505	437.75446	-443.45015	-449.14584	328.72268	1179.8215	1054.51632	889.34131	0
952	589.91075	886.9003	296.17588	-738.81236	146.4606	591.53809	-619.20287	-742.06704	311.63561	1394.63038	1352.31954	1143.20635	0
953	650.936	1135.88332	484.13365	-892.59599	82.99434	811.22899	-726.60731	-969.08097	328.72268	1616.76229	1613.50761	1367.77927	0
954	641.17196	1289.66695	647.68132	-965.82629	-3.25468	969.89464	-814.48367	-1259.56116	201.79016	1631.40835	1700.5703	1460.53765	0
955	477.62429	1328.72311	850.28515	-902.36003	-186.33043	1089.50413	-787.63256	-1508.54418	-16.2734	1453.21462	1625.71266	1428.80452	0
956	265.25642	1069.97605	803.90596	-668.02307	-269.32477	938.16151	-572.82368	-1620.83064	-316.51763	1028.47888	1252.23813	1128.56029	0
957	52.88855	772.17283	718.47061	-411.71702	-332.79103	745.32172	-377.54288	-1737.99912	-760.78145	457.28254	790.88724	774.61384	0
958	-160.29299	508.54375	667.2094	-174.93905	-413.34436	586.65607	-372.66086	-1850.28558	-1373.47496	-288.03918	234.33696	410.90335	0
959	-301.87157	308.38093	608.62516	-4.06835	-454.84153	457.28254	-289.66652	-1989.42315	-1966.64039	-1047.19329	-337.67305	71.60296	0
960	-377.54288	240.03265	615.94819	67.53461	-496.3387	427.99042	-213.99521	-2074.8585	-2281.53068	-1445.07792	-645.24031	-124.49151	0
961	-450.77318	205.85851	655.00435	121.23683	-552.48193	430.43143	-152.96996	-2121.23769	-2396.25815	-1611.0666	-820.99303	-209.92686	0
962	-492.27035	183.88942	674.53243	152.96996	-584.21506	427.99042	-135.88289	-2121.23769	-2376.73007	-1615.94862	-867.37222	-251.42403	0
963	-511.79843	164.36134	674.53243	172.49804	-593.9791	418.22638	-113.9138	-2074.8585	-2288.85371	-1557.36438	-884.45929	-285.59817	0
964	-526.44449	122.86417	647.68132	201.79016	-586.65607	384.05224	-123.67784	-2008.95123	-2183.89028	-1476.81105	-862.4902	-302.68524	0
965	-492.27035	64.27993	554.92294	213.99521	-523.18981	308.38093	-253.05137	-1945.48497	-2052.07574	-1374.28863	-818.55202	-305.12625	0
966	-462.97823	8.1367	469.48759	226.20026	-467.04658	237.59164	-399.51197	-1857.60861	-1888.52807	-1237.59207	-750.20374	-302.68524	0
967	-423.92207	-48.8202	374.2882	235.9643	-401.13931	161.92033	-443.45015	-1720.91205	-1739.62646	-1147.2747	-696.50152	-317.3313	0
968	-375.10187	-53.70222	320.58598	213.99521	-349.8781	132.62821	-421.48106	-1523.19024	-1532.14061	-986.16804	-620.83021	-310.00827	0
969	-343.36874	-39.05616	303.49891	189.58511	-325.468	132.62821	-401.95298	-1359.64257	-1356.38789	-854.3535	-564.68698	-297.80322	0
970	-333.6047	-13.83239	318.14497	172.49804	-325.468	152.15629	-384.86591	-1220.505	-1200.16325	-739.62603	-506.10274	-253.86504	0
971	-277.46147	39.86983	315.70396	118.79582	-296.17588	176.56639	-331.16369	-1049.6343	-1007.32346	-593.16543	-459.72355	-231.89595	0
972	-240.84632	54.51589	293.73487	91.94471	-266.88376	174.12538	-255.49238	-876.32259	-821.8067	-463.7919	-398.6983	-209.92686	0
973	-218.87723	139.95124	357.20113	38.24249	-288.85285	247.35568	-192.02612	-698.12886	-648.49499	-349.06443	-347.43709	-187.95777	0
974	-182.26208	137.51023	318.14497	21.15542	-249.79669	227.8276	-150.52895	-561.4323	-521.56247	-278.27514	-305.93992	-168.42969	0
975	-140.76491	115.54114	254.67871	11.39138	-198.53548	183.88942	-84.62168	-446.70483	-404.39399	-214.80888	-274.20679	-148.90161	0
976	-96.82673	93.57205	188.77144	0.81367	-142.39225	139.95124	-21.15542	-317.3313	-279.90248	-144.01959	-232.70962	-134.25555	0
977	-77.29865	32.5468	108.21811	21.15542	-93.57205	69.16195	43.12451	-187.95777	-177.38006	-87.87636	-176.56639	-122.0505	0
978	-55.32956	-24.4101	30.10579	38.24249	-44.75185	3.25468	89.5037	-82.99434	-87.06269	-12.20505	-135.06922	-109.84545	0
979	-33.36047	-46.37919	-13.83239	38.24249	-10.57771	-31.73313	121.23683	-12.20505	-28.47845	30.10579	-108.21811	-100.08141	0
980	-48.00653	-75.67131	-29.29212	60.21158	-10.57771	-53.70222	145.64693	36.61515	13.01872	61.83892	-69.16195	-90.31737	0
981	-50.44754	-31.73313	17.90074	40.6835	-34.98781	-6.50936	160.29299	73.2303	59.39791	110.65912	-56.9569	-80.55333	0
982	-40.6835	-39.05616	0.81367	38.24249	-22.78276	-19.52808	167.61602	78.11232	83.80801	132.62821	-44.75185	-68.34828	0
983	-35.80148	-43.93818	-8.95037	38.24249	-15.45973	-26.85111	155.41097	87.87636	104.14976	157.03831	-39.86983	-58.58424	0
984	-30.91946	-51.26121	-21.96909	40.6835	-5.69569	-36.61515	145.64693	103.33609	118.79582	164.36134	-37.42882	-53.70222	0
985	-26.03744	-56.14323	-31.73313	40.6835	1.62734	-43.93818	172.49804	120.42316	145.64693	174.12538	-27.66478	-48.8202	0
986	-21.15542	-63.46626	-43.93818	40.6835	9.76404	-53.70222	179.82107	147.27427	182.26208	188.77144	-17.08707	-43.93818	0
987	-18.71441	-70.78929	-53.70222	43.12451	17.08707	-63.46626	184.70309	179.0074	201.79016	186.33043	-9.76404	-43.93818	0
988	-16.2734	-73.2303	-58.58424	43.12451	19.52808	-65.90727	192.02612	196.09447	221.31824	196.09447	-4.88202	-43.93818	0
989	-13.83239	-75.67131	-63.46626	43.12451	24.4101	-70.78929	199.34915	203.4175	216.43622	205.85851	0	-43.93818	0
990	-8.95037	-80.55333	-73.2303	43.12451	31.73313	-78.11232	201.79016	218.06356	231.08228	215.62255	2.44101	-43.93818	0
