samplenr	I	II	III	aVR	aVL	aVF	V1	V2	V3	V4	V5	V6	measurement
0	-58.58424	74.04397	131.81454	-7.32303	-94.38572	102.52242	98.45407	-138.3239	-148.08794	0.81367	-73.2303	-87.06269	0
1	-58.58424	76.48498	134.25555	-9.76404	-96.82673	104.96343	98.45407	-138.3239	-150.52895	3.25468	-70.78929	-84.62168	0
2	-51.26121	83.80801	134.25555	-17.08707	-91.94471	107.40444	98.45407	-135.88289	-150.52895	8.1367	-63.46626	-77.29865	0
3	-51.26121	86.24902	136.69656	-17.08707	-94.38572	109.84545	91.13104	-138.3239	-150.52895	10.57771	-58.58424	-69.97562	0
4	-46.37919	93.57205	139.13757	-24.4101	-91.94471	114.72747	88.69003	-138.3239	-145.64693	15.45973	-53.70222	-62.65259	0
5	-46.37919	100.89508	146.4606	-26.85111	-96.82673	122.0505	88.69003	-135.88289	-138.3239	20.34175	-46.37919	-55.32956	0
6	-48.8202	105.7771	153.78363	-29.29212	-101.70875	129.37353	88.69003	-131.00087	-133.44188	25.22377	-39.05616	-48.00653	0
7	-48.8202	115.54114	163.54767	-34.17414	-106.59077	139.13757	93.57205	-123.67784	-126.11885	34.98781	-29.29212	-35.80148	0
8	-43.93818	117.98215	161.10666	-36.61515	-101.70875	139.13757	93.57205	-123.67784	-126.11885	37.42882	-24.4101	-30.91946	0
9	-46.37919	122.86417	168.42969	-39.05616	-106.59077	144.01959	93.57205	-123.67784	-126.11885	37.42882	-24.4101	-30.91946	0
10	-34.17414	127.74619	161.10666	-46.37919	-96.82673	144.01959	88.69003	-123.67784	-126.11885	37.42882	-21.96909	-28.47845	0
11	-31.73313	130.1872	161.10666	-48.8202	-96.82673	144.01959	83.80801	-123.67784	-128.55986	39.86983	-21.96909	-28.47845	0
12	-34.17414	137.51023	170.8707	-51.26121	-101.70875	153.78363	76.48498	-126.11885	-133.44188	39.86983	-21.96909	-28.47845	0
13	-24.4101	139.95124	163.54767	-58.58424	-94.38572	151.34262	66.72094	-131.00087	-138.3239	37.42882	-21.96909	-33.36047	0
14	-14.64606	139.95124	153.78363	-63.46626	-84.62168	146.4606	61.83892	-133.44188	-140.76491	37.42882	-21.96909	-33.36047	0
15	-4.88202	144.83326	148.90161	-70.78929	-77.29865	146.4606	61.83892	-131.00087	-138.3239	42.31084	-17.08707	-28.47845	0
16	-4.88202	147.27427	151.34262	-70.78929	-77.29865	148.90161	64.27993	-126.11885	-135.88289	49.63387	-7.32303	-18.71441	0
17	-9.76404	147.27427	156.22464	-68.34828	-82.18067	151.34262	66.72094	-123.67784	-135.88289	52.07488	-4.88202	-16.2734	0
18	0	142.39225	141.57858	-70.78929	-69.97562	141.57858	61.83892	-126.11885	-138.3239	49.63387	-4.88202	-16.2734	0
19	8.1367	137.51023	129.37353	-73.2303	-60.21158	134.25555	56.9569	-131.00087	-145.64693	44.75185	-7.32303	-18.71441	0
20	13.01872	139.95124	126.93252	-75.67131	-57.77057	134.25555	47.19286	-140.76491	-152.96996	42.31084	-9.76404	-21.15542	0
21	0	132.62821	131.81454	-65.90727	-65.0936	131.81454	34.17414	-152.96996	-165.17501	37.42882	-14.64606	-26.03744	0
22	0	122.86417	122.0505	-61.02525	-60.21158	122.0505	17.08707	-167.61602	-174.93905	30.10579	-19.52808	-33.36047	0
23	-4.88202	117.98215	122.0505	-56.14323	-62.65259	119.60949	0	-177.38006	-182.26208	25.22377	-24.4101	-38.24249	0
24	-14.64606	115.54114	129.37353	-51.26121	-72.41663	122.0505	-14.64606	-184.70309	-184.70309	25.22377	-24.4101	-35.80148	0
25	-26.85111	113.10013	139.13757	-43.93818	-82.18067	124.49151	-24.4101	-187.1441	-184.70309	27.66478	-19.52808	-30.91946	0
26	-31.73313	110.65912	141.57858	-39.05616	-87.06269	124.49151	-36.61515	-189.58511	-184.70309	30.10579	-19.52808	-28.47845	0
27	-31.73313	105.7771	136.69656	-36.61515	-84.62168	119.60949	-43.93818	-192.02612	-184.70309	34.98781	-14.64606	-23.59643	0
28	-26.85111	108.21811	134.25555	-41.49717	-79.73966	119.60949	-48.8202	-192.02612	-187.1441	34.98781	-9.76404	-21.15542	0
29	-14.64606	105.7771	119.60949	-46.37919	-67.53461	112.28646	-51.26121	-189.58511	-187.1441	39.86983	-7.32303	-16.2734	0
30	-7.32303	103.33609	109.84545	-48.8202	-57.77057	104.96343	-48.8202	-184.70309	-187.1441	49.63387	0.81367	-8.95037	0
31	3.25468	83.80801	80.55333	-43.93818	-38.24249	82.99434	-53.70222	-192.02612	-196.90814	47.19286	0.81367	-11.39138	0
32	5.69569	59.39791	53.70222	-31.73313	-23.59643	56.14323	-61.02525	-199.34915	-206.67218	39.86983	-4.88202	-18.71441	0
33	5.69569	47.19286	41.49717	-26.85111	-18.71441	43.93818	-70.78929	-204.23117	-211.5542	37.42882	-7.32303	-23.59643	0
34	5.69569	37.42882	31.73313	-21.96909	-13.83239	34.17414	-75.67131	-209.11319	-213.99521	30.10579	-14.64606	-30.91946	0
35	-7.32303	22.78276	29.29212	-7.32303	-18.71441	24.4101	-78.11232	-216.43622	-213.99521	25.22377	-19.52808	-35.80148	0
36	-4.88202	15.45973	19.52808	-4.88202	-11.39138	17.08707	-85.43535	-228.64127	-226.20026	10.57771	-31.73313	-50.44754	0
37	-2.44101	15.45973	17.08707	-7.32303	-8.95037	14.64606	-87.87636	-235.9643	-233.52329	-2.44101	-41.49717	-60.21158	0
38	-14.64606	17.90074	31.73313	-2.44101	-23.59643	24.4101	-85.43535	-235.9643	-233.52329	-7.32303	-46.37919	-65.0936	0
39	-19.52808	20.34175	39.05616	-2.44101	-28.47845	29.29212	-80.55333	-233.52329	-235.9643	-14.64606	-48.8202	-69.97562	0
40	-26.85111	17.90074	43.93818	3.25468	-35.80148	29.29212	-73.2303	-231.08228	-238.40531	-14.64606	-48.8202	-67.53461	0
41	-26.85111	15.45973	41.49717	5.69569	-33.36047	26.85111	-73.2303	-228.64127	-240.84632	-19.52808	-48.8202	-67.53461	0
42	-34.17414	8.1367	41.49717	13.01872	-38.24249	24.4101	-75.67131	-228.64127	-243.28733	-21.96909	-51.26121	-67.53461	0
43	-41.49717	-2.44101	39.05616	20.34175	-40.6835	17.08707	-80.55333	-228.64127	-243.28733	-26.85111	-53.70222	-69.97562	0
44	-43.93818	-14.64606	29.29212	27.66478	-38.24249	7.32303	-85.43535	-231.08228	-245.72834	-29.29212	-58.58424	-72.41663	0
45	-48.8202	-26.85111	21.96909	37.42882	-35.80148	-3.25468	-87.87636	-235.9643	-245.72834	-31.73313	-61.02525	-77.29865	0
46	-46.37919	-36.61515	9.76404	39.86983	-28.47845	-15.45973	-90.31737	-238.40531	-248.16935	-34.17414	-63.46626	-79.73966	0
47	-41.49717	-43.93818	-3.25468	42.31084	-21.15542	-25.22377	-90.31737	-240.84632	-250.61036	-36.61515	-65.90727	-84.62168	0
48	-41.49717	-58.58424	-17.90074	49.63387	-13.83239	-39.86983	-87.87636	-240.84632	-253.05137	-39.05616	-65.90727	-89.5037	0
49	-41.49717	-63.46626	-22.78276	52.07488	-11.39138	-44.75185	-78.11232	-233.52329	-250.61036	-36.61515	-63.46626	-89.5037	0
50	-41.49717	-63.46626	-22.78276	52.07488	-11.39138	-44.75185	-65.90727	-228.64127	-250.61036	-36.61515	-58.58424	-89.5037	0
51	-43.93818	-63.46626	-20.34175	52.07488	-13.83239	-42.31084	-61.02525	-223.75925	-250.61036	-39.05616	-58.58424	-91.94471	0
52	-48.8202	-68.34828	-20.34175	56.9569	-16.2734	-44.75185	-58.58424	-221.31824	-250.61036	-41.49717	-58.58424	-94.38572	0
53	-58.58424	-75.67131	-17.90074	66.72094	-21.15542	-47.19286	-56.14323	-218.87723	-250.61036	-43.93818	-58.58424	-96.82673	0
54	-61.02525	-75.67131	-15.45973	66.72094	-23.59643	-47.19286	-56.14323	-216.43622	-248.16935	-46.37919	-58.58424	-96.82673	0
55	-51.26121	-73.2303	-22.78276	61.83892	-16.2734	-49.63387	-53.70222	-213.99521	-243.28733	-46.37919	-56.14323	-94.38572	0
56	-46.37919	-65.90727	-20.34175	54.51589	-13.83239	-44.75185	-53.70222	-213.99521	-238.40531	-46.37919	-53.70222	-94.38572	0
57	-46.37919	-61.02525	-15.45973	52.07488	-16.2734	-39.86983	-53.70222	-209.11319	-233.52329	-43.93818	-51.26121	-89.5037	0
58	-31.73313	-48.8202	-17.90074	39.86983	-8.95037	-34.98781	-51.26121	-204.23117	-228.64127	-41.49717	-48.8202	-87.06269	0
59	-19.52808	-36.61515	-17.90074	27.66478	-1.62734	-27.66478	-43.93818	-199.34915	-226.20026	-39.05616	-43.93818	-84.62168	0
60	-17.08707	-29.29212	-13.01872	22.78276	-4.06835	-22.78276	-36.61515	-192.02612	-218.87723	-34.17414	-39.05616	-77.29865	0
61	-17.08707	-29.29212	-13.01872	22.78276	-4.06835	-22.78276	-36.61515	-192.02612	-221.31824	-36.61515	-39.05616	-77.29865	0
62	-14.64606	-31.73313	-17.90074	22.78276	1.62734	-25.22377	-41.49717	-192.02612	-226.20026	-41.49717	-41.49717	-79.73966	0
63	-9.76404	-34.17414	-25.22377	20.34175	6.50936	-30.10579	-46.37919	-192.02612	-223.75925	-41.49717	-39.05616	-74.85764	0
64	-14.64606	-36.61515	-22.78276	25.22377	4.06835	-30.10579	-51.26121	-189.58511	-218.87723	-41.49717	-36.61515	-69.97562	0
65	-14.64606	-41.49717	-27.66478	27.66478	6.50936	-34.98781	-58.58424	-192.02612	-216.43622	-41.49717	-36.61515	-69.97562	0
66	-14.64606	-46.37919	-32.5468	30.10579	8.95037	-39.86983	-68.34828	-196.90814	-218.87723	-46.37919	-39.05616	-69.97562	0
67	-12.20505	-51.26121	-39.86983	30.10579	13.83239	-47.19286	-73.2303	-199.34915	-221.31824	-53.70222	-46.37919	-74.85764	0
68	-21.96909	-51.26121	-30.10579	34.98781	4.06835	-42.31084	-68.34828	-194.46713	-216.43622	-53.70222	-43.93818	-74.85764	0
69	-31.73313	-56.14323	-25.22377	42.31084	-4.06835	-42.31084	-65.90727	-192.02612	-213.99521	-58.58424	-46.37919	-77.29865	0
70	-31.73313	-58.58424	-27.66478	44.75185	-4.06835	-44.75185	-63.46626	-194.46713	-216.43622	-63.46626	-51.26121	-82.18067	0
71	-29.29212	-58.58424	-30.10579	42.31084	-1.62734	-44.75185	-63.46626	-194.46713	-216.43622	-63.46626	-53.70222	-84.62168	0
72	-34.17414	-61.02525	-27.66478	47.19286	-4.06835	-44.75185	-61.02525	-192.02612	-216.43622	-63.46626	-51.26121	-82.18067	0
73	-34.17414	-56.14323	-22.78276	44.75185	-6.50936	-39.86983	-63.46626	-196.90814	-216.43622	-61.02525	-48.8202	-79.73966	0
74	-34.17414	-46.37919	-13.01872	39.86983	-11.39138	-30.10579	-65.90727	-199.34915	-213.99521	-56.14323	-43.93818	-74.85764	0
75	-24.4101	-31.73313	-8.1367	27.66478	-8.95037	-20.34175	-68.34828	-213.99521	-221.31824	-53.70222	-41.49717	-72.41663	0
76	-24.4101	-9.76404	14.64606	15.45973	-21.15542	1.62734	-73.2303	-235.9643	-235.9643	-48.8202	-36.61515	-69.97562	0
77	-31.73313	10.57771	41.49717	10.57771	-35.80148	24.4101	-73.2303	-262.81541	-253.05137	-41.49717	-26.85111	-60.21158	0
78	-36.61515	32.5468	68.34828	0.81367	-52.88855	48.8202	-70.78929	-287.22551	-272.57945	-31.73313	-17.08707	-48.00653	0
79	-43.93818	52.07488	95.19939	-4.88202	-69.97562	73.2303	-61.02525	-311.63561	-287.22551	-14.64606	-1.62734	-30.91946	0
80	-48.8202	71.60296	119.60949	-12.20505	-84.62168	95.19939	-48.8202	-338.48672	-309.1946	0.81367	15.45973	-16.2734	0
81	-48.8202	86.24902	134.25555	-19.52808	-91.94471	109.84545	-46.37919	-370.21985	-331.16369	17.90074	32.5468	-0.81367	0
82	-56.14323	96.01306	151.34262	-19.52808	-104.14976	122.0505	-31.73313	-394.62995	-345.80975	44.75185	61.83892	26.03744	0
83	-53.70222	103.33609	156.22464	-24.4101	-104.14976	129.37353	-24.4101	-419.04005	-360.45581	74.04397	88.69003	50.44754	0
84	-46.37919	113.10013	158.66565	-34.17414	-101.70875	134.25555	-26.85111	-455.6552	-384.86591	100.89508	117.98215	74.85764	0
85	-41.49717	127.74619	168.42969	-43.93818	-104.14976	146.4606	-48.8202	-521.56247	-428.80409	130.1872	147.27427	104.14976	0
86	-36.61515	144.83326	180.63474	-53.70222	-109.03178	161.10666	-95.19939	-611.87984	-492.27035	159.47932	181.44841	135.88289	0
87	-21.96909	174.12538	195.2808	-75.67131	-109.03178	183.07575	-151.34262	-716.84327	-558.17762	198.53548	225.38659	179.82107	0
88	-7.32303	200.97649	207.48585	-97.6404	-106.59077	202.60383	-219.6909	-836.45276	-633.84893	240.03265	271.76578	226.20026	0
89	15.45973	227.8276	212.36787	-122.0505	-99.26774	219.6909	-305.12625	-978.03134	-721.72529	279.08881	318.14497	270.13844	0
90	32.5468	257.11972	224.57292	-144.01959	-96.82673	241.65999	-402.76665	-1136.69699	-819.36569	318.14497	364.52416	316.51763	0
91	61.83892	291.29386	229.45494	-175.75272	-84.62168	261.18807	-510.17109	-1292.92163	-914.56508	354.76012	408.46234	360.45581	0
92	98.45407	318.14497	219.6909	-207.48585	-60.21158	268.5111	-620.01654	-1427.17718	-1000.00043	384.05224	442.63648	394.62995	0
93	120.42316	323.02699	202.60383	-222.13191	-40.6835	263.62908	-722.53896	-1546.78667	-1078.11275	396.25729	464.60557	416.59904	0
94	130.1872	318.14497	187.95777	-224.57292	-28.47845	253.86504	-817.73835	-1651.7501	-1158.66608	384.05224	459.72355	421.48106	0
95	125.30518	303.49891	178.19373	-214.80888	-26.03744	241.65999	-910.49673	-1734.74444	-1229.45537	349.8781	435.31345	404.39399	0
96	130.1872	274.20679	144.01959	-202.60383	-6.50936	209.92686	-991.05006	-1781.12363	-1285.5986	281.52982	381.61123	365.33783	0
97	113.10013	215.62255	102.52242	-163.54767	6.50936	158.66565	-1047.19329	-1786.00565	-1322.21375	191.21245	303.49891	306.75359	0
98	86.24902	142.39225	56.14323	-114.72747	16.2734	100.08141	-1083.80844	-1766.47757	-1341.74183	83.80801	208.29952	231.08228	0
99	52.07488	74.04397	21.96909	-63.46626	16.2734	48.8202	-1091.13147	-1715.21636	-1339.30082	-29.29212	105.7771	148.08794	0
100	22.78276	5.69569	-17.90074	-14.64606	21.15542	-5.69569	-1078.92642	-1632.22202	-1314.89072	-134.25555	10.57771	67.53461	1000	P+0
101	-4.88202	-58.58424	-54.51589	30.10579	23.59643	-56.9569	-1052.07531	-1522.37657	-1263.62951	-222.13191	-75.67131	-6.50936	0
102	-21.96909	-114.72747	-93.57205	66.72094	35.80148	-105.7771	-1010.57814	-1388.12102	-1185.51719	-288.03918	-146.4606	-72.41663	0
103	-43.93818	-151.34262	-108.21811	96.01306	30.91946	-130.1872	-951.9939	-1234.33739	-1075.67174	-322.21332	-187.95777	-116.35481	0
104	-43.93818	-158.66565	-115.54114	100.89508	35.80148	-137.51023	-886.08663	-1063.46669	-948.73922	-329.53635	-207.48585	-143.20592	0
105	-39.05616	-156.22464	-117.98215	96.01306	38.24249	-137.51023	-812.85633	-887.71397	-804.71963	-314.89029	-209.92686	-155.41097	0
106	-26.85111	-144.01959	-117.98215	83.80801	45.56552	-132.62821	-742.06704	-724.1663	-665.58206	-292.9212	-200.16282	-160.29299	0
107	-12.20505	-124.49151	-113.10013	66.72094	50.44754	-120.42316	-666.39573	-567.94166	-526.44449	-261.18807	-185.51676	-155.41097	0
108	3.25468	-104.96343	-108.21811	49.63387	55.32956	-105.7771	-588.28341	-421.48106	-394.62995	-227.01393	-163.54767	-145.64693	0
109	13.01872	-87.87636	-100.89508	37.42882	55.32956	-93.57205	-517.49412	-301.87157	-282.34349	-192.83979	-141.57858	-135.88289	0
110	10.57771	-85.43535	-96.01306	37.42882	52.88855	-91.13104	-449.14584	-204.23117	-192.02612	-165.98868	-126.93252	-131.00087	0
111	3.25468	-92.75838	-96.01306	44.75185	48.00653	-93.57205	-385.67958	-118.79582	-111.47279	-144.01959	-112.28646	-126.11885	0
112	0	-104.96343	-105.7771	52.07488	52.88855	-105.7771	-331.97736	-43.12451	-45.56552	-129.37353	-102.52242	-126.11885	0
113	8.1367	-112.28646	-120.42316	52.07488	62.65259	-115.54114	-283.15716	25.22377	17.90074	-114.72747	-92.75838	-126.11885	0
114	3.25468	-124.49151	-127.74619	59.39791	65.0936	-125.30518	-239.21898	84.62168	69.97562	-100.08141	-82.99434	-121.23683	0
115	0	-141.57858	-142.39225	69.16195	69.97562	-142.39225	-200.16282	135.88289	121.23683	-87.87636	-73.2303	-116.35481	0
116	3.25468	-158.66565	-161.92033	76.48498	82.18067	-159.47932	-170.8707	174.93905	157.85198	-78.11232	-68.34828	-113.9138	0
117	8.1367	-170.8707	-179.0074	81.367	91.94471	-174.12538	-144.01959	201.79016	184.70309	-73.2303	-63.46626	-111.47279	0
118	15.45973	-178.19373	-193.65346	81.367	104.14976	-186.33043	-122.0505	223.75925	206.67218	-65.90727	-58.58424	-109.03178	0
119	13.01872	-185.51676	-198.53548	86.24902	104.14976	-191.21245	-100.08141	240.84632	226.20026	-58.58424	-51.26121	-106.59077	0
120	17.90074	-197.72181	-215.62255	88.69003	116.35481	-205.85851	-85.43535	250.61036	238.40531	-53.70222	-48.8202	-106.59077	0
121	17.90074	-202.60383	-220.50457	91.13104	118.79582	-210.74053	-75.67131	257.93339	245.72834	-51.26121	-46.37919	-109.03178	0
122	13.01872	-202.60383	-215.62255	93.57205	113.9138	-208.29952	-70.78929	265.25642	250.61036	-51.26121	-46.37919	-113.9138	0
123	10.57771	-192.83979	-203.4175	91.13104	106.59077	-198.53548	-61.02525	279.90248	262.81541	-43.93818	-41.49717	-109.03178	0
124	10.57771	-185.51676	-196.09447	86.24902	101.70875	-191.21245	-58.58424	289.66652	272.57945	-41.49717	-36.61515	-109.03178	0
125	10.57771	-180.63474	-191.21245	83.80801	99.26774	-186.33043	-53.70222	299.43056	279.90248	-36.61515	-31.73313	-106.59077	0
126	8.1367	-175.75272	-183.88942	83.80801	94.38572	-179.0074	-48.8202	306.75359	284.7845	-31.73313	-26.85111	-101.70875	0
127	8.1367	-173.31171	-181.44841	81.367	94.38572	-176.56639	-39.05616	314.07662	292.10753	-26.85111	-21.96909	-99.26774	0
128	17.90074	-170.8707	-188.77144	76.48498	101.70875	-179.0074	-29.29212	316.51763	294.54854	-26.85111	-19.52808	-96.82673	0
129	17.90074	-170.8707	-188.77144	76.48498	101.70875	-179.0074	-17.08707	326.28167	304.31258	-19.52808	-12.20505	-89.5037	0
130	17.90074	-170.8707	-188.77144	76.48498	101.70875	-179.0074	-4.88202	328.72268	306.75359	-14.64606	-7.32303	-89.5037	0
131	20.34175	-170.8707	-191.21245	74.04397	104.14976	-181.44841	2.44101	331.16369	309.1946	-12.20505	-4.88202	-84.62168	0
132	17.90074	-175.75272	-193.65346	78.92599	104.14976	-183.88942	4.88202	333.6047	311.63561	-9.76404	-1.62734	-82.18067	0
133	20.34175	-170.8707	-191.21245	74.04397	104.14976	-181.44841	4.88202	336.04571	316.51763	-9.76404	0.81367	-79.73966	0
134	17.90074	-168.42969	-186.33043	74.04397	101.70875	-176.56639	4.88202	340.92773	321.39965	-7.32303	3.25468	-79.73966	0
135	20.34175	-161.10666	-181.44841	69.16195	99.26774	-171.68437	7.32303	345.80975	326.28167	-7.32303	3.25468	-79.73966	0
136	30.10579	-156.22464	-186.33043	61.83892	106.59077	-171.68437	4.88202	345.80975	326.28167	-7.32303	3.25468	-84.62168	0
137	32.5468	-156.22464	-188.77144	61.83892	109.03178	-171.68437	7.32303	350.69177	326.28167	-7.32303	0.81367	-84.62168	0
138	37.42882	-158.66565	-196.09447	59.39791	116.35481	-176.56639	9.76404	355.57379	328.72268	-7.32303	0.81367	-89.5037	0
139	42.31084	-156.22464	-198.53548	56.9569	118.79582	-176.56639	14.64606	358.0148	331.16369	-7.32303	-4.88202	-91.94471	0
140	44.75185	-161.10666	-205.85851	56.9569	123.67784	-183.88942	17.08707	358.0148	326.28167	-9.76404	-4.88202	-94.38572	0
141	44.75185	-161.10666	-205.85851	56.9569	123.67784	-183.88942	21.96909	360.45581	326.28167	-7.32303	-4.88202	-91.94471	0
142	44.75185	-161.10666	-205.85851	56.9569	123.67784	-183.88942	21.96909	362.89682	326.28167	-7.32303	-4.88202	-91.94471	0
143	44.75185	-161.10666	-205.85851	56.9569	123.67784	-183.88942	21.96909	365.33783	326.28167	-7.32303	-4.88202	-91.94471	0
144	39.86983	-163.54767	-203.4175	61.83892	121.23683	-183.88942	24.4101	367.77884	328.72268	-4.88202	-4.88202	-91.94471	0
145	30.10579	-168.42969	-198.53548	69.16195	113.9138	-183.88942	26.85111	370.21985	331.16369	-4.88202	-4.88202	-91.94471	0
146	22.78276	-173.31171	-196.09447	74.04397	109.03178	-183.88942	31.73313	372.66086	333.6047	-2.44101	-4.88202	-89.5037	0
147	20.34175	-178.19373	-198.53548	78.92599	109.03178	-188.77144	36.61515	377.54288	333.6047	-2.44101	-4.88202	-89.5037	0
148	15.45973	-183.07575	-198.53548	83.80801	106.59077	-191.21245	43.93818	379.98389	333.6047	-2.44101	-4.88202	-89.5037	0
149	10.57771	-187.95777	-198.53548	88.69003	104.14976	-193.65346	49.63387	384.86591	336.04571	0.81367	-4.88202	-87.06269	0
150	10.57771	-185.51676	-196.09447	86.24902	101.70875	-191.21245	56.9569	384.86591	336.04571	0.81367	-4.88202	-87.06269	0
151	17.90074	-178.19373	-196.09447	78.92599	106.59077	-186.33043	64.27993	389.74793	336.04571	3.25468	-1.62734	-82.18067	0
152	22.78276	-170.8707	-193.65346	74.04397	106.59077	-181.44841	69.16195	394.62995	340.92773	8.1367	0.81367	-79.73966	0
153	30.10579	-163.54767	-193.65346	66.72094	111.47279	-179.0074	69.16195	397.07096	345.80975	8.1367	0.81367	-79.73966	0
154	32.5468	-163.54767	-196.09447	64.27993	113.9138	-179.0074	69.16195	401.95298	348.25076	5.69569	-1.62734	-84.62168	0
155	39.86983	-161.10666	-200.97649	59.39791	118.79582	-181.44841	71.60296	404.39399	355.57379	5.69569	-1.62734	-87.06269	0
156	42.31084	-163.54767	-205.85851	59.39791	123.67784	-183.88942	71.60296	409.27601	360.45581	3.25468	-4.88202	-91.94471	0
157	39.86983	-165.98868	-205.85851	61.83892	121.23683	-186.33043	76.48498	414.15803	365.33783	0.81367	-7.32303	-96.82673	0
158	42.31084	-165.98868	-208.29952	61.83892	123.67784	-186.33043	81.367	419.04005	370.21985	0.81367	-9.76404	-101.70875	0
159	42.31084	-165.98868	-208.29952	61.83892	123.67784	-186.33043	86.24902	426.36308	377.54288	0.81367	-9.76404	-101.70875	0
160	49.63387	-156.22464	-205.85851	52.07488	126.11885	-181.44841	93.57205	428.80409	384.86591	0.81367	-7.32303	-101.70875	0
161	49.63387	-144.01959	-193.65346	47.19286	121.23683	-169.24336	96.01306	428.80409	389.74793	3.25468	-4.88202	-101.70875	0
162	44.75185	-131.81454	-176.56639	42.31084	109.03178	-154.5973	100.89508	433.68611	397.07096	8.1367	-1.62734	-96.82673	0
163	49.63387	-122.0505	-171.68437	34.98781	109.03178	-147.27427	100.89508	438.56813	409.27601	13.01872	3.25468	-91.94471	0
164	52.07488	-117.16848	-169.24336	32.5468	109.03178	-142.39225	103.33609	445.89116	421.48106	20.34175	8.1367	-84.62168	0
165	56.9569	-114.72747	-171.68437	27.66478	113.9138	-142.39225	105.7771	448.33217	428.80409	22.78276	13.01872	-79.73966	0
166	52.07488	-117.16848	-169.24336	32.5468	109.03178	-142.39225	103.33609	448.33217	431.2451	22.78276	15.45973	-79.73966	0
167	52.07488	-117.16848	-169.24336	32.5468	109.03178	-142.39225	103.33609	455.6552	436.12712	22.78276	17.90074	-77.29865	0
168	64.27993	-117.16848	-181.44841	25.22377	121.23683	-149.71528	110.65912	460.53722	441.00914	25.22377	20.34175	-74.85764	0
169	61.83892	-129.37353	-191.21245	32.5468	126.11885	-159.47932	108.21811	462.97823	441.00914	22.78276	20.34175	-74.85764	0
170	47.19286	-136.69656	-183.88942	44.75185	113.9138	-159.47932	113.10013	467.86025	443.45015	27.66478	27.66478	-72.41663	0
171	37.42882	-141.57858	-179.0074	52.07488	106.59077	-159.47932	110.65912	472.74227	443.45015	27.66478	27.66478	-72.41663	0
172	39.86983	-139.13757	-179.0074	49.63387	109.03178	-159.47932	108.21811	477.62429	443.45015	22.78276	27.66478	-74.85764	0
173	44.75185	-139.13757	-183.88942	47.19286	113.9138	-161.92033	105.7771	484.94732	445.89116	22.78276	27.66478	-74.85764	0
174	47.19286	-146.4606	-193.65346	49.63387	118.79582	-169.24336	105.7771	489.82934	450.77318	20.34175	25.22377	-77.29865	0
175	44.75185	-156.22464	-200.97649	54.51589	121.23683	-179.0074	110.65912	497.15237	455.6552	17.90074	25.22377	-79.73966	0
176	59.39791	-146.4606	-205.85851	42.31084	131.00087	-176.56639	115.54114	504.4754	458.09621	17.90074	25.22377	-79.73966	0
177	66.72094	-134.25555	-200.97649	32.5468	133.44188	-166.80235	120.42316	511.79843	460.53722	17.90074	25.22377	-82.18067	0
178	69.16195	-126.93252	-196.09447	27.66478	131.00087	-161.92033	130.1872	521.56247	465.41924	25.22377	30.10579	-77.29865	0
179	69.16195	-119.60949	-188.77144	25.22377	128.55986	-154.5973	139.95124	533.76752	470.30126	30.10579	37.42882	-72.41663	0
180	64.27993	-112.28646	-176.56639	22.78276	118.79582	-144.83326	147.27427	543.53156	475.18328	34.98781	44.75185	-67.53461	0
181	49.63387	-100.08141	-149.71528	25.22377	99.26774	-125.30518	154.5973	555.73661	484.94732	47.19286	54.51589	-60.21158	0
182	47.19286	-92.75838	-139.95124	22.78276	91.94471	-115.54114	157.03831	565.50065	489.82934	52.07488	61.83892	-55.32956	0
183	39.86983	-92.75838	-132.62821	25.22377	84.62168	-113.10013	161.92033	577.7057	497.15237	59.39791	66.72094	-50.44754	0
184	39.86983	-90.31737	-130.1872	25.22377	84.62168	-110.65912	164.36134	587.46974	502.03439	61.83892	69.16195	-48.00653	0
185	39.86983	-85.43535	-125.30518	22.78276	82.18067	-105.7771	169.24336	592.35176	506.91641	64.27993	71.60296	-45.56552	0
186	32.5468	-90.31737	-122.86417	27.66478	77.29865	-105.7771	171.68437	594.79277	506.91641	69.16195	71.60296	-43.12451	0
187	32.5468	-97.6404	-130.1872	32.5468	79.73966	-113.10013	171.68437	594.79277	502.03439	69.16195	74.04397	-43.12451	0
188	32.5468	-100.08141	-132.62821	32.5468	82.18067	-115.54114	171.68437	599.67479	499.59338	74.04397	76.48498	-38.24249	0
189	42.31084	-87.87636	-130.1872	22.78276	84.62168	-108.21811	174.12538	602.1158	497.15237	78.92599	78.92599	-35.80148	0
190	61.83892	-75.67131	-137.51023	5.69569	99.26774	-105.7771	171.68437	597.23378	487.38833	76.48498	74.04397	-38.24249	0
191	69.16195	-63.46626	-132.62821	-2.44101	99.26774	-98.45407	171.68437	602.1158	487.38833	81.367	78.92599	-33.36047	0
192	78.92599	-46.37919	-125.30518	-17.08707	101.70875	-86.24902	174.12538	609.43883	492.27035	88.69003	83.80801	-26.03744	0
193	78.92599	-24.4101	-103.33609	-26.85111	89.5037	-64.27993	181.44841	619.20287	504.4754	100.89508	96.01306	-13.83239	0
194	78.92599	-9.76404	-88.69003	-34.17414	82.18067	-49.63387	191.21245	626.5259	511.79843	108.21811	103.33609	-6.50936	0
195	81.367	-4.88202	-86.24902	-39.05616	82.18067	-44.75185	196.09447	624.08489	511.79843	108.21811	105.7771	-6.50936	0
196	69.16195	0	-69.16195	-34.17414	67.53461	-34.98781	200.97649	624.08489	514.23944	115.54114	113.10013	4.06835	0
197	61.83892	8.1367	-54.51589	-34.17414	57.77057	-22.78276	208.29952	621.64388	514.23944	122.86417	120.42316	11.39138	0
198	49.63387	13.01872	-37.42882	-31.73313	43.12451	-13.01872	210.74053	616.76186	509.35742	130.1872	127.74619	21.15542	0
199	47.19286	20.34175	-27.66478	-34.17414	38.24249	-3.25468	208.29952	609.43883	502.03439	135.06922	135.06922	28.47845	0
200	66.72094	39.86983	-27.66478	-53.70222	48.00653	7.32303	203.4175	597.23378	494.71136	137.51023	139.95124	33.36047	0
201	81.367	61.83892	-20.34175	-70.78929	50.44754	21.96909	203.4175	597.23378	494.71136	149.71528	152.15629	43.12451	0
202	78.92599	81.367	1.62734	-80.55333	38.24249	41.49717	203.4175	592.35176	494.71136	159.47932	161.92033	52.88855	0
203	69.16195	91.13104	21.96909	-80.55333	23.59643	56.14323	203.4175	589.91075	497.15237	169.24336	174.12538	62.65259	0
204	71.60296	105.7771	34.17414	-87.87636	18.71441	70.78929	203.4175	585.02873	497.15237	176.56639	186.33043	72.41663	0
205	78.92599	117.98215	39.05616	-97.6404	21.15542	78.11232	203.4175	575.26469	492.27035	181.44841	193.65346	77.29865	0
206	78.92599	122.86417	43.93818	-100.08141	18.71441	82.99434	208.29952	572.82368	489.82934	188.77144	203.4175	87.06269	0
207	69.16195	120.42316	51.26121	-95.19939	8.95037	85.43535	210.74053	563.05964	480.0653	193.65346	208.29952	89.5037	0
208	64.27993	127.74619	63.46626	-95.19939	1.62734	95.19939	208.29952	548.41358	467.86025	193.65346	210.74053	91.94471	0
209	71.60296	132.62821	61.02525	-102.52242	6.50936	97.6404	205.85851	536.20853	453.21419	198.53548	215.62255	96.82673	0
210	74.04397	139.95124	65.90727	-107.40444	4.06835	102.52242	203.4175	524.00348	441.00914	200.97649	220.50457	101.70875	0
211	78.92599	152.15629	73.2303	-114.72747	4.06835	112.28646	200.97649	516.68045	436.12712	208.29952	227.8276	111.47279	0
212	83.80801	171.68437	87.87636	-126.93252	-1.62734	129.37353	200.97649	506.91641	431.2451	213.18154	235.15063	121.23683	0
213	86.24902	188.77144	102.52242	-136.69656	-8.95037	146.4606	196.09447	494.71136	423.92207	213.18154	235.15063	123.67784	0
214	86.24902	208.29952	122.0505	-146.4606	-18.71441	165.98868	198.53548	484.94732	416.59904	220.50457	242.47366	133.44188	0
215	98.45407	230.26861	131.81454	-163.54767	-16.2734	180.63474	203.4175	477.62429	411.71702	227.8276	249.79669	143.20592	0
216	100.89508	249.79669	148.90161	-175.75272	-23.59643	200.16282	205.85851	465.41924	399.51197	232.70962	254.67871	150.52895	0
217	100.89508	257.11972	156.22464	-178.19373	-28.47845	207.48585	208.29952	453.21419	387.30692	235.15063	259.56073	157.85198	0
218	93.57205	254.67871	161.10666	-173.31171	-33.36047	207.48585	205.85851	433.68611	370.21985	237.59164	259.56073	157.85198	0
219	93.57205	257.11972	163.54767	-175.75272	-35.80148	209.92686	200.97649	416.59904	350.69177	235.15063	257.11972	157.85198	0
220	88.69003	254.67871	165.98868	-170.8707	-38.24249	209.92686	196.09447	399.51197	333.6047	232.70962	254.67871	157.85198	0
221	81.367	244.91467	163.54767	-163.54767	-40.6835	205.04484	188.77144	379.98389	316.51763	225.38659	249.79669	155.41097	0
222	66.72094	235.15063	168.42969	-151.34262	-50.44754	202.60383	181.44841	362.89682	301.87157	218.06356	242.47366	150.52895	0
223	54.51589	225.38659	170.8707	-139.13757	-57.77057	197.72181	174.12538	348.25076	287.22551	208.29952	235.15063	145.64693	0
224	44.75185	220.50457	175.75272	-131.81454	-65.0936	197.72181	166.80235	328.72268	270.13844	193.65346	225.38659	135.88289	0
225	34.98781	215.62255	180.63474	-124.49151	-72.41663	197.72181	166.80235	311.63561	255.49238	186.33043	218.06356	131.00087	0
226	32.5468	213.18154	180.63474	-122.0505	-74.85764	197.72181	169.24336	296.98955	238.40531	179.0074	210.74053	126.11885	0
227	30.10579	213.18154	183.07575	-122.0505	-77.29865	197.72181	176.56639	282.34349	226.20026	174.12538	208.29952	126.11885	0
228	22.78276	210.74053	187.95777	-117.16848	-82.18067	200.16282	176.56639	265.25642	209.11319	166.80235	203.4175	123.67784	0
229	20.34175	200.97649	180.63474	-109.84545	-79.73966	190.39878	176.56639	248.16935	192.02612	161.92033	198.53548	121.23683	0
230	20.34175	196.09447	175.75272	-107.40444	-77.29865	185.51676	174.12538	233.52329	177.38006	159.47932	196.09447	121.23683	0
231	10.57771	188.77144	178.19373	-100.08141	-84.62168	183.07575	169.24336	218.87723	162.734	154.5973	191.21245	118.79582	0
232	0	179.0074	178.19373	-90.31737	-89.5037	178.19373	161.92033	206.67218	148.08794	144.83326	186.33043	113.9138	0
233	-14.64606	164.36134	178.19373	-75.67131	-96.82673	170.8707	152.15629	192.02612	133.44188	137.51023	179.0074	106.59077	0
234	-19.52808	147.27427	165.98868	-63.46626	-91.94471	156.22464	144.83326	177.38006	116.35481	125.30518	166.80235	96.82673	0
235	-17.08707	137.51023	153.78363	-61.02525	-84.62168	144.01959	142.39225	162.734	101.70875	113.10013	154.5973	84.62168	0
236	-14.64606	130.1872	144.01959	-58.58424	-79.73966	136.69656	142.39225	148.08794	87.06269	100.89508	144.83326	74.85764	0
237	-14.64606	122.86417	136.69656	-53.70222	-74.85764	129.37353	139.95124	131.00087	69.97562	88.69003	132.62821	65.0936	0
238	-9.76404	113.10013	122.0505	-51.26121	-65.0936	117.16848	135.06922	113.9138	54.51589	78.92599	125.30518	55.32956	0
239	0	108.21811	107.40444	-53.70222	-52.88855	107.40444	127.74619	99.26774	39.86983	71.60296	115.54114	48.00653	0
240	0	108.21811	107.40444	-53.70222	-52.88855	107.40444	122.86417	89.5037	27.66478	64.27993	110.65912	43.12451	0
241	3.25468	108.21811	104.96343	-56.14323	-50.44754	107.40444	115.54114	79.73966	15.45973	56.9569	105.7771	40.6835	0
242	3.25468	100.89508	97.6404	-51.26121	-48.00653	100.08141	108.21811	74.04397	8.1367	49.63387	103.33609	38.24249	0
243	3.25468	91.13104	87.87636	-46.37919	-43.12451	90.31737	100.89508	66.72094	-1.62734	44.75185	100.89508	38.24249	0
244	0	83.80801	82.99434	-41.49717	-40.6835	82.99434	98.45407	61.83892	-11.39138	37.42882	98.45407	35.80148	0
245	0	78.92599	78.11232	-39.05616	-38.24249	78.11232	96.01306	52.07488	-21.15542	30.10579	93.57205	33.36047	0
246	-7.32303	61.83892	68.34828	-26.85111	-38.24249	63.46626	93.57205	44.75185	-30.91946	22.78276	91.13104	30.91946	0
247	-7.32303	52.07488	58.58424	-21.96909	-33.36047	53.70222	96.01306	37.42882	-40.6835	15.45973	88.69003	28.47845	0
248	-19.52808	44.75185	63.46626	-12.20505	-40.6835	53.70222	93.57205	27.66478	-52.88855	8.1367	83.80801	23.59643	0
249	-21.96909	39.86983	61.02525	-9.76404	-40.6835	48.8202	88.69003	20.34175	-62.65259	0.81367	76.48498	16.2734	0
250	-19.52808	37.42882	56.14323	-9.76404	-38.24249	46.37919	86.24902	10.57771	-72.41663	-4.88202	71.60296	8.95037	0
251	-19.52808	27.66478	46.37919	-4.88202	-33.36047	36.61515	83.80801	10.57771	-79.73966	-14.64606	66.72094	4.06835	0
252	-14.64606	27.66478	41.49717	-7.32303	-28.47845	34.17414	83.80801	5.69569	-84.62168	-21.96909	61.83892	-0.81367	0
253	-12.20505	30.10579	41.49717	-9.76404	-26.03744	34.17414	83.80801	3.25468	-84.62168	-24.4101	59.39791	-3.25468	0
254	-4.88202	37.42882	41.49717	-17.08707	-23.59643	39.05616	88.69003	5.69569	-82.18067	-26.85111	59.39791	-3.25468	0
255	5.69569	47.19286	41.49717	-26.85111	-18.71441	43.93818	98.45407	5.69569	-82.18067	-26.85111	59.39791	-3.25468	0
256	0	52.07488	51.26121	-26.85111	-26.03744	51.26121	105.7771	5.69569	-82.18067	-26.85111	61.83892	-0.81367	0
257	-4.88202	54.51589	58.58424	-24.4101	-30.91946	56.14323	113.10013	3.25468	-82.18067	-24.4101	61.83892	-0.81367	0
258	0	61.83892	61.02525	-31.73313	-30.91946	61.02525	117.98215	0.81367	-84.62168	-21.96909	64.27993	-0.81367	0
259	-7.32303	61.83892	68.34828	-26.85111	-38.24249	63.46626	122.86417	0.81367	-87.06269	-21.96909	64.27993	-0.81367	0
260	-7.32303	54.51589	61.02525	-24.4101	-33.36047	56.14323	117.98215	-8.95037	-94.38572	-26.85111	56.9569	-6.50936	0
261	-14.64606	42.31084	56.14323	-14.64606	-35.80148	48.8202	113.10013	-11.39138	-99.26774	-29.29212	52.07488	-8.95037	0
262	-12.20505	34.98781	46.37919	-12.20505	-28.47845	39.05616	108.21811	-16.2734	-106.59077	-34.17414	44.75185	-13.83239	0
263	-4.88202	34.98781	39.05616	-14.64606	-21.15542	36.61515	105.7771	-18.71441	-106.59077	-39.05616	39.86983	-16.2734	0
264	-17.08707	34.98781	51.26121	-9.76404	-33.36047	41.49717	105.7771	-13.83239	-106.59077	-36.61515	39.86983	-11.39138	0
265	-19.52808	37.42882	56.14323	-9.76404	-38.24249	46.37919	105.7771	-13.83239	-106.59077	-36.61515	39.86983	-11.39138	0
266	-14.64606	42.31084	56.14323	-14.64606	-35.80148	48.8202	105.7771	-16.2734	-106.59077	-36.61515	39.86983	-11.39138	1500	QRS+0
267	-21.96909	39.86983	61.02525	-9.76404	-40.6835	48.8202	108.21811	-21.15542	-111.47279	-39.05616	37.42882	-11.39138	0
268	-31.73313	39.86983	70.78929	-4.88202	-50.44754	53.70222	110.65912	-23.59643	-111.47279	-36.61515	37.42882	-6.50936	0
269	-46.37919	39.86983	85.43535	3.25468	-65.0936	61.02525	108.21811	-26.03744	-116.35481	-36.61515	37.42882	-3.25468	0
270	-43.93818	37.42882	80.55333	3.25468	-62.65259	58.58424	103.33609	-33.36047	-121.23683	-39.05616	34.98781	-6.50936	0
271	-36.61515	37.42882	73.2303	-2.44101	-55.32956	53.70222	96.01306	-35.80148	-126.11885	-43.93818	30.10579	-8.95037	0
272	-36.61515	34.98781	70.78929	0.81367	-52.88855	51.26121	96.01306	-35.80148	-131.00087	-48.8202	25.22377	-8.95037	0
273	-31.73313	37.42882	68.34828	-2.44101	-50.44754	51.26121	96.01306	-33.36047	-131.00087	-48.8202	22.78276	-11.39138	0
274	-26.85111	42.31084	68.34828	-7.32303	-48.00653	53.70222	96.01306	-33.36047	-131.00087	-53.70222	17.90074	-16.2734	0
275	-21.96909	42.31084	63.46626	-9.76404	-43.12451	51.26121	100.89508	-33.36047	-131.00087	-58.58424	15.45973	-18.71441	0
276	-21.96909	42.31084	63.46626	-9.76404	-43.12451	51.26121	110.65912	-28.47845	-131.00087	-58.58424	15.45973	-18.71441	0
277	-26.85111	37.42882	63.46626	-4.88202	-45.56552	48.8202	120.42316	-26.03744	-133.44188	-58.58424	15.45973	-16.2734	0
278	-31.73313	30.10579	61.02525	0.81367	-45.56552	43.93818	122.86417	-30.91946	-138.3239	-58.58424	15.45973	-13.83239	0
279	-39.05616	30.10579	68.34828	3.25468	-52.88855	48.8202	125.30518	-30.91946	-143.20592	-56.14323	17.90074	-11.39138	0
280	-48.8202	25.22377	73.2303	10.57771	-60.21158	48.8202	130.1872	-33.36047	-148.08794	-51.26121	25.22377	-6.50936	0
281	-46.37919	25.22377	70.78929	10.57771	-57.77057	46.37919	132.62821	-28.47845	-150.52895	-46.37919	30.10579	-3.25468	0
282	-41.49717	20.34175	61.02525	10.57771	-50.44754	39.05616	127.74619	-28.47845	-152.96996	-46.37919	30.10579	-3.25468	0
283	-36.61515	20.34175	56.14323	8.1367	-45.56552	36.61515	125.30518	-30.91946	-157.85198	-46.37919	30.10579	-3.25468	0
284	-39.05616	20.34175	58.58424	8.1367	-48.00653	39.05616	125.30518	-30.91946	-157.85198	-46.37919	30.10579	-3.25468	0
285	-46.37919	13.01872	58.58424	15.45973	-52.88855	34.17414	127.74619	-30.91946	-157.85198	-46.37919	30.10579	-0.81367	0
286	-43.93818	5.69569	48.8202	17.90074	-45.56552	26.85111	127.74619	-33.36047	-162.734	-48.8202	27.66478	-6.50936	0
287	-46.37919	2.44101	48.8202	20.34175	-48.00653	24.4101	127.74619	-40.6835	-167.61602	-53.70222	22.78276	-8.95037	0
288	-53.70222	0	53.70222	25.22377	-55.32956	26.85111	125.30518	-45.56552	-174.93905	-53.70222	20.34175	-11.39138	0
289	-46.37919	0	46.37919	22.78276	-48.00653	21.96909	117.98215	-55.32956	-184.70309	-61.02525	15.45973	-16.2734	0
290	-41.49717	2.44101	43.93818	17.90074	-43.12451	21.96909	110.65912	-65.0936	-196.90814	-65.90727	8.1367	-23.59643	0
291	-36.61515	2.44101	39.05616	15.45973	-38.24249	19.52808	103.33609	-69.97562	-204.23117	-68.34828	3.25468	-30.91946	0
292	-31.73313	2.44101	34.17414	13.01872	-33.36047	17.08707	93.57205	-74.85764	-206.67218	-70.78929	-4.88202	-38.24249	0
293	-34.17414	-2.44101	31.73313	17.90074	-33.36047	14.64606	91.13104	-74.85764	-206.67218	-70.78929	-4.88202	-40.6835	0
294	-34.17414	0	34.17414	15.45973	-35.80148	17.08707	93.57205	-72.41663	-206.67218	-70.78929	-4.88202	-40.6835	0
295	-41.49717	2.44101	43.93818	17.90074	-43.12451	21.96909	98.45407	-69.97562	-199.34915	-68.34828	-1.62734	-38.24249	0
296	-58.58424	2.44101	61.02525	27.66478	-60.21158	31.73313	108.21811	-65.0936	-194.46713	-61.02525	5.69569	-30.91946	0
297	-61.02525	5.69569	65.90727	27.66478	-62.65259	34.17414	113.10013	-65.0936	-192.02612	-56.14323	10.57771	-26.03744	0
298	-73.2303	2.44101	75.67131	34.98781	-74.85764	39.05616	115.54114	-69.97562	-192.02612	-53.70222	15.45973	-23.59643	0
299	-78.11232	2.44101	80.55333	37.42882	-79.73966	41.49717	115.54114	-74.85764	-199.34915	-53.70222	13.01872	-23.59643	0
300	-73.2303	13.01872	85.43535	30.10579	-79.73966	48.8202	110.65912	-79.73966	-204.23117	-56.14323	10.57771	-23.59643	0
301	-78.11232	5.69569	82.99434	34.98781	-79.73966	43.93818	105.7771	-87.06269	-209.11319	-61.02525	3.25468	-26.03744	0
302	-70.78929	8.1367	78.11232	30.10579	-74.85764	41.49717	98.45407	-91.94471	-211.5542	-65.90727	-4.88202	-30.91946	0
303	-68.34828	8.1367	75.67131	30.10579	-72.41663	41.49717	98.45407	-91.94471	-211.5542	-65.90727	-7.32303	-30.91946	0
304	-58.58424	17.90074	75.67131	20.34175	-67.53461	46.37919	98.45407	-87.06269	-211.5542	-65.90727	-9.76404	-28.47845	0
305	-46.37919	32.5468	78.11232	5.69569	-62.65259	53.70222	105.7771	-87.06269	-209.11319	-65.90727	-12.20505	-26.03744	0
306	-48.8202	34.98781	82.99434	5.69569	-65.0936	58.58424	108.21811	-91.94471	-211.5542	-68.34828	-17.08707	-26.03744	0
307	-46.37919	30.10579	75.67131	8.1367	-60.21158	51.26121	108.21811	-96.82673	-216.43622	-70.78929	-21.96909	-28.47845	0
308	-39.05616	30.10579	68.34828	3.25468	-52.88855	48.8202	108.21811	-104.14976	-221.31824	-70.78929	-24.4101	-28.47845	0
309	-43.93818	13.01872	56.14323	15.45973	-50.44754	34.17414	105.7771	-109.03178	-231.08228	-73.2303	-29.29212	-30.91946	0
310	-61.02525	2.44101	63.46626	27.66478	-62.65259	31.73313	100.89508	-116.35481	-238.40531	-75.67131	-34.17414	-33.36047	0
311	-63.46626	-4.88202	58.58424	32.5468	-62.65259	26.85111	93.57205	-121.23683	-243.28733	-75.67131	-39.05616	-33.36047	0
312	-65.90727	-4.88202	61.02525	34.98781	-65.0936	26.85111	91.13104	-118.79582	-243.28733	-73.2303	-39.05616	-30.91946	0
313	-58.58424	0	58.58424	27.66478	-60.21158	29.29212	91.13104	-113.9138	-240.84632	-73.2303	-39.05616	-28.47845	0
314	-58.58424	0	58.58424	27.66478	-60.21158	29.29212	93.57205	-111.47279	-240.84632	-70.78929	-39.05616	-23.59643	0
315	-48.8202	2.44101	51.26121	22.78276	-50.44754	26.85111	100.89508	-104.14976	-233.52329	-65.90727	-36.61515	-16.2734	0
316	-34.17414	10.57771	43.93818	10.57771	-38.24249	26.85111	105.7771	-104.14976	-233.52329	-61.02525	-36.61515	-11.39138	0
317	-26.85111	15.45973	41.49717	5.69569	-33.36047	26.85111	108.21811	-106.59077	-238.40531	-58.58424	-36.61515	-8.95037	0
318	-31.73313	17.90074	48.8202	5.69569	-40.6835	31.73313	105.7771	-113.9138	-245.72834	-58.58424	-41.49717	-8.95037	0
319	-29.29212	20.34175	48.8202	3.25468	-38.24249	34.17414	100.89508	-118.79582	-255.49238	-61.02525	-46.37919	-8.95037	0
320	-29.29212	27.66478	56.14323	0.81367	-43.12451	41.49717	96.01306	-123.67784	-260.3744	-61.02525	-48.8202	-6.50936	0
321	-21.96909	37.42882	58.58424	-7.32303	-40.6835	46.37919	86.24902	-131.00087	-270.13844	-65.90727	-58.58424	-11.39138	0
322	-24.4101	44.75185	68.34828	-9.76404	-45.56552	56.14323	78.92599	-133.44188	-275.02046	-68.34828	-63.46626	-11.39138	0
323	-24.4101	52.07488	75.67131	-14.64606	-50.44754	63.46626	74.04397	-133.44188	-275.02046	-70.78929	-68.34828	-11.39138	0
324	-19.52808	47.19286	65.90727	-14.64606	-43.12451	56.14323	71.60296	-133.44188	-275.02046	-70.78929	-70.78929	-11.39138	0
325	-17.08707	39.86983	56.14323	-12.20505	-35.80148	46.37919	76.48498	-133.44188	-272.57945	-70.78929	-70.78929	-8.95037	0
326	-26.85111	30.10579	56.14323	-2.44101	-40.6835	41.49717	76.48498	-135.88289	-272.57945	-68.34828	-70.78929	-8.95037	0
327	-26.85111	25.22377	51.26121	0.81367	-38.24249	36.61515	78.92599	-140.76491	-277.46147	-68.34828	-70.78929	-6.50936	0
328	-34.17414	22.78276	56.14323	5.69569	-45.56552	39.05616	78.92599	-145.64693	-277.46147	-63.46626	-65.90727	-3.25468	0
329	-36.61515	22.78276	58.58424	5.69569	-48.00653	39.05616	78.92599	-148.08794	-282.34349	-61.02525	-63.46626	-0.81367	0
330	-41.49717	25.22377	65.90727	8.1367	-52.88855	43.93818	78.92599	-155.41097	-284.7845	-58.58424	-63.46626	-0.81367	0
331	-43.93818	32.5468	75.67131	5.69569	-60.21158	53.70222	76.48498	-157.85198	-287.22551	-58.58424	-63.46626	-0.81367	0
332	-46.37919	39.86983	85.43535	3.25468	-65.0936	61.02525	76.48498	-157.85198	-287.22551	-61.02525	-68.34828	-0.81367	0
333	-43.93818	47.19286	90.31737	-2.44101	-67.53461	68.34828	78.92599	-150.52895	-282.34349	-61.02525	-68.34828	1.62734	0
334	-46.37919	49.63387	95.19939	-2.44101	-69.97562	70.78929	86.24902	-145.64693	-277.46147	-58.58424	-68.34828	4.06835	0
335	-46.37919	52.07488	97.6404	-2.44101	-72.41663	73.2303	93.57205	-143.20592	-272.57945	-58.58424	-70.78929	4.06835	0
336	-43.93818	56.9569	100.08141	-7.32303	-72.41663	78.11232	98.45407	-140.76491	-270.13844	-56.14323	-73.2303	6.50936	0
337	-41.49717	64.27993	104.96343	-12.20505	-72.41663	82.99434	108.21811	-138.3239	-267.69743	-53.70222	-75.67131	11.39138	0
338	-34.17414	74.04397	107.40444	-19.52808	-69.97562	90.31737	110.65912	-138.3239	-267.69743	-51.26121	-75.67131	16.2734	0
339	-39.05616	74.04397	112.28646	-17.08707	-74.85764	92.75838	110.65912	-135.88289	-267.69743	-46.37919	-73.2303	21.15542	0
340	-41.49717	76.48498	117.16848	-17.08707	-79.73966	95.19939	105.7771	-133.44188	-267.69743	-41.49717	-73.2303	23.59643	0
341	-36.61515	86.24902	122.0505	-24.4101	-79.73966	102.52242	103.33609	-128.55986	-265.25642	-39.05616	-73.2303	28.47845	0
342	-26.85111	103.33609	129.37353	-39.05616	-77.29865	114.72747	100.89508	-121.23683	-257.93339	-34.17414	-70.78929	33.36047	0
343	-29.29212	103.33609	131.81454	-36.61515	-79.73966	117.16848	98.45407	-116.35481	-253.05137	-31.73313	-70.78929	33.36047	0
344	-31.73313	100.89508	131.81454	-34.17414	-82.18067	114.72747	100.89508	-109.03178	-245.72834	-29.29212	-70.78929	35.80148	0
345	-24.4101	110.65912	134.25555	-43.93818	-79.73966	122.0505	103.33609	-109.03178	-245.72834	-29.29212	-70.78929	35.80148	0
346	-9.76404	122.86417	131.81454	-56.14323	-69.97562	126.93252	105.7771	-111.47279	-243.28733	-29.29212	-70.78929	35.80148	0
347	-9.76404	127.74619	136.69656	-58.58424	-72.41663	131.81454	105.7771	-116.35481	-243.28733	-26.85111	-73.2303	33.36047	0
348	-17.08707	125.30518	141.57858	-53.70222	-79.73966	131.81454	98.45407	-123.67784	-245.72834	-26.85111	-73.2303	30.91946	0
349	-9.76404	127.74619	136.69656	-58.58424	-72.41663	131.81454	93.57205	-126.11885	-250.61036	-24.4101	-73.2303	30.91946	0
350	-4.88202	135.06922	139.13757	-65.90727	-72.41663	136.69656	91.13104	-128.55986	-250.61036	-19.52808	-70.78929	33.36047	0
351	-19.52808	127.74619	146.4606	-53.70222	-82.18067	136.69656	91.13104	-121.23683	-245.72834	-14.64606	-68.34828	38.24249	0
352	-21.96909	117.98215	139.13757	-48.8202	-79.73966	126.93252	86.24902	-121.23683	-245.72834	-14.64606	-68.34828	38.24249	0
353	-29.29212	110.65912	139.13757	-41.49717	-84.62168	124.49151	83.80801	-123.67784	-243.28733	-12.20505	-68.34828	40.6835	0
354	-21.96909	110.65912	131.81454	-43.93818	-77.29865	119.60949	81.367	-123.67784	-248.16935	-12.20505	-68.34828	43.12451	0
355	-29.29212	103.33609	131.81454	-36.61515	-79.73966	117.16848	78.92599	-126.11885	-250.61036	-12.20505	-70.78929	43.12451	0
356	-31.73313	93.57205	124.49151	-31.73313	-77.29865	107.40444	74.04397	-133.44188	-257.93339	-14.64606	-75.67131	40.6835	-1500	QRS-0
357	-19.52808	88.69003	107.40444	-34.17414	-62.65259	97.6404	64.27993	-143.20592	-267.69743	-17.08707	-80.55333	40.6835	0
358	-14.64606	91.13104	104.96343	-39.05616	-60.21158	97.6404	54.51589	-150.52895	-275.02046	-17.08707	-78.11232	40.6835	0
359	-17.08707	91.13104	107.40444	-36.61515	-62.65259	97.6404	43.93818	-160.29299	-287.22551	-19.52808	-80.55333	40.6835	0
360	-12.20505	100.89508	112.28646	-43.93818	-62.65259	104.96343	34.17414	-170.05703	-294.54854	-21.96909	-80.55333	40.6835	0
361	-7.32303	103.33609	109.84545	-48.8202	-57.77057	104.96343	19.52808	-177.38006	-299.43056	-21.96909	-80.55333	40.6835	0
362	0	103.33609	102.52242	-51.26121	-50.44754	102.52242	12.20505	-182.26208	-304.31258	-21.96909	-78.11232	43.12451	0
363	0	100.89508	100.08141	-51.26121	-50.44754	100.08141	0	-189.58511	-311.63561	-24.4101	-78.11232	43.12451	0
364	8.1367	100.89508	92.75838	-53.70222	-43.12451	97.6404	-12.20505	-199.34915	-318.95864	-26.85111	-80.55333	40.6835	0
365	22.78276	100.89508	78.11232	-61.02525	-28.47845	90.31737	-21.96909	-206.67218	-326.28167	-31.73313	-82.99434	38.24249	0
366	34.98781	96.01306	61.02525	-65.90727	-13.83239	78.11232	-26.85111	-206.67218	-328.72268	-31.73313	-85.43535	38.24249	0
367	37.42882	86.24902	48.8202	-61.02525	-6.50936	68.34828	-31.73313	-209.11319	-331.16369	-31.73313	-85.43535	38.24249	0
368	47.19286	78.92599	31.73313	-63.46626	8.95037	56.14323	-39.05616	-218.87723	-340.92773	-39.05616	-90.31737	30.91946	0
369	61.83892	76.48498	14.64606	-68.34828	23.59643	46.37919	-51.26121	-226.20026	-353.13278	-46.37919	-100.08141	23.59643	0
370	66.72094	66.72094	-0.81367	-65.90727	33.36047	34.17414	-58.58424	-233.52329	-360.45581	-56.14323	-109.84545	13.83239	0
371	71.60296	59.39791	-13.01872	-65.90727	43.12451	24.4101	-61.02525	-235.9643	-362.89682	-61.02525	-114.72747	8.95037	0
372	71.60296	49.63387	-22.78276	-61.02525	48.00653	14.64606	-61.02525	-240.84632	-367.77884	-68.34828	-119.60949	1.62734	0
373	71.60296	39.86983	-32.5468	-56.14323	52.88855	4.88202	-63.46626	-248.16935	-377.54288	-75.67131	-126.93252	-3.25468	0
374	59.39791	25.22377	-34.98781	-41.49717	48.00653	-5.69569	-63.46626	-253.05137	-382.4249	-78.11232	-131.81454	-6.50936	0
375	34.98781	10.57771	-25.22377	-21.96909	30.91946	-8.1367	-61.02525	-255.49238	-384.86591	-80.55333	-134.25555	-11.39138	0
376	17.90074	0	-17.90074	-9.76404	16.2734	-8.1367	-56.14323	-253.05137	-384.86591	-80.55333	-134.25555	-11.39138	0
377	5.69569	-4.88202	-10.57771	-2.44101	6.50936	-8.1367	-48.8202	-253.05137	-387.30692	-80.55333	-134.25555	-11.39138	0
378	-2.44101	-17.08707	-15.45973	8.1367	6.50936	-17.90074	-48.8202	-253.05137	-389.74793	-80.55333	-131.81454	-11.39138	0
379	-21.96909	-26.85111	-5.69569	22.78276	-8.95037	-17.90074	-46.37919	-245.72834	-387.30692	-80.55333	-131.81454	-8.95037	0
380	-34.17414	-39.05616	-5.69569	34.98781	-16.2734	-22.78276	-46.37919	-245.72834	-387.30692	-85.43535	-131.81454	-13.83239	0
381	-43.93818	-48.8202	-5.69569	44.75185	-21.15542	-27.66478	-43.93818	-238.40531	-384.86591	-85.43535	-134.25555	-13.83239	0
382	-61.02525	-53.70222	7.32303	56.9569	-35.80148	-25.22377	-41.49717	-233.52329	-379.98389	-85.43535	-131.81454	-11.39138	0
383	-73.2303	-65.90727	7.32303	69.16195	-40.6835	-30.10579	-39.05616	-233.52329	-377.54288	-87.87636	-134.25555	-11.39138	0
384	-75.67131	-70.78929	4.88202	71.60296	-40.6835	-34.98781	-39.05616	-235.9643	-382.4249	-95.19939	-141.57858	-18.71441	0
385	-75.67131	-68.34828	7.32303	71.60296	-43.12451	-32.5468	-39.05616	-235.9643	-384.86591	-100.08141	-144.01959	-21.15542	0
386	-70.78929	-68.34828	1.62734	69.16195	-38.24249	-34.98781	-34.17414	-231.08228	-382.4249	-100.08141	-144.01959	-21.15542	0
387	-65.90727	-73.2303	-8.1367	69.16195	-30.91946	-42.31084	-31.73313	-228.64127	-379.98389	-100.08141	-144.01959	-21.15542	0
388	-48.8202	-73.2303	-25.22377	59.39791	-13.83239	-49.63387	-34.17414	-231.08228	-384.86591	-107.40444	-148.90161	-28.47845	0
389	-31.73313	-70.78929	-39.86983	49.63387	4.06835	-56.9569	-34.17414	-228.64127	-384.86591	-107.40444	-151.34262	-30.91946	0
390	-21.96909	-73.2303	-52.07488	47.19286	13.83239	-64.27993	-36.61515	-226.20026	-384.86591	-112.28646	-153.78363	-30.91946	0
391	-26.85111	-80.55333	-54.51589	52.07488	13.83239	-69.16195	-34.17414	-218.87723	-379.98389	-112.28646	-153.78363	-30.91946	0
392	-34.17414	-85.43535	-52.07488	59.39791	8.95037	-69.16195	-31.73313	-213.99521	-375.10187	-112.28646	-156.22464	-30.91946	0
393	-34.17414	-82.99434	-49.63387	56.9569	6.50936	-66.72094	-31.73313	-213.99521	-372.66086	-112.28646	-158.66565	-35.80148	0
394	-34.17414	-75.67131	-42.31084	54.51589	4.06835	-59.39791	-24.4101	-209.11319	-370.21985	-109.84545	-156.22464	-35.80148	0
395	-41.49717	-80.55333	-39.86983	59.39791	-1.62734	-61.83892	-24.4101	-209.11319	-370.21985	-109.84545	-158.66565	-35.80148	0
396	-53.70222	-92.75838	-39.86983	71.60296	-8.95037	-66.72094	-19.52808	-209.11319	-370.21985	-112.28646	-161.10666	-38.24249	0
397	-65.90727	-100.08141	-34.98781	81.367	-16.2734	-69.16195	-19.52808	-209.11319	-372.66086	-114.72747	-163.54767	-40.6835	0
398	-58.58424	-97.6404	-39.86983	76.48498	-11.39138	-69.16195	-19.52808	-209.11319	-372.66086	-117.16848	-163.54767	-43.12451	0
399	-48.8202	-95.19939	-47.19286	71.60296	-1.62734	-71.60296	-21.96909	-209.11319	-372.66086	-119.60949	-168.42969	-45.56552	0
400	-43.93818	-97.6404	-54.51589	69.16195	4.06835	-76.48498	-19.52808	-204.23117	-367.77884	-119.60949	-168.42969	-43.12451	0
401	-36.61515	-97.6404	-61.83892	66.72094	11.39138	-81.367	-17.08707	-196.90814	-360.45581	-117.16848	-165.98868	-40.6835	0
402	-31.73313	-95.19939	-64.27993	61.83892	16.2734	-81.367	-14.64606	-192.02612	-355.57379	-117.16848	-165.98868	-40.6835	0
403	-26.85111	-87.87636	-61.83892	56.9569	16.2734	-76.48498	-12.20505	-189.58511	-353.13278	-117.16848	-165.98868	-40.6835	0
404	-21.96909	-85.43535	-64.27993	52.07488	21.15542	-76.48498	-12.20505	-189.58511	-353.13278	-117.16848	-168.42969	-45.56552	0
405	-26.85111	-87.87636	-61.83892	56.9569	16.2734	-76.48498	-12.20505	-194.46713	-355.57379	-122.0505	-173.31171	-48.00653	0
406	-24.4101	-85.43535	-61.83892	54.51589	18.71441	-74.04397	-12.20505	-194.46713	-358.0148	-122.0505	-175.75272	-52.88855	0
407	-31.73313	-92.75838	-61.83892	61.83892	13.83239	-78.92599	-17.08707	-201.79016	-362.89682	-126.93252	-180.63474	-57.77057	0
408	-36.61515	-97.6404	-61.83892	66.72094	11.39138	-81.367	-24.4101	-209.11319	-370.21985	-134.25555	-185.51676	-62.65259	0
409	-39.05616	-102.52242	-64.27993	69.16195	11.39138	-83.80801	-29.29212	-211.5542	-372.66086	-134.25555	-187.95777	-65.0936	0
410	-46.37919	-109.84545	-64.27993	76.48498	8.95037	-88.69003	-34.17414	-216.43622	-375.10187	-136.69656	-190.39878	-67.53461	0
411	-61.02525	-109.84545	-49.63387	83.80801	-6.50936	-81.367	-34.17414	-218.87723	-372.66086	-134.25555	-185.51676	-62.65259	0
412	-68.34828	-107.40444	-39.86983	86.24902	-16.2734	-74.04397	-31.73313	-228.64127	-375.10187	-134.25555	-183.07575	-60.21158	0
413	-70.78929	-95.19939	-25.22377	81.367	-23.59643	-61.83892	-34.17414	-243.28733	-379.98389	-131.81454	-180.63474	-55.32956	0
414	-73.2303	-73.2303	-0.81367	71.60296	-38.24249	-37.42882	-31.73313	-265.25642	-389.74793	-124.49151	-173.31171	-45.56552	0
415	-68.34828	-41.49717	26.85111	54.51589	-48.00653	-8.1367	-26.85111	-287.22551	-399.51197	-112.28646	-161.10666	-28.47845	0
416	-58.58424	-7.32303	51.26121	32.5468	-55.32956	21.96909	-14.64606	-309.1946	-401.95298	-97.6404	-144.01959	-11.39138	0
417	-51.26121	22.78276	73.2303	13.01872	-62.65259	46.37919	-4.88202	-333.6047	-399.51197	-75.67131	-124.49151	6.50936	0
418	-51.26121	47.19286	97.6404	0.81367	-74.85764	70.78929	4.88202	-358.0148	-394.62995	-53.70222	-100.08141	28.47845	0
419	-53.70222	69.16195	122.0505	-7.32303	-87.06269	95.19939	17.08707	-379.98389	-387.30692	-31.73313	-78.11232	50.44754	0
420	-53.70222	91.13104	144.01959	-19.52808	-99.26774	117.16848	29.29212	-404.39399	-379.98389	-4.88202	-51.26121	69.97562	0
421	-41.49717	108.21811	148.90161	-34.17414	-94.38572	126.93252	39.05616	-431.2451	-372.66086	17.90074	-24.4101	91.94471	0
422	-36.61515	113.10013	148.90161	-39.05616	-91.94471	129.37353	29.29212	-484.94732	-384.86591	42.31084	-1.62734	116.35481	0
423	-21.96909	127.74619	148.90161	-53.70222	-84.62168	136.69656	-7.32303	-570.38267	-431.2451	66.72094	25.22377	143.20592	0
424	0	157.03831	156.22464	-78.11232	-77.29865	156.22464	-63.46626	-677.78711	-489.82934	96.01306	59.39791	177.38006	0
425	22.78276	183.88942	161.10666	-102.52242	-69.97562	173.31171	-139.13757	-804.71963	-565.50065	130.1872	98.45407	218.87723	0
426	44.75185	215.62255	170.8707	-129.37353	-62.65259	192.83979	-229.45494	-948.73922	-650.936	171.68437	144.83326	267.69743	0
427	59.39791	249.79669	190.39878	-153.78363	-65.0936	219.6909	-334.41837	-1107.40487	-746.13539	215.62255	193.65346	318.95864	0
428	74.04397	283.97083	209.92686	-178.19373	-67.53461	246.54201	-454.02786	-1273.39355	-846.2168	257.11972	240.03265	367.77884	0
429	86.24902	313.26295	227.01393	-200.16282	-69.97562	270.95211	-571.19634	-1417.41314	-934.09316	296.17588	283.97083	411.71702	0
430	103.33609	325.468	222.13191	-214.80888	-60.21158	273.39312	-681.04179	-1539.46364	-1014.64649	323.02699	315.70396	443.45015	0
431	113.10013	320.58598	207.48585	-217.24989	-48.00653	263.62908	-781.1232	-1644.42707	-1090.3178	325.468	323.02699	453.21419	0
432	110.65912	288.85285	178.19373	-200.16282	-33.36047	234.33696	-883.64562	-1732.30343	-1168.43012	301.0579	303.49891	441.00914	0
433	110.65912	244.91467	134.25555	-178.19373	-11.39138	190.39878	-976.404	-1790.88767	-1234.33739	249.79669	259.56073	406.835	0
434	108.21811	193.65346	85.43535	-151.34262	11.39138	139.13757	-1047.19329	-1803.09272	-1280.71658	174.12538	191.21245	353.13278	0
435	103.33609	132.62821	29.29212	-117.16848	38.24249	80.55333	-1091.13147	-1783.56464	-1305.12668	78.92599	105.7771	282.34349	0
436	81.367	66.72094	-15.45973	-73.2303	48.00653	26.85111	-1108.21854	-1732.30343	-1310.0087	-21.96909	10.57771	206.67218	0
437	52.07488	2.44101	-49.63387	-26.85111	50.44754	-22.78276	-1103.33652	-1654.19111	-1295.36264	-122.0505	-82.99434	128.55986	0
438	22.78276	-53.70222	-76.48498	15.45973	48.00653	-64.27993	-1078.92642	-1544.34566	-1251.42446	-209.92686	-170.8707	57.77057	0
439	10.57771	-97.6404	-108.21811	42.31084	57.77057	-103.33609	-1032.54723	-1414.97213	-1187.9582	-283.15716	-244.101	-6.50936	0
440	-4.88202	-139.13757	-135.06922	71.60296	65.0936	-137.51023	-969.08097	-1263.62951	-1095.19982	-329.53635	-297.80322	-55.32956	0
441	-26.85111	-165.98868	-139.95124	96.01306	55.32956	-154.5973	-893.40966	-1092.75881	-975.59033	-346.62342	-327.09534	-87.06269	0
442	-34.17414	-173.31171	-139.95124	103.33609	52.88855	-157.03831	-807.97431	-912.12407	-836.45276	-339.30039	-331.97736	-99.26774	0
443	-31.73313	-163.54767	-132.62821	96.01306	50.44754	-149.71528	-720.09795	-733.93034	-692.43317	-319.77231	-329.53635	-104.14976	0
444	-17.08707	-144.01959	-127.74619	78.92599	55.32956	-137.51023	-632.22159	-563.05964	-548.41358	-292.9212	-317.3313	-101.70875	0
445	-4.88202	-124.49151	-120.42316	64.27993	57.77057	-122.86417	-541.90422	-399.51197	-409.27601	-258.74706	-297.80322	-94.38572	0
446	0	-107.40444	-108.21811	52.07488	52.88855	-108.21811	-456.46887	-260.3744	-287.22551	-227.01393	-280.71615	-87.06269	0
447	10.57771	-92.75838	-103.33609	39.86983	55.32956	-98.45407	-383.23857	-145.64693	-189.58511	-197.72181	-263.62908	-79.73966	0
448	15.45973	-87.87636	-103.33609	34.98781	57.77057	-96.01306	-322.21332	-57.77057	-111.47279	-180.63474	-256.30605	-79.73966	0
449	15.45973	-90.31737	-105.7771	37.42882	60.21158	-98.45407	-268.5111	17.90074	-48.00653	-168.42969	-256.30605	-84.62168	0
450	15.45973	-107.40444	-122.86417	44.75185	67.53461	-115.54114	-224.57292	79.73966	3.25468	-163.54767	-256.30605	-94.38572	0
451	17.90074	-124.49151	-142.39225	52.07488	79.73966	-132.62821	-187.95777	131.00087	47.19286	-158.66565	-261.18807	-101.70875	0
452	17.90074	-141.57858	-159.47932	61.83892	87.06269	-149.71528	-156.22464	172.49804	84.62168	-153.78363	-263.62908	-109.03178	0
453	17.90074	-153.78363	-171.68437	66.72094	94.38572	-161.92033	-126.93252	209.11319	118.79582	-148.90161	-263.62908	-111.47279	0
454	20.34175	-163.54767	-183.88942	71.60296	101.70875	-174.12538	-102.52242	233.52329	145.64693	-144.01959	-263.62908	-111.47279	0
455	27.66478	-165.98868	-193.65346	69.16195	109.03178	-179.0074	-82.99434	253.05137	165.17501	-139.13757	-261.18807	-111.47279	0
456	32.5468	-165.98868	-198.53548	66.72094	113.9138	-181.44841	-65.90727	265.25642	182.26208	-136.69656	-258.74706	-111.47279	0
457	34.98781	-173.31171	-208.29952	69.16195	121.23683	-191.21245	-53.70222	270.13844	194.46713	-134.25555	-256.30605	-111.47279	0
458	42.31084	-173.31171	-215.62255	64.27993	128.55986	-193.65346	-43.93818	275.02046	201.79016	-131.81454	-253.86504	-109.03178	0
459	49.63387	-168.42969	-218.06356	59.39791	133.44188	-193.65346	-36.61515	282.34349	211.5542	-129.37353	-248.98302	-109.03178	0
460	54.51589	-165.98868	-220.50457	54.51589	135.88289	-193.65346	-31.73313	292.10753	223.75925	-129.37353	-246.54201	-109.03178	0
461	49.63387	-163.54767	-213.18154	56.9569	131.00087	-188.77144	-21.96909	304.31258	238.40531	-122.0505	-241.65999	-104.14976	0
462	37.42882	-165.98868	-203.4175	64.27993	118.79582	-183.88942	-14.64606	314.07662	250.61036	-117.16848	-236.77797	-104.14976	0
463	37.42882	-163.54767	-200.97649	61.83892	118.79582	-181.44841	-12.20505	316.51763	260.3744	-114.72747	-234.33696	-104.14976	0
464	39.86983	-158.66565	-198.53548	59.39791	118.79582	-179.0074	-7.32303	321.39965	265.25642	-109.84545	-231.89595	-104.14976	0
465	37.42882	-163.54767	-200.97649	61.83892	118.79582	-181.44841	-2.44101	326.28167	272.57945	-104.96343	-229.45494	-104.14976	0
466	34.98781	-170.8707	-205.85851	66.72094	118.79582	-188.77144	2.44101	326.28167	277.46147	-102.52242	-229.45494	-104.14976	0
467	30.10579	-175.75272	-205.85851	71.60296	116.35481	-191.21245	2.44101	326.28167	275.02046	-102.52242	-229.45494	-106.59077	0
468	37.42882	-183.07575	-220.50457	71.60296	128.55986	-200.97649	0	323.84066	270.13844	-102.52242	-231.89595	-113.9138	0
469	47.19286	-183.07575	-230.26861	66.72094	138.3239	-205.85851	0	326.28167	267.69743	-102.52242	-231.89595	-113.9138	0
470	47.19286	-183.07575	-230.26861	66.72094	138.3239	-205.85851	2.44101	333.6047	275.02046	-97.6404	-227.01393	-111.47279	0
471	42.31084	-180.63474	-222.94558	69.16195	131.00087	-200.97649	9.76404	345.80975	284.7845	-92.75838	-219.6909	-106.59077	0
472	42.31084	-178.19373	-220.50457	66.72094	131.00087	-198.53548	14.64606	353.13278	289.66652	-90.31737	-219.6909	-104.14976	0
473	52.07488	-175.75272	-227.8276	61.83892	138.3239	-200.97649	17.08707	353.13278	292.10753	-90.31737	-222.13191	-104.14976	0
474	54.51589	-173.31171	-227.8276	59.39791	140.76491	-200.97649	21.96909	360.45581	296.98955	-87.87636	-222.13191	-101.70875	0
475	34.98781	-180.63474	-215.62255	71.60296	123.67784	-198.53548	24.4101	362.89682	299.43056	-87.87636	-222.13191	-101.70875	0
476	20.34175	-187.95777	-208.29952	83.80801	113.9138	-198.53548	29.29212	365.33783	299.43056	-85.43535	-227.01393	-99.26774	0
477	20.34175	-190.39878	-210.74053	83.80801	113.9138	-200.97649	29.29212	365.33783	296.98955	-90.31737	-236.77797	-104.14976	0
478	32.5468	-178.19373	-210.74053	71.60296	121.23683	-193.65346	26.85111	365.33783	296.98955	-90.31737	-239.21898	-106.59077	0
479	34.98781	-168.42969	-203.4175	66.72094	118.79582	-186.33043	31.73313	372.66086	296.98955	-85.43535	-239.21898	-104.14976	0
480	25.22377	-173.31171	-198.53548	74.04397	111.47279	-186.33043	31.73313	377.54288	296.98955	-85.43535	-241.65999	-104.14976	0
481	30.10579	-168.42969	-198.53548	69.16195	113.9138	-183.88942	34.17414	387.30692	299.43056	-87.87636	-244.101	-104.14976	0
482	47.19286	-153.78363	-200.97649	52.07488	123.67784	-176.56639	36.61515	394.62995	304.31258	-87.87636	-244.101	-106.59077	0
483	61.83892	-144.01959	-205.85851	39.86983	133.44188	-174.12538	36.61515	397.07096	304.31258	-92.75838	-244.101	-109.03178	0
484	66.72094	-148.90161	-215.62255	39.86983	140.76491	-181.44841	36.61515	397.07096	301.87157	-97.6404	-246.54201	-113.9138	0
485	52.07488	-165.98868	-218.06356	56.9569	133.44188	-191.21245	41.49717	401.95298	301.87157	-100.08141	-246.54201	-116.35481	0
486	56.9569	-165.98868	-222.94558	54.51589	138.3239	-193.65346	47.19286	406.835	306.75359	-97.6404	-239.21898	-116.35481	0
487	69.16195	-156.22464	-225.38659	42.31084	145.64693	-191.21245	54.51589	411.71702	311.63561	-92.75838	-227.01393	-109.03178	0
488	74.04397	-156.22464	-230.26861	39.86983	150.52895	-193.65346	59.39791	419.04005	316.51763	-87.87636	-214.80888	-101.70875	0
489	71.60296	-161.10666	-232.70962	44.75185	150.52895	-196.09447	61.83892	426.36308	321.39965	-82.99434	-207.48585	-94.38572	0
490	59.39791	-165.98868	-225.38659	52.07488	140.76491	-196.09447	69.16195	438.56813	328.72268	-75.67131	-197.72181	-84.62168	0
491	59.39791	-163.54767	-222.94558	52.07488	140.76491	-193.65346	71.60296	448.33217	336.04571	-70.78929	-190.39878	-77.29865	0
492	66.72094	-158.66565	-225.38659	44.75185	145.64693	-191.21245	71.60296	455.6552	343.36874	-70.78929	-190.39878	-72.41663	0
493	64.27993	-161.10666	-225.38659	47.19286	143.20592	-193.65346	71.60296	460.53722	345.80975	-75.67131	-192.83979	-72.41663	0
494	59.39791	-165.98868	-225.38659	52.07488	140.76491	-196.09447	71.60296	460.53722	348.25076	-80.55333	-200.16282	-79.73966	0
495	64.27993	-161.10666	-225.38659	47.19286	143.20592	-193.65346	74.04397	460.53722	355.57379	-85.43535	-205.04484	-84.62168	0
496	61.83892	-165.98868	-227.8276	52.07488	143.20592	-196.09447	78.92599	460.53722	358.0148	-90.31737	-212.36787	-89.5037	0
497	61.83892	-170.8707	-232.70962	54.51589	145.64693	-200.97649	81.367	460.53722	360.45581	-92.75838	-217.24989	-96.82673	0
498	52.07488	-178.19373	-230.26861	61.83892	140.76491	-203.4175	81.367	460.53722	362.89682	-95.19939	-222.13191	-99.26774	0
499	52.07488	-180.63474	-232.70962	64.27993	140.76491	-205.85851	83.80801	462.97823	367.77884	-95.19939	-222.13191	-99.26774	0
500	56.9569	-183.07575	-240.03265	61.83892	148.08794	-210.74053	86.24902	467.86025	375.10187	-92.75838	-219.6909	-96.82673	0
501	56.9569	-185.51676	-242.47366	64.27993	148.08794	-213.18154	86.24902	470.30126	379.98389	-92.75838	-219.6909	-94.38572	0
502	49.63387	-192.83979	-242.47366	71.60296	145.64693	-218.06356	86.24902	477.62429	384.86591	-92.75838	-217.24989	-89.5037	0
503	49.63387	-195.2808	-244.91467	71.60296	145.64693	-220.50457	86.24902	482.50631	394.62995	-90.31737	-214.80888	-82.18067	0
504	47.19286	-197.72181	-244.91467	74.04397	145.64693	-220.50457	88.69003	489.82934	406.835	-82.99434	-207.48585	-69.97562	0
505	42.31084	-202.60383	-244.91467	78.92599	143.20592	-222.94558	96.01306	497.15237	421.48106	-75.67131	-200.16282	-60.21158	0
506	39.86983	-202.60383	-242.47366	81.367	140.76491	-222.94558	98.45407	502.03439	431.2451	-70.78929	-195.2808	-52.88855	0
507	42.31084	-190.39878	-232.70962	74.04397	135.88289	-210.74053	103.33609	504.4754	438.56813	-65.90727	-192.83979	-48.00653	0
508	34.98781	-185.51676	-220.50457	74.04397	126.11885	-203.4175	105.7771	506.91641	443.45015	-63.46626	-190.39878	-43.12451	0
509	15.45973	-185.51676	-200.97649	83.80801	106.59077	-193.65346	110.65912	514.23944	450.77318	-56.14323	-183.07575	-35.80148	0
510	27.66478	-173.31171	-200.97649	71.60296	113.9138	-186.33043	113.10013	519.12146	455.6552	-51.26121	-183.07575	-33.36047	0
511	37.42882	-158.66565	-196.09447	59.39791	116.35481	-176.56639	113.10013	524.00348	460.53722	-51.26121	-183.07575	-33.36047	0
512	47.19286	-144.01959	-191.21245	47.19286	118.79582	-166.80235	113.10013	531.32651	467.86025	-48.8202	-180.63474	-33.36047	0
513	39.86983	-144.01959	-183.88942	52.07488	111.47279	-164.36134	110.65912	536.20853	475.18328	-48.8202	-175.75272	-30.91946	0
514	37.42882	-146.4606	-183.88942	54.51589	109.03178	-164.36134	113.10013	548.41358	484.94732	-41.49717	-168.42969	-23.59643	0
515	52.07488	-144.01959	-196.09447	44.75185	123.67784	-169.24336	115.54114	553.2956	492.27035	-41.49717	-163.54767	-23.59643	0
516	56.9569	-141.57858	-198.53548	42.31084	126.11885	-169.24336	120.42316	560.61863	502.03439	-39.05616	-158.66565	-21.15542	0
517	49.63387	-141.57858	-191.21245	44.75185	118.79582	-166.80235	127.74619	572.82368	511.79843	-36.61515	-148.90161	-16.2734	0
518	56.9569	-136.69656	-193.65346	39.86983	123.67784	-164.36134	135.06922	582.58772	516.68045	-29.29212	-141.57858	-11.39138	0
519	61.83892	-134.25555	-196.09447	34.98781	128.55986	-164.36134	139.95124	587.46974	521.56247	-26.85111	-134.25555	-8.95037	0
520	59.39791	-131.81454	-191.21245	34.98781	123.67784	-161.92033	139.95124	589.91075	519.12146	-31.73313	-136.69656	-13.83239	0
521	59.39791	-131.81454	-191.21245	34.98781	123.67784	-161.92033	137.51023	589.91075	516.68045	-31.73313	-136.69656	-18.71441	0
522	69.16195	-124.49151	-193.65346	27.66478	131.00087	-159.47932	137.51023	594.79277	516.68045	-31.73313	-136.69656	-18.71441	0
523	71.60296	-119.60949	-191.21245	22.78276	131.00087	-154.5973	137.51023	597.23378	519.12146	-31.73313	-136.69656	-21.15542	0
524	66.72094	-117.16848	-183.88942	25.22377	123.67784	-149.71528	137.51023	599.67479	521.56247	-31.73313	-134.25555	-21.15542	0
525	64.27993	-114.72747	-179.0074	25.22377	121.23683	-147.27427	137.51023	599.67479	524.00348	-31.73313	-134.25555	-26.03744	0
526	61.83892	-112.28646	-174.12538	25.22377	116.35481	-142.39225	144.83326	604.55681	526.44449	-29.29212	-131.81454	-23.59643	0
527	64.27993	-104.96343	-169.24336	20.34175	116.35481	-137.51023	154.5973	611.87984	533.76752	-21.96909	-124.49151	-16.2734	0
528	59.39791	-97.6404	-157.03831	17.90074	106.59077	-127.74619	161.92033	619.20287	538.64954	-12.20505	-117.16848	-8.95037	0
529	56.9569	-85.43535	-142.39225	13.01872	99.26774	-113.10013	174.12538	626.5259	545.97257	0.81367	-102.52242	4.06835	0
530	64.27993	-70.78929	-135.06922	3.25468	99.26774	-103.33609	179.0074	631.40792	548.41358	10.57771	-90.31737	16.2734	0
531	64.27993	-56.14323	-120.42316	-4.88202	91.94471	-88.69003	181.44841	633.84893	550.85459	17.90074	-80.55333	23.59643	0
532	64.27993	-46.37919	-110.65912	-9.76404	87.06269	-78.92599	186.33043	638.73095	555.73661	27.66478	-65.90727	35.80148	0
533	78.92599	-29.29212	-108.21811	-24.4101	91.94471	-69.16195	191.21245	638.73095	558.17762	37.42882	-53.70222	43.12451	0
534	93.57205	-9.76404	-103.33609	-41.49717	96.82673	-56.9569	191.21245	638.73095	563.05964	44.75185	-43.93818	50.44754	0
535	96.01306	2.44101	-93.57205	-48.8202	94.38572	-44.75185	198.53548	636.28994	563.05964	49.63387	-34.17414	55.32956	0
536	86.24902	5.69569	-81.367	-46.37919	84.62168	-37.42882	200.97649	633.84893	563.05964	54.51589	-24.4101	57.77057	0
537	83.80801	5.69569	-78.92599	-43.93818	82.18067	-37.42882	203.4175	626.5259	563.05964	61.83892	-14.64606	62.65259	0
538	76.48498	15.45973	-61.83892	-46.37919	69.97562	-22.78276	208.29952	624.08489	560.61863	71.60296	-1.62734	72.41663	0
539	66.72094	27.66478	-39.86983	-46.37919	52.88855	-5.69569	210.74053	621.64388	560.61863	83.80801	13.01872	82.18067	0
540	52.07488	32.5468	-20.34175	-41.49717	35.80148	7.32303	210.74053	614.32085	558.17762	93.57205	27.66478	94.38572	0
541	44.75185	37.42882	-8.1367	-41.49717	26.03744	14.64606	205.85851	606.99782	553.2956	100.89508	37.42882	101.70875	0
542	42.31084	44.75185	1.62734	-43.93818	21.15542	24.4101	198.53548	597.23378	543.53156	100.89508	42.31084	104.14976	0
543	39.86983	59.39791	19.52808	-48.8202	11.39138	39.05616	193.65346	587.46974	538.64954	105.7771	49.63387	111.47279	0
544	44.75185	76.48498	31.73313	-61.02525	6.50936	53.70222	193.65346	585.02873	538.64954	113.10013	61.83892	121.23683	0
545	56.9569	91.13104	34.17414	-73.2303	11.39138	63.46626	198.53548	580.14671	538.64954	117.98215	69.16195	128.55986	0
546	66.72094	105.7771	39.05616	-85.43535	13.83239	73.2303	203.4175	572.82368	536.20853	120.42316	76.48498	133.44188	0
547	64.27993	117.98215	53.70222	-90.31737	6.50936	85.43535	210.74053	565.50065	536.20853	127.74619	86.24902	143.20592	0
548	69.16195	132.62821	63.46626	-100.08141	4.06835	97.6404	218.06356	558.17762	533.76752	135.06922	96.01306	152.96996	0
549	71.60296	142.39225	70.78929	-107.40444	1.62734	107.40444	222.94558	550.85459	531.32651	142.39225	108.21811	165.17501	0
550	71.60296	147.27427	75.67131	-109.84545	-1.62734	112.28646	222.94558	538.64954	521.56247	144.83326	115.54114	172.49804	0
551	61.83892	149.71528	87.87636	-104.96343	-13.83239	119.60949	215.62255	524.00348	509.35742	147.27427	120.42316	177.38006	0
552	52.07488	154.5973	102.52242	-102.52242	-26.03744	129.37353	210.74053	514.23944	502.03439	149.71528	127.74619	184.70309	0
553	49.63387	161.92033	112.28646	-104.96343	-30.91946	136.69656	205.85851	502.03439	494.71136	154.5973	135.06922	192.02612	0
554	42.31084	164.36134	122.0505	-102.52242	-40.6835	144.01959	200.97649	487.38833	487.38833	157.03831	139.95124	196.90814	0
555	47.19286	169.24336	122.0505	-107.40444	-38.24249	146.4606	193.65346	467.86025	475.18328	152.15629	139.95124	196.90814	0
556	47.19286	174.12538	126.93252	-109.84545	-40.6835	151.34262	193.65346	450.77318	462.97823	152.15629	139.95124	196.90814	0
557	47.19286	181.44841	134.25555	-114.72747	-43.12451	158.66565	193.65346	433.68611	453.21419	152.15629	139.95124	199.34915	0
558	54.51589	188.77144	134.25555	-122.0505	-40.6835	161.10666	191.21245	409.27601	433.68611	144.83326	132.62821	194.46713	0
559	56.9569	191.21245	134.25555	-124.49151	-38.24249	163.54767	186.33043	384.86591	411.71702	135.06922	122.86417	189.58511	0
560	61.83892	196.09447	134.25555	-129.37353	-35.80148	165.98868	181.44841	360.45581	389.74793	125.30518	113.10013	182.26208	0
561	66.72094	205.85851	139.13757	-136.69656	-35.80148	173.31171	176.56639	343.36874	375.10187	117.98215	108.21811	177.38006	0
562	74.04397	213.18154	139.13757	-144.01959	-33.36047	175.75272	174.12538	331.16369	362.89682	115.54114	103.33609	174.93905	0
563	78.92599	215.62255	136.69656	-146.4606	-28.47845	175.75272	169.24336	314.07662	353.13278	110.65912	98.45407	172.49804	0
564	76.48498	210.74053	134.25555	-144.01959	-28.47845	173.31171	169.24336	301.87157	343.36874	108.21811	96.01306	170.05703	0
565	54.51589	205.85851	151.34262	-129.37353	-48.00653	178.19373	171.68437	294.54854	340.92773	115.54114	103.33609	177.38006	0
566	44.75185	203.4175	158.66565	-124.49151	-57.77057	180.63474	171.68437	279.90248	333.6047	117.98215	108.21811	182.26208	0
567	37.42882	193.65346	156.22464	-114.72747	-60.21158	175.75272	176.56639	265.25642	323.84066	117.98215	110.65912	184.70309	0
568	22.78276	179.0074	156.22464	-100.08141	-67.53461	168.42969	174.12538	245.72834	309.1946	120.42316	113.10013	187.1441	0
569	10.57771	166.80235	156.22464	-87.87636	-72.41663	161.10666	171.68437	226.20026	292.10753	120.42316	113.10013	189.58511	0
570	8.1367	161.92033	153.78363	-85.43535	-72.41663	158.66565	171.68437	211.5542	275.02046	117.98215	115.54114	189.58511	0
571	8.1367	154.5973	146.4606	-80.55333	-69.97562	151.34262	161.92033	194.46713	257.93339	110.65912	110.65912	184.70309	0
572	20.34175	149.71528	129.37353	-85.43535	-55.32956	139.13757	157.03831	179.82107	240.84632	98.45407	103.33609	174.93905	0
573	25.22377	142.39225	117.16848	-82.99434	-45.56552	129.37353	152.15629	165.17501	231.08228	88.69003	93.57205	165.17501	0
574	22.78276	135.06922	112.28646	-78.11232	-45.56552	124.49151	149.71528	155.41097	221.31824	76.48498	83.80801	157.85198	0
575	10.57771	120.42316	109.84545	-65.90727	-50.44754	114.72747	147.27427	143.20592	211.5542	66.72094	74.04397	145.64693	0
576	5.69569	103.33609	97.6404	-53.70222	-45.56552	100.08141	142.39225	128.55986	199.34915	52.07488	61.83892	133.44188	0
577	0	86.24902	85.43535	-43.93818	-43.12451	85.43535	137.51023	111.47279	182.26208	37.42882	47.19286	121.23683	0
578	0	76.48498	75.67131	-39.05616	-38.24249	75.67131	132.62821	91.94471	162.734	25.22377	37.42882	109.03178	0
579	-7.32303	64.27993	70.78929	-29.29212	-38.24249	65.90727	127.74619	77.29865	148.08794	15.45973	27.66478	101.70875	0
580	-9.76404	56.9569	65.90727	-24.4101	-38.24249	61.02525	122.86417	66.72094	131.00087	8.1367	20.34175	96.82673	0
581	-12.20505	54.51589	65.90727	-21.96909	-38.24249	58.58424	115.54114	54.51589	118.79582	0.81367	17.90074	91.94471	0
582	-7.32303	61.83892	68.34828	-26.85111	-38.24249	63.46626	110.65912	44.75185	106.59077	-4.88202	13.01872	91.94471	0
583	0	71.60296	70.78929	-36.61515	-35.80148	70.78929	108.21811	39.86983	99.26774	-7.32303	8.1367	89.5037	0
584	0	69.16195	68.34828	-34.17414	-33.36047	68.34828	105.7771	34.98781	91.94471	-12.20505	5.69569	87.06269	0
585	-9.76404	64.27993	73.2303	-26.85111	-40.6835	68.34828	105.7771	30.10579	87.06269	-17.08707	3.25468	87.06269	0
586	-14.64606	54.51589	68.34828	-19.52808	-40.6835	61.02525	105.7771	22.78276	82.18067	-17.08707	3.25468	87.06269	0
587	-9.76404	47.19286	56.14323	-19.52808	-33.36047	51.26121	105.7771	15.45973	72.41663	-21.96909	-4.88202	82.18067	0
588	-2.44101	32.5468	34.17414	-14.64606	-18.71441	31.73313	105.7771	8.1367	65.0936	-26.85111	-7.32303	79.73966	0
589	-7.32303	15.45973	21.96909	-4.88202	-13.83239	17.08707	105.7771	0.81367	54.51589	-31.73313	-14.64606	74.85764	0
590	-24.4101	8.1367	31.73313	8.1367	-28.47845	19.52808	105.7771	-4.06835	49.63387	-34.17414	-17.08707	72.41663	0
591	-24.4101	8.1367	31.73313	8.1367	-28.47845	19.52808	103.33609	-8.95037	44.75185	-39.05616	-24.4101	67.53461	0
592	-19.52808	8.1367	26.85111	5.69569	-23.59643	17.08707	96.01306	-13.83239	34.98781	-48.8202	-34.17414	60.21158	0
593	-17.08707	10.57771	26.85111	3.25468	-21.15542	17.08707	88.69003	-18.71441	32.5468	-56.14323	-41.49717	52.88855	0
594	-29.29212	13.01872	41.49717	8.1367	-35.80148	26.85111	83.80801	-21.15542	27.66478	-61.02525	-46.37919	48.00653	0
595	-39.05616	13.01872	51.26121	13.01872	-45.56552	31.73313	81.367	-26.03744	22.78276	-68.34828	-53.70222	43.12451	0
596	-43.93818	8.1367	51.26121	17.90074	-48.00653	29.29212	81.367	-28.47845	20.34175	-70.78929	-58.58424	38.24249	0
597	-29.29212	13.01872	41.49717	8.1367	-35.80148	26.85111	83.80801	-30.91946	15.45973	-75.67131	-63.46626	35.80148	0
598	-31.73313	15.45973	46.37919	8.1367	-38.24249	29.29212	88.69003	-35.80148	13.01872	-75.67131	-65.90727	33.36047	0
599	-39.05616	8.1367	46.37919	15.45973	-43.12451	26.85111	91.13104	-38.24249	10.57771	-75.67131	-68.34828	33.36047	0
600	-34.17414	2.44101	36.61515	15.45973	-35.80148	19.52808	93.57205	-43.12451	5.69569	-78.11232	-68.34828	33.36047	0
601	-24.4101	0	24.4101	10.57771	-26.03744	12.20505	88.69003	-45.56552	3.25468	-78.11232	-70.78929	33.36047	0
602	-9.76404	2.44101	12.20505	3.25468	-11.39138	7.32303	86.24902	-45.56552	3.25468	-78.11232	-70.78929	33.36047	0
603	-9.76404	-2.44101	7.32303	5.69569	-8.95037	1.62734	81.367	-48.00653	3.25468	-78.11232	-70.78929	30.91946	0
604	-12.20505	-12.20505	-0.81367	10.57771	-6.50936	-8.1367	78.92599	-45.56552	5.69569	-75.67131	-73.2303	30.91946	0
605	-12.20505	-14.64606	-3.25468	13.01872	-6.50936	-10.57771	81.367	-43.12451	10.57771	-73.2303	-70.78929	35.80148	0
606	-12.20505	-12.20505	-0.81367	10.57771	-6.50936	-8.1367	86.24902	-38.24249	15.45973	-70.78929	-70.78929	35.80148	0
607	-14.64606	-2.44101	12.20505	8.1367	-13.83239	4.88202	93.57205	-35.80148	17.90074	-65.90727	-68.34828	40.6835	0
608	-21.96909	8.1367	29.29212	5.69569	-26.03744	17.08707	100.89508	-38.24249	17.90074	-63.46626	-68.34828	43.12451	0
609	-29.29212	13.01872	41.49717	8.1367	-35.80148	26.85111	105.7771	-40.6835	17.90074	-58.58424	-65.90727	48.00653	0
610	-31.73313	13.01872	43.93818	8.1367	-38.24249	26.85111	105.7771	-43.12451	15.45973	-58.58424	-65.90727	50.44754	0
611	-31.73313	10.57771	41.49717	10.57771	-35.80148	24.4101	105.7771	-43.12451	15.45973	-56.14323	-65.90727	52.88855	0
612	-43.93818	2.44101	46.37919	20.34175	-45.56552	24.4101	105.7771	-43.12451	13.01872	-58.58424	-68.34828	52.88855	0
613	-56.14323	-9.76404	46.37919	32.5468	-52.88855	17.08707	100.89508	-45.56552	13.01872	-63.46626	-70.78929	52.88855	0
614	-68.34828	-24.4101	43.93818	44.75185	-57.77057	9.76404	98.45407	-48.00653	10.57771	-68.34828	-75.67131	50.44754	0
615	-78.11232	-31.73313	46.37919	54.51589	-62.65259	7.32303	103.33609	-48.00653	15.45973	-68.34828	-75.67131	52.88855	0
616	-75.67131	-36.61515	39.05616	54.51589	-57.77057	-0.81367	108.21811	-50.44754	15.45973	-70.78929	-78.11232	50.44754	0
617	-75.67131	-39.05616	36.61515	56.9569	-57.77057	-3.25468	110.65912	-55.32956	13.01872	-75.67131	-80.55333	50.44754	0
618	-70.78929	-36.61515	34.17414	52.07488	-52.88855	-3.25468	110.65912	-62.65259	8.1367	-78.11232	-85.43535	48.00653	0
619	-63.46626	-31.73313	31.73313	47.19286	-48.00653	-0.81367	110.65912	-67.53461	-1.62734	-85.43535	-90.31737	43.12451	0
620	-56.14323	-21.96909	34.17414	37.42882	-45.56552	4.88202	113.10013	-67.53461	-4.06835	-87.87636	-90.31737	45.56552	0
621	-46.37919	-14.64606	31.73313	30.10579	-40.6835	7.32303	113.10013	-65.0936	-8.95037	-92.75838	-95.19939	45.56552	0
622	-48.8202	-14.64606	34.17414	30.10579	-43.12451	9.76404	108.21811	-65.0936	-13.83239	-100.08141	-100.08141	43.12451	0
623	-53.70222	-9.76404	43.93818	30.10579	-50.44754	17.08707	105.7771	-62.65259	-11.39138	-102.52242	-100.08141	43.12451	0
624	-58.58424	-7.32303	51.26121	32.5468	-55.32956	21.96909	103.33609	-60.21158	-11.39138	-102.52242	-100.08141	43.12451	-1250	T-0
625	-58.58424	-7.32303	51.26121	32.5468	-55.32956	21.96909	100.89508	-60.21158	-11.39138	-100.08141	-95.19939	45.56552	0
626	-51.26121	-9.76404	41.49717	30.10579	-48.00653	14.64606	98.45407	-67.53461	-13.83239	-97.6404	-92.75838	45.56552	0
627	-53.70222	-14.64606	39.05616	32.5468	-48.00653	12.20505	98.45407	-74.85764	-16.2734	-95.19939	-87.87636	50.44754	0
628	-58.58424	-17.08707	41.49717	37.42882	-50.44754	12.20505	98.45407	-79.73966	-18.71441	-87.87636	-75.67131	60.21158	0
629	-48.8202	-17.08707	31.73313	32.5468	-40.6835	7.32303	98.45407	-84.62168	-23.59643	-85.43535	-70.78929	65.0936	0
630	-41.49717	-17.08707	24.4101	27.66478	-33.36047	1.62734	98.45407	-91.94471	-30.91946	-85.43535	-68.34828	67.53461	0
631	-43.93818	-14.64606	29.29212	27.66478	-38.24249	7.32303	93.57205	-96.82673	-35.80148	-87.87636	-70.78929	65.0936	0
632	-61.02525	-21.96909	39.05616	39.86983	-50.44754	7.32303	88.69003	-99.26774	-43.12451	-92.75838	-75.67131	62.65259	0
633	-70.78929	-24.4101	46.37919	47.19286	-60.21158	9.76404	83.80801	-101.70875	-43.12451	-95.19939	-78.11232	60.21158	0
634	-61.02525	-19.52808	41.49717	39.86983	-52.88855	9.76404	71.60296	-109.03178	-50.44754	-102.52242	-85.43535	50.44754	0
635	-51.26121	-7.32303	43.93818	27.66478	-48.00653	17.08707	69.16195	-113.9138	-50.44754	-104.96343	-90.31737	45.56552	0
636	-46.37919	2.44101	48.8202	20.34175	-48.00653	24.4101	69.16195	-116.35481	-52.88855	-104.96343	-90.31737	43.12451	0
637	-41.49717	13.01872	53.70222	13.01872	-48.00653	31.73313	71.60296	-116.35481	-52.88855	-102.52242	-87.87636	43.12451	0
638	-29.29212	22.78276	51.26121	3.25468	-40.6835	36.61515	76.48498	-118.79582	-52.88855	-97.6404	-82.99434	48.00653	0
639	-9.76404	30.10579	39.05616	-9.76404	-23.59643	34.17414	78.92599	-118.79582	-55.32956	-92.75838	-78.11232	52.88855	0
640	-7.32303	27.66478	34.17414	-9.76404	-21.15542	29.29212	81.367	-121.23683	-57.77057	-92.75838	-75.67131	57.77057	0
641	-14.64606	17.90074	31.73313	-2.44101	-23.59643	24.4101	81.367	-123.67784	-62.65259	-92.75838	-78.11232	57.77057	0
642	-26.85111	0	26.85111	13.01872	-28.47845	12.20505	76.48498	-126.11885	-67.53461	-97.6404	-80.55333	55.32956	0
643	-31.73313	-9.76404	21.96909	20.34175	-28.47845	4.88202	71.60296	-131.00087	-67.53461	-100.08141	-82.99434	55.32956	0
644	-34.17414	-12.20505	21.96909	22.78276	-28.47845	4.88202	71.60296	-128.55986	-65.0936	-100.08141	-82.99434	55.32956	0
645	-46.37919	-17.08707	29.29212	30.10579	-38.24249	4.88202	74.04397	-128.55986	-62.65259	-97.6404	-82.99434	57.77057	0
646	-46.37919	-14.64606	31.73313	30.10579	-40.6835	7.32303	78.92599	-133.44188	-65.0936	-100.08141	-85.43535	57.77057	0
647	-39.05616	-7.32303	31.73313	22.78276	-35.80148	12.20505	78.92599	-138.3239	-69.97562	-104.96343	-87.87636	57.77057	0
648	-29.29212	0	29.29212	13.01872	-30.91946	14.64606	78.92599	-143.20592	-74.85764	-104.96343	-87.87636	57.77057	0
649	-21.96909	8.1367	29.29212	5.69569	-26.03744	17.08707	78.92599	-145.64693	-82.18067	-104.96343	-87.87636	57.77057	0
650	-19.52808	5.69569	24.4101	5.69569	-21.15542	14.64606	76.48498	-152.96996	-91.94471	-107.40444	-87.87636	52.88855	0
651	-14.64606	5.69569	19.52808	3.25468	-16.2734	12.20505	71.60296	-160.29299	-99.26774	-112.28646	-92.75838	50.44754	0
652	-2.44101	15.45973	17.08707	-7.32303	-8.95037	14.64606	66.72094	-160.29299	-101.70875	-112.28646	-90.31737	48.00653	0
653	-2.44101	17.90074	19.52808	-7.32303	-11.39138	17.08707	69.16195	-155.41097	-94.38572	-102.52242	-80.55333	57.77057	0
654	-14.64606	15.45973	29.29212	-2.44101	-21.15542	21.96909	74.04397	-145.64693	-87.06269	-95.19939	-68.34828	65.0936	0
655	-29.29212	10.57771	39.05616	8.1367	-33.36047	24.4101	78.92599	-145.64693	-82.18067	-87.87636	-63.46626	67.53461	0
656	-43.93818	5.69569	48.8202	17.90074	-45.56552	26.85111	83.80801	-145.64693	-77.29865	-82.99434	-56.14323	72.41663	0
657	-58.58424	2.44101	61.02525	27.66478	-60.21158	31.73313	93.57205	-140.76491	-74.85764	-75.67131	-46.37919	77.29865	0
658	-70.78929	0	70.78929	34.98781	-72.41663	34.17414	98.45407	-143.20592	-74.85764	-70.78929	-43.93818	77.29865	0
659	-87.87636	-7.32303	80.55333	47.19286	-84.62168	36.61515	103.33609	-145.64693	-77.29865	-70.78929	-43.93818	74.85764	0
660	-85.43535	0	85.43535	42.31084	-87.06269	41.49717	103.33609	-150.52895	-82.18067	-70.78929	-43.93818	72.41663	0
661	-70.78929	15.45973	85.43535	27.66478	-77.29865	48.8202	105.7771	-148.08794	-82.18067	-68.34828	-43.93818	74.85764	0
662	-53.70222	37.42882	90.31737	8.1367	-72.41663	63.46626	105.7771	-143.20592	-79.73966	-63.46626	-36.61515	82.18067	0
663	-46.37919	56.9569	102.52242	-4.88202	-74.85764	78.11232	105.7771	-143.20592	-72.41663	-58.58424	-31.73313	87.06269	0
664	-31.73313	74.04397	104.96343	-21.96909	-67.53461	87.87636	105.7771	-140.76491	-69.97562	-56.14323	-29.29212	89.5037	0
665	-21.96909	93.57205	114.72747	-36.61515	-67.53461	102.52242	108.21811	-140.76491	-65.0936	-51.26121	-21.96909	91.94471	0
666	-24.4101	100.89508	124.49151	-39.05616	-74.85764	112.28646	110.65912	-140.76491	-60.21158	-46.37919	-14.64606	96.82673	0
667	-26.85111	100.89508	126.93252	-36.61515	-77.29865	112.28646	110.65912	-145.64693	-60.21158	-43.93818	-12.20505	99.26774	0
668	-29.29212	93.57205	122.0505	-31.73313	-74.85764	107.40444	108.21811	-150.52895	-65.0936	-43.93818	-9.76404	99.26774	0
669	-29.29212	86.24902	114.72747	-29.29212	-72.41663	100.08141	100.89508	-157.85198	-72.41663	-48.8202	-12.20505	99.26774	0
670	-21.96909	81.367	102.52242	-29.29212	-62.65259	90.31737	96.01306	-165.17501	-79.73966	-51.26121	-12.20505	96.82673	0
671	-21.96909	81.367	102.52242	-29.29212	-62.65259	90.31737	91.13104	-167.61602	-82.18067	-51.26121	-9.76404	101.70875	0
672	-21.96909	81.367	102.52242	-29.29212	-62.65259	90.31737	86.24902	-165.17501	-82.18067	-48.8202	-9.76404	104.14976	0
673	-19.52808	83.80801	102.52242	-31.73313	-60.21158	92.75838	78.92599	-165.17501	-82.18067	-48.8202	-7.32303	106.59077	0
674	-29.29212	76.48498	104.96343	-24.4101	-67.53461	90.31737	78.92599	-160.29299	-77.29865	-48.8202	-4.88202	109.03178	0
675	-36.61515	69.16195	104.96343	-17.08707	-69.97562	85.43535	74.04397	-160.29299	-74.85764	-48.8202	-4.88202	109.03178	0
676	-36.61515	66.72094	102.52242	-14.64606	-69.97562	82.99434	71.60296	-155.41097	-69.97562	-46.37919	0.81367	109.03178	0
677	-36.61515	64.27993	100.08141	-14.64606	-67.53461	80.55333	69.16195	-157.85198	-72.41663	-46.37919	0.81367	106.59077	0
678	-41.49717	56.9569	97.6404	-7.32303	-69.97562	75.67131	64.27993	-162.734	-79.73966	-48.8202	0.81367	101.70875	0
679	-41.49717	49.63387	90.31737	-4.88202	-65.0936	68.34828	56.9569	-172.49804	-87.06269	-53.70222	-1.62734	94.38572	0
680	-39.05616	49.63387	87.87636	-4.88202	-62.65259	68.34828	43.93818	-184.70309	-96.82673	-58.58424	-4.88202	89.5037	0
681	-26.85111	66.72094	92.75838	-19.52808	-60.21158	78.11232	39.05616	-189.58511	-99.26774	-53.70222	-1.62734	89.5037	0
682	-17.08707	76.48498	92.75838	-29.29212	-55.32956	82.99434	34.17414	-192.02612	-104.14976	-48.8202	3.25468	94.38572	0
683	-12.20505	76.48498	87.87636	-31.73313	-50.44754	80.55333	26.85111	-196.90814	-106.59077	-46.37919	8.1367	96.82673	0
684	-4.88202	83.80801	87.87636	-39.05616	-45.56552	85.43535	24.4101	-196.90814	-104.14976	-39.05616	17.90074	104.14976	0
685	8.1367	88.69003	80.55333	-48.8202	-35.80148	85.43535	19.52808	-199.34915	-104.14976	-31.73313	27.66478	111.47279	0
686	20.34175	93.57205	73.2303	-56.14323	-26.03744	82.99434	17.08707	-199.34915	-99.26774	-21.96909	39.86983	121.23683	0
687	32.5468	81.367	48.8202	-56.14323	-8.95037	65.90727	9.76404	-204.23117	-104.14976	-17.08707	44.75185	123.67784	0
688	30.10579	59.39791	29.29212	-43.93818	1.62734	43.93818	-2.44101	-211.5542	-113.9138	-12.20505	44.75185	123.67784	0
689	25.22377	52.07488	26.85111	-39.05616	-1.62734	39.05616	-7.32303	-213.99521	-116.35481	-7.32303	49.63387	126.11885	0
690	20.34175	42.31084	21.96909	-31.73313	-1.62734	31.73313	-12.20505	-218.87723	-123.67784	-2.44101	52.07488	126.11885	0
691	13.01872	25.22377	12.20505	-19.52808	1.62734	19.52808	-21.96909	-228.64127	-133.44188	-4.88202	42.31084	121.23683	0
692	15.45973	20.34175	4.88202	-17.08707	6.50936	12.20505	-29.29212	-233.52329	-143.20592	-9.76404	32.5468	116.35481	0
693	15.45973	25.22377	9.76404	-19.52808	4.06835	17.08707	-34.17414	-238.40531	-148.08794	-14.64606	25.22377	111.47279	0
694	13.01872	39.86983	26.85111	-26.85111	-6.50936	34.17414	-34.17414	-238.40531	-150.52895	-21.96909	15.45973	104.14976	0
695	20.34175	42.31084	21.96909	-31.73313	-1.62734	31.73313	-36.61515	-240.84632	-155.41097	-29.29212	5.69569	96.82673	0
696	25.22377	39.86983	14.64606	-31.73313	6.50936	26.85111	-39.05616	-248.16935	-162.734	-39.05616	-4.88202	84.62168	0
697	27.66478	39.86983	12.20505	-34.17414	8.95037	26.85111	-39.05616	-250.61036	-167.61602	-48.8202	-12.20505	74.85764	0
698	22.78276	30.10579	7.32303	-26.85111	8.95037	19.52808	-34.17414	-250.61036	-167.61602	-53.70222	-19.52808	69.97562	0
699	13.01872	13.01872	-0.81367	-12.20505	6.50936	7.32303	-29.29212	-250.61036	-170.05703	-58.58424	-24.4101	65.0936	0
700	8.1367	-7.32303	-15.45973	-2.44101	11.39138	-10.57771	-24.4101	-253.05137	-174.93905	-61.02525	-26.85111	60.21158	0
701	8.1367	-24.4101	-32.5468	8.1367	18.71441	-27.66478	-26.85111	-255.49238	-182.26208	-65.90727	-31.73313	57.77057	0
702	3.25468	-31.73313	-34.98781	13.01872	18.71441	-32.5468	-26.85111	-255.49238	-187.1441	-70.78929	-36.61515	57.77057	0
703	-7.32303	-46.37919	-39.86983	25.22377	16.2734	-44.75185	-26.85111	-255.49238	-189.58511	-75.67131	-41.49717	55.32956	0
704	-14.64606	-56.14323	-42.31084	34.98781	13.83239	-49.63387	-29.29212	-253.05137	-189.58511	-80.55333	-46.37919	50.44754	0
705	-21.96909	-58.58424	-37.42882	39.86983	6.50936	-49.63387	-34.17414	-255.49238	-194.46713	-87.87636	-51.26121	45.56552	0
706	-29.29212	-65.90727	-37.42882	47.19286	4.06835	-52.07488	-34.17414	-253.05137	-194.46713	-95.19939	-58.58424	40.6835	0
707	-41.49717	-68.34828	-27.66478	54.51589	-8.95037	-49.63387	-31.73313	-250.61036	-194.46713	-100.08141	-63.46626	35.80148	0
708	-39.05616	-65.90727	-27.66478	52.07488	-6.50936	-47.19286	-29.29212	-250.61036	-194.46713	-107.40444	-70.78929	28.47845	0
709	-39.05616	-65.90727	-27.66478	52.07488	-6.50936	-47.19286	-29.29212	-255.49238	-201.79016	-114.72747	-82.99434	18.71441	0
710	-34.17414	-65.90727	-32.5468	49.63387	-1.62734	-49.63387	-29.29212	-255.49238	-201.79016	-114.72747	-85.43535	18.71441	0
711	-36.61515	-73.2303	-37.42882	54.51589	-1.62734	-56.9569	-26.85111	-255.49238	-201.79016	-117.16848	-87.87636	16.2734	0
712	-48.8202	-80.55333	-32.5468	64.27993	-8.95037	-56.9569	-24.4101	-253.05137	-201.79016	-117.16848	-87.87636	13.83239	0
713	-53.70222	-87.87636	-34.98781	69.16195	-11.39138	-61.83892	-21.96909	-250.61036	-196.90814	-114.72747	-85.43535	16.2734	0
714	-63.46626	-107.40444	-44.75185	83.80801	-11.39138	-76.48498	-19.52808	-245.72834	-192.02612	-109.84545	-80.55333	18.71441	0
715	-75.67131	-119.60949	-44.75185	96.01306	-16.2734	-83.80801	-14.64606	-238.40531	-182.26208	-97.6404	-68.34828	26.03744	0
716	-78.11232	-117.16848	-39.86983	96.01306	-21.15542	-78.92599	-12.20505	-233.52329	-177.38006	-92.75838	-63.46626	28.47845	0
717	-80.55333	-114.72747	-34.98781	96.01306	-23.59643	-76.48498	-9.76404	-233.52329	-177.38006	-87.87636	-61.02525	28.47845	0
718	-68.34828	-107.40444	-39.86983	86.24902	-16.2734	-74.04397	-7.32303	-231.08228	-177.38006	-85.43535	-56.14323	28.47845	0
719	-53.70222	-97.6404	-44.75185	74.04397	-6.50936	-71.60296	-7.32303	-231.08228	-179.82107	-82.99434	-56.14323	23.59643	0
720	-51.26121	-85.43535	-34.98781	66.72094	-8.95037	-61.83892	-7.32303	-235.9643	-182.26208	-82.99434	-61.02525	18.71441	0
721	-46.37919	-73.2303	-27.66478	59.39791	-11.39138	-52.07488	-7.32303	-235.9643	-184.70309	-82.99434	-65.90727	16.2734	0
722	-46.37919	-70.78929	-25.22377	56.9569	-11.39138	-49.63387	-9.76404	-233.52329	-182.26208	-85.43535	-70.78929	11.39138	0
723	-48.8202	-70.78929	-22.78276	59.39791	-13.83239	-47.19286	-9.76404	-231.08228	-177.38006	-85.43535	-70.78929	11.39138	0
724	-48.8202	-75.67131	-27.66478	61.83892	-11.39138	-52.07488	-9.76404	-228.64127	-174.93905	-85.43535	-75.67131	11.39138	0
725	-48.8202	-80.55333	-32.5468	64.27993	-8.95037	-56.9569	-9.76404	-228.64127	-172.49804	-87.87636	-75.67131	11.39138	0
726	-46.37919	-87.87636	-42.31084	66.72094	-4.06835	-66.72094	-9.76404	-226.20026	-167.61602	-85.43535	-75.67131	11.39138	0
727	-46.37919	-97.6404	-52.07488	71.60296	1.62734	-76.48498	-9.76404	-226.20026	-170.05703	-85.43535	-75.67131	11.39138	0
728	-48.8202	-104.96343	-56.9569	76.48498	4.06835	-81.367	-9.76404	-226.20026	-172.49804	-85.43535	-78.11232	11.39138	0
729	-61.02525	-112.28646	-52.07488	86.24902	-6.50936	-83.80801	-9.76404	-228.64127	-177.38006	-87.87636	-80.55333	6.50936	0
730	-61.02525	-114.72747	-54.51589	86.24902	-4.06835	-86.24902	-9.76404	-231.08228	-179.82107	-90.31737	-82.99434	4.06835	0
731	-63.46626	-109.84545	-47.19286	86.24902	-8.95037	-78.92599	-9.76404	-228.64127	-179.82107	-87.87636	-82.99434	1.62734	0
732	-70.78929	-107.40444	-37.42882	88.69003	-18.71441	-74.04397	-12.20505	-231.08228	-179.82107	-85.43535	-85.43535	-0.81367	0
733	-63.46626	-92.75838	-30.10579	76.48498	-18.71441	-61.83892	-14.64606	-233.52329	-179.82107	-87.87636	-87.87636	-3.25468	0
734	-56.14323	-73.2303	-17.90074	64.27993	-21.15542	-47.19286	-14.64606	-238.40531	-177.38006	-82.99434	-82.99434	1.62734	0
735	-46.37919	-51.26121	-5.69569	47.19286	-21.15542	-30.10579	-14.64606	-250.61036	-182.26208	-80.55333	-78.11232	6.50936	0
736	-39.05616	-31.73313	7.32303	34.98781	-23.59643	-13.01872	-17.08707	-267.69743	-189.58511	-73.2303	-68.34828	16.2734	0
737	-43.93818	-17.08707	26.85111	30.10579	-35.80148	4.88202	-21.96909	-294.54854	-206.67218	-63.46626	-56.14323	30.91946	0
738	-51.26121	0	51.26121	25.22377	-52.88855	24.4101	-21.96909	-321.39965	-228.64127	-53.70222	-43.93818	45.56552	0
739	-58.58424	13.01872	70.78929	22.78276	-65.0936	41.49717	-19.52808	-345.80975	-243.28733	-36.61515	-19.52808	62.65259	0
740	-73.2303	17.90074	90.31737	27.66478	-82.18067	53.70222	-12.20505	-372.66086	-262.81541	-14.64606	10.57771	82.18067	0
741	-80.55333	30.10579	109.84545	25.22377	-94.38572	68.34828	-4.88202	-399.51197	-277.46147	8.1367	44.75185	104.14976	0
742	-80.55333	47.19286	126.93252	15.45973	-104.14976	85.43535	7.32303	-419.04005	-289.66652	34.98781	81.367	126.11885	0
743	-78.11232	64.27993	141.57858	5.69569	-109.03178	102.52242	21.96909	-445.89116	-306.75359	56.9569	117.98215	145.64693	0
744	-63.46626	83.80801	146.4606	-9.76404	-104.14976	114.72747	31.73313	-480.0653	-326.28167	86.24902	157.03831	170.05703	0
745	-43.93818	105.7771	148.90161	-31.73313	-96.82673	126.93252	21.96909	-541.09055	-362.89682	115.54114	198.53548	199.34915	0
746	-29.29212	137.51023	165.98868	-53.70222	-96.82673	151.34262	-4.88202	-626.5259	-416.59904	147.27427	240.03265	233.52329	0
747	-7.32303	171.68437	178.19373	-82.99434	-91.94471	173.31171	-58.58424	-731.48933	-484.94732	181.44841	283.97083	272.57945	0
748	5.69569	196.09447	190.39878	-100.08141	-91.94471	192.83979	-126.93252	-855.98084	-567.94166	218.06356	327.90901	311.63561	0
749	27.66478	222.94558	195.2808	-124.49151	-84.62168	209.92686	-214.80888	-1000.00043	-658.25903	254.67871	371.84719	350.69177	0
750	47.19286	254.67871	207.48585	-151.34262	-79.73966	231.89595	-314.89029	-1158.66608	-758.34044	296.17588	420.66739	394.62995	0
751	61.83892	279.08881	217.24989	-170.8707	-77.29865	248.98302	-422.29473	-1312.44971	-853.53983	335.23204	467.04658	436.12712	0
752	81.367	293.73487	212.36787	-187.95777	-65.0936	253.86504	-532.14018	-1446.70526	-941.41619	362.08315	501.22072	467.86025	0
753	96.01306	288.85285	192.83979	-192.83979	-48.00653	241.65999	-632.22159	-1563.87374	-1021.96952	374.2882	520.7488	484.94732	0
754	108.21811	276.6478	168.42969	-192.83979	-30.91946	222.13191	-722.53896	-1668.83717	-1102.52285	362.08315	515.86678	482.50631	0
755	113.10013	259.56073	146.4606	-185.51676	-16.2734	202.60383	-810.41532	-1749.3905	-1175.75315	320.58598	489.01567	462.97823	0
756	103.33609	225.38659	122.0505	-163.54767	-8.95037	173.31171	-886.08663	-1795.76969	-1234.33739	252.2377	432.87244	419.04005	0
757	93.57205	186.33043	92.75838	-139.13757	1.62734	139.13757	-944.67087	-1798.2107	-1270.95254	157.03831	349.8781	353.13278	0
758	83.80801	147.27427	63.46626	-114.72747	11.39138	104.96343	-981.28602	-1776.24161	-1290.48062	49.63387	254.67871	275.02046	0
759	61.83892	98.45407	36.61515	-80.55333	13.83239	68.34828	-995.93208	-1724.9804	-1290.48062	-61.02525	157.03831	192.02612	0
760	27.66478	37.42882	9.76404	-31.73313	8.95037	24.4101	-995.93208	-1646.86808	-1268.51153	-165.98868	56.9569	109.03178	0
761	0	-17.08707	-17.90074	8.1367	8.95037	-17.90074	-973.96299	-1534.58162	-1212.3683	-244.101	-19.52808	43.12451	0
762	-9.76404	-65.90727	-56.9569	37.42882	23.59643	-61.83892	-934.90683	-1397.88506	-1131.81497	-297.80322	-78.11232	-8.95037	0
763	-12.20505	-104.96343	-93.57205	56.9569	40.6835	-100.89508	-883.64562	-1248.98345	-1026.85154	-327.09534	-114.72747	-45.56552	0
764	-12.20505	-131.81454	-120.42316	71.60296	52.88855	-127.74619	-817.73835	-1085.43578	-902.36003	-331.97736	-131.81454	-67.53461	0
765	-9.76404	-146.4606	-137.51023	76.48498	62.65259	-142.39225	-751.83108	-917.00609	-768.10448	-322.21332	-136.69656	-79.73966	0
766	5.69569	-136.69656	-142.39225	64.27993	72.41663	-139.95124	-681.04179	-751.01741	-626.5259	-300.24423	-126.93252	-82.18067	0
767	17.90074	-122.0505	-139.95124	52.07488	77.29865	-130.1872	-607.81149	-592.35176	-487.38833	-268.5111	-109.84545	-77.29865	0
768	27.66478	-104.96343	-132.62821	37.42882	79.73966	-117.98215	-537.0222	-450.77318	-360.45581	-239.21898	-92.75838	-74.85764	0
769	27.66478	-90.31737	-117.98215	30.10579	72.41663	-103.33609	-468.67392	-328.72268	-250.61036	-209.92686	-75.67131	-69.97562	0
770	20.34175	-85.43535	-105.7771	32.5468	62.65259	-96.01306	-407.64867	-226.20026	-160.29299	-185.51676	-58.58424	-65.0936	0
771	15.45973	-82.99434	-98.45407	32.5468	55.32956	-91.13104	-351.50544	-140.76491	-82.18067	-161.10666	-46.37919	-60.21158	0
772	10.57771	-85.43535	-96.01306	37.42882	52.88855	-91.13104	-297.80322	-60.21158	-11.39138	-139.13757	-31.73313	-52.88855	0
773	8.1367	-97.6404	-105.7771	44.75185	55.32956	-100.89508	-253.86504	3.25468	47.19286	-124.49151	-24.4101	-52.88855	0
774	10.57771	-109.84545	-120.42316	49.63387	65.0936	-115.54114	-219.6909	56.9569	91.94471	-114.72747	-21.96909	-52.88855	0
775	20.34175	-119.60949	-139.95124	49.63387	79.73966	-130.1872	-192.83979	99.26774	135.88289	-107.40444	-17.08707	-55.32956	0
776	34.98781	-126.93252	-161.92033	44.75185	96.82673	-144.83326	-168.42969	133.44188	170.05703	-100.08141	-14.64606	-60.21158	0
777	34.98781	-136.69656	-171.68437	49.63387	101.70875	-154.5973	-148.90161	160.29299	199.34915	-92.75838	-7.32303	-62.65259	0
778	25.22377	-148.90161	-174.12538	61.83892	99.26774	-161.92033	-131.81454	177.38006	218.87723	-87.87636	-4.88202	-65.0936	0
779	20.34175	-158.66565	-179.0074	69.16195	99.26774	-169.24336	-119.60949	189.58511	233.52329	-85.43535	0.81367	-67.53461	0
780	13.01872	-161.10666	-174.12538	74.04397	91.94471	-166.80235	-104.96343	199.34915	245.72834	-80.55333	8.1367	-65.0936	0
781	10.57771	-168.42969	-179.0074	78.92599	94.38572	-174.12538	-95.19939	209.11319	255.49238	-75.67131	15.45973	-62.65259	0
782	0	-175.75272	-176.56639	86.24902	87.06269	-176.56639	-85.43535	216.43622	262.81541	-68.34828	20.34175	-57.77057	0
783	-7.32303	-180.63474	-174.12538	93.57205	82.18067	-179.0074	-78.11232	226.20026	272.57945	-63.46626	27.66478	-52.88855	0
784	-4.88202	-183.07575	-179.0074	93.57205	87.06269	-181.44841	-68.34828	240.84632	284.7845	-58.58424	32.5468	-48.00653	0
785	-4.88202	-187.95777	-183.88942	96.01306	89.5037	-186.33043	-58.58424	248.16935	294.54854	-53.70222	32.5468	-48.00653	0
786	-4.88202	-187.95777	-183.88942	96.01306	89.5037	-186.33043	-51.26121	257.93339	304.31258	-51.26121	32.5468	-50.44754	0
787	-2.44101	-190.39878	-188.77144	96.01306	91.94471	-191.21245	-46.37919	265.25642	316.51763	-48.8202	34.98781	-50.44754	0
788	0	-187.95777	-188.77144	93.57205	94.38572	-188.77144	-36.61515	275.02046	326.28167	-43.93818	37.42882	-50.44754	0
789	5.69569	-180.63474	-186.33043	86.24902	94.38572	-183.88942	-29.29212	284.7845	336.04571	-39.05616	39.86983	-50.44754	0
790	10.57771	-178.19373	-188.77144	83.80801	99.26774	-183.88942	-24.4101	287.22551	338.48672	-39.05616	42.31084	-50.44754	0
791	10.57771	-175.75272	-186.33043	81.367	96.82673	-181.44841	-24.4101	284.7845	338.48672	-39.05616	39.86983	-52.88855	0
792	15.45973	-173.31171	-188.77144	78.92599	101.70875	-181.44841	-26.85111	287.22551	336.04571	-39.05616	39.86983	-55.32956	0
793	8.1367	-165.98868	-174.12538	78.92599	89.5037	-169.24336	-26.85111	292.10753	338.48672	-36.61515	42.31084	-52.88855	0
794	5.69569	-168.42969	-174.12538	81.367	89.5037	-171.68437	-26.85111	294.54854	336.04571	-39.05616	42.31084	-52.88855	0
795	5.69569	-168.42969	-174.12538	81.367	89.5037	-171.68437	-29.29212	296.98955	336.04571	-41.49717	37.42882	-55.32956	0
796	8.1367	-165.98868	-174.12538	78.92599	89.5037	-169.24336	-29.29212	299.43056	340.92773	-41.49717	34.98781	-57.77057	0
797	10.57771	-158.66565	-169.24336	74.04397	89.5037	-164.36134	-19.52808	306.75359	348.25076	-36.61515	37.42882	-52.88855	0
798	13.01872	-151.34262	-164.36134	69.16195	87.06269	-157.03831	-12.20505	314.07662	355.57379	-26.85111	42.31084	-45.56552	0
799	22.78276	-148.90161	-171.68437	61.83892	96.82673	-159.47932	-7.32303	318.95864	360.45581	-21.96909	42.31084	-43.12451	0
800	37.42882	-144.01959	-181.44841	52.07488	109.03178	-161.92033	-4.88202	318.95864	358.0148	-21.96909	42.31084	-43.12451	0
801	32.5468	-139.13757	-171.68437	52.07488	101.70875	-154.5973	0	323.84066	358.0148	-17.08707	47.19286	-38.24249	0
802	25.22377	-139.13757	-164.36134	56.9569	94.38572	-152.15629	2.44101	328.72268	358.0148	-12.20505	49.63387	-33.36047	0
803	17.90074	-146.4606	-164.36134	64.27993	89.5037	-154.5973	2.44101	333.6047	358.0148	-12.20505	52.07488	-30.91946	0
804	20.34175	-156.22464	-176.56639	66.72094	96.82673	-166.80235	0	338.48672	360.45581	-12.20505	49.63387	-33.36047	0
805	22.78276	-156.22464	-179.0074	66.72094	99.26774	-166.80235	0	340.92773	362.89682	-14.64606	44.75185	-35.80148	0
806	25.22377	-161.10666	-186.33043	66.72094	104.14976	-174.12538	2.44101	345.80975	367.77884	-12.20505	42.31084	-35.80148	0
807	30.10579	-156.22464	-186.33043	61.83892	106.59077	-171.68437	7.32303	353.13278	375.10187	-7.32303	44.75185	-35.80148	0
808	47.19286	-144.01959	-191.21245	47.19286	118.79582	-166.80235	12.20505	358.0148	382.4249	-2.44101	47.19286	-35.80148	0
809	59.39791	-136.69656	-196.09447	37.42882	126.11885	-166.80235	19.52808	362.89682	384.86591	3.25468	52.07488	-33.36047	0
810	59.39791	-129.37353	-188.77144	34.98781	123.67784	-159.47932	24.4101	367.77884	387.30692	8.1367	54.51589	-30.91946	0
811	59.39791	-126.93252	-186.33043	32.5468	121.23683	-157.03831	31.73313	372.66086	392.18894	15.45973	61.83892	-26.03744	0
812	47.19286	-129.37353	-176.56639	39.86983	111.47279	-152.15629	36.61515	379.98389	397.07096	20.34175	69.16195	-21.15542	0
813	39.86983	-139.13757	-179.0074	49.63387	109.03178	-159.47932	36.61515	384.86591	399.51197	20.34175	69.16195	-21.15542	0
814	37.42882	-148.90161	-186.33043	54.51589	111.47279	-166.80235	39.05616	387.30692	399.51197	15.45973	66.72094	-21.15542	0
815	34.98781	-153.78363	-188.77144	59.39791	111.47279	-171.68437	39.05616	389.74793	404.39399	13.01872	66.72094	-21.15542	0
816	44.75185	-146.4606	-191.21245	49.63387	116.35481	-169.24336	41.49717	389.74793	409.27601	10.57771	64.27993	-21.15542	0
817	47.19286	-141.57858	-188.77144	47.19286	116.35481	-164.36134	39.05616	389.74793	411.71702	8.1367	61.83892	-23.59643	0
818	52.07488	-134.25555	-186.33043	39.86983	118.79582	-159.47932	36.61515	387.30692	409.27601	0.81367	54.51589	-30.91946	0
819	59.39791	-124.49151	-183.88942	32.5468	121.23683	-154.5973	36.61515	384.86591	411.71702	-2.44101	52.07488	-33.36047	0
820	66.72094	-112.28646	-179.0074	22.78276	121.23683	-144.83326	39.05616	387.30692	414.15803	-2.44101	52.07488	-30.91946	0
821	74.04397	-109.84545	-183.88942	17.90074	128.55986	-147.27427	39.05616	389.74793	416.59904	-2.44101	49.63387	-33.36047	0
822	76.48498	-117.16848	-193.65346	20.34175	133.44188	-154.5973	31.73313	389.74793	416.59904	-7.32303	42.31084	-40.6835	0
823	74.04397	-119.60949	-193.65346	22.78276	133.44188	-157.03831	31.73313	397.07096	423.92207	-7.32303	39.86983	-43.12451	0
824	74.04397	-119.60949	-193.65346	22.78276	133.44188	-157.03831	36.61515	411.71702	436.12712	-2.44101	42.31084	-38.24249	0
825	71.60296	-117.16848	-188.77144	22.78276	128.55986	-152.15629	39.05616	423.92207	450.77318	5.69569	47.19286	-33.36047	0
826	64.27993	-119.60949	-183.88942	27.66478	123.67784	-152.15629	41.49717	433.68611	465.41924	15.45973	52.07488	-30.91946	0
827	56.9569	-122.0505	-179.0074	32.5468	116.35481	-149.71528	43.93818	441.00914	477.62429	25.22377	59.39791	-26.03744	0
828	42.31084	-122.0505	-164.36134	39.86983	101.70875	-142.39225	52.07488	450.77318	492.27035	37.42882	69.16195	-16.2734	0
829	30.10579	-124.49151	-154.5973	47.19286	91.94471	-139.95124	59.39791	458.09621	502.03439	47.19286	76.48498	-11.39138	0
830	32.5468	-129.37353	-161.92033	47.19286	96.82673	-144.83326	61.83892	458.09621	502.03439	49.63387	78.92599	-11.39138	0
831	39.86983	-136.69656	-176.56639	47.19286	106.59077	-157.03831	59.39791	455.6552	502.03439	49.63387	76.48498	-11.39138	0
832	49.63387	-134.25555	-183.88942	42.31084	116.35481	-159.47932	59.39791	458.09621	502.03439	44.75185	71.60296	-13.83239	0
833	59.39791	-129.37353	-188.77144	34.98781	123.67784	-159.47932	59.39791	462.97823	504.4754	42.31084	66.72094	-16.2734	0
834	66.72094	-124.49151	-191.21245	27.66478	128.55986	-157.03831	59.39791	472.74227	509.35742	37.42882	61.83892	-18.71441	0
835	76.48498	-114.72747	-191.21245	17.90074	133.44188	-152.15629	61.83892	480.0653	514.23944	37.42882	56.9569	-21.15542	0
836	76.48498	-107.40444	-183.88942	15.45973	128.55986	-144.83326	64.27993	489.82934	526.44449	39.86983	56.9569	-18.71441	0
837	69.16195	-104.96343	-174.12538	17.90074	121.23683	-139.95124	69.16195	497.15237	533.76752	42.31084	59.39791	-16.2734	0
838	64.27993	-102.52242	-166.80235	17.90074	113.9138	-135.06922	74.04397	502.03439	536.20853	47.19286	61.83892	-11.39138	0
839	47.19286	-107.40444	-154.5973	30.10579	99.26774	-130.1872	78.92599	509.35742	541.09055	56.9569	69.16195	-6.50936	0
840	32.5468	-107.40444	-139.95124	37.42882	84.62168	-122.86417	88.69003	514.23944	545.97257	66.72094	76.48498	1.62734	0
841	17.90074	-112.28646	-130.1872	47.19286	72.41663	-120.42316	91.13104	521.56247	550.85459	76.48498	83.80801	6.50936	0
842	15.45973	-114.72747	-130.1872	49.63387	72.41663	-122.86417	91.13104	526.44449	550.85459	83.80801	88.69003	8.95037	0
843	17.90074	-114.72747	-132.62821	47.19286	74.85764	-122.86417	91.13104	533.76752	550.85459	91.13104	88.69003	6.50936	0
844	15.45973	-104.96343	-120.42316	44.75185	67.53461	-113.10013	91.13104	545.97257	558.17762	96.01306	93.57205	6.50936	0
845	15.45973	-92.75838	-108.21811	37.42882	60.21158	-100.89508	93.57205	558.17762	567.94166	100.89508	93.57205	4.06835	0
846	27.66478	-75.67131	-103.33609	22.78276	65.0936	-88.69003	93.57205	565.50065	572.82368	96.01306	88.69003	-6.50936	0
847	37.42882	-58.58424	-96.01306	10.57771	65.0936	-76.48498	96.01306	570.38267	577.7057	96.01306	86.24902	-11.39138	0
848	47.19286	-41.49717	-88.69003	-2.44101	67.53461	-64.27993	98.45407	572.82368	577.7057	96.01306	83.80801	-16.2734	0
849	54.51589	-26.85111	-81.367	-14.64606	67.53461	-54.51589	100.89508	575.26469	577.7057	98.45407	81.367	-16.2734	0
850	61.83892	-7.32303	-69.16195	-26.85111	65.0936	-37.42882	105.7771	575.26469	580.14671	103.33609	86.24902	-13.83239	0
851	81.367	5.69569	-76.48498	-43.93818	79.73966	-34.98781	100.89508	572.82368	577.7057	105.7771	88.69003	-13.83239	0
852	86.24902	20.34175	-66.72094	-53.70222	77.29865	-22.78276	100.89508	572.82368	575.26469	113.10013	96.01306	-6.50936	0
853	98.45407	25.22377	-74.04397	-61.02525	87.06269	-25.22377	96.01306	572.82368	570.38267	120.42316	100.89508	-3.25468	0
854	103.33609	32.5468	-71.60296	-68.34828	87.06269	-20.34175	96.01306	577.7057	572.82368	130.1872	113.10013	6.50936	0
855	88.69003	37.42882	-52.07488	-63.46626	69.97562	-8.1367	98.45407	582.58772	577.7057	144.83326	127.74619	21.15542	0
856	78.92599	39.86983	-39.86983	-58.58424	60.21158	-0.81367	98.45407	585.02873	580.14671	157.03831	137.51023	33.36047	0
857	69.16195	44.75185	-25.22377	-56.14323	48.00653	9.76404	103.33609	585.02873	585.02873	169.24336	149.71528	45.56552	0
858	61.83892	52.07488	-10.57771	-56.14323	35.80148	21.96909	110.65912	585.02873	585.02873	179.0074	159.47932	55.32956	0
859	61.83892	66.72094	4.88202	-63.46626	28.47845	36.61515	120.42316	587.46974	589.91075	191.21245	166.80235	65.0936	0
860	61.83892	81.367	19.52808	-70.78929	21.15542	51.26121	127.74619	582.58772	587.46974	198.53548	171.68437	72.41663	0
861	69.16195	96.01306	26.85111	-82.99434	21.15542	61.02525	127.74619	572.82368	582.58772	208.29952	176.56639	77.29865	0
862	88.69003	120.42316	31.73313	-104.96343	28.47845	75.67131	125.30518	563.05964	577.7057	215.62255	183.88942	82.18067	0
863	96.01306	137.51023	41.49717	-117.16848	28.47845	90.31737	122.86417	553.2956	575.26469	222.94558	188.77144	89.5037	0
864	98.45407	152.15629	53.70222	-124.49151	23.59643	102.52242	122.86417	545.97257	570.38267	227.8276	196.09447	94.38572	0
865	98.45407	159.47932	61.02525	-129.37353	18.71441	109.84545	122.86417	536.20853	570.38267	235.15063	205.85851	104.14976	0
866	86.24902	157.03831	70.78929	-122.0505	8.95037	114.72747	120.42316	528.8855	567.94166	240.03265	215.62255	111.47279	0
867	76.48498	157.03831	80.55333	-117.16848	-1.62734	119.60949	120.42316	521.56247	563.05964	242.47366	222.94558	118.79582	0
868	61.83892	152.15629	90.31737	-107.40444	-13.83239	122.0505	125.30518	514.23944	558.17762	244.91467	230.26861	123.67784	0
869	56.9569	152.15629	95.19939	-104.96343	-18.71441	124.49151	130.1872	506.91641	550.85459	247.35568	237.59164	128.55986	0
870	56.9569	157.03831	100.08141	-107.40444	-21.15542	129.37353	135.06922	497.15237	541.09055	252.2377	244.91467	135.88289	0
871	59.39791	169.24336	109.84545	-114.72747	-26.03744	139.13757	135.06922	487.38833	533.76752	259.56073	254.67871	143.20592	0
872	61.83892	176.56639	114.72747	-119.60949	-26.03744	146.4606	130.1872	472.74227	519.12146	259.56073	259.56073	143.20592	0
873	66.72094	179.0074	112.28646	-122.0505	-23.59643	146.4606	122.86417	455.6552	506.91641	259.56073	262.00174	143.20592	0
874	71.60296	188.77144	117.16848	-129.37353	-23.59643	153.78363	115.54114	441.00914	494.71136	257.11972	262.00174	143.20592	0
875	69.16195	196.09447	126.93252	-131.81454	-28.47845	161.10666	110.65912	423.92207	487.38833	252.2377	262.00174	143.20592	0
876	54.51589	191.21245	136.69656	-122.0505	-40.6835	163.54767	105.7771	411.71702	477.62429	247.35568	262.00174	140.76491	0
877	47.19286	186.33043	139.13757	-117.16848	-45.56552	163.54767	103.33609	399.51197	465.41924	242.47366	262.00174	140.76491	0
878	47.19286	191.21245	144.01959	-119.60949	-48.00653	168.42969	103.33609	389.74793	453.21419	242.47366	264.44275	145.64693	0
879	42.31084	208.29952	165.98868	-124.49151	-62.65259	187.95777	110.65912	384.86591	448.33217	247.35568	269.32477	155.41097	0
880	42.31084	218.06356	175.75272	-129.37353	-67.53461	197.72181	117.98215	372.66086	433.68611	249.79669	274.20679	162.734	0
881	42.31084	222.94558	180.63474	-131.81454	-69.97562	202.60383	117.98215	360.45581	421.48106	254.67871	279.08881	167.61602	0
882	47.19286	232.70962	185.51676	-139.13757	-69.97562	209.92686	117.98215	345.80975	401.95298	257.11972	281.52982	172.49804	0
883	54.51589	242.47366	187.95777	-148.90161	-67.53461	214.80888	113.10013	326.28167	382.4249	252.2377	274.20679	165.17501	0
884	56.9569	240.03265	183.07575	-148.90161	-62.65259	212.36787	103.33609	304.31258	362.89682	240.03265	262.00174	155.41097	0
885	56.9569	230.26861	173.31171	-144.01959	-57.77057	202.60383	98.45407	277.46147	343.36874	227.8276	252.2377	145.64693	0
886	56.9569	222.94558	165.98868	-139.13757	-55.32956	195.2808	93.57205	260.3744	326.28167	218.06356	242.47366	138.3239	0
887	56.9569	220.50457	163.54767	-139.13757	-52.88855	192.83979	88.69003	240.84632	309.1946	205.85851	230.26861	128.55986	0
888	47.19286	210.74053	163.54767	-129.37353	-57.77057	187.95777	86.24902	226.20026	287.22551	191.21245	220.50457	121.23683	0
889	34.98781	200.97649	165.98868	-117.16848	-65.0936	183.07575	91.13104	213.99521	272.57945	183.88942	213.18154	118.79582	0
890	22.78276	198.53548	175.75272	-109.84545	-77.29865	187.95777	100.89508	209.11319	262.81541	181.44841	210.74053	121.23683	0
891	8.1367	193.65346	185.51676	-100.08141	-89.5037	190.39878	105.7771	204.23117	253.05137	176.56639	205.85851	121.23683	0
892	-7.32303	186.33043	192.83979	-90.31737	-99.26774	187.95777	110.65912	194.46713	240.84632	171.68437	200.97649	118.79582	0
893	-12.20505	179.0074	190.39878	-82.99434	-101.70875	183.07575	110.65912	182.26208	226.20026	164.36134	188.77144	111.47279	0
894	-17.08707	164.36134	180.63474	-73.2303	-99.26774	170.8707	110.65912	172.49804	216.43622	157.03831	179.0074	104.14976	0
895	-26.85111	147.27427	173.31171	-61.02525	-99.26774	158.66565	108.21811	157.85198	206.67218	152.15629	169.24336	96.82673	0
896	-34.17414	130.1872	163.54767	-48.8202	-99.26774	146.4606	103.33609	145.64693	196.90814	144.83326	159.47932	87.06269	0
897	-26.85111	120.42316	146.4606	-46.37919	-87.06269	131.81454	100.89508	131.00087	182.26208	142.39225	152.15629	82.18067	0
898	-9.76404	117.98215	126.93252	-53.70222	-67.53461	122.0505	98.45407	118.79582	170.05703	137.51023	144.83326	79.73966	0
899	-7.32303	110.65912	117.16848	-51.26121	-62.65259	112.28646	98.45407	111.47279	160.29299	135.06922	139.95124	77.29865	0
900	-7.32303	105.7771	112.28646	-48.8202	-60.21158	107.40444	100.89508	104.14976	148.08794	127.74619	132.62821	74.85764	0
901	5.69569	108.21811	102.52242	-56.14323	-48.00653	104.96343	103.33609	94.38572	135.88289	120.42316	125.30518	67.53461	0
902	25.22377	115.54114	90.31737	-70.78929	-33.36047	102.52242	100.89508	84.62168	121.23683	110.65912	117.98215	62.65259	0
903	30.10579	117.98215	87.87636	-73.2303	-28.47845	102.52242	96.01306	74.04397	109.03178	100.89508	110.65912	60.21158	0
904	13.01872	113.10013	100.08141	-63.46626	-43.12451	107.40444	91.13104	64.27993	96.82673	86.24902	98.45407	50.44754	0
905	5.69569	103.33609	97.6404	-53.70222	-45.56552	100.08141	83.80801	47.19286	82.18067	69.16195	83.80801	35.80148	0
906	0	96.01306	95.19939	-48.8202	-48.00653	95.19939	76.48498	37.42882	77.29865	59.39791	76.48498	30.91946	0
907	0	93.57205	92.75838	-46.37919	-45.56552	92.75838	76.48498	30.10579	69.97562	52.07488	76.48498	28.47845	0
908	-7.32303	86.24902	92.75838	-39.05616	-50.44754	87.87636	76.48498	22.78276	62.65259	47.19286	74.04397	26.03744	0
909	-12.20505	76.48498	87.87636	-31.73313	-50.44754	80.55333	76.48498	15.45973	54.51589	42.31084	69.16195	23.59643	0
910	-4.88202	71.60296	75.67131	-34.17414	-40.6835	73.2303	76.48498	8.1367	47.19286	34.98781	64.27993	18.71441	0
911	-4.88202	64.27993	68.34828	-29.29212	-35.80148	65.90727	76.48498	10.57771	44.75185	37.42882	66.72094	23.59643	0
912	-2.44101	56.9569	58.58424	-26.85111	-30.91946	56.14323	78.92599	10.57771	39.86983	39.86983	69.16195	26.03744	0
913	-12.20505	47.19286	58.58424	-17.08707	-35.80148	51.26121	76.48498	5.69569	34.98781	39.86983	66.72094	26.03744	0
914	-17.08707	37.42882	53.70222	-9.76404	-35.80148	43.93818	74.04397	5.69569	32.5468	37.42882	64.27993	26.03744	0
915	-17.08707	39.86983	56.14323	-12.20505	-35.80148	46.37919	76.48498	8.1367	37.42882	37.42882	61.83892	26.03744	0
916	-26.85111	34.98781	61.02525	-4.88202	-43.12451	46.37919	76.48498	10.57771	39.86983	34.98781	56.9569	23.59643	0
917	-31.73313	32.5468	63.46626	-2.44101	-48.00653	46.37919	76.48498	5.69569	39.86983	32.5468	54.51589	23.59643	0
918	-31.73313	32.5468	63.46626	-2.44101	-48.00653	46.37919	76.48498	5.69569	37.42882	27.66478	49.63387	18.71441	0
919	-24.4101	37.42882	61.02525	-7.32303	-43.12451	48.8202	74.04397	0.81367	32.5468	17.90074	42.31084	13.83239	0
920	-21.96909	39.86983	61.02525	-9.76404	-40.6835	48.8202	69.16195	-8.95037	22.78276	10.57771	32.5468	6.50936	0
921	-29.29212	25.22377	53.70222	0.81367	-40.6835	39.05616	61.83892	-21.15542	13.01872	0.81367	22.78276	-0.81367	0
922	-39.05616	13.01872	51.26121	13.01872	-45.56552	31.73313	56.9569	-26.03744	5.69569	-2.44101	17.90074	-6.50936	0
923	-43.93818	5.69569	48.8202	17.90074	-45.56552	26.85111	49.63387	-26.03744	0.81367	-7.32303	13.01872	-8.95037	0
924	-53.70222	2.44101	56.14323	25.22377	-55.32956	29.29212	43.93818	-26.03744	-1.62734	-9.76404	8.1367	-11.39138	0
925	-63.46626	2.44101	65.90727	30.10579	-65.0936	34.17414	43.93818	-26.03744	-1.62734	-14.64606	5.69569	-13.83239	0
926	-65.90727	8.1367	73.2303	27.66478	-69.97562	39.05616	47.19286	-21.15542	3.25468	-14.64606	5.69569	-16.2734	0
927	-56.14323	17.90074	73.2303	17.90074	-65.0936	43.93818	54.51589	-13.83239	8.1367	-7.32303	8.1367	-13.83239	0
928	-51.26121	27.66478	78.11232	10.57771	-65.0936	51.26121	54.51589	-11.39138	5.69569	-7.32303	5.69569	-13.83239	0
929	-39.05616	32.5468	70.78929	3.25468	-55.32956	51.26121	59.39791	-11.39138	3.25468	-2.44101	5.69569	-13.83239	0
930	-34.17414	34.98781	68.34828	-2.44101	-50.44754	51.26121	66.72094	-8.95037	-1.62734	5.69569	10.57771	-6.50936	0
931	-34.17414	37.42882	70.78929	-2.44101	-52.88855	53.70222	66.72094	-8.95037	-4.06835	8.1367	13.01872	-3.25468	0
932	-34.17414	37.42882	70.78929	-2.44101	-52.88855	53.70222	66.72094	-11.39138	-8.95037	8.1367	17.90074	-0.81367	0
933	-41.49717	37.42882	78.11232	0.81367	-60.21158	56.14323	66.72094	-11.39138	-11.39138	8.1367	20.34175	4.06835	0
934	-48.8202	39.86983	87.87636	3.25468	-67.53461	63.46626	66.72094	-11.39138	-11.39138	5.69569	22.78276	6.50936	0
935	-41.49717	44.75185	85.43535	-2.44101	-62.65259	63.46626	66.72094	-13.83239	-8.95037	-2.44101	20.34175	4.06835	0
936	-39.05616	44.75185	82.99434	-2.44101	-60.21158	63.46626	66.72094	-13.83239	-8.95037	-7.32303	15.45973	-0.81367	0
937	-29.29212	42.31084	70.78929	-7.32303	-50.44754	56.14323	64.27993	-18.71441	-11.39138	-14.64606	8.1367	-6.50936	0
938	-29.29212	30.10579	58.58424	-2.44101	-43.12451	43.93818	64.27993	-21.15542	-16.2734	-14.64606	5.69569	-8.95037	0
939	-31.73313	15.45973	46.37919	8.1367	-38.24249	29.29212	64.27993	-26.03744	-23.59643	-14.64606	-1.62734	-13.83239	0
940	-29.29212	5.69569	34.17414	10.57771	-30.91946	19.52808	64.27993	-33.36047	-35.80148	-21.96909	-9.76404	-28.47845	0
941	-31.73313	2.44101	34.17414	13.01872	-33.36047	17.08707	64.27993	-33.36047	-43.12451	-26.85111	-17.08707	-35.80148	0
942	-41.49717	2.44101	43.93818	17.90074	-43.12451	21.96909	61.83892	-33.36047	-50.44754	-29.29212	-21.96909	-43.12451	0
943	-56.14323	0	56.14323	27.66478	-57.77057	26.85111	59.39791	-30.91946	-55.32956	-34.17414	-24.4101	-48.00653	0
944	-61.02525	2.44101	63.46626	27.66478	-62.65259	31.73313	61.83892	-26.03744	-52.88855	-36.61515	-26.85111	-48.00653	0
945	-61.02525	15.45973	75.67131	22.78276	-67.53461	43.93818	69.16195	-18.71441	-48.00653	-36.61515	-26.85111	-48.00653	0
946	-63.46626	25.22377	87.87636	17.90074	-74.85764	56.14323	71.60296	-11.39138	-35.80148	-29.29212	-19.52808	-40.6835	0
947	-65.90727	20.34175	85.43535	22.78276	-74.85764	51.26121	74.04397	-11.39138	-33.36047	-24.4101	-12.20505	-33.36047	0
948	-68.34828	15.45973	82.99434	25.22377	-74.85764	48.8202	78.92599	-8.95037	-30.91946	-17.08707	-4.88202	-23.59643	0
949	-68.34828	10.57771	78.11232	27.66478	-72.41663	43.93818	78.92599	-11.39138	-33.36047	-14.64606	-1.62734	-18.71441	0
950	-63.46626	5.69569	68.34828	27.66478	-65.0936	36.61515	83.80801	-11.39138	-35.80148	-9.76404	0.81367	-13.83239	0
951	-61.02525	2.44101	63.46626	27.66478	-62.65259	31.73313	81.367	-13.83239	-38.24249	-9.76404	0.81367	-13.83239	0
952	-61.02525	-2.44101	58.58424	30.10579	-60.21158	26.85111	76.48498	-18.71441	-48.00653	-17.08707	-4.88202	-18.71441	0
953	-61.02525	0	61.02525	30.10579	-62.65259	29.29212	71.60296	-23.59643	-52.88855	-21.96909	-9.76404	-23.59643	0
954	-58.58424	2.44101	61.02525	27.66478	-60.21158	31.73313	69.16195	-26.03744	-52.88855	-26.85111	-17.08707	-28.47845	0
955	-61.02525	5.69569	65.90727	27.66478	-62.65259	34.17414	64.27993	-30.91946	-55.32956	-34.17414	-26.85111	-33.36047	0
956	-61.02525	10.57771	70.78929	25.22377	-65.0936	39.05616	59.39791	-35.80148	-55.32956	-39.05616	-34.17414	-35.80148	0
957	-63.46626	15.45973	78.11232	22.78276	-69.97562	46.37919	59.39791	-40.6835	-52.88855	-43.93818	-41.49717	-38.24249	0
958	-56.14323	20.34175	75.67131	17.90074	-65.0936	46.37919	59.39791	-45.56552	-55.32956	-43.93818	-43.93818	-40.6835	0
959	-48.8202	27.66478	75.67131	10.57771	-62.65259	51.26121	56.9569	-48.00653	-57.77057	-43.93818	-46.37919	-40.6835	0
960	-53.70222	30.10579	82.99434	10.57771	-67.53461	56.14323	59.39791	-52.88855	-57.77057	-43.93818	-43.93818	-38.24249	0
961	-56.14323	25.22377	80.55333	15.45973	-67.53461	51.26121	59.39791	-57.77057	-62.65259	-41.49717	-43.93818	-35.80148	0
962	-58.58424	20.34175	78.11232	17.90074	-67.53461	48.8202	59.39791	-60.21158	-67.53461	-39.05616	-39.05616	-33.36047	0
963	-53.70222	15.45973	68.34828	17.90074	-60.21158	41.49717	56.9569	-65.0936	-72.41663	-36.61515	-39.05616	-33.36047	0
964	-65.90727	2.44101	68.34828	30.10579	-67.53461	34.17414	56.9569	-65.0936	-72.41663	-34.17414	-36.61515	-30.91946	0
965	-78.11232	-7.32303	70.78929	42.31084	-74.85764	31.73313	59.39791	-65.0936	-69.97562	-31.73313	-34.17414	-28.47845	0
966	-78.11232	-14.64606	63.46626	44.75185	-72.41663	24.4101	59.39791	-65.0936	-67.53461	-29.29212	-34.17414	-26.03744	0
967	-73.2303	-17.08707	56.14323	44.75185	-65.0936	19.52808	59.39791	-65.0936	-65.0936	-26.85111	-31.73313	-23.59643	0
968	-65.90727	-9.76404	56.14323	37.42882	-62.65259	21.96909	61.83892	-67.53461	-65.0936	-24.4101	-31.73313	-23.59643	0
969	-58.58424	-7.32303	51.26121	32.5468	-55.32956	21.96909	56.9569	-74.85764	-69.97562	-29.29212	-36.61515	-28.47845	0
970	-51.26121	2.44101	53.70222	22.78276	-52.88855	26.85111	54.51589	-82.18067	-74.85764	-31.73313	-41.49717	-33.36047	0
971	-46.37919	0	46.37919	22.78276	-48.00653	21.96909	43.93818	-91.94471	-87.06269	-39.05616	-51.26121	-40.6835	0
972	-46.37919	-2.44101	43.93818	22.78276	-45.56552	19.52808	39.05616	-101.70875	-99.26774	-43.93818	-61.02525	-50.44754	0
973	-51.26121	0	51.26121	25.22377	-52.88855	24.4101	34.17414	-109.03178	-104.14976	-51.26121	-65.90727	-55.32956	0
974	-56.14323	2.44101	58.58424	25.22377	-57.77057	29.29212	34.17414	-109.03178	-106.59077	-53.70222	-70.78929	-60.21158	0
975	-68.34828	-2.44101	65.90727	34.98781	-67.53461	31.73313	34.17414	-109.03178	-106.59077	-53.70222	-73.2303	-60.21158	0
976	-78.11232	-4.88202	73.2303	39.86983	-77.29865	34.17414	31.73313	-109.03178	-104.14976	-53.70222	-73.2303	-60.21158	0
977	-90.31737	-2.44101	87.87636	44.75185	-89.5037	41.49717	36.61515	-106.59077	-99.26774	-48.8202	-68.34828	-55.32956	0
978	-100.08141	-2.44101	97.6404	49.63387	-99.26774	46.37919	43.93818	-104.14976	-96.82673	-43.93818	-63.46626	-50.44754	0
979	-102.52242	-4.88202	97.6404	52.07488	-101.70875	46.37919	43.93818	-101.70875	-94.38572	-39.05616	-58.58424	-48.00653	0
980	-100.08141	-14.64606	85.43535	56.9569	-94.38572	34.17414	43.93818	-106.59077	-99.26774	-39.05616	-56.14323	-48.00653	0
