samplenr	I	II	III	aVR	aVL	aVF	V1	V2	V3	V4	V5	V6	measurement
0	0	-2.44101	-2.44101	0	1.62734	-2.44101	-1.62734	-6.50936	-1.62734	-2.44101	-4.88202	-1.62734	0
1	4.06835	-9.76404	-11.39138	0.81367	7.32303	-9.76404	-8.1367	-28.47845	-6.50936	-12.20505	-21.15542	-6.50936	0
2	8.1367	-18.71441	-25.22377	0	11.39138	-13.83239	-15.45973	-56.9569	-13.83239	-25.22377	-42.31084	-12.20505	0
3	7.32303	-21.15542	-38.24249	0	8.1367	-12.20505	-19.52808	-81.367	-17.08707	-37.42882	-57.77057	-17.90074	0
4	3.25468	-19.52808	-40.6835	2.44101	4.06835	-9.76404	-20.34175	-94.38572	-16.2734	-45.56552	-67.53461	-22.78276	0
5	0	-17.90074	-34.17414	4.88202	1.62734	-9.76404	-21.96909	-100.08141	-14.64606	-48.00653	-74.04397	-26.03744	0
6	-4.06835	-17.90074	-23.59643	8.95037	0	-10.57771	-21.96909	-102.52242	-13.83239	-46.37919	-77.29865	-28.47845	0
7	-10.57771	-21.15542	-13.01872	14.64606	-2.44101	-9.76404	-21.96909	-101.70875	-12.20505	-41.49717	-77.29865	-30.10579	0
8	-14.64606	-22.78276	-8.95037	18.71441	-3.25468	-9.76404	-24.4101	-101.70875	-12.20505	-34.17414	-78.11232	-29.29212	0
9	-17.08707	-21.96909	-5.69569	20.34175	-4.88202	-8.95037	-26.85111	-104.14976	-15.45973	-30.10579	-77.29865	-26.85111	0
10	-22.78276	-20.34175	0.81367	21.96909	-11.39138	-5.69569	-28.47845	-108.21811	-17.90074	-29.29212	-74.04397	-25.22377	0
11	-25.22377	-16.2734	8.1367	20.34175	-17.08707	-4.06835	-28.47845	-110.65912	-19.52808	-31.73313	-70.78929	-24.4101	0
12	-21.96909	-13.01872	9.76404	17.08707	-17.08707	-6.50936	-30.10579	-113.10013	-20.34175	-35.80148	-68.34828	-24.4101	0
13	-19.52808	-13.83239	8.95037	15.45973	-17.08707	-9.76404	-33.36047	-117.98215	-23.59643	-40.6835	-65.0936	-22.78276	0
14	-16.2734	-16.2734	4.06835	14.64606	-12.20505	-12.20505	-38.24249	-122.86417	-27.66478	-42.31084	-63.46626	-21.15542	0
15	-8.95037	-18.71441	-4.88202	12.20505	-3.25468	-16.2734	-42.31084	-126.93252	-31.73313	-43.93818	-65.0936	-21.96909	0
16	-4.88202	-20.34175	-10.57771	11.39138	2.44101	-17.08707	-44.75185	-126.93252	-31.73313	-44.75185	-65.90727	-23.59643	0
17	-5.69569	-21.96909	-9.76404	13.01872	2.44101	-13.83239	-44.75185	-123.67784	-28.47845	-41.49717	-65.90727	-27.66478	0
18	-8.1367	-21.15542	-8.95037	14.64606	0.81367	-10.57771	-41.49717	-117.98215	-23.59643	-35.80148	-66.72094	-31.73313	0
19	-7.32303	-16.2734	-8.95037	12.20505	0.81367	-7.32303	-38.24249	-112.28646	-17.08707	-30.91946	-65.0936	-32.5468	0
20	-1.62734	-8.1367	-8.1367	4.88202	2.44101	-3.25468	-34.98781	-108.21811	-13.83239	-28.47845	-61.02525	-28.47845	0
21	-4.06835	-2.44101	-8.1367	2.44101	5.69569	-3.25468	-31.73313	-105.7771	-13.83239	-27.66478	-56.14323	-21.96909	0
22	-20.34175	-3.25468	-8.1367	11.39138	8.1367	-7.32303	-32.5468	-106.59077	-16.2734	-29.29212	-51.26121	-15.45973	0
23	-34.98781	-9.76404	-4.88202	21.15542	4.06835	-13.01872	-35.80148	-109.03178	-21.96909	-34.98781	-47.19286	-14.64606	0
24	-39.86983	-17.08707	-0.81367	26.85111	-2.44101	-15.45973	-39.86983	-109.03178	-26.85111	-38.24249	-44.75185	-15.45973	0
25	-39.05616	-22.78276	0.81367	29.29212	-8.95037	-16.2734	-41.49717	-106.59077	-28.47845	-38.24249	-44.75185	-16.2734	0
26	-26.85111	-27.66478	-5.69569	26.03744	-4.06835	-19.52808	-43.12451	-105.7771	-26.85111	-35.80148	-45.56552	-16.2734	0
27	-0.81367	-30.91946	-21.15542	15.45973	7.32303	-28.47845	-43.12451	-106.59077	-25.22377	-35.80148	-46.37919	-17.08707	0
28	23.59643	-28.47845	-28.47845	2.44101	10.57771	-35.80148	-42.31084	-105.7771	-21.96909	-39.86983	-43.93818	-15.45973	0
29	36.61515	-24.4101	-31.73313	-5.69569	11.39138	-36.61515	-41.49717	-104.96343	-18.71441	-44.75185	-43.93818	-13.83239	0
30	35.80148	-21.96909	-34.17414	-6.50936	14.64606	-35.80148	-43.12451	-105.7771	-18.71441	-44.75185	-47.19286	-14.64606	0
31	28.47845	-21.96909	-34.98781	-4.06835	17.90074	-30.10579	-44.75185	-104.96343	-20.34175	-40.6835	-48.8202	-14.64606	0
32	22.78276	-21.96909	-32.5468	-2.44101	18.71441	-21.96909	-46.37919	-104.14976	-20.34175	-34.98781	-47.19286	-13.01872	0
33	15.45973	-20.34175	-25.22377	-0.81367	15.45973	-18.71441	-48.00653	-100.89508	-21.15542	-30.91946	-42.31084	-13.01872	0
34	8.1367	-19.52808	-19.52808	1.62734	12.20505	-19.52808	-48.00653	-96.01306	-21.96909	-28.47845	-39.86983	-13.01872	0
35	4.06835	-19.52808	-18.71441	4.88202	11.39138	-20.34175	-45.56552	-91.13104	-21.15542	-26.03744	-38.24249	-12.20505	0
36	0	-18.71441	-16.2734	8.95037	8.95037	-20.34175	-42.31084	-89.5037	-19.52808	-23.59643	-38.24249	-12.20505	0
37	-6.50936	-17.90074	-7.32303	14.64606	4.88202	-18.71441	-39.86983	-87.87636	-17.08707	-19.52808	-39.86983	-12.20505	0
38	-11.39138	-19.52808	2.44101	20.34175	2.44101	-18.71441	-39.05616	-88.69003	-16.2734	-14.64606	-43.12451	-10.57771	0
39	-11.39138	-21.96909	4.88202	21.15542	3.25468	-19.52808	-38.24249	-91.13104	-18.71441	-10.57771	-44.75185	-9.76404	0
40	-9.76404	-23.59643	-0.81367	18.71441	4.88202	-20.34175	-38.24249	-94.38572	-21.96909	-12.20505	-44.75185	-8.95037	0
41	-3.25468	-21.96909	-8.95037	13.83239	8.1367	-19.52808	-37.42882	-96.01306	-24.4101	-16.2734	-45.56552	-7.32303	0
42	4.06835	-17.90074	-17.08707	5.69569	12.20505	-18.71441	-33.36047	-93.57205	-26.85111	-18.71441	-46.37919	-6.50936	0
43	9.76404	-13.83239	-18.71441	0	13.01872	-18.71441	-28.47845	-87.06269	-27.66478	-17.90074	-43.12451	-7.32303	0
44	6.50936	-14.64606	-16.2734	1.62734	9.76404	-19.52808	-26.03744	-80.55333	-24.4101	-15.45973	-39.05616	-9.76404	0
45	-2.44101	-20.34175	-13.83239	9.76404	3.25468	-21.15542	-25.22377	-76.48498	-18.71441	-14.64606	-36.61515	-9.76404	0
46	-13.83239	-28.47845	-11.39138	19.52808	-1.62734	-21.96909	-28.47845	-74.04397	-15.45973	-14.64606	-33.36047	-9.76404	0
47	-20.34175	-34.98781	-9.76404	26.85111	-4.88202	-19.52808	-34.17414	-74.85764	-14.64606	-13.01872	-32.5468	-12.20505	0
48	-16.2734	-36.61515	-17.08707	26.03744	0	-16.2734	-39.86983	-75.67131	-17.08707	-10.57771	-34.98781	-13.83239	0
49	-11.39138	-34.98781	-24.4101	23.59643	5.69569	-15.45973	-42.31084	-77.29865	-21.96909	-9.76404	-37.42882	-15.45973	0
50	-12.20505	-35.80148	-25.22377	24.4101	5.69569	-18.71441	-41.49717	-78.92599	-25.22377	-10.57771	-37.42882	-15.45973	0
51	-13.01872	-39.86983	-26.03744	24.4101	4.88202	-25.22377	-39.86983	-78.92599	-26.03744	-13.01872	-36.61515	-13.01872	0
52	-8.1367	-44.75185	-29.29212	21.15542	8.1367	-34.17414	-37.42882	-76.48498	-27.66478	-13.83239	-34.17414	-11.39138	0
53	-1.62734	-48.00653	-32.5468	17.90074	13.01872	-39.86983	-33.36047	-69.97562	-28.47845	-12.20505	-30.91946	-13.01872	0
54	3.25468	-45.56552	-35.80148	14.64606	17.90074	-42.31084	-30.10579	-65.90727	-24.4101	-10.57771	-28.47845	-15.45973	0
55	9.76404	-39.86983	-40.6835	10.57771	24.4101	-42.31084	-26.85111	-63.46626	-17.08707	-10.57771	-26.85111	-14.64606	0
56	10.57771	-34.98781	-39.86983	4.88202	25.22377	-39.05616	-22.78276	-60.21158	-12.20505	-8.95037	-25.22377	-13.83239	0
57	2.44101	-32.5468	-31.73313	0	18.71441	-31.73313	-19.52808	-56.9569	-8.1367	-8.95037	-22.78276	-13.01872	0
58	-8.1367	-30.91946	-23.59643	0.81367	8.1367	-22.78276	-16.2734	-55.32956	-7.32303	-11.39138	-18.71441	-12.20505	0
59	-13.83239	-29.29212	-18.71441	6.50936	1.62734	-16.2734	-16.2734	-57.77057	-10.57771	-12.20505	-17.08707	-10.57771	0
60	-10.57771	-25.22377	-17.90074	7.32303	3.25468	-14.64606	-19.52808	-61.83892	-15.45973	-12.20505	-20.34175	-10.57771	0
61	0	-21.15542	-22.78276	4.06835	9.76404	-17.90074	-20.34175	-61.83892	-17.08707	-12.20505	-24.4101	-10.57771	0
62	9.76404	-21.15542	-26.03744	0	16.2734	-26.03744	-18.71441	-60.21158	-17.08707	-13.01872	-26.85111	-10.57771	0
63	10.57771	-23.59643	-24.4101	0.81367	15.45973	-32.5468	-15.45973	-57.77057	-17.08707	-14.64606	-27.66478	-8.95037	0
64	3.25468	-27.66478	-20.34175	8.1367	9.76404	-34.98781	-13.01872	-55.32956	-17.90074	-13.83239	-28.47845	-8.1367	0
65	-2.44101	-32.5468	-21.15542	14.64606	8.1367	-35.80148	-13.01872	-52.88855	-17.08707	-13.01872	-31.73313	-10.57771	0
66	-5.69569	-34.98781	-23.59643	19.52808	8.95037	-35.80148	-16.2734	-51.26121	-16.2734	-13.01872	-34.98781	-15.45973	0
67	-7.32303	-33.36047	-25.22377	22.78276	9.76404	-33.36047	-22.78276	-50.44754	-15.45973	-12.20505	-39.86983	-21.96909	0
68	-4.88202	-30.91946	-29.29212	21.96909	12.20505	-30.91946	-30.10579	-50.44754	-13.83239	-8.95037	-44.75185	-27.66478	0
69	-2.44101	-26.85111	-31.73313	18.71441	14.64606	-28.47845	-33.36047	-49.63387	-10.57771	-7.32303	-45.56552	-30.10579	0
70	-5.69569	-25.22377	-25.22377	17.08707	8.95037	-22.78276	-33.36047	-49.63387	-10.57771	-8.1367	-43.93818	-26.85111	0
71	-9.76404	-23.59643	-17.08707	17.08707	2.44101	-20.34175	-30.91946	-48.8202	-12.20505	-9.76404	-40.6835	-21.15542	0
72	-7.32303	-21.15542	-14.64606	13.01872	0.81367	-22.78276	-26.03744	-48.00653	-14.64606	-13.83239	-36.61515	-15.45973	0
73	-3.25468	-20.34175	-14.64606	9.76404	3.25468	-27.66478	-20.34175	-46.37919	-14.64606	-17.08707	-32.5468	-12.20505	0
74	0.81367	-20.34175	-17.08707	7.32303	8.1367	-30.10579	-17.08707	-40.6835	-10.57771	-19.52808	-29.29212	-12.20505	0
75	4.88202	-19.52808	-21.15542	4.88202	12.20505	-28.47845	-15.45973	-34.17414	-6.50936	-16.2734	-27.66478	-11.39138	0
76	2.44101	-18.71441	-18.71441	6.50936	10.57771	-24.4101	-13.83239	-29.29212	-3.25468	-10.57771	-26.03744	-10.57771	0
77	-2.44101	-19.52808	-8.1367	12.20505	7.32303	-20.34175	-14.64606	-27.66478	-3.25468	-7.32303	-23.59643	-10.57771	0
78	-5.69569	-23.59643	4.06835	17.08707	7.32303	-21.15542	-17.90074	-27.66478	-3.25468	-7.32303	-21.96909	-10.57771	0
79	-7.32303	-27.66478	8.1367	20.34175	8.1367	-23.59643	-20.34175	-27.66478	-2.44101	-7.32303	-21.96909	-10.57771	0
80	-12.20505	-32.5468	3.25468	24.4101	4.88202	-25.22377	-20.34175	-28.47845	-4.06835	-6.50936	-25.22377	-9.76404	0
81	-13.83239	-39.05616	-4.88202	34.17414	3.25468	-25.22377	-17.08707	-28.47845	-5.69569	-6.50936	-27.66478	-10.57771	0
82	-10.57771	-47.19286	-12.20505	50.44754	3.25468	-25.22377	-13.83239	-27.66478	-8.1367	-7.32303	-29.29212	-13.01872	0
83	-8.95037	-48.8202	-13.01872	56.9569	1.62734	-24.4101	-13.01872	-27.66478	-10.57771	-8.95037	-26.85111	-13.83239	0
84	-4.88202	-39.86983	-13.83239	45.56552	3.25468	-23.59643	-12.20505	-26.85111	-11.39138	-8.95037	-24.4101	-9.76404	0
85	2.44101	-30.10579	-19.52808	27.66478	8.95037	-23.59643	-12.20505	-23.59643	-10.57771	-6.50936	-23.59643	-4.88202	0
86	4.88202	-26.03744	-23.59643	16.2734	13.83239	-24.4101	-12.20505	-20.34175	-8.95037	-4.06835	-25.22377	-2.44101	0
87	4.06835	-26.03744	-24.4101	12.20505	14.64606	-21.96909	-13.83239	-17.08707	-5.69569	-4.06835	-24.4101	-2.44101	0
88	3.25468	-25.22377	-26.85111	9.76404	15.45973	-17.90074	-17.08707	-16.2734	-4.88202	-7.32303	-21.15542	-3.25468	0
89	5.69569	-23.59643	-30.91946	7.32303	18.71441	-17.08707	-19.52808	-19.52808	-8.1367	-10.57771	-21.15542	-4.88202	0
90	10.57771	-21.96909	-35.80148	3.25468	23.59643	-20.34175	-21.15542	-24.4101	-13.83239	-14.64606	-27.66478	-9.76404	0
91	18.71441	-21.96909	-43.12451	0	30.10579	-26.03744	-21.96909	-26.85111	-17.90074	-19.52808	-37.42882	-14.64606	0
92	25.22377	-20.34175	-54.51589	-4.06835	34.98781	-31.73313	-21.15542	-25.22377	-19.52808	-23.59643	-45.56552	-17.08707	0
93	22.78276	-21.15542	-65.90727	-3.25468	31.73313	-36.61515	-20.34175	-21.96909	-18.71441	-26.85111	-48.8202	-17.90074	0
94	14.64606	-25.22377	-66.72094	2.44101	25.22377	-40.6835	-18.71441	-17.90074	-17.08707	-27.66478	-49.63387	-20.34175	0
95	7.32303	-29.29212	-59.39791	8.95037	20.34175	-41.49717	-18.71441	-13.83239	-15.45973	-25.22377	-49.63387	-21.96909	0
96	0	-32.5468	-47.19286	15.45973	15.45973	-39.05616	-19.52808	-9.76404	-12.20505	-21.96909	-49.63387	-24.4101	0
97	-8.1367	-34.17414	-33.36047	22.78276	8.95037	-31.73313	-18.71441	-6.50936	-8.1367	-16.2734	-48.8202	-25.22377	0
98	-15.45973	-34.98781	-26.03744	28.47845	4.88202	-24.4101	-17.08707	-3.25468	-4.06835	-9.76404	-49.63387	-24.4101	0
99	-17.90074	-35.80148	-22.78276	30.10579	2.44101	-20.34175	-15.45973	0	0	-5.69569	-49.63387	-21.96909	0
100	-17.90074	-34.98781	-20.34175	28.47845	0.81367	-19.52808	-13.01872	0.81367	2.44101	-4.88202	-48.00653	-20.34175	1000	P+0
101	-13.83239	-32.5468	-19.52808	22.78276	2.44101	-22.78276	-10.57771	2.44101	2.44101	-6.50936	-45.56552	-17.90074	0
102	-6.50936	-27.66478	-21.15542	15.45973	5.69569	-26.03744	-6.50936	7.32303	0.81367	-5.69569	-43.12451	-14.64606	0
103	-2.44101	-24.4101	-19.52808	10.57771	6.50936	-26.85111	-0.81367	15.45973	2.44101	-2.44101	-39.05616	-13.83239	0
104	-3.25468	-24.4101	-16.2734	11.39138	4.88202	-25.22377	3.25468	21.96909	7.32303	0.81367	-35.80148	-14.64606	0
105	-8.95037	-25.22377	-12.20505	14.64606	0.81367	-22.78276	5.69569	26.03744	13.83239	3.25468	-33.36047	-13.83239	0
106	-8.1367	-27.66478	-13.83239	15.45973	2.44101	-21.96909	5.69569	28.47845	17.08707	5.69569	-30.91946	-13.01872	0
107	-1.62734	-30.10579	-21.15542	5.69569	10.57771	-23.59643	2.44101	25.22377	16.2734	4.06835	-30.10579	-14.64606	0
108	-6.50936	-30.10579	-21.96909	-4.88202	8.1367	-23.59643	-3.25468	18.71441	9.76404	0	-29.29212	-16.2734	0
109	-13.01872	-28.47845	-20.34175	-8.95037	3.25468	-22.78276	-10.57771	12.20505	1.62734	-4.88202	-30.91946	-17.90074	0
110	-12.20505	-26.85111	-21.15542	-4.88202	4.06835	-22.78276	-13.83239	8.1367	-4.06835	-8.1367	-34.98781	-17.90074	0
111	-8.95037	-28.47845	-21.96909	0.81367	5.69569	-21.96909	-12.20505	7.32303	-6.50936	-9.76404	-37.42882	-15.45973	0
112	-3.25468	-29.29212	-28.47845	3.25468	8.1367	-17.90074	-8.1367	13.01872	-4.88202	-7.32303	-37.42882	-13.83239	0
113	-0.81367	-29.29212	-34.98781	5.69569	7.32303	-13.01872	-4.88202	23.59643	0	-1.62734	-34.17414	-14.64606	0
114	-4.06835	-26.85111	-33.36047	8.95037	3.25468	-10.57771	0	32.5468	9.76404	3.25468	-30.10579	-16.2734	0
115	-7.32303	-21.15542	-22.78276	10.57771	-0.81367	-7.32303	6.50936	39.05616	19.52808	8.95037	-26.03744	-13.83239	0
116	-9.76404	-11.39138	-8.1367	4.88202	-5.69569	-1.62734	13.83239	44.75185	27.66478	15.45973	-20.34175	-9.76404	0
117	-13.01872	-1.62734	6.50936	-6.50936	-11.39138	6.50936	18.71441	48.8202	33.36047	19.52808	-16.2734	-5.69569	0
118	-13.01872	6.50936	14.64606	-15.45973	-13.83239	16.2734	19.52808	49.63387	35.80148	19.52808	-16.2734	-0.81367	0
119	-8.95037	13.01872	17.08707	-17.08707	-12.20505	21.15542	19.52808	46.37919	31.73313	17.90074	-17.90074	1.62734	0
120	-8.1367	18.71441	18.71441	-13.01872	-13.01872	21.15542	20.34175	40.6835	25.22377	15.45973	-19.52808	0	0
121	-9.76404	27.66478	20.34175	-3.25468	-15.45973	22.78276	24.4101	39.05616	21.96909	14.64606	-20.34175	-2.44101	0
122	-5.69569	37.42882	22.78276	3.25468	-14.64606	26.03744	30.91946	45.56552	23.59643	18.71441	-19.52808	-4.06835	0
123	0	44.75185	30.10579	0	-15.45973	27.66478	38.24249	56.9569	31.73313	26.85111	-17.90074	-2.44101	0
124	3.25468	46.37919	35.80148	-6.50936	-17.08707	27.66478	44.75185	68.34828	42.31084	33.36047	-15.45973	0.81367	0
125	3.25468	43.12451	37.42882	-12.20505	-17.08707	28.47845	50.44754	76.48498	50.44754	37.42882	-11.39138	4.88202	0
126	-1.62734	37.42882	41.49717	-13.01872	-21.96909	32.5468	56.14323	81.367	54.51589	41.49717	-6.50936	7.32303	0
127	-6.50936	34.17414	46.37919	-12.20505	-26.03744	38.24249	60.21158	82.99434	56.9569	45.56552	-2.44101	8.1367	0
128	-4.88202	35.80148	45.56552	-16.2734	-24.4101	43.12451	61.02525	80.55333	54.51589	48.8202	-2.44101	8.1367	0
129	-4.88202	39.86983	46.37919	-18.71441	-25.22377	47.19286	60.21158	74.04397	49.63387	49.63387	-2.44101	8.95037	0
130	-11.39138	44.75185	56.14323	-17.90074	-34.17414	54.51589	60.21158	69.97562	44.75185	48.8202	-1.62734	12.20505	0
131	-21.15542	49.63387	70.78929	-16.2734	-46.37919	59.39791	57.77057	65.0936	40.6835	43.12451	-2.44101	12.20505	0
132	-28.47845	55.32956	82.99434	-15.45973	-56.9569	58.58424	46.37919	57.77057	33.36047	32.5468	-10.57771	8.95037	0
133	-20.34175	61.83892	84.62168	-23.59643	-53.70222	55.32956	30.10579	47.19286	24.4101	20.34175	-21.15542	8.1367	0
134	0.81367	70.78929	72.41663	-39.05616	-35.80148	53.70222	13.83239	38.24249	17.08707	13.01872	-27.66478	8.1367	0
135	25.22377	79.73966	56.9569	-54.51589	-15.45973	55.32956	0	34.17414	14.64606	11.39138	-28.47845	6.50936	0
136	39.86983	86.24902	41.49717	-64.27993	-4.88202	58.58424	-9.76404	32.5468	16.2734	14.64606	-25.22377	9.76404	0
137	42.31084	89.5037	28.47845	-66.72094	-4.06835	63.46626	-16.2734	34.17414	21.15542	22.78276	-15.45973	17.08707	0
138	39.05616	93.57205	25.22377	-66.72094	-7.32303	69.16195	-19.52808	37.42882	29.29212	32.5468	-3.25468	26.85111	0
139	30.91946	96.82673	39.05616	-64.27993	-17.08707	78.11232	-19.52808	40.6835	35.80148	37.42882	6.50936	34.98781	0
140	18.71441	99.26774	61.83892	-59.39791	-30.10579	87.87636	-17.08707	41.49717	39.05616	39.05616	12.20505	41.49717	0
141	1.62734	100.08141	78.92599	-52.07488	-38.24249	93.57205	-16.2734	40.6835	37.42882	39.86983	13.83239	44.75185	0
142	-16.2734	97.6404	83.80801	-42.31084	-36.61515	91.13104	-20.34175	34.17414	30.91946	35.80148	14.64606	45.56552	0
143	-21.96909	93.57205	82.99434	-39.05616	-31.73313	86.24902	-30.10579	21.15542	19.52808	28.47845	14.64606	45.56552	0
144	-6.50936	93.57205	76.48498	-46.37919	-23.59643	82.99434	-38.24249	8.95037	8.1367	25.22377	12.20505	43.93818	0
145	14.64606	96.82673	67.53461	-58.58424	-13.83239	80.55333	-43.12451	4.06835	3.25468	26.03744	9.76404	40.6835	0
146	30.91946	100.08141	56.14323	-71.60296	-8.95037	77.29865	-44.75185	4.06835	4.88202	27.66478	9.76404	39.05616	0
147	34.98781	100.08141	44.75185	-82.99434	-8.95037	72.41663	-43.93818	8.95037	11.39138	32.5468	10.57771	37.42882	0
148	33.36047	96.82673	43.93818	-83.80801	-10.57771	66.72094	-39.86983	14.64606	20.34175	39.86983	9.76404	39.05616	0
149	33.36047	88.69003	44.75185	-76.48498	-8.1367	61.02525	-35.80148	20.34175	29.29212	43.12451	8.95037	41.49717	0
150	36.61515	81.367	39.86983	-69.16195	-1.62734	55.32956	-32.5468	26.03744	33.36047	42.31084	9.76404	42.31084	0
151	43.93818	71.60296	29.29212	-65.90727	6.50936	48.8202	-28.47845	30.91946	34.17414	37.42882	8.95037	40.6835	0
152	51.26121	58.58424	17.90074	-64.27993	16.2734	43.12451	-25.22377	32.5468	30.10579	29.29212	2.44101	34.17414	0
153	52.07488	46.37919	9.76404	-58.58424	20.34175	35.80148	-25.22377	30.10579	22.78276	18.71441	-7.32303	22.78276	0
154	48.8202	37.42882	3.25468	-51.26121	22.78276	27.66478	-26.85111	26.03744	13.01872	12.20505	-18.71441	12.20505	0
155	48.00653	30.10579	-4.06835	-45.56552	26.85111	18.71441	-28.47845	24.4101	6.50936	8.1367	-24.4101	4.88202	0
156	51.26121	21.96909	-13.01872	-43.93818	32.5468	12.20505	-27.66478	25.22377	6.50936	6.50936	-25.22377	0.81367	0
157	52.88855	14.64606	-20.34175	-41.49717	38.24249	5.69569	-21.96909	28.47845	11.39138	6.50936	-24.4101	-0.81367	0
158	38.24249	5.69569	-19.52808	-27.66478	30.10579	0.81367	-15.45973	32.5468	18.71441	4.06835	-26.03744	-0.81367	0
159	9.76404	-4.06835	-8.1367	-6.50936	9.76404	-3.25468	-11.39138	34.17414	21.96909	0.81367	-29.29212	-0.81367	0
160	-13.01872	-13.83239	0	11.39138	-6.50936	-6.50936	-12.20505	30.91946	19.52808	-1.62734	-33.36047	-2.44101	0
161	-28.47845	-21.15542	4.06835	18.71441	-17.08707	-8.1367	-16.2734	26.03744	11.39138	-7.32303	-39.05616	-7.32303	0
162	-38.24249	-23.59643	5.69569	15.45973	-23.59643	-12.20505	-20.34175	21.15542	1.62734	-16.2734	-48.8202	-13.01872	0
163	-34.17414	-26.03744	0	9.76404	-17.90074	-19.52808	-21.15542	16.2734	-6.50936	-23.59643	-60.21158	-17.90074	0
164	-20.34175	-31.73313	-14.64606	8.95037	-2.44101	-29.29212	-21.96909	13.01872	-13.83239	-27.66478	-68.34828	-21.96909	0
165	-11.39138	-39.86983	-29.29212	13.83239	8.95037	-39.86983	-21.96909	12.20505	-17.90074	-29.29212	-70.78929	-26.85111	0
166	-12.20505	-49.63387	-35.80148	24.4101	12.20505	-44.75185	-21.15542	13.83239	-17.08707	-30.10579	-68.34828	-27.66478	0
167	-19.52808	-57.77057	-34.17414	35.80148	8.1367	-44.75185	-21.96909	16.2734	-13.83239	-30.10579	-65.0936	-26.85111	0
168	-26.85111	-62.65259	-32.5468	43.12451	4.06835	-43.12451	-23.59643	19.52808	-10.57771	-32.5468	-62.65259	-26.85111	0
169	-30.91946	-63.46626	-32.5468	47.19286	1.62734	-43.93818	-25.22377	21.96909	-12.20505	-31.73313	-60.21158	-26.03744	0
170	-30.10579	-65.0936	-35.80148	47.19286	2.44101	-47.19286	-25.22377	21.15542	-16.2734	-31.73313	-58.58424	-25.22377	0
171	-23.59643	-65.0936	-43.12451	43.12451	8.95037	-52.88855	-25.22377	18.71441	-19.52808	-34.98781	-60.21158	-26.85111	0
172	-8.95037	-64.27993	-55.32956	37.42882	21.96909	-61.02525	-24.4101	15.45973	-22.78276	-40.6835	-63.46626	-30.10579	0
173	6.50936	-65.90727	-65.90727	35.80148	35.80148	-65.0936	-21.96909	13.01872	-26.85111	-48.8202	-64.27993	-30.91946	0
174	6.50936	-70.78929	-65.0936	41.49717	35.80148	-64.27993	-21.15542	15.45973	-28.47845	-52.88855	-65.0936	-31.73313	0
175	-8.95037	-73.2303	-53.70222	49.63387	21.96909	-60.21158	-20.34175	21.15542	-26.85111	-50.44754	-65.90727	-33.36047	0
176	-28.47845	-71.60296	-46.37919	56.9569	15.45973	-56.14323	-19.52808	26.03744	-21.96909	-44.75185	-65.0936	-33.36047	0
177	-42.31084	-68.34828	-48.8202	61.83892	18.71441	-58.58424	-18.71441	26.85111	-17.08707	-39.86983	-64.27993	-32.5468	0
178	-43.12451	-67.53461	-46.37919	61.83892	12.20505	-65.90727	-17.90074	26.03744	-16.2734	-40.6835	-62.65259	-33.36047	0
179	-36.61515	-71.60296	-43.12451	58.58424	4.06835	-70.78929	-19.52808	22.78276	-20.34175	-41.49717	-63.46626	-37.42882	0
180	-30.10579	-76.48498	-46.37919	55.32956	4.06835	-72.41663	-22.78276	18.71441	-26.03744	-43.12451	-69.16195	-42.31084	0
181	-24.4101	-78.92599	-41.49717	50.44754	-0.81367	-69.16195	-23.59643	16.2734	-29.29212	-44.75185	-74.04397	-45.56552	0
182	-21.15542	-79.73966	-30.10579	45.56552	-18.71441	-62.65259	-20.34175	17.08707	-28.47845	-45.56552	-74.85764	-48.00653	0
183	-25.22377	-80.55333	-27.66478	46.37919	-32.5468	-58.58424	-14.64606	20.34175	-26.03744	-46.37919	-73.2303	-47.19286	0
184	-36.61515	-81.367	-30.10579	52.88855	-34.17414	-57.77057	-11.39138	25.22377	-23.59643	-45.56552	-69.97562	-43.12451	0
185	-47.19286	-83.80801	-30.91946	61.02525	-30.10579	-57.77057	-10.57771	30.10579	-20.34175	-43.93818	-69.97562	-39.86983	0
186	-54.51589	-83.80801	-30.91946	68.34828	-23.59643	-59.39791	-9.76404	34.17414	-17.90074	-42.31084	-70.78929	-37.42882	0
187	-61.83892	-82.18067	-30.10579	75.67131	-19.52808	-61.83892	-5.69569	37.42882	-16.2734	-39.86983	-71.60296	-35.80148	0
188	-65.0936	-83.80801	-34.17414	80.55333	-15.45973	-61.02525	7.32303	41.49717	-16.2734	-41.49717	-75.67131	-39.86983	0
189	-69.97562	-91.94471	-36.61515	86.24902	-14.64606	-61.02525	36.61515	46.37919	-26.03744	-59.39791	-94.38572	-59.39791	0
190	-86.24902	-98.45407	-26.03744	97.6404	-28.47845	-59.39791	88.69003	50.44754	-55.32956	-100.08141	-135.06922	-96.01306	0
191	-130.1872	-100.89508	12.20505	121.23683	-70.78929	-46.37919	158.66565	48.00653	-104.96343	-161.92033	-192.83979	-145.64693	0
192	-200.97649	-100.89508	82.99434	155.41097	-142.39225	-17.08707	233.52329	30.10579	-174.93905	-239.21898	-257.93339	-197.72181	0
193	-270.13844	-94.38572	164.36134	183.88942	-218.87723	24.4101	296.17588	-11.39138	-259.56073	-321.39965	-321.39965	-244.91467	0
194	-320.58598	-76.48498	240.03265	197.72181	-285.59817	73.2303	337.67305	-75.67131	-351.50544	-397.07096	-370.21985	-276.6478	0
195	-358.0148	-45.56552	311.63561	200.16282	-340.92773	126.11885	358.82847	-150.52895	-437.75446	-455.6552	-397.88463	-290.48019	0
196	-375.10187	-4.88202	372.66086	187.95777	-378.35655	181.44841	364.52416	-222.94558	-510.17109	-493.08402	-404.39399	-284.7845	0
197	-366.96517	42.31084	414.15803	160.29299	-393.00261	230.26861	361.26948	-283.15716	-563.05964	-506.91641	-389.74793	-261.18807	0
198	-346.62342	91.13104	441.00914	125.30518	-394.62995	270.95211	349.06443	-323.84066	-589.91075	-495.52503	-353.13278	-220.50457	0
199	-314.89029	143.20592	458.90988	83.80801	-386.49325	305.93992	321.39965	-353.13278	-587.46974	-454.84153	-290.48019	-160.29299	0
200	-262.81541	201.79016	464.60557	28.47845	-363.71049	336.85938	262.81541	-392.18894	-561.4323	-380.79756	-198.53548	-75.67131	0
201	-199.34915	265.25642	463.7919	-34.17414	-331.97736	365.33783	162.734	-466.23291	-525.63082	-278.27514	-78.11232	30.91946	0
202	-132.62821	336.85938	467.86025	-104.96343	-301.0579	399.51197	27.66478	-580.14671	-489.82934	-157.85198	60.21158	152.96996	0
203	-55.32956	423.1084	479.25163	-187.1441	-268.5111	445.07749	-115.54114	-715.21593	-454.84153	-30.10579	209.92686	286.41184	0
204	26.03744	515.86678	492.27035	-274.20679	-232.70962	497.96604	-257.93339	-860.86286	-427.99042	94.38572	358.0148	422.29473	0
205	107.40444	602.1158	497.15237	-358.0148	-195.2808	545.1589	-406.835	-1017.0875	-415.78537	208.29952	495.52503	551.66826	0
206	197.72181	662.32738	467.86025	-423.92207	-134.25555	563.05964	-565.50065	-1161.10709	-404.39399	315.70396	620.01654	668.83674	0
207	297.80322	671.27775	376.72921	-460.53722	-38.24249	525.63082	-720.09795	-1257.93382	-373.47453	425.54941	729.86199	767.29081	0
208	386.49325	625.71223	240.84632	-472.74227	73.2303	436.94079	-851.91249	-1307.56769	-305.12625	545.1589	822.62037	840.52111	0
209	455.6552	550.85459	93.57205	-475.18328	180.63474	327.09534	-955.24858	-1317.33173	-198.53548	674.53243	903.1737	892.59599	0
210	513.42577	471.9286	-42.31084	-475.18328	277.46147	218.06356	-1042.31127	-1295.36264	-66.72094	812.04266	974.77666	929.21114	0
211	557.36395	397.88463	-161.10666	-470.30126	358.0148	118.79582	-1126.93295	-1259.56116	67.53461	941.41619	1034.17457	951.9939	0
212	586.65607	328.72268	-260.3744	-458.09621	422.29473	30.91946	-1203.41793	-1222.94601	176.56639	1032.54723	1065.9077	965.01262	0
213	614.32085	256.30605	-357.20113	-440.19547	484.94732	-56.14323	-1253.86547	-1187.9582	235.15063	1052.88898	1049.6343	962.57161	0
214	638.73095	169.24336	-465.41924	-410.08968	551.66826	-153.78363	-1280.71658	-1153.78406	231.08228	986.98171	970.70831	926.77013	0
215	646.05398	65.90727	-576.07836	-360.45581	611.06617	-258.74706	-1283.15759	-1117.16891	167.61602	834.82542	826.68872	844.58946	0
216	633.84893	-42.31084	-672.09142	-298.61689	653.37701	-358.82847	-1254.67914	-1079.74009	50.44754	607.81149	620.83021	715.21593	0
217	602.1158	-142.39225	-740.4397	-231.89595	672.90509	-440.19547	-1200.97692	-1050.44797	-108.21811	334.41837	380.79756	554.10927	0
218	543.53156	-221.31824	-762.40879	-162.734	653.37701	-487.38833	-1131.81497	-1024.41053	-280.71615	63.46626	153.78363	393.00261	0
219	458.90988	-272.57945	-732.303	-94.38572	596.42011	-497.96604	-1053.70265	-990.23639	-423.92207	-164.36134	-30.10579	253.05137	0
220	359.64214	-305.93992	-668.02307	-27.66478	514.23944	-483.31998	-965.82629	-938.16151	-515.86678	-330.35002	-165.98868	137.51023	0
221	244.91467	-333.6047	-581.77405	42.31084	413.34436	-461.35089	-867.37222	-866.55855	-558.99129	-428.80409	-257.11972	40.6835	0
222	124.49151	-362.08315	-489.82934	114.72747	306.75359	-442.63648	-763.22246	-777.86852	-561.4323	-471.11493	-311.63561	-44.75185	0
223	30.10579	-388.12059	-418.22638	174.12538	223.75925	-424.73574	-655.81802	-677.78711	-527.25816	-471.9286	-335.23204	-117.98215	0
224	-27.66478	-410.90335	-379.98389	214.80888	175.75272	-405.20766	-545.1589	-570.38267	-467.04658	-444.26382	-342.55507	-170.8707	0
225	-59.39791	-423.92207	-361.26948	238.40531	150.52895	-390.5616	-436.12712	-462.97823	-392.18894	-397.88463	-338.48672	-200.16282	0
226	-63.46626	-422.29473	-354.76012	240.84632	136.69656	-379.98389	-337.67305	-361.26948	-314.07662	-343.36874	-323.02699	-209.11319	0
227	-40.6835	-402.76665	-357.20113	227.01393	131.00087	-368.59251	-254.67871	-270.13844	-239.21898	-286.41184	-295.36221	-199.34915	0
228	-13.83239	-369.40618	-353.13278	211.5542	132.62821	-350.69177	-187.95777	-188.77144	-170.8707	-231.08228	-260.3744	-180.63474	0
229	-0.81367	-328.72268	-328.72268	192.83979	133.44188	-320.58598	-139.13757	-117.16848	-109.84545	-185.51676	-225.38659	-159.47932	0
230	-1.62734	-288.85285	-288.85285	168.42969	123.67784	-283.97083	-103.33609	-56.9569	-63.46626	-154.5973	-196.90814	-140.76491	0
231	-7.32303	-257.93339	-243.28733	150.52895	110.65912	-249.79669	-74.04397	-9.76404	-31.73313	-133.44188	-174.93905	-125.30518	0
232	-9.76404	-235.9643	-205.04484	141.57858	100.89508	-222.13191	-51.26121	26.03744	-8.1367	-117.16848	-160.29299	-113.10013	0
233	-11.39138	-219.6909	-183.88942	132.62821	91.94471	-200.97649	-32.5468	52.88855	11.39138	-103.33609	-153.78363	-104.96343	0
234	-15.45973	-205.04484	-173.31171	121.23683	81.367	-186.33043	-14.64606	76.48498	25.22377	-93.57205	-149.71528	-102.52242	0
235	-18.71441	-190.39878	-162.734	109.84545	73.2303	-174.12538	1.62734	97.6404	33.36047	-86.24902	-144.01959	-104.96343	0
236	-21.96909	-175.75272	-151.34262	101.70875	65.0936	-164.36134	17.08707	117.98215	42.31084	-78.92599	-135.88289	-104.96343	0
237	-27.66478	-163.54767	-135.88289	96.01306	53.70222	-155.41097	32.5468	136.69656	53.70222	-66.72094	-127.74619	-102.52242	0
238	-32.5468	-155.41097	-120.42316	89.5037	43.93818	-142.39225	45.56552	152.96996	66.72094	-53.70222	-122.0505	-103.33609	0
239	-32.5468	-147.27427	-109.03178	82.99434	37.42882	-128.55986	52.88855	163.54767	76.48498	-45.56552	-117.16848	-104.96343	0
240	-31.73313	-136.69656	-100.08141	78.11232	33.36047	-117.16848	55.32956	168.42969	79.73966	-44.75185	-112.28646	-104.14976	1500	QRS+0
241	-28.47845	-126.11885	-94.38572	71.60296	31.73313	-105.7771	56.9569	171.68437	78.11232	-46.37919	-108.21811	-100.89508	0
242	-21.15542	-116.35481	-93.57205	62.65259	34.17414	-95.19939	61.02525	177.38006	76.48498	-50.44754	-103.33609	-94.38572	0
243	-13.01872	-109.03178	-91.94471	54.51589	38.24249	-91.94471	65.0936	187.1441	73.2303	-56.14323	-98.45407	-88.69003	0
244	-10.57771	-104.96343	-89.5037	52.88855	38.24249	-94.38572	66.72094	196.90814	70.78929	-59.39791	-95.19939	-86.24902	0
245	-11.39138	-105.7771	-89.5037	54.51589	39.05616	-97.6404	66.72094	200.97649	72.41663	-57.77057	-93.57205	-87.06269	0
246	-13.83239	-106.59077	-90.31737	58.58424	38.24249	-100.08141	65.90727	200.16282	76.48498	-52.88855	-93.57205	-89.5037	0
247	-17.08707	-106.59077	-89.5037	61.83892	36.61515	-98.45407	65.90727	198.53548	81.367	-46.37919	-91.13104	-91.13104	0
248	-15.45973	-103.33609	-91.13104	60.21158	38.24249	-96.01306	68.34828	197.72181	88.69003	-36.61515	-85.43535	-93.57205	0
249	-13.01872	-99.26774	-91.94471	56.9569	39.05616	-93.57205	71.60296	198.53548	95.19939	-30.10579	-80.55333	-93.57205	0
250	-15.45973	-96.82673	-86.24902	56.14323	34.98781	-89.5037	75.67131	200.97649	99.26774	-26.03744	-76.48498	-88.69003	0
251	-20.34175	-97.6404	-79.73966	62.65259	28.47845	-87.87636	82.99434	205.04484	102.52242	-22.78276	-70.78929	-81.367	0
252	-26.03744	-101.70875	-74.85764	75.67131	22.78276	-91.13104	90.31737	211.5542	104.96343	-20.34175	-65.0936	-72.41663	0
253	-34.98781	-107.40444	-66.72094	87.06269	14.64606	-96.01306	94.38572	216.43622	105.7771	-19.52808	-59.39791	-64.27993	0
254	-46.37919	-113.9138	-59.39791	93.57205	4.88202	-98.45407	95.19939	219.6909	105.7771	-17.90074	-56.9569	-59.39791	0
255	-51.26121	-117.16848	-59.39791	91.94471	4.06835	-98.45407	92.75838	222.13191	104.96343	-16.2734	-57.77057	-60.21158	0
256	-46.37919	-110.65912	-63.46626	83.80801	8.1367	-94.38572	89.5037	222.94558	106.59077	-14.64606	-58.58424	-64.27993	0
257	-40.6835	-96.82673	-65.0936	75.67131	12.20505	-86.24902	84.62168	224.57292	110.65912	-14.64606	-60.21158	-68.34828	0
258	-34.98781	-85.43535	-65.90727	66.72094	15.45973	-76.48498	80.55333	223.75925	113.9138	-17.90074	-64.27993	-69.16195	0
259	-26.85111	-78.92599	-68.34828	57.77057	20.34175	-70.78929	78.11232	219.6909	112.28646	-20.34175	-69.16195	-69.97562	0
260	-19.52808	-78.11232	-70.78929	51.26121	24.4101	-70.78929	77.29865	214.80888	106.59077	-21.96909	-72.41663	-74.04397	0
261	-13.01872	-78.92599	-74.04397	45.56552	29.29212	-71.60296	78.11232	212.36787	103.33609	-23.59643	-74.85764	-78.11232	0
262	-8.95037	-78.92599	-82.99434	40.6835	30.91946	-71.60296	81.367	217.24989	103.33609	-21.96909	-76.48498	-79.73966	0
263	-10.57771	-77.29865	-91.13104	39.05616	26.03744	-73.2303	87.06269	228.64127	108.21811	-16.2734	-76.48498	-80.55333	0
264	-16.2734	-78.11232	-90.31737	42.31084	19.52808	-75.67131	92.75838	240.03265	117.16848	-10.57771	-73.2303	-80.55333	0
265	-21.15542	-81.367	-82.99434	47.19286	17.08707	-77.29865	96.01306	247.35568	125.30518	-6.50936	-67.53461	-78.92599	0
266	-24.4101	-84.62168	-73.2303	52.07488	16.2734	-76.48498	96.01306	248.98302	129.37353	-4.06835	-61.83892	-75.67131	0
267	-27.66478	-84.62168	-62.65259	55.32956	13.01872	-70.78929	96.82673	248.98302	133.44188	0	-58.58424	-73.2303	0
268	-29.29212	-80.55333	-55.32956	54.51589	12.20505	-64.27993	98.45407	250.61036	134.25555	5.69569	-56.9569	-71.60296	0
269	-27.66478	-74.04397	-49.63387	50.44754	10.57771	-58.58424	101.70875	253.05137	133.44188	10.57771	-54.51589	-70.78929	0
270	-25.22377	-67.53461	-44.75185	46.37919	9.76404	-52.88855	103.33609	254.67871	131.00087	10.57771	-52.88855	-68.34828	0
271	-17.08707	-61.02525	-47.19286	38.24249	14.64606	-53.70222	103.33609	253.05137	129.37353	6.50936	-54.51589	-69.97562	0
272	-8.1367	-57.77057	-59.39791	30.10579	20.34175	-57.77057	103.33609	251.42403	128.55986	2.44101	-58.58424	-76.48498	0
273	-5.69569	-58.58424	-74.04397	27.66478	21.15542	-61.02525	104.96343	251.42403	128.55986	3.25468	-63.46626	-82.18067	0
274	-5.69569	-60.21158	-80.55333	28.47845	21.96909	-61.83892	108.21811	254.67871	130.1872	4.88202	-63.46626	-83.80801	0
275	-4.06835	-61.83892	-78.11232	30.10579	24.4101	-62.65259	109.84545	260.3744	134.25555	6.50936	-59.39791	-82.18067	0
276	-8.1367	-65.90727	-69.97562	30.91946	22.78276	-61.83892	111.47279	263.62908	139.13757	8.95037	-52.88855	-78.92599	0
277	-15.45973	-69.16195	-55.32956	28.47845	17.90074	-57.77057	110.65912	266.88376	144.83326	9.76404	-48.00653	-74.85764	0
278	-22.78276	-70.78929	-39.86983	28.47845	12.20505	-54.51589	108.21811	271.76578	151.34262	8.95037	-45.56552	-73.2303	0
279	-24.4101	-70.78929	-34.17414	32.5468	10.57771	-54.51589	105.7771	274.20679	156.22464	8.95037	-43.12451	-71.60296	0
280	-20.34175	-69.16195	-38.24249	34.98781	14.64606	-56.14323	105.7771	274.20679	156.22464	10.57771	-39.86983	-68.34828	0
281	-12.20505	-65.90727	-46.37919	31.73313	20.34175	-53.70222	110.65912	275.83413	155.41097	13.01872	-35.80148	-62.65259	0
282	-1.62734	-61.83892	-52.88855	23.59643	26.03744	-46.37919	119.60949	278.27514	153.78363	13.83239	-31.73313	-56.14323	0
283	4.06835	-57.77057	-53.70222	17.90074	28.47845	-40.6835	128.55986	282.34349	152.15629	12.20505	-27.66478	-50.44754	0
284	7.32303	-51.26121	-49.63387	14.64606	27.66478	-39.05616	134.25555	288.85285	151.34262	11.39138	-27.66478	-48.8202	0
285	11.39138	-42.31084	-47.19286	10.57771	28.47845	-37.42882	137.51023	296.98955	154.5973	13.83239	-30.10579	-51.26121	0
286	10.57771	-34.17414	-42.31084	9.76404	26.03744	-34.98781	139.95124	303.49891	160.29299	19.52808	-31.73313	-55.32956	0
287	4.06835	-29.29212	-34.98781	12.20505	19.52808	-28.47845	140.76491	306.75359	166.80235	27.66478	-34.17414	-61.02525	0
288	-2.44101	-26.85111	-30.91946	16.2734	13.83239	-21.96909	139.95124	310.00827	174.93905	34.98781	-36.61515	-66.72094	0
289	-8.1367	-28.47845	-28.47845	19.52808	8.95037	-18.71441	139.13757	312.44928	181.44841	37.42882	-36.61515	-67.53461	0
290	-13.83239	-30.91946	-23.59643	22.78276	3.25468	-19.52808	140.76491	313.26295	183.07575	37.42882	-33.36047	-64.27993	0
291	-17.08707	-36.61515	-21.15542	23.59643	0	-20.34175	144.83326	314.07662	182.26208	38.24249	-28.47845	-57.77057	0
292	-14.64606	-42.31084	-21.96909	19.52808	1.62734	-21.96909	150.52895	316.51763	180.63474	38.24249	-21.96909	-50.44754	0
293	-8.95037	-43.93818	-20.34175	13.83239	4.06835	-25.22377	157.03831	318.95864	179.82107	37.42882	-15.45973	-45.56552	0
294	-4.06835	-39.05616	-19.52808	10.57771	6.50936	-28.47845	161.92033	323.02699	179.0074	37.42882	-11.39138	-43.93818	0
295	1.62734	-34.17414	-23.59643	8.1367	12.20505	-30.91946	164.36134	327.90901	180.63474	39.05616	-10.57771	-43.12451	0
296	4.88202	-28.47845	-26.85111	7.32303	16.2734	-33.36047	166.80235	335.23204	184.70309	43.12451	-9.76404	-42.31084	0
297	4.88202	-21.96909	-24.4101	5.69569	14.64606	-34.17414	170.8707	342.55507	190.39878	49.63387	-8.95037	-38.24249	0
298	4.88202	-12.20505	-20.34175	2.44101	12.20505	-28.47845	176.56639	349.06443	194.46713	56.9569	-10.57771	-34.17414	0
299	6.50936	-1.62734	-13.83239	-2.44101	8.95037	-16.2734	182.26208	355.57379	193.65346	61.02525	-10.57771	-33.36047	0
300	6.50936	5.69569	-5.69569	-6.50936	5.69569	-4.88202	186.33043	358.82847	190.39878	59.39791	-10.57771	-35.80148	0
301	0	11.39138	4.06835	-6.50936	-2.44101	4.06835	190.39878	358.82847	187.95777	54.51589	-12.20505	-37.42882	0
302	-8.1367	14.64606	16.2734	-0.81367	-13.83239	12.20505	196.09447	359.64214	189.58511	52.07488	-16.2734	-38.24249	0
303	-4.88202	13.83239	21.15542	4.88202	-14.64606	18.71441	200.16282	361.26948	198.53548	56.14323	-18.71441	-40.6835	0
304	-2.44101	10.57771	23.59643	8.1367	-13.83239	25.22377	205.04484	367.77884	206.67218	61.02525	-16.2734	-39.86983	0
305	-10.57771	10.57771	31.73313	10.57771	-21.96909	30.91946	213.99521	379.98389	213.18154	68.34828	-6.50936	-34.17414	0
306	-21.96909	11.39138	43.12451	11.39138	-32.5468	36.61515	227.01393	394.62995	220.50457	76.48498	4.88202	-27.66478	0
307	-32.5468	12.20505	52.07488	11.39138	-42.31084	43.93818	237.59164	407.64867	227.8276	87.06269	14.64606	-23.59643	0
308	-36.61515	15.45973	54.51589	8.95037	-46.37919	51.26121	244.101	418.22638	232.70962	96.82673	19.52808	-22.78276	0
309	-36.61515	19.52808	53.70222	5.69569	-46.37919	52.88855	246.54201	425.54941	231.89595	101.70875	22.78276	-20.34175	0
310	-31.73313	26.85111	55.32956	0	-44.75185	53.70222	249.79669	427.99042	229.45494	101.70875	26.03744	-15.45973	0
311	-17.90074	38.24249	53.70222	-8.95037	-37.42882	55.32956	256.30605	427.99042	227.01393	98.45407	29.29212	-8.1367	0
312	-4.88202	47.19286	46.37919	-12.20505	-23.59643	58.58424	262.81541	432.05877	224.57292	97.6404	30.91946	-1.62734	0
313	2.44101	51.26121	38.24249	-14.64606	-5.69569	62.65259	267.69743	439.3818	225.38659	101.70875	30.91946	0	0
314	4.06835	55.32956	39.05616	-20.34175	0	68.34828	272.57945	446.70483	232.70962	106.59077	33.36047	0	0
315	1.62734	63.46626	51.26121	-26.85111	-9.76404	73.2303	281.52982	451.58685	241.65999	110.65912	42.31084	3.25468	0
316	-3.25468	72.41663	69.97562	-30.91946	-26.85111	77.29865	292.10753	456.46887	248.16935	117.98215	53.70222	9.76404	0
317	-10.57771	82.99434	87.06269	-34.17414	-43.12451	86.24902	303.49891	459.72355	253.05137	126.11885	65.90727	17.08707	0
318	-13.83239	91.13104	96.01306	-37.42882	-53.70222	98.45407	314.89029	461.35089	253.86504	136.69656	79.73966	22.78276	0
319	-13.01872	96.82673	101.70875	-40.6835	-58.58424	107.40444	323.02699	459.72355	250.61036	144.83326	90.31737	27.66478	0
320	-8.95037	101.70875	104.14976	-46.37919	-58.58424	109.84545	327.09534	456.46887	245.72834	147.27427	96.01306	34.17414	0
321	0.81367	104.96343	100.08141	-50.44754	-51.26121	109.03178	329.53635	454.84153	240.84632	144.01959	97.6404	40.6835	0
322	12.20505	107.40444	97.6404	-51.26121	-37.42882	109.03178	331.97736	452.40052	235.15063	141.57858	95.19939	46.37919	0
323	18.71441	112.28646	103.33609	-54.51589	-21.96909	113.9138	336.85938	450.77318	227.8276	142.39225	91.13104	47.19286	0
324	19.52808	120.42316	113.9138	-61.02525	-17.90074	120.42316	340.92773	451.58685	222.94558	142.39225	91.13104	47.19286	0
325	13.01872	129.37353	126.11885	-66.72094	-31.73313	126.93252	344.99608	454.84153	221.31824	142.39225	97.6404	51.26121	0
326	11.39138	139.13757	141.57858	-74.04397	-52.88855	132.62821	349.06443	454.84153	223.75925	146.4606	109.03178	59.39791	0
327	13.83239	148.08794	161.10666	-82.18067	-78.11232	137.51023	352.31911	449.95951	222.13191	153.78363	122.86417	71.60296	0
328	6.50936	156.22464	179.0074	-83.80801	-100.89508	144.83326	352.31911	440.19547	217.24989	162.734	138.3239	85.43535	-1500	QRS-0
329	0.81367	166.80235	187.1441	-86.24902	-109.03178	157.03831	353.94645	432.05877	214.80888	169.24336	148.90161	96.01306	0
330	4.06835	178.19373	185.51676	-93.57205	-102.52242	168.42969	356.38746	425.54941	213.18154	170.05703	155.41097	103.33609	0
331	8.95037	187.95777	190.39878	-100.89508	-93.57205	179.82107	358.82847	419.04005	208.29952	168.42969	160.29299	107.40444	0
332	11.39138	194.46713	200.97649	-107.40444	-88.69003	189.58511	363.71049	412.53069	201.79016	169.24336	163.54767	109.84545	0
333	8.95037	196.90814	204.23117	-108.21811	-91.13104	199.34915	368.59251	403.58032	192.02612	171.68437	165.17501	111.47279	0
334	2.44101	199.34915	203.4175	-105.7771	-97.6404	208.29952	371.03352	393.00261	183.07575	172.49804	168.42969	116.35481	0
335	0	205.04484	205.85851	-105.7771	-102.52242	215.62255	371.84719	384.05224	176.56639	172.49804	176.56639	124.49151	0
336	0.81367	215.62255	212.36787	-109.03178	-106.59077	222.13191	371.03352	375.10187	171.68437	173.31171	186.33043	134.25555	0
337	2.44101	227.8276	217.24989	-113.9138	-108.21811	228.64127	366.96517	366.1515	162.734	174.93905	196.90814	144.83326	0
338	8.1367	237.59164	216.43622	-120.42316	-105.7771	231.89595	362.08315	355.57379	149.71528	179.0074	208.29952	152.96996	0
339	12.20505	244.101	218.06356	-125.30518	-104.14976	234.33696	359.64214	343.36874	139.95124	180.63474	217.24989	159.47932	0
340	9.76404	247.35568	227.01393	-126.93252	-109.84545	239.21898	360.45581	328.72268	131.81454	178.19373	223.75925	165.17501	0
341	6.50936	248.98302	235.15063	-127.74619	-115.54114	241.65999	362.08315	311.63561	121.23683	173.31171	227.01393	170.8707	0
342	6.50936	251.42403	238.40531	-131.81454	-117.16848	239.21898	359.64214	292.9212	108.21811	165.98868	228.64127	176.56639	0
343	8.95037	251.42403	242.47366	-134.25555	-118.79582	235.15063	353.94645	272.57945	93.57205	156.22464	231.08228	178.19373	0
344	9.76404	250.61036	244.101	-134.25555	-118.79582	233.52329	346.62342	251.42403	77.29865	148.08794	231.08228	178.19373	0
345	9.76404	248.98302	243.28733	-133.44188	-117.16848	235.15063	339.30039	232.70962	61.83892	142.39225	229.45494	179.0074	0
346	7.32303	247.35568	244.101	-130.1872	-117.98215	240.03265	331.97736	215.62255	48.00653	139.13757	227.8276	181.44841	0
347	3.25468	244.91467	245.72834	-126.93252	-121.23683	246.54201	325.468	197.72181	31.73313	135.88289	226.20026	183.88942	0
348	0.81367	244.91467	244.101	-125.30518	-122.86417	250.61036	318.14497	178.19373	14.64606	131.00087	225.38659	184.70309	0
349	0	248.16935	245.72834	-125.30518	-125.30518	254.67871	310.00827	158.66565	4.06835	128.55986	227.01393	187.95777	0
350	-4.06835	251.42403	252.2377	-125.30518	-129.37353	257.93339	300.24423	136.69656	-4.88202	125.30518	228.64127	191.21245	0
351	-6.50936	250.61036	255.49238	-118.79582	-132.62821	259.56073	285.59817	111.47279	-18.71441	118.79582	226.20026	191.21245	0
352	-11.39138	245.72834	256.30605	-103.33609	-135.88289	257.11972	268.5111	86.24902	-34.98781	107.40444	218.87723	187.1441	0
353	-21.15542	240.84632	259.56073	-87.87636	-143.20592	252.2377	250.61036	62.65259	-50.44754	95.19939	208.29952	185.51676	0
354	-32.5468	234.33696	262.81541	-79.73966	-149.71528	245.72834	237.59164	43.12451	-63.46626	85.43535	201.79016	183.88942	0
355	-39.86983	223.75925	260.3744	-77.29865	-151.34262	237.59164	225.38659	28.47845	-72.41663	79.73966	198.53548	180.63474	0
356	-34.17414	212.36787	244.91467	-81.367	-139.95124	226.20026	212.36787	14.64606	-81.367	74.85764	194.46713	174.93905	0
357	-13.01872	200.16282	220.50457	-91.94471	-121.23683	209.92686	197.72181	-1.62734	-92.75838	67.53461	189.58511	170.8707	0
358	6.50936	192.83979	205.04484	-101.70875	-113.9138	192.83979	185.51676	-17.90074	-107.40444	59.39791	187.1441	165.98868	0
359	15.45973	187.1441	195.2808	-104.96343	-109.84545	179.0074	174.12538	-29.29212	-118.79582	52.88855	182.26208	160.29299	0
360	11.39138	178.19373	185.51676	-97.6404	-104.14976	168.42969	159.47932	-35.80148	-122.86417	47.19286	174.12538	151.34262	0
361	0	166.80235	176.56639	-86.24902	-100.08141	160.29299	144.83326	-41.49717	-122.86417	40.6835	162.734	140.76491	0
362	-8.95037	157.03831	169.24336	-78.11232	-96.01306	152.96996	131.00087	-44.75185	-121.23683	32.5468	148.90161	126.93252	0
363	-13.83239	149.71528	165.98868	-72.41663	-94.38572	149.71528	118.79582	-47.19286	-118.79582	24.4101	135.06922	113.10013	0
364	-13.01872	144.01959	161.10666	-69.16195	-88.69003	145.64693	107.40444	-48.00653	-116.35481	17.90074	124.49151	100.89508	0
365	-5.69569	135.06922	144.83326	-67.53461	-75.67131	136.69656	97.6404	-49.63387	-114.72747	13.01872	116.35481	91.94471	0
366	0	124.49151	126.93252	-64.27993	-62.65259	122.0505	89.5037	-52.07488	-113.9138	8.1367	107.40444	84.62168	0
367	0	116.35481	116.35481	-57.77057	-56.14323	106.59077	81.367	-52.88855	-112.28646	2.44101	100.89508	81.367	0
368	-3.25468	108.21811	113.10013	-50.44754	-54.51589	94.38572	74.04397	-48.8202	-105.7771	-3.25468	99.26774	80.55333	0
369	-7.32303	97.6404	108.21811	-43.12451	-52.07488	84.62168	65.90727	-45.56552	-97.6404	-6.50936	96.82673	75.67131	0
370	-7.32303	86.24902	96.01306	-38.24249	-48.00653	74.85764	55.32956	-43.93818	-94.38572	-8.95037	88.69003	65.90727	0
371	-4.06835	73.2303	78.92599	-30.10579	-39.86983	67.53461	44.75185	-43.93818	-96.01306	-11.39138	77.29865	52.88855	0
372	-0.81367	59.39791	61.83892	-16.2734	-32.5468	60.21158	34.17414	-40.6835	-98.45407	-16.2734	63.46626	36.61515	0
373	-2.44101	49.63387	52.07488	-3.25468	-29.29212	52.07488	24.4101	-34.17414	-97.6404	-21.96909	48.8202	21.15542	0
374	-6.50936	39.05616	43.93818	1.62734	-27.66478	40.6835	16.2734	-28.47845	-91.94471	-24.4101	39.05616	8.95037	0
375	-8.1367	27.66478	33.36047	2.44101	-22.78276	29.29212	11.39138	-25.22377	-85.43535	-23.59643	32.5468	1.62734	0
376	-8.1367	19.52808	24.4101	1.62734	-17.90074	18.71441	6.50936	-22.78276	-80.55333	-23.59643	27.66478	-3.25468	0
377	-8.95037	14.64606	22.78276	1.62734	-13.83239	8.95037	0.81367	-16.2734	-74.85764	-20.34175	23.59643	-7.32303	0
378	-8.1367	9.76404	25.22377	1.62734	-8.95037	0.81367	-4.06835	-8.1367	-66.72094	-14.64606	18.71441	-8.1367	0
379	-6.50936	4.06835	22.78276	2.44101	-4.88202	-2.44101	-7.32303	-1.62734	-56.9569	-12.20505	14.64606	-8.1367	0
380	-7.32303	-2.44101	14.64606	4.88202	-2.44101	-5.69569	-7.32303	2.44101	-51.26121	-13.01872	13.01872	-9.76404	0
381	-6.50936	-9.76404	2.44101	6.50936	0	-8.95037	-4.88202	5.69569	-48.00653	-15.45973	13.01872	-12.20505	0
382	-2.44101	-13.01872	-9.76404	4.88202	4.06835	-13.01872	-4.06835	12.20505	-45.56552	-17.90074	11.39138	-14.64606	0
383	2.44101	-15.45973	-16.2734	1.62734	8.1367	-20.34175	-4.06835	21.96909	-39.86983	-21.15542	8.1367	-14.64606	0
384	7.32303	-18.71441	-22.78276	0.81367	13.01872	-28.47845	-4.06835	29.29212	-30.91946	-21.96909	5.69569	-16.2734	0
385	7.32303	-23.59643	-27.66478	4.06835	15.45973	-32.5468	-2.44101	33.36047	-22.78276	-20.34175	5.69569	-17.90074	0
386	0	-26.85111	-25.22377	11.39138	11.39138	-30.91946	0.81367	39.05616	-16.2734	-13.83239	8.95037	-19.52808	0
387	-11.39138	-29.29212	-16.2734	21.15542	3.25468	-26.03744	7.32303	47.19286	-8.1367	-7.32303	14.64606	-20.34175	0
388	-22.78276	-33.36047	-4.06835	30.10579	-3.25468	-23.59643	13.01872	56.14323	-0.81367	-4.88202	21.15542	-19.52808	0
389	-30.10579	-37.42882	0.81367	35.80148	-7.32303	-23.59643	13.83239	61.83892	0	-4.06835	21.96909	-18.71441	0
390	-28.47845	-42.31084	-4.88202	36.61515	-4.88202	-26.03744	8.95037	61.02525	-3.25468	-4.88202	15.45973	-21.96909	0
391	-18.71441	-45.56552	-22.78276	31.73313	5.69569	-29.29212	0	54.51589	-8.1367	-10.57771	2.44101	-26.85111	0
392	-6.50936	-47.19286	-47.19286	24.4101	17.08707	-36.61515	-9.76404	51.26121	-11.39138	-14.64606	-8.1367	-30.91946	0
393	1.62734	-48.8202	-70.78929	19.52808	24.4101	-43.93818	-15.45973	53.70222	-11.39138	-13.01872	-13.01872	-34.17414	0
394	8.1367	-50.44754	-83.80801	17.08707	29.29212	-50.44754	-17.08707	59.39791	-6.50936	-8.95037	-12.20505	-35.80148	0
395	12.20505	-51.26121	-82.99434	16.2734	34.17414	-54.51589	-15.45973	63.46626	0	-4.88202	-9.76404	-34.98781	0
396	11.39138	-51.26121	-75.67131	17.90074	34.17414	-57.77057	-12.20505	66.72094	7.32303	0	-5.69569	-33.36047	0
397	8.1367	-52.07488	-69.97562	21.15542	34.17414	-59.39791	-8.1367	70.78929	14.64606	5.69569	-3.25468	-32.5468	0
398	8.95037	-54.51589	-72.41663	22.78276	37.42882	-56.9569	-7.32303	72.41663	21.96909	11.39138	-4.06835	-30.91946	0
399	9.76404	-56.14323	-74.85764	23.59643	39.86983	-54.51589	-7.32303	71.60296	27.66478	13.83239	-6.50936	-29.29212	0
400	4.88202	-56.9569	-67.53461	26.03744	34.98781	-52.88855	-6.50936	70.78929	30.91946	13.01872	-6.50936	-27.66478	0
401	-2.44101	-58.58424	-58.58424	28.47845	26.03744	-50.44754	-5.69569	71.60296	30.10579	10.57771	-7.32303	-25.22377	0
402	-4.88202	-58.58424	-55.32956	26.03744	21.15542	-46.37919	-4.06835	70.78929	27.66478	5.69569	-7.32303	-21.15542	0
403	-0.81367	-55.32956	-56.14323	20.34175	19.52808	-43.12451	-0.81367	71.60296	27.66478	0	-4.88202	-17.08707	0
404	-2.44101	-51.26121	-51.26121	19.52808	14.64606	-39.86983	0.81367	76.48498	32.5468	-1.62734	-2.44101	-16.2734	0
405	-11.39138	-49.63387	-39.86983	25.22377	6.50936	-37.42882	2.44101	82.99434	39.05616	0.81367	-1.62734	-18.71441	0
406	-23.59643	-48.00653	-28.47845	33.36047	-1.62734	-36.61515	4.06835	87.87636	43.12451	6.50936	-3.25468	-22.78276	0
407	-33.36047	-45.56552	-15.45973	42.31084	-8.1367	-40.6835	5.69569	87.06269	44.75185	8.95037	-8.1367	-27.66478	0
408	-37.42882	-47.19286	-5.69569	47.19286	-8.1367	-45.56552	6.50936	81.367	44.75185	7.32303	-11.39138	-30.10579	0
409	-37.42882	-53.70222	-5.69569	50.44754	-4.88202	-49.63387	5.69569	78.92599	40.6835	4.06835	-16.2734	-32.5468	0
410	-34.98781	-61.83892	-17.08707	51.26121	0	-54.51589	2.44101	78.11232	35.80148	0.81367	-22.78276	-36.61515	0
411	-25.22377	-65.90727	-34.17414	48.00653	9.76404	-57.77057	-0.81367	76.48498	31.73313	-3.25468	-30.10579	-42.31084	0
412	-13.01872	-65.0936	-54.51589	44.75185	24.4101	-57.77057	-2.44101	72.41663	26.03744	-9.76404	-36.61515	-51.26121	0
413	-4.06835	-61.83892	-69.16195	39.05616	40.6835	-55.32956	-2.44101	69.16195	24.4101	-17.90074	-38.24249	-58.58424	0
414	-2.44101	-58.58424	-70.78929	34.98781	44.75185	-51.26121	-0.81367	69.97562	26.85111	-22.78276	-39.86983	-59.39791	0
415	-6.50936	-56.14323	-61.83892	34.17414	35.80148	-48.00653	-0.81367	72.41663	30.10579	-22.78276	-41.49717	-56.14323	0
416	-12.20505	-55.32956	-50.44754	34.17414	24.4101	-44.75185	-1.62734	74.85764	31.73313	-18.71441	-41.49717	-52.07488	0
417	-15.45973	-55.32956	-43.12451	33.36047	15.45973	-40.6835	-2.44101	73.2303	29.29212	-16.2734	-39.05616	-50.44754	0
418	-13.01872	-52.88855	-43.12451	30.91946	13.83239	-39.05616	-4.88202	66.72094	21.15542	-17.08707	-34.98781	-48.00653	0
419	-8.95037	-50.44754	-45.56552	27.66478	14.64606	-39.86983	-7.32303	61.02525	13.83239	-18.71441	-35.80148	-48.00653	0
420	-4.88202	-47.19286	-45.56552	24.4101	17.08707	-40.6835	-6.50936	60.21158	12.20505	-19.52808	-41.49717	-49.63387	0
421	-4.88202	-40.6835	-39.86983	21.15542	13.83239	-38.24249	-3.25468	63.46626	16.2734	-17.08707	-45.56552	-48.8202	0
422	-16.2734	-31.73313	-30.10579	21.15542	8.95037	-32.5468	3.25468	69.97562	22.78276	-13.83239	-47.19286	-44.75185	0
423	-30.91946	-27.66478	-26.03744	26.03744	12.20505	-29.29212	8.95037	75.67131	28.47845	-11.39138	-48.00653	-39.86983	0
424	-37.42882	-28.47845	-25.22377	30.10579	14.64606	-27.66478	11.39138	77.29865	29.29212	-12.20505	-49.63387	-38.24249	0
425	-30.91946	-28.47845	-24.4101	27.66478	14.64606	-26.85111	9.76404	75.67131	26.03744	-15.45973	-50.44754	-39.86983	0
426	-17.08707	-28.47845	-28.47845	21.15542	17.08707	-26.85111	6.50936	71.60296	21.15542	-19.52808	-52.88855	-44.75185	0
427	-3.25468	-30.10579	-28.47845	14.64606	21.15542	-26.85111	4.06835	63.46626	15.45973	-25.22377	-53.70222	-49.63387	0
428	8.95037	-30.91946	-26.03744	8.95037	26.85111	-29.29212	3.25468	52.07488	11.39138	-31.73313	-52.88855	-52.07488	0
429	19.52808	-29.29212	-28.47845	3.25468	34.17414	-33.36047	2.44101	43.12451	6.50936	-34.98781	-53.70222	-54.51589	0
430	25.22377	-27.66478	-34.98781	0	36.61515	-35.80148	0	40.6835	2.44101	-35.80148	-57.77057	-56.9569	0
431	25.22377	-25.22377	-41.49717	-0.81367	36.61515	-37.42882	-1.62734	43.12451	1.62734	-34.17414	-61.83892	-59.39791	0
432	22.78276	-22.78276	-50.44754	-2.44101	32.5468	-39.05616	-0.81367	47.19286	3.25468	-32.5468	-61.83892	-61.83892	0
433	17.08707	-21.15542	-58.58424	-0.81367	23.59643	-34.98781	1.62734	48.8202	3.25468	-30.91946	-60.21158	-63.46626	0
434	9.76404	-20.34175	-55.32956	1.62734	14.64606	-28.47845	2.44101	47.19286	0	-28.47845	-61.02525	-63.46626	0
435	2.44101	-18.71441	-43.12451	5.69569	8.1367	-22.78276	2.44101	45.56552	-2.44101	-26.85111	-63.46626	-61.02525	0
436	-5.69569	-18.71441	-26.03744	10.57771	0	-14.64606	0.81367	44.75185	-3.25468	-26.85111	-64.27993	-56.14323	0
437	-17.08707	-19.52808	-7.32303	17.08707	-8.95037	-7.32303	0	41.49717	-7.32303	-29.29212	-65.0936	-50.44754	0
438	-26.85111	-20.34175	8.1367	22.78276	-16.2734	-1.62734	-1.62734	34.17414	-15.45973	-32.5468	-65.90727	-48.8202	0
439	-28.47845	-20.34175	13.01872	23.59643	-17.90074	-1.62734	-1.62734	29.29212	-21.15542	-33.36047	-64.27993	-47.19286	0
440	-25.22377	-21.15542	8.1367	22.78276	-13.83239	-5.69569	0	28.47845	-21.15542	-31.73313	-61.83892	-45.56552	0
441	-21.15542	-25.22377	7.32303	21.15542	-8.95037	-9.76404	0	30.91946	-17.08707	-30.10579	-58.58424	-44.75185	0
442	-18.71441	-29.29212	21.15542	18.71441	-7.32303	-10.57771	0	33.36047	-13.01872	-29.29212	-57.77057	-45.56552	0
443	-21.15542	-32.5468	34.17414	20.34175	-12.20505	-13.01872	-2.44101	31.73313	-12.20505	-29.29212	-61.02525	-44.75185	0
444	-25.22377	-31.73313	34.17414	22.78276	-17.08707	-16.2734	-4.06835	27.66478	-15.45973	-29.29212	-64.27993	-45.56552	0
445	-22.78276	-29.29212	21.15542	21.96909	-14.64606	-17.08707	-5.69569	24.4101	-19.52808	-30.10579	-66.72094	-48.8202	0
446	-17.08707	-26.85111	5.69569	18.71441	-8.1367	-17.08707	-6.50936	21.96909	-22.78276	-32.5468	-67.53461	-52.88855	0
447	-15.45973	-26.03744	-4.06835	18.71441	-5.69569	-13.83239	-7.32303	21.96909	-23.59643	-31.73313	-66.72094	-58.58424	0
448	-17.08707	-26.03744	-10.57771	19.52808	-5.69569	-11.39138	-8.95037	23.59643	-22.78276	-26.85111	-67.53461	-63.46626	0
449	-21.96909	-24.4101	-8.95037	21.96909	-9.76404	-8.1367	-8.95037	23.59643	-22.78276	-23.59643	-66.72094	-64.27993	0
450	-30.91946	-22.78276	0.81367	26.03744	-19.52808	-3.25468	-7.32303	21.96909	-24.4101	-23.59643	-63.46626	-61.02525	0
451	-39.05616	-20.34175	10.57771	29.29212	-28.47845	-0.81367	-4.06835	21.96909	-24.4101	-26.03744	-60.21158	-56.9569	0
452	-42.31084	-17.90074	17.90074	28.47845	-34.17414	-1.62734	-0.81367	21.15542	-23.59643	-28.47845	-58.58424	-53.70222	0
453	-43.12451	-16.2734	24.4101	26.85111	-38.24249	-0.81367	0	19.52808	-23.59643	-30.91946	-60.21158	-50.44754	0
454	-37.42882	-16.2734	23.59643	24.4101	-34.17414	-1.62734	0	14.64606	-27.66478	-32.5468	-61.83892	-48.00653	0
455	-23.59643	-17.90074	9.76404	18.71441	-19.52808	-8.1367	-2.44101	8.95037	-34.17414	-35.80148	-64.27993	-48.8202	0
456	-12.20505	-21.15542	-4.06835	14.64606	-4.88202	-13.83239	-9.76404	5.69569	-37.42882	-39.05616	-65.0936	-52.88855	0
457	-6.50936	-25.22377	-16.2734	13.83239	2.44101	-17.08707	-18.71441	2.44101	-37.42882	-42.31084	-65.0936	-56.14323	0
458	-4.06835	-28.47845	-26.03744	14.64606	8.1367	-19.52808	-26.85111	-2.44101	-34.98781	-46.37919	-67.53461	-56.9569	0
459	-4.06835	-29.29212	-30.91946	15.45973	9.76404	-21.15542	-30.10579	-5.69569	-31.73313	-49.63387	-70.78929	-56.14323	0
460	-4.88202	-30.91946	-30.91946	17.08707	9.76404	-24.4101	-28.47845	-5.69569	-32.5468	-49.63387	-71.60296	-56.14323	0
461	-4.06835	-31.73313	-22.78276	15.45973	9.76404	-24.4101	-23.59643	-4.06835	-34.17414	-46.37919	-69.16195	-54.51589	0
462	-4.88202	-33.36047	-8.95037	13.01872	14.64606	-19.52808	-18.71441	-2.44101	-34.98781	-43.12451	-63.46626	-49.63387	0
463	-9.76404	-30.91946	-2.44101	13.01872	21.96909	-10.57771	-16.2734	-3.25468	-36.61515	-41.49717	-56.9569	-43.93818	0
464	-17.08707	-25.22377	0	14.64606	19.52808	-3.25468	-17.08707	-5.69569	-39.86983	-42.31084	-52.88855	-41.49717	0
465	-27.66478	-21.96909	6.50936	19.52808	4.06835	0.81367	-18.71441	-7.32303	-41.49717	-41.49717	-52.88855	-41.49717	0
466	-32.5468	-22.78276	10.57771	22.78276	-8.1367	1.62734	-19.52808	-8.1367	-41.49717	-39.05616	-52.88855	-43.93818	0
467	-29.29212	-24.4101	6.50936	22.78276	-13.01872	-1.62734	-18.71441	-9.76404	-39.05616	-37.42882	-55.32956	-47.19286	0
468	-32.5468	-23.59643	3.25468	26.85111	-19.52808	-8.95037	-17.90074	-15.45973	-37.42882	-38.24249	-59.39791	-50.44754	0
469	-32.5468	-21.96909	-0.81367	28.47845	-19.52808	-16.2734	-18.71441	-19.52808	-37.42882	-36.61515	-61.83892	-52.07488	0
470	-21.96909	-21.15542	-9.76404	23.59643	-10.57771	-21.15542	-20.34175	-18.71441	-37.42882	-33.36047	-61.02525	-52.07488	0
471	-11.39138	-21.15542	-19.52808	17.08707	0	-26.03744	-21.96909	-14.64606	-34.98781	-29.29212	-59.39791	-51.26121	0
472	0	-18.71441	-27.66478	8.1367	9.76404	-33.36047	-22.78276	-11.39138	-32.5468	-26.85111	-55.32956	-48.00653	0
473	11.39138	-15.45973	-29.29212	0	15.45973	-39.05616	-26.85111	-13.01872	-33.36047	-26.03744	-52.07488	-44.75185	0
474	17.90074	-14.64606	-29.29212	-3.25468	20.34175	-41.49717	-30.91946	-17.90074	-36.61515	-25.22377	-52.88855	-43.93818	0
475	17.08707	-17.90074	-30.10579	-0.81367	21.15542	-40.6835	-34.17414	-21.15542	-40.6835	-26.03744	-56.9569	-45.56552	0
476	8.1367	-21.96909	-26.03744	4.88202	15.45973	-38.24249	-34.17414	-21.15542	-40.6835	-28.47845	-59.39791	-48.00653	0
477	-2.44101	-26.85111	-16.2734	13.01872	8.1367	-33.36047	-32.5468	-17.90074	-38.24249	-30.91946	-60.21158	-49.63387	0
478	-9.76404	-29.29212	-5.69569	18.71441	3.25468	-27.66478	-32.5468	-12.20505	-35.80148	-34.17414	-62.65259	-49.63387	0
479	-13.01872	-30.91946	-0.81367	21.15542	0.81367	-24.4101	-34.17414	-7.32303	-34.98781	-35.80148	-64.27993	-48.8202	0
480	-14.64606	-32.5468	-5.69569	22.78276	0.81367	-23.59643	-34.17414	-5.69569	-34.98781	-34.17414	-63.46626	-49.63387	0
481	-13.01872	-34.17414	-13.83239	21.15542	3.25468	-23.59643	-34.98781	-7.32303	-34.98781	-31.73313	-62.65259	-50.44754	0
482	-9.76404	-34.98781	-18.71441	17.90074	3.25468	-22.78276	-35.80148	-10.57771	-34.17414	-30.10579	-60.21158	-49.63387	0
483	-9.76404	-32.5468	-13.01872	14.64606	-0.81367	-23.59643	-37.42882	-15.45973	-34.17414	-28.47845	-55.32956	-48.8202	0
484	-9.76404	-27.66478	-7.32303	13.01872	-4.06835	-25.22377	-38.24249	-19.52808	-34.17414	-26.85111	-52.88855	-49.63387	0
485	-6.50936	-26.03744	-11.39138	12.20505	0	-26.85111	-39.05616	-22.78276	-36.61515	-26.85111	-54.51589	-50.44754	0
486	-4.06835	-29.29212	-19.52808	13.83239	5.69569	-29.29212	-39.86983	-24.4101	-39.05616	-30.10579	-58.58424	-51.26121	0
487	-4.88202	-34.17414	-26.85111	17.90074	8.1367	-29.29212	-41.49717	-21.96909	-39.05616	-34.98781	-64.27993	-51.26121	0
488	-6.50936	-36.61515	-32.5468	21.15542	9.76404	-28.47845	-43.93818	-17.08707	-36.61515	-39.86983	-68.34828	-53.70222	0
489	-7.32303	-38.24249	-36.61515	22.78276	10.57771	-29.29212	-44.75185	-15.45973	-35.80148	-41.49717	-69.16195	-55.32956	0
490	-13.01872	-43.12451	-35.80148	27.66478	8.1367	-33.36047	-43.93818	-15.45973	-35.80148	-39.05616	-67.53461	-54.51589	0
491	-21.96909	-49.63387	-24.4101	34.98781	3.25468	-34.17414	-39.86983	-13.83239	-33.36047	-33.36047	-63.46626	-51.26121	0
492	-27.66478	-48.8202	-5.69569	36.61515	-2.44101	-26.03744	-33.36047	-11.39138	-27.66478	-25.22377	-58.58424	-46.37919	0
493	-30.10579	-43.12451	2.44101	34.17414	-11.39138	-14.64606	-26.03744	-10.57771	-23.59643	-13.01872	-56.14323	-43.12451	0
494	-34.98781	-39.05616	4.06835	34.98781	-20.34175	-8.95037	-21.15542	-9.76404	-21.15542	-4.88202	-52.88855	-40.6835	0
495	-43.12451	-38.24249	7.32303	39.05616	-28.47845	-8.1367	-19.52808	-8.1367	-20.34175	-3.25468	-49.63387	-38.24249	0
496	-50.44754	-41.49717	0	44.75185	-22.78276	-13.83239	-21.15542	-7.32303	-20.34175	-8.1367	-48.00653	-37.42882	0
497	-61.83892	-44.75185	-17.90074	47.19286	-7.32303	-25.22377	-24.4101	-8.95037	-21.15542	-17.08707	-46.37919	-35.80148	0
498	-73.2303	-44.75185	-27.66478	42.31084	-2.44101	-34.17414	-25.22377	-14.64606	-21.96909	-26.85111	-43.93818	-35.80148	0
499	-69.97562	-43.93818	-28.47845	35.80148	-4.88202	-39.05616	-26.03744	-18.71441	-24.4101	-33.36047	-44.75185	-39.86983	0
500	-53.70222	-43.93818	-29.29212	30.91946	-2.44101	-39.86983	-28.47845	-17.90074	-26.03744	-35.80148	-49.63387	-45.56552	0
501	-34.98781	-43.12451	-31.73313	26.03744	1.62734	-40.6835	-30.91946	-14.64606	-25.22377	-34.98781	-54.51589	-49.63387	0
502	-19.52808	-41.49717	-31.73313	21.15542	4.88202	-43.12451	-31.73313	-11.39138	-23.59643	-33.36047	-56.14323	-51.26121	0
503	-10.57771	-39.05616	-26.03744	18.71441	3.25468	-45.56552	-34.98781	-8.95037	-24.4101	-31.73313	-55.32956	-50.44754	0
504	-4.88202	-35.80148	-21.15542	17.08707	3.25468	-43.93818	-39.05616	-7.32303	-29.29212	-30.10579	-56.9569	-52.07488	0
505	-2.44101	-32.5468	-20.34175	15.45973	4.88202	-38.24249	-40.6835	-7.32303	-33.36047	-30.91946	-59.39791	-54.51589	0
506	-4.88202	-26.03744	-17.08707	17.08707	3.25468	-31.73313	-39.05616	-8.1367	-34.98781	-32.5468	-61.02525	-53.70222	0
507	-9.76404	-19.52808	-10.57771	20.34175	1.62734	-30.10579	-35.80148	-8.1367	-33.36047	-32.5468	-61.02525	-50.44754	0
508	-11.39138	-17.90074	-2.44101	22.78276	3.25468	-31.73313	-34.17414	-7.32303	-31.73313	-29.29212	-61.02525	-50.44754	0
509	-11.39138	-22.78276	-0.81367	24.4101	4.88202	-31.73313	-33.36047	-6.50936	-29.29212	-26.85111	-60.21158	-51.26121	0
510	-11.39138	-27.66478	-5.69569	24.4101	5.69569	-30.91946	-31.73313	-4.88202	-26.85111	-25.22377	-55.32956	-49.63387	0
511	-9.76404	-30.91946	-15.45973	22.78276	7.32303	-32.5468	-30.91946	-2.44101	-23.59643	-24.4101	-50.44754	-48.00653	0
512	-6.50936	-30.10579	-29.29212	17.90074	8.95037	-33.36047	-29.29212	-1.62734	-21.15542	-24.4101	-45.56552	-47.19286	0
513	-4.06835	-28.47845	-41.49717	14.64606	5.69569	-30.91946	-26.03744	0	-19.52808	-26.03744	-40.6835	-44.75185	0
514	-5.69569	-27.66478	-43.12451	14.64606	1.62734	-26.85111	-23.59643	1.62734	-20.34175	-27.66478	-38.24249	-43.12451	0
515	-10.57771	-28.47845	-34.98781	17.90074	-1.62734	-23.59643	-23.59643	2.44101	-22.78276	-28.47845	-39.05616	-43.12451	0
516	-19.52808	-31.73313	-21.96909	23.59643	-7.32303	-19.52808	-24.4101	0.81367	-24.4101	-29.29212	-41.49717	-45.56552	0
517	-24.4101	-34.98781	-7.32303	28.47845	-9.76404	-17.08707	-26.03744	0	-26.03744	-31.73313	-45.56552	-49.63387	0
518	-20.34175	-36.61515	4.06835	27.66478	-4.06835	-19.52808	-28.47845	0	-26.85111	-34.98781	-50.44754	-51.26121	0
519	-14.64606	-36.61515	6.50936	25.22377	1.62734	-22.78276	-29.29212	-1.62734	-27.66478	-34.98781	-53.70222	-52.07488	0
520	-14.64606	-36.61515	1.62734	25.22377	1.62734	-25.22377	-26.85111	-0.81367	-26.85111	-32.5468	-52.88855	-51.26121	0
521	-16.2734	-35.80148	-4.88202	25.22377	0.81367	-26.85111	-25.22377	0.81367	-23.59643	-29.29212	-51.26121	-50.44754	0
522	-17.08707	-33.36047	-11.39138	24.4101	-0.81367	-31.73313	-26.03744	2.44101	-19.52808	-26.03744	-49.63387	-49.63387	0
523	-19.52808	-32.5468	-10.57771	24.4101	-6.50936	-37.42882	-28.47845	0.81367	-17.08707	-23.59643	-50.44754	-47.19286	0
524	-19.52808	-34.17414	-10.57771	25.22377	-8.1367	-40.6835	-32.5468	-3.25468	-18.71441	-22.78276	-52.88855	-45.56552	0
525	-15.45973	-36.61515	-17.08707	25.22377	-2.44101	-41.49717	-35.80148	-8.95037	-24.4101	-25.22377	-55.32956	-48.00653	0
526	-13.01872	-40.6835	-24.4101	25.22377	3.25468	-39.86983	-37.42882	-13.01872	-28.47845	-30.91946	-58.58424	-49.63387	0
527	-16.2734	-44.75185	-26.85111	29.29212	2.44101	-34.98781	-36.61515	-9.76404	-28.47845	-36.61515	-61.83892	-50.44754	0
528	-23.59643	-46.37919	-25.22377	34.17414	-2.44101	-29.29212	-34.98781	-3.25468	-23.59643	-42.31084	-64.27993	-53.70222	0
529	-23.59643	-43.93818	-25.22377	34.17414	-2.44101	-26.03744	-32.5468	0	-21.96909	-42.31084	-65.0936	-55.32956	0
530	-15.45973	-40.6835	-29.29212	28.47845	3.25468	-27.66478	-28.47845	0.81367	-21.96909	-39.86983	-63.46626	-56.14323	0
531	-4.88202	-37.42882	-37.42882	20.34175	13.01872	-34.17414	-26.03744	1.62734	-21.96909	-36.61515	-61.02525	-56.14323	0
532	3.25468	-34.17414	-48.8202	13.83239	20.34175	-40.6835	-23.59643	0.81367	-20.34175	-30.10579	-57.77057	-57.77057	0
533	7.32303	-33.36047	-57.77057	11.39138	21.15542	-43.12451	-21.15542	-2.44101	-20.34175	-21.15542	-53.70222	-60.21158	0
534	4.88202	-34.17414	-56.9569	12.20505	17.08707	-40.6835	-20.34175	-7.32303	-22.78276	-15.45973	-52.07488	-61.02525	0
535	-0.81367	-33.36047	-44.75185	16.2734	10.57771	-34.98781	-21.96909	-9.76404	-23.59643	-16.2734	-54.51589	-59.39791	0
536	-12.20505	-33.36047	-28.47845	21.96909	0.81367	-26.85111	-23.59643	-10.57771	-24.4101	-23.59643	-58.58424	-56.14323	0
537	-24.4101	-35.80148	-15.45973	30.10579	-8.95037	-17.90074	-26.85111	-8.95037	-24.4101	-30.10579	-64.27993	-54.51589	0
538	-33.36047	-38.24249	-11.39138	36.61515	-14.64606	-11.39138	-30.10579	-4.88202	-22.78276	-32.5468	-68.34828	-55.32956	0
539	-34.98781	-39.86983	-10.57771	39.05616	-15.45973	-9.76404	-30.10579	-2.44101	-21.15542	-34.17414	-67.53461	-54.51589	0
540	-34.98781	-39.05616	-9.76404	37.42882	-14.64606	-12.20505	-27.66478	0	-18.71441	-34.98781	-62.65259	-51.26121	0
541	-31.73313	-38.24249	-11.39138	34.98781	-12.20505	-17.90074	-25.22377	3.25468	-14.64606	-32.5468	-57.77057	-48.8202	0
542	-28.47845	-35.80148	-13.01872	31.73313	-10.57771	-23.59643	-23.59643	4.06835	-10.57771	-30.10579	-55.32956	-46.37919	0
543	-27.66478	-35.80148	-8.1367	30.91946	-13.01872	-26.03744	-25.22377	3.25468	-7.32303	-31.73313	-58.58424	-43.12451	0
544	-29.29212	-39.05616	-5.69569	32.5468	-15.45973	-27.66478	-27.66478	3.25468	-3.25468	-35.80148	-62.65259	-42.31084	0
545	-30.10579	-43.12451	-8.95037	34.98781	-13.01872	-30.10579	-29.29212	3.25468	-3.25468	-39.86983	-64.27993	-43.12451	0
546	-30.91946	-47.19286	-11.39138	38.24249	-11.39138	-30.91946	-27.66478	3.25468	-6.50936	-40.6835	-63.46626	-46.37919	0
547	-34.17414	-51.26121	-8.95037	41.49717	-10.57771	-31.73313	-23.59643	2.44101	-8.95037	-41.49717	-61.02525	-49.63387	0
548	-33.36047	-54.51589	-3.25468	43.12451	-7.32303	-34.17414	-18.71441	-1.62734	-11.39138	-44.75185	-58.58424	-52.07488	0
549	-29.29212	-54.51589	-3.25468	42.31084	-3.25468	-35.80148	-17.08707	-4.06835	-13.83239	-46.37919	-59.39791	-53.70222	0
550	-26.03744	-52.07488	-8.95037	39.05616	-0.81367	-35.80148	-17.90074	-1.62734	-14.64606	-45.56552	-62.65259	-55.32956	0
551	-21.15542	-48.00653	-17.90074	34.17414	1.62734	-37.42882	-17.90074	3.25468	-11.39138	-42.31084	-65.0936	-57.77057	0
552	-14.64606	-44.75185	-25.22377	27.66478	4.88202	-39.05616	-18.71441	8.1367	-7.32303	-39.05616	-68.34828	-57.77057	0
553	-9.76404	-42.31084	-26.85111	22.78276	5.69569	-39.05616	-19.52808	8.1367	-5.69569	-36.61515	-73.2303	-56.9569	0
554	-6.50936	-40.6835	-27.66478	20.34175	6.50936	-37.42882	-22.78276	4.06835	-8.1367	-36.61515	-78.11232	-56.14323	0
555	-1.62734	-39.86983	-32.5468	18.71441	11.39138	-38.24249	-25.22377	0	-13.01872	-39.05616	-81.367	-57.77057	0
556	-0.81367	-37.42882	-35.80148	18.71441	14.64606	-39.05616	-26.03744	-1.62734	-15.45973	-43.93818	-81.367	-59.39791	0
557	-5.69569	-34.17414	-36.61515	23.59643	13.01872	-40.6835	-26.03744	0.81367	-13.83239	-48.8202	-80.55333	-60.21158	0
558	-10.57771	-34.98781	-39.86983	29.29212	11.39138	-42.31084	-27.66478	5.69569	-11.39138	-54.51589	-80.55333	-59.39791	0
559	-13.83239	-39.86983	-42.31084	32.5468	9.76404	-43.12451	-30.10579	9.76404	-10.57771	-58.58424	-80.55333	-56.9569	0
560	-13.01872	-42.31084	-41.49717	31.73313	10.57771	-42.31084	-29.29212	11.39138	-9.76404	-56.9569	-77.29865	-53.70222	0
561	-5.69569	-39.05616	-41.49717	23.59643	14.64606	-39.05616	-26.03744	13.01872	-8.95037	-52.07488	-72.41663	-48.00653	0
562	0	-34.98781	-46.37919	17.08707	24.4101	-34.98781	-21.15542	12.20505	-8.1367	-44.75185	-66.72094	-40.6835	0
563	-2.44101	-34.98781	-50.44754	17.08707	35.80148	-31.73313	-14.64606	9.76404	-6.50936	-35.80148	-60.21158	-33.36047	0
564	-6.50936	-34.17414	-46.37919	19.52808	37.42882	-27.66478	-8.95037	10.57771	-2.44101	-30.91946	-56.14323	-30.91946	0
565	-8.95037	-30.91946	-36.61515	18.71441	28.47845	-23.59643	-6.50936	13.01872	0	-32.5468	-56.14323	-32.5468	0
566	-10.57771	-27.66478	-25.22377	17.90074	17.08707	-18.71441	-6.50936	13.01872	-0.81367	-36.61515	-58.58424	-35.80148	0
567	-17.08707	-26.85111	-13.01872	21.15542	1.62734	-12.20505	-4.06835	16.2734	-1.62734	-38.24249	-62.65259	-38.24249	0
568	-25.22377	-26.85111	-4.88202	25.22377	-10.57771	-7.32303	0.81367	23.59643	2.44101	-34.98781	-65.90727	-42.31084	0
569	-31.73313	-25.22377	0.81367	28.47845	-20.34175	-4.06835	6.50936	34.17414	11.39138	-32.5468	-63.46626	-43.12451	0
570	-38.24249	-23.59643	9.76404	30.91946	-28.47845	-0.81367	12.20505	43.12451	18.71441	-29.29212	-56.9569	-39.05616	0
571	-40.6835	-20.34175	16.2734	34.98781	-32.5468	0	18.71441	48.00653	23.59643	-22.78276	-48.8202	-34.17414	0
572	-34.98781	-16.2734	17.08707	39.05616	-30.10579	0	21.96909	49.63387	25.22377	-17.08707	-40.6835	-29.29212	0
573	-25.22377	-11.39138	17.90074	35.80148	-26.03744	0	21.15542	47.19286	22.78276	-16.2734	-33.36047	-24.4101	0
574	-17.90074	-5.69569	19.52808	26.85111	-22.78276	3.25468	19.52808	47.19286	17.08707	-17.90074	-31.73313	-21.96909	0
575	-14.64606	0	21.15542	17.08707	-21.15542	5.69569	20.34175	47.19286	12.20505	-19.52808	-33.36047	-21.96909	0
576	-18.71441	3.25468	27.66478	11.39138	-24.4101	10.57771	25.22377	47.19286	11.39138	-19.52808	-35.80148	-23.59643	0
577	-26.85111	4.88202	34.98781	11.39138	-32.5468	17.90074	30.10579	49.63387	13.83239	-18.71441	-37.42882	-25.22377	0
578	-33.36047	5.69569	38.24249	13.01872	-38.24249	27.66478	32.5468	53.70222	17.90074	-20.34175	-39.86983	-24.4101	0
579	-34.17414	8.95037	38.24249	11.39138	-39.86983	32.5468	34.17414	56.14323	20.34175	-19.52808	-41.49717	-22.78276	0
580	-30.10579	13.01872	38.24249	7.32303	-37.42882	34.17414	37.42882	57.77057	21.96909	-16.2734	-40.6835	-21.96909	0
581	-33.36047	18.71441	45.56552	6.50936	-42.31084	36.61515	43.12451	60.21158	24.4101	-11.39138	-38.24249	-19.52808	0
582	-47.19286	25.22377	57.77057	11.39138	-52.07488	43.12451	48.8202	61.83892	29.29212	-5.69569	-32.5468	-15.45973	0
583	-59.39791	30.91946	65.0936	15.45973	-53.70222	52.07488	53.70222	60.21158	31.73313	-1.62734	-24.4101	-13.83239	0
584	-65.90727	33.36047	73.2303	17.08707	-56.9569	60.21158	56.14323	58.58424	32.5468	1.62734	-17.90074	-13.01872	0
585	-65.0936	34.17414	79.73966	15.45973	-61.83892	63.46626	54.51589	55.32956	30.10579	2.44101	-16.2734	-13.01872	0
586	-44.75185	38.24249	71.60296	3.25468	-51.26121	60.21158	48.00653	50.44754	25.22377	-1.62734	-19.52808	-15.45973	0
587	-16.2734	43.93818	54.51589	-17.90074	-32.5468	55.32956	38.24249	40.6835	18.71441	-10.57771	-26.03744	-21.96909	0
588	-3.25468	50.44754	44.75185	-35.80148	-25.22377	52.88855	26.85111	29.29212	13.83239	-19.52808	-33.36047	-28.47845	0
589	0.81367	56.14323	42.31084	-45.56552	-23.59643	52.88855	14.64606	23.59643	10.57771	-23.59643	-37.42882	-30.91946	0
590	9.76404	62.65259	42.31084	-50.44754	-19.52808	54.51589	2.44101	22.78276	8.95037	-21.15542	-36.61515	-27.66478	0
591	20.34175	69.16195	41.49717	-55.32956	-13.83239	56.9569	-4.88202	25.22377	10.57771	-14.64606	-30.91946	-19.52808	0
592	30.10579	73.2303	41.49717	-60.21158	-8.95037	57.77057	-11.39138	25.22377	13.83239	-3.25468	-21.96909	-10.57771	0
593	35.80148	75.67131	45.56552	-61.83892	-8.95037	59.39791	-18.71441	20.34175	17.08707	6.50936	-13.01872	-6.50936	0
594	39.86983	80.55333	50.44754	-63.46626	-8.95037	63.46626	-23.59643	14.64606	21.96909	9.76404	-8.95037	-4.06835	0
595	43.12451	88.69003	53.70222	-67.53461	-8.1367	67.53461	-26.03744	11.39138	23.59643	7.32303	-8.95037	0	0
596	39.05616	95.19939	61.83892	-68.34828	-13.01872	69.16195	-28.47845	9.76404	19.52808	2.44101	-10.57771	4.06835	0
597	30.91946	99.26774	71.60296	-65.0936	-21.96909	71.60296	-32.5468	4.06835	8.1367	-4.88202	-14.64606	9.76404	0
598	24.4101	101.70875	75.67131	-62.65259	-27.66478	79.73966	-35.80148	-4.06835	-6.50936	-13.01872	-18.71441	14.64606	0
599	19.52808	104.14976	79.73966	-61.02525	-33.36047	90.31737	-39.05616	-11.39138	-17.08707	-16.2734	-20.34175	16.2734	0
600	14.64606	103.33609	82.99434	-58.58424	-37.42882	96.01306	-43.12451	-12.20505	-19.52808	-15.45973	-19.52808	17.08707	0
601	15.45973	100.08141	87.06269	-58.58424	-43.12451	96.01306	-48.00653	-9.76404	-15.45973	-13.01872	-17.08707	16.2734	0
602	21.15542	95.19939	94.38572	-58.58424	-53.70222	92.75838	-49.63387	-4.06835	-9.76404	-13.01872	-13.83239	14.64606	0
603	25.22377	90.31737	92.75838	-55.32956	-56.9569	82.99434	-48.8202	2.44101	-2.44101	-15.45973	-10.57771	14.64606	0
604	27.66478	81.367	75.67131	-50.44754	-43.12451	68.34828	-48.00653	5.69569	5.69569	-20.34175	-11.39138	12.20505	0
605	29.29212	69.97562	55.32956	-45.56552	-26.03744	54.51589	-45.56552	7.32303	12.20505	-21.15542	-13.83239	8.95037	0
606	24.4101	60.21158	36.61515	-43.12451	-14.64606	44.75185	-41.49717	12.20505	15.45973	-18.71441	-18.71441	5.69569	0
607	17.90074	52.07488	23.59643	-43.93818	-15.45973	35.80148	-37.42882	16.2734	13.01872	-13.83239	-22.78276	1.62734	0
608	17.08707	43.12451	17.08707	-42.31084	-23.59643	26.03744	-33.36047	14.64606	5.69569	-9.76404	-24.4101	-0.81367	0
609	18.71441	30.10579	10.57771	-34.98781	-22.78276	14.64606	-30.10579	13.83239	0.81367	-11.39138	-26.85111	-4.88202	0
610	17.90074	17.08707	0	-24.4101	-12.20505	3.25468	-30.91946	13.83239	0	-18.71441	-33.36047	-11.39138	0
611	9.76404	4.88202	-9.76404	-11.39138	0	-5.69569	-32.5468	13.01872	-1.62734	-26.85111	-39.05616	-18.71441	0
612	0	-4.88202	-23.59643	0	15.45973	-15.45973	-32.5468	12.20505	-2.44101	-31.73313	-41.49717	-23.59643	0
613	1.62734	-12.20505	-33.36047	2.44101	28.47845	-22.78276	-30.10579	11.39138	-3.25468	-34.98781	-40.6835	-25.22377	0
614	3.25468	-18.71441	-32.5468	4.88202	27.66478	-24.4101	-27.66478	12.20505	-6.50936	-34.98781	-40.6835	-26.03744	0
615	-5.69569	-25.22377	-22.78276	13.01872	14.64606	-22.78276	-27.66478	12.20505	-9.76404	-36.61515	-43.12451	-27.66478	0
616	-19.52808	-31.73313	-11.39138	24.4101	0	-22.78276	-27.66478	9.76404	-13.83239	-42.31084	-48.00653	-31.73313	0
617	-31.73313	-39.05616	0.81367	34.98781	-12.20505	-27.66478	-30.10579	6.50936	-17.08707	-51.26121	-52.88855	-38.24249	0
618	-34.17414	-43.93818	10.57771	39.86983	-13.83239	-33.36047	-33.36047	4.06835	-20.34175	-61.02525	-54.51589	-42.31084	0
619	-30.91946	-46.37919	9.76404	39.05616	-10.57771	-35.80148	-35.80148	2.44101	-23.59643	-66.72094	-56.9569	-45.56552	0
620	-29.29212	-47.19286	1.62734	38.24249	-7.32303	-35.80148	-34.17414	4.06835	-24.4101	-66.72094	-60.21158	-48.8202	0
621	-26.03744	-48.8202	-10.57771	36.61515	-3.25468	-34.17414	-30.91946	6.50936	-22.78276	-64.27993	-64.27993	-52.07488	0
622	-21.15542	-52.07488	-23.59643	34.17414	0.81367	-30.91946	-30.91946	7.32303	-20.34175	-62.65259	-65.0936	-53.70222	0
623	-18.71441	-57.77057	-30.91946	34.98781	3.25468	-31.73313	-35.80148	3.25468	-20.34175	-62.65259	-63.46626	-52.88855	0
624	-16.2734	-62.65259	-37.42882	36.61515	6.50936	-39.05616	-42.31084	-2.44101	-24.4101	-61.83892	-63.46626	-53.70222	0
625	-12.20505	-65.90727	-46.37919	37.42882	13.01872	-48.8202	-45.56552	-6.50936	-29.29212	-63.46626	-66.72094	-56.14323	0
626	-8.95037	-69.97562	-50.44754	38.24249	20.34175	-57.77057	-45.56552	-8.1367	-33.36047	-68.34828	-71.60296	-60.21158	0
627	-6.50936	-76.48498	-51.26121	40.6835	28.47845	-63.46626	-43.12451	-8.1367	-36.61515	-74.04397	-77.29865	-65.90727	0
628	-10.57771	-85.43535	-53.70222	48.8202	29.29212	-64.27993	-39.05616	-4.88202	-37.42882	-77.29865	-82.99434	-69.97562	0
629	-21.15542	-91.13104	-56.14323	56.9569	22.78276	-64.27993	-35.80148	0	-33.36047	-78.92599	-85.43535	-71.60296	0
630	-27.66478	-89.5037	-54.51589	58.58424	15.45973	-62.65259	-33.36047	4.88202	-28.47845	-76.48498	-82.99434	-70.78929	0
631	-28.47845	-82.18067	-52.88855	55.32956	12.20505	-61.83892	-30.10579	11.39138	-22.78276	-70.78929	-75.67131	-67.53461	0
632	-23.59643	-72.41663	-56.9569	48.00653	12.20505	-62.65259	-25.22377	14.64606	-17.08707	-64.27993	-65.90727	-63.46626	0
633	-19.52808	-65.0936	-62.65259	42.31084	8.95037	-60.21158	-20.34175	14.64606	-12.20505	-62.65259	-56.9569	-57.77057	0
634	-19.52808	-60.21158	-59.39791	39.86983	4.88202	-55.32956	-18.71441	14.64606	-7.32303	-64.27993	-52.88855	-54.51589	0
635	-21.96909	-56.9569	-49.63387	39.86983	0.81367	-48.8202	-19.52808	14.64606	-6.50936	-65.0936	-52.88855	-54.51589	0
636	-20.34175	-56.14323	-34.17414	38.24249	-5.69569	-41.49717	-21.15542	13.01872	-9.76404	-66.72094	-55.32956	-54.51589	0
637	-13.83239	-59.39791	-20.34175	36.61515	-16.2734	-35.80148	-23.59643	11.39138	-13.83239	-69.97562	-59.39791	-52.88855	0
638	-16.2734	-65.90727	-13.83239	41.49717	-24.4101	-38.24249	-26.85111	11.39138	-16.2734	-74.04397	-64.27993	-51.26121	0
639	-32.5468	-72.41663	-11.39138	52.88855	-30.10579	-47.19286	-26.85111	9.76404	-19.52808	-73.2303	-65.90727	-51.26121	0
640	-46.37919	-78.11232	-13.83239	61.83892	-29.29212	-52.88855	-24.4101	9.76404	-21.96909	-70.78929	-65.0936	-55.32956	0
641	-56.14323	-82.99434	-20.34175	69.16195	-25.22377	-53.70222	-22.78276	9.76404	-22.78276	-69.97562	-65.90727	-62.65259	0
642	-65.0936	-86.24902	-21.96909	75.67131	-25.22377	-53.70222	-21.96909	12.20505	-24.4101	-72.41663	-71.60296	-74.04397	0
643	-74.85764	-89.5037	-18.71441	80.55333	-29.29212	-54.51589	-13.01872	20.34175	-31.73313	-83.80801	-85.43535	-90.31737	0
644	-91.94471	-94.38572	-8.95037	89.5037	-40.6835	-52.88855	18.71441	22.78276	-48.00653	-108.21811	-109.03178	-112.28646	-1250	T-0
645	-124.49151	-102.52242	12.20505	108.21811	-66.72094	-45.56552	79.73966	14.64606	-79.73966	-151.34262	-148.90161	-144.83326	0
646	-163.54767	-109.84545	46.37919	131.81454	-104.14976	-30.91946	157.03831	0.81367	-132.62821	-217.24989	-206.67218	-189.58511	0
647	-201.79016	-110.65912	87.87636	153.78363	-144.83326	-7.32303	235.15063	-23.59643	-208.29952	-296.98955	-270.95211	-236.77797	0
648	-243.28733	-100.08141	139.13757	170.8707	-192.83979	25.22377	296.17588	-69.16195	-296.98955	-379.17022	-330.35002	-279.90248	0
649	-285.59817	-75.67131	204.23117	180.63474	-248.16935	70.78929	331.97736	-135.06922	-389.74793	-455.6552	-379.17022	-311.63561	0
650	-323.02699	-37.42882	280.71615	180.63474	-305.12625	126.11885	344.18241	-213.18154	-480.0653	-517.49412	-409.27601	-323.02699	0
651	-360.45581	7.32303	363.71049	176.56639	-351.50544	187.95777	341.7414	-288.85285	-558.99129	-558.17762	-417.41271	-316.51763	0
652	-391.37527	55.32956	441.82281	167.61602	-377.54288	246.54201	331.97736	-351.50544	-616.76186	-576.07836	-404.39399	-297.80322	0
653	-391.37527	101.70875	492.27035	144.83326	-388.93426	291.29386	313.26295	-398.6983	-650.936	-568.75533	-371.03352	-262.81541	0
654	-353.94645	148.90161	506.10274	102.52242	-387.30692	321.39965	276.6478	-441.00914	-658.25903	-529.69917	-306.75359	-200.97649	0
655	-292.10753	201.79016	497.96604	44.75185	-367.77884	345.80975	205.85851	-497.96604	-638.73095	-451.58685	-205.85851	-109.03178	0
656	-205.04484	267.69743	486.57466	-30.91946	-327.90901	371.84719	91.13104	-589.09708	-604.55681	-341.7414	-74.04397	9.76404	0
657	-98.45407	348.25076	479.25163	-124.49151	-270.95211	402.76665	-54.51589	-712.77492	-574.45102	-213.18154	78.11232	147.27427	0
658	0.81367	437.75446	475.18328	-218.87723	-214.80888	443.45015	-209.11319	-854.3535	-559.80496	-78.92599	235.9643	288.03918	0
659	79.73966	528.07183	476.81062	-303.49891	-170.8707	493.08402	-366.96517	-1008.13713	-545.1589	42.31084	380.79756	418.22638	0
660	148.08794	609.43883	478.43796	-378.35655	-137.51023	539.46321	-535.39486	-1174.93948	-523.18981	148.08794	510.17109	537.0222	0
661	212.36787	661.51371	454.84153	-440.19547	-101.70875	555.73661	-712.77492	-1324.65476	-498.77971	250.61036	626.5259	644.42664	0
662	273.39312	663.14105	387.30692	-484.94732	-46.37919	521.56247	-882.83195	-1418.22681	-456.46887	361.26948	730.67566	732.303	0
663	341.7414	616.76186	273.39312	-513.42577	35.80148	441.00914	-1023.59686	-1455.65563	-376.72921	486.57466	821.8067	801.46495	0
664	414.9717	548.41358	133.44188	-519.93513	137.51023	336.85938	-1130.18763	-1449.14627	-261.18807	628.15324	907.24205	855.98084	0
665	480.87897	476.81062	-1.62734	-508.54375	237.59164	234.33696	-1213.99564	-1411.71745	-120.42316	781.1232	991.05006	902.36003	0
666	544.34523	410.08968	-131.81454	-496.3387	334.41837	138.3239	-1279.08924	-1358.8289	24.4101	926.77013	1064.28036	942.22986	0
667	611.06617	342.55507	-265.25642	-485.76099	435.31345	41.49717	-1323.02742	-1301.872	146.4606	1033.3609	1111.47322	970.70831	0
668	661.51371	262.00174	-398.6983	-463.7919	527.25816	-61.83892	-1347.43752	-1241.66042	220.50457	1068.34871	1109.03221	973.14932	0
669	677.78711	161.10666	-512.6121	-418.22638	594.79277	-171.68437	-1349.87853	-1181.44884	235.9643	1012.20548	1037.42925	933.27949	0
670	659.88637	46.37919	-598.04745	-351.50544	636.28994	-279.90248	-1327.90944	-1129.37396	186.33043	863.30387	891.78232	845.40313	0
671	607.81149	-69.97562	-658.25903	-266.88376	643.61297	-374.2882	-1283.15759	-1091.94514	71.60296	633.03526	679.41445	708.70657	0
672	528.8855	-176.56639	-689.99216	-174.12538	617.57553	-445.89116	-1223.75968	-1068.34871	-91.13104	350.69177	429.61776	539.46321	0
673	446.70483	-258.74706	-694.87418	-92.75838	575.26469	-489.01567	-1157.85241	-1047.19329	-270.13844	68.34828	188.77144	371.03352	0
674	373.47453	-314.07662	-681.04179	-28.47845	528.07183	-505.28907	-1087.06312	-1017.0875	-428.80409	-168.42969	-3.25468	229.45494	0
675	302.68524	-349.8781	-651.74967	23.59643	476.81062	-503.66173	-1006.50979	-969.08097	-542.71789	-340.11406	-142.39225	114.72747	0
676	240.03265	-372.66086	-615.94819	65.90727	427.99042	-491.45668	-911.3104	-899.10535	-598.04745	-442.63648	-235.9643	18.71441	0
677	187.95777	-385.67958	-577.7057	98.45407	382.4249	-475.18328	-799.02394	-806.34697	-593.9791	-481.69264	-292.9212	-60.21158	0
678	133.44188	-394.62995	-532.14018	131.00087	331.97736	-454.84153	-675.3461	-694.87418	-541.09055	-471.9286	-317.3313	-124.49151	0
679	74.04397	-400.32564	-480.0653	163.54767	275.02046	-432.05877	-551.66826	-576.07836	-460.53722	-433.68611	-320.58598	-170.8707	0
680	19.52808	-402.76665	-427.99042	192.02612	221.31824	-409.27601	-439.3818	-462.97823	-375.91554	-384.05224	-309.1946	-200.97649	0
681	-18.71441	-400.32564	-376.72921	214.80888	170.8707	-385.67958	-344.99608	-363.71049	-297.80322	-332.79103	-290.48019	-216.43622	0
682	-35.80148	-386.49325	-323.84066	227.01393	131.00087	-356.38746	-270.13844	-276.6478	-227.01393	-282.34349	-266.88376	-219.6909	0
683	-39.05616	-357.20113	-276.6478	218.87723	112.28646	-322.21332	-210.74053	-198.53548	-163.54767	-234.33696	-239.21898	-210.74053	0
684	-38.24249	-316.51763	-237.59164	195.2808	103.33609	-283.15716	-159.47932	-128.55986	-107.40444	-189.58511	-206.67218	-189.58511	0
685	-36.61515	-272.57945	-205.04484	165.98868	91.94471	-244.91467	-112.28646	-65.0936	-59.39791	-149.71528	-172.49804	-163.54767	0
686	-38.24249	-236.77797	-179.82107	143.20592	77.29865	-210.74053	-71.60296	-12.20505	-22.78276	-119.60949	-144.83326	-143.20592	0
687	-43.93818	-216.43622	-162.734	132.62821	63.46626	-187.95777	-40.6835	26.03744	0	-102.52242	-128.55986	-132.62821	0
688	-46.37919	-205.04484	-158.66565	127.74619	56.9569	-178.19373	-18.71441	54.51589	13.83239	-93.57205	-122.0505	-129.37353	0
689	-44.75185	-193.65346	-160.29299	122.86417	56.14323	-174.93905	-2.44101	77.29865	25.22377	-89.5037	-121.23683	-129.37353	0
690	-37.42882	-179.82107	-157.85198	113.10013	56.9569	-168.42969	10.57771	96.01306	34.98781	-84.62168	-117.98215	-126.93252	0
691	-24.4101	-163.54767	-152.96996	96.82673	61.02525	-156.22464	21.96909	113.10013	44.75185	-75.67131	-109.03178	-119.60949	0
692	-3.25468	-150.52895	-151.34262	80.55333	70.78929	-139.95124	32.5468	128.55986	52.88855	-64.27993	-97.6404	-109.03178	0
693	18.71441	-139.95124	-149.71528	70.78929	80.55333	-125.30518	41.49717	142.39225	60.21158	-51.26121	-85.43535	-100.08141	0
694	22.78276	-131.81454	-138.3239	68.34828	77.29865	-115.54114	47.19286	149.71528	67.53461	-45.56552	-78.11232	-96.82673	0
695	4.88202	-126.93252	-117.16848	72.41663	58.58424	-109.03178	51.26121	152.96996	71.60296	-45.56552	-75.67131	-97.6404	0
696	-12.20505	-122.86417	-97.6404	74.85764	40.6835	-107.40444	52.07488	155.41097	71.60296	-49.63387	-75.67131	-101.70875	0
697	-23.59643	-116.35481	-87.87636	69.16195	30.91946	-107.40444	50.44754	156.22464	68.34828	-56.9569	-78.92599	-107.40444	0
698	-37.42882	-110.65912	-80.55333	60.21158	20.34175	-107.40444	48.8202	155.41097	65.0936	-65.90727	-84.62168	-112.28646	0
699	-42.31084	-108.21811	-81.367	55.32956	17.08707	-108.21811	46.37919	154.5973	61.02525	-69.97562	-87.87636	-114.72747	0
700	-34.98781	-109.84545	-88.69003	54.51589	24.4101	-109.84545	45.56552	155.41097	58.58424	-67.53461	-87.87636	-116.35481	0
701	-26.03744	-113.9138	-90.31737	56.14323	25.22377	-109.84545	44.75185	158.66565	61.02525	-61.83892	-84.62168	-114.72747	0
702	-19.52808	-118.79582	-85.43535	58.58424	21.15542	-104.96343	47.19286	164.36134	65.0936	-51.26121	-78.11232	-109.84545	0
703	-22.78276	-121.23683	-82.99434	64.27993	23.59643	-96.82673	52.88855	173.31171	71.60296	-39.05616	-69.97562	-105.7771	0
704	-31.73313	-117.16848	-78.92599	69.97562	25.22377	-87.87636	57.77057	179.0074	79.73966	-31.73313	-63.46626	-102.52242	0
705	-39.05616	-111.47279	-70.78929	73.2303	20.34175	-82.18067	60.21158	179.82107	83.80801	-30.91946	-61.02525	-97.6404	0
706	-48.00653	-109.84545	-61.83892	78.11232	11.39138	-78.11232	60.21158	179.82107	83.80801	-34.17414	-61.02525	-95.19939	0
707	-55.32956	-111.47279	-54.51589	83.80801	2.44101	-74.04397	57.77057	181.44841	82.18067	-36.61515	-63.46626	-95.19939	0
708	-54.51589	-110.65912	-56.14323	83.80801	1.62734	-69.97562	54.51589	183.07575	81.367	-35.80148	-67.53461	-94.38572	0
709	-49.63387	-107.40444	-61.02525	79.73966	4.06835	-70.78929	52.88855	183.88942	80.55333	-34.17414	-69.97562	-93.57205	0
710	-43.12451	-104.14976	-64.27993	74.04397	8.1367	-73.2303	53.70222	186.33043	81.367	-33.36047	-69.16195	-94.38572	0
711	-31.73313	-99.26774	-70.78929	65.90727	17.08707	-79.73966	56.14323	191.21245	84.62168	-31.73313	-66.72094	-96.01306	0
712	-20.34175	-93.57205	-77.29865	56.9569	26.03744	-88.69003	56.14323	192.83979	88.69003	-30.10579	-65.0936	-96.01306	0
713	-13.01872	-90.31737	-78.11232	52.07488	29.29212	-96.82673	53.70222	192.83979	91.13104	-27.66478	-65.90727	-94.38572	0
714	-10.57771	-91.94471	-78.11232	51.26121	30.10579	-100.08141	50.44754	190.39878	89.5037	-26.03744	-67.53461	-93.57205	0
715	-6.50936	-95.19939	-85.43535	51.26121	36.61515	-102.52242	47.19286	187.1441	84.62168	-29.29212	-69.16195	-96.82673	0
716	-4.06835	-98.45407	-97.6404	51.26121	41.49717	-104.96343	43.93818	185.51676	79.73966	-34.98781	-72.41663	-100.08141	0
717	-8.1367	-100.08141	-109.03178	54.51589	39.05616	-104.14976	44.75185	187.1441	79.73966	-37.42882	-69.97562	-98.45407	0
718	-13.01872	-100.08141	-109.84545	55.32956	32.5468	-96.82673	50.44754	195.2808	87.06269	-34.98781	-61.83892	-91.13104	0
719	-15.45973	-93.57205	-96.01306	52.07488	26.03744	-82.99434	58.58424	207.48585	100.08141	-31.73313	-51.26121	-83.80801	0
720	-20.34175	-83.80801	-74.85764	49.63387	17.08707	-69.97562	66.72094	219.6909	111.47279	-25.22377	-43.12451	-78.11232	0
721	-25.22377	-74.85764	-57.77057	48.00653	9.76404	-61.02525	71.60296	228.64127	119.60949	-15.45973	-37.42882	-74.04397	0
722	-28.47845	-68.34828	-44.75185	47.19286	4.88202	-59.39791	75.67131	232.70962	124.49151	-7.32303	-32.5468	-72.41663	0
723	-34.98781	-65.0936	-29.29212	49.63387	-4.06835	-59.39791	80.55333	233.52329	126.11885	-2.44101	-26.85111	-69.97562	0
724	-40.6835	-64.27993	-19.52808	53.70222	-12.20505	-57.77057	83.80801	231.89595	123.67784	0	-25.22377	-67.53461	0
725	-39.05616	-65.0936	-21.15542	52.88855	-10.57771	-56.14323	82.99434	230.26861	120.42316	-0.81367	-27.66478	-69.16195	0
726	-34.17414	-66.72094	-26.85111	50.44754	-4.06835	-53.70222	79.73966	227.8276	116.35481	-4.06835	-33.36047	-74.04397	0
727	-32.5468	-70.78929	-33.36047	51.26121	0	-49.63387	74.85764	227.01393	112.28646	-7.32303	-40.6835	-81.367	0
728	-30.10579	-74.85764	-42.31084	52.88855	4.88202	-46.37919	69.97562	227.8276	110.65912	-7.32303	-47.19286	-85.43535	0
729	-22.78276	-74.04397	-52.07488	49.63387	12.20505	-45.56552	67.53461	228.64127	108.21811	-5.69569	-49.63387	-87.06269	0
730	-13.01872	-67.53461	-56.9569	40.6835	19.52808	-48.00653	69.16195	231.08228	109.03178	-4.06835	-47.19286	-88.69003	0
731	-11.39138	-61.83892	-54.51589	36.61515	18.71441	-52.07488	74.04397	236.77797	113.10013	-1.62734	-43.12451	-87.87636	0
732	-22.78276	-59.39791	-47.19286	41.49717	13.83239	-56.14323	80.55333	244.91467	119.60949	4.06835	-39.05616	-83.80801	0
733	-35.80148	-60.21158	-45.56552	48.8202	15.45973	-56.14323	88.69003	255.49238	128.55986	13.83239	-34.98781	-81.367	0
734	-43.12451	-63.46626	-43.93818	53.70222	15.45973	-53.70222	95.19939	262.00174	138.3239	19.52808	-30.91946	-79.73966	0
735	-46.37919	-65.90727	-37.42882	56.14323	8.1367	-50.44754	98.45407	264.44275	143.20592	20.34175	-26.03744	-77.29865	0
736	-40.6835	-67.53461	-32.5468	52.07488	4.06835	-45.56552	101.70875	267.69743	144.83326	19.52808	-21.96909	-76.48498	0
737	-23.59643	-69.16195	-29.29212	40.6835	10.57771	-42.31084	104.14976	272.57945	145.64693	19.52808	-19.52808	-77.29865	0
738	-6.50936	-67.53461	-24.4101	30.10579	20.34175	-43.12451	103.33609	276.6478	145.64693	21.96909	-20.34175	-76.48498	0
739	0	-64.27993	-23.59643	26.85111	24.4101	-46.37919	101.70875	279.08881	144.01959	22.78276	-21.15542	-74.85764	0
740	-4.88202	-62.65259	-26.03744	30.10579	19.52808	-48.00653	102.52242	281.52982	144.01959	24.4101	-19.52808	-74.04397	0
741	-13.83239	-63.46626	-28.47845	34.98781	12.20505	-45.56552	106.59077	286.41184	147.27427	28.47845	-13.83239	-69.97562	0
742	-20.34175	-63.46626	-34.17414	36.61515	4.88202	-36.61515	114.72747	291.29386	153.78363	34.98781	-4.88202	-64.27993	0
743	-25.22377	-58.58424	-39.86983	35.80148	-4.88202	-25.22377	123.67784	294.54854	158.66565	39.05616	3.25468	-61.02525	0
744	-29.29212	-48.8202	-35.80148	34.17414	-13.83239	-17.08707	129.37353	296.98955	160.29299	42.31084	8.95037	-60.21158	0
745	-28.47845	-39.05616	-26.85111	30.91946	-15.45973	-13.83239	131.00087	298.61689	159.47932	42.31084	9.76404	-59.39791	0
746	-28.47845	-33.36047	-24.4101	29.29212	-15.45973	-16.2734	129.37353	300.24423	157.85198	40.6835	4.88202	-61.02525	0
747	-27.66478	-30.10579	-29.29212	30.91946	-12.20505	-24.4101	128.55986	301.87157	155.41097	38.24249	-0.81367	-64.27993	0
748	-21.15542	-30.10579	-29.29212	30.10579	-4.06835	-33.36047	130.1872	306.75359	153.78363	39.05616	-7.32303	-65.0936	0
749	-12.20505	-33.36047	-28.47845	26.85111	6.50936	-39.86983	132.62821	313.26295	152.15629	39.86983	-11.39138	-65.0936	0
750	-4.88202	-35.80148	-30.91946	23.59643	13.83239	-41.49717	135.06922	319.77231	152.96996	40.6835	-10.57771	-66.72094	0
751	0.81367	-34.98781	-34.98781	17.08707	19.52808	-36.61515	139.95124	325.468	157.03831	43.93818	-6.50936	-66.72094	0
752	6.50936	-30.10579	-33.36047	9.76404	21.15542	-27.66478	145.64693	331.16369	165.17501	48.8202	0	-62.65259	0
753	5.69569	-21.96909	-21.15542	5.69569	13.01872	-21.96909	151.34262	337.67305	174.93905	53.70222	8.1367	-57.77057	0
754	4.06835	-15.45973	-10.57771	4.06835	5.69569	-20.34175	156.22464	344.18241	182.26208	55.32956	13.01872	-56.9569	0
755	6.50936	-11.39138	-11.39138	0.81367	7.32303	-19.52808	158.66565	346.62342	182.26208	53.70222	13.01872	-59.39791	0
756	8.1367	-4.06835	-18.71441	0	18.71441	-16.2734	163.54767	349.06443	179.82107	52.88855	13.01872	-58.58424	0
757	0.81367	7.32303	-25.22377	2.44101	32.5468	-8.95037	173.31171	356.38746	180.63474	57.77057	14.64606	-56.14323	0
758	-9.76404	17.08707	-21.15542	7.32303	30.10579	0.81367	187.1441	368.59251	183.88942	68.34828	17.08707	-54.51589	0
759	-17.90074	20.34175	-4.06835	8.1367	12.20505	13.01872	197.72181	381.61123	186.33043	77.29865	21.15542	-52.88855	0
760	-22.78276	21.96909	14.64606	6.50936	-6.50936	22.78276	204.23117	392.18894	188.77144	82.99434	27.66478	-48.8202	0
761	-21.96909	20.34175	28.47845	1.62734	-19.52808	30.10579	210.74053	398.6983	193.65346	87.06269	33.36047	-45.56552	0
762	-15.45973	18.71441	30.10579	-6.50936	-25.22377	39.05616	217.24989	406.835	198.53548	93.57205	40.6835	-43.93818	0
763	-10.57771	22.78276	26.85111	-13.83239	-31.73313	48.8202	222.94558	414.9717	205.85851	101.70875	48.00653	-43.93818	0
764	-8.95037	30.91946	29.29212	-17.08707	-37.42882	57.77057	228.64127	420.66739	213.18154	105.7771	52.07488	-41.49717	0
765	-11.39138	38.24249	39.86983	-17.90074	-41.49717	60.21158	235.15063	423.1084	218.06356	104.96343	53.70222	-37.42882	0
766	-19.52808	43.93818	48.8202	-13.83239	-48.00653	59.39791	242.47366	426.36308	218.06356	103.33609	54.51589	-30.10579	0
767	-29.29212	51.26121	51.26121	-8.1367	-56.14323	58.58424	253.05137	431.2451	218.87723	100.08141	55.32956	-25.22377	0
768	-33.36047	59.39791	55.32956	-8.1367	-61.83892	61.83892	265.25642	437.75446	219.6909	96.82673	56.14323	-22.78276	0
769	-30.91946	66.72094	65.0936	-13.01872	-61.83892	69.16195	275.02046	441.00914	217.24989	97.6404	60.21158	-21.15542	0
770	-25.22377	70.78929	74.04397	-19.52808	-58.58424	74.85764	281.52982	443.45015	215.62255	101.70875	65.0936	-18.71441	0
771	-24.4101	71.60296	82.18067	-26.85111	-57.77057	76.48498	288.03918	447.5185	215.62255	106.59077	70.78929	-14.64606	0
772	-31.73313	72.41663	97.6404	-34.17414	-61.02525	82.18067	295.36221	454.02786	218.87723	115.54114	78.11232	-8.95037	0
773	-37.42882	77.29865	115.54114	-39.05616	-59.39791	91.13104	301.87157	462.97823	224.57292	127.74619	83.80801	-4.88202	0
774	-39.86983	84.62168	129.37353	-38.24249	-61.83892	102.52242	308.38093	468.67392	232.70962	136.69656	89.5037	0	0
775	-42.31084	92.75838	140.76491	-35.80148	-73.2303	112.28646	318.14497	471.11493	237.59164	139.95124	97.6404	7.32303	0
776	-44.75185	102.52242	151.34262	-39.86983	-85.43535	119.60949	327.09534	472.74227	238.40531	141.57858	106.59077	16.2734	0
777	-45.56552	113.9138	157.85198	-52.88855	-94.38572	127.74619	332.79103	469.48759	231.89595	139.13757	112.28646	26.03744	0
778	-38.24249	124.49151	155.41097	-64.27993	-94.38572	133.44188	333.6047	462.16456	222.13191	133.44188	113.9138	34.17414	0
779	-27.66478	129.37353	148.08794	-67.53461	-89.5037	135.88289	334.41837	458.09621	217.24989	131.00087	116.35481	36.61515	0
780	-22.78276	133.44188	144.83326	-64.27993	-86.24902	136.69656	336.85938	457.28254	214.80888	132.62821	119.60949	35.80148	0
781	-19.52808	139.95124	144.01959	-55.32956	-84.62168	140.76491	340.11406	456.46887	213.18154	135.88289	124.49151	35.80148	0
782	-12.20505	148.90161	140.76491	-48.00653	-81.367	152.15629	345.80975	454.84153	212.36787	142.39225	131.00087	38.24249	0
783	-4.88202	157.85198	137.51023	-49.63387	-82.18067	165.17501	353.94645	449.95951	209.92686	146.4606	135.88289	41.49717	0
784	-3.25468	165.17501	143.20592	-58.58424	-87.87636	173.31171	359.64214	441.82281	202.60383	148.08794	140.76491	47.19286	0
785	-6.50936	170.8707	160.29299	-67.53461	-95.19939	178.19373	363.71049	435.31345	195.2808	149.71528	147.27427	56.9569	0
786	-4.06835	181.44841	183.07575	-80.55333	-104.96343	181.44841	369.40618	432.05877	191.21245	153.78363	156.22464	69.97562	0
787	8.1367	194.46713	208.29952	-99.26774	-112.28646	188.77144	375.10187	430.43143	185.51676	156.22464	165.98868	82.99434	0
788	21.15542	206.67218	228.64127	-113.9138	-111.47279	200.97649	376.72921	427.17675	176.56639	154.5973	171.68437	90.31737	0
789	27.66478	217.24989	235.15063	-122.86417	-104.96343	212.36787	376.72921	421.48106	170.05703	153.78363	176.56639	95.19939	0
790	27.66478	225.38659	231.08228	-127.74619	-100.08141	218.87723	376.72921	412.53069	165.98868	156.22464	182.26208	100.08141	0
791	17.08707	231.08228	229.45494	-123.67784	-104.14976	222.94558	376.72921	400.32564	159.47932	159.47932	188.77144	108.21811	0
792	-4.88202	235.9643	231.08228	-110.65912	-112.28646	227.01393	377.54288	384.05224	152.15629	161.92033	196.09447	116.35481	0
793	-23.59643	236.77797	230.26861	-100.08141	-113.10013	233.52329	380.79756	365.33783	141.57858	162.734	205.04484	121.23683	0
794	-31.73313	234.33696	231.89595	-95.19939	-114.72747	240.03265	382.4249	346.62342	127.74619	164.36134	211.5542	125.30518	0
795	-32.5468	232.70962	237.59164	-96.82673	-121.23683	244.101	380.79756	329.53635	113.10013	163.54767	213.99521	130.1872	0
796	-28.47845	235.15063	245.72834	-100.08141	-128.55986	247.35568	375.10187	310.00827	97.6404	157.85198	212.36787	134.25555	0
797	-23.59643	238.40531	258.74706	-102.52242	-132.62821	251.42403	366.96517	289.66652	78.92599	145.64693	206.67218	135.06922	0
798	-15.45973	240.84632	270.13844	-106.59077	-130.1872	255.49238	358.82847	270.13844	60.21158	132.62821	201.79016	133.44188	0
799	-4.06835	244.101	270.95211	-114.72747	-124.49151	256.30605	351.50544	253.86504	48.8202	125.30518	200.97649	134.25555	0
800	2.44101	247.35568	264.44275	-122.0505	-120.42316	254.67871	344.18241	237.59164	42.31084	124.49151	204.23117	139.95124	0
801	7.32303	252.2377	264.44275	-128.55986	-128.55986	254.67871	336.85938	220.50457	35.80148	126.93252	210.74053	148.08794	0
802	8.1367	257.11972	271.76578	-131.81454	-142.39225	258.74706	327.09534	200.97649	28.47845	129.37353	216.43622	160.29299	0
803	0.81367	258.74706	272.57945	-129.37353	-144.83326	263.62908	315.70396	178.19373	17.08707	128.55986	217.24989	170.05703	0
804	-10.57771	257.93339	270.95211	-122.0505	-143.20592	267.69743	304.31258	154.5973	3.25468	124.49151	216.43622	174.12538	0
805	-20.34175	254.67871	271.76578	-116.35481	-144.83326	267.69743	292.9212	133.44188	-12.20505	117.16848	214.80888	172.49804	0
806	-26.85111	248.16935	270.95211	-109.84545	-146.4606	259.56073	279.08881	113.10013	-29.29212	105.7771	209.92686	165.17501	0
807	-34.17414	240.84632	275.02046	-100.08141	-148.90161	244.91467	263.62908	91.94471	-50.44754	89.5037	204.23117	157.03831	0
808	-38.24249	232.70962	278.27514	-91.94471	-149.71528	232.70962	250.61036	71.60296	-73.2303	72.41663	202.60383	152.15629	0
809	-37.42882	223.75925	272.57945	-87.87636	-144.83326	226.20026	236.77797	55.32956	-89.5037	61.83892	199.34915	146.4606	0
810	-29.29212	217.24989	257.11972	-91.13104	-135.88289	221.31824	222.94558	39.86983	-96.82673	56.9569	193.65346	141.57858	0
811	-14.64606	213.18154	235.15063	-98.45407	-120.42316	218.87723	209.92686	27.66478	-96.82673	55.32956	187.95777	136.69656	0
812	-3.25468	209.11319	217.24989	-110.65912	-109.03178	219.6909	198.53548	16.2734	-94.38572	53.70222	180.63474	131.00087	0
813	-4.06835	205.85851	211.5542	-122.0505	-109.03178	218.87723	183.88942	2.44101	-96.01306	48.00653	168.42969	122.0505	0
814	-11.39138	197.72181	207.48585	-120.42316	-112.28646	210.74053	167.61602	-12.20505	-103.33609	38.24249	154.5973	113.9138	0
815	-17.90074	183.07575	200.97649	-105.7771	-112.28646	197.72181	152.15629	-25.22377	-111.47279	26.85111	141.57858	104.96343	0
816	-28.47845	165.17501	192.02612	-88.69003	-113.9138	184.70309	138.3239	-33.36047	-115.54114	17.90074	131.00087	95.19939	0
817	-42.31084	148.08794	186.33043	-74.04397	-119.60949	172.49804	129.37353	-34.98781	-114.72747	10.57771	126.11885	87.06269	0
818	-54.51589	134.25555	184.70309	-57.77057	-122.0505	160.29299	122.86417	-31.73313	-110.65912	2.44101	126.11885	82.99434	0
819	-59.39791	122.0505	182.26208	-43.12451	-119.60949	149.71528	114.72747	-26.03744	-109.03178	-1.62734	122.86417	79.73966	0
820	-56.9569	111.47279	170.8707	-33.36047	-112.28646	138.3239	104.14976	-23.59643	-107.40444	-2.44101	113.9138	74.04397	0
821	-48.8202	98.45407	157.85198	-29.29212	-98.45407	124.49151	90.31737	-26.03744	-104.96343	-4.88202	100.89508	62.65259	0
822	-38.24249	82.99434	151.34262	-27.66478	-84.62168	112.28646	75.67131	-30.10579	-103.33609	-8.95037	84.62168	47.19286	0
823	-33.36047	69.97562	144.01959	-24.4101	-77.29865	101.70875	61.83892	-32.5468	-100.08141	-13.83239	69.16195	31.73313	0
824	-33.36047	60.21158	130.1872	-17.90074	-73.2303	90.31737	52.07488	-30.91946	-95.19939	-15.45973	58.58424	21.96909	0
825	-34.17414	51.26121	110.65912	-10.57771	-67.53461	77.29865	44.75185	-27.66478	-90.31737	-17.90074	51.26121	15.45973	0
826	-38.24249	40.6835	86.24902	-1.62734	-62.65259	62.65259	39.86983	-23.59643	-87.87636	-21.96909	44.75185	9.76404	0
827	-45.56552	30.10579	59.39791	9.76404	-65.0936	47.19286	34.98781	-17.08707	-82.99434	-22.78276	38.24249	4.88202	0
828	-51.26121	18.71441	39.86983	20.34175	-72.41663	34.17414	30.10579	-5.69569	-72.41663	-19.52808	32.5468	4.88202	0
829	-50.44754	5.69569	26.85111	26.03744	-69.16195	21.96909	27.66478	7.32303	-59.39791	-15.45973	28.47845	5.69569	0
830	-41.49717	-4.06835	15.45973	26.03744	-52.07488	9.76404	27.66478	18.71441	-48.8202	-14.64606	26.85111	4.06835	0
831	-26.85111	-11.39138	3.25468	19.52808	-30.10579	1.62734	27.66478	26.85111	-41.49717	-14.64606	26.85111	0.81367	0
832	-13.83239	-13.83239	-2.44101	12.20505	-13.01872	0	26.85111	32.5468	-35.80148	-13.83239	25.22377	-5.69569	0
833	-9.76404	-13.83239	1.62734	8.95037	-8.1367	-0.81367	22.78276	37.42882	-33.36047	-13.01872	21.15542	-14.64606	0
834	-10.57771	-11.39138	8.1367	8.95037	-10.57771	-2.44101	15.45973	42.31084	-36.61515	-13.83239	16.2734	-24.4101	0
835	-10.57771	-9.76404	8.1367	8.1367	-8.95037	-3.25468	8.1367	43.12451	-39.86983	-17.90074	8.95037	-30.91946	0
836	-9.76404	-8.1367	1.62734	9.76404	-0.81367	-4.88202	3.25468	43.93818	-38.24249	-23.59643	1.62734	-37.42882	0
837	-9.76404	-8.1367	-8.1367	13.01872	8.95037	-10.57771	0	48.8202	-32.5468	-25.22377	-4.06835	-40.6835	0
838	-5.69569	-12.20505	-15.45973	15.45973	8.95037	-19.52808	-3.25468	56.14323	-24.4101	-23.59643	-10.57771	-39.86983	0
839	1.62734	-21.15542	-24.4101	15.45973	9.76404	-30.10579	-7.32303	61.02525	-19.52808	-22.78276	-15.45973	-38.24249	0
840	8.1367	-30.91946	-37.42882	14.64606	16.2734	-39.86983	-9.76404	64.27993	-16.2734	-24.4101	-17.90074	-39.05616	0
841	12.20505	-37.42882	-48.8202	13.83239	24.4101	-48.00653	-9.76404	68.34828	-12.20505	-25.22377	-17.90074	-41.49717	0
842	15.45973	-40.6835	-56.14323	13.01872	31.73313	-56.14323	-9.76404	73.2303	-5.69569	-25.22377	-15.45973	-43.12451	0
843	13.83239	-43.93818	-55.32956	15.45973	31.73313	-62.65259	-9.76404	80.55333	1.62734	-25.22377	-11.39138	-42.31084	0
844	8.95037	-48.00653	-52.88855	19.52808	29.29212	-65.0936	-9.76404	88.69003	10.57771	-26.03744	-10.57771	-42.31084	0
845	6.50936	-51.26121	-54.51589	21.96909	29.29212	-63.46626	-8.95037	95.19939	17.08707	-26.03744	-12.20505	-43.93818	0
846	2.44101	-54.51589	-52.07488	25.22377	26.85111	-60.21158	-6.50936	100.08141	19.52808	-23.59643	-13.01872	-43.12451	0
847	-4.88202	-58.58424	-47.19286	30.91946	21.96909	-56.9569	-4.06835	106.59077	23.59643	-18.71441	-13.83239	-43.12451	0
848	-10.57771	-62.65259	-45.56552	36.61515	17.08707	-55.32956	-4.88202	115.54114	30.91946	-10.57771	-14.64606	-44.75185	0
849	-17.08707	-64.27993	-45.56552	41.49717	13.01872	-53.70222	-4.88202	124.49151	40.6835	-4.88202	-13.83239	-45.56552	0
850	-21.15542	-65.90727	-44.75185	43.93818	10.57771	-52.88855	-4.88202	131.00087	47.19286	-1.62734	-12.20505	-43.93818	0
851	-25.22377	-64.27993	-48.8202	44.75185	6.50936	-54.51589	-3.25468	135.06922	51.26121	-0.81367	-9.76404	-42.31084	0
852	-34.98781	-63.46626	-56.14323	49.63387	-2.44101	-60.21158	-3.25468	135.88289	52.88855	-2.44101	-5.69569	-40.6835	0
853	-35.80148	-65.0936	-61.02525	51.26121	-4.06835	-65.0936	-6.50936	135.88289	54.51589	-7.32303	-3.25468	-39.05616	0
854	-21.15542	-62.65259	-65.0936	43.12451	6.50936	-67.53461	-11.39138	138.3239	57.77057	-12.20505	-4.06835	-39.05616	0
855	-3.25468	-57.77057	-68.34828	30.91946	21.96909	-66.72094	-13.01872	141.57858	61.02525	-14.64606	-7.32303	-41.49717	0
856	13.01872	-52.88855	-69.97562	19.52808	36.61515	-64.27993	-9.76404	144.01959	61.83892	-13.01872	-8.95037	-39.86983	0
857	24.4101	-51.26121	-71.60296	13.01872	46.37919	-57.77057	-5.69569	149.71528	65.0936	-11.39138	-9.76404	-37.42882	0
858	20.34175	-52.07488	-67.53461	15.45973	44.75185	-51.26121	-2.44101	157.03831	69.16195	-11.39138	-11.39138	-37.42882	0
859	6.50936	-56.9569	-60.21158	25.22377	33.36047	-49.63387	-0.81367	160.29299	69.16195	-9.76404	-12.20505	-38.24249	0
860	-6.50936	-63.46626	-55.32956	34.98781	24.4101	-52.07488	1.62734	162.734	67.53461	-6.50936	-11.39138	-38.24249	0
861	-12.20505	-71.60296	-56.14323	39.86983	21.15542	-58.58424	4.06835	164.36134	67.53461	-3.25468	-11.39138	-39.05616	0
862	-8.1367	-78.92599	-61.02525	37.42882	26.03744	-66.72094	5.69569	164.36134	66.72094	-2.44101	-14.64606	-39.86983	0
863	0	-80.55333	-63.46626	33.36047	30.10579	-73.2303	4.88202	162.734	64.27993	-4.06835	-21.15542	-39.05616	0
864	5.69569	-75.67131	-65.0936	28.47845	34.17414	-74.85764	4.06835	159.47932	58.58424	-4.88202	-26.85111	-39.05616	0
865	8.95037	-69.97562	-67.53461	26.03744	36.61515	-72.41663	3.25468	156.22464	54.51589	-7.32303	-30.10579	-42.31084	0
866	2.44101	-69.16195	-63.46626	30.91946	32.5468	-68.34828	1.62734	154.5973	49.63387	-13.01872	-34.17414	-46.37919	0
867	-7.32303	-71.60296	-55.32956	38.24249	23.59643	-61.83892	2.44101	155.41097	47.19286	-18.71441	-39.86983	-51.26121	0
868	-15.45973	-71.60296	-50.44754	43.12451	17.08707	-56.14323	8.1367	161.92033	51.26121	-18.71441	-43.93818	-56.14323	0
869	-21.96909	-69.97562	-45.56552	47.19286	10.57771	-52.07488	13.83239	170.8707	59.39791	-15.45973	-44.75185	-57.77057	0
870	-28.47845	-65.90727	-38.24249	48.00653	3.25468	-47.19286	19.52808	179.0074	66.72094	-10.57771	-39.86983	-52.88855	0
871	-27.66478	-58.58424	-32.5468	47.19286	1.62734	-39.86983	25.22377	186.33043	72.41663	-4.06835	-30.10579	-45.56552	0
872	-19.52808	-50.44754	-30.91946	48.00653	4.06835	-32.5468	30.10579	190.39878	76.48498	0	-23.59643	-37.42882	0
873	-13.83239	-46.37919	-28.47845	47.19286	5.69569	-27.66478	30.91946	188.77144	74.85764	2.44101	-22.78276	-30.91946	0
874	-10.57771	-43.93818	-26.03744	41.49717	5.69569	-26.85111	30.10579	183.07575	69.16195	3.25468	-23.59643	-29.29212	0
875	-11.39138	-43.12451	-25.22377	36.61515	4.88202	-29.29212	27.66478	178.19373	62.65259	0.81367	-24.4101	-30.91946	0
876	-15.45973	-44.75185	-22.78276	34.17414	2.44101	-30.91946	25.22377	174.12538	56.9569	-4.06835	-26.85111	-34.17414	0
877	-19.52808	-48.8202	-13.83239	34.98781	0.81367	-31.73313	21.96909	167.61602	52.07488	-13.83239	-30.91946	-35.80148	0
878	-18.71441	-52.07488	-4.88202	35.80148	4.06835	-34.98781	17.90074	159.47932	47.19286	-23.59643	-35.80148	-36.61515	0
879	-14.64606	-52.07488	-4.88202	33.36047	8.95037	-38.24249	16.2734	153.78363	42.31084	-28.47845	-38.24249	-38.24249	0
880	-13.01872	-52.07488	-14.64606	31.73313	12.20505	-41.49717	16.2734	153.78363	38.24249	-28.47845	-38.24249	-40.6835	0
881	-8.95037	-51.26121	-27.66478	29.29212	16.2734	-46.37919	17.08707	157.03831	37.42882	-27.66478	-39.05616	-44.75185	0
882	-0.81367	-48.00653	-41.49717	24.4101	23.59643	-51.26121	16.2734	159.47932	36.61515	-27.66478	-37.42882	-48.00653	0
883	6.50936	-44.75185	-49.63387	19.52808	28.47845	-52.88855	14.64606	157.85198	36.61515	-30.91946	-34.98781	-48.00653	0
884	11.39138	-43.12451	-52.07488	16.2734	30.10579	-52.07488	13.83239	155.41097	39.05616	-33.36047	-34.17414	-48.8202	0
885	13.01872	-40.6835	-52.07488	13.83239	30.10579	-48.8202	14.64606	154.5973	39.05616	-34.17414	-35.80148	-48.8202	0
886	9.76404	-39.86983	-47.19286	13.83239	27.66478	-44.75185	17.08707	155.41097	37.42882	-33.36047	-36.61515	-50.44754	0
887	5.69569	-41.49717	-41.49717	17.08707	23.59643	-39.86983	18.71441	155.41097	30.91946	-33.36047	-38.24249	-52.88855	0
888	6.50936	-41.49717	-43.12451	17.08707	25.22377	-35.80148	16.2734	151.34262	21.96909	-39.05616	-42.31084	-52.07488	0
889	9.76404	-39.86983	-48.00653	14.64606	28.47845	-33.36047	13.01872	148.08794	16.2734	-44.75185	-46.37919	-50.44754	0
890	8.95037	-36.61515	-46.37919	13.83239	26.85111	-32.5468	12.20505	147.27427	15.45973	-47.19286	-48.8202	-49.63387	0
891	-5.69569	-35.80148	-31.73313	20.34175	12.20505	-32.5468	14.64606	148.90161	16.2734	-45.56552	-47.19286	-47.19286	0
892	-35.80148	-35.80148	-3.25468	36.61515	-17.08707	-34.17414	19.52808	152.15629	20.34175	-42.31084	-43.93818	-43.93818	0
893	-61.02525	-37.42882	21.96909	49.63387	-42.31084	-35.80148	24.4101	152.96996	21.96909	-39.86983	-41.49717	-40.6835	0
894	-66.72094	-39.86983	30.10579	53.70222	-49.63387	-34.17414	26.03744	150.52895	18.71441	-40.6835	-40.6835	-39.05616	0
895	-58.58424	-40.6835	20.34175	49.63387	-40.6835	-32.5468	24.4101	144.83326	12.20505	-45.56552	-42.31084	-41.49717	0
896	-46.37919	-43.12451	0	43.93818	-27.66478	-31.73313	21.15542	139.13757	4.88202	-52.88855	-48.00653	-46.37919	0
897	-40.6835	-44.75185	-21.15542	42.31084	-21.15542	-30.91946	20.34175	137.51023	0	-57.77057	-51.26121	-50.44754	0
898	-38.24249	-43.12451	-31.73313	40.6835	-18.71441	-26.85111	22.78276	139.95124	-1.62734	-58.58424	-48.00653	-53.70222	0
899	-40.6835	-39.05616	-23.59643	40.6835	-22.78276	-19.52808	25.22377	143.20592	-4.06835	-56.14323	-44.75185	-53.70222	0
900	-48.8202	-37.42882	-6.50936	43.12451	-30.91946	-10.57771	27.66478	148.08794	-3.25468	-53.70222	-42.31084	-49.63387	0
901	-59.39791	-37.42882	8.1367	44.75185	-39.05616	-4.88202	29.29212	152.96996	-1.62734	-52.88855	-42.31084	-45.56552	0
902	-68.34828	-34.17414	18.71441	39.86983	-45.56552	-6.50936	27.66478	152.96996	-2.44101	-55.32956	-46.37919	-44.75185	0
903	-65.0936	-30.10579	21.96909	33.36047	-43.93818	-13.83239	22.78276	148.08794	-6.50936	-58.58424	-53.70222	-43.12451	0
904	-52.07488	-30.10579	15.45973	28.47845	-34.17414	-20.34175	18.71441	140.76491	-13.01872	-60.21158	-60.21158	-43.12451	0
905	-38.24249	-31.73313	4.06835	26.85111	-21.15542	-24.4101	15.45973	134.25555	-18.71441	-63.46626	-63.46626	-47.19286	0
906	-28.47845	-32.5468	-4.06835	27.66478	-11.39138	-26.03744	13.01872	128.55986	-23.59643	-68.34828	-66.72094	-51.26121	0
907	-21.96909	-28.47845	-8.95037	28.47845	-4.88202	-24.4101	13.83239	126.93252	-25.22377	-71.60296	-67.53461	-55.32956	0
908	-12.20505	-21.96909	-16.2734	24.4101	2.44101	-21.96909	16.2734	127.74619	-26.03744	-70.78929	-63.46626	-59.39791	0
909	-8.95037	-19.52808	-17.08707	21.15542	4.06835	-17.90074	19.52808	131.00087	-26.85111	-68.34828	-59.39791	-61.02525	0
910	-20.34175	-21.15542	-6.50936	25.22377	-6.50936	-12.20505	20.34175	131.81454	-26.85111	-66.72094	-58.58424	-59.39791	0
911	-39.86983	-26.03744	8.95037	34.98781	-24.4101	-7.32303	19.52808	130.1872	-25.22377	-66.72094	-59.39791	-57.77057	0
912	-57.77057	-30.91946	21.96909	45.56552	-39.86983	-6.50936	16.2734	124.49151	-24.4101	-67.53461	-60.21158	-57.77057	0
913	-56.9569	-33.36047	23.59643	45.56552	-40.6835	-6.50936	12.20505	117.16848	-23.59643	-70.78929	-59.39791	-56.14323	0
914	-43.12451	-30.91946	15.45973	36.61515	-30.10579	-4.88202	8.95037	109.03178	-21.15542	-74.04397	-60.21158	-55.32956	0
915	-34.17414	-26.03744	11.39138	30.10579	-23.59643	-0.81367	8.95037	104.96343	-19.52808	-74.04397	-61.83892	-55.32956	0
916	-37.42882	-24.4101	10.57771	30.91946	-27.66478	0	10.57771	104.14976	-21.15542	-71.60296	-62.65259	-52.88855	0
917	-53.70222	-25.22377	11.39138	35.80148	-40.6835	0	11.39138	104.96343	-23.59643	-67.53461	-62.65259	-49.63387	0
918	-74.04397	-26.85111	17.90074	38.24249	-56.9569	0	9.76404	105.7771	-26.85111	-62.65259	-63.46626	-48.8202	0
919	-78.92599	-27.66478	21.15542	36.61515	-60.21158	0	9.76404	104.14976	-30.91946	-58.58424	-61.02525	-47.19286	0
920	-65.90727	-26.03744	17.90074	31.73313	-48.8202	-1.62734	11.39138	104.14976	-31.73313	-55.32956	-56.14323	-43.93818	0
921	-47.19286	-25.22377	9.76404	25.22377	-31.73313	-5.69569	12.20505	104.14976	-30.91946	-54.51589	-52.07488	-41.49717	0
922	-28.47845	-26.85111	-4.88202	19.52808	-16.2734	-10.57771	9.76404	100.89508	-30.10579	-55.32956	-48.00653	-39.86983	0
923	-19.52808	-30.10579	-20.34175	18.71441	-8.95037	-16.2734	4.88202	98.45407	-29.29212	-58.58424	-43.93818	-38.24249	0
924	-19.52808	-33.36047	-26.85111	22.78276	-8.95037	-21.15542	0	98.45407	-26.03744	-61.83892	-42.31084	-36.61515	0
925	-26.85111	-37.42882	-21.15542	30.10579	-13.01872	-22.78276	-1.62734	97.6404	-25.22377	-63.46626	-42.31084	-34.98781	0
926	-27.66478	-41.49717	-15.45973	31.73313	-12.20505	-22.78276	-2.44101	96.01306	-26.03744	-61.83892	-42.31084	-34.98781	0
927	-21.96909	-44.75185	-13.83239	22.78276	-5.69569	-22.78276	-4.06835	92.75838	-30.91946	-60.21158	-39.86983	-35.80148	0
928	-26.85111	-42.31084	-10.57771	11.39138	-7.32303	-24.4101	-3.25468	86.24902	-38.24249	-63.46626	-35.80148	-33.36047	0
929	-29.29212	-37.42882	-10.57771	5.69569	-8.1367	-26.85111	-4.06835	82.18067	-42.31084	-65.0936	-35.80148	-31.73313	0
930	-21.96909	-34.98781	-18.71441	6.50936	0	-30.91946	-7.32303	79.73966	-43.93818	-65.90727	-41.49717	-32.5468	0
931	-8.95037	-34.17414	-30.91946	7.32303	11.39138	-36.61515	-11.39138	78.92599	-44.75185	-65.90727	-48.00653	-36.61515	0
932	5.69569	-32.5468	-43.93818	6.50936	25.22377	-43.93818	-13.01872	77.29865	-46.37919	-67.53461	-52.07488	-39.86983	0
933	16.2734	-32.5468	-51.26121	5.69569	33.36047	-48.00653	-14.64606	75.67131	-49.63387	-69.16195	-52.88855	-39.86983	0
934	19.52808	-35.80148	-52.88855	8.1367	35.80148	-49.63387	-15.45973	73.2303	-52.88855	-69.97562	-52.88855	-39.05616	0
935	14.64606	-38.24249	-50.44754	12.20505	31.73313	-48.00653	-16.2734	71.60296	-54.51589	-69.16195	-54.51589	-39.05616	0
936	3.25468	-39.86983	-41.49717	19.52808	21.96909	-42.31084	-15.45973	71.60296	-54.51589	-68.34828	-56.14323	-39.05616	0
937	-10.57771	-39.86983	-30.10579	29.29212	9.76404	-34.17414	-16.2734	73.2303	-53.70222	-66.72094	-60.21158	-40.6835	0
938	-21.96909	-42.31084	-25.22377	38.24249	2.44101	-26.85111	-17.90074	77.29865	-48.8202	-64.27993	-62.65259	-43.12451	0
939	-30.10579	-47.19286	-22.78276	43.93818	-2.44101	-24.4101	-16.2734	78.92599	-41.49717	-64.27993	-62.65259	-43.12451	0
940	-37.42882	-49.63387	-17.90074	47.19286	-9.76404	-23.59643	-12.20505	81.367	-35.80148	-63.46626	-59.39791	-40.6835	0
941	-39.05616	-47.19286	-13.83239	48.00653	-12.20505	-25.22377	-6.50936	86.24902	-33.36047	-59.39791	-54.51589	-37.42882	0
942	-31.73313	-39.05616	-13.01872	46.37919	-9.76404	-30.10579	-1.62734	91.13104	-30.91946	-54.51589	-51.26121	-32.5468	0
943	-23.59643	-30.91946	-9.76404	40.6835	-7.32303	-34.17414	0	91.13104	-31.73313	-50.44754	-52.88855	-28.47845	0
944	-18.71441	-28.47845	-8.95037	34.17414	-4.88202	-35.80148	-0.81367	86.24902	-38.24249	-47.19286	-55.32956	-27.66478	0
945	-16.2734	-30.91946	-12.20505	30.10579	-2.44101	-35.80148	-4.06835	80.55333	-43.93818	-47.19286	-56.9569	-30.10579	0
946	-19.52808	-34.98781	-13.01872	30.91946	-2.44101	-33.36047	-6.50936	77.29865	-46.37919	-51.26121	-58.58424	-32.5468	0
947	-25.22377	-36.61515	-10.57771	34.17414	-5.69569	-26.85111	-9.76404	74.04397	-44.75185	-52.88855	-60.21158	-34.98781	0
948	-26.85111	-35.80148	-10.57771	34.98781	-6.50936	-19.52808	-11.39138	69.16195	-42.31084	-49.63387	-60.21158	-37.42882	0
949	-26.03744	-34.98781	-12.20505	33.36047	-6.50936	-15.45973	-9.76404	65.0936	-41.49717	-45.56552	-57.77057	-37.42882	0
950	-26.03744	-34.98781	-13.01872	31.73313	-5.69569	-16.2734	-6.50936	67.53461	-42.31084	-44.75185	-54.51589	-36.61515	0
951	-21.96909	-35.80148	-17.90074	29.29212	-2.44101	-21.15542	-6.50936	71.60296	-41.49717	-48.8202	-53.70222	-34.17414	0
952	-17.08707	-34.98781	-27.66478	26.03744	0.81367	-24.4101	-7.32303	74.04397	-41.49717	-50.44754	-52.88855	-31.73313	0
953	-17.08707	-34.17414	-37.42882	25.22377	0	-25.22377	-4.06835	76.48498	-39.05616	-46.37919	-49.63387	-32.5468	0
954	-21.15542	-35.80148	-37.42882	27.66478	-5.69569	-24.4101	-0.81367	80.55333	-33.36047	-43.12451	-45.56552	-33.36047	0
955	-26.03744	-36.61515	-28.47845	30.91946	-9.76404	-22.78276	0	83.80801	-29.29212	-43.12451	-43.93818	-31.73313	0
956	-22.78276	-37.42882	-23.59643	34.17414	-6.50936	-23.59643	0	84.62168	-27.66478	-44.75185	-43.93818	-32.5468	0
957	-14.64606	-38.24249	-25.22377	36.61515	2.44101	-30.91946	0	79.73966	-33.36047	-49.63387	-43.93818	-36.61515	0
958	-17.90074	-40.6835	-25.22377	32.5468	3.25468	-41.49717	0	72.41663	-44.75185	-58.58424	-44.75185	-40.6835	0
959	-21.15542	-42.31084	-27.66478	26.03744	4.06835	-49.63387	-3.25468	67.53461	-56.14323	-65.0936	-48.8202	-43.93818	0
960	-14.64606	-43.93818	-34.98781	21.15542	10.57771	-52.07488	-7.32303	66.72094	-60.21158	-68.34828	-54.51589	-46.37919	0
961	-6.50936	-43.12451	-42.31084	17.08707	17.90074	-52.07488	-10.57771	65.90727	-57.77057	-68.34828	-58.58424	-46.37919	0
962	1.62734	-39.05616	-45.56552	13.83239	22.78276	-53.70222	-9.76404	66.72094	-51.26121	-65.0936	-56.9569	-43.12451	0
963	3.25468	-35.80148	-39.05616	13.83239	20.34175	-53.70222	-5.69569	67.53461	-43.12451	-61.83892	-52.88855	-40.6835	0
964	0.81367	-34.17414	-32.5468	15.45973	16.2734	-51.26121	-2.44101	65.90727	-34.98781	-59.39791	-50.44754	-39.05616	0
965	0.81367	-32.5468	-30.91946	15.45973	14.64606	-44.75185	-1.62734	65.0936	-31.73313	-57.77057	-48.8202	-36.61515	0
966	4.88202	-30.10579	-30.91946	11.39138	17.90074	-35.80148	-1.62734	64.27993	-32.5468	-56.14323	-48.8202	-33.36047	0
967	14.64606	-29.29212	-37.42882	6.50936	26.85111	-27.66478	-2.44101	61.83892	-34.98781	-57.77057	-51.26121	-29.29212	0
968	14.64606	-32.5468	-42.31084	8.95037	29.29212	-24.4101	-5.69569	57.77057	-39.05616	-61.83892	-54.51589	-26.03744	0
969	0	-38.24249	-35.80148	19.52808	18.71441	-23.59643	-7.32303	57.77057	-45.56552	-65.0936	-56.9569	-26.03744	0
970	-16.2734	-42.31084	-26.03744	30.10579	4.88202	-23.59643	-7.32303	59.39791	-50.44754	-65.90727	-58.58424	-29.29212	0
971	-21.96909	-45.56552	-22.78276	32.5468	0	-27.66478	-7.32303	59.39791	-52.07488	-65.90727	-60.21158	-34.98781	0
972	-17.90074	-48.00653	-24.4101	28.47845	2.44101	-34.98781	-7.32303	57.77057	-50.44754	-65.90727	-59.39791	-39.05616	0
973	-11.39138	-47.19286	-25.22377	23.59643	5.69569	-40.6835	-8.1367	55.32956	-49.63387	-65.0936	-56.14323	-39.05616	0
974	-5.69569	-43.93818	-26.85111	19.52808	8.95037	-43.12451	-8.95037	51.26121	-51.26121	-62.65259	-53.70222	-38.24249	0
975	-0.81367	-40.6835	-30.91946	17.08707	13.83239	-43.12451	-10.57771	46.37919	-52.88855	-62.65259	-55.32956	-39.86983	0
976	-1.62734	-42.31084	-33.36047	19.52808	14.64606	-41.49717	-13.83239	40.6835	-55.32956	-68.34828	-61.02525	-43.93818	0
977	-6.50936	-46.37919	-31.73313	25.22377	13.01872	-38.24249	-17.08707	36.61515	-58.58424	-73.2303	-65.0936	-48.8202	0
978	-8.1367	-48.8202	-34.17414	28.47845	13.83239	-36.61515	-15.45973	34.98781	-56.9569	-76.48498	-64.27993	-52.88855	0
979	-13.01872	-48.00653	-33.36047	30.91946	10.57771	-34.17414	-11.39138	34.17414	-49.63387	-78.92599	-62.65259	-52.88855	0
980	-26.03744	-48.8202	-21.96909	38.24249	-0.81367	-30.10579	-7.32303	36.61515	-42.31084	-78.11232	-60.21158	-48.00653	0
981	-38.24249	-52.07488	-12.20505	43.93818	-13.01872	-27.66478	-3.25468	41.49717	-36.61515	-72.41663	-55.32956	-43.93818	0
982	-40.6835	-55.32956	-6.50936	42.31084	-17.90074	-30.10579	-1.62734	44.75185	-34.17414	-66.72094	-48.8202	-39.86983	0
983	-37.42882	-52.88855	-0.81367	37.42882	-18.71441	-33.36047	-1.62734	43.93818	-34.98781	-63.46626	-41.49717	-35.80148	0
984	-30.10579	-45.56552	0	31.73313	-15.45973	-34.17414	-2.44101	40.6835	-39.05616	-60.21158	-36.61515	-31.73313	0
985	-17.08707	-38.24249	-10.57771	22.78276	-3.25468	-34.17414	-4.06835	35.80148	-43.93818	-61.02525	-38.24249	-32.5468	0
986	-4.06835	-32.5468	-22.78276	16.2734	8.95037	-34.98781	-9.76404	28.47845	-48.8202	-66.72094	-43.12451	-38.24249	0
987	0.81367	-31.73313	-31.73313	17.08707	17.08707	-34.98781	-15.45973	21.96909	-53.70222	-73.2303	-48.00653	-47.19286	0
988	3.25468	-34.17414	-42.31084	19.52808	24.4101	-38.24249	-17.90074	18.71441	-54.51589	-78.11232	-48.00653	-55.32956	0
989	1.62734	-39.05616	-47.19286	23.59643	25.22377	-40.6835	-18.71441	17.08707	-51.26121	-81.367	-46.37919	-57.77057	0
990	-9.76404	-43.12451	-38.24249	29.29212	14.64606	-37.42882	-17.08707	17.90074	-46.37919	-81.367	-43.93818	-54.51589	0
991	-20.34175	-45.56552	-27.66478	39.86983	3.25468	-34.17414	-12.20505	22.78276	-41.49717	-75.67131	-40.6835	-46.37919	0
992	-23.59643	-48.00653	-21.15542	52.07488	-1.62734	-32.5468	-7.32303	27.66478	-37.42882	-69.97562	-35.80148	-34.98781	0
993	-22.78276	-47.19286	-14.64606	55.32956	-4.88202	-30.91946	-4.88202	27.66478	-36.61515	-65.0936	-29.29212	-25.22377	0
994	-20.34175	-42.31084	-11.39138	47.19286	-5.69569	-28.47845	-4.06835	23.59643	-40.6835	-60.21158	-26.03744	-20.34175	0
995	-17.08707	-37.42882	-11.39138	36.61515	-3.25468	-26.03744	-4.06835	18.71441	-43.93818	-59.39791	-27.66478	-21.96909	0
996	-19.52808	-35.80148	-17.08707	32.5468	-4.88202	-26.85111	-7.32303	14.64606	-46.37919	-64.27993	-32.5468	-26.03744	0
997	-24.4101	-36.61515	-25.22377	34.98781	-4.88202	-29.29212	-14.64606	8.95037	-48.00653	-69.97562	-39.86983	-30.10579	0
998	-23.59643	-41.49717	-25.22377	36.61515	0	-30.10579	-21.96909	1.62734	-48.8202	-74.85764	-48.00653	-34.17414	0
