samplenr	I	II	III	aVR	aVL	aVF	V1	V2	V3	V4	V5	V6	measurement
0	9.76404	-8.1367	-17.90074	-0.81367	13.83239	-13.01872	5.69569	15.45973	18.71441	4.06835	0	-0.81367	0
1	48.00653	-36.61515	-84.62168	-4.88202	65.90727	-60.21158	24.4101	69.97562	87.06269	23.59643	4.88202	-4.06835	0
2	114.72747	-79.73966	-194.46713	-17.08707	154.5973	-136.69656	50.44754	152.96996	202.60383	61.83892	20.34175	-4.06835	0
3	201.79016	-121.23683	-323.02699	-39.86983	262.00174	-222.13191	70.78929	235.15063	342.55507	122.86417	52.88855	8.95037	0
4	300.24423	-151.34262	-452.40052	-74.85764	375.91554	-301.87157	74.85764	296.17588	489.82934	207.48585	109.03178	41.49717	0
5	403.58032	-161.92033	-567.12799	-121.23683	484.94732	-364.52416	55.32956	322.21332	631.40792	316.51763	192.02612	97.6404	0
6	506.91641	-151.34262	-659.0727	-178.19373	582.58772	-405.20766	8.1367	307.56726	759.15411	449.95951	301.87157	177.38006	0
7	603.74314	-118.79582	-723.35263	-242.47366	663.14105	-421.48106	-69.97562	249.79669	867.37222	604.55681	436.12712	279.08881	0
8	688.36482	-66.72094	-756.7131	-311.63561	721.72529	-411.71702	-179.0074	147.27427	950.36656	776.24118	589.91075	399.51197	0
9	755.89943	1.62734	-754.27209	-379.98389	755.08576	-375.91554	-310.82194	7.32303	1006.50979	957.68959	758.34044	532.95385	0
10	799.83761	82.99434	-716.84327	-442.63648	758.34044	-316.51763	-456.46887	-161.92033	1034.17457	1139.95167	930.83848	672.09142	0
11	816.11101	170.05703	-646.05398	-493.89769	730.67566	-237.59164	-603.74314	-350.69177	1025.2242	1305.12668	1091.94514	805.5333	0
12	802.27862	254.67871	-547.59991	-529.69917	674.53243	-145.64693	-742.06704	-547.59991	970.70831	1432.0592	1224.57335	921.07444	0
13	759.15411	329.53635	-429.61776	-545.1589	593.9791	-49.63387	-865.74488	-741.25337	863.30387	1499.59381	1312.44971	1007.32346	0
14	691.6195	388.93426	-301.87157	-541.09055	496.3387	43.12451	-969.89464	-921.07444	702.19721	1497.96647	1347.43752	1056.95733	0
15	606.99782	432.87244	-174.12538	-520.7488	389.74793	129.37353	-1050.44797	-1082.1811	492.27035	1428.80452	1331.16412	1071.60339	0
16	513.42577	464.60557	-48.8202	-489.82934	280.71615	207.48585	-1106.5912	-1220.505	244.91467	1302.68567	1272.57988	1056.95733	0
17	416.59904	485.76099	69.16195	-452.40052	173.31171	277.46147	-1136.69699	-1331.16412	-25.22377	1131.0013	1178.19416	1016.27383	0
18	318.95864	499.59338	179.82107	-410.08968	68.34828	340.11406	-1139.138	-1408.46277	-301.0579	925.95646	1055.32999	952.80757	0
19	222.13191	505.28907	282.34349	-364.52416	-30.10579	393.81628	-1112.28689	-1446.70526	-562.24597	702.19721	909.68306	868.18589	0
20	129.37353	502.84806	372.66086	-316.51763	-122.0505	437.75446	-1057.771	-1442.63691	-786.00522	475.99695	750.20374	764.8498	0
21	43.93818	493.08402	448.33217	-269.32477	-202.60383	471.11493	-982.09969	-1399.5124	-954.43491	266.07009	585.8424	650.936	0
22	-29.29212	475.99695	505.28907	-223.75925	-267.69743	490.64301	-892.59599	-1323.84109	-1063.46669	84.62168	430.43143	534.58119	0
23	-88.69003	451.58685	541.09055	-182.26208	-315.70396	496.3387	-795.76926	-1224.57335	-1113.91423	-60.21158	291.29386	422.29473	0
24	-132.62821	423.92207	557.36395	-146.4606	-345.80975	490.64301	-698.12886	-1109.03221	-1114.7279	-168.42969	174.93905	321.39965	0
25	-161.92033	395.44362	557.36395	-117.16848	-360.45581	476.81062	-604.55681	-988.60905	-1078.92642	-241.65999	82.99434	235.9643	0
26	-177.38006	366.1515	544.34523	-94.38572	-361.26948	455.6552	-519.12146	-871.44057	-1017.90117	-285.59817	13.83239	165.98868	0
27	-183.88942	336.85938	521.56247	-76.48498	-353.13278	429.61776	-442.63648	-762.40879	-946.29821	-309.1946	-36.61515	109.84545	0
28	-185.51676	306.75359	491.45668	-61.02525	-338.48672	398.6983	-375.10187	-665.58206	-870.6269	-318.95864	-74.04397	63.46626	0
29	-183.88942	275.02046	458.09621	-45.56552	-321.39965	366.1515	-315.70396	-581.77405	-798.21027	-320.58598	-102.52242	25.22377	0
30	-182.26208	242.47366	423.92207	-30.91946	-303.49891	333.6047	-263.62908	-509.35742	-732.303	-318.14497	-125.30518	-6.50936	0
31	-180.63474	210.74053	390.5616	-15.45973	-286.41184	301.0579	-218.06356	-447.5185	-672.90509	-314.07662	-142.39225	-34.98781	0
32	-179.0074	181.44841	359.64214	-1.62734	-269.32477	270.13844	-179.82107	-395.44362	-620.83021	-310.00827	-156.22464	-58.58424	0
33	-177.38006	153.78363	331.16369	9.76404	-254.67871	242.47366	-147.27427	-353.13278	-576.07836	-305.12625	-166.80235	-77.29865	0
34	-174.93905	129.37353	304.31258	21.15542	-240.03265	217.24989	-120.42316	-318.14497	-537.83587	-301.0579	-174.93905	-91.13104	0
35	-172.49804	107.40444	279.90248	30.91946	-227.01393	193.65346	-98.45407	-289.66652	-505.28907	-296.98955	-180.63474	-102.52242	0
36	-170.8707	87.06269	257.93339	40.6835	-214.80888	172.49804	-78.92599	-265.25642	-475.18328	-292.9212	-184.70309	-111.47279	0
37	-168.42969	69.16195	238.40531	48.00653	-203.4175	153.78363	-62.65259	-243.28733	-446.70483	-287.22551	-186.33043	-117.16848	0
38	-165.98868	54.51589	220.50457	54.51589	-193.65346	137.51023	-48.8202	-222.94558	-419.85372	-279.08881	-186.33043	-121.23683	0
39	-162.734	42.31084	205.04484	59.39791	-183.88942	123.67784	-35.80148	-203.4175	-393.00261	-269.32477	-183.88942	-122.86417	0
40	-158.66565	31.73313	190.39878	61.83892	-174.93905	111.47279	-24.4101	-185.51676	-367.77884	-258.74706	-179.82107	-122.86417	0
41	-153.78363	23.59643	177.38006	63.46626	-165.98868	100.08141	-14.64606	-168.42969	-344.99608	-247.35568	-174.93905	-122.86417	0
42	-148.08794	17.90074	165.98868	64.27993	-157.85198	91.94471	-5.69569	-152.96996	-323.02699	-237.59164	-170.05703	-121.23683	0
43	-143.20592	14.64606	157.03831	62.65259	-150.52895	85.43535	1.62734	-137.51023	-301.87157	-226.20026	-163.54767	-118.79582	0
44	-138.3239	13.01872	151.34262	61.02525	-144.83326	82.18067	8.95037	-123.67784	-280.71615	-214.80888	-156.22464	-115.54114	0
45	-134.25555	12.20505	146.4606	60.21158	-140.76491	78.92599	16.2734	-109.84545	-260.3744	-202.60383	-148.08794	-111.47279	0
46	-131.81454	10.57771	142.39225	59.39791	-137.51023	76.48498	22.78276	-97.6404	-240.03265	-190.39878	-139.95124	-108.21811	0
47	-129.37353	9.76404	139.95124	58.58424	-135.06922	74.85764	29.29212	-86.24902	-221.31824	-179.82107	-133.44188	-104.96343	0
48	-128.55986	9.76404	137.51023	57.77057	-133.44188	74.04397	34.17414	-76.48498	-205.04484	-170.05703	-127.74619	-103.33609	0
49	-126.93252	10.57771	137.51023	56.9569	-132.62821	74.04397	39.05616	-69.16195	-192.02612	-162.734	-122.86417	-101.70875	0
50	-126.11885	11.39138	137.51023	56.14323	-131.81454	74.04397	42.31084	-63.46626	-181.44841	-157.03831	-119.60949	-100.08141	0
51	-124.49151	13.01872	136.69656	54.51589	-131.00087	74.85764	44.75185	-59.39791	-173.31171	-152.96996	-117.98215	-99.26774	0
52	-122.86417	14.64606	137.51023	52.88855	-130.1872	76.48498	46.37919	-56.9569	-167.61602	-149.71528	-116.35481	-98.45407	0
53	-120.42316	17.90074	138.3239	50.44754	-130.1872	78.11232	46.37919	-54.51589	-162.734	-147.27427	-113.9138	-97.6404	0
54	-118.79582	21.96909	139.95124	47.19286	-130.1872	81.367	45.56552	-53.70222	-158.66565	-144.01959	-112.28646	-96.82673	0
55	-116.35481	26.03744	142.39225	44.75185	-130.1872	83.80801	45.56552	-52.88855	-154.5973	-142.39225	-109.84545	-96.01306	0
56	-116.35481	27.66478	144.01959	43.12451	-130.1872	85.43535	43.93818	-52.88855	-150.52895	-140.76491	-108.21811	-95.19939	0
57	-116.35481	27.66478	144.83326	43.12451	-131.00087	86.24902	42.31084	-52.07488	-146.4606	-139.13757	-106.59077	-95.19939	0
58	-117.16848	27.66478	145.64693	43.93818	-131.81454	86.24902	40.6835	-51.26121	-142.39225	-137.51023	-105.7771	-94.38572	0
59	-117.98215	27.66478	145.64693	44.75185	-132.62821	86.24902	39.05616	-49.63387	-137.51023	-136.69656	-104.14976	-93.57205	0
60	-118.79582	27.66478	146.4606	44.75185	-132.62821	87.06269	36.61515	-48.00653	-133.44188	-136.69656	-103.33609	-92.75838	0
61	-117.98215	27.66478	145.64693	43.93818	-132.62821	87.06269	34.98781	-45.56552	-129.37353	-137.51023	-102.52242	-91.94471	0
62	-116.35481	29.29212	145.64693	42.31084	-131.00087	87.06269	32.5468	-43.93818	-125.30518	-137.51023	-100.89508	-91.13104	0
63	-114.72747	30.10579	144.83326	40.6835	-129.37353	87.06269	30.91946	-41.49717	-122.0505	-136.69656	-99.26774	-89.5037	0
64	-112.28646	30.91946	143.20592	39.86983	-127.74619	87.06269	30.10579	-39.05616	-117.16848	-135.06922	-96.82673	-87.06269	0
65	-109.84545	31.73313	141.57858	38.24249	-126.11885	86.24902	30.10579	-36.61515	-112.28646	-131.81454	-93.57205	-84.62168	0
66	-108.21811	31.73313	139.13757	37.42882	-124.49151	85.43535	31.73313	-34.17414	-106.59077	-129.37353	-90.31737	-82.18067	0
67	-106.59077	30.91946	137.51023	36.61515	-122.86417	83.80801	33.36047	-30.10579	-100.08141	-126.11885	-87.06269	-79.73966	0
68	-105.7771	30.10579	135.88289	36.61515	-121.23683	82.99434	36.61515	-26.03744	-92.75838	-122.86417	-82.99434	-78.11232	0
69	-104.14976	29.29212	133.44188	36.61515	-119.60949	81.367	39.05616	-21.96909	-85.43535	-119.60949	-79.73966	-75.67131	0
70	-103.33609	28.47845	131.81454	35.80148	-117.98215	80.55333	41.49717	-17.90074	-78.11232	-116.35481	-76.48498	-73.2303	0
71	-102.52242	28.47845	131.00087	35.80148	-117.16848	79.73966	43.12451	-13.83239	-72.41663	-113.10013	-74.04397	-70.78929	0
72	-100.08141	29.29212	129.37353	34.17414	-115.54114	79.73966	43.93818	-9.76404	-66.72094	-109.84545	-71.60296	-69.97562	0
73	-96.82673	30.91946	127.74619	31.73313	-113.10013	79.73966	43.93818	-5.69569	-61.02525	-107.40444	-69.16195	-69.16195	0
74	-93.57205	32.5468	126.11885	29.29212	-110.65912	79.73966	42.31084	-1.62734	-55.32956	-104.14976	-67.53461	-68.34828	0
75	-90.31737	34.17414	124.49151	26.85111	-108.21811	79.73966	41.49717	1.62734	-49.63387	-101.70875	-67.53461	-69.16195	0
76	-87.87636	35.80148	123.67784	25.22377	-106.59077	79.73966	41.49717	5.69569	-43.12451	-98.45407	-67.53461	-70.78929	0
77	-87.06269	36.61515	123.67784	23.59643	-105.7771	79.73966	41.49717	11.39138	-36.61515	-96.01306	-67.53461	-71.60296	0
78	-86.24902	36.61515	122.86417	22.78276	-104.96343	79.73966	43.12451	16.2734	-30.10579	-94.38572	-68.34828	-73.2303	0
79	-84.62168	37.42882	122.0505	21.96909	-103.33609	79.73966	44.75185	21.96909	-22.78276	-93.57205	-69.97562	-74.85764	0
80	-82.99434	38.24249	121.23683	20.34175	-102.52242	79.73966	46.37919	27.66478	-17.08707	-94.38572	-70.78929	-76.48498	0
81	-80.55333	39.86983	120.42316	18.71441	-100.89508	79.73966	48.00653	33.36047	-10.57771	-94.38572	-71.60296	-77.29865	0
82	-78.11232	40.6835	118.79582	17.08707	-98.45407	79.73966	48.8202	39.05616	-5.69569	-93.57205	-71.60296	-76.48498	0
83	-75.67131	41.49717	117.16848	16.2734	-96.82673	78.92599	49.63387	44.75185	0	-91.13104	-69.97562	-75.67131	0
84	-74.04397	41.49717	115.54114	14.64606	-95.19939	78.11232	50.44754	50.44754	4.88202	-87.06269	-67.53461	-74.04397	0
85	-72.41663	41.49717	113.10013	13.83239	-92.75838	77.29865	50.44754	56.9569	11.39138	-82.18067	-65.0936	-72.41663	0
86	-69.97562	40.6835	110.65912	13.01872	-90.31737	75.67131	51.26121	63.46626	18.71441	-76.48498	-61.83892	-69.97562	0
87	-66.72094	40.6835	107.40444	12.20505	-87.87636	74.04397	52.88855	69.97562	26.03744	-70.78929	-58.58424	-68.34828	0
88	-64.27993	39.86983	104.14976	10.57771	-84.62168	72.41663	54.51589	77.29865	33.36047	-65.90727	-55.32956	-65.90727	0
89	-61.83892	39.05616	100.89508	10.57771	-81.367	69.97562	56.9569	84.62168	39.86983	-62.65259	-52.88855	-63.46626	0
90	-59.39791	37.42882	96.82673	9.76404	-78.92599	67.53461	58.58424	92.75838	46.37919	-59.39791	-50.44754	-61.02525	0
91	-56.9569	35.80148	93.57205	9.76404	-75.67131	64.27993	59.39791	100.08141	52.07488	-56.9569	-48.00653	-57.77057	0
92	-53.70222	34.98781	88.69003	8.1367	-71.60296	61.83892	60.21158	109.03178	59.39791	-53.70222	-44.75185	-53.70222	0
93	-50.44754	33.36047	82.99434	7.32303	-66.72094	57.77057	61.83892	117.98215	66.72094	-48.8202	-40.6835	-50.44754	0
94	-45.56552	30.91946	77.29865	6.50936	-61.83892	54.51589	62.65259	126.93252	75.67131	-43.12451	-36.61515	-47.19286	0
95	-41.49717	29.29212	70.78929	4.88202	-56.9569	50.44754	64.27993	137.51023	85.43535	-37.42882	-33.36047	-43.93818	0
96	-38.24249	27.66478	65.0936	4.06835	-52.07488	46.37919	65.90727	148.08794	96.01306	-30.91946	-30.10579	-41.49717	0
97	-34.17414	26.03744	60.21158	2.44101	-48.00653	43.12451	68.34828	158.66565	106.59077	-25.22377	-27.66478	-40.6835	0
98	-30.91946	26.03744	56.14323	1.62734	-43.93818	41.49717	71.60296	170.05703	117.98215	-20.34175	-26.03744	-40.6835	0
99	-27.66478	26.85111	54.51589	0	-41.49717	40.6835	75.67131	182.26208	130.1872	-15.45973	-26.03744	-42.31084	0
100	-24.4101	28.47845	52.88855	-2.44101	-39.05616	40.6835	79.73966	193.65346	140.76491	-12.20505	-26.03744	-43.93818	1000	P+0
101	-20.34175	31.73313	51.26121	-5.69569	-36.61515	41.49717	83.80801	205.85851	152.15629	-9.76404	-26.03744	-44.75185	0
102	-14.64606	34.98781	50.44754	-10.57771	-33.36047	42.31084	86.24902	217.24989	162.734	-7.32303	-25.22377	-44.75185	0
103	-9.76404	38.24249	47.19286	-14.64606	-29.29212	43.12451	88.69003	229.45494	174.12538	-4.06835	-22.78276	-43.12451	0
104	-4.06835	39.86983	43.93818	-18.71441	-24.4101	41.49717	91.13104	242.47366	186.33043	0	-19.52808	-40.6835	0
105	0.81367	39.86983	39.05616	-21.15542	-19.52808	39.86983	92.75838	255.49238	199.34915	4.06835	-14.64606	-37.42882	0
106	4.88202	38.24249	32.5468	-21.96909	-13.83239	35.80148	94.38572	268.5111	213.18154	9.76404	-9.76404	-33.36047	0
107	8.1367	34.98781	26.03744	-21.96909	-8.95037	30.91946	96.82673	283.15716	227.8276	15.45973	-4.88202	-29.29212	0
108	11.39138	31.73313	19.52808	-21.96909	-4.06835	25.22377	98.45407	296.98955	243.28733	21.96909	0	-25.22377	0
109	14.64606	27.66478	12.20505	-21.96909	0	19.52808	100.08141	312.44928	258.74706	28.47845	4.88202	-21.15542	0
110	17.90074	24.4101	4.88202	-21.96909	5.69569	14.64606	102.52242	326.28167	274.20679	34.17414	8.95037	-17.90074	0
111	22.78276	21.15542	-1.62734	-22.78276	12.20505	9.76404	105.7771	340.92773	288.03918	39.86983	13.83239	-14.64606	0
112	29.29212	19.52808	-9.76404	-25.22377	18.71441	4.88202	108.21811	354.76012	302.68524	45.56552	17.90074	-10.57771	0
113	35.80148	17.90074	-17.90074	-27.66478	26.85111	0	112.28646	368.59251	316.51763	51.26121	22.78276	-6.50936	0
114	43.93818	17.90074	-26.03744	-30.91946	34.17414	-4.06835	115.54114	381.61123	330.35002	56.9569	26.85111	-2.44101	0
115	51.26121	17.08707	-34.17414	-34.98781	42.31084	-8.1367	117.98215	395.44362	344.18241	63.46626	31.73313	0	0
116	58.58424	17.08707	-41.49717	-38.24249	49.63387	-12.20505	121.23683	408.46234	358.0148	68.34828	34.17414	1.62734	0
117	65.0936	16.2734	-48.8202	-41.49717	56.9569	-16.2734	124.49151	421.48106	371.03352	71.60296	36.61515	2.44101	0
118	71.60296	15.45973	-56.14323	-44.75185	63.46626	-19.52808	128.55986	433.68611	384.05224	74.85764	37.42882	3.25468	0
119	77.29865	15.45973	-61.83892	-47.19286	69.16195	-22.78276	131.00087	445.89116	396.25729	78.11232	39.05616	4.06835	0
120	82.99434	13.83239	-68.34828	-49.63387	74.85764	-26.85111	133.44188	457.28254	407.64867	81.367	40.6835	4.88202	0
121	87.87636	12.20505	-75.67131	-51.26121	81.367	-30.91946	135.88289	467.86025	418.22638	84.62168	42.31084	5.69569	0
122	93.57205	9.76404	-82.99434	-52.88855	87.87636	-35.80148	136.69656	476.81062	427.99042	87.87636	44.75185	6.50936	0
123	98.45407	7.32303	-91.13104	-53.70222	94.38572	-41.49717	137.51023	485.76099	437.75446	91.94471	47.19286	8.1367	0
124	104.14976	5.69569	-98.45407	-56.14323	100.89508	-46.37919	137.51023	493.08402	447.5185	96.01306	49.63387	9.76404	0
125	109.84545	4.06835	-105.7771	-57.77057	107.40444	-50.44754	138.3239	500.40705	456.46887	100.08141	52.07488	11.39138	0
126	115.54114	1.62734	-113.10013	-59.39791	113.9138	-55.32956	139.13757	506.91641	465.41924	102.52242	53.70222	13.01872	0
127	120.42316	0	-121.23683	-60.21158	120.42316	-61.02525	140.76491	513.42577	473.55594	104.14976	55.32956	13.83239	0
128	125.30518	-4.06835	-129.37353	-61.02525	126.93252	-66.72094	142.39225	518.30779	481.69264	105.7771	56.14323	14.64606	0
129	130.1872	-8.1367	-139.13757	-61.02525	134.25555	-73.2303	144.01959	524.00348	489.82934	106.59077	57.77057	16.2734	0
130	135.88289	-12.20505	-148.90161	-61.83892	141.57858	-80.55333	145.64693	528.8855	496.3387	108.21811	59.39791	18.71441	0
131	142.39225	-17.08707	-159.47932	-62.65259	150.52895	-88.69003	146.4606	532.95385	502.84806	109.84545	62.65259	22.78276	0
132	148.90161	-21.15542	-170.05703	-64.27993	158.66565	-96.01306	147.27427	535.39486	508.54375	112.28646	65.90727	26.03744	0
133	155.41097	-24.4101	-180.63474	-65.90727	167.61602	-102.52242	147.27427	537.83587	513.42577	113.10013	68.34828	29.29212	0
134	161.10666	-28.47845	-190.39878	-66.72094	174.93905	-109.03178	147.27427	538.64954	516.68045	113.10013	69.97562	32.5468	0
135	165.98868	-31.73313	-199.34915	-67.53461	182.26208	-115.54114	147.27427	537.83587	519.12146	112.28646	70.78929	34.17414	0
136	170.8707	-36.61515	-208.29952	-67.53461	188.77144	-122.0505	148.08794	536.20853	519.93513	110.65912	70.78929	34.98781	0
137	173.31171	-40.6835	-215.62255	-66.72094	194.46713	-128.55986	148.08794	532.95385	520.7488	109.03178	69.16195	34.98781	0
138	175.75272	-45.56552	-222.13191	-65.90727	198.53548	-134.25555	148.08794	528.8855	519.93513	108.21811	68.34828	34.17414	0
139	176.56639	-49.63387	-227.8276	-64.27993	201.79016	-139.13757	147.27427	523.18981	519.12146	106.59077	65.90727	32.5468	0
140	178.19373	-54.51589	-232.70962	-62.65259	205.04484	-144.01959	146.4606	515.86678	516.68045	104.96343	63.46626	30.91946	0
141	179.0074	-59.39791	-238.40531	-60.21158	208.29952	-148.90161	144.83326	508.54375	513.42577	101.70875	60.21158	27.66478	0
142	179.82107	-64.27993	-244.91467	-58.58424	212.36787	-154.5973	143.20592	500.40705	509.35742	98.45407	56.9569	25.22377	0
143	181.44841	-69.16195	-251.42403	-56.9569	215.62255	-160.29299	140.76491	492.27035	505.28907	95.19939	53.70222	21.96909	0
144	182.26208	-74.04397	-256.30605	-54.51589	218.87723	-165.17501	139.13757	482.50631	500.40705	91.94471	50.44754	19.52808	0
145	181.44841	-78.11232	-260.3744	-52.07488	220.50457	-169.24336	136.69656	472.74227	494.71136	89.5037	48.00653	16.2734	0
146	179.82107	-82.18067	-262.00174	-49.63387	220.50457	-171.68437	134.25555	461.35089	487.38833	86.24902	44.75185	13.83239	0
147	177.38006	-85.43535	-262.81541	-46.37919	219.6909	-174.12538	131.00087	449.14584	480.0653	83.80801	41.49717	11.39138	0
148	174.93905	-88.69003	-263.62908	-43.12451	218.87723	-176.56639	128.55986	436.94079	471.9286	82.18067	39.86983	8.95037	0
149	171.68437	-91.94471	-264.44275	-39.86983	217.24989	-178.19373	126.11885	423.92207	462.16456	80.55333	37.42882	7.32303	0
150	167.61602	-96.01306	-264.44275	-36.61515	215.62255	-180.63474	123.67784	409.27601	451.58685	78.92599	35.80148	5.69569	0
151	163.54767	-100.08141	-264.44275	-31.73313	213.99521	-182.26208	121.23683	394.62995	438.56813	77.29865	34.17414	4.06835	0
152	158.66565	-103.33609	-262.81541	-27.66478	209.92686	-183.07575	118.79582	378.35655	424.73574	74.85764	31.73313	3.25468	0
153	152.15629	-105.7771	-258.74706	-23.59643	205.04484	-182.26208	116.35481	362.08315	409.27601	71.60296	29.29212	1.62734	0
154	145.64693	-107.40444	-253.86504	-19.52808	199.34915	-180.63474	113.10013	344.18241	393.00261	68.34828	26.85111	0	0
155	138.3239	-107.40444	-246.54201	-15.45973	192.02612	-177.38006	109.84545	327.09534	375.91554	63.46626	22.78276	-1.62734	0
156	131.00087	-106.59077	-238.40531	-12.20505	183.88942	-172.49804	106.59077	309.1946	358.82847	59.39791	18.71441	-4.06835	0
157	123.67784	-104.96343	-228.64127	-9.76404	175.75272	-166.80235	102.52242	290.48019	341.7414	54.51589	14.64606	-7.32303	0
158	116.35481	-101.70875	-218.87723	-7.32303	167.61602	-160.29299	98.45407	272.57945	323.02699	48.8202	9.76404	-10.57771	0
159	110.65912	-98.45407	-209.11319	-6.50936	159.47932	-153.78363	94.38572	253.86504	305.12625	43.12451	5.69569	-13.01872	0
160	104.14976	-94.38572	-199.34915	-4.88202	151.34262	-146.4606	89.5037	235.9643	286.41184	37.42882	2.44101	-15.45973	0
161	96.82673	-92.75838	-190.39878	-2.44101	143.20592	-140.76491	85.43535	218.06356	267.69743	31.73313	0	-17.90074	0
162	88.69003	-91.94471	-181.44841	0.81367	134.25555	-136.69656	80.55333	200.16282	248.16935	26.85111	-0.81367	-20.34175	0
163	78.92599	-92.75838	-172.49804	4.88202	125.30518	-131.81454	76.48498	183.07575	230.26861	22.78276	-2.44101	-21.96909	0
164	69.16195	-92.75838	-162.734	10.57771	115.54114	-127.74619	73.2303	166.80235	213.18154	20.34175	-3.25468	-23.59643	0
165	58.58424	-92.75838	-152.15629	15.45973	104.96343	-122.0505	71.60296	152.15629	196.09447	18.71441	-4.06835	-26.03744	0
166	48.00653	-91.94471	-140.76491	21.15542	94.38572	-116.35481	70.78929	137.51023	180.63474	16.2734	-6.50936	-29.29212	0
167	37.42882	-91.13104	-129.37353	26.03744	82.99434	-109.84545	70.78929	123.67784	165.17501	13.01872	-8.95037	-32.5468	0
168	27.66478	-89.5037	-117.98215	29.29212	72.41663	-103.33609	71.60296	110.65912	150.52895	8.95037	-12.20505	-35.80148	0
169	19.52808	-87.06269	-106.59077	32.5468	62.65259	-96.82673	71.60296	98.45407	135.88289	4.06835	-15.45973	-38.24249	0
170	11.39138	-82.99434	-96.01306	34.98781	53.70222	-89.5037	70.78929	87.06269	122.0505	-0.81367	-19.52808	-40.6835	0
171	4.88202	-78.92599	-84.62168	35.80148	44.75185	-82.18067	69.97562	76.48498	108.21811	-5.69569	-22.78276	-42.31084	0
172	0	-73.2303	-73.2303	35.80148	35.80148	-73.2303	67.53461	65.0936	94.38572	-11.39138	-26.03744	-43.12451	0
173	-4.88202	-65.90727	-60.21158	34.98781	26.85111	-63.46626	64.27993	55.32956	81.367	-16.2734	-29.29212	-43.93818	0
174	-9.76404	-57.77057	-47.19286	32.5468	17.90074	-52.88855	61.02525	44.75185	68.34828	-21.15542	-31.73313	-45.56552	0
175	-13.83239	-49.63387	-34.98781	30.91946	9.76404	-42.31084	57.77057	34.98781	56.14323	-26.03744	-34.17414	-46.37919	0
176	-17.90074	-41.49717	-23.59643	29.29212	1.62734	-32.5468	55.32956	26.03744	44.75185	-29.29212	-35.80148	-48.00653	0
177	-21.96909	-34.17414	-12.20505	26.85111	-4.88202	-23.59643	52.07488	17.90074	34.98781	-32.5468	-37.42882	-48.8202	0
178	-25.22377	-27.66478	-3.25468	26.03744	-11.39138	-15.45973	50.44754	11.39138	26.03744	-34.98781	-38.24249	-49.63387	0
179	-27.66478	-22.78276	4.88202	24.4101	-17.08707	-8.95037	48.8202	4.88202	17.90074	-36.61515	-38.24249	-49.63387	0
180	-30.91946	-18.71441	11.39138	23.59643	-21.15542	-3.25468	47.19286	0	9.76404	-37.42882	-37.42882	-48.8202	0
181	-32.5468	-15.45973	17.08707	23.59643	-25.22377	0	45.56552	-4.06835	3.25468	-37.42882	-36.61515	-48.8202	0
182	-34.17414	-13.01872	21.15542	22.78276	-28.47845	4.06835	43.93818	-8.1367	-2.44101	-38.24249	-36.61515	-48.00653	0
183	-35.80148	-10.57771	24.4101	22.78276	-30.91946	6.50936	43.12451	-11.39138	-8.1367	-38.24249	-36.61515	-48.00653	0
184	-37.42882	-9.76404	27.66478	22.78276	-33.36047	8.95037	43.12451	-13.83239	-13.01872	-39.05616	-36.61515	-48.00653	0
185	-39.05616	-8.95037	29.29212	23.59643	-34.98781	9.76404	42.31084	-16.2734	-17.08707	-39.86983	-37.42882	-48.00653	0
186	-41.49717	-8.95037	31.73313	24.4101	-36.61515	11.39138	42.31084	-17.90074	-20.34175	-40.6835	-39.05616	-48.8202	0
187	-43.12451	-8.95037	32.5468	25.22377	-38.24249	11.39138	43.12451	-19.52808	-23.59643	-43.12451	-39.86983	-49.63387	0
188	-44.75185	-10.57771	34.17414	26.85111	-39.86983	11.39138	42.31084	-20.34175	-26.03744	-44.75185	-41.49717	-51.26121	0
189	-47.19286	-11.39138	34.17414	28.47845	-41.49717	11.39138	42.31084	-21.96909	-28.47845	-47.19286	-43.12451	-52.07488	0
190	-48.8202	-13.01872	34.98781	30.10579	-42.31084	10.57771	41.49717	-22.78276	-30.91946	-49.63387	-45.56552	-53.70222	0
191	-49.63387	-13.83239	34.17414	30.91946	-42.31084	9.76404	39.86983	-24.4101	-33.36047	-51.26121	-47.19286	-54.51589	0
192	-49.63387	-14.64606	34.17414	31.73313	-42.31084	8.95037	39.86983	-25.22377	-34.98781	-53.70222	-48.8202	-55.32956	0
193	-49.63387	-16.2734	33.36047	32.5468	-42.31084	8.1367	39.05616	-25.22377	-35.80148	-54.51589	-50.44754	-56.14323	0
194	-50.44754	-17.08707	32.5468	33.36047	-41.49717	7.32303	39.86983	-25.22377	-35.80148	-55.32956	-51.26121	-56.9569	0
195	-51.26121	-17.90074	31.73313	34.17414	-41.49717	6.50936	39.86983	-25.22377	-34.98781	-56.14323	-52.07488	-56.9569	0
196	-52.07488	-18.71441	31.73313	34.17414	-42.31084	5.69569	40.6835	-24.4101	-33.36047	-55.32956	-52.07488	-57.77057	0
197	-52.88855	-19.52808	32.5468	34.98781	-43.12451	6.50936	41.49717	-23.59643	-32.5468	-55.32956	-52.88855	-57.77057	0
198	-54.51589	-20.34175	33.36047	36.61515	-43.93818	6.50936	41.49717	-22.78276	-31.73313	-56.14323	-53.70222	-58.58424	0
199	-55.32956	-20.34175	33.36047	36.61515	-44.75185	6.50936	42.31084	-21.96909	-30.91946	-56.14323	-53.70222	-58.58424	0
200	-55.32956	-21.15542	33.36047	36.61515	-44.75185	5.69569	42.31084	-21.15542	-30.10579	-56.9569	-54.51589	-58.58424	0
201	-54.51589	-21.15542	32.5468	36.61515	-43.93818	5.69569	42.31084	-20.34175	-30.10579	-57.77057	-54.51589	-58.58424	0
202	-53.70222	-21.15542	31.73313	36.61515	-43.12451	4.88202	42.31084	-20.34175	-30.91946	-58.58424	-55.32956	-59.39791	0
203	-52.88855	-21.15542	30.91946	35.80148	-42.31084	4.06835	42.31084	-21.15542	-32.5468	-61.02525	-56.14323	-60.21158	0
204	-51.26121	-21.15542	29.29212	34.98781	-40.6835	4.06835	42.31084	-21.15542	-34.17414	-64.27993	-57.77057	-61.83892	0
205	-50.44754	-20.34175	28.47845	34.17414	-39.86983	4.06835	41.49717	-21.96909	-35.80148	-66.72094	-59.39791	-63.46626	0
206	-48.8202	-19.52808	27.66478	33.36047	-39.05616	4.06835	40.6835	-22.78276	-36.61515	-69.97562	-61.83892	-65.0936	0
207	-48.00653	-19.52808	27.66478	32.5468	-38.24249	4.06835	40.6835	-22.78276	-36.61515	-71.60296	-63.46626	-65.90727	0
208	-47.19286	-19.52808	26.85111	32.5468	-37.42882	3.25468	39.86983	-21.96909	-37.42882	-73.2303	-64.27993	-66.72094	0
209	-46.37919	-20.34175	26.03744	32.5468	-36.61515	2.44101	39.05616	-21.96909	-37.42882	-74.85764	-65.0936	-66.72094	0
210	-47.19286	-21.96909	24.4101	34.17414	-36.61515	0.81367	37.42882	-22.78276	-38.24249	-75.67131	-66.72094	-67.53461	0
211	-49.63387	-25.22377	23.59643	36.61515	-36.61515	0	35.80148	-24.4101	-40.6835	-78.11232	-67.53461	-68.34828	0
212	-52.07488	-28.47845	23.59643	39.05616	-38.24249	-1.62734	33.36047	-26.03744	-43.12451	-80.55333	-69.16195	-69.16195	0
213	-55.32956	-30.91946	23.59643	42.31084	-39.86983	-3.25468	32.5468	-27.66478	-44.75185	-82.18067	-69.97562	-69.97562	0
214	-57.77057	-33.36047	23.59643	44.75185	-41.49717	-4.06835	31.73313	-28.47845	-46.37919	-82.99434	-70.78929	-69.97562	0
215	-61.02525	-35.80148	23.59643	47.19286	-42.31084	-5.69569	32.5468	-29.29212	-46.37919	-83.80801	-70.78929	-69.97562	0
216	-63.46626	-39.05616	23.59643	50.44754	-43.93818	-7.32303	32.5468	-29.29212	-46.37919	-83.80801	-71.60296	-69.97562	0
217	-64.27993	-41.49717	22.78276	52.07488	-43.93818	-8.95037	33.36047	-29.29212	-45.56552	-82.99434	-70.78929	-69.16195	0
218	-64.27993	-43.12451	20.34175	52.88855	-43.12451	-10.57771	34.17414	-28.47845	-44.75185	-82.99434	-70.78929	-68.34828	0
219	-63.46626	-44.75185	17.90074	52.88855	-40.6835	-13.01872	34.17414	-28.47845	-43.93818	-82.99434	-70.78929	-67.53461	0
220	-61.02525	-45.56552	14.64606	52.07488	-38.24249	-14.64606	34.17414	-27.66478	-43.93818	-82.99434	-69.97562	-66.72094	0
221	-58.58424	-45.56552	12.20505	51.26121	-35.80148	-16.2734	34.17414	-27.66478	-43.93818	-82.99434	-69.97562	-65.90727	0
222	-56.9569	-44.75185	10.57771	49.63387	-34.17414	-16.2734	33.36047	-27.66478	-44.75185	-82.99434	-69.16195	-65.0936	0
223	-54.51589	-43.12451	10.57771	48.00653	-33.36047	-15.45973	34.17414	-26.85111	-43.93818	-81.367	-67.53461	-64.27993	0
224	-52.88855	-40.6835	11.39138	45.56552	-32.5468	-13.83239	34.17414	-26.03744	-43.12451	-79.73966	-65.0936	-62.65259	0
225	-51.26121	-37.42882	13.01872	43.12451	-32.5468	-11.39138	34.98781	-25.22377	-40.6835	-76.48498	-62.65259	-61.02525	0
226	-50.44754	-34.17414	15.45973	41.49717	-33.36047	-8.95037	36.61515	-23.59643	-38.24249	-74.04397	-60.21158	-60.21158	0
227	-49.63387	-30.91946	17.90074	39.05616	-34.17414	-5.69569	38.24249	-21.96909	-35.80148	-71.60296	-56.9569	-57.77057	0
228	-48.00653	-27.66478	19.52808	36.61515	-34.17414	-3.25468	40.6835	-19.52808	-32.5468	-68.34828	-54.51589	-56.14323	0
229	-45.56552	-23.59643	20.34175	34.17414	-33.36047	-0.81367	43.12451	-16.2734	-29.29212	-65.0936	-51.26121	-52.88855	0
230	-43.12451	-20.34175	21.96909	30.91946	-32.5468	0.81367	45.56552	-13.01872	-26.03744	-61.83892	-48.00653	-49.63387	0
231	-40.6835	-17.08707	22.78276	27.66478	-32.5468	3.25468	48.8202	-10.57771	-22.78276	-57.77057	-43.93818	-46.37919	0
232	-39.05616	-13.01872	24.4101	25.22377	-32.5468	5.69569	51.26121	-8.95037	-19.52808	-54.51589	-39.86983	-42.31084	0
233	-37.42882	-9.76404	26.85111	22.78276	-32.5468	8.1367	53.70222	-7.32303	-17.08707	-50.44754	-37.42882	-39.86983	0
234	-35.80148	-7.32303	28.47845	20.34175	-32.5468	10.57771	56.14323	-6.50936	-14.64606	-48.00653	-35.80148	-38.24249	0
235	-35.80148	-4.06835	30.10579	19.52808	-33.36047	13.01872	58.58424	-5.69569	-13.01872	-46.37919	-35.80148	-37.42882	0
236	-35.80148	-1.62734	33.36047	17.90074	-34.98781	15.45973	61.02525	-4.06835	-12.20505	-45.56552	-35.80148	-37.42882	0
237	-35.80148	0	35.80148	17.08707	-36.61515	17.90074	64.27993	-3.25468	-11.39138	-45.56552	-37.42882	-38.24249	0
238	-35.80148	2.44101	38.24249	15.45973	-37.42882	20.34175	67.53461	-1.62734	-11.39138	-46.37919	-39.05616	-39.05616	0
239	-34.17414	5.69569	39.05616	13.01872	-37.42882	22.78276	69.97562	0	-10.57771	-46.37919	-39.86983	-39.86983	0
240	-30.91946	9.76404	40.6835	8.95037	-36.61515	25.22377	71.60296	1.62734	-8.95037	-43.93818	-39.05616	-39.05616	0
241	-26.85111	16.2734	42.31084	4.06835	-34.98781	29.29212	71.60296	4.06835	-6.50936	-40.6835	-35.80148	-36.61515	0
242	-21.96909	24.4101	45.56552	-1.62734	-34.17414	34.98781	69.97562	6.50936	-2.44101	-34.17414	-30.91946	-31.73313	0
243	-16.2734	34.17414	49.63387	-9.76404	-33.36047	42.31084	65.0936	6.50936	0.81367	-27.66478	-24.4101	-26.03744	0
244	-10.57771	44.75185	54.51589	-17.90074	-33.36047	49.63387	57.77057	5.69569	4.06835	-20.34175	-17.08707	-18.71441	0
245	-4.06835	56.14323	59.39791	-26.85111	-32.5468	57.77057	47.19286	3.25468	7.32303	-13.01872	-8.95037	-11.39138	0
246	2.44101	66.72094	63.46626	-35.80148	-30.91946	65.0936	34.98781	-0.81367	8.95037	-7.32303	-1.62734	-4.06835	0
247	8.95037	75.67131	65.90727	-43.93818	-28.47845	70.78929	21.15542	-6.50936	8.95037	-4.06835	3.25468	1.62734	0
248	14.64606	82.99434	66.72094	-49.63387	-26.03744	74.85764	6.50936	-14.64606	4.88202	-2.44101	6.50936	6.50936	0
249	19.52808	87.87636	67.53461	-54.51589	-24.4101	77.29865	-6.50936	-23.59643	0	-3.25468	8.1367	9.76404	0
250	21.96909	90.31737	67.53461	-56.9569	-22.78276	78.92599	-20.34175	-33.36047	-6.50936	-5.69569	8.95037	12.20505	0
251	22.78276	91.94471	68.34828	-58.58424	-22.78276	79.73966	-31.73313	-42.31084	-13.83239	-8.95037	8.1367	13.01872	0
252	21.96909	91.13104	68.34828	-57.77057	-22.78276	79.73966	-41.49717	-51.26121	-21.96909	-12.20505	6.50936	13.01872	0
253	21.15542	89.5037	67.53461	-56.14323	-23.59643	78.92599	-48.8202	-58.58424	-29.29212	-17.08707	4.88202	13.01872	0
254	20.34175	87.06269	65.0936	-54.51589	-22.78276	76.48498	-52.88855	-63.46626	-34.98781	-21.15542	2.44101	12.20505	0
255	20.34175	82.18067	60.21158	-52.07488	-20.34175	71.60296	-54.51589	-65.90727	-39.05616	-24.4101	0.81367	11.39138	0
256	21.15542	74.04397	52.07488	-48.00653	-16.2734	63.46626	-52.88855	-65.90727	-41.49717	-28.47845	-1.62734	9.76404	0
257	20.34175	63.46626	42.31084	-43.12451	-10.57771	52.88855	-49.63387	-65.0936	-43.93818	-32.5468	-4.88202	6.50936	0
258	19.52808	51.26121	30.10579	-36.61515	-5.69569	40.6835	-43.93818	-61.83892	-44.75185	-35.80148	-8.1367	4.06835	0
259	18.71441	37.42882	18.71441	-28.47845	0	28.47845	-37.42882	-57.77057	-44.75185	-39.05616	-11.39138	0.81367	0
260	16.2734	24.4101	8.1367	-21.15542	3.25468	16.2734	-29.29212	-52.88855	-44.75185	-41.49717	-14.64606	-1.62734	0
261	12.20505	13.01872	0	-13.83239	4.88202	6.50936	-21.15542	-48.00653	-43.93818	-43.93818	-16.2734	-4.06835	0
262	7.32303	3.25468	-4.06835	-5.69569	4.88202	0	-12.20505	-43.12451	-43.12451	-44.75185	-18.71441	-6.50936	0
263	0.81367	-4.06835	-5.69569	0.81367	2.44101	-4.88202	-4.06835	-38.24249	-41.49717	-45.56552	-20.34175	-9.76404	0
264	-6.50936	-11.39138	-4.88202	8.1367	-0.81367	-8.1367	4.06835	-34.17414	-39.86983	-46.37919	-22.78276	-13.01872	0
265	-14.64606	-17.08707	-1.62734	14.64606	-6.50936	-8.95037	11.39138	-30.91946	-38.24249	-46.37919	-25.22377	-16.2734	0
266	-22.78276	-21.15542	0.81367	21.15542	-12.20505	-9.76404	17.90074	-29.29212	-37.42882	-47.19286	-27.66478	-20.34175	0
267	-30.91946	-24.4101	5.69569	26.85111	-18.71441	-8.95037	22.78276	-29.29212	-37.42882	-48.8202	-30.91946	-24.4101	0
268	-37.42882	-27.66478	8.95037	31.73313	-23.59643	-8.95037	26.85111	-30.91946	-39.05616	-51.26121	-34.98781	-29.29212	0
269	-43.12451	-30.10579	12.20505	35.80148	-28.47845	-8.1367	28.47845	-33.36047	-41.49717	-54.51589	-39.05616	-33.36047	0
270	-48.00653	-31.73313	15.45973	39.05616	-31.73313	-8.1367	29.29212	-36.61515	-44.75185	-57.77057	-42.31084	-37.42882	0
271	-51.26121	-34.17414	17.08707	42.31084	-34.98781	-8.1367	28.47845	-40.6835	-48.00653	-61.02525	-45.56552	-39.86983	0
272	-54.51589	-35.80148	17.90074	44.75185	-36.61515	-8.95037	27.66478	-44.75185	-51.26121	-63.46626	-48.00653	-42.31084	0
273	-57.77057	-38.24249	18.71441	47.19286	-38.24249	-9.76404	26.03744	-47.19286	-52.88855	-65.0936	-49.63387	-44.75185	0
274	-61.02525	-40.6835	19.52808	49.63387	-40.6835	-9.76404	25.22377	-49.63387	-54.51589	-66.72094	-51.26121	-46.37919	0
275	-64.27993	-42.31084	20.34175	52.88855	-43.12451	-10.57771	24.4101	-51.26121	-55.32956	-68.34828	-52.88855	-48.00653	0
276	-66.72094	-43.93818	21.96909	54.51589	-44.75185	-10.57771	23.59643	-52.88855	-56.9569	-69.16195	-54.51589	-49.63387	0
277	-69.16195	-44.75185	23.59643	56.14323	-46.37919	-10.57771	21.96909	-54.51589	-58.58424	-70.78929	-56.14323	-52.07488	0
278	-69.97562	-44.75185	24.4101	56.9569	-48.00653	-9.76404	21.15542	-56.14323	-61.02525	-73.2303	-58.58424	-54.51589	0
279	-69.97562	-43.93818	25.22377	56.14323	-48.00653	-8.95037	18.71441	-58.58424	-63.46626	-75.67131	-61.02525	-56.9569	0
280	-69.16195	-43.12451	25.22377	55.32956	-48.00653	-8.95037	16.2734	-61.02525	-67.53461	-78.11232	-64.27993	-59.39791	0
281	-68.34828	-42.31084	25.22377	54.51589	-47.19286	-8.1367	13.83239	-63.46626	-70.78929	-80.55333	-66.72094	-61.83892	0
282	-68.34828	-40.6835	26.03744	53.70222	-47.19286	-7.32303	13.83239	-65.90727	-73.2303	-82.18067	-68.34828	-63.46626	0
283	-67.53461	-40.6835	26.85111	52.88855	-48.00653	-6.50936	13.83239	-66.72094	-74.85764	-82.99434	-69.97562	-65.0936	0
284	-67.53461	-39.86983	26.85111	52.88855	-48.00653	-6.50936	14.64606	-67.53461	-75.67131	-82.99434	-70.78929	-65.90727	0
285	-68.34828	-40.6835	26.85111	53.70222	-48.00653	-6.50936	15.45973	-66.72094	-74.04397	-81.367	-70.78929	-65.90727	0
286	-68.34828	-41.49717	26.03744	54.51589	-48.00653	-7.32303	17.90074	-65.0936	-73.2303	-79.73966	-70.78929	-65.90727	0
287	-68.34828	-42.31084	26.03744	54.51589	-48.00653	-7.32303	20.34175	-62.65259	-71.60296	-78.11232	-69.97562	-65.0936	0
288	-68.34828	-42.31084	25.22377	54.51589	-48.00653	-8.1367	23.59643	-61.02525	-70.78929	-77.29865	-69.97562	-65.0936	0
289	-68.34828	-42.31084	25.22377	54.51589	-47.19286	-8.1367	26.03744	-58.58424	-70.78929	-77.29865	-69.16195	-64.27993	0
290	-68.34828	-42.31084	25.22377	54.51589	-47.19286	-8.1367	28.47845	-57.77057	-71.60296	-78.11232	-69.16195	-64.27993	0
291	-68.34828	-43.12451	24.4101	54.51589	-47.19286	-8.95037	30.10579	-56.9569	-72.41663	-78.11232	-68.34828	-63.46626	0
292	-69.16195	-44.75185	24.4101	56.14323	-47.19286	-9.76404	30.91946	-57.77057	-73.2303	-78.92599	-69.16195	-63.46626	0
293	-71.60296	-47.19286	24.4101	58.58424	-48.8202	-10.57771	30.91946	-57.77057	-74.85764	-79.73966	-69.16195	-63.46626	0
294	-75.67131	-49.63387	24.4101	61.83892	-50.44754	-12.20505	30.91946	-58.58424	-75.67131	-81.367	-70.78929	-64.27993	0
295	-78.92599	-52.88855	25.22377	65.0936	-52.88855	-13.01872	30.10579	-60.21158	-77.29865	-82.99434	-72.41663	-65.0936	0
296	-82.18067	-56.14323	26.03744	68.34828	-54.51589	-14.64606	29.29212	-61.02525	-78.11232	-85.43535	-74.85764	-65.90727	0
297	-84.62168	-57.77057	26.03744	69.97562	-55.32956	-15.45973	28.47845	-61.83892	-79.73966	-87.87636	-77.29865	-67.53461	0
298	-85.43535	-58.58424	26.85111	70.78929	-56.9569	-15.45973	27.66478	-62.65259	-81.367	-91.13104	-78.92599	-69.16195	0
299	-87.06269	-58.58424	26.85111	71.60296	-57.77057	-15.45973	26.85111	-63.46626	-82.99434	-93.57205	-81.367	-70.78929	0
300	-87.06269	-58.58424	27.66478	72.41663	-57.77057	-14.64606	26.03744	-64.27993	-84.62168	-96.01306	-82.99434	-71.60296	0
301	-87.06269	-57.77057	28.47845	72.41663	-58.58424	-14.64606	26.03744	-65.0936	-86.24902	-96.82673	-83.80801	-72.41663	0
302	-87.06269	-57.77057	28.47845	71.60296	-58.58424	-13.83239	26.03744	-65.0936	-87.06269	-96.82673	-82.99434	-72.41663	0
303	-87.06269	-56.9569	29.29212	71.60296	-58.58424	-13.83239	26.03744	-65.0936	-86.24902	-96.01306	-82.99434	-72.41663	0
304	-87.06269	-56.9569	29.29212	71.60296	-58.58424	-13.01872	26.85111	-64.27993	-85.43535	-93.57205	-82.18067	-71.60296	0
305	-87.06269	-56.9569	29.29212	70.78929	-58.58424	-13.01872	27.66478	-63.46626	-83.80801	-91.13104	-80.55333	-71.60296	0
306	-87.06269	-56.9569	29.29212	70.78929	-58.58424	-13.01872	28.47845	-63.46626	-82.99434	-88.69003	-80.55333	-71.60296	0
307	-87.06269	-56.14323	29.29212	70.78929	-58.58424	-13.01872	29.29212	-62.65259	-82.18067	-87.06269	-79.73966	-71.60296	0
308	-86.24902	-56.14323	29.29212	70.78929	-58.58424	-13.01872	29.29212	-62.65259	-82.18067	-86.24902	-79.73966	-71.60296	0
309	-86.24902	-55.32956	30.10579	69.97562	-58.58424	-12.20505	29.29212	-63.46626	-82.18067	-84.62168	-78.92599	-70.78929	0
310	-86.24902	-53.70222	30.91946	69.16195	-58.58424	-10.57771	29.29212	-63.46626	-82.99434	-84.62168	-78.92599	-69.97562	0
311	-86.24902	-52.88855	32.5468	68.34828	-59.39791	-9.76404	29.29212	-63.46626	-84.62168	-84.62168	-78.11232	-69.16195	0
312	-86.24902	-52.88855	33.36047	68.34828	-60.21158	-8.95037	30.10579	-64.27993	-85.43535	-84.62168	-78.11232	-69.16195	0
313	-87.06269	-52.88855	33.36047	69.16195	-60.21158	-8.95037	30.10579	-64.27993	-85.43535	-85.43535	-78.11232	-68.34828	0
314	-87.87636	-53.70222	33.36047	69.97562	-61.02525	-9.76404	31.73313	-63.46626	-85.43535	-86.24902	-78.92599	-69.16195	0
315	-89.5037	-55.32956	33.36047	70.78929	-61.83892	-10.57771	33.36047	-63.46626	-85.43535	-87.87636	-80.55333	-69.97562	0
316	-91.13104	-56.14323	34.17414	72.41663	-62.65259	-10.57771	34.98781	-62.65259	-85.43535	-88.69003	-82.18067	-70.78929	0
317	-92.75838	-56.9569	34.98781	74.04397	-64.27993	-10.57771	36.61515	-61.83892	-85.43535	-90.31737	-83.80801	-72.41663	0
318	-93.57205	-57.77057	35.80148	74.85764	-65.0936	-10.57771	36.61515	-61.02525	-86.24902	-91.94471	-85.43535	-73.2303	0
319	-94.38572	-56.9569	36.61515	74.85764	-65.90727	-9.76404	36.61515	-61.02525	-87.06269	-92.75838	-86.24902	-74.04397	0
320	-94.38572	-56.14323	36.61515	74.85764	-65.90727	-8.95037	35.80148	-61.83892	-88.69003	-94.38572	-87.06269	-74.04397	0
321	-93.57205	-55.32956	37.42882	74.04397	-65.90727	-8.1367	34.98781	-62.65259	-90.31737	-95.19939	-87.87636	-74.85764	0
322	-92.75838	-54.51589	37.42882	72.41663	-65.0936	-8.1367	34.17414	-64.27993	-91.94471	-96.01306	-88.69003	-75.67131	0
323	-91.13104	-52.88855	37.42882	71.60296	-65.0936	-7.32303	33.36047	-65.0936	-93.57205	-96.82673	-89.5037	-76.48498	0
324	-90.31737	-51.26121	38.24249	69.97562	-64.27993	-6.50936	32.5468	-65.90727	-93.57205	-96.82673	-90.31737	-78.11232	0
325	-89.5037	-49.63387	39.05616	69.16195	-64.27993	-4.88202	32.5468	-65.90727	-94.38572	-96.82673	-91.13104	-78.92599	0
326	-89.5037	-48.00653	40.6835	68.34828	-65.0936	-3.25468	33.36047	-65.90727	-94.38572	-96.82673	-92.75838	-80.55333	0
327	-89.5037	-47.19286	41.49717	67.53461	-65.90727	-2.44101	34.17414	-65.90727	-93.57205	-96.82673	-93.57205	-81.367	0
328	-89.5037	-46.37919	42.31084	67.53461	-66.72094	-1.62734	35.80148	-65.0936	-93.57205	-96.82673	-94.38572	-82.18067	0
329	-89.5037	-45.56552	43.12451	66.72094	-66.72094	-0.81367	36.61515	-65.0936	-93.57205	-96.82673	-94.38572	-82.18067	0
330	-88.69003	-45.56552	42.31084	65.90727	-65.90727	-1.62734	37.42882	-63.46626	-93.57205	-96.82673	-93.57205	-81.367	0
331	-87.06269	-44.75185	40.6835	65.0936	-64.27993	-1.62734	38.24249	-62.65259	-92.75838	-95.19939	-91.94471	-78.92599	0
332	-85.43535	-43.93818	39.86983	63.46626	-62.65259	-1.62734	39.05616	-61.83892	-91.94471	-94.38572	-90.31737	-76.48498	0
333	-83.80801	-43.12451	39.05616	62.65259	-61.83892	-1.62734	39.86983	-60.21158	-91.13104	-92.75838	-88.69003	-74.85764	0
334	-82.99434	-43.93818	38.24249	62.65259	-61.02525	-2.44101	40.6835	-59.39791	-90.31737	-92.75838	-87.87636	-73.2303	0
335	-82.99434	-44.75185	37.42882	63.46626	-61.02525	-3.25468	41.49717	-58.58424	-89.5037	-91.94471	-87.87636	-72.41663	0
336	-85.43535	-47.19286	36.61515	65.90727	-61.02525	-4.88202	42.31084	-57.77057	-88.69003	-91.94471	-87.87636	-72.41663	0
337	-87.87636	-51.26121	35.80148	69.16195	-61.83892	-7.32303	43.12451	-57.77057	-88.69003	-92.75838	-88.69003	-73.2303	0
338	-90.31737	-55.32956	34.17414	72.41663	-62.65259	-9.76404	43.93818	-57.77057	-88.69003	-93.57205	-89.5037	-73.2303	1500	QRS+0
339	-92.75838	-58.58424	33.36047	74.85764	-63.46626	-12.20505	43.93818	-57.77057	-88.69003	-93.57205	-89.5037	-73.2303	0
340	-92.75838	-59.39791	31.73313	75.67131	-62.65259	-13.83239	44.75185	-57.77057	-88.69003	-92.75838	-88.69003	-72.41663	0
341	-91.94471	-60.21158	30.91946	74.85764	-61.83892	-13.83239	44.75185	-58.58424	-87.87636	-90.31737	-86.24902	-70.78929	0
342	-91.13104	-59.39791	30.91946	74.04397	-61.83892	-13.83239	45.56552	-58.58424	-87.06269	-87.06269	-83.80801	-69.16195	0
343	-90.31737	-58.58424	30.91946	73.2303	-61.02525	-13.01872	46.37919	-57.77057	-86.24902	-84.62168	-81.367	-67.53461	0
344	-90.31737	-57.77057	30.91946	73.2303	-61.02525	-13.01872	48.00653	-56.9569	-84.62168	-82.18067	-80.55333	-66.72094	0
345	-90.31737	-58.58424	30.91946	73.2303	-61.02525	-13.01872	48.8202	-55.32956	-82.18067	-81.367	-79.73966	-66.72094	0
346	-90.31737	-58.58424	30.10579	74.04397	-61.02525	-13.83239	50.44754	-53.70222	-80.55333	-81.367	-81.367	-67.53461	0
347	-88.69003	-59.39791	28.47845	73.2303	-59.39791	-14.64606	52.88855	-50.44754	-78.11232	-82.18067	-82.99434	-69.16195	0
348	-86.24902	-60.21158	25.22377	72.41663	-56.14323	-17.08707	56.14323	-43.93818	-74.85764	-83.80801	-85.43535	-71.60296	0
349	-82.99434	-63.46626	18.71441	72.41663	-51.26121	-21.96909	61.83892	-32.5468	-69.16195	-86.24902	-89.5037	-75.67131	0
350	-78.11232	-69.97562	7.32303	73.2303	-43.12451	-30.91946	70.78929	-13.01872	-59.39791	-89.5037	-95.19939	-81.367	0
351	-70.78929	-79.73966	-9.76404	74.85764	-30.91946	-44.75185	82.99434	16.2734	-41.49717	-90.31737	-100.89508	-88.69003	0
352	-58.58424	-92.75838	-34.17414	74.85764	-12.20505	-63.46626	98.45407	56.9569	-14.64606	-88.69003	-104.96343	-96.01306	0
353	-42.31084	-108.21811	-66.72094	74.04397	11.39138	-87.87636	118.79582	109.84545	23.59643	-82.99434	-108.21811	-102.52242	0
354	-18.71441	-126.93252	-108.21811	71.60296	43.93818	-117.98215	142.39225	174.12538	76.48498	-71.60296	-109.03178	-109.03178	0
355	11.39138	-148.08794	-160.29299	67.53461	85.43535	-154.5973	168.42969	249.79669	143.20592	-53.70222	-105.7771	-113.10013	0
356	50.44754	-173.31171	-224.57292	59.39791	137.51023	-199.34915	194.46713	331.97736	222.13191	-29.29212	-97.6404	-113.9138	0
357	97.6404	-200.16282	-298.61689	49.63387	197.72181	-249.79669	218.06356	413.34436	310.00827	1.62734	-84.62168	-111.47279	0
358	152.15629	-227.01393	-379.17022	35.80148	265.25642	-303.49891	233.52329	486.57466	402.76665	41.49717	-63.46626	-102.52242	0
359	213.18154	-248.16935	-462.16456	16.2734	336.85938	-355.57379	237.59164	541.90422	498.77971	91.13104	-32.5468	-85.43535	0
360	281.52982	-260.3744	-542.71789	-11.39138	411.71702	-401.95298	229.45494	575.26469	594.79277	156.22464	12.20505	-55.32956	0
361	358.0148	-258.74706	-617.57553	-49.63387	487.38833	-437.75446	204.23117	581.77405	689.99216	239.21898	77.29865	-8.95037	0
362	438.56813	-241.65999	-681.04179	-99.26774	559.80496	-461.35089	160.29299	557.36395	780.30953	340.92773	163.54767	54.51589	0
363	521.56247	-209.11319	-731.48933	-157.03831	625.71223	-470.30126	95.19939	501.22072	863.30387	463.7919	270.13844	137.51023	0
364	603.74314	-161.10666	-764.8498	-222.13191	683.4828	-462.97823	7.32303	413.34436	937.34784	605.37048	397.88463	237.59164	0
365	680.22812	-99.26774	-779.49586	-291.29386	729.04832	-439.3818	-102.52242	294.54854	995.93208	762.40879	543.53156	353.94645	0
366	745.32172	-25.22377	-771.35916	-360.45581	757.52677	-397.88463	-234.33696	144.01959	1036.61558	931.65215	703.82455	482.50631	0
367	791.70091	56.9569	-734.74401	-425.54941	763.22246	-338.48672	-379.17022	-31.73313	1055.32999	1104.96386	868.99956	618.3892	0
368	813.67	144.01959	-669.65041	-480.0653	741.25337	-262.81541	-528.07183	-227.01393	1044.75228	1266.07052	1027.66521	751.01741	0
369	807.16064	228.64127	-578.51937	-518.30779	692.43317	-174.12538	-668.83674	-430.43143	995.11841	1397.07139	1162.73443	868.99956	0
370	770.54549	303.49891	-467.04658	-537.83587	617.57553	-81.367	-795.76926	-631.40792	897.47801	1475.18371	1257.93382	960.94427	0
371	707.8929	363.71049	-343.36874	-537.0222	524.81715	9.76404	-905.61471	-820.99303	747.76273	1488.20243	1303.49934	1018.71484	0
372	624.89856	408.46234	-216.43622	-517.49412	419.85372	96.01306	-994.30474	-993.49107	549.22725	1433.68654	1297.80365	1040.68393	0
373	531.32651	440.19547	-91.13104	-486.57466	310.00827	174.12538	-1060.21201	-1145.64736	309.1946	1319.77274	1247.35611	1030.91989	0
374	432.05877	461.35089	28.47845	-447.5185	200.16282	244.91467	-1102.52285	-1272.57988	42.31084	1160.29342	1161.10709	995.11841	0
375	331.97736	476.81062	143.20592	-405.20766	93.57205	310.00827	-1118.79625	-1368.59294	-234.33696	965.01262	1046.37962	938.16151	0
376	234.33696	486.57466	251.42403	-361.26948	-8.95037	368.59251	-1106.5912	-1426.36351	-502.03439	749.39007	909.68306	860.86286	0
377	139.13757	490.64301	350.69177	-315.70396	-105.7771	420.66739	-1066.72137	-1442.63691	-738.81236	529.69917	758.34044	766.47714	0
378	51.26121	489.01567	436.94079	-270.95211	-192.83979	462.97823	-1002.44144	-1416.59947	-925.14279	321.39965	601.30213	660.70004	0
379	-26.03744	479.25163	505.28907	-227.01393	-266.07009	492.27035	-921.07444	-1356.38789	-1053.70265	138.3239	449.95951	550.85459	0
380	-91.13104	461.35089	552.48193	-185.51676	-322.21332	506.91641	-829.9434	-1267.69786	-1123.67827	-12.20505	311.63561	442.63648	0
381	-141.57858	436.94079	578.51937	-148.08794	-360.45581	507.73008	-735.55768	-1160.29342	-1142.39268	-127.74619	192.83979	343.36874	0
382	-177.38006	408.46234	585.8424	-115.54114	-382.4249	497.15237	-643.61297	-1043.12494	-1118.79625	-208.29952	97.6404	257.11972	0
383	-200.16282	378.35655	577.7057	-89.5037	-389.74793	477.62429	-557.36395	-924.32912	-1067.53504	-258.74706	23.59643	184.70309	0
384	-212.36787	346.62342	558.17762	-67.53461	-385.67958	452.40052	-478.43796	-812.04266	-1000.00043	-287.22551	-30.10579	126.11885	0
385	-217.24989	314.07662	531.32651	-48.8202	-374.2882	422.29473	-407.64867	-711.14758	-925.95646	-300.24423	-70.78929	78.92599	0
386	-218.06356	280.71615	497.96604	-31.73313	-358.82847	389.74793	-344.99608	-621.64388	-852.72616	-303.49891	-100.08141	39.86983	0
387	-216.43622	246.54201	462.97823	-15.45973	-340.11406	354.76012	-289.66652	-543.53156	-782.75054	-300.24423	-122.0505	7.32303	0
388	-214.80888	212.36787	427.17675	0	-321.39965	319.77231	-240.84632	-475.99695	-719.28428	-293.73487	-138.3239	-19.52808	0
389	-212.36787	181.44841	393.00261	13.83239	-302.68524	287.22551	-198.53548	-419.04005	-661.51371	-285.59817	-150.52895	-42.31084	0
390	-208.29952	152.96996	361.26948	26.03744	-284.7845	257.11972	-163.54767	-371.03352	-611.87984	-277.46147	-159.47932	-61.02525	0
391	-203.4175	128.55986	331.97736	36.61515	-267.69743	230.26861	-133.44188	-331.97736	-569.569	-269.32477	-165.17501	-76.48498	0
392	-198.53548	106.59077	305.12625	44.75185	-252.2377	205.85851	-109.03178	-300.24423	-532.95385	-262.81541	-170.8707	-88.69003	0
393	-194.46713	87.06269	280.71615	52.07488	-237.59164	183.88942	-88.69003	-273.39312	-501.22072	-257.11972	-174.93905	-99.26774	0
394	-189.58511	69.97562	259.56073	58.58424	-225.38659	165.17501	-70.78929	-249.79669	-471.9286	-250.61036	-177.38006	-107.40444	0
395	-185.51676	56.14323	241.65999	63.46626	-213.99521	148.90161	-54.51589	-227.8276	-444.26382	-244.101	-179.0074	-114.72747	0
396	-181.44841	44.75185	226.20026	67.53461	-204.23117	135.06922	-40.6835	-208.29952	-417.41271	-235.9643	-179.82107	-119.60949	0
397	-177.38006	35.80148	213.18154	69.16195	-195.2808	124.49151	-29.29212	-189.58511	-392.18894	-227.8276	-179.0074	-123.67784	0
398	-172.49804	29.29212	201.79016	70.78929	-187.95777	115.54114	-18.71441	-171.68437	-369.40618	-218.06356	-177.38006	-125.30518	0
399	-167.61602	25.22377	193.65346	69.97562	-180.63474	109.03178	-9.76404	-155.41097	-346.62342	-207.48585	-173.31171	-125.30518	0
400	-161.92033	24.4101	186.33043	67.53461	-174.12538	104.96343	-2.44101	-139.13757	-325.468	-196.09447	-168.42969	-123.67784	0
401	-156.22464	24.4101	180.63474	65.0936	-169.24336	102.52242	4.06835	-123.67784	-304.31258	-183.07575	-161.10666	-120.42316	0
402	-151.34262	26.03744	177.38006	61.83892	-164.36134	101.70875	9.76404	-109.84545	-283.97083	-170.05703	-153.78363	-117.16848	0
403	-148.08794	27.66478	175.75272	58.58424	-161.92033	101.70875	14.64606	-97.6404	-265.25642	-157.85198	-147.27427	-113.10013	0
404	-145.64693	29.29212	175.75272	56.9569	-161.10666	102.52242	18.71441	-87.06269	-248.98302	-147.27427	-141.57858	-109.84545	0
405	-145.64693	30.91946	176.56639	56.14323	-161.92033	104.14976	21.96909	-78.11232	-234.33696	-139.13757	-135.88289	-106.59077	0
406	-145.64693	32.5468	178.19373	55.32956	-161.92033	105.7771	25.22377	-70.78929	-222.13191	-132.62821	-131.81454	-103.33609	0
407	-145.64693	33.36047	179.0074	54.51589	-162.734	106.59077	27.66478	-65.90727	-212.36787	-127.74619	-127.74619	-100.08141	0
408	-145.64693	34.17414	179.82107	54.51589	-163.54767	107.40444	29.29212	-61.02525	-204.23117	-124.49151	-124.49151	-96.82673	0
409	-144.83326	34.98781	179.82107	53.70222	-162.734	107.40444	30.91946	-57.77057	-197.72181	-122.0505	-121.23683	-93.57205	0
410	-143.20592	34.98781	179.0074	52.88855	-161.92033	107.40444	30.91946	-55.32956	-192.83979	-119.60949	-117.98215	-90.31737	0
411	-142.39225	34.98781	177.38006	52.07488	-160.29299	106.59077	31.73313	-53.70222	-187.95777	-117.16848	-114.72747	-87.06269	0
412	-140.76491	34.98781	175.75272	52.07488	-158.66565	105.7771	31.73313	-52.88855	-183.88942	-114.72747	-111.47279	-84.62168	0
413	-139.13757	34.98781	174.12538	51.26121	-157.03831	104.96343	32.5468	-51.26121	-179.82107	-113.10013	-109.03178	-82.99434	0
414	-137.51023	34.98781	172.49804	50.44754	-155.41097	104.14976	32.5468	-49.63387	-175.75272	-111.47279	-107.40444	-81.367	0
415	-135.06922	35.80148	170.8707	48.8202	-153.78363	103.33609	33.36047	-48.00653	-170.8707	-110.65912	-105.7771	-80.55333	0
416	-133.44188	35.80148	169.24336	47.19286	-151.34262	102.52242	33.36047	-46.37919	-166.80235	-109.03178	-104.96343	-80.55333	0
417	-131.00087	36.61515	167.61602	45.56552	-149.71528	101.70875	33.36047	-44.75185	-161.92033	-108.21811	-104.14976	-79.73966	0
418	-127.74619	37.42882	165.98868	43.93818	-147.27427	101.70875	33.36047	-43.12451	-157.85198	-106.59077	-103.33609	-79.73966	0
419	-125.30518	38.24249	163.54767	42.31084	-144.83326	100.89508	32.5468	-40.6835	-153.78363	-104.14976	-101.70875	-78.92599	0
420	-122.0505	39.86983	161.92033	39.86983	-142.39225	100.89508	30.91946	-37.42882	-149.71528	-100.89508	-99.26774	-78.11232	0
421	-118.79582	40.6835	160.29299	38.24249	-139.95124	100.89508	30.10579	-34.98781	-145.64693	-96.82673	-96.01306	-76.48498	0
422	-116.35481	42.31084	159.47932	35.80148	-138.3239	100.89508	28.47845	-31.73313	-139.95124	-92.75838	-92.75838	-74.04397	0
423	-113.9138	44.75185	158.66565	33.36047	-136.69656	100.89508	28.47845	-28.47845	-134.25555	-87.87636	-89.5037	-72.41663	0
424	-112.28646	46.37919	157.85198	31.73313	-135.06922	101.70875	28.47845	-23.59643	-127.74619	-82.99434	-86.24902	-69.97562	0
425	-110.65912	47.19286	157.85198	30.10579	-134.25555	102.52242	30.10579	-19.52808	-120.42316	-79.73966	-83.80801	-67.53461	0
426	-109.03178	48.00653	157.85198	29.29212	-134.25555	102.52242	31.73313	-14.64606	-113.9138	-76.48498	-82.18067	-65.90727	0
427	-109.03178	48.00653	157.03831	30.10579	-133.44188	101.70875	33.36047	-10.57771	-108.21811	-74.85764	-81.367	-65.0936	0
428	-109.03178	46.37919	156.22464	30.10579	-133.44188	100.89508	34.98781	-7.32303	-103.33609	-73.2303	-80.55333	-63.46626	0
429	-109.03178	44.75185	154.5973	30.91946	-132.62821	99.26774	35.80148	-4.06835	-99.26774	-72.41663	-78.92599	-62.65259	0
430	-109.03178	43.93818	152.96996	31.73313	-131.00087	97.6404	35.80148	-0.81367	-95.19939	-71.60296	-78.11232	-61.02525	0
431	-107.40444	42.31084	150.52895	30.91946	-129.37353	96.82673	35.80148	2.44101	-90.31737	-69.97562	-75.67131	-59.39791	0
432	-105.7771	42.31084	148.90161	30.91946	-127.74619	95.19939	35.80148	5.69569	-85.43535	-68.34828	-74.04397	-57.77057	-1500	QRS-0
433	-104.14976	41.49717	146.4606	30.10579	-126.11885	94.38572	36.61515	10.57771	-79.73966	-65.0936	-71.60296	-55.32956	0
434	-102.52242	41.49717	144.01959	28.47845	-123.67784	92.75838	36.61515	15.45973	-73.2303	-61.83892	-68.34828	-53.70222	0
435	-100.89508	42.31084	142.39225	27.66478	-122.0505	92.75838	37.42882	21.15542	-65.0936	-57.77057	-65.0936	-51.26121	0
436	-98.45407	42.31084	141.57858	26.85111	-120.42316	91.94471	37.42882	27.66478	-56.9569	-52.88855	-61.02525	-49.63387	0
437	-96.82673	43.12451	139.95124	25.22377	-118.79582	91.94471	37.42882	33.36047	-48.8202	-48.8202	-58.58424	-47.19286	0
438	-94.38572	43.93818	137.51023	24.4101	-116.35481	91.13104	38.24249	38.24249	-42.31084	-45.56552	-55.32956	-45.56552	0
439	-91.94471	43.93818	135.88289	22.78276	-113.9138	89.5037	38.24249	43.12451	-36.61515	-43.12451	-53.70222	-43.93818	0
440	-90.31737	43.93818	133.44188	21.96909	-112.28646	88.69003	38.24249	48.00653	-32.5468	-40.6835	-53.70222	-43.93818	0
441	-87.87636	43.93818	131.81454	21.15542	-109.84545	87.87636	39.05616	52.07488	-27.66478	-39.05616	-52.88855	-43.12451	0
442	-85.43535	43.93818	129.37353	19.52808	-107.40444	87.06269	40.6835	57.77057	-22.78276	-37.42882	-52.88855	-43.12451	0
443	-82.18067	44.75185	126.93252	17.90074	-104.96343	86.24902	43.12451	63.46626	-16.2734	-34.98781	-52.88855	-43.93818	0
444	-79.73966	44.75185	124.49151	16.2734	-102.52242	84.62168	45.56552	69.97562	-10.57771	-33.36047	-53.70222	-43.93818	0
445	-77.29865	44.75185	122.0505	14.64606	-100.08141	82.99434	48.00653	77.29865	-3.25468	-30.91946	-53.70222	-43.93818	0
446	-74.04397	43.93818	118.79582	13.83239	-96.82673	81.367	50.44754	84.62168	3.25468	-28.47845	-52.88855	-43.93818	0
447	-71.60296	43.93818	115.54114	12.20505	-94.38572	79.73966	52.07488	92.75838	11.39138	-25.22377	-52.07488	-43.93818	0
448	-68.34828	43.93818	112.28646	11.39138	-91.13104	78.11232	53.70222	101.70875	19.52808	-21.96909	-50.44754	-42.31084	0
449	-65.0936	43.93818	109.03178	9.76404	-87.87636	76.48498	55.32956	110.65912	26.85111	-19.52808	-48.8202	-40.6835	0
450	-61.83892	44.75185	106.59077	7.32303	-84.62168	75.67131	56.14323	119.60949	33.36047	-16.2734	-46.37919	-39.05616	0
451	-58.58424	45.56552	104.14976	4.88202	-81.367	74.85764	57.77057	128.55986	40.6835	-13.01872	-43.93818	-35.80148	0
452	-53.70222	47.19286	101.70875	1.62734	-78.11232	74.04397	58.58424	137.51023	48.00653	-8.95037	-40.6835	-33.36047	0
453	-49.63387	49.63387	99.26774	-0.81367	-74.85764	74.04397	59.39791	146.4606	56.14323	-4.88202	-38.24249	-30.91946	0
454	-44.75185	51.26121	96.01306	-4.06835	-70.78929	74.04397	61.02525	156.22464	65.0936	-0.81367	-35.80148	-28.47845	0
455	-39.86983	52.88855	92.75838	-7.32303	-66.72094	73.2303	63.46626	166.80235	74.85764	2.44101	-33.36047	-26.85111	0
456	-34.98781	53.70222	88.69003	-9.76404	-61.83892	70.78929	66.72094	177.38006	85.43535	5.69569	-31.73313	-25.22377	0
457	-29.29212	54.51589	82.99434	-13.01872	-56.9569	69.16195	69.16195	187.95777	96.01306	8.95037	-30.10579	-24.4101	0
458	-23.59643	53.70222	78.11232	-15.45973	-51.26121	65.90727	71.60296	199.34915	106.59077	12.20505	-28.47845	-23.59643	0
459	-18.71441	53.70222	71.60296	-17.90074	-45.56552	62.65259	74.04397	211.5542	117.16848	15.45973	-26.03744	-21.96909	0
460	-13.01872	52.88855	65.0936	-20.34175	-39.86983	59.39791	76.48498	223.75925	128.55986	19.52808	-23.59643	-19.52808	0
461	-7.32303	51.26121	59.39791	-21.96909	-34.17414	55.32956	79.73966	236.77797	140.76491	25.22377	-20.34175	-17.90074	0
462	-3.25468	49.63387	52.88855	-23.59643	-28.47845	51.26121	82.18067	249.79669	153.78363	30.91946	-16.2734	-14.64606	0
463	0	48.00653	47.19286	-25.22377	-23.59643	47.19286	84.62168	262.81541	167.61602	38.24249	-11.39138	-12.20505	0
464	4.88202	46.37919	41.49717	-26.85111	-18.71441	43.93818	87.87636	276.6478	182.26208	45.56552	-7.32303	-9.76404	0
465	8.95037	45.56552	35.80148	-28.47845	-13.01872	40.6835	90.31737	291.29386	196.90814	52.88855	-2.44101	-7.32303	0
466	14.64606	45.56552	30.91946	-30.91946	-8.1367	38.24249	92.75838	305.93992	212.36787	60.21158	1.62734	-4.88202	0
467	21.15542	47.19286	25.22377	-34.98781	-2.44101	35.80148	95.19939	320.58598	227.01393	66.72094	5.69569	-1.62734	0
468	28.47845	48.8202	19.52808	-39.86983	4.06835	34.17414	96.82673	335.23204	241.65999	71.60296	10.57771	1.62734	0
469	36.61515	51.26121	13.83239	-44.75185	10.57771	32.5468	99.26774	349.06443	255.49238	76.48498	14.64606	4.88202	0
470	44.75185	52.88855	7.32303	-49.63387	17.90074	30.10579	100.89508	363.71049	268.5111	81.367	18.71441	8.95037	0
471	52.07488	53.70222	0.81367	-53.70222	25.22377	26.85111	103.33609	377.54288	281.52982	85.43535	23.59643	13.01872	0
472	59.39791	53.70222	-5.69569	-56.9569	32.5468	23.59643	105.7771	391.37527	295.36221	88.69003	26.85111	17.08707	0
473	66.72094	52.07488	-13.83239	-60.21158	39.86983	18.71441	109.03178	405.20766	308.38093	92.75838	30.10579	21.15542	0
474	72.41663	49.63387	-22.78276	-61.83892	47.19286	13.01872	110.65912	417.41271	321.39965	95.19939	32.5468	22.78276	0
475	78.11232	45.56552	-31.73313	-62.65259	54.51589	6.50936	113.10013	428.80409	332.79103	96.82673	33.36047	24.4101	0
476	82.18067	40.6835	-41.49717	-62.65259	61.02525	0	113.9138	439.3818	344.18241	99.26774	34.17414	24.4101	0
477	87.06269	36.61515	-50.44754	-62.65259	68.34828	-6.50936	114.72747	449.14584	353.94645	100.89508	34.98781	24.4101	0
478	91.94471	32.5468	-59.39791	-63.46626	74.85764	-13.01872	115.54114	458.09621	363.71049	103.33609	35.80148	23.59643	0
479	97.6404	30.10579	-67.53461	-64.27993	82.18067	-18.71441	115.54114	466.23291	371.84719	105.7771	35.80148	22.78276	0
480	103.33609	27.66478	-75.67131	-66.72094	88.69003	-23.59643	115.54114	473.55594	379.98389	107.40444	36.61515	21.96909	0
481	109.84545	26.85111	-82.99434	-69.16195	96.01306	-27.66478	115.54114	480.87897	388.12059	109.03178	36.61515	21.96909	0
482	116.35481	26.03744	-90.31737	-72.41663	103.33609	-31.73313	115.54114	486.57466	395.44362	110.65912	37.42882	21.15542	0
483	123.67784	26.03744	-96.82673	-75.67131	109.84545	-34.98781	116.35481	493.08402	403.58032	111.47279	38.24249	21.96909	0
484	129.37353	25.22377	-104.14976	-78.11232	116.35481	-39.05616	116.35481	497.96604	410.90335	113.10013	39.05616	21.96909	0
485	135.88289	24.4101	-111.47279	-81.367	123.67784	-43.12451	117.16848	502.84806	418.22638	113.9138	39.86983	23.59643	0
486	143.20592	23.59643	-119.60949	-83.80801	131.00087	-47.19286	117.16848	506.91641	425.54941	115.54114	41.49717	24.4101	0
487	150.52895	21.96909	-128.55986	-87.06269	139.13757	-52.88855	117.16848	510.98476	432.05877	116.35481	43.12451	26.85111	0
488	157.85198	19.52808	-138.3239	-89.5037	148.08794	-58.58424	117.16848	515.05311	438.56813	117.98215	45.56552	30.10579	0
489	164.36134	16.2734	-148.08794	-91.13104	156.22464	-65.90727	118.79582	517.49412	443.45015	117.98215	48.00653	33.36047	0
490	170.8707	12.20505	-158.66565	-92.75838	164.36134	-72.41663	121.23683	519.93513	448.33217	117.98215	49.63387	36.61515	0
491	176.56639	8.1367	-168.42969	-92.75838	172.49804	-79.73966	123.67784	521.56247	451.58685	118.79582	51.26121	39.05616	0
492	182.26208	3.25468	-179.0074	-93.57205	179.82107	-87.06269	126.93252	521.56247	455.6552	118.79582	52.88855	40.6835	0
493	187.1441	-0.81367	-188.77144	-93.57205	187.95777	-94.38572	129.37353	522.37614	458.09621	117.98215	52.88855	41.49717	0
494	192.83979	-5.69569	-198.53548	-93.57205	195.2808	-101.70875	131.00087	520.7488	460.53722	117.16848	52.07488	39.86983	0
495	197.72181	-9.76404	-208.29952	-94.38572	202.60383	-109.03178	131.81454	518.30779	461.35089	114.72747	49.63387	38.24249	0
496	201.79016	-13.83239	-216.43622	-93.57205	208.29952	-115.54114	131.00087	514.23944	460.53722	111.47279	47.19286	35.80148	0
497	204.23117	-17.90074	-223.75925	-93.57205	213.18154	-121.23683	130.1872	509.35742	458.90988	108.21811	43.93818	32.5468	0
498	206.67218	-21.96909	-229.45494	-92.75838	218.06356	-126.11885	129.37353	502.84806	456.46887	104.96343	41.49717	30.91946	0
499	208.29952	-26.03744	-235.15063	-91.94471	221.31824	-130.1872	126.93252	495.52503	453.21419	101.70875	39.05616	29.29212	0
500	209.11319	-29.29212	-239.21898	-90.31737	223.75925	-134.25555	124.49151	487.38833	448.33217	98.45407	36.61515	28.47845	0
501	209.11319	-33.36047	-243.28733	-88.69003	225.38659	-138.3239	121.23683	477.62429	443.45015	95.19939	34.98781	27.66478	0
502	209.11319	-35.80148	-245.72834	-87.06269	227.01393	-140.76491	117.16848	467.04658	437.75446	92.75838	32.5468	27.66478	0
503	207.48585	-38.24249	-247.35568	-85.43535	227.01393	-143.20592	112.28646	454.84153	430.43143	90.31737	30.10579	26.03744	0
504	205.85851	-40.6835	-247.35568	-82.99434	226.20026	-144.01959	107.40444	441.82281	423.1084	87.87636	26.85111	24.4101	0
505	201.79016	-43.12451	-245.72834	-79.73966	223.75925	-144.83326	104.14976	427.99042	414.15803	84.62168	23.59643	21.15542	0
506	197.72181	-45.56552	-244.101	-76.48498	220.50457	-144.83326	100.89508	412.53069	404.39399	80.55333	20.34175	17.90074	0
507	192.83979	-48.00653	-242.47366	-73.2303	217.24989	-144.83326	97.6404	397.07096	393.00261	76.48498	16.2734	14.64606	0
508	188.77144	-49.63387	-239.21898	-69.97562	213.18154	-144.83326	96.01306	379.98389	379.98389	71.60296	13.01872	12.20505	0
509	183.88942	-51.26121	-236.77797	-66.72094	209.92686	-144.01959	93.57205	363.71049	366.1515	66.72094	9.76404	8.95037	0
510	178.19373	-53.70222	-233.52329	-62.65259	205.04484	-143.20592	91.13104	345.80975	351.50544	63.46626	7.32303	6.50936	0
511	171.68437	-56.14323	-229.45494	-57.77057	200.16282	-142.39225	88.69003	328.72268	337.67305	61.02525	4.88202	4.06835	0
512	163.54767	-60.21158	-224.57292	-52.07488	193.65346	-142.39225	86.24902	310.82194	323.02699	59.39791	3.25468	2.44101	0
513	153.78363	-64.27993	-218.87723	-44.75185	185.51676	-140.76491	82.99434	292.9212	308.38093	58.58424	1.62734	0.81367	0
514	143.20592	-67.53461	-211.5542	-38.24249	176.56639	-139.13757	79.73966	275.02046	293.73487	56.9569	0	0	0
515	133.44188	-69.16195	-204.23117	-32.5468	168.42969	-136.69656	76.48498	257.11972	278.27514	56.14323	0	0	0
516	124.49151	-69.97562	-195.2808	-27.66478	159.47932	-132.62821	74.85764	239.21898	263.62908	55.32956	0	0	0
517	115.54114	-69.97562	-186.33043	-23.59643	150.52895	-127.74619	73.2303	222.94558	248.16935	54.51589	-0.81367	0	0
518	106.59077	-69.16195	-176.56639	-19.52808	141.57858	-122.86417	71.60296	206.67218	231.89595	52.07488	-1.62734	0.81367	0
519	98.45407	-68.34828	-167.61602	-15.45973	132.62821	-117.98215	69.97562	190.39878	213.99521	48.00653	-2.44101	1.62734	0
520	90.31737	-66.72094	-157.85198	-12.20505	123.67784	-112.28646	69.16195	174.12538	196.09447	43.12451	-4.88202	1.62734	0
521	81.367	-65.0936	-147.27427	-8.95037	113.9138	-105.7771	68.34828	158.66565	177.38006	38.24249	-6.50936	0.81367	0
522	71.60296	-64.27993	-136.69656	-4.06835	104.14976	-100.08141	68.34828	142.39225	160.29299	33.36047	-9.76404	0	0
523	61.02525	-64.27993	-126.11885	0.81367	92.75838	-95.19939	67.53461	127.74619	144.01959	28.47845	-13.01872	-1.62734	0
524	49.63387	-65.0936	-115.54114	6.50936	82.18067	-90.31737	67.53461	113.9138	128.55986	25.22377	-16.2734	-4.88202	0
525	38.24249	-65.90727	-105.7771	13.01872	71.60296	-86.24902	65.90727	100.08141	114.72747	21.15542	-20.34175	-8.95037	0
526	28.47845	-66.72094	-96.82673	17.90074	61.83892	-81.367	65.0936	87.87636	100.08141	16.2734	-24.4101	-13.01872	0
527	19.52808	-66.72094	-87.06269	21.96909	52.88855	-77.29865	62.65259	75.67131	86.24902	12.20505	-27.66478	-17.08707	0
528	11.39138	-65.0936	-77.29865	25.22377	43.93818	-70.78929	60.21158	64.27993	72.41663	7.32303	-30.91946	-18.71441	0
529	4.06835	-61.83892	-66.72094	27.66478	34.98781	-64.27993	57.77057	53.70222	59.39791	3.25468	-32.5468	-20.34175	0
530	-2.44101	-58.58424	-56.14323	29.29212	26.03744	-56.9569	55.32956	43.12451	46.37919	0	-33.36047	-21.15542	0
531	-8.1367	-54.51589	-46.37919	30.91946	18.71441	-50.44754	53.70222	34.17414	34.98781	-1.62734	-33.36047	-21.96909	0
532	-13.83239	-52.07488	-38.24249	32.5468	11.39138	-44.75185	53.70222	26.03744	24.4101	-3.25468	-33.36047	-21.96909	0
533	-18.71441	-49.63387	-30.91946	33.36047	4.88202	-40.6835	53.70222	19.52808	15.45973	-3.25468	-33.36047	-21.96909	0
534	-23.59643	-48.8202	-24.4101	35.80148	0	-36.61515	53.70222	14.64606	8.1367	-3.25468	-32.5468	-21.96909	0
535	-28.47845	-48.00653	-19.52808	37.42882	-4.06835	-33.36047	54.51589	10.57771	2.44101	-3.25468	-31.73313	-20.34175	0
536	-31.73313	-48.00653	-15.45973	39.05616	-8.1367	-31.73313	55.32956	7.32303	-2.44101	-1.62734	-30.10579	-18.71441	0
537	-34.98781	-48.00653	-13.01872	40.6835	-10.57771	-30.91946	56.14323	4.06835	-7.32303	-0.81367	-27.66478	-15.45973	0
538	-37.42882	-49.63387	-12.20505	42.31084	-12.20505	-30.91946	56.14323	0.81367	-12.20505	0	-25.22377	-12.20505	0
539	-38.24249	-51.26121	-13.01872	43.93818	-13.01872	-31.73313	55.32956	-1.62734	-17.08707	0.81367	-23.59643	-8.95037	0
540	-39.05616	-52.88855	-13.01872	44.75185	-13.01872	-33.36047	54.51589	-4.88202	-21.96909	1.62734	-21.15542	-5.69569	0
541	-39.86983	-53.70222	-13.83239	45.56552	-13.01872	-34.17414	52.88855	-8.95037	-26.85111	0.81367	-20.34175	-4.06835	0
542	-39.86983	-54.51589	-14.64606	46.37919	-12.20505	-34.17414	52.07488	-13.01872	-31.73313	0	-21.15542	-3.25468	0
543	-40.6835	-54.51589	-13.83239	46.37919	-13.01872	-34.17414	51.26121	-16.2734	-35.80148	-0.81367	-21.96909	-3.25468	0
544	-40.6835	-53.70222	-13.01872	46.37919	-13.83239	-33.36047	51.26121	-18.71441	-39.05616	-3.25468	-23.59643	-4.06835	0
545	-41.49717	-52.88855	-11.39138	46.37919	-14.64606	-32.5468	51.26121	-20.34175	-42.31084	-5.69569	-26.03744	-5.69569	0
546	-42.31084	-52.07488	-9.76404	46.37919	-16.2734	-30.91946	51.26121	-21.15542	-44.75185	-7.32303	-27.66478	-6.50936	0
547	-43.12451	-49.63387	-7.32303	45.56552	-17.90074	-28.47845	50.44754	-21.96909	-47.19286	-8.95037	-30.10579	-8.1367	0
548	-43.93818	-48.00653	-4.06835	45.56552	-19.52808	-26.03744	50.44754	-22.78276	-49.63387	-10.57771	-30.91946	-9.76404	0
549	-45.56552	-46.37919	-1.62734	45.56552	-21.96909	-24.4101	49.63387	-24.4101	-52.07488	-11.39138	-32.5468	-10.57771	0
550	-45.56552	-45.56552	0	44.75185	-23.59643	-22.78276	48.8202	-25.22377	-54.51589	-13.01872	-33.36047	-11.39138	0
551	-46.37919	-43.93818	1.62734	44.75185	-24.4101	-21.15542	47.19286	-25.22377	-55.32956	-14.64606	-34.17414	-12.20505	0
552	-46.37919	-43.12451	2.44101	43.93818	-25.22377	-20.34175	46.37919	-25.22377	-55.32956	-15.45973	-34.98781	-13.01872	0
553	-47.19286	-43.12451	3.25468	44.75185	-26.03744	-19.52808	46.37919	-25.22377	-55.32956	-16.2734	-35.80148	-13.83239	0
554	-48.00653	-43.12451	4.06835	44.75185	-26.03744	-19.52808	45.56552	-24.4101	-54.51589	-17.90074	-36.61515	-15.45973	0
555	-48.00653	-43.93818	3.25468	45.56552	-26.03744	-19.52808	45.56552	-22.78276	-54.51589	-19.52808	-38.24249	-16.2734	0
556	-48.00653	-44.75185	2.44101	45.56552	-26.03744	-20.34175	45.56552	-21.96909	-53.70222	-21.96909	-39.05616	-17.08707	0
557	-48.00653	-45.56552	1.62734	45.56552	-25.22377	-21.15542	44.75185	-21.15542	-54.51589	-24.4101	-39.86983	-17.90074	0
558	-46.37919	-45.56552	0	45.56552	-23.59643	-22.78276	44.75185	-21.15542	-55.32956	-26.03744	-40.6835	-17.90074	0
559	-46.37919	-46.37919	0	45.56552	-22.78276	-23.59643	43.93818	-21.96909	-56.9569	-27.66478	-40.6835	-17.90074	0
560	-45.56552	-47.19286	-1.62734	45.56552	-21.96909	-24.4101	43.93818	-21.96909	-58.58424	-28.47845	-40.6835	-17.90074	0
561	-45.56552	-48.00653	-2.44101	46.37919	-21.96909	-25.22377	43.12451	-22.78276	-59.39791	-29.29212	-40.6835	-18.71441	0
562	-45.56552	-49.63387	-4.06835	46.37919	-21.15542	-26.85111	43.93818	-22.78276	-61.02525	-30.10579	-42.31084	-19.52808	0
563	-44.75185	-49.63387	-4.88202	46.37919	-20.34175	-27.66478	44.75185	-22.78276	-61.83892	-30.91946	-43.93818	-21.15542	0
564	-44.75185	-50.44754	-5.69569	46.37919	-19.52808	-28.47845	45.56552	-23.59643	-62.65259	-32.5468	-46.37919	-23.59643	0
565	-44.75185	-50.44754	-5.69569	46.37919	-19.52808	-27.66478	45.56552	-24.4101	-63.46626	-34.98781	-48.8202	-25.22377	0
566	-45.56552	-50.44754	-4.88202	47.19286	-20.34175	-27.66478	45.56552	-26.03744	-65.0936	-38.24249	-52.07488	-27.66478	0
567	-48.00653	-52.07488	-4.06835	49.63387	-21.96909	-28.47845	45.56552	-27.66478	-67.53461	-41.49717	-56.14323	-30.91946	0
568	-51.26121	-54.51589	-3.25468	52.07488	-23.59643	-29.29212	44.75185	-30.10579	-70.78929	-45.56552	-59.39791	-33.36047	0
569	-52.88855	-56.9569	-3.25468	54.51589	-24.4101	-30.10579	43.12451	-31.73313	-74.85764	-49.63387	-62.65259	-35.80148	0
570	-54.51589	-57.77057	-2.44101	55.32956	-26.03744	-30.10579	41.49717	-34.17414	-77.29865	-52.88855	-65.0936	-38.24249	0
571	-55.32956	-58.58424	-2.44101	56.14323	-26.03744	-30.10579	40.6835	-36.61515	-79.73966	-54.51589	-65.90727	-39.05616	0
572	-56.14323	-59.39791	-2.44101	56.9569	-26.85111	-30.91946	39.05616	-39.05616	-80.55333	-55.32956	-66.72094	-39.86983	0
573	-56.9569	-61.02525	-4.06835	58.58424	-26.03744	-32.5468	39.05616	-39.86983	-81.367	-54.51589	-65.90727	-39.05616	0
574	-58.58424	-64.27993	-5.69569	61.02525	-26.03744	-34.98781	39.05616	-40.6835	-81.367	-53.70222	-65.0936	-39.05616	0
575	-60.21158	-68.34828	-8.1367	63.46626	-26.03744	-38.24249	39.05616	-41.49717	-80.55333	-52.88855	-65.0936	-38.24249	0
576	-61.02525	-70.78929	-9.76404	65.0936	-26.03744	-40.6835	39.05616	-41.49717	-80.55333	-52.07488	-65.0936	-37.42882	0
577	-61.02525	-72.41663	-11.39138	65.90727	-25.22377	-42.31084	39.05616	-41.49717	-80.55333	-52.07488	-65.0936	-37.42882	0
578	-60.21158	-73.2303	-13.01872	65.90727	-23.59643	-43.12451	37.42882	-42.31084	-82.18067	-52.88855	-65.0936	-36.61515	0
579	-58.58424	-72.41663	-13.83239	64.27993	-21.96909	-43.12451	35.80148	-43.12451	-83.80801	-54.51589	-65.0936	-35.80148	0
580	-56.14323	-70.78929	-14.64606	62.65259	-20.34175	-42.31084	34.98781	-43.93818	-85.43535	-55.32956	-65.0936	-34.98781	0
581	-53.70222	-67.53461	-14.64606	60.21158	-19.52808	-41.49717	33.36047	-44.75185	-86.24902	-56.14323	-64.27993	-34.17414	0
582	-51.26121	-65.0936	-13.83239	56.9569	-18.71441	-39.05616	33.36047	-44.75185	-85.43535	-55.32956	-62.65259	-33.36047	0
583	-48.8202	-61.83892	-13.01872	54.51589	-17.90074	-37.42882	34.17414	-43.93818	-82.99434	-54.51589	-61.02525	-31.73313	0
584	-47.19286	-59.39791	-12.20505	52.07488	-17.08707	-35.80148	36.61515	-41.49717	-79.73966	-51.26121	-57.77057	-30.10579	0
585	-44.75185	-56.9569	-12.20505	49.63387	-16.2734	-34.17414	39.05616	-38.24249	-74.85764	-46.37919	-52.88855	-26.85111	0
586	-41.49717	-55.32956	-13.01872	47.19286	-14.64606	-34.17414	41.49717	-34.17414	-69.97562	-41.49717	-48.00653	-23.59643	0
587	-39.05616	-53.70222	-13.83239	45.56552	-13.01872	-34.17414	44.75185	-30.10579	-65.90727	-37.42882	-42.31084	-19.52808	0
588	-36.61515	-51.26121	-14.64606	43.12451	-11.39138	-32.5468	48.00653	-26.85111	-62.65259	-34.17414	-38.24249	-14.64606	0
589	-34.98781	-48.8202	-14.64606	40.6835	-9.76404	-31.73313	51.26121	-24.4101	-60.21158	-31.73313	-34.17414	-10.57771	0
590	-31.73313	-45.56552	-13.83239	38.24249	-8.95037	-30.10579	53.70222	-22.78276	-59.39791	-30.10579	-30.10579	-6.50936	0
591	-29.29212	-42.31084	-13.01872	34.98781	-8.1367	-27.66478	55.32956	-21.15542	-57.77057	-27.66478	-26.85111	-3.25468	0
592	-27.66478	-38.24249	-10.57771	32.5468	-8.1367	-24.4101	56.14323	-20.34175	-56.9569	-25.22377	-24.4101	0	0
593	-26.03744	-34.17414	-8.1367	29.29212	-8.95037	-21.15542	56.14323	-20.34175	-55.32956	-22.78276	-21.15542	2.44101	0
594	-25.22377	-30.10579	-4.88202	26.85111	-10.57771	-17.90074	57.77057	-20.34175	-53.70222	-19.52808	-19.52808	4.88202	0
595	-26.03744	-26.85111	-1.62734	25.22377	-12.20505	-13.83239	60.21158	-19.52808	-52.88855	-17.90074	-17.90074	6.50936	0
596	-26.85111	-24.4101	1.62734	24.4101	-14.64606	-10.57771	64.27993	-17.90074	-52.07488	-17.08707	-17.90074	7.32303	0
597	-27.66478	-21.96909	4.06835	24.4101	-16.2734	-8.95037	69.16195	-16.2734	-52.07488	-17.90074	-18.71441	7.32303	0
598	-27.66478	-20.34175	5.69569	22.78276	-17.08707	-6.50936	74.04397	-13.01872	-51.26121	-19.52808	-18.71441	8.1367	0
599	-26.03744	-17.08707	8.1367	20.34175	-17.08707	-4.06835	77.29865	-8.95037	-49.63387	-19.52808	-17.90074	9.76404	0
600	-23.59643	-11.39138	10.57771	17.08707	-17.90074	0	78.11232	-5.69569	-46.37919	-17.08707	-15.45973	12.20505	0
601	-19.52808	-4.06835	14.64606	11.39138	-17.90074	4.88202	74.85764	-4.88202	-42.31084	-13.01872	-12.20505	15.45973	0
602	-14.64606	4.88202	19.52808	4.06835	-17.90074	12.20505	67.53461	-5.69569	-39.05616	-7.32303	-7.32303	19.52808	0
603	-8.95037	15.45973	25.22377	-4.06835	-17.08707	20.34175	56.14323	-9.76404	-37.42882	-1.62734	-2.44101	23.59643	0
604	-2.44101	27.66478	30.10579	-13.01872	-16.2734	28.47845	42.31084	-16.2734	-36.61515	2.44101	0.81367	26.85111	0
605	3.25468	38.24249	34.17414	-21.15542	-15.45973	35.80148	26.03744	-24.4101	-38.24249	5.69569	3.25468	30.10579	0
606	8.95037	46.37919	37.42882	-28.47845	-14.64606	41.49717	8.95037	-34.17414	-42.31084	7.32303	5.69569	31.73313	0
607	13.83239	52.88855	38.24249	-34.17414	-12.20505	45.56552	-7.32303	-44.75185	-48.00653	6.50936	6.50936	32.5468	0
608	17.90074	57.77057	39.05616	-39.05616	-10.57771	48.00653	-23.59643	-55.32956	-54.51589	4.06835	6.50936	33.36047	0
609	21.96909	61.83892	39.05616	-42.31084	-8.1367	50.44754	-36.61515	-64.27993	-61.83892	1.62734	6.50936	34.17414	0
610	26.03744	64.27993	37.42882	-46.37919	-5.69569	51.26121	-46.37919	-71.60296	-67.53461	0	6.50936	35.80148	0
611	30.10579	66.72094	35.80148	-49.63387	-2.44101	51.26121	-53.70222	-77.29865	-72.41663	0	8.1367	37.42882	0
612	34.98781	67.53461	31.73313	-52.07488	0.81367	49.63387	-57.77057	-81.367	-76.48498	-0.81367	9.76404	39.86983	0
613	39.05616	66.72094	26.85111	-53.70222	5.69569	46.37919	-58.58424	-82.99434	-79.73966	-2.44101	9.76404	41.49717	0
614	41.49717	62.65259	20.34175	-52.88855	9.76404	41.49717	-56.9569	-82.99434	-82.18067	-6.50936	8.1367	40.6835	0
615	41.49717	56.14323	13.01872	-49.63387	13.83239	34.98781	-52.88855	-82.99434	-85.43535	-12.20505	4.88202	39.05616	0
616	39.86983	46.37919	5.69569	-43.93818	16.2734	26.85111	-47.19286	-81.367	-87.87636	-18.71441	0	35.80148	0
617	36.61515	34.98781	-0.81367	-36.61515	18.71441	17.08707	-40.6835	-79.73966	-91.13104	-26.03744	-4.06835	30.91946	0
618	31.73313	21.96909	-9.76404	-27.66478	20.34175	5.69569	-34.17414	-76.48498	-92.75838	-31.73313	-8.1367	26.85111	0
619	25.22377	8.1367	-17.08707	-17.90074	21.15542	-4.06835	-27.66478	-73.2303	-93.57205	-34.17414	-11.39138	22.78276	0
620	18.71441	-4.06835	-23.59643	-8.1367	21.15542	-13.83239	-20.34175	-69.16195	-91.13104	-34.17414	-12.20505	19.52808	0
621	12.20505	-14.64606	-27.66478	0	19.52808	-21.15542	-13.01872	-63.46626	-87.06269	-31.73313	-11.39138	17.08707	0
622	5.69569	-23.59643	-30.10579	8.1367	17.08707	-26.85111	-5.69569	-57.77057	-82.99434	-28.47845	-10.57771	15.45973	0
623	-0.81367	-30.91946	-30.91946	14.64606	13.83239	-30.91946	0.81367	-52.88855	-78.11232	-26.03744	-10.57771	13.83239	0
624	-6.50936	-36.61515	-30.10579	20.34175	10.57771	-33.36047	6.50936	-49.63387	-74.85764	-24.4101	-11.39138	12.20505	0
625	-12.20505	-40.6835	-28.47845	25.22377	7.32303	-34.98781	11.39138	-48.00653	-73.2303	-24.4101	-13.83239	8.95037	0
626	-17.08707	-44.75185	-27.66478	30.10579	4.06835	-35.80148	14.64606	-48.8202	-74.04397	-26.85111	-17.08707	5.69569	0
627	-22.78276	-48.8202	-26.85111	34.98781	1.62734	-38.24249	17.08707	-51.26121	-77.29865	-30.10579	-21.15542	0.81367	0
628	-27.66478	-52.88855	-26.03744	39.86983	-0.81367	-39.86983	17.08707	-55.32956	-82.99434	-34.17414	-26.85111	-3.25468	0
629	-32.5468	-56.9569	-24.4101	43.93818	-4.06835	-40.6835	17.08707	-60.21158	-88.69003	-39.05616	-31.73313	-8.1367	0
630	-38.24249	-61.02525	-22.78276	48.8202	-8.1367	-41.49717	15.45973	-65.90727	-95.19939	-43.93818	-37.42882	-13.01872	0
631	-43.93818	-64.27993	-20.34175	53.70222	-12.20505	-42.31084	13.83239	-70.78929	-101.70875	-50.44754	-43.12451	-18.71441	0
632	-50.44754	-67.53461	-17.90074	57.77057	-16.2734	-43.12451	13.01872	-74.85764	-106.59077	-56.9569	-50.44754	-23.59643	0
633	-55.32956	-70.78929	-15.45973	62.65259	-20.34175	-43.12451	12.20505	-78.92599	-111.47279	-64.27993	-56.9569	-29.29212	0
634	-61.02525	-73.2303	-13.01872	65.90727	-24.4101	-43.12451	12.20505	-82.18067	-115.54114	-69.97562	-63.46626	-34.98781	0
635	-65.0936	-74.04397	-9.76404	68.34828	-27.66478	-42.31084	11.39138	-85.43535	-119.60949	-75.67131	-68.34828	-39.86983	0
636	-67.53461	-74.85764	-7.32303	69.97562	-30.91946	-40.6835	9.76404	-87.87636	-122.86417	-79.73966	-72.41663	-43.12451	0
637	-69.16195	-73.2303	-4.88202	69.97562	-31.73313	-39.05616	7.32303	-90.31737	-126.11885	-82.18067	-74.04397	-45.56552	0
638	-68.34828	-71.60296	-3.25468	69.16195	-32.5468	-37.42882	4.06835	-91.94471	-127.74619	-83.80801	-74.04397	-45.56552	0
639	-67.53461	-68.34828	-1.62734	66.72094	-33.36047	-34.98781	1.62734	-92.75838	-129.37353	-83.80801	-73.2303	-44.75185	0
640	-66.72094	-65.90727	0	65.0936	-34.17414	-32.5468	-0.81367	-93.57205	-130.1872	-83.80801	-71.60296	-43.93818	0
641	-66.72094	-62.65259	2.44101	64.27993	-34.98781	-30.10579	-2.44101	-94.38572	-131.00087	-83.80801	-70.78929	-43.93818	0
642	-66.72094	-61.02525	4.88202	62.65259	-36.61515	-27.66478	-4.06835	-94.38572	-131.81454	-84.62168	-70.78929	-43.93818	0
643	-67.53461	-59.39791	7.32303	62.65259	-37.42882	-25.22377	-3.25468	-94.38572	-131.81454	-86.24902	-70.78929	-44.75185	0
644	-68.34828	-58.58424	8.95037	62.65259	-39.05616	-24.4101	-1.62734	-93.57205	-131.00087	-88.69003	-72.41663	-45.56552	0
645	-69.16195	-59.39791	8.95037	63.46626	-39.05616	-25.22377	0	-92.75838	-130.1872	-91.13104	-74.04397	-47.19286	0
646	-69.16195	-60.21158	8.1367	64.27993	-39.05616	-26.03744	2.44101	-91.13104	-129.37353	-92.75838	-75.67131	-48.00653	0
647	-69.16195	-61.02525	6.50936	64.27993	-38.24249	-26.85111	4.88202	-90.31737	-128.55986	-93.57205	-76.48498	-48.8202	0
648	-68.34828	-61.83892	5.69569	64.27993	-37.42882	-27.66478	7.32303	-88.69003	-127.74619	-92.75838	-75.67131	-48.8202	0
649	-68.34828	-62.65259	4.06835	64.27993	-36.61515	-28.47845	9.76404	-87.87636	-126.11885	-90.31737	-74.04397	-48.00653	0
650	-68.34828	-63.46626	4.06835	65.0936	-36.61515	-29.29212	11.39138	-87.06269	-125.30518	-87.06269	-72.41663	-47.19286	0
651	-69.16195	-64.27993	4.06835	65.90727	-36.61515	-29.29212	13.01872	-86.24902	-123.67784	-82.99434	-70.78929	-47.19286	0
652	-69.97562	-65.0936	4.06835	66.72094	-37.42882	-30.10579	14.64606	-85.43535	-122.86417	-80.55333	-69.97562	-48.00653	0
653	-71.60296	-65.90727	4.88202	67.53461	-38.24249	-30.10579	15.45973	-84.62168	-122.0505	-78.92599	-70.78929	-48.8202	0
654	-72.41663	-66.72094	4.88202	69.16195	-39.86983	-30.10579	15.45973	-85.43535	-122.0505	-78.92599	-71.60296	-50.44754	0
655	-74.04397	-66.72094	6.50936	69.16195	-40.6835	-29.29212	15.45973	-85.43535	-122.86417	-79.73966	-73.2303	-51.26121	0
656	-74.04397	-65.90727	7.32303	69.16195	-41.49717	-29.29212	14.64606	-86.24902	-123.67784	-82.18067	-74.85764	-51.26121	0
657	-74.04397	-65.90727	7.32303	69.16195	-41.49717	-28.47845	13.83239	-87.06269	-126.11885	-85.43535	-76.48498	-51.26121	0
658	-73.2303	-65.0936	7.32303	68.34828	-40.6835	-28.47845	13.01872	-87.87636	-127.74619	-88.69003	-77.29865	-52.07488	0
659	-71.60296	-63.46626	7.32303	67.53461	-39.86983	-27.66478	13.01872	-88.69003	-129.37353	-91.94471	-78.92599	-52.07488	0
660	-71.60296	-63.46626	7.32303	66.72094	-39.86983	-27.66478	13.01872	-89.5037	-130.1872	-94.38572	-79.73966	-52.88855	0
661	-71.60296	-63.46626	7.32303	66.72094	-39.86983	-27.66478	13.83239	-89.5037	-130.1872	-96.01306	-79.73966	-52.07488	0
662	-73.2303	-65.90727	5.69569	68.34828	-39.86983	-29.29212	15.45973	-87.87636	-129.37353	-97.6404	-78.92599	-51.26121	0
663	-74.85764	-69.97562	4.06835	71.60296	-39.86983	-32.5468	17.90074	-86.24902	-127.74619	-98.45407	-78.11232	-50.44754	0
664	-76.48498	-74.04397	1.62734	74.85764	-39.86983	-35.80148	21.15542	-84.62168	-126.11885	-98.45407	-77.29865	-49.63387	0
665	-78.92599	-78.11232	0	77.29865	-39.86983	-39.05616	22.78276	-82.99434	-124.49151	-98.45407	-76.48498	-49.63387	0
666	-79.73966	-80.55333	-0.81367	79.73966	-39.05616	-40.6835	24.4101	-82.18067	-123.67784	-97.6404	-76.48498	-48.8202	0
667	-79.73966	-80.55333	-1.62734	78.92599	-39.05616	-40.6835	26.03744	-82.18067	-123.67784	-96.82673	-75.67131	-48.8202	0
668	-78.11232	-78.11232	-0.81367	77.29865	-39.05616	-39.05616	26.85111	-81.367	-123.67784	-95.19939	-74.85764	-49.63387	0
669	-76.48498	-75.67131	0	74.85764	-39.05616	-37.42882	26.85111	-82.18067	-125.30518	-95.19939	-75.67131	-50.44754	0
670	-75.67131	-73.2303	1.62734	74.04397	-39.05616	-35.80148	25.22377	-82.99434	-126.93252	-97.6404	-78.11232	-52.88855	0
671	-77.29865	-72.41663	3.25468	74.04397	-40.6835	-34.17414	23.59643	-84.62168	-130.1872	-100.89508	-81.367	-56.14323	0
672	-79.73966	-72.41663	5.69569	74.85764	-43.12451	-32.5468	22.78276	-86.24902	-132.62821	-104.14976	-84.62168	-59.39791	0
673	-81.367	-71.60296	8.1367	75.67131	-45.56552	-31.73313	21.96909	-87.06269	-133.44188	-107.40444	-87.06269	-61.02525	0
674	-82.99434	-71.60296	10.57771	76.48498	-47.19286	-30.10579	21.96909	-87.06269	-132.62821	-107.40444	-87.87636	-61.83892	0
675	-83.80801	-71.60296	11.39138	76.48498	-48.00653	-30.10579	21.96909	-87.06269	-131.00087	-105.7771	-86.24902	-61.02525	0
676	-83.80801	-71.60296	11.39138	76.48498	-48.00653	-30.10579	21.96909	-86.24902	-129.37353	-102.52242	-83.80801	-59.39791	0
677	-83.80801	-72.41663	10.57771	77.29865	-47.19286	-30.10579	21.96909	-86.24902	-128.55986	-99.26774	-82.18067	-57.77057	0
678	-83.80801	-73.2303	9.76404	77.29865	-47.19286	-30.91946	22.78276	-86.24902	-127.74619	-97.6404	-81.367	-56.14323	0
679	-84.62168	-74.04397	9.76404	78.92599	-47.19286	-31.73313	23.59643	-85.43535	-126.93252	-96.01306	-81.367	-56.14323	0
680	-85.43535	-75.67131	8.95037	79.73966	-47.19286	-32.5468	24.4101	-85.43535	-126.93252	-96.01306	-81.367	-56.14323	0
681	-86.24902	-75.67131	8.95037	79.73966	-48.00653	-32.5468	25.22377	-85.43535	-126.93252	-96.82673	-82.99434	-56.9569	0
682	-86.24902	-74.85764	11.39138	79.73966	-49.63387	-31.73313	26.03744	-85.43535	-127.74619	-99.26774	-85.43535	-58.58424	0
683	-87.87636	-72.41663	14.64606	78.92599	-51.26121	-28.47845	26.85111	-86.24902	-128.55986	-102.52242	-88.69003	-61.02525	0
684	-87.87636	-68.34828	18.71441	77.29865	-53.70222	-24.4101	27.66478	-87.06269	-129.37353	-105.7771	-91.94471	-63.46626	0
685	-87.87636	-64.27993	22.78276	75.67131	-56.14323	-20.34175	28.47845	-87.87636	-130.1872	-109.03178	-94.38572	-65.90727	0
686	-87.06269	-61.02525	26.03744	73.2303	-56.9569	-17.08707	29.29212	-87.87636	-131.00087	-111.47279	-96.82673	-68.34828	0
687	-86.24902	-57.77057	27.66478	70.78929	-56.9569	-14.64606	30.10579	-87.06269	-131.00087	-113.9138	-96.82673	-68.34828	0
688	-83.80801	-55.32956	27.66478	69.16195	-56.14323	-13.83239	30.91946	-86.24902	-130.1872	-113.9138	-96.82673	-67.53461	0
689	-82.18067	-55.32956	26.03744	67.53461	-54.51589	-13.83239	31.73313	-84.62168	-129.37353	-113.10013	-94.38572	-65.90727	0
690	-80.55333	-56.14323	23.59643	67.53461	-52.88855	-15.45973	33.36047	-82.99434	-127.74619	-111.47279	-91.94471	-63.46626	0
691	-80.55333	-56.9569	21.96909	68.34828	-52.07488	-17.08707	34.17414	-82.18067	-126.93252	-109.84545	-89.5037	-61.02525	0
692	-80.55333	-58.58424	21.15542	69.16195	-51.26121	-18.71441	34.98781	-81.367	-125.30518	-108.21811	-87.06269	-58.58424	0
693	-81.367	-61.02525	19.52808	69.97562	-51.26121	-20.34175	34.98781	-81.367	-123.67784	-105.7771	-85.43535	-56.14323	0
694	-82.18067	-63.46626	17.90074	71.60296	-50.44754	-21.96909	35.80148	-79.73966	-121.23683	-104.14976	-82.99434	-54.51589	0
695	-82.99434	-65.90727	16.2734	73.2303	-50.44754	-24.4101	37.42882	-78.11232	-119.60949	-103.33609	-82.18067	-52.88855	0
696	-82.99434	-68.34828	13.83239	74.85764	-48.8202	-26.85111	39.05616	-75.67131	-117.16848	-102.52242	-81.367	-52.07488	0
697	-82.99434	-69.97562	12.20505	75.67131	-48.00653	-28.47845	40.6835	-74.04397	-115.54114	-102.52242	-80.55333	-52.07488	0
698	-82.18067	-70.78929	10.57771	75.67131	-46.37919	-30.10579	41.49717	-72.41663	-114.72747	-102.52242	-79.73966	-51.26121	0
699	-80.55333	-70.78929	8.95037	74.85764	-45.56552	-30.10579	41.49717	-70.78929	-113.10013	-101.70875	-78.92599	-51.26121	0
700	-80.55333	-69.97562	9.76404	74.04397	-45.56552	-30.10579	40.6835	-70.78929	-112.28646	-100.08141	-78.11232	-50.44754	0
701	-80.55333	-69.16195	10.57771	74.04397	-46.37919	-28.47845	39.86983	-70.78929	-110.65912	-96.82673	-76.48498	-50.44754	0
702	-82.18067	-67.53461	13.01872	74.04397	-48.00653	-26.85111	39.86983	-70.78929	-109.84545	-94.38572	-74.85764	-51.26121	0
703	-84.62168	-67.53461	16.2734	74.85764	-51.26121	-25.22377	40.6835	-71.60296	-108.21811	-91.94471	-74.85764	-52.07488	0
704	-87.06269	-66.72094	19.52808	75.67131	-53.70222	-22.78276	41.49717	-71.60296	-106.59077	-91.13104	-75.67131	-52.88855	0
705	-88.69003	-65.90727	21.15542	76.48498	-55.32956	-21.96909	42.31084	-70.78929	-105.7771	-91.94471	-77.29865	-55.32956	0
706	-89.5037	-67.53461	21.15542	77.29865	-55.32956	-22.78276	44.75185	-67.53461	-104.14976	-94.38572	-80.55333	-56.9569	0
707	-88.69003	-70.78929	17.08707	78.92599	-52.88855	-26.03744	48.8202	-60.21158	-100.89508	-98.45407	-84.62168	-61.02525	0
708	-85.43535	-77.29865	7.32303	80.55333	-47.19286	-34.17414	56.14323	-46.37919	-94.38572	-104.14976	-91.13104	-65.90727	-1250	T-0
709	-79.73966	-87.87636	-8.1367	82.99434	-35.80148	-48.00653	66.72094	-22.78276	-82.18067	-109.84545	-98.45407	-73.2303	0
710	-69.97562	-102.52242	-32.5468	85.43535	-18.71441	-67.53461	81.367	11.39138	-61.83892	-113.9138	-107.40444	-82.99434	0
711	-55.32956	-118.79582	-63.46626	86.24902	3.25468	-91.13104	99.26774	57.77057	-29.29212	-113.9138	-113.9138	-92.75838	0
712	-34.98781	-137.51023	-102.52242	85.43535	33.36047	-119.60949	122.0505	117.16848	15.45973	-106.59077	-117.98215	-101.70875	0
713	-7.32303	-157.85198	-150.52895	81.367	70.78929	-153.78363	148.08794	187.95777	74.85764	-92.75838	-118.79582	-109.03178	0
714	27.66478	-181.44841	-209.92686	75.67131	118.79582	-195.2808	175.75272	267.69743	148.08794	-70.78929	-114.72747	-113.9138	0
715	72.41663	-206.67218	-279.90248	65.90727	175.75272	-243.28733	201.79016	350.69177	232.70962	-42.31084	-104.14976	-113.9138	0
716	124.49151	-231.89595	-358.0148	52.88855	240.84632	-295.36221	222.94558	428.80409	324.65433	-4.88202	-87.06269	-108.21811	0
717	184.70309	-254.67871	-439.3818	33.36047	311.63561	-347.43709	233.52329	492.27035	419.04005	39.86983	-61.02525	-95.19939	0
718	251.42403	-269.32477	-520.7488	7.32303	385.67958	-394.62995	231.89595	535.39486	515.05311	98.45407	-22.78276	-71.60296	0
719	325.468	-271.76578	-598.04745	-27.66478	461.35089	-434.49978	214.80888	552.48193	609.43883	171.68437	31.73313	-31.73313	0
720	405.20766	-260.3744	-666.39573	-72.41663	535.39486	-462.97823	180.63474	539.46321	701.38354	264.44275	108.21811	24.4101	0
721	486.57466	-234.33696	-721.72529	-126.11885	603.74314	-478.43796	126.11885	495.52503	786.81889	375.91554	206.67218	100.89508	0
722	566.31432	-194.46713	-762.40879	-186.33043	663.95472	-478.43796	49.63387	420.66739	864.93121	508.54375	327.09534	196.09447	0
723	643.61297	-140.76491	-785.19155	-251.42403	714.40226	-462.97823	-49.63387	314.89029	932.46582	661.51371	469.48759	310.00827	0
724	711.96125	-74.04397	-786.81889	-319.77231	749.39007	-430.43143	-172.49804	178.19373	984.5407	829.9434	629.78058	439.3818	0
725	765.66347	3.25468	-763.22246	-385.67958	764.03613	-379.17022	-313.26295	13.83239	1018.71484	1008.9508	801.46495	578.51937	0
726	799.02394	88.69003	-710.33391	-445.07749	754.27209	-310.82194	-461.35089	-171.68437	1027.66521	1185.51719	973.14932	719.28428	0
727	804.71963	175.75272	-628.96691	-491.45668	716.84327	-226.20026	-606.18415	-371.03352	1002.44144	1340.92816	1129.37396	850.28515	0
728	781.1232	257.93339	-523.18981	-520.7488	651.74967	-131.81454	-740.4397	-573.63735	932.46582	1453.21462	1251.42446	959.31693	0
729	730.67566	328.72268	-402.76665	-530.51284	566.31432	-36.61515	-859.23552	-768.91815	810.41532	1503.66216	1325.46843	1035.80191	0
730	659.0727	384.05224	-275.02046	-522.37614	466.23291	54.51589	-958.50326	-949.55289	636.28994	1484.94775	1346.62385	1075.67174	0
731	571.19634	424.73574	-147.27427	-498.77971	358.82847	138.3239	-1036.61558	-1110.65955	414.15803	1400.32607	1318.1454	1080.55376	0
732	475.18328	452.40052	-22.78276	-464.60557	248.16935	214.80888	-1090.3178	-1248.98345	157.03831	1260.37483	1246.54244	1055.32999	0
733	375.10187	471.9286	96.01306	-424.73574	138.3239	283.97083	-1118.79625	-1359.64257	-120.42316	1077.29908	1142.39268	1004.88245	0
734	274.20679	485.76099	210.74053	-380.79756	30.91946	348.25076	-1118.79625	-1435.31388	-400.32564	864.93121	1011.39181	933.27949	0
735	175.75272	493.08402	316.51763	-335.23204	-70.78929	405.20766	-1089.50413	-1470.30169	-659.0727	639.54462	860.04919	841.33478	0
736	82.18067	493.89769	410.90335	-288.85285	-164.36134	452.40052	-1034.17457	-1462.16499	-873.88158	417.41271	698.94253	734.74401	0
737	-0.81367	485.76099	487.38833	-242.47366	-244.91467	486.57466	-957.68959	-1414.97213	-1031.73356	215.62255	538.64954	619.20287	0
738	-70.78929	469.48759	541.09055	-199.34915	-306.75359	505.28907	-868.18589	-1335.23247	-1127.74662	43.93818	388.12059	504.4754	0
739	-125.30518	445.89116	571.19634	-161.10666	-349.06443	508.54375	-772.9865	-1231.89638	-1166.80278	-91.13104	256.30605	396.25729	0
740	-163.54767	417.41271	581.77405	-126.93252	-373.47453	499.59338	-676.15977	-1113.91423	-1157.85241	-189.58511	147.27427	300.24423	0
741	-187.95777	386.49325	574.45102	-99.26774	-381.61123	480.0653	-584.21506	-991.05006	-1113.91423	-253.86504	62.65259	219.6909	0
742	-200.97649	353.94645	554.92294	-76.48498	-378.35655	454.84153	-500.40705	-871.44057	-1048.00696	-291.29386	0	153.78363	0
743	-206.67218	321.39965	527.25816	-57.77057	-366.96517	423.92207	-425.54941	-761.59512	-971.52198	-308.38093	-47.19286	100.89508	0
744	-206.67218	288.03918	494.71136	-40.6835	-351.50544	391.37527	-358.82847	-664.76839	-894.22333	-313.26295	-81.367	56.14323	0
745	-205.04484	253.86504	459.72355	-24.4101	-332.79103	356.38746	-301.0579	-579.33304	-819.36569	-312.44928	-108.21811	19.52808	0
746	-203.4175	219.6909	423.1084	-8.95037	-313.26295	321.39965	-249.79669	-506.10274	-751.83108	-308.38093	-130.1872	-12.20505	0
747	-200.16282	187.1441	387.30692	4.88202	-294.54854	287.22551	-205.04484	-443.45015	-691.6195	-305.12625	-148.08794	-40.6835	0
748	-196.90814	157.85198	354.76012	18.71441	-275.83413	256.30605	-167.61602	-392.18894	-640.35829	-301.87157	-162.734	-64.27993	0
749	-192.83979	131.00087	323.84066	29.29212	-258.74706	227.8276	-136.69656	-349.8781	-597.23378	-298.61689	-173.31171	-82.99434	0
750	-187.95777	108.21811	296.17588	38.24249	-242.47366	202.60383	-111.47279	-316.51763	-559.80496	-294.54854	-180.63474	-97.6404	0
751	-183.07575	87.87636	270.95211	46.37919	-227.01393	179.0074	-90.31737	-288.85285	-528.07183	-289.66652	-185.51676	-109.03178	0
752	-177.38006	69.16195	246.54201	52.88855	-212.36787	158.66565	-72.41663	-264.44275	-498.77971	-284.7845	-188.77144	-117.98215	0
753	-172.49804	52.88855	225.38659	58.58424	-199.34915	139.13757	-56.14323	-243.28733	-471.11493	-279.90248	-190.39878	-125.30518	0
754	-168.42969	39.05616	207.48585	63.46626	-187.95777	123.67784	-42.31084	-222.94558	-444.26382	-273.39312	-190.39878	-129.37353	0
755	-164.36134	27.66478	192.02612	66.72094	-179.0074	109.84545	-29.29212	-205.04484	-419.04005	-266.07009	-188.77144	-132.62821	0
756	-160.29299	19.52808	179.82107	69.16195	-170.05703	99.26774	-18.71441	-187.95777	-395.44362	-257.93339	-185.51676	-134.25555	0
757	-156.22464	13.01872	169.24336	69.97562	-162.734	91.13104	-8.95037	-170.8707	-371.84719	-247.35568	-180.63474	-133.44188	0
758	-151.34262	9.76404	161.10666	69.97562	-157.03831	85.43535	-0.81367	-154.5973	-348.25076	-235.15063	-174.12538	-131.00087	0
759	-146.4606	7.32303	154.5973	68.34828	-151.34262	81.367	5.69569	-138.3239	-324.65433	-220.50457	-165.17501	-127.74619	0
760	-140.76491	7.32303	148.90161	65.90727	-145.64693	78.11232	11.39138	-123.67784	-301.0579	-205.04484	-155.41097	-122.0505	0
761	-135.06922	8.95037	144.01959	61.83892	-139.95124	76.48498	17.08707	-109.03178	-278.27514	-187.95777	-144.01959	-115.54114	0
762	-129.37353	12.20505	141.57858	57.77057	-135.88289	76.48498	21.15542	-96.01306	-257.11972	-170.8707	-132.62821	-109.03178	0
763	-124.49151	15.45973	140.76491	53.70222	-133.44188	78.11232	25.22377	-85.43535	-238.40531	-157.85198	-123.67784	-104.14976	0
764	-121.23683	19.52808	140.76491	49.63387	-131.81454	79.73966	29.29212	-76.48498	-223.75925	-147.27427	-117.98215	-101.70875	0
765	-119.60949	22.78276	142.39225	47.19286	-131.81454	82.18067	32.5468	-70.78929	-212.36787	-140.76491	-114.72747	-100.89508	0
766	-119.60949	25.22377	144.83326	45.56552	-132.62821	85.43535	34.98781	-66.72094	-205.04484	-136.69656	-113.10013	-101.70875	0
767	-121.23683	26.85111	148.08794	45.56552	-134.25555	87.06269	36.61515	-65.0936	-200.16282	-135.06922	-112.28646	-102.52242	0
768	-122.86417	26.85111	149.71528	46.37919	-136.69656	88.69003	37.42882	-64.27993	-196.90814	-135.06922	-113.10013	-104.96343	0
769	-125.30518	26.85111	152.15629	48.00653	-138.3239	89.5037	38.24249	-64.27993	-195.2808	-135.88289	-114.72747	-107.40444	0
770	-126.11885	27.66478	154.5973	48.00653	-140.76491	91.13104	38.24249	-65.0936	-193.65346	-136.69656	-115.54114	-109.84545	0
771	-126.11885	30.10579	157.03831	46.37919	-141.57858	93.57205	37.42882	-65.0936	-191.21245	-136.69656	-115.54114	-111.47279	0
772	-125.30518	33.36047	159.47932	44.75185	-142.39225	96.01306	37.42882	-64.27993	-187.1441	-135.88289	-114.72747	-111.47279	0
773	-123.67784	37.42882	161.10666	42.31084	-143.20592	99.26774	37.42882	-61.83892	-182.26208	-135.06922	-113.10013	-110.65912	0
774	-122.0505	39.86983	161.92033	39.86983	-142.39225	100.89508	37.42882	-59.39791	-177.38006	-135.06922	-110.65912	-108.21811	0
775	-119.60949	41.49717	161.10666	37.42882	-140.76491	101.70875	37.42882	-56.9569	-172.49804	-134.25555	-108.21811	-105.7771	0
776	-116.35481	41.49717	157.85198	36.61515	-137.51023	99.26774	38.24249	-53.70222	-167.61602	-133.44188	-105.7771	-103.33609	0
777	-113.9138	39.05616	152.96996	36.61515	-134.25555	96.01306	39.05616	-51.26121	-162.734	-132.62821	-103.33609	-100.08141	0
778	-112.28646	35.80148	148.08794	36.61515	-130.1872	91.94471	40.6835	-48.00653	-157.85198	-130.1872	-100.89508	-97.6404	0
779	-109.84545	33.36047	144.01959	37.42882	-126.93252	88.69003	41.49717	-43.93818	-152.15629	-126.93252	-97.6404	-94.38572	0
780	-108.21811	32.5468	141.57858	36.61515	-125.30518	87.06269	42.31084	-41.49717	-146.4606	-122.86417	-94.38572	-91.94471	0
781	-107.40444	33.36047	140.76491	35.80148	-124.49151	87.06269	42.31084	-38.24249	-140.76491	-118.79582	-91.13104	-90.31737	0
782	-106.59077	34.98781	141.57858	34.98781	-124.49151	87.87636	42.31084	-35.80148	-135.06922	-115.54114	-89.5037	-89.5037	0
783	-106.59077	35.80148	143.20592	34.17414	-125.30518	89.5037	42.31084	-32.5468	-128.55986	-112.28646	-87.87636	-89.5037	0
784	-107.40444	36.61515	144.83326	34.17414	-126.11885	90.31737	42.31084	-28.47845	-122.0505	-110.65912	-86.24902	-89.5037	0
785	-108.21811	37.42882	145.64693	34.17414	-126.93252	91.13104	41.49717	-25.22377	-115.54114	-109.03178	-85.43535	-88.69003	0
786	-106.59077	38.24249	145.64693	32.5468	-126.11885	91.94471	39.86983	-21.15542	-109.84545	-106.59077	-82.99434	-87.06269	0
787	-104.14976	39.86983	144.01959	30.91946	-124.49151	91.94471	36.61515	-17.90074	-104.14976	-104.96343	-80.55333	-85.43535	0
788	-100.08141	41.49717	141.57858	28.47845	-121.23683	91.94471	34.17414	-14.64606	-98.45407	-101.70875	-78.11232	-82.99434	0
789	-96.01306	43.12451	139.13757	25.22377	-117.98215	91.13104	32.5468	-10.57771	-93.57205	-99.26774	-76.48498	-81.367	0
790	-91.94471	44.75185	137.51023	22.78276	-114.72747	91.13104	31.73313	-7.32303	-88.69003	-96.82673	-74.85764	-79.73966	0
791	-88.69003	45.56552	135.06922	20.34175	-112.28646	90.31737	33.36047	-3.25468	-83.80801	-96.82673	-74.04397	-79.73966	0
792	-86.24902	45.56552	131.81454	19.52808	-109.84545	88.69003	35.80148	0.81367	-78.92599	-97.6404	-74.04397	-79.73966	0
793	-84.62168	44.75185	129.37353	18.71441	-107.40444	87.06269	39.05616	5.69569	-73.2303	-97.6404	-74.04397	-79.73966	0
794	-82.18067	43.12451	126.11885	18.71441	-104.96343	84.62168	42.31084	11.39138	-66.72094	-97.6404	-74.04397	-78.92599	0
795	-81.367	41.49717	122.86417	18.71441	-102.52242	82.18067	45.56552	17.90074	-59.39791	-96.01306	-72.41663	-78.92599	0
796	-79.73966	39.05616	118.79582	19.52808	-99.26774	78.92599	48.8202	24.4101	-52.07488	-93.57205	-71.60296	-78.11232	0
797	-78.11232	37.42882	115.54114	19.52808	-96.82673	76.48498	52.07488	31.73313	-44.75185	-90.31737	-69.16195	-77.29865	0
798	-76.48498	35.80148	112.28646	19.52808	-95.19939	74.04397	53.70222	39.05616	-37.42882	-86.24902	-67.53461	-76.48498	0
799	-74.85764	36.61515	111.47279	18.71441	-93.57205	74.04397	55.32956	45.56552	-30.91946	-82.18067	-65.90727	-76.48498	0
800	-74.04397	37.42882	110.65912	17.08707	-92.75838	74.04397	56.14323	52.07488	-24.4101	-77.29865	-64.27993	-76.48498	0
801	-72.41663	39.05616	110.65912	15.45973	-91.94471	74.85764	56.9569	58.58424	-17.90074	-73.2303	-63.46626	-76.48498	0
802	-69.97562	40.6835	110.65912	13.83239	-91.13104	75.67131	57.77057	65.0936	-10.57771	-68.34828	-61.83892	-76.48498	0
803	-67.53461	42.31084	109.84545	11.39138	-89.5037	76.48498	58.58424	72.41663	-2.44101	-63.46626	-59.39791	-74.85764	0
804	-65.0936	43.12451	108.21811	9.76404	-87.06269	75.67131	59.39791	79.73966	4.06835	-58.58424	-57.77057	-73.2303	0
805	-61.02525	44.75185	105.7771	7.32303	-83.80801	74.85764	60.21158	87.06269	12.20505	-53.70222	-55.32956	-71.60296	0
806	-56.14323	45.56552	101.70875	4.06835	-78.92599	73.2303	61.02525	95.19939	19.52808	-48.8202	-52.07488	-69.97562	0
807	-50.44754	46.37919	96.82673	0.81367	-74.04397	71.60296	62.65259	104.14976	27.66478	-43.12451	-48.8202	-66.72094	0
808	-43.93818	47.19286	91.13104	-2.44101	-67.53461	69.16195	64.27993	112.28646	35.80148	-37.42882	-43.93818	-62.65259	0
809	-37.42882	48.00653	85.43535	-5.69569	-61.83892	66.72094	65.90727	122.0505	43.93818	-31.73313	-39.05616	-58.58424	0
810	-32.5468	48.00653	80.55333	-8.1367	-56.9569	64.27993	68.34828	131.00087	52.07488	-26.85111	-34.98781	-54.51589	0
811	-28.47845	46.37919	75.67131	-9.76404	-52.88855	61.02525	69.97562	139.95124	61.02525	-22.78276	-31.73313	-52.07488	0
812	-26.85111	44.75185	71.60296	-9.76404	-49.63387	58.58424	71.60296	149.71528	69.97562	-19.52808	-30.10579	-50.44754	0
813	-25.22377	43.12451	68.34828	-8.95037	-47.19286	55.32956	73.2303	159.47932	80.55333	-16.2734	-28.47845	-49.63387	0
814	-24.4101	41.49717	65.90727	-8.95037	-45.56552	53.70222	74.85764	170.05703	91.94471	-12.20505	-27.66478	-49.63387	0
815	-23.59643	40.6835	64.27993	-8.95037	-43.93818	52.07488	76.48498	180.63474	103.33609	-8.1367	-26.85111	-50.44754	0
816	-21.15542	40.6835	61.83892	-9.76404	-42.31084	51.26121	78.11232	192.02612	113.9138	-4.88202	-26.03744	-51.26121	0
817	-18.71441	40.6835	59.39791	-11.39138	-39.86983	50.44754	78.92599	202.60383	124.49151	-2.44101	-25.22377	-50.44754	0
818	-15.45973	41.49717	56.9569	-13.83239	-36.61515	48.8202	80.55333	213.99521	135.06922	0	-22.78276	-48.8202	0
819	-12.20505	41.49717	52.88855	-15.45973	-33.36047	47.19286	80.55333	225.38659	144.83326	1.62734	-20.34175	-45.56552	0
820	-8.1367	40.6835	48.8202	-16.2734	-29.29212	44.75185	82.18067	236.77797	155.41097	4.88202	-16.2734	-42.31084	0
821	-4.88202	38.24249	43.12451	-17.08707	-24.4101	40.6835	83.80801	248.98302	167.61602	8.1367	-12.20505	-38.24249	0
822	-0.81367	36.61515	36.61515	-18.71441	-18.71441	36.61515	86.24902	262.00174	179.82107	12.20505	-8.1367	-34.98781	0
823	3.25468	33.36047	30.10579	-19.52808	-13.83239	31.73313	89.5037	276.6478	194.46713	17.08707	-4.06835	-31.73313	0
824	7.32303	31.73313	23.59643	-20.34175	-8.1367	27.66478	93.57205	291.29386	209.92686	23.59643	0	-28.47845	0
825	13.01872	30.10579	17.08707	-22.78276	-2.44101	23.59643	98.45407	307.56726	227.01393	30.10579	4.88202	-25.22377	0
826	18.71441	30.10579	10.57771	-25.22377	3.25468	21.15542	102.52242	323.84066	243.28733	36.61515	10.57771	-22.78276	0
827	25.22377	30.91946	4.88202	-29.29212	9.76404	17.90074	106.59077	339.30039	259.56073	43.12451	14.64606	-20.34175	0
828	33.36047	31.73313	-0.81367	-33.36047	16.2734	15.45973	109.84545	354.76012	274.20679	48.00653	18.71441	-17.90074	0
829	41.49717	33.36047	-7.32303	-38.24249	24.4101	13.01872	113.9138	368.59251	287.22551	52.07488	21.96909	-15.45973	0
830	49.63387	34.98781	-14.64606	-43.12451	31.73313	10.57771	117.16848	381.61123	300.24423	56.9569	24.4101	-13.83239	0
831	58.58424	37.42882	-21.15542	-48.8202	39.05616	8.1367	119.60949	394.62995	314.07662	61.83892	27.66478	-11.39138	0
832	66.72094	38.24249	-27.66478	-53.70222	46.37919	4.88202	122.0505	407.64867	327.90901	68.34828	30.91946	-8.95037	0
833	74.04397	39.05616	-34.98781	-56.9569	53.70222	1.62734	124.49151	420.66739	342.55507	74.85764	34.17414	-7.32303	0
834	80.55333	37.42882	-43.12451	-59.39791	61.83892	-2.44101	126.93252	432.87244	356.38746	79.73966	35.80148	-6.50936	0
835	87.06269	34.17414	-52.07488	-61.02525	69.16195	-8.95037	128.55986	445.07749	370.21985	83.80801	37.42882	-6.50936	0
836	92.75838	30.91946	-61.83892	-62.65259	77.29865	-15.45973	129.37353	456.46887	382.4249	86.24902	39.05616	-5.69569	0
837	99.26774	26.85111	-72.41663	-64.27993	85.43535	-21.96909	130.1872	467.04658	393.81628	87.87636	40.6835	-4.88202	0
838	106.59077	23.59643	-82.18067	-65.90727	94.38572	-29.29212	131.00087	476.81062	403.58032	89.5037	43.93818	-2.44101	0
839	113.10013	20.34175	-92.75838	-67.53461	102.52242	-35.80148	131.00087	485.76099	414.15803	91.94471	46.37919	0	0
840	120.42316	17.08707	-102.52242	-69.16195	110.65912	-42.31084	131.81454	493.89769	423.92207	94.38572	49.63387	2.44101	0
841	126.11885	13.83239	-112.28646	-70.78929	118.79582	-48.8202	132.62821	502.03439	432.87244	98.45407	53.70222	6.50936	0
842	131.81454	10.57771	-120.42316	-71.60296	125.30518	-54.51589	133.44188	508.54375	442.63648	103.33609	57.77057	9.76404	0
843	135.88289	7.32303	-128.55986	-72.41663	131.81454	-60.21158	135.06922	514.23944	451.58685	106.59077	61.83892	13.83239	0
844	140.76491	4.06835	-136.69656	-73.2303	138.3239	-65.90727	135.88289	519.12146	458.90988	109.84545	64.27993	17.08707	0
845	144.83326	0	-144.83326	-73.2303	144.83326	-72.41663	135.88289	523.18981	465.41924	110.65912	66.72094	18.71441	0
846	149.71528	-3.25468	-153.78363	-74.04397	151.34262	-78.92599	136.69656	526.44449	470.30126	111.47279	67.53461	20.34175	0
847	155.41097	-6.50936	-163.54767	-74.85764	158.66565	-84.62168	136.69656	528.8855	475.18328	110.65912	68.34828	21.15542	0
848	161.10666	-10.57771	-171.68437	-75.67131	165.98868	-91.13104	137.51023	531.32651	479.25163	110.65912	68.34828	21.96909	0
849	165.98868	-13.83239	-179.82107	-76.48498	172.49804	-96.82673	138.3239	532.95385	481.69264	109.03178	68.34828	21.96909	0
850	170.05703	-17.08707	-187.95777	-76.48498	178.19373	-102.52242	138.3239	532.95385	484.13365	106.59077	67.53461	21.96909	0
851	173.31171	-21.15542	-195.2808	-76.48498	183.88942	-108.21811	139.13757	531.32651	485.76099	104.14976	66.72094	21.15542	0
852	176.56639	-25.22377	-202.60383	-76.48498	189.58511	-113.9138	139.95124	529.69917	486.57466	101.70875	65.90727	20.34175	0
853	179.0074	-29.29212	-209.92686	-75.67131	194.46713	-119.60949	140.76491	527.25816	488.202	100.89508	64.27993	19.52808	0
854	181.44841	-34.17414	-217.24989	-74.04397	199.34915	-126.11885	141.57858	524.00348	489.82934	100.89508	62.65259	18.71441	0
855	183.07575	-39.05616	-223.75925	-72.41663	203.4175	-131.00087	141.57858	519.93513	490.64301	101.70875	61.83892	17.90074	0
856	183.88942	-43.93818	-228.64127	-70.78929	206.67218	-136.69656	139.95124	514.23944	489.82934	101.70875	60.21158	16.2734	0
857	184.70309	-48.00653	-233.52329	-69.16195	209.11319	-140.76491	138.3239	506.91641	486.57466	100.08141	57.77057	13.83239	0
858	184.70309	-51.26121	-237.59164	-66.72094	210.74053	-144.83326	136.69656	498.77971	482.50631	97.6404	54.51589	10.57771	0
859	184.70309	-55.32956	-240.84632	-65.0936	212.36787	-148.08794	134.25555	490.64301	476.81062	94.38572	50.44754	7.32303	0
860	183.88942	-58.58424	-243.28733	-62.65259	213.18154	-151.34262	131.81454	481.69264	471.11493	91.13104	47.19286	4.06835	0
861	182.26208	-61.83892	-244.91467	-60.21158	213.18154	-153.78363	130.1872	471.9286	464.60557	87.87636	45.56552	1.62734	0
862	179.82107	-64.27993	-245.72834	-58.58424	212.36787	-154.5973	127.74619	460.53722	457.28254	85.43535	43.12451	0	0
863	177.38006	-66.72094	-244.91467	-55.32956	210.74053	-156.22464	126.11885	448.33217	449.14584	82.99434	42.31084	0	0
864	174.12538	-69.97562	-244.91467	-52.88855	209.11319	-157.85198	124.49151	434.49978	440.19547	80.55333	41.49717	-0.81367	0
865	170.05703	-74.85764	-246.54201	-48.00653	208.29952	-161.10666	121.23683	419.85372	428.80409	77.29865	39.86983	-1.62734	0
866	165.98868	-81.367	-248.98302	-42.31084	206.67218	-165.17501	117.16848	404.39399	415.78537	72.41663	37.42882	-3.25468	0
867	161.10666	-88.69003	-250.61036	-36.61515	205.85851	-170.05703	113.10013	387.30692	401.95298	67.53461	34.17414	-4.88202	0
868	155.41097	-95.19939	-251.42403	-30.91946	203.4175	-173.31171	108.21811	371.03352	386.49325	62.65259	30.10579	-7.32303	0
869	148.90161	-100.08141	-249.79669	-25.22377	199.34915	-174.93905	103.33609	353.13278	371.03352	58.58424	26.85111	-8.95037	0
870	142.39225	-103.33609	-246.54201	-19.52808	193.65346	-174.93905	98.45407	335.23204	353.94645	55.32956	23.59643	-10.57771	0
871	134.25555	-104.14976	-240.03265	-15.45973	187.1441	-172.49804	94.38572	317.3313	336.04571	50.44754	20.34175	-13.01872	0
872	126.93252	-104.14976	-231.08228	-12.20505	179.0074	-167.61602	90.31737	298.61689	318.14497	45.56552	16.2734	-15.45973	0
873	118.79582	-101.70875	-221.31824	-8.95037	170.05703	-161.10666	87.87636	279.08881	299.43056	39.86983	11.39138	-19.52808	0
874	111.47279	-98.45407	-210.74053	-6.50936	160.29299	-154.5973	84.62168	260.3744	279.90248	33.36047	6.50936	-23.59643	0
875	103.33609	-95.19939	-199.34915	-4.06835	151.34262	-147.27427	82.99434	242.47366	261.18807	26.85111	1.62734	-26.85111	0
876	96.01306	-91.94471	-188.77144	-2.44101	142.39225	-140.76491	80.55333	224.57292	242.47366	21.15542	-1.62734	-30.91946	0
877	88.69003	-88.69003	-178.19373	0	133.44188	-133.44188	78.11232	207.48585	225.38659	15.45973	-4.88202	-33.36047	0
878	80.55333	-85.43535	-166.80235	0.81367	123.67784	-126.11885	76.48498	190.39878	207.48585	10.57771	-7.32303	-35.80148	0
879	72.41663	-82.18067	-155.41097	4.06835	113.10013	-118.79582	74.04397	173.31171	189.58511	6.50936	-9.76404	-38.24249	0
880	63.46626	-79.73966	-144.01959	7.32303	103.33609	-111.47279	71.60296	157.85198	172.49804	1.62734	-11.39138	-39.86983	0
881	53.70222	-78.11232	-132.62821	10.57771	92.75838	-105.7771	68.34828	142.39225	156.22464	-0.81367	-12.20505	-41.49717	0
882	43.93818	-77.29865	-122.86417	15.45973	82.99434	-100.08141	65.90727	128.55986	139.95124	-4.06835	-13.01872	-43.12451	0
883	35.80148	-77.29865	-113.9138	19.52808	74.04397	-95.19939	63.46626	114.72747	125.30518	-6.50936	-13.83239	-44.75185	0
884	27.66478	-76.48498	-104.96343	22.78276	65.90727	-90.31737	60.21158	101.70875	111.47279	-9.76404	-14.64606	-46.37919	0
885	21.15542	-74.85764	-96.01306	26.03744	57.77057	-85.43535	57.77057	89.5037	97.6404	-13.01872	-17.08707	-48.00653	0
886	13.83239	-72.41663	-87.06269	27.66478	50.44754	-79.73966	55.32956	78.11232	83.80801	-17.90074	-20.34175	-51.26121	0
887	6.50936	-69.97562	-77.29865	30.10579	41.49717	-73.2303	55.32956	66.72094	69.97562	-23.59643	-24.4101	-54.51589	0
888	0	-67.53461	-67.53461	33.36047	32.5468	-67.53461	56.14323	56.9569	56.14323	-29.29212	-29.29212	-57.77057	0
889	-8.1367	-65.90727	-56.9569	35.80148	23.59643	-61.02525	56.9569	48.00653	43.12451	-34.17414	-32.5468	-60.21158	0
890	-15.45973	-63.46626	-48.00653	38.24249	15.45973	-55.32956	58.58424	39.05616	31.73313	-38.24249	-34.17414	-61.02525	0
891	-21.15542	-61.02525	-39.86983	40.6835	8.95037	-50.44754	59.39791	31.73313	20.34175	-41.49717	-35.80148	-61.83892	0
892	-26.03744	-59.39791	-33.36047	41.49717	3.25468	-46.37919	60.21158	25.22377	10.57771	-43.93818	-35.80148	-61.02525	0
893	-29.29212	-57.77057	-28.47845	42.31084	-0.81367	-43.12451	61.02525	19.52808	1.62734	-46.37919	-34.98781	-58.58424	0
894	-31.73313	-56.14323	-24.4101	43.12451	-3.25468	-40.6835	60.21158	14.64606	-4.88202	-47.19286	-33.36047	-56.14323	0
895	-33.36047	-55.32956	-21.96909	43.93818	-5.69569	-39.05616	59.39791	10.57771	-12.20505	-47.19286	-31.73313	-53.70222	0
896	-35.80148	-54.51589	-19.52808	43.93818	-8.1367	-37.42882	57.77057	6.50936	-17.90074	-47.19286	-30.10579	-51.26121	0
897	-37.42882	-53.70222	-16.2734	44.75185	-10.57771	-34.98781	56.14323	3.25468	-23.59643	-48.00653	-29.29212	-49.63387	0
898	-39.86983	-52.07488	-13.01872	45.56552	-13.01872	-32.5468	54.51589	0.81367	-29.29212	-48.8202	-29.29212	-48.8202	0
899	-41.49717	-50.44754	-8.95037	44.75185	-16.2734	-30.10579	52.88855	-1.62734	-34.17414	-49.63387	-29.29212	-48.00653	0
900	-42.31084	-47.19286	-5.69569	43.93818	-18.71441	-26.85111	50.44754	-4.06835	-39.05616	-50.44754	-29.29212	-48.00653	0
901	-43.12451	-44.75185	-1.62734	43.12451	-20.34175	-22.78276	48.00653	-7.32303	-43.93818	-51.26121	-29.29212	-47.19286	0
902	-43.12451	-41.49717	0.81367	41.49717	-21.96909	-20.34175	45.56552	-9.76404	-47.19286	-52.07488	-29.29212	-47.19286	0
903	-43.12451	-39.86983	2.44101	40.6835	-23.59643	-17.90074	43.93818	-11.39138	-50.44754	-53.70222	-30.10579	-48.00653	0
904	-43.12451	-38.24249	4.06835	39.86983	-23.59643	-17.08707	43.12451	-12.20505	-52.88855	-55.32956	-30.10579	-48.8202	0
905	-43.12451	-37.42882	4.06835	39.05616	-24.4101	-16.2734	43.12451	-13.01872	-55.32956	-56.14323	-30.91946	-49.63387	0
906	-43.12451	-37.42882	4.88202	39.05616	-24.4101	-15.45973	42.31084	-13.83239	-56.9569	-56.9569	-30.91946	-50.44754	0
907	-43.12451	-37.42882	4.88202	39.05616	-24.4101	-15.45973	42.31084	-14.64606	-58.58424	-58.58424	-31.73313	-51.26121	0
908	-43.12451	-37.42882	4.06835	39.86983	-24.4101	-16.2734	42.31084	-15.45973	-60.21158	-59.39791	-32.5468	-51.26121	0
909	-43.93818	-39.05616	4.06835	40.6835	-24.4101	-17.08707	42.31084	-16.2734	-61.02525	-61.02525	-33.36047	-52.07488	0
910	-45.56552	-41.49717	2.44101	42.31084	-24.4101	-18.71441	43.12451	-16.2734	-61.83892	-62.65259	-34.17414	-53.70222	0
911	-47.19286	-44.75185	1.62734	44.75185	-25.22377	-21.15542	43.12451	-16.2734	-62.65259	-65.0936	-36.61515	-54.51589	0
912	-49.63387	-48.00653	0.81367	48.00653	-25.22377	-23.59643	43.12451	-16.2734	-63.46626	-66.72094	-37.42882	-56.14323	0
913	-51.26121	-50.44754	0	49.63387	-26.03744	-24.4101	42.31084	-16.2734	-64.27993	-68.34828	-39.05616	-56.9569	0
914	-52.88855	-51.26121	0	51.26121	-26.85111	-25.22377	42.31084	-17.08707	-65.0936	-69.97562	-40.6835	-58.58424	0
915	-54.51589	-52.07488	1.62734	52.07488	-28.47845	-25.22377	41.49717	-17.08707	-65.90727	-72.41663	-42.31084	-59.39791	0
916	-55.32956	-52.07488	2.44101	52.88855	-29.29212	-24.4101	41.49717	-17.90074	-66.72094	-74.85764	-43.93818	-61.02525	0
917	-56.14323	-51.26121	3.25468	52.88855	-30.10579	-23.59643	42.31084	-17.08707	-65.90727	-75.67131	-45.56552	-61.83892	0
918	-55.32956	-50.44754	4.06835	52.07488	-30.10579	-22.78276	42.31084	-17.08707	-65.0936	-77.29865	-46.37919	-62.65259	0
919	-54.51589	-49.63387	4.06835	52.07488	-30.10579	-22.78276	42.31084	-16.2734	-65.0936	-78.92599	-48.00653	-62.65259	0
920	-53.70222	-49.63387	3.25468	51.26121	-29.29212	-22.78276	42.31084	-15.45973	-64.27993	-80.55333	-48.8202	-63.46626	0
921	-52.88855	-49.63387	2.44101	50.44754	-27.66478	-22.78276	42.31084	-14.64606	-64.27993	-82.99434	-50.44754	-65.0936	0
922	-52.07488	-48.8202	1.62734	49.63387	-26.85111	-23.59643	42.31084	-14.64606	-65.0936	-84.62168	-51.26121	-65.90727	0
923	-51.26121	-49.63387	0.81367	49.63387	-26.03744	-23.59643	42.31084	-14.64606	-65.0936	-85.43535	-52.88855	-67.53461	0
924	-51.26121	-50.44754	0	50.44754	-25.22377	-25.22377	41.49717	-15.45973	-65.90727	-87.06269	-54.51589	-69.16195	0
925	-52.07488	-52.88855	-1.62734	52.07488	-25.22377	-27.66478	40.6835	-16.2734	-66.72094	-87.87636	-56.9569	-71.60296	0
926	-54.51589	-56.9569	-3.25468	55.32956	-25.22377	-30.10579	39.86983	-17.90074	-67.53461	-89.5037	-59.39791	-74.85764	0
927	-57.77057	-61.83892	-4.06835	58.58424	-26.85111	-32.5468	39.05616	-18.71441	-69.16195	-91.94471	-62.65259	-77.29865	0
928	-60.21158	-65.0936	-4.88202	61.83892	-27.66478	-34.98781	38.24249	-20.34175	-70.78929	-93.57205	-65.0936	-80.55333	0
929	-61.83892	-66.72094	-4.88202	63.46626	-28.47845	-35.80148	37.42882	-21.15542	-72.41663	-96.01306	-67.53461	-82.18067	0
930	-62.65259	-67.53461	-4.88202	64.27993	-29.29212	-35.80148	36.61515	-21.96909	-74.04397	-97.6404	-69.16195	-83.80801	0
931	-62.65259	-67.53461	-4.06835	64.27993	-29.29212	-35.80148	35.80148	-22.78276	-76.48498	-100.08141	-70.78929	-83.80801	0
932	-62.65259	-65.90727	-4.06835	63.46626	-29.29212	-34.98781	35.80148	-23.59643	-77.29865	-101.70875	-70.78929	-83.80801	0
933	-61.02525	-65.0936	-4.06835	62.65259	-28.47845	-34.17414	36.61515	-24.4101	-78.92599	-102.52242	-70.78929	-82.18067	0
934	-59.39791	-64.27993	-4.06835	61.02525	-27.66478	-34.17414	37.42882	-24.4101	-78.92599	-103.33609	-70.78929	-81.367	0
935	-58.58424	-63.46626	-4.88202	60.21158	-26.85111	-34.17414	39.86983	-24.4101	-78.11232	-102.52242	-69.16195	-79.73966	0
936	-58.58424	-62.65259	-4.06835	59.39791	-27.66478	-33.36047	42.31084	-24.4101	-77.29865	-100.89508	-68.34828	-78.92599	0
937	-59.39791	-60.21158	-1.62734	59.39791	-29.29212	-30.91946	44.75185	-23.59643	-75.67131	-98.45407	-65.90727	-77.29865	0
938	-60.21158	-57.77057	1.62734	58.58424	-30.91946	-27.66478	48.00653	-22.78276	-73.2303	-95.19939	-63.46626	-75.67131	0
939	-60.21158	-53.70222	5.69569	56.14323	-33.36047	-23.59643	51.26121	-21.15542	-70.78929	-91.94471	-61.02525	-73.2303	0
940	-60.21158	-48.8202	9.76404	53.70222	-35.80148	-19.52808	53.70222	-19.52808	-68.34828	-88.69003	-57.77057	-71.60296	0
941	-57.77057	-43.12451	13.83239	49.63387	-36.61515	-14.64606	54.51589	-17.90074	-65.90727	-85.43535	-55.32956	-69.97562	0
942	-54.51589	-37.42882	16.2734	44.75185	-35.80148	-10.57771	55.32956	-15.45973	-63.46626	-83.80801	-52.88855	-67.53461	0
943	-50.44754	-31.73313	17.90074	39.86983	-34.98781	-6.50936	55.32956	-13.83239	-61.02525	-81.367	-50.44754	-65.0936	0
944	-45.56552	-26.03744	18.71441	34.98781	-32.5468	-3.25468	54.51589	-13.01872	-59.39791	-78.92599	-47.19286	-61.83892	0
945	-41.49717	-21.15542	19.52808	30.10579	-30.91946	-0.81367	53.70222	-12.20505	-56.9569	-76.48498	-43.12451	-57.77057	0
946	-38.24249	-17.90074	19.52808	26.85111	-29.29212	0	52.88855	-11.39138	-56.14323	-74.04397	-39.86983	-53.70222	0
947	-35.80148	-16.2734	19.52808	25.22377	-28.47845	0.81367	52.88855	-12.20505	-55.32956	-72.41663	-36.61515	-50.44754	0
948	-34.98781	-15.45973	19.52808	24.4101	-27.66478	1.62734	53.70222	-12.20505	-54.51589	-71.60296	-34.17414	-48.00653	0
949	-35.80148	-15.45973	19.52808	24.4101	-27.66478	1.62734	56.14323	-11.39138	-53.70222	-69.97562	-32.5468	-46.37919	0
950	-36.61515	-15.45973	20.34175	25.22377	-29.29212	2.44101	60.21158	-10.57771	-53.70222	-69.16195	-31.73313	-44.75185	0
951	-38.24249	-15.45973	21.96909	26.03744	-30.10579	2.44101	64.27993	-9.76404	-52.88855	-67.53461	-30.91946	-43.93818	0
952	-39.86983	-15.45973	23.59643	26.85111	-31.73313	3.25468	68.34828	-8.1367	-52.07488	-65.90727	-30.10579	-43.12451	0
953	-39.86983	-13.01872	26.03744	26.03744	-33.36047	5.69569	71.60296	-5.69569	-50.44754	-62.65259	-28.47845	-42.31084	0
954	-39.05616	-8.1367	30.10579	22.78276	-34.98781	10.57771	73.2303	-2.44101	-47.19286	-58.58424	-26.03744	-39.86983	0
955	-36.61515	-0.81367	34.98781	17.90074	-35.80148	16.2734	72.41663	0	-43.12451	-53.70222	-22.78276	-36.61515	0
956	-32.5468	7.32303	39.86983	11.39138	-36.61515	23.59643	68.34828	0	-39.05616	-48.8202	-17.90074	-31.73313	0
957	-26.85111	17.90074	44.75185	3.25468	-36.61515	30.91946	61.02525	0	-34.98781	-42.31084	-12.20505	-25.22377	0
958	-20.34175	28.47845	48.00653	-4.06835	-34.98781	38.24249	50.44754	-0.81367	-31.73313	-37.42882	-6.50936	-17.90074	0
959	-13.01872	38.24249	50.44754	-13.01872	-32.5468	43.93818	38.24249	-4.88202	-30.10579	-31.73313	-0.81367	-11.39138	0
960	-5.69569	46.37919	51.26121	-21.15542	-29.29212	48.8202	23.59643	-10.57771	-29.29212	-27.66478	4.06835	-4.88202	0
961	0	52.88855	51.26121	-26.85111	-26.03744	52.07488	9.76404	-17.90074	-31.73313	-24.4101	8.1367	0	0
962	5.69569	56.9569	50.44754	-32.5468	-22.78276	53.70222	-4.06835	-26.85111	-35.80148	-22.78276	11.39138	3.25468	0
963	9.76404	61.02525	50.44754	-35.80148	-20.34175	55.32956	-17.08707	-36.61515	-41.49717	-21.96909	13.01872	5.69569	0
964	12.20505	64.27993	51.26121	-39.05616	-19.52808	57.77057	-28.47845	-45.56552	-48.00653	-22.78276	13.83239	7.32303	0
965	14.64606	67.53461	52.07488	-42.31084	-18.71441	60.21158	-38.24249	-53.70222	-54.51589	-24.4101	13.83239	8.1367	0
966	17.08707	70.78929	52.88855	-44.75185	-17.90074	61.83892	-46.37919	-60.21158	-61.02525	-25.22377	13.83239	8.95037	0
967	19.52808	73.2303	52.07488	-47.19286	-16.2734	62.65259	-51.26121	-65.0936	-65.90727	-26.85111	13.01872	8.95037	0
968	21.96909	73.2303	49.63387	-48.8202	-13.83239	61.02525	-52.88855	-67.53461	-69.16195	-28.47845	11.39138	8.1367	0
969	23.59643	70.78929	45.56552	-48.00653	-10.57771	57.77057	-51.26121	-68.34828	-72.41663	-30.10579	9.76404	5.69569	0
970	24.4101	65.0936	39.86983	-45.56552	-8.1367	52.88855	-48.00653	-67.53461	-74.85764	-32.5468	6.50936	3.25468	0
971	22.78276	56.9569	33.36047	-40.6835	-4.88202	44.75185	-41.49717	-65.90727	-77.29865	-35.80148	2.44101	0	0
972	19.52808	45.56552	25.22377	-32.5468	-3.25468	34.98781	-34.98781	-63.46626	-78.92599	-40.6835	-1.62734	-4.88202	0
973	13.83239	30.91946	16.2734	-22.78276	-1.62734	23.59643	-26.85111	-60.21158	-80.55333	-45.56552	-7.32303	-10.57771	0
974	5.69569	15.45973	9.76404	-11.39138	-2.44101	13.01872	-18.71441	-56.14323	-81.367	-51.26121	-12.20505	-16.2734	0
975	-3.25468	1.62734	4.88202	0	-4.88202	3.25468	-9.76404	-51.26121	-81.367	-55.32956	-17.08707	-20.34175	0
976	-12.20505	-8.95037	2.44101	9.76404	-8.1367	-2.44101	0	-45.56552	-80.55333	-58.58424	-20.34175	-24.4101	0
977	-21.15542	-19.52808	1.62734	19.52808	-12.20505	-8.95037	7.32303	-40.6835	-78.92599	-61.83892	-22.78276	-27.66478	0
978	-29.29212	-27.66478	0.81367	27.66478	-15.45973	-13.01872	15.45973	-37.42882	-77.29865	-63.46626	-25.22377	-30.10579	0
979	-36.61515	-35.80148	0	34.98781	-18.71441	-17.08707	21.15542	-34.98781	-76.48498	-64.27993	-26.85111	-32.5468	0
980	-42.31084	-42.31084	0	41.49717	-21.15542	-21.15542	25.22377	-34.98781	-76.48498	-65.90727	-29.29212	-35.80148	0
981	-47.19286	-48.00653	-1.62734	46.37919	-22.78276	-24.4101	28.47845	-35.80148	-77.29865	-68.34828	-33.36047	-39.86983	0
982	-50.44754	-52.88855	-2.44101	51.26121	-23.59643	-27.66478	29.29212	-37.42882	-79.73966	-70.78929	-37.42882	-43.93818	0
983	-52.88855	-56.9569	-4.06835	54.51589	-25.22377	-30.10579	30.10579	-39.86983	-82.99434	-74.04397	-41.49717	-48.00653	0
984	-56.14323	-59.39791	-3.25468	56.9569	-26.03744	-31.73313	29.29212	-43.12451	-86.24902	-76.48498	-46.37919	-52.88855	0
985	-59.39791	-61.02525	-1.62734	59.39791	-28.47845	-30.91946	28.47845	-47.19286	-90.31737	-80.55333	-51.26121	-57.77057	0
