samplenr	I	II	III	aVR	aVL	aVF	V1	V2	V3	V4	V5	V6	measurement
0	1.62734	-2.44101	-4.88202	0	3.25468	-3.25468	6.50936	13.83239	8.95037	3.25468	0.81367	0	0
1	10.57771	-11.39138	-21.96909	0	16.2734	-17.08707	30.10579	62.65259	40.6835	16.2734	5.69569	3.25468	0
2	24.4101	-26.03744	-51.26121	0	38.24249	-39.05616	67.53461	141.57858	92.75838	36.61515	13.83239	7.32303	0
3	41.49717	-43.12451	-84.62168	0	62.65259	-64.27993	108.21811	229.45494	151.34262	60.21158	23.59643	11.39138	0
4	57.77057	-60.21158	-118.79582	0	87.87636	-89.5037	145.64693	312.44928	206.67218	82.99434	31.73313	14.64606	0
5	73.2303	-76.48498	-150.52895	0.81367	112.28646	-113.9138	175.75272	383.23857	255.49238	101.70875	37.42882	14.64606	0
6	87.06269	-92.75838	-179.82107	1.62734	133.44188	-136.69656	197.72181	439.3818	292.9212	113.9138	39.05616	11.39138	0
7	97.6404	-107.40444	-205.85851	3.25468	151.34262	-157.03831	210.74053	478.43796	319.77231	120.42316	36.61515	5.69569	0
8	107.40444	-119.60949	-227.8276	4.88202	167.61602	-174.12538	216.43622	502.84806	336.04571	121.23683	31.73313	-0.81367	0
9	114.72747	-130.1872	-245.72834	6.50936	179.82107	-187.95777	216.43622	514.23944	344.18241	117.98215	25.22377	-8.1367	0
10	122.0505	-137.51023	-260.3744	6.50936	190.39878	-199.34915	210.74053	515.05311	344.99608	112.28646	17.90074	-15.45973	0
11	127.74619	-143.20592	-270.95211	6.50936	198.53548	-207.48585	202.60383	508.54375	339.30039	104.14976	10.57771	-20.34175	0
12	131.81454	-146.4606	-279.08881	6.50936	205.04484	-213.18154	190.39878	497.15237	330.35002	95.19939	2.44101	-24.4101	0
13	135.06922	-149.71528	-285.59817	5.69569	209.92686	-217.24989	177.38006	482.50631	318.14497	84.62168	-4.88202	-28.47845	0
14	136.69656	-151.34262	-289.66652	5.69569	213.18154	-220.50457	163.54767	465.41924	305.12625	73.2303	-14.64606	-32.5468	0
15	137.51023	-153.78363	-291.29386	6.50936	214.80888	-222.94558	149.71528	447.5185	291.29386	62.65259	-24.4101	-36.61515	0
16	136.69656	-155.41097	-292.9212	8.1367	214.80888	-223.75925	136.69656	429.61776	277.46147	52.07488	-33.36047	-40.6835	0
17	135.88289	-157.03831	-293.73487	9.76404	213.99521	-225.38659	124.49151	412.53069	264.44275	42.31084	-40.6835	-43.12451	0
18	133.44188	-159.47932	-293.73487	11.39138	213.18154	-226.20026	113.9138	395.44362	251.42403	34.17414	-47.19286	-44.75185	0
19	131.81454	-161.10666	-293.73487	13.01872	212.36787	-227.8276	104.14976	379.17022	240.03265	27.66478	-52.07488	-45.56552	0
20	130.1872	-163.54767	-293.73487	15.45973	211.5542	-228.64127	95.19939	362.08315	227.8276	21.96909	-55.32956	-46.37919	0
21	126.93252	-165.17501	-292.9212	17.90074	209.11319	-228.64127	86.24902	344.99608	214.80888	16.2734	-57.77057	-46.37919	0
22	122.86417	-165.98868	-289.66652	20.34175	205.85851	-227.8276	77.29865	326.28167	201.79016	11.39138	-60.21158	-48.00653	0
23	117.16848	-165.98868	-283.15716	23.59643	199.34915	-224.57292	67.53461	307.56726	187.95777	5.69569	-62.65259	-49.63387	0
24	109.84545	-163.54767	-274.20679	25.22377	192.02612	-218.87723	57.77057	287.22551	174.12538	0	-65.90727	-52.07488	0
25	103.33609	-159.47932	-262.81541	26.85111	182.26208	-210.74053	48.00653	266.07009	160.29299	-4.88202	-69.97562	-53.70222	0
26	96.01306	-153.78363	-249.79669	27.66478	172.49804	-201.79016	38.24249	244.101	145.64693	-11.39138	-74.04397	-55.32956	0
27	89.5037	-146.4606	-236.77797	27.66478	162.734	-191.21245	29.29212	222.13191	130.1872	-17.08707	-77.29865	-56.9569	0
28	82.99434	-139.95124	-223.75925	26.85111	152.96996	-181.44841	20.34175	200.16282	114.72747	-22.78276	-80.55333	-56.9569	0
29	77.29865	-134.25555	-211.5542	26.85111	144.01959	-172.49804	12.20505	178.19373	98.45407	-29.29212	-82.99434	-57.77057	0
30	70.78929	-127.74619	-199.34915	27.66478	135.06922	-163.54767	4.06835	156.22464	82.18067	-34.98781	-86.24902	-57.77057	0
31	64.27993	-122.0505	-187.1441	27.66478	125.30518	-154.5973	-3.25468	135.06922	65.0936	-40.6835	-88.69003	-58.58424	0
32	58.58424	-116.35481	-174.93905	27.66478	116.35481	-145.64693	-11.39138	114.72747	48.8202	-46.37919	-91.13104	-58.58424	0
33	52.88855	-109.03178	-162.734	26.85111	107.40444	-135.88289	-19.52808	96.01306	34.17414	-51.26121	-92.75838	-58.58424	0
34	47.19286	-102.52242	-150.52895	26.03744	98.45407	-126.11885	-27.66478	78.11232	20.34175	-53.70222	-92.75838	-56.9569	0
35	42.31084	-95.19939	-138.3239	25.22377	89.5037	-117.16848	-34.98781	62.65259	8.95037	-55.32956	-91.94471	-54.51589	0
36	37.42882	-89.5037	-127.74619	24.4101	82.18067	-108.21811	-41.49717	48.8202	0	-55.32956	-90.31737	-50.44754	0
37	32.5468	-84.62168	-117.98215	24.4101	74.85764	-100.89508	-46.37919	35.80148	-8.1367	-54.51589	-87.87636	-46.37919	0
38	26.85111	-80.55333	-108.21811	25.22377	67.53461	-94.38572	-49.63387	22.78276	-15.45973	-54.51589	-84.62168	-42.31084	0
39	21.15542	-77.29865	-99.26774	26.85111	60.21158	-88.69003	-53.70222	10.57771	-22.78276	-53.70222	-82.18067	-39.86983	0
40	15.45973	-73.2303	-89.5037	27.66478	52.07488	-81.367	-56.14323	0	-30.91946	-53.70222	-79.73966	-38.24249	0
41	9.76404	-68.34828	-78.92599	28.47845	43.93818	-74.04397	-59.39791	-11.39138	-39.05616	-54.51589	-77.29865	-38.24249	0
42	4.88202	-62.65259	-68.34828	27.66478	36.61515	-65.0936	-63.46626	-21.96909	-45.56552	-54.51589	-75.67131	-38.24249	0
43	0.81367	-54.51589	-56.14323	25.22377	28.47845	-55.32956	-67.53461	-30.91946	-51.26121	-55.32956	-74.85764	-38.24249	0
44	-2.44101	-47.19286	-44.75185	23.59643	20.34175	-45.56552	-70.78929	-39.05616	-56.9569	-56.9569	-73.2303	-36.61515	0
45	-5.69569	-39.86983	-34.17414	21.96909	13.83239	-36.61515	-74.85764	-46.37919	-61.02525	-58.58424	-71.60296	-34.17414	0
46	-8.95037	-33.36047	-24.4101	20.34175	6.50936	-29.29212	-78.92599	-53.70222	-64.27993	-60.21158	-69.16195	-30.91946	0
47	-13.01872	-28.47845	-15.45973	20.34175	0.81367	-21.96909	-82.99434	-60.21158	-67.53461	-60.21158	-66.72094	-26.85111	0
48	-16.2734	-24.4101	-8.1367	19.52808	-4.06835	-16.2734	-87.06269	-67.53461	-71.60296	-61.02525	-63.46626	-23.59643	0
49	-19.52808	-21.15542	-1.62734	19.52808	-8.95037	-11.39138	-91.13104	-75.67131	-77.29865	-61.83892	-62.65259	-21.96909	0
50	-21.96909	-17.90074	3.25468	18.71441	-13.01872	-6.50936	-94.38572	-82.99434	-82.99434	-64.27993	-63.46626	-22.78276	0
51	-23.59643	-13.83239	8.95037	17.90074	-17.08707	-2.44101	-97.6404	-90.31737	-90.31737	-68.34828	-66.72094	-24.4101	0
52	-25.22377	-10.57771	13.83239	17.08707	-20.34175	0.81367	-100.89508	-96.01306	-96.01306	-73.2303	-71.60296	-26.85111	0
53	-26.85111	-7.32303	18.71441	16.2734	-23.59643	4.88202	-102.52242	-100.89508	-101.70875	-78.11232	-76.48498	-28.47845	0
54	-28.47845	-4.88202	23.59643	15.45973	-26.03744	8.95037	-103.33609	-104.96343	-104.96343	-81.367	-80.55333	-29.29212	0
55	-30.10579	-1.62734	27.66478	15.45973	-29.29212	12.20505	-103.33609	-107.40444	-107.40444	-83.80801	-82.18067	-28.47845	0
56	-31.73313	0	30.91946	15.45973	-31.73313	14.64606	-101.70875	-108.21811	-108.21811	-82.99434	-81.367	-26.85111	0
57	-33.36047	0	33.36047	15.45973	-33.36047	16.2734	-100.08141	-109.03178	-107.40444	-81.367	-77.29865	-23.59643	0
58	-34.17414	0.81367	34.98781	15.45973	-34.98781	17.90074	-99.26774	-109.84545	-106.59077	-78.11232	-72.41663	-21.15542	0
59	-35.80148	0.81367	36.61515	16.2734	-36.61515	18.71441	-99.26774	-111.47279	-106.59077	-74.04397	-66.72094	-19.52808	0
60	-36.61515	3.25468	39.86983	15.45973	-38.24249	21.15542	-100.08141	-113.10013	-105.7771	-71.60296	-60.21158	-17.90074	0
61	-38.24249	6.50936	44.75185	14.64606	-41.49717	25.22377	-101.70875	-115.54114	-105.7771	-68.34828	-54.51589	-17.90074	0
62	-39.05616	11.39138	51.26121	13.01872	-45.56552	30.91946	-103.33609	-117.16848	-105.7771	-65.90727	-48.8202	-17.08707	0
63	-39.86983	17.08707	57.77057	9.76404	-49.63387	37.42882	-104.14976	-117.98215	-104.96343	-63.46626	-43.12451	-16.2734	0
64	-40.6835	22.78276	63.46626	7.32303	-52.07488	43.12451	-104.14976	-117.16848	-102.52242	-61.83892	-39.05616	-15.45973	0
65	-40.6835	26.03744	65.90727	5.69569	-53.70222	46.37919	-102.52242	-115.54114	-99.26774	-61.02525	-35.80148	-13.83239	0
66	-39.86983	26.03744	65.90727	5.69569	-53.70222	45.56552	-100.89508	-113.9138	-96.82673	-62.65259	-34.17414	-13.01872	0
67	-40.6835	22.78276	62.65259	7.32303	-52.07488	43.12451	-98.45407	-112.28646	-94.38572	-65.0936	-34.17414	-12.20505	0
68	-41.49717	16.2734	57.77057	11.39138	-50.44754	37.42882	-96.01306	-111.47279	-94.38572	-68.34828	-34.98781	-12.20505	0
69	-43.12451	9.76404	52.07488	15.45973	-48.00653	30.91946	-94.38572	-111.47279	-94.38572	-71.60296	-35.80148	-13.01872	0
70	-43.93818	2.44101	46.37919	19.52808	-45.56552	24.4101	-91.94471	-110.65912	-95.19939	-74.85764	-36.61515	-13.83239	0
71	-43.93818	-2.44101	40.6835	21.96909	-42.31084	18.71441	-89.5037	-110.65912	-96.82673	-76.48498	-37.42882	-14.64606	0
72	-43.12451	-4.88202	36.61515	23.59643	-40.6835	15.45973	-88.69003	-109.03178	-98.45407	-78.11232	-37.42882	-14.64606	0
73	-41.49717	-5.69569	34.98781	22.78276	-39.05616	13.83239	-87.87636	-108.21811	-99.26774	-78.11232	-38.24249	-13.83239	0
74	-40.6835	-4.06835	35.80148	21.96909	-39.05616	15.45973	-87.87636	-107.40444	-100.89508	-78.11232	-38.24249	-13.01872	0
75	-40.6835	-0.81367	39.05616	19.52808	-39.86983	18.71441	-88.69003	-107.40444	-101.70875	-78.11232	-39.05616	-11.39138	0
76	-41.49717	3.25468	44.75185	17.90074	-43.12451	24.4101	-89.5037	-107.40444	-103.33609	-77.29865	-40.6835	-10.57771	0
77	-42.31084	8.1367	51.26121	16.2734	-47.19286	30.10579	-90.31737	-108.21811	-104.14976	-77.29865	-43.12451	-11.39138	0
78	-43.93818	12.20505	56.9569	14.64606	-51.26121	34.98781	-91.94471	-109.84545	-105.7771	-77.29865	-46.37919	-13.01872	0
79	-45.56552	15.45973	61.02525	13.83239	-53.70222	38.24249	-92.75838	-111.47279	-106.59077	-77.29865	-51.26121	-15.45973	0
80	-47.19286	16.2734	63.46626	13.83239	-56.14323	39.86983	-92.75838	-113.10013	-108.21811	-77.29865	-55.32956	-17.90074	0
81	-48.00653	16.2734	64.27993	14.64606	-56.9569	40.6835	-93.57205	-113.9138	-109.84545	-77.29865	-57.77057	-18.71441	0
82	-48.8202	15.45973	63.46626	15.45973	-56.9569	39.86983	-93.57205	-114.72747	-109.84545	-75.67131	-58.58424	-17.90074	0
83	-48.8202	13.83239	62.65259	16.2734	-56.14323	38.24249	-93.57205	-114.72747	-109.84545	-72.41663	-56.9569	-15.45973	0
84	-48.00653	13.83239	61.83892	16.2734	-56.14323	38.24249	-93.57205	-114.72747	-109.03178	-69.16195	-53.70222	-12.20505	0
85	-48.00653	14.64606	62.65259	15.45973	-56.14323	38.24249	-93.57205	-113.9138	-108.21811	-65.90727	-50.44754	-9.76404	0
86	-48.00653	15.45973	63.46626	14.64606	-56.14323	39.86983	-93.57205	-113.10013	-106.59077	-62.65259	-48.00653	-8.95037	0
87	-48.00653	17.08707	65.0936	14.64606	-56.9569	40.6835	-92.75838	-111.47279	-104.96343	-61.02525	-47.19286	-9.76404	0
88	-48.00653	17.90074	65.90727	13.83239	-56.9569	41.49717	-91.13104	-109.84545	-103.33609	-61.02525	-48.8202	-12.20505	0
89	-48.00653	17.90074	65.90727	13.83239	-57.77057	41.49717	-89.5037	-109.03178	-102.52242	-62.65259	-52.07488	-17.08707	0
90	-48.8202	16.2734	65.0936	14.64606	-57.77057	40.6835	-87.87636	-107.40444	-103.33609	-65.90727	-56.14323	-21.15542	0
91	-49.63387	15.45973	65.0936	15.45973	-57.77057	39.86983	-86.24902	-106.59077	-103.33609	-69.97562	-59.39791	-24.4101	0
92	-50.44754	14.64606	65.0936	16.2734	-57.77057	39.86983	-85.43535	-105.7771	-104.14976	-72.41663	-61.02525	-26.03744	0
93	-51.26121	14.64606	65.0936	17.08707	-58.58424	39.86983	-84.62168	-104.14976	-103.33609	-73.2303	-60.21158	-25.22377	0
94	-51.26121	14.64606	65.90727	17.08707	-59.39791	39.86983	-83.80801	-101.70875	-101.70875	-71.60296	-57.77057	-22.78276	0
95	-52.07488	14.64606	66.72094	17.08707	-59.39791	40.6835	-82.18067	-100.08141	-98.45407	-67.53461	-52.88855	-19.52808	0
96	-52.88855	14.64606	66.72094	17.90074	-60.21158	40.6835	-81.367	-97.6404	-94.38572	-63.46626	-48.00653	-16.2734	0
97	-53.70222	13.83239	67.53461	18.71441	-61.02525	39.86983	-80.55333	-96.01306	-91.13104	-60.21158	-42.31084	-13.01872	0
98	-54.51589	13.01872	67.53461	19.52808	-61.02525	39.86983	-79.73966	-95.19939	-88.69003	-56.14323	-38.24249	-10.57771	0
99	-54.51589	13.01872	67.53461	19.52808	-61.02525	39.86983	-78.92599	-94.38572	-87.87636	-54.51589	-34.98781	-9.76404	0
100	-54.51589	13.01872	67.53461	19.52808	-61.02525	40.6835	-78.92599	-94.38572	-87.87636	-53.70222	-33.36047	-8.95037	1000	P+0
101	-53.70222	13.83239	67.53461	18.71441	-61.02525	40.6835	-76.48498	-94.38572	-88.69003	-54.51589	-32.5468	-9.76404	0
102	-52.88855	13.83239	66.72094	17.90074	-60.21158	40.6835	-73.2303	-93.57205	-89.5037	-56.14323	-33.36047	-9.76404	0
103	-51.26121	13.83239	65.0936	17.08707	-57.77057	39.05616	-68.34828	-91.94471	-89.5037	-58.58424	-34.17414	-11.39138	0
104	-49.63387	13.01872	61.83892	17.08707	-56.14323	37.42882	-63.46626	-91.13104	-90.31737	-61.02525	-35.80148	-12.20505	0
105	-48.00653	11.39138	59.39791	17.08707	-53.70222	35.80148	-59.39791	-90.31737	-90.31737	-63.46626	-38.24249	-14.64606	0
106	-47.19286	10.57771	57.77057	17.08707	-52.88855	34.17414	-56.14323	-90.31737	-91.13104	-65.90727	-41.49717	-18.71441	0
107	-46.37919	10.57771	56.9569	16.2734	-52.07488	34.17414	-53.70222	-91.13104	-92.75838	-69.16195	-45.56552	-22.78276	0
108	-45.56552	11.39138	56.9569	15.45973	-51.26121	34.17414	-52.07488	-91.13104	-94.38572	-73.2303	-49.63387	-28.47845	0
109	-44.75185	13.01872	57.77057	14.64606	-51.26121	35.80148	-49.63387	-91.13104	-94.38572	-78.11232	-54.51589	-34.17414	0
110	-43.93818	15.45973	58.58424	13.01872	-51.26121	37.42882	-47.19286	-89.5037	-93.57205	-82.18067	-58.58424	-39.05616	0
111	-42.31084	17.90074	60.21158	11.39138	-52.07488	39.05616	-43.93818	-87.06269	-91.13104	-85.43535	-60.21158	-43.12451	0
112	-40.6835	21.15542	61.83892	8.95037	-52.07488	41.49717	-39.86983	-83.80801	-87.06269	-87.87636	-60.21158	-44.75185	0
113	-39.86983	26.03744	65.90727	5.69569	-52.88855	46.37919	-34.98781	-78.92599	-81.367	-87.87636	-56.9569	-45.56552	0
114	-38.24249	33.36047	71.60296	1.62734	-55.32956	52.88855	-29.29212	-74.04397	-74.85764	-86.24902	-51.26121	-46.37919	0
115	-36.61515	43.12451	80.55333	-3.25468	-58.58424	61.83892	-22.78276	-68.34828	-68.34828	-82.18067	-43.12451	-45.56552	0
116	-34.98781	54.51589	89.5037	-9.76404	-62.65259	72.41663	-15.45973	-63.46626	-62.65259	-78.11232	-34.17414	-43.93818	0
117	-32.5468	65.90727	99.26774	-17.08707	-66.72094	82.99434	-8.1367	-59.39791	-57.77057	-74.04397	-25.22377	-42.31084	0
118	-30.91946	76.48498	107.40444	-22.78276	-69.16195	91.94471	-2.44101	-57.77057	-55.32956	-71.60296	-15.45973	-40.6835	0
119	-28.47845	84.62168	113.10013	-28.47845	-71.60296	98.45407	0.81367	-56.14323	-52.88855	-70.78929	-8.1367	-39.86983	0
120	-26.85111	89.5037	116.35481	-31.73313	-72.41663	103.33609	5.69569	-55.32956	-52.07488	-71.60296	-2.44101	-41.49717	0
121	-25.22377	91.94471	117.98215	-33.36047	-71.60296	104.96343	10.57771	-53.70222	-51.26121	-74.04397	0	-44.75185	0
122	-24.4101	92.75838	117.16848	-34.17414	-70.78929	104.96343	16.2734	-50.44754	-48.8202	-76.48498	0.81367	-50.44754	0
123	-22.78276	91.13104	114.72747	-34.98781	-69.16195	103.33609	23.59643	-45.56552	-46.37919	-79.73966	0	-56.9569	0
124	-21.96909	89.5037	111.47279	-34.17414	-66.72094	100.89508	30.10579	-40.6835	-42.31084	-82.99434	-1.62734	-62.65259	0
125	-20.34175	87.87636	108.21811	-34.17414	-64.27993	97.6404	36.61515	-35.80148	-38.24249	-84.62168	-2.44101	-66.72094	0
126	-17.90074	86.24902	104.14976	-34.17414	-61.02525	95.19939	40.6835	-31.73313	-34.98781	-87.06269	-3.25468	-69.16195	0
127	-14.64606	84.62168	100.08141	-35.80148	-57.77057	91.94471	42.31084	-29.29212	-33.36047	-87.87636	-3.25468	-69.16195	0
128	-10.57771	84.62168	95.19939	-37.42882	-53.70222	89.5037	39.05616	-29.29212	-32.5468	-87.87636	-2.44101	-65.90727	0
129	-5.69569	84.62168	90.31737	-39.86983	-48.8202	87.87636	30.91946	-31.73313	-34.17414	-87.87636	0	-61.02525	0
130	0	86.24902	86.24902	-43.12451	-43.12451	86.24902	18.71441	-38.24249	-37.42882	-87.06269	1.62734	-55.32956	0
131	4.88202	87.87636	82.18067	-47.19286	-38.24249	85.43535	1.62734	-47.19286	-43.12451	-86.24902	4.06835	-48.8202	0
132	10.57771	90.31737	78.92599	-51.26121	-34.17414	84.62168	-17.90074	-59.39791	-49.63387	-86.24902	5.69569	-42.31084	0
133	14.64606	91.94471	76.48498	-53.70222	-30.91946	83.80801	-39.86983	-73.2303	-57.77057	-86.24902	6.50936	-38.24249	0
134	17.08707	91.94471	74.04397	-55.32956	-28.47845	82.99434	-62.65259	-87.06269	-66.72094	-87.87636	6.50936	-34.98781	0
135	18.71441	91.94471	72.41663	-56.14323	-26.85111	82.18067	-84.62168	-102.52242	-76.48498	-91.13104	4.06835	-34.17414	0
136	19.52808	91.94471	71.60296	-56.14323	-26.03744	81.367	-104.96343	-117.16848	-87.87636	-96.01306	0	-34.98781	0
137	20.34175	91.13104	69.97562	-56.14323	-25.22377	80.55333	-122.86417	-132.62821	-101.70875	-103.33609	-7.32303	-39.05616	0
138	21.15542	90.31737	68.34828	-56.9569	-23.59643	79.73966	-139.95124	-148.90161	-117.16848	-113.9138	-17.90074	-44.75185	0
139	21.96909	89.5037	65.90727	-56.9569	-21.96909	77.29865	-153.78363	-165.17501	-134.25555	-126.93252	-30.10579	-52.07488	0
140	24.4101	86.24902	61.83892	-56.14323	-18.71441	74.04397	-165.98868	-179.82107	-150.52895	-139.95124	-43.12451	-60.21158	0
141	26.85111	82.18067	54.51589	-55.32956	-13.83239	68.34828	-174.12538	-192.02612	-165.17501	-152.15629	-55.32956	-66.72094	0
142	29.29212	74.85764	43.93818	-52.88855	-7.32303	59.39791	-178.19373	-199.34915	-175.75272	-161.10666	-65.0936	-71.60296	0
143	31.73313	65.0936	32.5468	-48.8202	-0.81367	48.8202	-178.19373	-201.79016	-181.44841	-167.61602	-72.41663	-75.67131	0
144	32.5468	55.32956	21.96909	-44.75185	4.88202	39.05616	-172.49804	-199.34915	-183.07575	-170.05703	-77.29865	-77.29865	0
145	31.73313	48.00653	14.64606	-40.6835	7.32303	31.73313	-163.54767	-192.83979	-179.82107	-168.42969	-79.73966	-78.11232	0
146	29.29212	43.93818	13.83239	-37.42882	7.32303	29.29212	-149.71528	-183.07575	-174.12538	-164.36134	-78.92599	-78.11232	0
147	24.4101	43.93818	18.71441	-34.98781	1.62734	30.91946	-134.25555	-171.68437	-165.98868	-157.85198	-76.48498	-76.48498	0
148	16.2734	45.56552	28.47845	-31.73313	-5.69569	36.61515	-116.35481	-159.47932	-157.85198	-150.52895	-73.2303	-74.85764	0
149	7.32303	48.00653	40.6835	-28.47845	-17.08707	43.93818	-99.26774	-147.27427	-148.90161	-143.20592	-69.97562	-73.2303	0
150	-2.44101	50.44754	52.88855	-24.4101	-28.47845	52.07488	-82.18067	-135.06922	-140.76491	-136.69656	-67.53461	-71.60296	0
151	-13.01872	51.26121	64.27993	-19.52808	-39.05616	57.77057	-65.90727	-124.49151	-133.44188	-131.00087	-64.27993	-69.97562	0
152	-22.78276	49.63387	72.41663	-13.83239	-48.00653	61.02525	-52.88855	-114.72747	-127.74619	-126.11885	-61.02525	-67.53461	0
153	-30.91946	45.56552	76.48498	-7.32303	-54.51589	61.02525	-42.31084	-107.40444	-122.0505	-121.23683	-57.77057	-65.90727	0
154	-38.24249	39.86983	77.29865	-1.62734	-57.77057	58.58424	-34.17414	-101.70875	-117.98215	-116.35481	-54.51589	-65.0936	0
155	-43.12451	32.5468	75.67131	4.06835	-60.21158	54.51589	-29.29212	-99.26774	-115.54114	-113.10013	-51.26121	-65.0936	0
156	-48.00653	25.22377	73.2303	9.76404	-61.02525	49.63387	-26.85111	-97.6404	-114.72747	-110.65912	-49.63387	-65.90727	0
157	-51.26121	17.90074	69.16195	15.45973	-61.02525	43.93818	-26.03744	-97.6404	-114.72747	-108.21811	-48.00653	-65.90727	0
158	-55.32956	10.57771	65.90727	21.15542	-61.02525	38.24249	-25.22377	-97.6404	-115.54114	-105.7771	-46.37919	-65.90727	0
159	-57.77057	3.25468	61.02525	26.03744	-60.21158	31.73313	-24.4101	-96.82673	-116.35481	-104.14976	-46.37919	-65.0936	0
160	-60.21158	-4.06835	54.51589	30.91946	-57.77057	25.22377	-22.78276	-95.19939	-116.35481	-102.52242	-46.37919	-63.46626	0
161	-61.02525	-13.01872	47.19286	35.80148	-54.51589	17.08707	-20.34175	-93.57205	-116.35481	-101.70875	-47.19286	-61.83892	0
162	-61.02525	-21.15542	39.05616	40.6835	-50.44754	8.95037	-17.08707	-91.13104	-116.35481	-102.52242	-49.63387	-60.21158	0
163	-61.02525	-29.29212	31.73313	43.93818	-46.37919	0.81367	-15.45973	-89.5037	-117.16848	-103.33609	-52.88855	-59.39791	0
164	-61.83892	-34.98781	25.22377	47.19286	-43.93818	-4.06835	-13.83239	-88.69003	-117.16848	-105.7771	-57.77057	-61.02525	0
165	-61.83892	-39.05616	21.96909	49.63387	-42.31084	-8.1367	-14.64606	-89.5037	-118.79582	-108.21811	-63.46626	-64.27993	0
166	-61.83892	-40.6835	20.34175	50.44754	-41.49717	-9.76404	-15.45973	-91.13104	-122.0505	-111.47279	-70.78929	-69.16195	0
167	-62.65259	-39.86983	21.96909	50.44754	-42.31084	-8.95037	-18.71441	-95.19939	-126.11885	-115.54114	-78.92599	-75.67131	0
168	-62.65259	-36.61515	25.22377	48.8202	-43.93818	-5.69569	-22.78276	-99.26774	-131.81454	-119.60949	-87.06269	-82.18067	0
169	-62.65259	-31.73313	30.10579	46.37919	-46.37919	-0.81367	-26.85111	-104.14976	-136.69656	-123.67784	-93.57205	-89.5037	0
170	-62.65259	-26.85111	35.80148	43.93818	-49.63387	4.06835	-30.10579	-108.21811	-140.76491	-126.93252	-99.26774	-95.19939	0
171	-63.46626	-21.15542	41.49717	41.49717	-52.88855	8.95037	-30.91946	-110.65912	-143.20592	-127.74619	-102.52242	-99.26774	0
172	-64.27993	-17.08707	45.56552	39.86983	-55.32956	13.83239	-30.91946	-110.65912	-143.20592	-126.11885	-104.14976	-102.52242	0
173	-65.0936	-14.64606	48.8202	39.05616	-57.77057	16.2734	-30.10579	-109.03178	-140.76491	-122.86417	-104.14976	-103.33609	0
174	-65.90727	-14.64606	49.63387	39.05616	-57.77057	17.08707	-27.66478	-106.59077	-135.88289	-117.98215	-101.70875	-102.52242	0
175	-65.90727	-15.45973	48.8202	39.86983	-57.77057	16.2734	-23.59643	-101.70875	-131.00087	-113.10013	-99.26774	-99.26774	0
176	-65.90727	-17.90074	46.37919	41.49717	-56.14323	13.83239	-17.08707	-96.82673	-126.11885	-109.84545	-97.6404	-96.82673	0
177	-66.72094	-22.78276	43.12451	43.93818	-55.32956	9.76404	-8.1367	-89.5037	-121.23683	-107.40444	-97.6404	-94.38572	0
178	-69.97562	-30.10579	39.05616	48.8202	-54.51589	4.06835	4.06835	-80.55333	-117.98215	-109.03178	-100.89508	-95.19939	0
179	-75.67131	-40.6835	33.36047	57.77057	-55.32956	-3.25468	22.78276	-66.72094	-116.35481	-115.54114	-109.03178	-100.89508	0
180	-83.80801	-56.14323	26.03744	69.16195	-55.32956	-14.64606	48.8202	-48.00653	-114.72747	-126.93252	-123.67784	-113.10013	0
181	-93.57205	-78.11232	14.64606	85.43535	-54.51589	-31.73313	84.62168	-19.52808	-113.10013	-145.64693	-148.08794	-135.06922	0
182	-104.14976	-108.21811	-4.06835	105.7771	-50.44754	-56.14323	131.00087	20.34175	-109.84545	-170.8707	-181.44841	-166.80235	0
183	-113.10013	-148.08794	-34.98781	130.1872	-39.05616	-91.94471	187.95777	75.67131	-103.33609	-203.4175	-224.57292	-207.48585	0
184	-117.98215	-198.53548	-80.55333	157.85198	-18.71441	-139.13757	252.2377	145.64693	-91.94471	-240.03265	-273.39312	-253.86504	0
185	-114.72747	-256.30605	-141.57858	184.70309	12.20505	-199.34915	317.3313	227.01393	-73.2303	-274.20679	-322.21332	-301.87157	0
186	-100.08141	-318.95864	-218.06356	209.11319	57.77057	-268.5111	376.72921	318.14497	-43.93818	-301.0579	-363.71049	-344.99608	0
187	-72.41663	-379.98389	-307.56726	225.38659	116.35481	-343.36874	426.36308	418.22638	0	-313.26295	-392.18894	-378.35655	0
188	-28.47845	-435.31345	-406.02133	231.08228	187.95777	-420.66739	462.16456	526.44449	61.02525	-303.49891	-401.13931	-395.44362	0
189	30.91946	-480.87897	-512.6121	223.75925	270.95211	-496.3387	482.50631	641.98563	146.4606	-266.07009	-384.86591	-393.00261	0
190	108.21811	-513.42577	-621.64388	201.79016	364.52416	-567.94166	486.57466	760.78145	257.11972	-196.09447	-340.11406	-367.77884	0
191	198.53548	-532.14018	-731.48933	165.98868	464.60557	-632.22159	472.74227	878.7636	395.44362	-91.94471	-263.62908	-318.95864	0
192	299.43056	-536.20853	-836.45276	117.16848	567.94166	-686.73748	443.45015	991.86373	558.99129	47.19286	-156.22464	-244.101	0
193	409.27601	-525.63082	-935.7205	56.9569	672.09142	-730.67566	398.6983	1098.4545	747.76273	222.13191	-17.08707	-143.20592	0
194	522.37614	-499.59338	-1022.78319	-11.39138	772.17283	-761.59512	340.92773	1194.46756	958.50326	429.61776	152.15629	-18.71441	0
195	632.22159	-458.90988	-1091.94514	-87.06269	861.67653	-775.42751	273.39312	1272.57988	1181.44884	663.95472	346.62342	126.93252	0
196	731.48933	-403.58032	-1135.88332	-164.36134	933.27949	-769.73182	198.53548	1325.46843	1405.20809	912.93774	557.36395	286.41184	0
197	812.85633	-336.85938	-1150.52938	-238.40531	981.28602	-743.69438	119.60949	1344.18284	1611.88027	1161.10709	772.17283	449.95951	0
198	868.99956	-262.00174	-1131.81497	-304.31258	1000.00043	-697.31519	35.80148	1316.51806	1783.56464	1388.93469	973.14932	606.18415	0
199	896.66434	-183.07575	-1080.55376	-357.20113	988.60905	-632.22159	-54.51589	1232.71005	1897.47844	1576.07879	1144.83369	741.25337	0
200	893.40966	-104.14976	-998.37309	-394.62995	945.48454	-551.66826	-157.85198	1083.80844	1932.46625	1700.5703	1270.13887	847.03047	0
201	858.42185	-29.29212	-888.52764	-414.9717	873.06791	-458.90988	-273.39312	860.86286	1865.74531	1744.50848	1337.67348	916.19242	0
202	794.95559	39.86983	-754.27209	-418.22638	774.61384	-357.20113	-399.51197	567.94166	1686.73791	1695.68828	1338.48715	943.04353	0
203	705.45189	104.96343	-600.48846	-406.02133	652.56334	-247.35568	-526.44449	225.38659	1401.95341	1555.73704	1275.83456	930.02481	0
204	596.42011	165.17501	-432.05877	-381.61123	514.23944	-133.44188	-644.42664	-135.88289	1036.61558	1339.30082	1157.85241	881.20461	0
205	477.62429	218.06356	-259.56073	-348.25076	368.59251	-21.15542	-744.50805	-480.87897	637.91728	1077.29908	1000.8141	803.90596	0
206	357.20113	262.81541	-95.19939	-310.82194	226.20026	82.99434	-816.92468	-775.42751	251.42403	800.65128	824.24771	708.70657	0
207	244.91467	297.80322	52.07488	-271.76578	96.01306	174.12538	-859.23552	-999.18676	-84.62168	537.83587	644.42664	603.74314	0
208	145.64693	322.21332	175.75272	-235.15063	-15.45973	248.98302	-869.81323	-1143.20635	-349.8781	310.00827	476.81062	499.59338	0
209	62.65259	337.67305	274.20679	-200.97649	-105.7771	305.93992	-850.28515	-1209.92729	-537.0222	127.74619	331.97736	402.76665	0
210	-2.44101	343.36874	345.80975	-170.8707	-174.12538	344.18241	-805.5333	-1210.74096	-650.12233	-6.50936	213.99521	319.77231	0
211	-51.26121	341.7414	393.00261	-145.64693	-222.13191	366.96517	-742.06704	-1161.10709	-701.38354	-97.6404	123.67784	251.42403	0
212	-85.43535	334.41837	419.85372	-124.49151	-253.05137	376.72921	-666.39573	-1078.11275	-706.26556	-154.5973	58.58424	197.72181	0
213	-108.21811	322.21332	430.43143	-107.40444	-270.13844	376.72921	-587.46974	-978.03134	-681.85546	-186.33043	12.20505	156.22464	0
214	-122.0505	309.1946	431.2451	-93.57205	-276.6478	370.21985	-510.17109	-876.32259	-640.35829	-202.60383	-20.34175	123.67784	0
215	-129.37353	295.36221	424.73574	-83.80801	-277.46147	360.45581	-441.82281	-781.93687	-594.79277	-210.74053	-44.75185	96.82673	0
216	-132.62821	283.15716	415.78537	-75.67131	-275.02046	349.8781	-383.23857	-702.19721	-551.66826	-217.24989	-64.27993	74.04397	0
217	-134.25555	272.57945	406.835	-69.16195	-270.95211	340.11406	-336.04571	-639.54462	-515.86678	-223.75925	-80.55333	53.70222	0
218	-135.88289	262.81541	398.6983	-64.27993	-267.69743	331.16369	-297.80322	-590.72442	-489.01567	-231.08228	-95.19939	35.80148	0
219	-137.51023	254.67871	391.37527	-58.58424	-265.25642	323.02699	-267.69743	-554.92294	-470.30126	-239.21898	-107.40444	19.52808	0
220	-139.13757	245.72834	384.86591	-53.70222	-262.81541	315.70396	-243.28733	-528.07183	-457.28254	-246.54201	-117.98215	5.69569	0
221	-141.57858	236.77797	378.35655	-48.00653	-260.3744	308.38093	-222.94558	-506.10274	-445.89116	-252.2377	-124.49151	-4.88202	0
222	-144.01959	227.01393	371.03352	-42.31084	-257.93339	299.43056	-204.23117	-485.76099	-434.49978	-255.49238	-126.93252	-13.01872	0
223	-145.64693	215.62255	362.08315	-35.80148	-253.86504	288.85285	-187.1441	-465.41924	-419.85372	-256.30605	-126.93252	-20.34175	0
224	-147.27427	203.4175	350.69177	-28.47845	-249.79669	276.6478	-170.05703	-444.26382	-403.58032	-253.86504	-123.67784	-26.85111	1500	QRS+0
225	-148.90161	189.58511	337.67305	-21.15542	-244.101	263.62908	-152.96996	-421.48106	-384.86591	-249.79669	-119.60949	-34.98781	0
226	-149.71528	174.93905	324.65433	-13.01872	-237.59164	249.79669	-134.25555	-396.25729	-363.71049	-243.28733	-115.54114	-43.93818	0
227	-149.71528	161.10666	310.82194	-5.69569	-231.08228	235.9643	-115.54114	-370.21985	-341.7414	-235.15063	-109.84545	-53.70222	0
228	-149.71528	148.08794	297.80322	0	-224.57292	222.94558	-96.01306	-344.18241	-319.77231	-226.20026	-104.14976	-61.83892	0
229	-149.71528	135.88289	285.59817	5.69569	-218.06356	210.74053	-77.29865	-318.14497	-297.80322	-217.24989	-97.6404	-67.53461	0
230	-149.71528	125.30518	275.02046	10.57771	-212.36787	200.16282	-60.21158	-293.73487	-278.27514	-207.48585	-89.5037	-69.97562	0
231	-148.90161	117.16848	265.25642	14.64606	-207.48585	191.21245	-44.75185	-271.76578	-260.3744	-196.09447	-78.11232	-67.53461	0
232	-148.08794	109.84545	257.93339	17.90074	-203.4175	183.88942	-30.91946	-252.2377	-244.91467	-183.07575	-65.0936	-60.21158	0
233	-145.64693	105.7771	252.2377	18.71441	-199.34915	179.0074	-19.52808	-235.9643	-231.08228	-169.24336	-51.26121	-50.44754	0
234	-143.20592	103.33609	246.54201	18.71441	-196.09447	174.93905	-10.57771	-222.94558	-218.87723	-156.22464	-38.24249	-39.05616	0
235	-140.76491	100.89508	242.47366	18.71441	-192.02612	171.68437	-3.25468	-212.36787	-209.11319	-144.83326	-28.47845	-28.47845	0
236	-138.3239	99.26774	238.40531	17.90074	-188.77144	169.24336	0.81367	-205.04484	-203.4175	-136.69656	-21.96909	-20.34175	0
237	-136.69656	97.6404	234.33696	17.90074	-186.33043	165.98868	4.06835	-198.53548	-199.34915	-131.81454	-18.71441	-13.01872	0
238	-135.88289	95.19939	231.08228	18.71441	-183.88942	162.734	6.50936	-193.65346	-197.72181	-128.55986	-18.71441	-8.95037	0
239	-135.06922	91.94471	227.01393	20.34175	-181.44841	159.47932	8.95037	-189.58511	-196.90814	-126.11885	-19.52808	-5.69569	0
240	-135.06922	88.69003	223.75925	21.96909	-179.82107	156.22464	11.39138	-186.33043	-196.09447	-123.67784	-21.96909	-4.06835	0
241	-135.06922	85.43535	220.50457	23.59643	-178.19373	152.96996	13.83239	-181.44841	-195.2808	-121.23683	-24.4101	-4.06835	0
242	-135.06922	82.99434	218.06356	25.22377	-177.38006	150.52895	16.2734	-177.38006	-192.83979	-117.16848	-27.66478	-4.88202	0
243	-135.88289	80.55333	215.62255	26.85111	-175.75272	148.08794	18.71441	-172.49804	-189.58511	-112.28646	-30.91946	-5.69569	0
244	-135.88289	78.11232	213.18154	27.66478	-174.93905	145.64693	20.34175	-167.61602	-186.33043	-106.59077	-33.36047	-6.50936	0
245	-135.88289	75.67131	211.5542	29.29212	-174.12538	143.20592	22.78276	-163.54767	-182.26208	-100.89508	-35.80148	-6.50936	0
246	-135.88289	74.04397	209.92686	30.10579	-173.31171	141.57858	24.4101	-159.47932	-179.82107	-96.01306	-37.42882	-5.69569	0
247	-135.88289	72.41663	208.29952	30.10579	-172.49804	140.76491	25.22377	-155.41097	-177.38006	-91.13104	-38.24249	-3.25468	0
248	-135.06922	72.41663	206.67218	30.10579	-171.68437	139.95124	26.85111	-152.15629	-174.93905	-87.87636	-39.05616	0	0
249	-133.44188	72.41663	205.85851	29.29212	-170.05703	139.13757	29.29212	-148.08794	-172.49804	-83.80801	-39.86983	1.62734	0
250	-132.62821	72.41663	204.23117	28.47845	-169.24336	138.3239	31.73313	-144.01959	-170.05703	-80.55333	-40.6835	3.25468	0
251	-131.81454	72.41663	203.4175	28.47845	-167.61602	137.51023	34.17414	-139.95124	-167.61602	-77.29865	-42.31084	2.44101	0
252	-131.00087	72.41663	202.60383	27.66478	-167.61602	137.51023	35.80148	-135.88289	-164.36134	-74.04397	-44.75185	0.81367	0
253	-130.1872	73.2303	203.4175	27.66478	-167.61602	138.3239	37.42882	-131.00087	-161.10666	-69.97562	-46.37919	-1.62734	0
254	-130.1872	74.04397	204.23117	26.85111	-167.61602	139.13757	39.86983	-126.11885	-156.22464	-64.27993	-47.19286	-4.06835	0
255	-130.1872	75.67131	205.04484	26.03744	-167.61602	139.95124	43.12451	-120.42316	-150.52895	-56.9569	-47.19286	-4.06835	0
256	-128.55986	74.85764	204.23117	25.22377	-166.80235	139.13757	47.19286	-113.9138	-143.20592	-50.44754	-45.56552	-1.62734	0
257	-126.93252	73.2303	200.16282	25.22377	-164.36134	136.69656	52.88855	-106.59077	-135.88289	-43.12451	-43.12451	2.44101	0
258	-124.49151	69.97562	194.46713	26.03744	-159.47932	131.81454	58.58424	-99.26774	-128.55986	-36.61515	-40.6835	8.95037	0
259	-122.0505	65.0936	186.33043	26.85111	-154.5973	126.11885	64.27993	-91.13104	-121.23683	-30.10579	-37.42882	16.2734	0
260	-118.79582	60.21158	179.0074	28.47845	-148.90161	119.60949	69.97562	-82.99434	-113.9138	-23.59643	-33.36047	23.59643	0
261	-116.35481	55.32956	171.68437	29.29212	-144.01959	113.10013	76.48498	-73.2303	-105.7771	-17.90074	-30.10579	30.10579	0
262	-113.9138	51.26121	165.17501	30.10579	-139.95124	108.21811	82.99434	-62.65259	-96.82673	-13.01872	-26.85111	34.98781	0
263	-112.28646	48.8202	160.29299	30.10579	-136.69656	104.14976	89.5037	-51.26121	-87.06269	-8.95037	-24.4101	37.42882	0
264	-109.84545	46.37919	156.22464	30.10579	-133.44188	101.70875	96.82673	-38.24249	-76.48498	-4.88202	-22.78276	38.24249	0
265	-108.21811	44.75185	152.15629	30.10579	-131.00087	98.45407	104.14976	-25.22377	-66.72094	-2.44101	-20.34175	39.05616	0
266	-106.59077	42.31084	148.90161	30.91946	-127.74619	95.19939	112.28646	-12.20505	-56.9569	0	-17.90074	39.05616	0
267	-104.96343	40.6835	145.64693	30.91946	-125.30518	92.75838	119.60949	0.81367	-48.00653	3.25468	-13.83239	39.05616	0
268	-103.33609	39.05616	142.39225	30.91946	-123.67784	91.13104	126.93252	13.83239	-39.05616	7.32303	-8.95037	39.86983	0
269	-100.89508	39.05616	139.95124	30.10579	-121.23683	89.5037	135.06922	28.47845	-30.10579	10.57771	-4.06835	40.6835	0
270	-98.45407	39.05616	137.51023	28.47845	-118.79582	87.87636	143.20592	43.93818	-21.15542	13.83239	0	41.49717	0
271	-96.01306	39.05616	135.06922	26.85111	-115.54114	87.06269	152.15629	61.02525	-11.39138	16.2734	3.25468	41.49717	0
272	-91.94471	39.05616	131.81454	25.22377	-112.28646	85.43535	161.10666	79.73966	-0.81367	19.52808	5.69569	41.49717	0
273	-88.69003	39.05616	127.74619	23.59643	-108.21811	82.99434	170.05703	98.45407	10.57771	22.78276	8.95037	40.6835	0
274	-84.62168	38.24249	122.86417	21.96909	-104.14976	80.55333	179.0074	117.98215	23.59643	26.85111	10.57771	38.24249	0
275	-80.55333	36.61515	117.98215	20.34175	-99.26774	77.29865	188.77144	137.51023	36.61515	30.10579	11.39138	35.80148	0
276	-76.48498	34.17414	111.47279	19.52808	-94.38572	72.41663	199.34915	157.85198	49.63387	34.17414	11.39138	33.36047	0
277	-72.41663	30.91946	103.33609	19.52808	-87.87636	66.72094	210.74053	178.19373	63.46626	39.05616	12.20505	30.91946	0
278	-67.53461	25.22377	93.57205	19.52808	-80.55333	59.39791	222.13191	199.34915	78.11232	44.75185	14.64606	30.10579	0
279	-62.65259	19.52808	82.18067	20.34175	-72.41663	50.44754	234.33696	221.31824	92.75838	52.07488	18.71441	30.10579	0
280	-57.77057	13.01872	70.78929	21.15542	-64.27993	41.49717	245.72834	244.101	108.21811	61.02525	23.59643	31.73313	0
281	-52.07488	6.50936	58.58424	21.15542	-55.32956	32.5468	257.11972	266.07009	123.67784	69.16195	28.47845	33.36047	0
282	-46.37919	0.81367	47.19286	21.96909	-47.19286	24.4101	266.88376	289.66652	140.76491	77.29865	32.5468	34.17414	0
283	-39.86983	-4.06835	35.80148	21.15542	-38.24249	15.45973	275.83413	312.44928	157.85198	85.43535	35.80148	34.17414	0
284	-33.36047	-8.95037	23.59643	20.34175	-29.29212	7.32303	283.97083	336.04571	174.93905	92.75838	37.42882	34.17414	0
285	-26.03744	-13.83239	11.39138	19.52808	-19.52808	-0.81367	291.29386	358.82847	192.83979	100.08141	39.86983	33.36047	0
286	-17.90074	-18.71441	-0.81367	17.90074	-8.95037	-9.76404	297.80322	380.79756	209.11319	107.40444	43.12451	33.36047	0
287	-9.76404	-23.59643	-13.01872	16.2734	0.81367	-18.71441	303.49891	401.95298	225.38659	114.72747	46.37919	34.17414	0
288	-1.62734	-27.66478	-25.22377	13.83239	10.57771	-26.85111	308.38093	421.48106	241.65999	122.0505	50.44754	34.98781	0
289	4.88202	-31.73313	-38.24249	12.20505	21.15542	-34.98781	313.26295	440.19547	256.30605	127.74619	52.88855	36.61515	0
290	12.20505	-37.42882	-51.26121	11.39138	30.91946	-44.75185	317.3313	458.09621	270.13844	131.81454	53.70222	37.42882	0
291	19.52808	-44.75185	-65.0936	11.39138	42.31084	-55.32956	322.21332	475.18328	283.15716	135.06922	52.88855	38.24249	0
292	26.85111	-53.70222	-80.55333	12.20505	53.70222	-67.53461	326.28167	490.64301	296.17588	136.69656	51.26121	37.42882	0
293	33.36047	-62.65259	-97.6404	13.01872	65.0936	-80.55333	328.72268	505.28907	307.56726	138.3239	48.8202	36.61515	0
294	40.6835	-72.41663	-113.9138	14.64606	77.29865	-92.75838	330.35002	518.30779	318.95864	140.76491	46.37919	34.98781	0
295	48.00653	-80.55333	-129.37353	15.45973	87.87636	-104.96343	330.35002	528.8855	328.72268	143.20592	44.75185	32.5468	0
296	54.51589	-87.87636	-143.20592	15.45973	98.45407	-115.54114	328.72268	537.83587	337.67305	144.83326	43.12451	30.91946	0
297	60.21158	-94.38572	-156.22464	16.2734	108.21811	-125.30518	325.468	545.1589	344.18241	145.64693	41.49717	28.47845	0
298	65.90727	-100.89508	-167.61602	16.2734	116.35481	-134.25555	322.21332	550.04092	349.06443	144.01959	38.24249	25.22377	0
299	71.60296	-106.59077	-179.0074	16.2734	125.30518	-143.20592	316.51763	552.48193	351.50544	140.76491	33.36047	21.96909	0
300	76.48498	-113.10013	-190.39878	16.2734	133.44188	-151.34262	310.82194	553.2956	352.31911	135.06922	27.66478	17.08707	0
301	81.367	-117.98215	-200.97649	17.08707	140.76491	-159.47932	304.31258	551.66826	351.50544	127.74619	20.34175	12.20505	0
302	86.24902	-122.86417	-209.92686	17.08707	148.08794	-166.80235	296.17588	549.22725	349.06443	120.42316	13.01872	6.50936	0
303	91.13104	-126.93252	-218.87723	16.2734	154.5973	-172.49804	288.85285	545.97257	347.43709	113.10013	5.69569	0	0
304	96.01306	-130.1872	-227.01393	16.2734	161.10666	-179.0074	280.71615	541.90422	344.18241	106.59077	0	-4.06835	0
305	100.08141	-135.06922	-235.15063	16.2734	166.80235	-184.70309	273.39312	536.20853	341.7414	100.08141	-4.06835	-8.95037	0
306	103.33609	-139.95124	-243.28733	17.08707	172.49804	-191.21245	265.25642	530.51284	336.85938	93.57205	-7.32303	-13.83239	0
307	105.7771	-145.64693	-251.42403	18.71441	178.19373	-198.53548	257.93339	522.37614	331.16369	87.06269	-10.57771	-17.08707	0
308	107.40444	-152.15629	-260.3744	21.15542	183.07575	-205.85851	249.79669	513.42577	324.65433	79.73966	-13.01872	-20.34175	0
309	109.03178	-157.85198	-267.69743	22.78276	187.95777	-212.36787	240.84632	502.84806	316.51763	71.60296	-16.2734	-23.59643	0
310	110.65912	-162.734	-274.20679	25.22377	192.02612	-218.87723	231.08228	490.64301	306.75359	62.65259	-19.52808	-26.85111	0
311	111.47279	-166.80235	-279.90248	26.03744	195.2808	-222.94558	222.13191	476.81062	296.17588	53.70222	-24.4101	-30.91946	0
312	113.10013	-169.24336	-282.34349	26.85111	196.90814	-225.38659	211.5542	462.97823	284.7845	43.93818	-28.47845	-35.80148	0
313	113.10013	-170.05703	-283.15716	26.85111	197.72181	-226.20026	201.79016	446.70483	272.57945	34.17414	-33.36047	-40.6835	0
314	111.47279	-170.05703	-282.34349	27.66478	196.90814	-226.20026	192.02612	429.61776	258.74706	24.4101	-38.24249	-45.56552	-1500	QRS-0
315	109.84545	-170.05703	-279.90248	28.47845	194.46713	-225.38659	182.26208	411.71702	244.101	14.64606	-43.93818	-51.26121	0
316	106.59077	-170.05703	-277.46147	30.10579	191.21245	-223.75925	173.31171	392.18894	227.8276	3.25468	-50.44754	-57.77057	0
317	102.52242	-170.05703	-274.20679	32.5468	187.95777	-222.13191	164.36134	372.66086	209.92686	-8.1367	-57.77057	-64.27993	0
318	98.45407	-170.8707	-270.13844	34.98781	183.88942	-220.50457	155.41097	352.31911	192.02612	-20.34175	-65.90727	-71.60296	0
319	92.75838	-170.8707	-264.44275	37.42882	178.19373	-218.06356	146.4606	331.16369	174.12538	-32.5468	-74.04397	-78.11232	0
320	87.06269	-170.05703	-257.93339	39.86983	171.68437	-213.99521	136.69656	310.00827	155.41097	-44.75185	-81.367	-84.62168	0
321	80.55333	-167.61602	-248.98302	41.49717	164.36134	-208.29952	127.74619	288.03918	137.51023	-56.14323	-88.69003	-89.5037	0
322	74.04397	-162.734	-237.59164	43.12451	155.41097	-200.16282	117.98215	266.88376	119.60949	-65.90727	-93.57205	-93.57205	0
323	66.72094	-157.85198	-225.38659	43.93818	145.64693	-191.21245	109.03178	244.91467	102.52242	-74.04397	-96.82673	-96.82673	0
324	60.21158	-151.34262	-212.36787	43.93818	135.88289	-181.44841	99.26774	223.75925	86.24902	-80.55333	-99.26774	-99.26774	0
325	53.70222	-144.83326	-199.34915	43.93818	126.11885	-171.68437	90.31737	202.60383	69.97562	-86.24902	-100.08141	-100.89508	0
326	48.00653	-137.51023	-186.33043	43.93818	117.16848	-161.92033	82.18067	182.26208	55.32956	-91.13104	-100.89508	-102.52242	0
327	42.31084	-131.00087	-174.12538	43.12451	108.21811	-152.15629	74.04397	162.734	40.6835	-95.19939	-101.70875	-103.33609	0
328	37.42882	-123.67784	-161.92033	42.31084	99.26774	-142.39225	65.90727	144.01959	26.85111	-100.08141	-102.52242	-103.33609	0
329	32.5468	-117.16848	-149.71528	40.6835	91.13104	-133.44188	58.58424	125.30518	13.01872	-104.96343	-103.33609	-102.52242	0
330	27.66478	-109.84545	-138.3239	39.86983	82.18067	-124.49151	51.26121	107.40444	0.81367	-109.84545	-104.14976	-100.89508	0
331	22.78276	-103.33609	-126.93252	39.05616	74.85764	-115.54114	43.93818	91.13104	-9.76404	-113.9138	-104.14976	-97.6404	0
332	18.71441	-96.82673	-116.35481	37.42882	67.53461	-106.59077	38.24249	75.67131	-20.34175	-117.16848	-103.33609	-94.38572	0
333	15.45973	-90.31737	-106.59077	35.80148	61.02525	-98.45407	32.5468	61.02525	-30.10579	-119.60949	-102.52242	-91.13104	0
334	12.20505	-83.80801	-96.82673	34.98781	54.51589	-91.13104	26.85111	47.19286	-39.05616	-122.0505	-101.70875	-88.69003	0
335	8.1367	-78.11232	-87.87636	33.36047	48.00653	-82.99434	21.96909	34.17414	-48.00653	-124.49151	-101.70875	-86.24902	0
336	4.06835	-73.2303	-78.11232	33.36047	40.6835	-75.67131	16.2734	21.96909	-56.14323	-126.11885	-100.89508	-85.43535	0
337	0	-66.72094	-67.53461	32.5468	33.36047	-67.53461	12.20505	10.57771	-64.27993	-127.74619	-100.08141	-84.62168	0
338	-4.06835	-61.02525	-56.14323	31.73313	25.22377	-58.58424	7.32303	0	-71.60296	-127.74619	-98.45407	-82.99434	0
339	-8.95037	-54.51589	-45.56552	30.91946	17.90074	-50.44754	4.06835	-8.95037	-78.11232	-127.74619	-96.01306	-80.55333	0
340	-13.01872	-48.8202	-35.80148	30.10579	10.57771	-43.12451	0.81367	-17.90074	-82.99434	-126.11885	-93.57205	-77.29865	0
341	-17.08707	-44.75185	-27.66478	30.10579	4.88202	-36.61515	-0.81367	-26.03744	-87.87636	-124.49151	-90.31737	-72.41663	0
342	-19.52808	-41.49717	-21.15542	29.29212	0	-30.91946	-4.06835	-34.17414	-92.75838	-122.86417	-86.24902	-66.72094	0
343	-21.96909	-38.24249	-15.45973	29.29212	-3.25468	-26.85111	-7.32303	-41.49717	-96.01306	-120.42316	-82.99434	-60.21158	0
344	-24.4101	-35.80148	-11.39138	29.29212	-6.50936	-23.59643	-10.57771	-48.00653	-100.08141	-118.79582	-79.73966	-55.32956	0
345	-26.03744	-33.36047	-6.50936	29.29212	-9.76404	-20.34175	-13.01872	-54.51589	-104.14976	-117.16848	-77.29865	-50.44754	0
346	-28.47845	-30.91946	-2.44101	29.29212	-13.01872	-17.08707	-15.45973	-60.21158	-107.40444	-115.54114	-74.85764	-47.19286	0
347	-30.91946	-29.29212	0.81367	28.47845	-16.2734	-13.83239	-17.90074	-65.0936	-109.84545	-114.72747	-73.2303	-44.75185	0
348	-32.5468	-26.85111	4.88202	28.47845	-18.71441	-10.57771	-19.52808	-69.97562	-113.10013	-113.9138	-72.41663	-43.93818	0
349	-33.36047	-24.4101	8.1367	27.66478	-21.15542	-8.1367	-21.96909	-73.2303	-114.72747	-113.10013	-72.41663	-43.12451	0
350	-33.36047	-22.78276	10.57771	26.85111	-21.96909	-5.69569	-23.59643	-77.29865	-117.16848	-113.10013	-72.41663	-43.12451	0
351	-34.17414	-21.15542	12.20505	26.03744	-22.78276	-4.06835	-25.22377	-81.367	-118.79582	-113.10013	-72.41663	-43.93818	0
352	-34.17414	-19.52808	13.83239	26.03744	-23.59643	-2.44101	-26.85111	-84.62168	-120.42316	-112.28646	-72.41663	-44.75185	0
353	-34.17414	-18.71441	14.64606	25.22377	-24.4101	-1.62734	-28.47845	-87.06269	-121.23683	-111.47279	-72.41663	-45.56552	0
354	-34.98781	-17.90074	16.2734	25.22377	-26.03744	0	-29.29212	-89.5037	-121.23683	-110.65912	-71.60296	-45.56552	0
355	-34.98781	-17.08707	17.90074	25.22377	-26.85111	0	-30.10579	-91.13104	-120.42316	-109.03178	-70.78929	-46.37919	0
356	-36.61515	-15.45973	20.34175	25.22377	-28.47845	1.62734	-30.10579	-92.75838	-120.42316	-107.40444	-69.16195	-45.56552	0
357	-37.42882	-13.83239	22.78276	25.22377	-30.10579	4.06835	-30.10579	-94.38572	-120.42316	-107.40444	-67.53461	-44.75185	0
358	-38.24249	-12.20505	25.22377	24.4101	-31.73313	6.50936	-30.10579	-96.01306	-121.23683	-107.40444	-67.53461	-44.75185	0
359	-38.24249	-8.95037	28.47845	22.78276	-34.17414	8.95037	-30.91946	-98.45407	-122.86417	-108.21811	-67.53461	-44.75185	0
360	-39.05616	-5.69569	32.5468	21.15542	-35.80148	13.01872	-31.73313	-100.08141	-123.67784	-109.84545	-68.34828	-45.56552	0
361	-39.05616	-2.44101	35.80148	19.52808	-37.42882	16.2734	-31.73313	-101.70875	-124.49151	-110.65912	-69.16195	-45.56552	0
362	-39.05616	0	39.05616	18.71441	-39.05616	18.71441	-32.5468	-102.52242	-125.30518	-110.65912	-69.16195	-45.56552	0
363	-39.05616	1.62734	40.6835	17.90074	-40.6835	21.15542	-31.73313	-103.33609	-125.30518	-110.65912	-67.53461	-45.56552	0
364	-39.86983	2.44101	42.31084	17.08707	-41.49717	21.96909	-30.91946	-103.33609	-125.30518	-109.84545	-66.72094	-43.12451	0
365	-39.86983	2.44101	42.31084	17.08707	-41.49717	21.96909	-30.10579	-104.14976	-124.49151	-108.21811	-64.27993	-40.6835	0
366	-39.86983	1.62734	41.49717	17.90074	-40.6835	21.15542	-29.29212	-104.14976	-125.30518	-107.40444	-61.83892	-38.24249	0
367	-40.6835	0	39.86983	18.71441	-40.6835	19.52808	-28.47845	-104.14976	-126.11885	-106.59077	-59.39791	-34.17414	0
368	-40.6835	-1.62734	38.24249	20.34175	-39.86983	17.90074	-26.85111	-104.14976	-126.11885	-104.96343	-56.14323	-30.10579	0
369	-42.31084	-4.06835	37.42882	21.96909	-39.86983	16.2734	-26.03744	-104.14976	-126.93252	-102.52242	-52.88855	-26.85111	0
370	-43.93818	-5.69569	37.42882	23.59643	-40.6835	15.45973	-25.22377	-103.33609	-128.55986	-100.89508	-49.63387	-23.59643	0
371	-45.56552	-6.50936	38.24249	25.22377	-42.31084	15.45973	-24.4101	-103.33609	-129.37353	-98.45407	-46.37919	-21.96909	0
372	-48.00653	-6.50936	40.6835	26.03744	-44.75185	16.2734	-23.59643	-103.33609	-130.1872	-96.01306	-45.56552	-21.15542	0
373	-49.63387	-4.88202	43.93818	26.03744	-47.19286	18.71441	-22.78276	-103.33609	-131.81454	-93.57205	-44.75185	-21.96909	0
374	-51.26121	-2.44101	48.00653	26.03744	-49.63387	21.96909	-22.78276	-103.33609	-133.44188	-91.13104	-47.19286	-23.59643	0
375	-52.07488	0	51.26121	25.22377	-52.07488	25.22377	-22.78276	-104.14976	-135.06922	-88.69003	-52.07488	-26.03744	0
376	-51.26121	3.25468	54.51589	22.78276	-52.88855	28.47845	-23.59643	-104.14976	-136.69656	-87.06269	-61.83892	-27.66478	0
377	-49.63387	5.69569	55.32956	21.15542	-52.88855	30.10579	-22.78276	-104.96343	-139.13757	-84.62168	-74.85764	-29.29212	0
378	-47.19286	8.1367	55.32956	18.71441	-52.07488	31.73313	-22.78276	-104.14976	-139.95124	-83.80801	-87.87636	-29.29212	0
379	-45.56552	8.95037	54.51589	17.08707	-50.44754	31.73313	-22.78276	-104.14976	-141.57858	-82.18067	-99.26774	-29.29212	0
380	-43.93818	9.76404	53.70222	16.2734	-49.63387	31.73313	-22.78276	-104.14976	-142.39225	-80.55333	-107.40444	-27.66478	0
381	-43.93818	8.95037	52.88855	16.2734	-48.8202	30.91946	-21.96909	-104.14976	-142.39225	-78.92599	-110.65912	-26.03744	0
382	-44.75185	8.1367	52.88855	17.08707	-48.8202	30.91946	-21.96909	-104.14976	-142.39225	-77.29865	-109.84545	-24.4101	0
383	-45.56552	7.32303	52.88855	17.90074	-49.63387	30.10579	-21.15542	-104.96343	-143.20592	-74.85764	-106.59077	-22.78276	0
384	-46.37919	5.69569	52.07488	19.52808	-49.63387	29.29212	-21.15542	-104.96343	-143.20592	-73.2303	-101.70875	-21.96909	0
385	-47.19286	4.06835	51.26121	20.34175	-49.63387	27.66478	-21.15542	-105.7771	-143.20592	-71.60296	-96.01306	-20.34175	0
386	-48.00653	2.44101	51.26121	21.96909	-49.63387	26.85111	-20.34175	-106.59077	-144.01959	-69.97562	-89.5037	-20.34175	0
387	-49.63387	1.62734	50.44754	22.78276	-50.44754	26.03744	-19.52808	-106.59077	-144.01959	-68.34828	-83.80801	-19.52808	0
388	-49.63387	1.62734	51.26121	22.78276	-51.26121	26.03744	-18.71441	-107.40444	-144.01959	-66.72094	-78.11232	-19.52808	0
389	-50.44754	2.44101	52.88855	22.78276	-52.07488	27.66478	-17.90074	-107.40444	-143.20592	-64.27993	-72.41663	-18.71441	0
390	-51.26121	4.06835	55.32956	22.78276	-53.70222	30.10579	-17.90074	-107.40444	-142.39225	-61.02525	-68.34828	-17.90074	0
391	-52.07488	5.69569	57.77057	21.96909	-55.32956	31.73313	-17.90074	-107.40444	-140.76491	-58.58424	-65.0936	-17.90074	0
392	-52.88855	6.50936	59.39791	21.96909	-56.14323	32.5468	-17.08707	-106.59077	-139.13757	-56.9569	-63.46626	-18.71441	0
393	-52.88855	6.50936	59.39791	21.96909	-56.9569	32.5468	-17.08707	-105.7771	-138.3239	-55.32956	-62.65259	-19.52808	0
394	-52.88855	5.69569	59.39791	22.78276	-56.9569	32.5468	-16.2734	-104.96343	-137.51023	-53.70222	-62.65259	-19.52808	0
395	-53.70222	4.88202	58.58424	22.78276	-56.14323	31.73313	-15.45973	-104.14976	-136.69656	-52.07488	-62.65259	-20.34175	0
396	-53.70222	4.88202	58.58424	22.78276	-56.14323	31.73313	-14.64606	-103.33609	-135.88289	-49.63387	-61.83892	-19.52808	0
397	-53.70222	4.88202	58.58424	22.78276	-56.14323	31.73313	-13.83239	-102.52242	-135.88289	-47.19286	-61.02525	-18.71441	0
398	-52.88855	4.88202	57.77057	22.78276	-55.32956	30.91946	-13.83239	-101.70875	-135.06922	-44.75185	-60.21158	-16.2734	0
399	-52.07488	4.06835	56.14323	22.78276	-54.51589	30.10579	-13.83239	-101.70875	-135.06922	-43.12451	-58.58424	-14.64606	0
400	-52.07488	3.25468	55.32956	23.59643	-53.70222	29.29212	-14.64606	-101.70875	-133.44188	-41.49717	-56.9569	-12.20505	0
401	-52.07488	2.44101	54.51589	23.59643	-53.70222	28.47845	-15.45973	-101.70875	-131.81454	-39.05616	-55.32956	-9.76404	0
402	-52.07488	3.25468	54.51589	22.78276	-53.70222	28.47845	-16.2734	-102.52242	-129.37353	-35.80148	-52.88855	-8.1367	0
403	-52.07488	4.06835	56.14323	22.78276	-54.51589	30.10579	-16.2734	-102.52242	-127.74619	-32.5468	-52.07488	-5.69569	0
404	-51.26121	5.69569	56.9569	21.15542	-54.51589	30.91946	-16.2734	-102.52242	-125.30518	-29.29212	-51.26121	-3.25468	0
405	-50.44754	8.1367	58.58424	19.52808	-54.51589	33.36047	-15.45973	-101.70875	-123.67784	-26.85111	-51.26121	-0.81367	0
406	-48.8202	11.39138	60.21158	17.08707	-54.51589	35.80148	-13.01872	-99.26774	-122.0505	-24.4101	-50.44754	1.62734	0
407	-47.19286	16.2734	63.46626	13.83239	-55.32956	39.86983	-9.76404	-96.01306	-119.60949	-20.34175	-48.00653	4.88202	0
408	-44.75185	21.96909	67.53461	9.76404	-56.9569	44.75185	-5.69569	-91.94471	-116.35481	-15.45973	-44.75185	9.76404	0
409	-43.12451	30.10579	72.41663	4.88202	-58.58424	51.26121	-0.81367	-87.06269	-111.47279	-9.76404	-39.86983	15.45973	0
410	-39.86983	38.24249	78.92599	0	-60.21158	58.58424	3.25468	-82.18067	-106.59077	-2.44101	-34.98781	20.34175	0
411	-37.42882	48.00653	85.43535	-5.69569	-61.83892	66.72094	8.1367	-77.29865	-102.52242	3.25468	-30.91946	26.03744	0
412	-34.98781	56.9569	91.94471	-11.39138	-63.46626	74.04397	13.01872	-74.04397	-99.26774	8.95037	-26.85111	30.91946	0
413	-31.73313	65.0936	96.82673	-17.08707	-65.0936	81.367	16.2734	-70.78929	-96.82673	14.64606	-23.59643	35.80148	0
414	-29.29212	70.78929	100.08141	-21.15542	-65.0936	86.24902	19.52808	-68.34828	-94.38572	19.52808	-20.34175	39.86983	0
415	-26.85111	75.67131	101.70875	-25.22377	-64.27993	88.69003	22.78276	-65.90727	-92.75838	23.59643	-17.08707	43.93818	0
416	-24.4101	78.11232	102.52242	-26.85111	-63.46626	90.31737	26.85111	-63.46626	-91.13104	27.66478	-13.83239	47.19286	0
417	-22.78276	78.92599	101.70875	-28.47845	-62.65259	91.13104	32.5468	-59.39791	-88.69003	31.73313	-10.57771	50.44754	0
418	-21.96909	79.73966	101.70875	-29.29212	-61.83892	91.13104	39.05616	-55.32956	-85.43535	34.98781	-6.50936	52.07488	0
419	-21.15542	81.367	102.52242	-30.91946	-61.83892	91.94471	45.56552	-50.44754	-81.367	37.42882	-4.06835	52.88855	0
420	-19.52808	82.99434	103.33609	-32.5468	-61.83892	93.57205	51.26121	-47.19286	-77.29865	39.05616	-2.44101	52.88855	0
421	-17.90074	85.43535	103.33609	-34.17414	-61.02525	94.38572	53.70222	-44.75185	-74.85764	39.05616	-1.62734	52.88855	0
422	-14.64606	87.87636	103.33609	-37.42882	-59.39791	95.19939	53.70222	-43.93818	-73.2303	37.42882	-2.44101	52.07488	0
423	-11.39138	90.31737	101.70875	-39.86983	-56.9569	96.01306	49.63387	-46.37919	-74.04397	34.98781	-2.44101	52.88855	0
424	-7.32303	91.94471	99.26774	-43.12451	-53.70222	95.19939	40.6835	-51.26121	-77.29865	31.73313	-3.25468	53.70222	0
425	-2.44101	92.75838	96.01306	-45.56552	-49.63387	94.38572	26.85111	-59.39791	-82.18067	28.47845	-3.25468	54.51589	0
426	0.81367	94.38572	92.75838	-48.8202	-46.37919	93.57205	8.1367	-71.60296	-89.5037	24.4101	-2.44101	56.14323	0
427	4.88202	96.82673	90.31737	-51.26121	-43.12451	93.57205	-12.20505	-84.62168	-96.82673	21.96909	-0.81367	57.77057	0
428	9.76404	99.26774	88.69003	-55.32956	-39.86983	93.57205	-34.17414	-99.26774	-104.96343	19.52808	0	59.39791	0
429	13.83239	100.89508	86.24902	-57.77057	-35.80148	93.57205	-56.9569	-113.9138	-113.10013	16.2734	0	59.39791	0
430	17.90074	100.89508	82.99434	-60.21158	-32.5468	91.94471	-78.11232	-127.74619	-121.23683	11.39138	-0.81367	57.77057	0
431	20.34175	100.08141	78.92599	-60.21158	-29.29212	89.5037	-98.45407	-142.39225	-131.00087	4.88202	-4.88202	54.51589	0
432	20.34175	96.01306	74.85764	-59.39791	-26.85111	85.43535	-117.16848	-157.03831	-142.39225	-3.25468	-12.20505	48.8202	0
433	20.34175	90.31737	69.16195	-56.14323	-24.4101	79.73966	-133.44188	-172.49804	-156.22464	-13.83239	-20.34175	42.31084	0
434	20.34175	83.80801	62.65259	-52.88855	-21.15542	73.2303	-146.4606	-187.1441	-170.05703	-25.22377	-30.10579	35.80148	0
435	21.15542	75.67131	53.70222	-48.8202	-17.08707	65.0936	-157.03831	-200.16282	-183.88942	-36.61515	-39.05616	29.29212	0
436	21.96909	65.90727	43.12451	-44.75185	-10.57771	54.51589	-163.54767	-209.92686	-196.09447	-46.37919	-47.19286	24.4101	-1250	T-0
437	22.78276	54.51589	30.91946	-39.86983	-4.06835	43.12451	-165.98868	-215.62255	-204.23117	-55.32956	-54.51589	19.52808	0
438	24.4101	43.93818	18.71441	-34.98781	1.62734	30.91946	-165.17501	-217.24989	-208.29952	-61.02525	-59.39791	16.2734	0
439	24.4101	34.98781	9.76404	-30.91946	6.50936	21.96909	-159.47932	-213.99521	-208.29952	-63.46626	-61.02525	15.45973	0
440	24.4101	30.10579	5.69569	-28.47845	8.95037	17.90074	-149.71528	-207.48585	-203.4175	-61.83892	-59.39791	16.2734	0
441	21.96909	29.29212	6.50936	-26.85111	7.32303	17.90074	-137.51023	-196.90814	-196.09447	-57.77057	-55.32956	19.52808	0
442	18.71441	31.73313	13.01872	-26.03744	1.62734	21.96909	-122.86417	-185.51676	-187.1441	-52.07488	-50.44754	23.59643	0
443	13.01872	36.61515	22.78276	-25.22377	-4.88202	29.29212	-106.59077	-173.31171	-178.19373	-46.37919	-44.75185	28.47845	0
444	5.69569	41.49717	34.98781	-24.4101	-14.64606	38.24249	-90.31737	-161.10666	-170.8707	-40.6835	-39.05616	31.73313	0
445	-1.62734	45.56552	47.19286	-21.96909	-25.22377	46.37919	-74.04397	-149.71528	-164.36134	-36.61515	-35.80148	33.36047	0
446	-11.39138	48.00653	58.58424	-18.71441	-34.98781	52.88855	-59.39791	-139.95124	-159.47932	-34.98781	-34.17414	32.5468	0
447	-20.34175	47.19286	67.53461	-13.83239	-44.75185	56.9569	-46.37919	-131.00087	-155.41097	-34.98781	-35.80148	30.10579	0
448	-29.29212	43.93818	72.41663	-7.32303	-51.26121	58.58424	-36.61515	-123.67784	-152.96996	-36.61515	-38.24249	26.03744	0
449	-37.42882	37.42882	74.04397	0	-56.14323	56.14323	-29.29212	-117.98215	-150.52895	-39.86983	-42.31084	21.15542	0
450	-43.93818	28.47845	72.41663	6.50936	-58.58424	50.44754	-23.59643	-113.10013	-149.71528	-42.31084	-46.37919	16.2734	0
451	-49.63387	17.90074	67.53461	14.64606	-59.39791	43.12451	-20.34175	-109.84545	-148.90161	-45.56552	-49.63387	11.39138	0
452	-54.51589	8.1367	61.83892	21.96909	-58.58424	34.98781	-18.71441	-108.21811	-148.90161	-48.8202	-52.07488	8.1367	0
453	-57.77057	-0.81367	55.32956	28.47845	-56.9569	26.85111	-18.71441	-108.21811	-150.52895	-52.07488	-54.51589	4.88202	0
454	-60.21158	-8.95037	49.63387	33.36047	-55.32956	20.34175	-18.71441	-109.03178	-152.15629	-55.32956	-56.9569	1.62734	0
455	-61.02525	-15.45973	44.75185	37.42882	-53.70222	14.64606	-18.71441	-110.65912	-154.5973	-60.21158	-59.39791	-0.81367	0
456	-61.83892	-19.52808	41.49717	39.86983	-52.07488	10.57771	-20.34175	-113.10013	-157.85198	-64.27993	-62.65259	-5.69569	0
457	-62.65259	-22.78276	39.05616	41.49717	-51.26121	8.1367	-21.15542	-115.54114	-160.29299	-69.16195	-65.90727	-9.76404	0
458	-62.65259	-24.4101	38.24249	42.31084	-50.44754	6.50936	-22.78276	-117.98215	-163.54767	-73.2303	-69.16195	-13.83239	0
459	-63.46626	-25.22377	37.42882	43.12451	-51.26121	5.69569	-24.4101	-120.42316	-165.17501	-76.48498	-72.41663	-17.90074	0
460	-63.46626	-24.4101	38.24249	43.12451	-51.26121	6.50936	-26.03744	-122.86417	-167.61602	-78.92599	-74.85764	-21.96909	0
461	-64.27993	-24.4101	39.86983	43.12451	-52.07488	7.32303	-27.66478	-125.30518	-169.24336	-80.55333	-77.29865	-24.4101	0
462	-65.0936	-23.59643	40.6835	43.93818	-53.70222	8.1367	-28.47845	-127.74619	-170.05703	-80.55333	-78.92599	-26.03744	0
463	-65.90727	-23.59643	42.31084	43.93818	-54.51589	8.95037	-29.29212	-128.55986	-170.8707	-80.55333	-79.73966	-26.03744	0
464	-66.72094	-22.78276	43.12451	43.93818	-55.32956	9.76404	-29.29212	-130.1872	-171.68437	-79.73966	-80.55333	-25.22377	0
465	-66.72094	-21.96909	43.93818	43.93818	-56.14323	9.76404	-28.47845	-130.1872	-172.49804	-78.92599	-79.73966	-23.59643	0
466	-66.72094	-21.15542	44.75185	43.12451	-56.14323	10.57771	-26.85111	-130.1872	-171.68437	-76.48498	-78.11232	-20.34175	0
467	-66.72094	-21.15542	44.75185	43.12451	-56.14323	11.39138	-25.22377	-128.55986	-170.8707	-73.2303	-74.85764	-17.08707	0
468	-66.72094	-21.15542	45.56552	43.12451	-56.9569	11.39138	-22.78276	-126.11885	-168.42969	-69.97562	-71.60296	-13.83239	0
469	-67.53461	-21.15542	45.56552	43.93818	-56.9569	11.39138	-20.34175	-123.67784	-165.17501	-65.90727	-69.16195	-12.20505	0
470	-69.16195	-21.96909	46.37919	44.75185	-57.77057	11.39138	-17.08707	-121.23683	-161.92033	-63.46626	-68.34828	-11.39138	0
471	-70.78929	-23.59643	46.37919	46.37919	-59.39791	10.57771	-11.39138	-117.16848	-159.47932	-63.46626	-69.16195	-13.01872	0
472	-74.04397	-26.03744	46.37919	49.63387	-61.02525	8.95037	-2.44101	-110.65912	-157.03831	-65.0936	-73.2303	-17.90074	0
473	-78.11232	-30.91946	46.37919	53.70222	-62.65259	7.32303	8.95037	-102.52242	-154.5973	-69.97562	-80.55333	-24.4101	0
474	-83.80801	-37.42882	45.56552	60.21158	-65.0936	3.25468	27.66478	-90.31737	-152.96996	-78.11232	-90.31737	-34.17414	0
475	-91.13104	-48.8202	42.31084	69.16195	-67.53461	-3.25468	52.88855	-71.60296	-151.34262	-90.31737	-104.96343	-48.8202	0
476	-100.08141	-65.90727	33.36047	82.18067	-66.72094	-16.2734	87.87636	-43.12451	-148.90161	-107.40444	-125.30518	-69.97562	0
477	-109.03178	-92.75838	15.45973	100.08141	-62.65259	-38.24249	134.25555	-2.44101	-144.83326	-132.62821	-154.5973	-100.08141	0
478	-115.54114	-131.00087	-14.64606	122.0505	-50.44754	-73.2303	191.21245	51.26121	-138.3239	-164.36134	-193.65346	-138.3239	0
479	-117.98215	-179.82107	-62.65259	148.08794	-27.66478	-121.23683	256.30605	120.42316	-127.74619	-201.79016	-240.03265	-183.88942	0
480	-112.28646	-239.21898	-126.93252	174.93905	6.50936	-183.07575	323.84066	202.60383	-110.65912	-239.21898	-288.03918	-231.89595	0
481	-96.01306	-304.31258	-208.29952	199.34915	55.32956	-256.30605	387.30692	296.98955	-82.18067	-269.32477	-331.16369	-275.83413	0
482	-66.72094	-371.03352	-304.31258	218.06356	117.98215	-337.67305	442.63648	401.95298	-37.42882	-283.15716	-361.26948	-310.00827	0
483	-21.96909	-432.87244	-410.90335	227.01393	193.65346	-422.29473	484.13365	516.68045	26.85111	-275.02046	-371.84719	-328.72268	0
484	36.61515	-486.57466	-524.00348	223.75925	279.90248	-505.28907	510.98476	639.54462	117.98215	-238.40531	-357.20113	-327.09534	0
485	111.47279	-528.07183	-639.54462	206.67218	375.10187	-584.21506	519.93513	767.29081	236.77797	-168.42969	-313.26295	-303.49891	0
486	199.34915	-553.2956	-753.45842	175.75272	475.99695	-653.37701	510.98476	896.66434	386.49325	-61.83892	-236.77797	-254.67871	0
487	297.80322	-561.4323	-859.23552	130.1872	578.51937	-710.33391	483.31998	1025.2242	567.12799	82.18067	-126.93252	-181.44841	0
488	404.39399	-550.04092	-955.24858	71.60296	679.41445	-752.64475	440.19547	1149.71571	777.05485	263.62908	14.64606	-82.99434	0
489	515.86678	-519.93513	-1036.61558	0.81367	775.42751	-777.86852	381.61123	1266.07052	1010.57814	479.25163	187.95777	37.42882	0
490	625.71223	-471.9286	-1098.4545	-77.29865	861.67653	-785.19155	310.82194	1365.33826	1259.56116	721.72529	385.67958	179.0074	0
491	725.79364	-409.27601	-1135.88332	-158.66565	930.83848	-772.17283	228.64127	1438.56856	1509.35785	978.03134	598.86112	331.97736	0
492	808.78798	-335.23204	-1144.02002	-236.77797	976.404	-739.62603	139.13757	1471.92903	1741.2538	1231.89638	813.67	489.01567	0
493	867.37222	-253.86504	-1122.05093	-306.75359	994.30474	-687.55115	39.05616	1454.84196	1934.09359	1464.606	1014.64649	637.10361	0
494	898.29168	-170.05703	-1069.16238	-364.52416	982.91336	-619.20287	-71.60296	1375.91597	2065.90813	1654.19111	1185.51719	768.10448	0
495	899.10535	-87.87636	-987.79538	-406.02133	943.04353	-537.83587	-198.53548	1224.57335	2111.47365	1780.30996	1310.82237	870.6269	0
496	870.6269	-10.57771	-881.20461	-430.43143	875.50892	-445.89116	-338.48672	995.11841	2051.26207	1826.68915	1379.98432	938.16151	0
497	812.85633	60.21158	-752.64475	-437.75446	782.75054	-345.80975	-486.57466	691.6195	1872.25467	1781.12363	1384.86634	965.82629	0
498	730.67566	124.49151	-606.18415	-427.99042	668.02307	-240.84632	-633.84893	332.79103	1580.14714	1646.05441	1327.09577	955.24858	0
499	628.96691	180.63474	-448.33217	-405.20766	537.83587	-133.44188	-765.66347	-45.56552	1205.85894	1436.12755	1215.62298	910.49673	0
500	515.05311	228.64127	-285.59817	-372.66086	399.51197	-27.66478	-869.81323	-407.64867	790.88724	1177.38049	1064.28036	838.89377	0
501	398.6983	268.5111	-129.37353	-334.41837	263.62908	69.16195	-939.78885	-716.84327	385.67958	901.54636	892.59599	748.5764	0
502	288.03918	299.43056	10.57771	-294.54854	137.51023	155.41097	-973.14932	-951.18023	29.29212	636.28994	715.21593	648.49499	0
503	189.58511	322.21332	131.81454	-257.11972	28.47845	227.01393	-969.08097	-1102.52285	-253.86504	401.95298	547.59991	546.78624	0
504	105.7771	336.04571	229.45494	-222.13191	-61.83892	283.15716	-933.27949	-1174.93948	-458.09621	209.11319	397.88463	448.33217	0
505	37.42882	343.36874	305.12625	-191.21245	-133.44188	323.84066	-871.44057	-1179.8215	-588.28341	60.21158	270.95211	358.82847	0
506	-14.64606	343.36874	358.0148	-164.36134	-187.1441	350.69177	-791.70091	-1135.06965	-655.81802	-46.37919	167.61602	279.90248	0
507	-54.51589	337.67305	392.18894	-142.39225	-223.75925	364.52416	-703.82455	-1057.771	-675.3461	-117.98215	88.69003	213.18154	0
508	-82.99434	327.90901	410.08968	-122.86417	-247.35568	369.40618	-615.13452	-965.01262	-662.32738	-161.92033	30.10579	157.85198	0
509	-101.70875	315.70396	417.41271	-107.40444	-259.56073	366.1515	-532.95385	-869.81323	-630.59425	-185.51676	-10.57771	113.9138	0
510	-113.10013	302.68524	415.78537	-95.19939	-265.25642	359.64214	-461.35089	-782.75054	-591.53809	-196.09447	-40.6835	78.11232	0
511	-120.42316	289.66652	410.90335	-85.43535	-266.07009	349.8781	-402.76665	-708.70657	-553.2956	-200.16282	-61.02525	51.26121	0
512	-125.30518	277.46147	402.76665	-76.48498	-264.44275	340.11406	-356.38746	-649.30866	-519.93513	-200.97649	-74.85764	30.10579	0
513	-127.74619	266.88376	394.62995	-69.16195	-262.00174	330.35002	-318.95864	-602.92947	-492.27035	-199.34915	-84.62168	14.64606	0
514	-131.00087	256.30605	387.30692	-62.65259	-259.56073	321.39965	-290.48019	-568.75533	-470.30126	-198.53548	-91.13104	3.25468	0
515	-133.44188	246.54201	379.98389	-56.9569	-257.11972	313.26295	-266.88376	-541.90422	-454.02786	-196.90814	-96.01306	-4.06835	0
516	-136.69656	237.59164	373.47453	-50.44754	-255.49238	305.93992	-247.35568	-520.7488	-441.00914	-195.2808	-99.26774	-9.76404	0
517	-139.13757	228.64127	367.77884	-44.75185	-253.86504	297.80322	-231.08228	-502.84806	-427.99042	-192.83979	-100.08141	-13.01872	0
518	-141.57858	219.6909	360.45581	-39.05616	-251.42403	290.48019	-216.43622	-485.76099	-414.9717	-188.77144	-99.26774	-13.83239	0
519	-143.20592	209.92686	352.31911	-34.17414	-248.16935	281.52982	-201.79016	-467.86025	-401.13931	-181.44841	-96.01306	-13.83239	0
520	-144.01959	199.34915	343.36874	-28.47845	-244.101	271.76578	-187.1441	-448.33217	-384.86591	-173.31171	-90.31737	-13.83239	0
521	-144.83326	188.77144	332.79103	-22.78276	-239.21898	261.18807	-170.05703	-427.17675	-367.77884	-163.54767	-84.62168	-13.83239	0
522	-144.83326	177.38006	322.21332	-17.08707	-233.52329	249.79669	-152.15629	-404.39399	-350.69177	-152.96996	-78.92599	-15.45973	0
523	-144.83326	165.17501	310.00827	-10.57771	-227.8276	237.59164	-133.44188	-380.79756	-333.6047	-144.01959	-74.04397	-18.71441	0
524	-144.83326	153.78363	298.61689	-4.88202	-222.13191	226.20026	-114.72747	-356.38746	-317.3313	-135.88289	-70.78929	-21.96909	0
525	-144.83326	142.39225	288.03918	0	-216.43622	214.80888	-96.01306	-333.6047	-301.87157	-129.37353	-67.53461	-25.22377	0
526	-144.83326	131.81454	277.46147	4.88202	-210.74053	204.23117	-78.92599	-310.82194	-287.22551	-123.67784	-64.27993	-27.66478	0
527	-144.01959	123.67784	267.69743	8.95037	-205.85851	195.2808	-62.65259	-289.66652	-272.57945	-117.98215	-61.02525	-28.47845	0
528	-142.39225	116.35481	258.74706	12.20505	-200.97649	187.1441	-49.63387	-270.95211	-259.56073	-112.28646	-57.77057	-28.47845	0
529	-141.57858	109.84545	251.42403	13.83239	-196.90814	180.63474	-39.05616	-254.67871	-248.16935	-107.40444	-54.51589	-28.47845	0
530	-140.76491	104.96343	245.72834	16.2734	-193.65346	175.75272	-30.91946	-241.65999	-238.40531	-103.33609	-52.07488	-26.85111	0
531	-140.76491	100.89508	241.65999	18.71441	-191.21245	170.8707	-24.4101	-232.70962	-231.08228	-100.08141	-50.44754	-26.85111	0
532	-140.76491	97.6404	238.40531	20.34175	-189.58511	167.61602	-20.34175	-226.20026	-226.20026	-97.6404	-49.63387	-26.03744	0
533	-139.95124	96.01306	235.9643	21.15542	-188.77144	165.98868	-17.90074	-221.31824	-223.75925	-96.82673	-50.44754	-26.03744	0
534	-139.95124	94.38572	234.33696	21.15542	-187.95777	164.36134	-15.45973	-218.06356	-221.31824	-96.82673	-51.26121	-26.03744	0
535	-139.95124	94.38572	234.33696	21.96909	-187.1441	163.54767	-13.01872	-214.80888	-220.50457	-96.01306	-52.07488	-26.85111	0
536	-139.95124	93.57205	233.52329	21.96909	-187.1441	163.54767	-11.39138	-210.74053	-218.06356	-96.01306	-52.88855	-27.66478	0
537	-139.95124	93.57205	233.52329	21.96909	-187.1441	163.54767	-8.1367	-206.67218	-215.62255	-95.19939	-53.70222	-27.66478	0
538	-139.13757	93.57205	232.70962	21.15542	-186.33043	163.54767	-5.69569	-201.79016	-210.74053	-94.38572	-53.70222	-27.66478	0
539	-138.3239	94.38572	232.70962	20.34175	-185.51676	163.54767	-2.44101	-196.09447	-205.85851	-92.75838	-52.07488	-26.85111	0
540	-136.69656	94.38572	231.08228	19.52808	-184.70309	162.734	0	-190.39878	-200.97649	-90.31737	-50.44754	-26.03744	0
541	-135.06922	94.38572	230.26861	19.52808	-183.07575	161.92033	2.44101	-186.33043	-196.90814	-87.87636	-48.00653	-24.4101	0
542	-134.25555	94.38572	228.64127	18.71441	-182.26208	161.10666	5.69569	-182.26208	-193.65346	-85.43535	-45.56552	-23.59643	0
543	-133.44188	93.57205	227.01393	18.71441	-180.63474	160.29299	8.1367	-179.0074	-191.21245	-82.99434	-41.49717	-21.96909	0
544	-132.62821	92.75838	225.38659	18.71441	-179.82107	159.47932	11.39138	-174.93905	-189.58511	-79.73966	-38.24249	-21.15542	0
545	-132.62821	91.94471	224.57292	18.71441	-179.0074	158.66565	14.64606	-170.8707	-187.1441	-76.48498	-35.80148	-21.15542	0
546	-132.62821	91.13104	223.75925	19.52808	-178.19373	157.85198	18.71441	-165.17501	-183.07575	-73.2303	-33.36047	-21.15542	0
547	-131.81454	91.13104	222.94558	19.52808	-178.19373	157.03831	22.78276	-158.66565	-177.38006	-69.16195	-30.91946	-21.96909	0
548	-131.81454	90.31737	222.13191	18.71441	-177.38006	156.22464	26.85111	-149.71528	-170.8707	-64.27993	-29.29212	-23.59643	0
549	-130.1872	90.31737	221.31824	18.71441	-176.56639	156.22464	31.73313	-141.57858	-162.734	-58.58424	-28.47845	-25.22377	0
550	-129.37353	90.31737	219.6909	17.90074	-174.93905	154.5973	35.80148	-133.44188	-154.5973	-53.70222	-27.66478	-27.66478	0
551	-127.74619	89.5037	217.24989	17.90074	-172.49804	152.96996	39.86983	-125.30518	-146.4606	-49.63387	-27.66478	-30.10579	0
552	-126.11885	87.87636	213.99521	17.90074	-170.05703	150.52895	43.93818	-117.98215	-140.76491	-46.37919	-28.47845	-31.73313	0
553	-124.49151	85.43535	210.74053	17.90074	-167.61602	148.08794	48.00653	-111.47279	-135.06922	-43.93818	-29.29212	-32.5468	0
554	-122.86417	82.99434	205.85851	18.71441	-164.36134	144.01959	52.07488	-104.96343	-131.00087	-42.31084	-29.29212	-33.36047	0
555	-121.23683	80.55333	200.97649	19.52808	-161.10666	140.76491	56.9569	-97.6404	-126.11885	-40.6835	-29.29212	-32.5468	0
556	-118.79582	77.29865	196.09447	19.52808	-157.85198	136.69656	61.83892	-89.5037	-120.42316	-38.24249	-28.47845	-31.73313	0
557	-116.35481	75.67131	192.02612	19.52808	-154.5973	133.44188	67.53461	-78.92599	-112.28646	-34.98781	-26.85111	-30.91946	0
558	-114.72747	74.04397	187.95777	19.52808	-151.34262	131.00087	74.85764	-66.72094	-101.70875	-30.91946	-24.4101	-30.10579	0
559	-113.10013	72.41663	185.51676	18.71441	-148.90161	128.55986	82.18067	-53.70222	-90.31737	-25.22377	-21.15542	-29.29212	0
560	-110.65912	71.60296	182.26208	18.71441	-147.27427	126.93252	90.31737	-39.86983	-78.11232	-20.34175	-18.71441	-29.29212	0
561	-109.84545	70.78929	179.82107	17.90074	-144.83326	125.30518	99.26774	-25.22377	-66.72094	-15.45973	-16.2734	-30.10579	0
562	-107.40444	69.97562	177.38006	17.90074	-143.20592	123.67784	108.21811	-10.57771	-55.32956	-11.39138	-14.64606	-30.91946	0
563	-105.7771	68.34828	174.12538	17.90074	-139.95124	121.23683	117.98215	3.25468	-45.56552	-8.95037	-13.01872	-32.5468	0
564	-103.33609	66.72094	170.05703	17.08707	-137.51023	117.98215	128.55986	18.71441	-35.80148	-5.69569	-10.57771	-33.36047	0
565	-101.70875	64.27993	165.98868	17.08707	-134.25555	114.72747	138.3239	34.98781	-25.22377	-2.44101	-8.1367	-33.36047	0
566	-99.26774	61.83892	160.29299	17.08707	-130.1872	111.47279	149.71528	52.07488	-13.83239	1.62734	-4.88202	-34.17414	0
567	-96.82673	58.58424	155.41097	17.90074	-126.11885	106.59077	160.29299	71.60296	-0.81367	7.32303	-1.62734	-34.17414	0
568	-93.57205	55.32956	148.90161	17.90074	-122.0505	101.70875	171.68437	92.75838	13.01872	13.01872	0.81367	-35.80148	0
569	-90.31737	51.26121	142.39225	17.90074	-116.35481	96.82673	183.07575	114.72747	29.29212	20.34175	4.06835	-38.24249	0
570	-87.06269	48.00653	134.25555	17.90074	-110.65912	91.13104	194.46713	136.69656	45.56552	26.85111	5.69569	-41.49717	0
571	-82.18067	43.93818	126.11885	17.90074	-104.96343	84.62168	205.85851	157.85198	61.02525	32.5468	7.32303	-46.37919	0
572	-78.11232	39.86983	117.98215	17.90074	-98.45407	78.11232	216.43622	179.0074	75.67131	38.24249	7.32303	-50.44754	0
573	-73.2303	34.98781	108.21811	17.90074	-91.13104	71.60296	227.01393	200.16282	89.5037	42.31084	7.32303	-55.32956	0
574	-68.34828	29.29212	98.45407	18.71441	-83.80801	64.27993	238.40531	222.13191	103.33609	46.37919	8.1367	-58.58424	0
575	-64.27993	24.4101	88.69003	18.71441	-76.48498	56.14323	249.79669	244.91467	117.98215	52.07488	9.76404	-61.02525	0
576	-59.39791	18.71441	78.11232	18.71441	-69.16195	48.8202	260.3744	269.32477	133.44188	57.77057	12.20505	-61.02525	0
577	-53.70222	13.83239	68.34828	18.71441	-61.02525	40.6835	271.76578	294.54854	150.52895	65.0936	17.08707	-60.21158	0
578	-48.00653	8.95037	56.9569	18.71441	-52.88855	33.36047	281.52982	319.77231	169.24336	74.04397	22.78276	-58.58424	0
579	-41.49717	4.88202	46.37919	17.08707	-43.93818	25.22377	291.29386	345.80975	187.95777	82.18067	29.29212	-56.14323	0
580	-34.17414	0.81367	34.98781	15.45973	-34.98781	17.90074	299.43056	370.21985	205.85851	89.5037	34.17414	-54.51589	0
581	-27.66478	-3.25468	23.59643	14.64606	-26.03744	9.76404	306.75359	393.00261	221.31824	95.19939	37.42882	-53.70222	0
582	-20.34175	-8.1367	12.20505	13.01872	-16.2734	1.62734	312.44928	412.53069	235.15063	97.6404	38.24249	-54.51589	0
583	-13.01872	-13.01872	0	12.20505	-6.50936	-6.50936	317.3313	431.2451	245.72834	97.6404	37.42882	-56.14323	0
584	-4.88202	-18.71441	-13.83239	11.39138	3.25468	-16.2734	320.58598	448.33217	254.67871	96.82673	34.98781	-58.58424	0
585	2.44101	-25.22377	-28.47845	10.57771	14.64606	-26.85111	324.65433	466.23291	264.44275	95.19939	32.5468	-61.02525	0
586	10.57771	-32.5468	-43.93818	9.76404	26.85111	-38.24249	327.90901	483.31998	274.20679	94.38572	30.91946	-63.46626	0
587	18.71441	-40.6835	-59.39791	9.76404	39.05616	-49.63387	330.35002	500.40705	284.7845	95.19939	29.29212	-65.0936	0
588	26.03744	-48.8202	-75.67131	9.76404	50.44754	-61.83892	331.97736	517.49412	296.98955	97.6404	28.47845	-66.72094	0
589	33.36047	-56.9569	-91.13104	10.57771	61.83892	-74.04397	332.79103	532.95385	308.38093	100.08141	28.47845	-68.34828	0
590	40.6835	-64.27993	-105.7771	10.57771	72.41663	-85.43535	332.79103	546.78624	318.95864	103.33609	28.47845	-69.16195	0
591	47.19286	-71.60296	-119.60949	10.57771	82.99434	-96.01306	331.16369	557.36395	327.90901	104.96343	27.66478	-70.78929	0
592	54.51589	-78.11232	-133.44188	10.57771	93.57205	-105.7771	327.90901	566.31432	333.6047	104.96343	26.85111	-72.41663	0
593	61.02525	-85.43535	-146.4606	11.39138	103.33609	-116.35481	323.02699	572.82368	337.67305	104.14976	25.22377	-74.04397	0
594	66.72094	-91.94471	-159.47932	11.39138	113.10013	-126.11885	318.95864	577.7057	340.11406	101.70875	22.78276	-75.67131	0
595	72.41663	-99.26774	-172.49804	12.20505	122.0505	-135.88289	313.26295	581.77405	340.92773	99.26774	21.15542	-76.48498	0
596	77.29865	-106.59077	-184.70309	13.83239	130.1872	-145.64693	307.56726	584.21506	342.55507	96.01306	19.52808	-76.48498	0
597	82.18067	-113.9138	-196.90814	14.64606	139.13757	-155.41097	301.87157	586.65607	344.18241	92.75838	17.90074	-76.48498	0
598	87.87636	-120.42316	-209.11319	15.45973	148.08794	-165.17501	295.36221	587.46974	344.99608	89.5037	15.45973	-76.48498	0
599	92.75838	-127.74619	-222.13191	16.2734	157.03831	-174.93905	287.22551	585.8424	344.18241	84.62168	12.20505	-77.29865	0
600	98.45407	-135.06922	-234.33696	17.08707	165.98868	-184.70309	279.08881	582.58772	342.55507	79.73966	8.1367	-78.11232	0
601	103.33609	-141.57858	-245.72834	17.90074	174.12538	-193.65346	269.32477	576.89203	337.67305	73.2303	2.44101	-80.55333	0
602	107.40444	-148.08794	-256.30605	18.71441	181.44841	-201.79016	259.56073	567.94166	330.35002	65.90727	-3.25468	-84.62168	0
603	111.47279	-152.96996	-265.25642	19.52808	187.95777	-209.11319	248.16935	557.36395	321.39965	56.9569	-10.57771	-88.69003	0
604	114.72747	-157.03831	-272.57945	20.34175	192.83979	-214.80888	236.77797	545.1589	310.00827	48.00653	-17.90074	-94.38572	0
605	116.35481	-161.10666	-278.27514	21.15542	196.90814	-219.6909	224.57292	532.14018	298.61689	38.24249	-26.03744	-100.08141	0
606	117.98215	-163.54767	-282.34349	21.96909	200.16282	-222.94558	213.18154	518.30779	286.41184	28.47845	-33.36047	-106.59077	0
607	117.98215	-165.98868	-285.59817	22.78276	200.97649	-225.38659	200.97649	503.66173	274.20679	18.71441	-41.49717	-112.28646	0
608	117.98215	-167.61602	-286.41184	23.59643	201.79016	-227.01393	188.77144	487.38833	261.18807	8.95037	-50.44754	-118.79582	0
609	117.16848	-168.42969	-286.41184	24.4101	200.97649	-227.01393	175.75272	469.48759	248.16935	0	-58.58424	-124.49151	0
610	115.54114	-168.42969	-284.7845	25.22377	200.16282	-227.01393	162.734	449.14584	233.52329	-8.95037	-65.90727	-128.55986	0
611	113.9138	-167.61602	-282.34349	26.03744	197.72181	-225.38659	148.90161	427.17675	217.24989	-18.71441	-72.41663	-131.81454	0
612	111.47279	-166.80235	-279.08881	26.85111	195.2808	-222.94558	135.88289	404.39399	200.16282	-27.66478	-77.29865	-132.62821	0
613	108.21811	-165.98868	-275.02046	27.66478	191.21245	-220.50457	123.67784	379.98389	181.44841	-36.61515	-81.367	-132.62821	0
614	104.96343	-164.36134	-270.13844	28.47845	187.1441	-217.24989	111.47279	354.76012	162.734	-44.75185	-84.62168	-131.81454	0
615	100.89508	-161.92033	-263.62908	29.29212	182.26208	-212.36787	99.26774	330.35002	144.83326	-52.07488	-87.06269	-131.00087	0
616	96.01306	-158.66565	-255.49238	30.10579	175.75272	-207.48585	88.69003	306.75359	127.74619	-58.58424	-89.5037	-130.1872	0
617	90.31737	-154.5973	-246.54201	30.91946	168.42969	-200.16282	78.11232	283.97083	112.28646	-63.46626	-91.13104	-129.37353	0
618	84.62168	-149.71528	-235.9643	30.91946	160.29299	-192.83979	68.34828	261.18807	98.45407	-66.72094	-91.13104	-127.74619	0
619	78.92599	-144.01959	-223.75925	31.73313	151.34262	-183.88942	57.77057	239.21898	85.43535	-68.34828	-91.13104	-126.93252	0
620	72.41663	-138.3239	-211.5542	31.73313	141.57858	-174.93905	48.00653	217.24989	73.2303	-69.97562	-90.31737	-125.30518	0
621	65.0936	-131.81454	-198.53548	32.5468	131.00087	-165.17501	38.24249	195.2808	60.21158	-71.60296	-88.69003	-123.67784	0
622	57.77057	-125.30518	-184.70309	32.5468	121.23683	-155.41097	28.47845	172.49804	45.56552	-73.2303	-87.87636	-122.0505	0
623	51.26121	-118.79582	-170.8707	32.5468	110.65912	-144.83326	19.52808	150.52895	30.91946	-76.48498	-87.87636	-120.42316	0
624	44.75185	-110.65912	-156.22464	31.73313	100.08141	-133.44188	10.57771	128.55986	15.45973	-80.55333	-88.69003	-119.60949	0
625	38.24249	-103.33609	-142.39225	30.91946	90.31737	-122.86417	2.44101	107.40444	0	-85.43535	-90.31737	-117.98215	0
626	33.36047	-96.01306	-129.37353	30.10579	80.55333	-112.28646	-4.06835	87.87636	-13.01872	-90.31737	-91.13104	-117.16848	0
627	27.66478	-88.69003	-117.16848	29.29212	72.41663	-102.52242	-11.39138	69.16195	-26.03744	-94.38572	-92.75838	-115.54114	0
628	22.78276	-81.367	-105.7771	27.66478	63.46626	-93.57205	-17.90074	52.07488	-36.61515	-97.6404	-93.57205	-113.10013	0
629	18.71441	-74.85764	-94.38572	26.85111	56.14323	-84.62168	-24.4101	36.61515	-46.37919	-100.08141	-92.75838	-109.84545	0
630	13.83239	-69.16195	-83.80801	26.03744	48.8202	-76.48498	-30.91946	21.15542	-54.51589	-101.70875	-92.75838	-105.7771	0
631	9.76404	-63.46626	-74.04397	25.22377	41.49717	-68.34828	-36.61515	5.69569	-63.46626	-102.52242	-91.94471	-102.52242	0
632	5.69569	-58.58424	-65.0936	25.22377	34.17414	-61.83892	-41.49717	-8.1367	-72.41663	-104.14976	-91.13104	-99.26774	0
633	0.81367	-53.70222	-56.14323	25.22377	27.66478	-54.51589	-47.19286	-21.96909	-80.55333	-105.7771	-90.31737	-96.01306	0
634	-1.62734	-48.8202	-47.19286	24.4101	21.96909	-48.00653	-51.26121	-34.98781	-88.69003	-106.59077	-89.5037	-93.57205	0
635	-4.88202	-43.12451	-38.24249	23.59643	15.45973	-40.6835	-55.32956	-45.56552	-94.38572	-106.59077	-87.87636	-91.13104	0
636	-8.1367	-38.24249	-30.10579	22.78276	9.76404	-34.17414	-58.58424	-54.51589	-98.45407	-105.7771	-86.24902	-87.87636	0
637	-11.39138	-33.36047	-21.96909	21.96909	4.06835	-27.66478	-61.02525	-61.83892	-100.08141	-104.14976	-82.99434	-85.43535	0
638	-14.64606	-29.29212	-14.64606	21.15542	0	-21.96909	-64.27993	-67.53461	-100.89508	-100.89508	-80.55333	-82.99434	0
639	-18.71441	-26.03744	-7.32303	21.15542	-5.69569	-17.08707	-66.72094	-73.2303	-100.08141	-97.6404	-77.29865	-79.73966	0
640	-21.96909	-23.59643	-1.62734	21.96909	-10.57771	-12.20505	-70.78929	-78.92599	-100.08141	-95.19939	-74.85764	-77.29865	0
641	-25.22377	-20.34175	3.25468	21.96909	-14.64606	-8.1367	-74.04397	-85.43535	-100.89508	-92.75838	-73.2303	-74.85764	0
642	-26.85111	-17.08707	8.95037	21.15542	-18.71441	-4.06835	-78.11232	-92.75838	-102.52242	-91.13104	-72.41663	-72.41663	0
643	-28.47845	-13.83239	13.83239	20.34175	-21.15542	0	-80.55333	-99.26774	-105.7771	-90.31737	-70.78929	-70.78929	0
644	-30.10579	-11.39138	17.90074	19.52808	-24.4101	3.25468	-83.80801	-105.7771	-107.40444	-89.5037	-69.16195	-68.34828	0
645	-30.91946	-8.1367	21.96909	18.71441	-26.85111	6.50936	-85.43535	-109.84545	-109.03178	-88.69003	-66.72094	-65.90727	0
646	-31.73313	-5.69569	25.22377	17.90074	-29.29212	8.95037	-86.24902	-113.10013	-108.21811	-86.24902	-64.27993	-63.46626	0
647	-32.5468	-3.25468	28.47845	17.08707	-30.91946	12.20505	-87.06269	-114.72747	-106.59077	-83.80801	-61.02525	-61.02525	0
648	-32.5468	-1.62734	30.91946	16.2734	-32.5468	13.83239	-87.87636	-116.35481	-104.14976	-80.55333	-57.77057	-58.58424	0
649	-33.36047	0	32.5468	15.45973	-33.36047	16.2734	-88.69003	-117.16848	-100.89508	-78.11232	-55.32956	-56.14323	0
650	-33.36047	0.81367	34.17414	15.45973	-34.17414	17.08707	-89.5037	-119.60949	-100.08141	-77.29865	-55.32956	-55.32956	0
651	-33.36047	1.62734	34.98781	14.64606	-34.17414	17.90074	-90.31737	-122.86417	-100.89508	-78.11232	-56.14323	-54.51589	0
652	-33.36047	1.62734	34.98781	14.64606	-34.98781	18.71441	-91.13104	-126.93252	-103.33609	-80.55333	-59.39791	-54.51589	0
653	-34.17414	1.62734	36.61515	15.45973	-35.80148	19.52808	-91.94471	-131.81454	-106.59077	-82.99434	-63.46626	-56.14323	0
654	-34.98781	2.44101	37.42882	15.45973	-36.61515	20.34175	-91.94471	-135.88289	-109.84545	-86.24902	-66.72094	-56.9569	0
655	-35.80148	4.06835	39.86983	14.64606	-38.24249	21.96909	-91.94471	-139.13757	-112.28646	-87.87636	-68.34828	-58.58424	0
656	-36.61515	4.88202	42.31084	14.64606	-40.6835	23.59643	-91.13104	-141.57858	-112.28646	-87.87636	-69.16195	-58.58424	0
657	-37.42882	7.32303	44.75185	13.83239	-42.31084	26.03744	-90.31737	-142.39225	-110.65912	-86.24902	-68.34828	-58.58424	0
658	-39.05616	8.95037	48.00653	13.83239	-43.93818	28.47845	-89.5037	-142.39225	-107.40444	-82.99434	-65.90727	-56.9569	0
659	-39.86983	11.39138	50.44754	13.01872	-45.56552	30.91946	-89.5037	-142.39225	-104.14976	-78.11232	-61.83892	-55.32956	0
660	-40.6835	13.01872	52.88855	12.20505	-47.19286	33.36047	-88.69003	-142.39225	-100.89508	-74.04397	-56.9569	-52.07488	0
661	-41.49717	13.83239	55.32956	12.20505	-48.8202	34.98781	-88.69003	-142.39225	-98.45407	-69.97562	-52.88855	-48.8202	0
662	-42.31084	14.64606	56.9569	12.20505	-49.63387	35.80148	-87.87636	-143.20592	-97.6404	-66.72094	-48.8202	-45.56552	0
663	-42.31084	14.64606	57.77057	13.01872	-50.44754	36.61515	-87.87636	-144.83326	-98.45407	-64.27993	-46.37919	-43.12451	0
664	-42.31084	14.64606	57.77057	13.01872	-50.44754	35.80148	-87.06269	-144.83326	-100.08141	-63.46626	-44.75185	-40.6835	0
665	-42.31084	14.64606	56.14323	13.01872	-49.63387	34.98781	-86.24902	-144.83326	-101.70875	-63.46626	-43.93818	-39.05616	0
666	-41.49717	13.01872	54.51589	13.01872	-48.8202	34.17414	-85.43535	-144.01959	-102.52242	-64.27993	-44.75185	-38.24249	0
667	-40.6835	12.20505	52.88855	13.01872	-47.19286	32.5468	-84.62168	-143.20592	-101.70875	-65.0936	-45.56552	-37.42882	0
668	-39.86983	11.39138	51.26121	13.01872	-45.56552	30.91946	-83.80801	-141.57858	-100.89508	-65.90727	-47.19286	-37.42882	0
669	-39.05616	10.57771	49.63387	13.01872	-44.75185	30.10579	-83.80801	-141.57858	-99.26774	-66.72094	-48.8202	-37.42882	0
670	-39.05616	10.57771	49.63387	13.01872	-44.75185	30.10579	-83.80801	-141.57858	-98.45407	-68.34828	-51.26121	-38.24249	0
671	-39.86983	9.76404	49.63387	13.83239	-45.56552	30.10579	-83.80801	-143.20592	-99.26774	-69.97562	-53.70222	-39.05616	0
672	-40.6835	9.76404	50.44754	14.64606	-46.37919	30.10579	-83.80801	-145.64693	-100.89508	-72.41663	-56.14323	-40.6835	0
673	-42.31084	9.76404	52.07488	14.64606	-47.19286	30.91946	-83.80801	-148.90161	-104.14976	-74.85764	-58.58424	-41.49717	0
674	-43.12451	10.57771	53.70222	15.45973	-48.8202	31.73313	-83.80801	-150.52895	-106.59077	-77.29865	-60.21158	-42.31084	0
675	-44.75185	11.39138	55.32956	15.45973	-50.44754	33.36047	-83.80801	-152.15629	-108.21811	-78.11232	-60.21158	-43.12451	0
676	-45.56552	11.39138	56.9569	15.45973	-52.07488	34.17414	-82.99434	-151.34262	-109.03178	-78.11232	-60.21158	-43.12451	0
677	-46.37919	12.20505	57.77057	16.2734	-52.88855	34.98781	-81.367	-150.52895	-107.40444	-77.29865	-57.77057	-42.31084	0
678	-47.19286	11.39138	58.58424	17.08707	-52.88855	34.98781	-80.55333	-148.90161	-104.96343	-74.85764	-56.14323	-42.31084	0
679	-48.00653	10.57771	58.58424	17.08707	-53.70222	34.98781	-78.92599	-147.27427	-102.52242	-73.2303	-53.70222	-42.31084	0
680	-48.8202	9.76404	57.77057	17.90074	-53.70222	34.17414	-77.29865	-146.4606	-100.89508	-72.41663	-52.88855	-43.12451	0
681	-48.8202	8.95037	57.77057	18.71441	-52.88855	33.36047	-76.48498	-147.27427	-100.08141	-71.60296	-52.07488	-43.93818	0
682	-48.00653	8.95037	56.9569	18.71441	-52.88855	32.5468	-74.85764	-148.08794	-101.70875	-72.41663	-52.07488	-45.56552	0
683	-48.00653	8.1367	55.32956	18.71441	-52.07488	31.73313	-73.2303	-148.90161	-103.33609	-74.04397	-52.88855	-47.19286	0
684	-47.19286	7.32303	54.51589	18.71441	-51.26121	30.91946	-70.78929	-149.71528	-104.96343	-74.85764	-52.88855	-48.8202	0
685	-47.19286	6.50936	53.70222	18.71441	-50.44754	30.10579	-69.16195	-149.71528	-104.96343	-74.85764	-52.07488	-49.63387	0
686	-47.19286	5.69569	52.88855	19.52808	-50.44754	29.29212	-67.53461	-148.90161	-104.96343	-74.85764	-52.07488	-50.44754	0
687	-47.19286	6.50936	53.70222	19.52808	-50.44754	30.10579	-66.72094	-148.90161	-103.33609	-74.85764	-52.07488	-51.26121	0
688	-48.00653	7.32303	55.32956	18.71441	-52.07488	30.91946	-66.72094	-148.90161	-102.52242	-74.85764	-52.07488	-52.07488	0
689	-48.00653	8.95037	57.77057	18.71441	-53.70222	33.36047	-66.72094	-148.90161	-101.70875	-75.67131	-53.70222	-53.70222	0
690	-48.8202	11.39138	60.21158	17.90074	-54.51589	35.80148	-67.53461	-150.52895	-100.89508	-76.48498	-54.51589	-54.51589	0
691	-48.8202	13.01872	61.83892	17.08707	-55.32956	37.42882	-67.53461	-151.34262	-101.70875	-77.29865	-55.32956	-54.51589	0
692	-48.8202	13.83239	62.65259	16.2734	-56.14323	38.24249	-67.53461	-152.96996	-103.33609	-78.11232	-55.32956	-54.51589	0
693	-48.8202	13.83239	63.46626	16.2734	-56.14323	38.24249	-67.53461	-154.5973	-104.96343	-79.73966	-55.32956	-54.51589	0
694	-49.63387	13.01872	62.65259	17.08707	-56.9569	38.24249	-67.53461	-155.41097	-106.59077	-80.55333	-54.51589	-54.51589	0
695	-49.63387	12.20505	62.65259	17.08707	-56.9569	37.42882	-66.72094	-156.22464	-107.40444	-82.18067	-53.70222	-53.70222	0
696	-50.44754	11.39138	62.65259	17.90074	-56.9569	37.42882	-65.90727	-155.41097	-107.40444	-82.18067	-52.07488	-53.70222	0
697	-50.44754	11.39138	61.83892	18.71441	-56.9569	36.61515	-65.90727	-154.5973	-105.7771	-81.367	-50.44754	-52.07488	0
698	-50.44754	11.39138	61.83892	18.71441	-56.9569	36.61515	-65.0936	-153.78363	-104.14976	-80.55333	-48.8202	-51.26121	0
699	-50.44754	11.39138	61.83892	18.71441	-56.9569	36.61515	-65.0936	-152.96996	-101.70875	-78.92599	-48.8202	-49.63387	0
700	-49.63387	12.20505	61.83892	17.90074	-56.14323	36.61515	-64.27993	-152.96996	-100.08141	-78.92599	-48.8202	-49.63387	0
701	-48.8202	13.01872	61.83892	16.2734	-55.32956	37.42882	-63.46626	-153.78363	-99.26774	-78.11232	-48.8202	-48.8202	0
702	-47.19286	15.45973	62.65259	14.64606	-55.32956	39.05616	-61.83892	-152.96996	-98.45407	-77.29865	-48.8202	-48.00653	0
703	-45.56552	19.52808	65.0936	11.39138	-55.32956	42.31084	-58.58424	-152.15629	-97.6404	-74.85764	-48.00653	-46.37919	0
704	-43.93818	25.22377	69.16195	8.1367	-56.9569	47.19286	-54.51589	-148.90161	-94.38572	-71.60296	-44.75185	-43.93818	0
705	-41.49717	32.5468	74.04397	3.25468	-58.58424	52.88855	-49.63387	-144.01959	-89.5037	-65.90727	-39.86983	-39.86983	0
706	-39.86983	40.6835	80.55333	-0.81367	-60.21158	61.02525	-43.93818	-136.69656	-82.99434	-59.39791	-34.17414	-36.61515	0
707	-36.61515	50.44754	87.06269	-7.32303	-62.65259	68.34828	-37.42882	-129.37353	-74.85764	-52.07488	-27.66478	-32.5468	0
708	-34.17414	60.21158	93.57205	-13.01872	-64.27993	76.48498	-32.5468	-122.0505	-66.72094	-44.75185	-21.96909	-28.47845	0
709	-30.91946	68.34828	100.08141	-18.71441	-65.90727	84.62168	-26.85111	-115.54114	-59.39791	-39.05616	-16.2734	-25.22377	0
710	-28.47845	76.48498	104.14976	-24.4101	-66.72094	90.31737	-22.78276	-110.65912	-54.51589	-34.98781	-12.20505	-21.96909	0
711	-26.03744	81.367	107.40444	-27.66478	-67.53461	94.38572	-19.52808	-107.40444	-52.07488	-32.5468	-9.76404	-19.52808	0
712	-24.4101	84.62168	109.03178	-30.91946	-66.72094	96.82673	-15.45973	-104.96343	-51.26121	-31.73313	-8.1367	-17.90074	0
713	-22.78276	86.24902	109.03178	-31.73313	-66.72094	97.6404	-10.57771	-102.52242	-51.26121	-30.91946	-6.50936	-16.2734	0
714	-21.96909	86.24902	108.21811	-32.5468	-65.90727	97.6404	-4.88202	-99.26774	-52.07488	-30.91946	-5.69569	-14.64606	0
715	-21.15542	86.24902	107.40444	-33.36047	-64.27993	96.82673	0.81367	-95.19939	-51.26121	-30.10579	-4.06835	-13.01872	0
716	-20.34175	87.06269	106.59077	-34.17414	-63.46626	96.82673	8.1367	-91.13104	-48.8202	-28.47845	-1.62734	-10.57771	0
717	-17.90074	87.06269	105.7771	-34.98781	-62.65259	96.82673	13.83239	-86.24902	-45.56552	-26.03744	0	-7.32303	0
718	-15.45973	87.87636	104.14976	-36.61515	-60.21158	96.01306	16.2734	-82.99434	-42.31084	-22.78276	2.44101	-4.88202	0
719	-12.20505	89.5037	101.70875	-39.05616	-57.77057	95.19939	16.2734	-82.18067	-39.86983	-19.52808	5.69569	-1.62734	0
720	-8.1367	91.13104	99.26774	-41.49717	-54.51589	95.19939	11.39138	-84.62168	-38.24249	-17.08707	7.32303	0	0
721	-4.06835	92.75838	96.82673	-44.75185	-50.44754	95.19939	0.81367	-90.31737	-39.86983	-15.45973	9.76404	2.44101	0
722	0	96.01306	94.38572	-48.8202	-47.19286	95.19939	-13.83239	-100.08141	-43.93818	-15.45973	10.57771	4.88202	0
723	4.88202	98.45407	92.75838	-52.88855	-43.93818	95.19939	-33.36047	-113.10013	-50.44754	-16.2734	10.57771	6.50936	0
724	9.76404	100.89508	89.5037	-56.14323	-39.86983	95.19939	-55.32956	-126.93252	-58.58424	-19.52808	8.95037	8.1367	0
725	14.64606	101.70875	86.24902	-59.39791	-35.80148	94.38572	-77.29865	-140.76491	-65.90727	-24.4101	6.50936	8.95037	0
726	19.52808	101.70875	81.367	-61.02525	-31.73313	91.94471	-99.26774	-153.78363	-74.04397	-30.10579	1.62734	8.1367	0
727	22.78276	99.26774	75.67131	-61.83892	-26.85111	87.87636	-118.79582	-166.80235	-82.18067	-37.42882	-3.25468	5.69569	0
728	25.22377	95.19939	68.34828	-61.02525	-21.96909	81.367	-137.51023	-179.82107	-91.13104	-46.37919	-10.57771	0.81367	0
729	27.66478	88.69003	60.21158	-58.58424	-17.08707	74.85764	-153.78363	-193.65346	-101.70875	-56.9569	-20.34175	-4.06835	0
730	28.47845	81.367	52.07488	-55.32956	-12.20505	66.72094	-168.42969	-209.11319	-115.54114	-69.97562	-30.91946	-12.20505	0
731	28.47845	72.41663	43.12451	-51.26121	-7.32303	57.77057	-180.63474	-225.38659	-131.00087	-84.62168	-43.12451	-20.34175	0
732	29.29212	62.65259	33.36047	-46.37919	-2.44101	48.00653	-188.77144	-239.21898	-146.4606	-98.45407	-53.70222	-28.47845	0
733	29.29212	52.88855	21.96909	-42.31084	2.44101	37.42882	-194.46713	-250.61036	-161.10666	-110.65912	-63.46626	-35.80148	0
734	30.10579	42.31084	11.39138	-37.42882	8.95037	26.85111	-195.2808	-257.11972	-171.68437	-119.60949	-70.78929	-40.6835	0
735	31.73313	34.17414	1.62734	-33.36047	13.83239	17.90074	-192.02612	-258.74706	-177.38006	-123.67784	-73.2303	-43.12451	0
736	32.5468	28.47845	-4.88202	-30.91946	17.90074	11.39138	-184.70309	-253.86504	-177.38006	-122.86417	-72.41663	-41.49717	0
737	32.5468	26.03744	-6.50936	-30.10579	19.52808	9.76404	-174.12538	-245.72834	-171.68437	-117.16848	-66.72094	-36.61515	0
738	30.91946	28.47845	-2.44101	-30.91946	16.2734	12.20505	-160.29299	-234.33696	-162.734	-107.40444	-57.77057	-29.29212	0
739	26.85111	32.5468	4.88202	-30.91946	10.57771	18.71441	-144.83326	-222.13191	-152.96996	-97.6404	-48.8202	-21.15542	0
740	20.34175	38.24249	17.08707	-30.10579	0.81367	27.66478	-129.37353	-209.92686	-144.01959	-88.69003	-40.6835	-13.83239	0
741	11.39138	42.31084	30.10579	-27.66478	-8.95037	35.80148	-113.10013	-200.16282	-137.51023	-81.367	-34.98781	-9.76404	0
742	1.62734	44.75185	42.31084	-23.59643	-20.34175	43.93818	-97.6404	-191.21245	-131.81454	-78.11232	-31.73313	-8.1367	0
743	-8.1367	44.75185	52.88855	-18.71441	-30.91946	48.8202	-83.80801	-183.88942	-128.55986	-76.48498	-31.73313	-8.95037	0
744	-17.08707	42.31084	60.21158	-13.01872	-39.05616	51.26121	-71.60296	-176.56639	-126.11885	-76.48498	-32.5468	-12.20505	0
745	-26.03744	37.42882	63.46626	-6.50936	-44.75185	50.44754	-61.83892	-170.8707	-122.86417	-77.29865	-35.80148	-16.2734	0
746	-33.36047	30.10579	63.46626	0	-48.8202	47.19286	-53.70222	-165.98868	-120.42316	-78.92599	-39.86983	-21.15542	0
747	-39.86983	21.15542	61.83892	8.1367	-51.26121	41.49717	-47.19286	-161.92033	-117.98215	-80.55333	-44.75185	-26.85111	0
748	-46.37919	10.57771	57.77057	16.2734	-52.07488	34.17414	-43.12451	-159.47932	-116.35481	-82.99434	-49.63387	-33.36047	0
749	-52.88855	0	52.88855	24.4101	-52.88855	26.85111	-40.6835	-158.66565	-117.16848	-85.43535	-55.32956	-39.05616	0
750	-57.77057	-8.95037	48.8202	32.5468	-53.70222	19.52808	-39.86983	-160.29299	-118.79582	-89.5037	-61.02525	-43.12451	0
751	-62.65259	-17.08707	44.75185	39.05616	-54.51589	13.01872	-39.86983	-162.734	-122.0505	-93.57205	-66.72094	-47.19286	0
752	-65.90727	-23.59643	42.31084	43.93818	-54.51589	8.95037	-39.86983	-165.17501	-126.93252	-96.82673	-71.60296	-49.63387	0
753	-68.34828	-27.66478	39.86983	47.19286	-55.32956	5.69569	-40.6835	-167.61602	-131.00087	-100.89508	-75.67131	-50.44754	0
754	-69.97562	-30.10579	39.05616	48.8202	-55.32956	4.06835	-41.49717	-169.24336	-134.25555	-104.14976	-79.73966	-49.63387	0
755	-70.78929	-30.91946	38.24249	49.63387	-54.51589	3.25468	-42.31084	-170.05703	-136.69656	-106.59077	-82.99434	-48.8202	0
756	-69.97562	-31.73313	37.42882	50.44754	-54.51589	2.44101	-43.12451	-170.05703	-137.51023	-108.21811	-85.43535	-47.19286	0
757	-69.97562	-31.73313	36.61515	50.44754	-53.70222	2.44101	-43.93818	-170.05703	-136.69656	-108.21811	-87.06269	-44.75185	0
758	-69.97562	-31.73313	36.61515	50.44754	-53.70222	1.62734	-44.75185	-169.24336	-135.88289	-108.21811	-87.06269	-42.31084	0
759	-69.16195	-31.73313	36.61515	49.63387	-53.70222	1.62734	-45.56552	-169.24336	-134.25555	-106.59077	-86.24902	-39.86983	0
760	-69.16195	-31.73313	36.61515	49.63387	-52.88855	1.62734	-47.19286	-170.05703	-134.25555	-105.7771	-84.62168	-37.42882	0
761	-68.34828	-30.91946	35.80148	48.8202	-52.88855	2.44101	-48.00653	-171.68437	-134.25555	-104.96343	-82.99434	-35.80148	0
762	-67.53461	-30.10579	35.80148	48.00653	-52.07488	2.44101	-48.8202	-174.12538	-135.88289	-104.96343	-82.18067	-34.17414	0
763	-66.72094	-29.29212	36.61515	47.19286	-52.07488	3.25468	-48.8202	-174.93905	-136.69656	-104.96343	-81.367	-34.17414	0
764	-66.72094	-28.47845	36.61515	47.19286	-52.07488	3.25468	-48.00653	-175.75272	-137.51023	-104.96343	-82.18067	-34.17414	0
765	-66.72094	-29.29212	37.42882	47.19286	-52.88855	4.06835	-47.19286	-175.75272	-137.51023	-105.7771	-82.99434	-34.17414	0
766	-68.34828	-30.10579	37.42882	48.00653	-52.88855	3.25468	-44.75185	-174.12538	-135.88289	-105.7771	-85.43535	-34.98781	0
767	-69.97562	-31.73313	37.42882	49.63387	-54.51589	2.44101	-40.6835	-170.8707	-133.44188	-107.40444	-87.87636	-36.61515	0
768	-72.41663	-33.36047	38.24249	52.07488	-55.32956	1.62734	-34.98781	-167.61602	-131.81454	-109.03178	-91.13104	-38.24249	0
769	-75.67131	-37.42882	38.24249	55.32956	-57.77057	0	-26.03744	-161.92033	-129.37353	-111.47279	-95.19939	-40.6835	0
770	-80.55333	-42.31084	37.42882	60.21158	-59.39791	-1.62734	-13.01872	-154.5973	-127.74619	-115.54114	-100.89508	-45.56552	0
771	-87.06269	-49.63387	36.61515	67.53461	-61.83892	-5.69569	5.69569	-142.39225	-126.11885	-121.23683	-107.40444	-52.07488	0
772	-94.38572	-61.02525	32.5468	76.48498	-64.27993	-13.83239	31.73313	-125.30518	-124.49151	-131.00087	-117.98215	-63.46626	0
773	-103.33609	-78.92599	23.59643	90.31737	-64.27993	-26.85111	68.34828	-99.26774	-124.49151	-147.27427	-135.88289	-82.18067	0
774	-112.28646	-104.96343	6.50936	108.21811	-60.21158	-48.8202	115.54114	-61.83892	-123.67784	-170.05703	-161.92033	-109.03178	0
775	-120.42316	-142.39225	-21.96909	130.1872	-48.8202	-82.18067	174.12538	-11.39138	-122.86417	-200.97649	-198.53548	-145.64693	0
776	-122.86417	-190.39878	-66.72094	155.41097	-27.66478	-128.55986	240.03265	53.70222	-117.16848	-237.59164	-243.28733	-190.39878	0
777	-117.98215	-247.35568	-129.37353	181.44841	4.88202	-188.77144	307.56726	132.62821	-104.96343	-275.02046	-291.29386	-239.21898	0
778	-100.89508	-310.82194	-209.92686	205.04484	53.70222	-260.3744	371.84719	225.38659	-80.55333	-305.93992	-335.23204	-284.7845	0
779	-69.97562	-374.2882	-305.12625	221.31824	117.16848	-339.30039	427.99042	329.53635	-38.24249	-322.21332	-367.77884	-320.58598	0
780	-22.78276	-435.31345	-411.71702	228.64127	193.65346	-423.92207	471.11493	445.89116	24.4101	-314.89029	-380.79756	-340.11406	0
781	39.05616	-487.38833	-528.07183	222.94558	283.15716	-507.73008	497.96604	569.569	115.54114	-279.08881	-367.77884	-340.11406	0
782	117.98215	-528.8855	-647.68132	204.23117	382.4249	-588.28341	506.10274	698.94253	235.15063	-209.92686	-326.28167	-316.51763	0
783	210.74053	-554.92294	-766.47714	170.8707	488.202	-660.70004	494.71136	833.19808	386.49325	-104.96343	-253.05137	-266.88376	0
784	314.89029	-563.87331	-879.57727	122.86417	596.42011	-721.72529	465.41924	969.08097	570.38267	36.61515	-146.4606	-192.02612	0
785	428.80409	-554.10927	-983.72703	61.83892	705.45189	-768.91815	419.85372	1104.96386	786.00522	216.43622	-7.32303	-91.13104	0
786	546.78624	-525.63082	-1074.0444	-11.39138	809.60165	-799.83761	358.82847	1234.33739	1026.85154	429.61776	161.92033	32.5468	0
787	663.95472	-480.0653	-1144.83369	-91.94471	903.98737	-812.04266	283.97083	1348.25119	1284.78493	669.65041	356.38746	175.75272	0
788	769.73182	-419.04005	-1190.39921	-175.75272	979.65868	-804.71963	198.53548	1434.50021	1543.53199	923.51545	565.50065	331.16369	0
789	856.79451	-347.43709	-1205.04527	-255.49238	1030.10622	-775.42751	101.70875	1479.25206	1783.56464	1174.93948	775.42751	489.82934	0
790	917.81976	-266.88376	-1185.51719	-326.28167	1051.26164	-726.60731	-5.69569	1469.48802	1983.72746	1402.76708	971.52198	639.54462	0
791	948.73922	-183.88942	-1132.62864	-383.23857	1040.68393	-658.25903	-128.55986	1393.81671	2120.42402	1588.28384	1137.51066	770.54549	0
792	947.11188	-100.89508	-1048.82063	-423.92207	997.55942	-575.26469	-266.07009	1242.47409	2169.24422	1711.14801	1259.56116	874.69525	0
793	914.56508	-22.78276	-938.16151	-446.70483	925.95646	-480.0653	-415.78537	1009.76447	2110.65998	1754.27252	1326.2821	943.04353	0
794	854.3535	48.8202	-804.71963	-452.40052	829.12973	-377.54288	-572.01001	701.38354	1934.90726	1711.14801	1332.79146	974.77666	0
795	768.10448	113.9138	-654.19068	-442.63648	710.33391	-269.32477	-723.35263	336.04571	1646.05441	1581.77448	1279.90291	968.2673	0
796	663.14105	172.49804	-490.64301	-419.04005	576.07836	-158.66565	-856.79451	-53.70222	1270.13887	1381.61166	1176.56682	930.02481	0
797	546.78624	222.94558	-323.84066	-385.67958	434.49978	-49.63387	-960.1306	-426.36308	855.98084	1136.69699	1038.24292	866.55855	0
798	427.99042	265.25642	-162.734	-347.43709	294.54854	51.26121	-1024.41053	-745.32172	451.58685	877.13626	880.39094	787.63256	0
799	315.70396	299.43056	-16.2734	-308.38093	165.17501	140.76491	-1046.37962	-986.98171	96.01306	628.15324	719.28428	698.94253	0
800	214.80888	323.84066	108.21811	-270.13844	52.07488	215.62255	-1029.29255	-1141.57901	-186.33043	407.64867	566.31432	607.81149	0
801	128.55986	338.48672	209.11319	-234.33696	-40.6835	274.20679	-978.03134	-1215.62298	-393.00261	224.57292	427.99042	519.12146	0
802	57.77057	344.18241	286.41184	-201.79016	-114.72747	314.89029	-901.54636	-1222.13234	-526.44449	80.55333	308.38093	436.12712	0
803	1.62734	342.55507	340.11406	-172.49804	-169.24336	340.92773	-808.78798	-1179.00783	-598.86112	-24.4101	210.74053	362.08315	0
804	-39.86983	333.6047	374.2882	-147.27427	-207.48585	353.94645	-710.33391	-1104.96386	-624.89856	-97.6404	132.62821	296.98955	0
805	-70.78929	322.21332	393.00261	-126.11885	-232.70962	357.20113	-614.32085	-1015.46016	-619.20287	-143.20592	74.04397	241.65999	0
806	-92.75838	307.56726	400.32564	-108.21811	-246.54201	353.94645	-527.25816	-924.32912	-593.16543	-169.24336	30.91946	196.09447	0
807	-107.40444	292.9212	400.32564	-92.75838	-253.86504	346.62342	-453.21419	-842.14845	-560.61863	-182.26208	0	158.66565	0
808	-117.16848	278.27514	396.25729	-80.55333	-257.11972	336.85938	-393.00261	-772.17283	-527.25816	-187.95777	-21.96909	128.55986	0
809	-124.49151	266.07009	390.5616	-70.78929	-257.93339	327.90901	-344.99608	-717.65694	-497.96604	-189.58511	-38.24249	104.96343	0
810	-129.37353	255.49238	384.86591	-63.46626	-257.93339	319.77231	-308.38093	-676.97344	-475.18328	-188.77144	-49.63387	87.87636	0
811	-133.44188	246.54201	379.17022	-56.9569	-257.11972	313.26295	-279.90248	-646.86765	-458.90988	-188.77144	-57.77057	74.04397	0
812	-136.69656	238.40531	375.10187	-51.26121	-256.30605	306.75359	-256.30605	-624.08489	-447.5185	-189.58511	-64.27993	63.46626	0
813	-139.13757	231.08228	370.21985	-46.37919	-255.49238	301.0579	-236.77797	-606.18415	-437.75446	-190.39878	-69.97562	54.51589	0
814	-142.39225	222.94558	365.33783	-40.6835	-254.67871	294.54854	-219.6909	-589.09708	-427.17675	-190.39878	-74.04397	48.00653	0
815	-144.83326	213.99521	358.82847	-34.98781	-252.2377	286.41184	-202.60383	-570.38267	-414.9717	-187.95777	-76.48498	41.49717	0
816	-147.27427	204.23117	351.50544	-29.29212	-249.79669	278.27514	-185.51676	-550.85459	-398.6983	-183.07575	-77.29865	35.80148	0
817	-148.90161	192.83979	341.7414	-21.96909	-246.54201	267.69743	-168.42969	-528.07183	-380.79756	-174.93905	-76.48498	30.10579	0
818	-151.34262	179.0074	330.35002	-14.64606	-241.65999	254.67871	-148.90161	-504.4754	-360.45581	-165.98868	-74.85764	25.22377	0
819	-152.96996	163.54767	317.3313	-5.69569	-235.9643	240.84632	-129.37353	-479.25163	-340.11406	-155.41097	-72.41663	18.71441	0
820	-154.5973	147.27427	302.68524	2.44101	-228.64127	225.38659	-109.03178	-454.02786	-320.58598	-145.64693	-70.78929	13.01872	0
821	-155.41097	131.81454	287.22551	10.57771	-221.31824	209.92686	-88.69003	-430.43143	-302.68524	-135.88289	-68.34828	6.50936	0
822	-156.22464	116.35481	272.57945	17.90074	-213.99521	194.46713	-69.16195	-407.64867	-287.22551	-127.74619	-65.90727	1.62734	0
823	-155.41097	103.33609	258.74706	24.4101	-207.48585	181.44841	-51.26121	-386.49325	-272.57945	-120.42316	-63.46626	-1.62734	0
824	-154.5973	93.57205	247.35568	29.29212	-200.97649	170.05703	-34.98781	-366.96517	-257.93339	-112.28646	-58.58424	-3.25468	0
825	-152.96996	85.43535	238.40531	32.5468	-196.09447	161.92033	-21.96909	-349.06443	-244.101	-104.96343	-53.70222	-3.25468	0
826	-151.34262	81.367	232.70962	34.17414	-192.02612	157.03831	-11.39138	-333.6047	-231.08228	-97.6404	-48.00653	-1.62734	0
827	-150.52895	78.11232	228.64127	34.98781	-189.58511	153.78363	-3.25468	-321.39965	-220.50457	-91.13104	-42.31084	0	0
828	-149.71528	77.29865	227.01393	34.17414	-188.77144	152.15629	2.44101	-311.63561	-212.36787	-86.24902	-36.61515	1.62734	0
829	-148.90161	77.29865	226.20026	34.17414	-187.95777	152.15629	7.32303	-305.12625	-206.67218	-82.18067	-32.5468	4.06835	0
830	-148.08794	78.11232	226.20026	33.36047	-187.1441	152.15629	10.57771	-301.0579	-203.4175	-79.73966	-30.10579	6.50936	0
831	-148.08794	78.92599	227.01393	33.36047	-187.95777	152.96996	13.83239	-297.80322	-201.79016	-78.11232	-28.47845	8.1367	0
832	-148.90161	78.11232	227.01393	34.17414	-187.95777	152.96996	17.90074	-294.54854	-200.97649	-77.29865	-26.85111	8.1367	0
833	-149.71528	78.11232	227.8276	34.98781	-188.77144	152.96996	21.15542	-290.48019	-199.34915	-75.67131	-26.85111	8.1367	0
834	-150.52895	77.29865	227.8276	35.80148	-189.58511	152.15629	25.22377	-284.7845	-196.09447	-74.04397	-26.85111	7.32303	0
835	-151.34262	76.48498	227.01393	35.80148	-189.58511	151.34262	30.10579	-279.08881	-190.39878	-71.60296	-26.85111	7.32303	0
836	-150.52895	75.67131	225.38659	36.61515	-187.95777	150.52895	34.17414	-271.76578	-184.70309	-69.16195	-26.85111	6.50936	0
837	-148.90161	74.04397	222.94558	36.61515	-186.33043	148.90161	38.24249	-266.07009	-178.19373	-68.34828	-28.47845	6.50936	0
838	-147.27427	73.2303	220.50457	35.80148	-183.88942	146.4606	41.49717	-261.18807	-174.12538	-68.34828	-30.91946	6.50936	0
839	-145.64693	71.60296	217.24989	35.80148	-182.26208	144.83326	43.93818	-257.11972	-171.68437	-70.78929	-34.17414	5.69569	0
840	-144.83326	70.78929	214.80888	35.80148	-179.82107	142.39225	45.56552	-255.49238	-171.68437	-74.85764	-37.42882	4.06835	0
841	-143.20592	69.16195	212.36787	35.80148	-178.19373	140.76491	48.00653	-253.05137	-172.49804	-78.92599	-40.6835	2.44101	0
842	-141.57858	67.53461	209.11319	36.61515	-175.75272	138.3239	51.26121	-250.61036	-174.12538	-82.18067	-43.12451	0.81367	0
843	-140.76491	65.0936	205.85851	36.61515	-174.12538	135.88289	54.51589	-245.72834	-174.12538	-84.62168	-43.93818	0	0
844	-139.95124	63.46626	203.4175	36.61515	-172.49804	133.44188	59.39791	-240.03265	-172.49804	-84.62168	-43.12451	-1.62734	0
845	-139.13757	61.83892	200.97649	37.42882	-170.8707	131.81454	64.27993	-231.89595	-167.61602	-82.18067	-40.6835	-2.44101	0
846	-139.13757	60.21158	200.16282	38.24249	-170.05703	130.1872	69.97562	-222.94558	-160.29299	-78.11232	-37.42882	-3.25468	0
847	-139.13757	59.39791	198.53548	38.24249	-169.24336	129.37353	74.85764	-213.18154	-152.15629	-73.2303	-33.36047	-3.25468	0
848	-138.3239	58.58424	197.72181	38.24249	-168.42969	128.55986	80.55333	-204.23117	-143.20592	-67.53461	-29.29212	-3.25468	0
849	-137.51023	57.77057	196.09447	38.24249	-166.80235	126.93252	85.43535	-196.90814	-136.69656	-62.65259	-26.03744	-4.06835	0
850	-136.69656	56.9569	193.65346	39.05616	-165.98868	125.30518	90.31737	-189.58511	-130.1872	-59.39791	-23.59643	-4.88202	0
851	-135.88289	55.32956	190.39878	39.05616	-163.54767	122.86417	96.01306	-183.07575	-125.30518	-56.9569	-21.96909	-5.69569	0
852	-135.06922	52.88855	187.95777	39.86983	-161.92033	120.42316	102.52242	-175.75272	-120.42316	-53.70222	-21.15542	-6.50936	0
853	-134.25555	51.26121	184.70309	40.6835	-159.47932	117.98215	109.84545	-165.98868	-114.72747	-50.44754	-19.52808	-7.32303	0
854	-132.62821	49.63387	182.26208	40.6835	-157.85198	115.54114	117.98215	-154.5973	-107.40444	-46.37919	-17.90074	-8.1367	0
855	-131.81454	48.00653	179.82107	40.6835	-156.22464	113.9138	126.93252	-141.57858	-96.82673	-40.6835	-15.45973	-8.1367	0
856	-130.1872	48.00653	177.38006	39.86983	-153.78363	112.28646	135.06922	-126.93252	-85.43535	-34.17414	-13.01872	-8.95037	0
857	-128.55986	47.19286	174.93905	39.05616	-152.15629	110.65912	143.20592	-111.47279	-72.41663	-28.47845	-11.39138	-9.76404	0
858	-126.11885	46.37919	172.49804	39.05616	-149.71528	109.03178	151.34262	-96.01306	-61.02525	-23.59643	-10.57771	-12.20505	0
859	-124.49151	44.75185	169.24336	39.05616	-147.27427	106.59077	159.47932	-81.367	-51.26121	-20.34175	-10.57771	-14.64606	0
860	-122.86417	42.31084	165.17501	39.05616	-144.01959	103.33609	166.80235	-67.53461	-43.12451	-18.71441	-11.39138	-17.08707	0
861	-119.60949	39.86983	160.29299	39.05616	-140.76491	100.08141	175.75272	-52.88855	-35.80148	-17.08707	-11.39138	-20.34175	0
862	-116.35481	37.42882	153.78363	38.24249	-135.88289	96.01306	185.51676	-36.61515	-28.47845	-16.2734	-10.57771	-21.96909	0
863	-113.10013	34.98781	148.08794	37.42882	-131.00087	91.13104	195.2808	-19.52808	-19.52808	-13.83239	-8.95037	-23.59643	0
864	-109.03178	32.5468	140.76491	37.42882	-125.30518	86.24902	206.67218	0	-8.1367	-10.57771	-6.50936	-23.59643	0
865	-104.96343	29.29212	134.25555	36.61515	-120.42316	82.18067	218.06356	21.15542	4.88202	-5.69569	-3.25468	-21.96909	0
866	-100.89508	27.66478	127.74619	35.80148	-114.72747	77.29865	230.26861	43.93818	20.34175	0	0.81367	-20.34175	0
867	-96.82673	24.4101	121.23683	34.98781	-109.03178	73.2303	241.65999	67.53461	37.42882	7.32303	5.69569	-17.90074	0
868	-91.94471	21.96909	113.9138	34.17414	-103.33609	67.53461	253.05137	89.5037	52.88855	13.83239	9.76404	-16.2734	0
869	-87.87636	17.90074	105.7771	33.36047	-97.6404	61.83892	263.62908	110.65912	67.53461	19.52808	13.01872	-15.45973	0
870	-83.80801	14.64606	97.6404	33.36047	-91.13104	56.14323	274.20679	131.81454	79.73966	24.4101	15.45973	-15.45973	0
871	-79.73966	9.76404	89.5037	33.36047	-84.62168	49.63387	284.7845	152.15629	91.13104	28.47845	17.08707	-15.45973	0
872	-74.85764	5.69569	79.73966	33.36047	-78.11232	42.31084	295.36221	173.31171	102.52242	32.5468	18.71441	-16.2734	0
873	-69.97562	0.81367	69.97562	33.36047	-70.78929	35.80148	306.75359	196.90814	114.72747	36.61515	20.34175	-17.08707	0
874	-64.27993	-3.25468	60.21158	32.5468	-62.65259	28.47845	318.14497	220.50457	128.55986	41.49717	22.78276	-17.90074	0
875	-57.77057	-7.32303	49.63387	31.73313	-53.70222	20.34175	328.72268	245.72834	144.83326	47.19286	25.22377	-18.71441	0
876	-51.26121	-13.01872	38.24249	30.91946	-44.75185	12.20505	338.48672	271.76578	161.92033	53.70222	27.66478	-20.34175	0
877	-44.75185	-17.90074	26.03744	30.91946	-35.80148	3.25468	347.43709	296.17588	179.0074	61.02525	30.91946	-21.96909	0
878	-39.05616	-24.4101	13.83239	30.91946	-26.85111	-4.88202	354.76012	318.95864	195.2808	66.72094	33.36047	-23.59643	0
879	-33.36047	-30.10579	1.62734	30.91946	-17.90074	-13.83239	361.26948	340.11406	209.11319	71.60296	36.61515	-25.22377	0
880	-26.85111	-36.61515	-9.76404	30.91946	-8.1367	-23.59643	366.1515	358.82847	220.50457	74.85764	38.24249	-27.66478	0
881	-20.34175	-43.12451	-23.59643	30.91946	0.81367	-33.36047	370.21985	376.72921	230.26861	76.48498	38.24249	-30.91946	0
882	-13.01872	-49.63387	-37.42882	30.91946	11.39138	-43.12451	373.47453	393.00261	238.40531	75.67131	37.42882	-33.36047	0
883	-5.69569	-56.9569	-51.26121	30.10579	21.96909	-53.70222	376.72921	409.27601	247.35568	74.85764	34.98781	-36.61515	0
884	0.81367	-63.46626	-65.0936	30.10579	32.5468	-64.27993	378.35655	425.54941	256.30605	74.04397	33.36047	-39.86983	0
885	7.32303	-69.97562	-78.92599	30.10579	43.12451	-74.04397	379.17022	441.00914	266.88376	73.2303	31.73313	-42.31084	0
886	14.64606	-77.29865	-92.75838	30.10579	53.70222	-84.62168	379.17022	456.46887	278.27514	74.04397	29.29212	-45.56552	0
887	21.96909	-84.62168	-106.59077	30.10579	64.27993	-96.01306	376.72921	470.30126	288.03918	74.85764	27.66478	-48.8202	0
888	28.47845	-91.13104	-121.23683	30.10579	74.85764	-106.59077	373.47453	481.69264	296.17588	76.48498	25.22377	-53.70222	0
889	35.80148	-98.45407	-135.06922	30.10579	85.43535	-117.16848	368.59251	489.82934	301.0579	78.11232	21.96909	-58.58424	0
890	42.31084	-105.7771	-148.90161	30.10579	96.01306	-127.74619	363.71049	495.52503	303.49891	79.73966	18.71441	-63.46626	0
891	49.63387	-112.28646	-162.734	30.10579	105.7771	-137.51023	357.20113	497.96604	303.49891	79.73966	14.64606	-68.34828	0
892	56.14323	-118.79582	-175.75272	30.10579	115.54114	-147.27427	350.69177	499.59338	303.49891	78.92599	10.57771	-71.60296	0
893	62.65259	-125.30518	-187.95777	30.10579	124.49151	-156.22464	343.36874	500.40705	301.87157	78.11232	4.88202	-74.85764	0
894	69.16195	-131.00087	-200.16282	29.29212	134.25555	-165.17501	336.04571	501.22072	301.0579	76.48498	-0.81367	-75.67131	0
895	75.67131	-135.88289	-212.36787	29.29212	143.20592	-174.12538	327.90901	501.22072	300.24423	75.67131	-7.32303	-75.67131	0
896	81.367	-141.57858	-223.75925	28.47845	152.15629	-182.26208	318.95864	500.40705	299.43056	75.67131	-13.83239	-74.04397	0
897	87.06269	-147.27427	-234.33696	28.47845	160.29299	-190.39878	309.1946	497.96604	296.98955	74.85764	-20.34175	-69.97562	0
898	91.13104	-152.15629	-244.101	29.29212	167.61602	-198.53548	298.61689	493.08402	292.9212	73.2303	-26.03744	-65.0936	0
899	95.19939	-157.85198	-253.05137	30.10579	173.31171	-205.85851	286.41184	484.94732	286.41184	69.16195	-31.73313	-59.39791	0
900	97.6404	-162.734	-261.18807	30.91946	179.0074	-212.36787	274.20679	474.36961	277.46147	64.27993	-36.61515	-54.51589	0
901	100.08141	-167.61602	-268.5111	32.5468	183.88942	-218.06356	262.81541	462.97823	266.88376	57.77057	-42.31084	-49.63387	0
902	102.52242	-171.68437	-275.02046	33.36047	188.77144	-223.75925	250.61036	449.95951	255.49238	50.44754	-48.00653	-47.19286	0
903	104.14976	-174.93905	-279.90248	34.17414	192.02612	-227.8276	239.21898	436.12712	244.101	43.12451	-53.70222	-45.56552	0
904	105.7771	-177.38006	-283.97083	34.98781	194.46713	-231.08228	227.8276	423.1084	233.52329	34.98781	-59.39791	-45.56552	0
905	105.7771	-179.82107	-286.41184	35.80148	196.09447	-233.52329	215.62255	408.46234	222.94558	26.85111	-65.90727	-47.19286	0
906	104.96343	-181.44841	-288.03918	37.42882	196.09447	-234.33696	203.4175	393.00261	213.18154	17.90074	-71.60296	-50.44754	0
907	104.14976	-183.07575	-287.22551	38.24249	195.2808	-235.15063	191.21245	375.10187	202.60383	8.95037	-77.29865	-54.51589	0
908	101.70875	-183.07575	-285.59817	39.05616	193.65346	-234.33696	177.38006	355.57379	189.58511	-0.81367	-82.99434	-59.39791	0
909	99.26774	-183.07575	-283.15716	40.6835	190.39878	-232.70962	164.36134	332.79103	174.12538	-12.20505	-87.87636	-64.27993	0
910	96.01306	-181.44841	-278.27514	41.49717	187.1441	-229.45494	150.52895	309.1946	157.03831	-23.59643	-92.75838	-69.16195	0
911	92.75838	-179.0074	-272.57945	41.49717	182.26208	-225.38659	138.3239	285.59817	137.51023	-35.80148	-96.82673	-73.2303	0
912	88.69003	-175.75272	-265.25642	42.31084	176.56639	-220.50457	126.11885	262.00174	118.79582	-47.19286	-100.89508	-78.11232	0
913	84.62168	-171.68437	-257.11972	42.31084	170.8707	-214.80888	114.72747	239.21898	100.08141	-57.77057	-103.33609	-82.18067	0
914	80.55333	-167.61602	-248.16935	42.31084	163.54767	-207.48585	103.33609	218.87723	82.99434	-66.72094	-104.96343	-86.24902	0
915	75.67131	-161.92033	-238.40531	42.31084	156.22464	-200.16282	93.57205	200.16282	68.34828	-74.04397	-104.96343	-89.5037	0
916	69.97562	-156.22464	-227.01393	42.31084	148.08794	-192.02612	83.80801	181.44841	55.32956	-79.73966	-104.14976	-92.75838	0
917	64.27993	-150.52895	-215.62255	41.49717	139.95124	-183.07575	74.04397	163.54767	43.12451	-84.62168	-102.52242	-95.19939	0
918	58.58424	-144.01959	-203.4175	41.49717	131.00087	-174.12538	65.0936	144.83326	30.10579	-88.69003	-100.89508	-97.6404	0
919	52.88855	-137.51023	-191.21245	41.49717	121.23683	-164.36134	55.32956	125.30518	16.2734	-93.57205	-98.45407	-99.26774	0
920	46.37919	-131.00087	-178.19373	41.49717	111.47279	-154.5973	46.37919	104.96343	2.44101	-98.45407	-96.01306	-100.89508	0
921	39.05616	-124.49151	-165.17501	41.49717	101.70875	-144.83326	37.42882	85.43535	-11.39138	-102.52242	-92.75838	-101.70875	0
922	32.5468	-117.16848	-150.52895	41.49717	91.13104	-134.25555	30.10579	66.72094	-24.4101	-106.59077	-88.69003	-100.89508	0
923	26.85111	-109.03178	-136.69656	39.86983	81.367	-122.86417	23.59643	49.63387	-35.80148	-108.21811	-84.62168	-100.08141	0
924	20.34175	-100.89508	-122.0505	39.05616	70.78929	-111.47279	17.08707	34.98781	-45.56552	-108.21811	-80.55333	-98.45407	0
925	15.45973	-91.94471	-108.21811	37.42882	61.83892	-100.89508	11.39138	22.78276	-52.88855	-107.40444	-76.48498	-97.6404	0
926	10.57771	-83.80801	-95.19939	35.80148	52.88855	-90.31737	5.69569	10.57771	-59.39791	-106.59077	-73.2303	-97.6404	0
927	6.50936	-76.48498	-83.80801	34.17414	44.75185	-80.55333	-0.81367	-0.81367	-65.0936	-106.59077	-72.41663	-98.45407	0
928	2.44101	-69.97562	-73.2303	32.5468	38.24249	-71.60296	-8.1367	-13.83239	-73.2303	-106.59077	-72.41663	-100.08141	0
929	0	-63.46626	-64.27993	30.91946	31.73313	-64.27993	-15.45973	-26.85111	-82.18067	-108.21811	-73.2303	-102.52242	0
930	-2.44101	-57.77057	-55.32956	29.29212	25.22377	-56.14323	-22.78276	-40.6835	-91.94471	-109.84545	-74.85764	-104.14976	0
931	-5.69569	-52.07488	-46.37919	27.66478	19.52808	-49.63387	-28.47845	-52.88855	-101.70875	-112.28646	-76.48498	-104.96343	0
932	-8.95037	-47.19286	-38.24249	26.85111	13.83239	-42.31084	-34.17414	-63.46626	-110.65912	-113.10013	-77.29865	-104.96343	0
933	-12.20505	-42.31084	-30.10579	26.03744	8.1367	-35.80148	-37.42882	-72.41663	-117.16848	-113.10013	-76.48498	-103.33609	0
934	-14.64606	-37.42882	-22.78276	25.22377	3.25468	-30.10579	-39.86983	-77.29865	-119.60949	-109.84545	-74.04397	-100.08141	0
935	-17.90074	-33.36047	-15.45973	24.4101	-1.62734	-24.4101	-42.31084	-81.367	-120.42316	-105.7771	-69.97562	-96.82673	0
936	-20.34175	-29.29212	-8.95037	24.4101	-6.50936	-18.71441	-43.93818	-83.80801	-118.79582	-100.89508	-65.90727	-92.75838	0
937	-23.59643	-26.03744	-2.44101	23.59643	-10.57771	-14.64606	-46.37919	-86.24902	-117.16848	-95.19939	-62.65259	-88.69003	0
938	-26.03744	-22.78276	1.62734	23.59643	-14.64606	-10.57771	-48.8202	-89.5037	-116.35481	-91.94471	-59.39791	-85.43535	0
939	-27.66478	-20.34175	6.50936	23.59643	-17.90074	-6.50936	-51.26121	-93.57205	-117.98215	-89.5037	-56.14323	-82.18067	0
940	-29.29212	-17.90074	10.57771	22.78276	-20.34175	-3.25468	-53.70222	-97.6404	-120.42316	-88.69003	-54.51589	-78.11232	0
941	-30.10579	-15.45973	13.83239	21.96909	-22.78276	0	-56.14323	-102.52242	-124.49151	-88.69003	-52.07488	-74.85764	0
942	-31.73313	-13.01872	17.90074	21.15542	-25.22377	2.44101	-57.77057	-106.59077	-127.74619	-89.5037	-49.63387	-70.78929	0
943	-32.5468	-9.76404	21.96909	20.34175	-27.66478	5.69569	-59.39791	-109.03178	-129.37353	-90.31737	-47.19286	-66.72094	0
944	-34.17414	-7.32303	26.03744	19.52808	-30.10579	8.95037	-60.21158	-109.84545	-128.55986	-89.5037	-43.12451	-62.65259	0
945	-34.98781	-4.88202	29.29212	18.71441	-32.5468	12.20505	-61.02525	-110.65912	-126.11885	-87.87636	-39.05616	-58.58424	0
946	-35.80148	-2.44101	33.36047	17.90074	-34.98781	14.64606	-62.65259	-110.65912	-122.0505	-85.43535	-34.17414	-55.32956	0
947	-36.61515	0	35.80148	17.08707	-36.61515	17.08707	-64.27993	-112.28646	-117.98215	-82.18067	-29.29212	-52.07488	0
948	-37.42882	1.62734	38.24249	16.2734	-38.24249	19.52808	-65.90727	-114.72747	-115.54114	-79.73966	-26.03744	-49.63387	0
949	-37.42882	3.25468	40.6835	15.45973	-39.05616	21.96909	-67.53461	-117.98215	-114.72747	-78.11232	-24.4101	-48.8202	0
950	-36.61515	4.88202	41.49717	14.64606	-39.86983	23.59643	-69.16195	-122.0505	-117.16848	-77.29865	-25.22377	-48.8202	0
951	-36.61515	5.69569	42.31084	14.64606	-39.86983	24.4101	-70.78929	-126.11885	-120.42316	-78.11232	-26.85111	-49.63387	0
952	-36.61515	6.50936	43.12451	13.83239	-40.6835	25.22377	-71.60296	-129.37353	-124.49151	-79.73966	-29.29212	-51.26121	0
953	-36.61515	7.32303	43.93818	13.01872	-40.6835	26.03744	-70.78929	-130.1872	-126.93252	-79.73966	-31.73313	-52.88855	0
954	-36.61515	8.1367	44.75185	13.01872	-40.6835	26.85111	-70.78929	-128.55986	-126.93252	-79.73966	-32.5468	-53.70222	0
955	-35.80148	9.76404	45.56552	12.20505	-41.49717	27.66478	-69.16195	-125.30518	-124.49151	-78.11232	-33.36047	-54.51589	0
956	-35.80148	10.57771	46.37919	11.39138	-41.49717	28.47845	-68.34828	-121.23683	-121.23683	-74.85764	-32.5468	-53.70222	0
957	-36.61515	10.57771	47.19286	11.39138	-42.31084	28.47845	-68.34828	-117.16848	-117.16848	-71.60296	-31.73313	-53.70222	0
958	-37.42882	10.57771	48.00653	12.20505	-43.12451	29.29212	-67.53461	-114.72747	-114.72747	-68.34828	-30.10579	-52.88855	0
959	-38.24249	10.57771	48.8202	13.01872	-43.93818	29.29212	-67.53461	-113.9138	-114.72747	-66.72094	-29.29212	-52.88855	0
960	-39.86983	9.76404	49.63387	13.83239	-44.75185	29.29212	-67.53461	-114.72747	-116.35481	-65.0936	-29.29212	-52.88855	0
961	-40.6835	8.95037	50.44754	14.64606	-46.37919	30.10579	-67.53461	-114.72747	-118.79582	-65.0936	-28.47845	-53.70222	0
962	-42.31084	8.95037	51.26121	15.45973	-47.19286	30.10579	-65.90727	-115.54114	-121.23683	-65.0936	-29.29212	-54.51589	0
963	-43.93818	8.95037	52.88855	16.2734	-48.8202	30.91946	-64.27993	-114.72747	-122.86417	-65.0936	-29.29212	-55.32956	0
964	-44.75185	9.76404	54.51589	16.2734	-49.63387	32.5468	-62.65259	-113.10013	-122.86417	-65.0936	-29.29212	-55.32956	0
965	-44.75185	11.39138	56.14323	15.45973	-50.44754	33.36047	-61.02525	-110.65912	-121.23683	-64.27993	-28.47845	-54.51589	0
966	-44.75185	12.20505	56.9569	15.45973	-51.26121	34.17414	-60.21158	-109.03178	-120.42316	-63.46626	-28.47845	-52.88855	0
967	-44.75185	13.01872	57.77057	14.64606	-51.26121	34.98781	-59.39791	-107.40444	-119.60949	-62.65259	-27.66478	-52.07488	0
968	-44.75185	13.01872	57.77057	14.64606	-51.26121	35.80148	-59.39791	-108.21811	-120.42316	-62.65259	-28.47845	-52.07488	0
969	-45.56552	13.01872	58.58424	14.64606	-52.07488	35.80148	-59.39791	-110.65912	-122.86417	-64.27993	-29.29212	-52.07488	0
970	-46.37919	12.20505	59.39791	15.45973	-52.88855	35.80148	-60.21158	-113.10013	-126.93252	-65.90727	-30.91946	-53.70222	0
971	-48.00653	11.39138	59.39791	17.08707	-53.70222	35.80148	-59.39791	-116.35481	-131.81454	-67.53461	-32.5468	-55.32956	0
