samplenr	I	II	III	aVR	aVL	aVF	V1	V2	V3	V4	V5	V6	measurement
0	0	-1.62734	-0.81367	0.81367	0	-1.62734	-0.81367	-5.69569	-5.69569	-7.32303	-4.88202	-4.06835	0
1	-3.25468	-7.32303	-3.25468	5.69569	0	-5.69569	-4.06835	-25.22377	-25.22377	-30.10579	-21.96909	-17.08707	0
2	-5.69569	-10.57771	-2.44101	8.95037	-2.44101	-6.50936	-10.57771	-52.07488	-51.26121	-59.39791	-43.12451	-32.5468	0
3	-5.69569	-4.88202	6.50936	8.1367	-9.76404	0	-17.90074	-76.48498	-72.41663	-81.367	-59.39791	-42.31084	0
4	-4.06835	6.50936	20.34175	0.81367	-17.08707	13.01872	-25.22377	-93.57205	-83.80801	-92.75838	-68.34828	-43.12451	0
5	0	19.52808	29.29212	-8.95037	-19.52808	23.59643	-31.73313	-103.33609	-87.06269	-96.82673	-70.78929	-42.31084	0
6	6.50936	29.29212	30.10579	-19.52808	-15.45973	30.10579	-37.42882	-108.21811	-87.06269	-97.6404	-69.97562	-43.12451	0
7	11.39138	34.17414	26.85111	-24.4101	-10.57771	31.73313	-43.12451	-110.65912	-87.87636	-96.82673	-68.34828	-44.75185	0
8	13.83239	31.73313	19.52808	-24.4101	-3.25468	26.85111	-53.70222	-113.10013	-89.5037	-96.82673	-65.90727	-43.93818	0
9	13.83239	23.59643	7.32303	-21.96909	5.69569	18.71441	-69.97562	-113.9138	-91.13104	-96.01306	-61.83892	-39.05616	0
10	13.83239	17.08707	0	-19.52808	11.39138	11.39138	-80.55333	-114.72747	-92.75838	-94.38572	-58.58424	-33.36047	0
11	15.45973	16.2734	-1.62734	-19.52808	13.01872	9.76404	-83.80801	-116.35481	-92.75838	-92.75838	-56.14323	-29.29212	0
12	21.96909	24.4101	0.81367	-26.03744	13.01872	14.64606	-82.99434	-117.98215	-91.13104	-89.5037	-52.07488	-25.22377	0
13	30.91946	39.05616	8.95037	-36.61515	11.39138	25.22377	-80.55333	-119.60949	-87.06269	-84.62168	-48.00653	-19.52808	0
14	36.61515	51.26121	20.34175	-43.93818	4.88202	36.61515	-78.92599	-122.0505	-84.62168	-81.367	-47.19286	-13.01872	0
15	34.98781	56.14323	29.29212	-46.37919	-1.62734	43.12451	-77.29865	-124.49151	-83.80801	-82.99434	-48.8202	-12.20505	0
16	33.36047	57.77057	30.91946	-47.19286	-2.44101	45.56552	-75.67131	-125.30518	-84.62168	-85.43535	-50.44754	-15.45973	0
17	38.24249	60.21158	26.85111	-50.44754	2.44101	44.75185	-74.04397	-125.30518	-87.06269	-88.69003	-50.44754	-17.08707	0
18	47.19286	60.21158	17.90074	-53.70222	12.20505	40.6835	-78.92599	-130.1872	-91.94471	-96.82673	-55.32956	-20.34175	0
19	50.44754	50.44754	4.88202	-50.44754	21.96909	30.10579	-91.13104	-143.20592	-100.08141	-113.10013	-66.72094	-27.66478	0
20	48.00653	34.98781	-7.32303	-40.6835	27.66478	17.08707	-102.52242	-154.5973	-109.84545	-126.11885	-76.48498	-34.17414	0
21	42.31084	19.52808	-17.08707	-30.91946	29.29212	4.06835	-106.59077	-159.47932	-118.79582	-131.81454	-78.92599	-35.80148	0
22	36.61515	9.76404	-23.59643	-23.59643	30.10579	-4.88202	-105.7771	-160.29299	-124.49151	-131.00087	-77.29865	-36.61515	0
23	34.17414	1.62734	-28.47845	-17.90074	30.91946	-12.20505	-102.52242	-160.29299	-126.11885	-128.55986	-76.48498	-40.6835	0
24	34.98781	-4.88202	-33.36047	-14.64606	30.91946	-18.71441	-97.6404	-157.03831	-123.67784	-126.11885	-77.29865	-49.63387	0
25	36.61515	-14.64606	-42.31084	-11.39138	34.98781	-28.47845	-91.13104	-152.15629	-118.79582	-123.67784	-78.11232	-56.14323	0
26	33.36047	-29.29212	-56.9569	-4.06835	41.49717	-42.31084	-84.62168	-147.27427	-113.9138	-124.49151	-79.73966	-57.77057	0
27	27.66478	-47.19286	-69.97562	7.32303	46.37919	-56.9569	-78.92599	-143.20592	-109.03178	-126.93252	-82.99434	-60.21158	0
28	23.59643	-61.83892	-81.367	17.90074	50.44754	-69.97562	-71.60296	-137.51023	-106.59077	-127.74619	-90.31737	-66.72094	0
29	20.34175	-71.60296	-87.87636	25.22377	52.88855	-77.29865	-61.83892	-131.00087	-105.7771	-126.93252	-104.14976	-76.48498	0
30	11.39138	-78.11232	-85.43535	33.36047	48.8202	-78.92599	-53.70222	-126.93252	-108.21811	-127.74619	-113.9138	-84.62168	0
31	1.62734	-82.18067	-76.48498	41.49717	38.24249	-76.48498	-49.63387	-126.11885	-112.28646	-131.00087	-116.35481	-86.24902	0
32	-3.25468	-84.62168	-67.53461	48.8202	26.85111	-74.04397	-48.00653	-126.93252	-116.35481	-135.06922	-116.35481	-84.62168	0
33	-4.88202	-82.18067	-61.02525	50.44754	20.34175	-70.78929	-48.00653	-128.55986	-118.79582	-136.69656	-114.72747	-79.73966	0
34	-0.81367	-74.85764	-58.58424	42.31084	21.15542	-66.72094	-48.00653	-129.37353	-117.98215	-137.51023	-112.28646	-71.60296	0
35	4.06835	-69.16195	-61.83892	32.5468	27.66478	-65.0936	-47.19286	-129.37353	-115.54114	-138.3239	-109.03178	-66.72094	0
36	5.69569	-70.78929	-69.16195	30.10579	34.17414	-69.16195	-46.37919	-129.37353	-113.10013	-141.57858	-108.21811	-67.53461	0
37	0.81367	-78.92599	-78.92599	34.98781	39.05616	-77.29865	-45.56552	-128.55986	-112.28646	-145.64693	-109.84545	-73.2303	0
38	-5.69569	-91.13104	-91.13104	42.31084	45.56552	-89.5037	-43.93818	-127.74619	-112.28646	-149.71528	-117.98215	-82.99434	0
39	-11.39138	-104.96343	-100.89508	52.07488	49.63387	-100.08141	-41.49717	-126.11885	-113.10013	-152.15629	-131.00087	-95.19939	0
40	-16.2734	-117.98215	-106.59077	61.83892	49.63387	-108.21811	-40.6835	-125.30518	-116.35481	-153.78363	-139.13757	-102.52242	0
41	-22.78276	-128.55986	-107.40444	71.60296	44.75185	-114.72747	-43.93818	-126.93252	-121.23683	-156.22464	-139.13757	-104.96343	0
42	-29.29212	-135.88289	-107.40444	80.55333	39.86983	-119.60949	-48.00653	-131.00087	-126.11885	-159.47932	-136.69656	-104.96343	0
43	-34.17414	-137.51023	-102.52242	84.62168	33.36047	-118.79582	-51.26121	-135.06922	-129.37353	-160.29299	-133.44188	-101.70875	0
44	-39.05616	-137.51023	-94.38572	86.24902	26.03744	-115.54114	-54.51589	-138.3239	-130.1872	-161.10666	-132.62821	-96.01306	0
45	-42.31084	-139.13757	-91.13104	87.87636	21.96909	-114.72747	-56.14323	-140.76491	-131.00087	-161.92033	-132.62821	-94.38572	0
46	-40.6835	-139.13757	-94.38572	86.24902	24.4101	-115.54114	-54.51589	-139.95124	-131.00087	-163.54767	-131.81454	-95.19939	0
47	-34.17414	-135.88289	-97.6404	82.18067	29.29212	-115.54114	-50.44754	-137.51023	-130.1872	-163.54767	-131.00087	-96.82673	0
48	-29.29212	-136.69656	-103.33609	82.18067	34.98781	-117.98215	-47.19286	-135.06922	-131.81454	-165.98868	-130.1872	-100.08141	0
49	-27.66478	-144.83326	-113.10013	86.24902	41.49717	-126.11885	-48.8202	-136.69656	-136.69656	-170.05703	-131.00087	-107.40444	0
50	-24.4101	-151.34262	-121.23683	87.87636	47.19286	-132.62821	-50.44754	-138.3239	-140.76491	-172.49804	-131.00087	-112.28646	0
51	-20.34175	-146.4606	-121.23683	82.99434	49.63387	-131.00087	-50.44754	-135.88289	-139.95124	-170.8707	-129.37353	-110.65912	0
52	-15.45973	-133.44188	-115.54114	74.04397	49.63387	-122.86417	-47.19286	-131.81454	-134.25555	-165.17501	-124.49151	-105.7771	0
53	-10.57771	-118.79582	-106.59077	63.46626	47.19286	-112.28646	-43.93818	-128.55986	-126.93252	-157.03831	-119.60949	-102.52242	0
54	-6.50936	-111.47279	-97.6404	58.58424	43.12451	-104.14976	-43.12451	-127.74619	-122.86417	-152.96996	-119.60949	-106.59077	0
55	-7.32303	-114.72747	-94.38572	61.02525	38.24249	-104.96343	-44.75185	-129.37353	-122.0505	-152.96996	-122.86417	-110.65912	0
56	-15.45973	-124.49151	-95.19939	70.78929	33.36047	-109.84545	-45.56552	-131.81454	-123.67784	-156.22464	-126.93252	-109.84545	0
57	-24.4101	-134.25555	-98.45407	79.73966	30.91946	-114.72747	-46.37919	-133.44188	-126.11885	-159.47932	-130.1872	-109.03178	0
58	-30.10579	-141.57858	-104.96343	86.24902	33.36047	-122.0505	-46.37919	-133.44188	-128.55986	-161.92033	-131.00087	-110.65912	0
59	-33.36047	-148.08794	-113.10013	89.5037	39.86983	-127.74619	-43.93818	-131.81454	-130.1872	-162.734	-129.37353	-114.72747	0
60	-33.36047	-150.52895	-117.98215	88.69003	43.93818	-131.00087	-42.31084	-128.55986	-131.00087	-161.92033	-126.93252	-115.54114	0
61	-30.91946	-148.90161	-119.60949	87.06269	46.37919	-131.00087	-43.12451	-127.74619	-131.81454	-162.734	-127.74619	-112.28646	0
62	-28.47845	-145.64693	-118.79582	84.62168	47.19286	-130.1872	-45.56552	-128.55986	-132.62821	-162.734	-128.55986	-109.84545	0
63	-26.85111	-139.95124	-113.10013	81.367	43.93818	-125.30518	-47.19286	-129.37353	-131.00087	-160.29299	-129.37353	-104.14976	0
64	-28.47845	-135.88289	-104.14976	79.73966	37.42882	-119.60949	-47.19286	-129.37353	-128.55986	-156.22464	-129.37353	-98.45407	0
65	-33.36047	-138.3239	-100.08141	82.18067	32.5468	-118.79582	-48.00653	-130.1872	-126.93252	-154.5973	-131.00087	-95.19939	0
66	-37.42882	-144.83326	-103.33609	87.06269	31.73313	-123.67784	-48.00653	-131.00087	-126.93252	-155.41097	-133.44188	-98.45407	0
67	-37.42882	-152.96996	-111.47279	91.94471	35.80148	-131.00087	-47.19286	-129.37353	-126.93252	-157.85198	-135.88289	-104.14976	0
68	-34.98781	-164.36134	-126.11885	97.6404	43.93818	-143.20592	-43.12451	-122.86417	-124.49151	-158.66565	-135.88289	-113.10013	0
69	-26.03744	-180.63474	-150.52895	103.33609	60.21158	-162.734	-34.17414	-104.14976	-112.28646	-160.29299	-131.81454	-123.67784	0
70	-11.39138	-201.79016	-186.33043	105.7771	86.24902	-190.39878	-19.52808	-69.16195	-86.24902	-160.29299	-126.93252	-129.37353	0
71	8.1367	-225.38659	-229.45494	107.40444	117.98215	-223.75925	1.62734	-17.08707	-44.75185	-150.52895	-126.93252	-131.00087	0
72	30.10579	-244.91467	-273.39312	106.59077	152.15629	-257.11972	37.42882	48.00653	8.95037	-126.11885	-130.1872	-133.44188	0
73	52.88855	-256.30605	-336.85938	100.89508	195.2808	-281.52982	84.62168	126.93252	74.04397	-91.13104	-126.11885	-131.81454	0
74	69.16195	-263.62908	-419.04005	95.19939	246.54201	-296.17588	135.06922	213.99521	148.08794	-50.44754	-109.84545	-124.49151	0
75	80.55333	-273.39312	-469.48759	91.94471	278.27514	-311.63561	182.26208	308.38093	228.64127	-5.69569	-93.57205	-117.16848	0
76	96.82673	-285.59817	-478.43796	89.5037	290.48019	-331.16369	228.64127	409.27601	314.07662	40.6835	-80.55333	-110.65912	0
77	122.0505	-295.36221	-479.25163	82.99434	301.87157	-353.13278	280.71615	521.56247	406.835	94.38572	-61.83892	-103.33609	0
78	153.78363	-270.13844	-450.77318	57.77057	300.24423	-342.55507	340.92773	646.86765	508.54375	159.47932	-28.47845	-84.62168	0
79	188.77144	-196.90814	-382.4249	8.1367	279.08881	-281.52982	411.71702	782.75054	623.27122	247.35568	30.91946	-43.93818	0
80	221.31824	-129.37353	-331.97736	-38.24249	268.5111	-228.64127	484.13365	909.68306	751.83108	366.96517	121.23683	18.71441	0
81	247.35568	-91.13104	-314.89029	-70.78929	273.39312	-203.4175	546.78624	1006.50979	886.9003	516.68045	242.47366	104.96343	0
82	269.32477	-56.14323	-302.68524	-99.26774	278.27514	-180.63474	587.46974	1078.11275	1017.90117	696.50152	396.25729	216.43622	0
83	288.85285	-5.69569	-276.6478	-135.88289	276.6478	-142.39225	601.30213	1120.42359	1135.06965	900.73269	579.33304	348.25076	0
84	302.68524	73.2303	-213.99521	-171.68437	253.86504	-71.60296	589.91075	1109.03221	1223.75968	1117.98258	780.30953	491.45668	0
85	299.43056	192.83979	-96.01306	-205.04484	194.46713	32.5468	558.99129	1028.47888	1263.62951	1322.21375	982.91336	639.54462	0
86	265.25642	355.57379	96.01306	-257.11972	82.18067	178.19373	518.30779	877.13626	1240.84675	1475.99738	1158.66608	775.42751	0
87	191.21245	544.34523	355.57379	-323.84066	-82.18067	387.30692	471.9286	668.83674	1151.34305	1553.29603	1280.71658	871.44057	0
88	87.87636	716.0296	646.86765	-373.47453	-271.76578	621.64388	421.48106	428.80409	1003.25511	1565.50108	1330.35045	910.49673	0
89	-25.22377	852.72616	913.75141	-388.12059	-443.45015	813.67	378.35655	176.56639	803.90596	1508.54418	1296.98998	886.9003	0
90	-135.88289	942.22986	1088.69046	-370.21985	-576.07836	932.46582	335.23204	-74.85764	559.80496	1355.57422	1170.87113	793.32825	0
91	-241.65999	943.04353	1161.10709	-321.39965	-672.09142	975.59033	279.90248	-320.58598	275.83413	1091.94514	950.36656	633.84893	0
92	-347.43709	851.91249	1167.61645	-237.59164	-737.99869	956.87592	207.48585	-563.05964	-48.00653	716.0296	647.68132	421.48106	0
93	-450.77318	692.43317	1110.65955	-129.37353	-767.29081	873.06791	115.54114	-806.34697	-411.71702	248.98302	284.7845	173.31171	0
94	-540.27688	505.28907	1009.76447	-24.4101	-760.78145	746.13539	2.44101	-1043.12494	-785.19155	-252.2377	-91.94471	-78.11232	0
95	-602.92947	360.45581	930.02481	61.83892	-752.64475	644.42664	-124.49151	-1240.84675	-1117.16891	-687.55115	-412.53069	-295.36221	0
96	-628.15324	273.39312	877.94993	125.30518	-743.69438	580.96038	-260.3744	-1369.40661	-1358.8289	-981.28602	-628.15324	-451.58685	0
97	-612.69351	212.36787	812.85633	165.98868	-707.8929	519.12146	-391.37527	-1441.82324	-1489.82977	-1144.83369	-752.64475	-538.64954	0
98	-569.569	160.29299	727.42098	187.1441	-646.86765	449.14584	-506.10274	-1475.18371	-1524.81758	-1210.74096	-807.97431	-563.87331	0
99	-521.56247	111.47279	635.47627	198.53548	-579.33304	378.35655	-594.79277	-1477.62472	-1499.59381	-1204.2316	-806.34697	-551.66826	0
100	-481.69264	68.34828	555.73661	206.67218	-520.7488	316.51763	-657.44536	-1458.09664	-1445.07792	-1157.85241	-772.9865	-528.07183	1000	P+0
101	-452.40052	33.36047	491.45668	211.5542	-473.55594	265.25642	-696.50152	-1419.85415	-1376.72964	-1095.19982	-727.42098	-497.15237	0
102	-423.1084	10.57771	438.56813	207.48585	-432.05877	226.20026	-711.14758	-1362.08358	-1297.80365	-1025.2242	-676.15977	-456.46887	0
103	-382.4249	11.39138	397.07096	186.33043	-379.17022	205.04484	-698.12886	-1277.4619	-1204.2316	-947.11188	-622.45755	-411.71702	0
104	-333.6047	33.36047	371.84719	161.10666	-318.14497	202.60383	-655.00435	-1163.5481	-1092.75881	-862.4902	-567.12799	-375.10187	0
105	-286.41184	66.72094	358.82847	144.83326	-276.6478	213.18154	-590.72442	-1030.10622	-969.08097	-772.17283	-510.98476	-341.7414	0
106	-243.28733	102.52242	350.69177	117.98215	-258.74706	227.8276	-518.30779	-891.78232	-842.96212	-681.85546	-452.40052	-304.31258	0
107	-207.48585	130.1872	341.7414	78.11232	-249.79669	237.59164	-447.5185	-760.78145	-724.97997	-595.60644	-395.44362	-265.25642	0
108	-180.63474	144.01959	327.09534	43.93818	-242.47366	237.59164	-384.86591	-646.05398	-620.83021	-515.86678	-339.30039	-224.57292	0
109	-159.47932	144.83326	307.56726	20.34175	-231.08228	228.64127	-338.48672	-549.22725	-532.95385	-446.70483	-293.73487	-183.88942	0
110	-143.20592	140.76491	288.03918	4.88202	-217.24989	217.24989	-310.00827	-475.18328	-462.16456	-388.93426	-267.69743	-152.15629	0
111	-128.55986	137.51023	270.13844	-4.88202	-202.60383	206.67218	-284.7845	-423.92207	-406.02133	-345.80975	-247.35568	-131.00087	0
112	-110.65912	135.06922	248.16935	-15.45973	-182.26208	193.65346	-257.11972	-379.98389	-362.08315	-313.26295	-222.94558	-117.16848	0
113	-87.06269	132.62821	195.2808	-26.85111	-144.01959	152.15629	-225.38659	-336.04571	-325.468	-286.41184	-195.2808	-104.96343	0
114	-62.65259	125.30518	111.47279	-34.98781	-90.31737	77.29865	-189.58511	-296.17588	-292.10753	-262.81541	-163.54767	-92.75838	0
115	-43.93818	107.40444	51.26121	-36.61515	-51.26121	25.22377	-160.29299	-260.3744	-258.74706	-240.84632	-139.95124	-84.62168	0
116	-35.80148	80.55333	32.5468	-27.66478	-36.61515	12.20505	-142.39225	-227.8276	-228.64127	-221.31824	-129.37353	-81.367	0
117	-34.98781	49.63387	30.91946	-10.57771	-34.98781	12.20505	-130.1872	-197.72181	-202.60383	-205.04484	-126.11885	-80.55333	0
118	-39.86983	18.71441	32.5468	8.1367	-38.24249	12.20505	-121.23683	-172.49804	-182.26208	-192.02612	-123.67784	-77.29865	0
119	-40.6835	-2.44101	31.73313	21.15542	-38.24249	11.39138	-112.28646	-155.41097	-164.36134	-183.88942	-117.98215	-66.72094	0
120	-37.42882	-9.76404	31.73313	22.78276	-35.80148	14.64606	-101.70875	-144.83326	-145.64693	-180.63474	-108.21811	-53.70222	0
121	-31.73313	-4.06835	35.80148	17.90074	-34.98781	21.15542	-91.13104	-129.37353	-126.11885	-170.05703	-97.6404	-44.75185	0
122	-26.03744	3.25468	36.61515	10.57771	-32.5468	24.4101	-82.99434	-109.03178	-108.21811	-151.34262	-87.06269	-39.05616	0
123	-21.15542	8.1367	34.98781	4.88202	-28.47845	24.4101	-76.48498	-84.62168	-91.94471	-125.30518	-73.2303	-33.36047	0
124	-14.64606	11.39138	31.73313	-0.81367	-23.59643	23.59643	-71.60296	-56.9569	-78.11232	-96.01306	-53.70222	-25.22377	0
125	-2.44101	14.64606	22.78276	-9.76404	-13.83239	19.52808	-65.0936	-36.61515	-65.90727	-75.67131	-41.49717	-18.71441	0
126	4.88202	11.39138	9.76404	-13.01872	-2.44101	12.20505	-57.77057	-26.03744	-55.32956	-69.97562	-39.86983	-17.90074	0
127	5.69569	0.81367	-1.62734	-6.50936	3.25468	0.81367	-52.88855	-21.15542	-47.19286	-70.78929	-43.93818	-18.71441	0
128	3.25468	-12.20505	-14.64606	2.44101	8.1367	-11.39138	-48.00653	-17.08707	-39.86983	-71.60296	-45.56552	-17.90074	0
129	4.06835	-22.78276	-24.4101	8.1367	13.01872	-21.15542	-42.31084	-11.39138	-33.36047	-70.78929	-43.93818	-11.39138	0
130	5.69569	-25.22377	-29.29212	8.95037	16.2734	-24.4101	-38.24249	-4.06835	-25.22377	-67.53461	-39.86983	-6.50936	0
131	8.1367	-21.96909	-28.47845	5.69569	17.08707	-22.78276	-35.80148	1.62734	-17.08707	-62.65259	-36.61515	-5.69569	0
132	11.39138	-16.2734	-26.85111	1.62734	18.71441	-19.52808	-33.36047	7.32303	-8.95037	-56.14323	-33.36047	-5.69569	0
133	14.64606	-9.76404	-23.59643	-3.25468	18.71441	-16.2734	-31.73313	12.20505	0	-48.00653	-29.29212	-4.06835	0
134	18.71441	-6.50936	-20.34175	-7.32303	17.90074	-13.01872	-30.91946	17.08707	7.32303	-40.6835	-28.47845	0	0
135	19.52808	-8.95037	-18.71441	-6.50936	15.45973	-13.83239	-29.29212	23.59643	15.45973	-34.98781	-26.85111	2.44101	0
136	13.83239	-16.2734	-19.52808	0	12.20505	-16.2734	-25.22377	30.91946	24.4101	-30.91946	-25.22377	2.44101	0
137	8.1367	-21.15542	-21.15542	5.69569	10.57771	-19.52808	-19.52808	39.86983	30.91946	-26.85111	-22.78276	1.62734	0
138	9.76404	-20.34175	-24.4101	4.88202	13.83239	-20.34175	-13.83239	49.63387	36.61515	-22.78276	-18.71441	-0.81367	0
139	16.2734	-17.08707	-30.10579	0	20.34175	-21.15542	-8.1367	58.58424	41.49717	-18.71441	-12.20505	-6.50936	0
140	22.78276	-13.83239	-33.36047	-4.06835	26.03744	-21.15542	-6.50936	65.0936	44.75185	-15.45973	-7.32303	-8.1367	0
141	26.03744	-9.76404	-33.36047	-8.1367	28.47845	-18.71441	-7.32303	69.16195	48.8202	-13.01872	-5.69569	-4.06835	0
142	27.66478	-4.88202	-29.29212	-10.57771	26.85111	-15.45973	-8.1367	73.2303	54.51589	-8.1367	-1.62734	2.44101	0
143	30.91946	0.81367	-21.15542	-13.01872	21.96909	-8.95037	-7.32303	77.29865	64.27993	0	2.44101	11.39138	0
144	34.98781	8.95037	-12.20505	-19.52808	17.90074	-0.81367	-4.06835	83.80801	75.67131	9.76404	8.1367	23.59643	0
145	38.24249	15.45973	-9.76404	-26.85111	19.52808	3.25468	0	91.94471	87.87636	18.71441	13.01872	31.73313	0
146	40.6835	13.83239	-17.08707	-29.29212	25.22377	0	4.88202	98.45407	96.82673	23.59643	16.2734	32.5468	0
147	42.31084	8.95037	-27.66478	-27.66478	32.5468	-7.32303	8.1367	104.96343	104.96343	25.22377	16.2734	29.29212	0
148	44.75185	7.32303	-37.42882	-29.29212	40.6835	-13.01872	13.01872	113.10013	110.65912	27.66478	19.52808	28.47845	0
149	45.56552	8.95037	-43.12451	-32.5468	47.19286	-14.64606	19.52808	123.67784	113.9138	31.73313	25.22377	32.5468	0
150	44.75185	12.20505	-43.12451	-35.80148	48.8202	-12.20505	24.4101	133.44188	117.16848	36.61515	30.10579	36.61515	0
151	43.93818	14.64606	-37.42882	-35.80148	45.56552	-8.95037	25.22377	139.95124	120.42316	41.49717	32.5468	38.24249	0
152	38.24249	14.64606	-29.29212	-30.91946	36.61515	-5.69569	24.4101	144.83326	125.30518	47.19286	34.17414	39.86983	0
153	27.66478	10.57771	-19.52808	-21.96909	25.22377	-3.25468	28.47845	153.78363	131.81454	57.77057	42.31084	44.75185	0
154	18.71441	7.32303	-9.76404	-16.2734	14.64606	0	40.6835	169.24336	140.76491	76.48498	56.9569	53.70222	0
155	17.90074	8.95037	-4.88202	-17.90074	10.57771	2.44101	51.26121	183.07575	152.15629	90.31737	68.34828	61.02525	0
156	22.78276	15.45973	-7.32303	-25.22377	15.45973	4.88202	52.88855	190.39878	162.734	94.38572	69.16195	62.65259	0
157	24.4101	17.08707	-13.01872	-29.29212	21.96909	3.25468	50.44754	194.46713	170.8707	93.57205	65.90727	61.02525	0
158	24.4101	10.57771	-18.71441	-22.78276	23.59643	-1.62734	46.37919	196.90814	175.75272	90.31737	61.83892	58.58424	0
159	24.4101	0.81367	-19.52808	-13.01872	19.52808	-6.50936	44.75185	196.90814	182.26208	85.43535	62.65259	61.02525	0
160	25.22377	0	-15.45973	-9.76404	14.64606	-4.88202	46.37919	195.2808	191.21245	78.92599	65.90727	65.0936	0
161	29.29212	12.20505	-8.1367	-17.90074	13.83239	4.06835	50.44754	200.97649	203.4175	82.99434	71.60296	69.97562	0
162	39.05616	33.36047	-0.81367	-35.80148	17.90074	17.08707	55.32956	217.24989	218.06356	99.26774	78.92599	76.48498	0
163	51.26121	56.14323	4.88202	-55.32956	22.78276	31.73313	59.39791	234.33696	232.70962	118.79582	92.75838	86.24902	0
164	62.65259	74.04397	11.39138	-71.60296	26.03744	43.12451	61.83892	248.98302	244.91467	135.88289	112.28646	97.6404	0
165	74.85764	83.80801	10.57771	-84.62168	31.73313	48.00653	65.0936	260.3744	255.49238	147.27427	124.49151	104.14976	0
166	87.87636	88.69003	2.44101	-93.57205	42.31084	47.19286	69.16195	270.95211	262.81541	154.5973	125.30518	106.59077	0
167	96.01306	89.5037	-4.88202	-96.82673	50.44754	43.93818	74.04397	281.52982	270.13844	161.92033	123.67784	109.03178	0
168	95.19939	86.24902	-7.32303	-92.75838	49.63387	40.6835	80.55333	293.73487	279.08881	169.24336	126.11885	117.16848	0
169	87.06269	78.92599	-6.50936	-83.80801	44.75185	37.42882	85.43535	306.75359	288.03918	178.19373	132.62821	128.55986	0
170	79.73966	74.04397	-3.25468	-77.29865	39.86983	36.61515	88.69003	317.3313	296.98955	186.33043	139.13757	136.69656	0
171	77.29865	76.48498	0.81367	-77.29865	35.80148	40.6835	91.13104	327.09534	305.93992	194.46713	144.83326	139.95124	0
172	81.367	87.87636	6.50936	-85.43535	35.80148	48.00653	92.75838	336.85938	315.70396	204.23117	152.15629	143.20592	0
173	84.62168	99.26774	14.64606	-93.57205	34.98781	56.9569	93.57205	344.18241	327.09534	213.99521	165.17501	148.90161	0
174	82.99434	104.96343	24.4101	-96.82673	29.29212	64.27993	93.57205	349.8781	336.85938	222.94558	183.07575	157.03831	0
175	78.92599	104.96343	29.29212	-96.82673	24.4101	67.53461	94.38572	354.76012	344.99608	230.26861	194.46713	161.92033	0
176	78.92599	104.96343	28.47845	-96.82673	24.4101	67.53461	96.82673	361.26948	352.31911	236.77797	196.09447	163.54767	0
177	84.62168	104.96343	22.78276	-99.26774	30.10579	65.0936	100.89508	369.40618	358.82847	244.101	195.2808	164.36134	0
178	91.94471	105.7771	13.83239	-101.70875	38.24249	61.02525	104.14976	377.54288	363.71049	251.42403	196.90814	169.24336	0
179	98.45407	106.59077	4.88202	-105.7771	46.37919	57.77057	107.40444	384.86591	367.77884	259.56073	201.79016	178.19373	0
180	104.96343	110.65912	0.81367	-111.47279	52.88855	57.77057	109.03178	391.37527	371.84719	266.88376	208.29952	186.33043	0
181	109.84545	116.35481	3.25468	-116.35481	54.51589	61.83892	109.84545	397.07096	375.91554	273.39312	214.80888	189.58511	0
182	110.65912	122.0505	8.1367	-118.79582	52.07488	66.72094	108.21811	399.51197	379.98389	279.90248	219.6909	191.21245	0
183	109.03178	127.74619	17.08707	-121.23683	46.37919	73.2303	105.7771	399.51197	382.4249	286.41184	224.57292	195.2808	0
184	107.40444	134.25555	27.66478	-124.49151	39.05616	81.367	102.52242	398.6983	385.67958	292.9212	228.64127	202.60383	0
185	106.59077	137.51023	34.17414	-126.93252	34.98781	86.24902	100.89508	397.88463	388.93426	296.98955	232.70962	207.48585	0
186	105.7771	135.06922	31.73313	-124.49151	35.80148	83.80801	100.08141	397.07096	390.5616	298.61689	235.15063	207.48585	0
187	104.96343	127.74619	24.4101	-119.60949	39.05616	77.29865	98.45407	396.25729	388.93426	297.80322	236.77797	205.85851	0
188	110.65912	124.49151	15.45973	-118.79582	45.56552	70.78929	99.26774	397.07096	387.30692	297.80322	240.84632	208.29952	0
189	122.86417	126.93252	5.69569	-125.30518	56.14323	67.53461	100.89508	400.32564	386.49325	300.24423	248.16935	215.62255	0
190	133.44188	131.00087	0	-132.62821	65.0936	66.72094	100.89508	402.76665	386.49325	302.68524	253.86504	222.13191	0
191	135.88289	131.81454	-1.62734	-134.25555	67.53461	66.72094	98.45407	402.76665	385.67958	303.49891	257.11972	222.94558	0
192	132.62821	130.1872	-1.62734	-131.81454	65.90727	65.0936	95.19939	399.51197	384.86591	304.31258	259.56073	222.13191	0
193	126.11885	130.1872	3.25468	-129.37353	61.02525	67.53461	91.94471	396.25729	385.67958	307.56726	262.00174	224.57292	0
194	122.86417	135.06922	13.83239	-131.81454	53.70222	74.04397	89.5037	393.00261	386.49325	310.82194	262.81541	231.08228	0
195	123.67784	142.39225	19.52808	-137.51023	51.26121	80.55333	88.69003	389.74793	387.30692	313.26295	264.44275	235.9643	0
196	131.00087	145.64693	16.2734	-143.20592	56.14323	81.367	88.69003	386.49325	385.67958	314.07662	266.88376	236.77797	0
197	139.13757	145.64693	7.32303	-146.4606	65.0936	77.29865	89.5037	384.05224	383.23857	313.26295	268.5111	234.33696	0
198	144.83326	141.57858	-0.81367	-145.64693	71.60296	70.78929	89.5037	382.4249	380.79756	313.26295	270.95211	234.33696	0
199	147.27427	136.69656	-7.32303	-143.20592	75.67131	65.90727	90.31737	383.23857	379.17022	314.07662	275.83413	239.21898	0
200	148.90161	135.06922	-10.57771	-142.39225	78.11232	63.46626	91.13104	383.23857	378.35655	315.70396	279.90248	244.101	0
201	150.52895	136.69656	-11.39138	-144.01959	78.92599	64.27993	90.31737	382.4249	375.91554	317.3313	282.34349	245.72834	0
202	150.52895	138.3239	-10.57771	-145.64693	79.73966	65.0936	87.06269	376.72921	371.84719	316.51763	282.34349	245.72834	0
203	148.08794	138.3239	-8.95037	-144.83326	78.11232	65.0936	81.367	366.96517	368.59251	315.70396	279.90248	240.84632	0
204	144.83326	135.88289	-7.32303	-143.20592	75.67131	63.46626	75.67131	357.20113	365.33783	314.89029	276.6478	232.70962	0
205	142.39225	130.1872	-10.57771	-140.76491	76.48498	58.58424	70.78929	347.43709	361.26948	313.26295	274.20679	226.20026	0
206	139.13757	120.42316	-17.08707	-134.25555	77.29865	51.26121	68.34828	340.11406	358.82847	311.63561	273.39312	226.20026	0
207	134.25555	112.28646	-20.34175	-126.93252	76.48498	45.56552	69.16195	336.85938	356.38746	312.44928	275.02046	228.64127	0
208	129.37353	107.40444	-23.59643	-122.0505	76.48498	42.31084	71.60296	336.04571	355.57379	314.89029	279.90248	230.26861	0
209	125.30518	103.33609	-28.47845	-118.79582	78.92599	38.24249	74.04397	334.41837	353.13278	316.51763	284.7845	225.38659	0
210	122.0505	97.6404	-33.36047	-115.54114	81.367	33.36047	74.04397	329.53635	349.8781	316.51763	286.41184	221.31824	0
211	125.30518	96.01306	-35.80148	-115.54114	82.99434	30.91946	74.04397	323.84066	346.62342	316.51763	286.41184	220.50457	0
212	132.62821	101.70875	-35.80148	-120.42316	86.24902	33.36047	74.04397	318.14497	344.99608	318.14497	284.7845	221.31824	0
213	137.51023	109.84545	-30.10579	-115.54114	84.62168	39.86983	73.2303	310.82194	344.18241	319.77231	279.08881	218.06356	0
214	133.44188	113.10013	-19.52808	-89.5037	76.48498	45.56552	69.97562	305.93992	339.30039	323.02699	268.5111	207.48585	0
215	119.60949	104.96343	-12.20505	-67.53461	65.0936	44.75185	64.27993	305.12625	331.16369	327.90901	256.30605	197.72181	0
216	101.70875	91.13104	-8.95037	-60.21158	53.70222	39.86983	60.21158	297.80322	321.39965	324.65433	245.72834	192.83979	0
217	87.87636	76.48498	-10.57771	-59.39791	48.00653	32.5468	57.77057	283.15716	310.00827	311.63561	239.21898	191.21245	0
218	87.06269	68.34828	-17.90074	-66.72094	50.44754	26.03744	57.77057	267.69743	300.24423	297.80322	229.45494	187.1441	0
219	100.08141	70.78929	-26.85111	-81.367	61.02525	22.78276	61.02525	256.30605	294.54854	287.22551	216.43622	179.0074	0
220	115.54114	78.11232	-34.98781	-96.82673	73.2303	22.78276	65.0936	248.16935	289.66652	279.90248	208.29952	174.12538	0
221	125.30518	82.99434	-39.86983	-106.59077	80.55333	22.78276	66.72094	240.84632	283.97083	273.39312	208.29952	172.49804	0
222	126.11885	82.99434	-41.49717	-108.21811	82.99434	21.96909	65.90727	231.08228	277.46147	266.07009	209.11319	169.24336	0
223	118.79582	78.11232	-39.86983	-101.70875	78.92599	19.52808	61.83892	218.87723	267.69743	257.11972	204.23117	160.29299	0
224	108.21811	71.60296	-34.98781	-93.57205	71.60296	17.08707	55.32956	204.23117	256.30605	245.72834	194.46713	144.83326	0
225	100.08141	64.27993	-33.36047	-87.06269	65.90727	13.83239	51.26121	190.39878	244.91467	233.52329	183.07575	131.81454	0
226	91.94471	55.32956	-36.61515	-78.11232	63.46626	8.1367	50.44754	179.82107	233.52329	221.31824	172.49804	123.67784	0
227	83.80801	43.93818	-39.86983	-67.53461	61.02525	1.62734	51.26121	170.8707	220.50457	209.11319	161.10666	117.16848	0
228	75.67131	31.73313	-44.75185	-56.14323	60.21158	-5.69569	51.26121	157.85198	206.67218	191.21245	144.01959	106.59077	0
229	69.16195	20.34175	-50.44754	-46.37919	59.39791	-13.83239	51.26121	139.95124	192.83979	167.61602	120.42316	91.13104	0
230	61.83892	8.95037	-53.70222	-36.61515	56.9569	-20.34175	50.44754	126.93252	178.19373	148.08794	101.70875	77.29865	0
231	54.51589	0	-54.51589	-27.66478	52.88855	-25.22377	48.8202	120.42316	164.36134	136.69656	91.13104	67.53461	0
232	48.8202	-5.69569	-54.51589	-21.96909	51.26121	-28.47845	46.37919	115.54114	151.34262	127.74619	83.80801	58.58424	0
233	43.12451	-8.1367	-52.07488	-18.71441	47.19286	-29.29212	43.12451	109.84545	140.76491	118.79582	75.67131	48.00653	0
234	38.24249	-8.1367	-45.56552	-17.08707	41.49717	-27.66478	41.49717	108.21811	130.1872	114.72747	65.90727	34.17414	0
235	33.36047	-8.1367	-40.6835	-16.2734	36.61515	-26.03744	40.6835	110.65912	120.42316	115.54114	55.32956	23.59643	0
236	29.29212	-12.20505	-42.31084	-12.20505	34.98781	-28.47845	39.86983	106.59077	108.21811	108.21811	45.56552	17.08707	0
237	24.4101	-20.34175	-45.56552	-5.69569	34.17414	-33.36047	38.24249	95.19939	95.19939	92.75838	35.80148	11.39138	0
238	16.2734	-29.29212	-49.63387	2.44101	33.36047	-39.05616	36.61515	75.67131	81.367	69.97562	20.34175	2.44101	0
239	7.32303	-39.86983	-51.26121	13.01872	29.29212	-44.75185	34.17414	52.07488	69.16195	42.31084	0	-9.76404	0
240	0.81367	-49.63387	-52.88855	21.96909	26.03744	-49.63387	30.91946	35.80148	57.77057	21.96909	-13.83239	-21.15542	0
241	0	-56.14323	-57.77057	26.03744	28.47845	-55.32956	27.66478	28.47845	48.8202	11.39138	-19.52808	-27.66478	0
242	2.44101	-58.58424	-61.83892	26.03744	31.73313	-58.58424	24.4101	26.03744	41.49717	6.50936	-21.96909	-31.73313	0
243	3.25468	-58.58424	-56.9569	28.47845	26.85111	-57.77057	23.59643	25.22377	37.42882	4.06835	-23.59643	-30.10579	0
244	7.32303	-58.58424	-47.19286	31.73313	17.08707	-53.70222	21.96909	23.59643	33.36047	1.62734	-27.66478	-24.4101	0
245	13.01872	-54.51589	-43.12451	28.47845	14.64606	-50.44754	21.96909	21.96909	30.10579	-0.81367	-30.10579	-21.15542	0
246	18.71441	-48.8202	-47.19286	20.34175	21.96909	-49.63387	24.4101	21.96909	28.47845	-1.62734	-30.10579	-21.15542	0
247	23.59643	-44.75185	-56.9569	13.01872	33.36047	-51.26121	26.85111	21.15542	25.22377	-1.62734	-28.47845	-21.96909	0
248	22.78276	-47.19286	-67.53461	11.39138	42.31084	-56.9569	26.85111	18.71441	21.15542	-4.06835	-27.66478	-26.85111	0
249	18.71441	-55.32956	-76.48498	16.2734	47.19286	-65.0936	24.4101	14.64606	17.90074	-8.1367	-26.85111	-35.80148	0
250	13.01872	-64.27993	-81.367	22.78276	47.19286	-71.60296	21.96909	11.39138	13.83239	-13.01872	-27.66478	-42.31084	1500	QRS+0
251	8.1367	-70.78929	-81.367	28.47845	44.75185	-74.85764	20.34175	8.1367	8.1367	-17.08707	-30.10579	-44.75185	0
252	0.81367	-74.85764	-78.92599	34.17414	40.6835	-75.67131	17.90074	3.25468	2.44101	-21.96909	-34.17414	-46.37919	0
253	-7.32303	-78.92599	-72.41663	40.6835	32.5468	-75.67131	13.83239	-2.44101	-2.44101	-26.85111	-40.6835	-52.07488	0
254	-19.52808	-83.80801	-64.27993	48.00653	21.96909	-75.67131	8.95037	-8.95037	-8.1367	-31.73313	-48.00653	-61.83892	0
255	-32.5468	-91.13104	-58.58424	57.77057	12.20505	-77.29865	5.69569	-14.64606	-12.20505	-35.80148	-52.88855	-66.72094	0
256	-42.31084	-100.08141	-57.77057	66.72094	6.50936	-80.55333	4.88202	-17.08707	-15.45973	-38.24249	-54.51589	-65.0936	0
257	-43.93818	-102.52242	-58.58424	69.97562	5.69569	-81.367	6.50936	-17.08707	-17.08707	-38.24249	-52.07488	-59.39791	0
258	-39.86983	-99.26774	-58.58424	68.34828	7.32303	-78.92599	9.76404	-14.64606	-16.2734	-34.98781	-53.70222	-56.9569	0
259	-30.91946	-94.38572	-61.83892	62.65259	12.20505	-77.29865	12.20505	-12.20505	-16.2734	-32.5468	-63.46626	-60.21158	0
260	-19.52808	-88.69003	-66.72094	54.51589	21.15542	-76.48498	13.01872	-10.57771	-17.08707	-33.36047	-70.78929	-65.0936	0
261	-10.57771	-83.80801	-69.97562	47.19286	26.85111	-75.67131	13.01872	-11.39138	-19.52808	-35.80148	-71.60296	-65.90727	0
262	-13.01872	-80.55333	-66.72094	46.37919	25.22377	-72.41663	11.39138	-13.01872	-23.59643	-38.24249	-69.97562	-65.0936	0
263	-25.22377	-82.18067	-56.9569	52.07488	14.64606	-69.16195	8.95037	-16.2734	-26.03744	-42.31084	-63.46626	-59.39791	0
264	-38.24249	-84.62168	-45.56552	58.58424	3.25468	-66.72094	5.69569	-21.15542	-27.66478	-46.37919	-48.8202	-49.63387	0
265	-42.31084	-82.99434	-40.6835	58.58424	-0.81367	-64.27993	4.88202	-23.59643	-26.03744	-48.00653	-38.24249	-41.49717	0
266	-33.36047	-74.85764	-42.31084	50.44754	2.44101	-60.21158	6.50936	-22.78276	-23.59643	-47.19286	-35.80148	-39.05616	0
267	-17.08707	-63.46626	-46.37919	37.42882	13.01872	-56.14323	8.95037	-18.71441	-20.34175	-43.93818	-38.24249	-39.05616	0
268	0	-51.26121	-51.26121	24.4101	23.59643	-51.26121	12.20505	-14.64606	-18.71441	-39.86983	-40.6835	-43.93818	0
269	9.76404	-46.37919	-56.14323	17.90074	30.91946	-51.26121	14.64606	-13.01872	-19.52808	-38.24249	-43.12451	-53.70222	0
270	11.39138	-51.26121	-61.02525	20.34175	34.17414	-55.32956	13.83239	-13.83239	-22.78276	-39.86983	-47.19286	-61.02525	0
271	4.06835	-60.21158	-62.65259	27.66478	30.91946	-60.21158	11.39138	-15.45973	-27.66478	-43.93818	-52.07488	-63.46626	0
272	-4.88202	-68.34828	-60.21158	37.42882	24.4101	-63.46626	8.95037	-19.52808	-31.73313	-48.8202	-57.77057	-62.65259	0
273	-10.57771	-74.04397	-55.32956	44.75185	17.90074	-65.0936	5.69569	-24.4101	-34.98781	-53.70222	-62.65259	-65.90727	0
274	-13.01872	-73.2303	-49.63387	45.56552	12.20505	-62.65259	3.25468	-28.47845	-37.42882	-56.9569	-68.34828	-70.78929	0
275	-14.64606	-68.34828	-45.56552	42.31084	9.76404	-59.39791	2.44101	-30.10579	-38.24249	-59.39791	-70.78929	-72.41663	0
276	-19.52808	-69.16195	-44.75185	43.12451	8.1367	-59.39791	2.44101	-30.91946	-39.86983	-61.83892	-71.60296	-70.78929	0
277	-27.66478	-74.85764	-45.56552	49.63387	5.69569	-61.83892	1.62734	-32.5468	-43.12451	-62.65259	-73.2303	-69.16195	0
278	-34.17414	-83.80801	-48.8202	57.77057	4.88202	-66.72094	0	-34.17414	-47.19286	-64.27993	-74.04397	-67.53461	0
279	-35.80148	-91.13104	-53.70222	63.46626	6.50936	-71.60296	-0.81367	-34.98781	-48.8202	-64.27993	-72.41663	-62.65259	0
280	-30.91946	-88.69003	-56.14323	60.21158	9.76404	-71.60296	0	-32.5468	-45.56552	-60.21158	-68.34828	-58.58424	0
281	-21.96909	-79.73966	-56.14323	51.26121	14.64606	-66.72094	4.06835	-28.47845	-40.6835	-56.14323	-64.27993	-56.14323	0
282	-16.2734	-73.2303	-56.9569	44.75185	18.71441	-64.27993	4.88202	-26.85111	-37.42882	-54.51589	-63.46626	-56.9569	0
283	-15.45973	-69.16195	-54.51589	40.6835	18.71441	-61.83892	4.06835	-28.47845	-35.80148	-54.51589	-65.90727	-61.02525	0
284	-19.52808	-66.72094	-47.19286	39.86983	13.01872	-58.58424	3.25468	-30.10579	-35.80148	-56.14323	-69.16195	-67.53461	0
285	-29.29212	-71.60296	-42.31084	46.37919	4.88202	-60.21158	0.81367	-34.17414	-39.05616	-60.21158	-73.2303	-73.2303	0
286	-37.42882	-79.73966	-43.93818	54.51589	1.62734	-64.27993	0	-36.61515	-43.12451	-62.65259	-75.67131	-74.04397	0
287	-35.80148	-82.18067	-48.00653	56.14323	4.06835	-65.90727	0	-36.61515	-44.75185	-62.65259	-75.67131	-71.60296	0
288	-27.66478	-78.11232	-51.26121	51.26121	10.57771	-65.0936	1.62734	-34.98781	-45.56552	-61.83892	-73.2303	-70.78929	0
289	-21.96909	-75.67131	-54.51589	47.19286	15.45973	-65.0936	2.44101	-33.36047	-45.56552	-61.02525	-70.78929	-75.67131	0
290	-19.52808	-75.67131	-57.77057	46.37919	17.90074	-65.90727	1.62734	-33.36047	-47.19286	-62.65259	-70.78929	-78.11232	0
291	-17.90074	-77.29865	-60.21158	47.19286	19.52808	-67.53461	0.81367	-34.98781	-49.63387	-65.90727	-73.2303	-78.11232	0
292	-19.52808	-78.11232	-59.39791	48.00653	19.52808	-68.34828	0	-37.42882	-52.07488	-69.16195	-74.85764	-75.67131	0
293	-21.96909	-77.29865	-56.14323	48.00653	16.2734	-66.72094	-1.62734	-40.6835	-52.88855	-70.78929	-78.11232	-71.60296	0
294	-23.59643	-73.2303	-50.44754	45.56552	13.01872	-64.27993	-4.06835	-43.93818	-52.88855	-72.41663	-80.55333	-64.27993	0
295	-23.59643	-69.16195	-46.37919	42.31084	10.57771	-61.02525	-5.69569	-46.37919	-52.88855	-72.41663	-82.18067	-59.39791	0
296	-21.96909	-68.34828	-48.00653	41.49717	11.39138	-60.21158	-6.50936	-47.19286	-52.88855	-72.41663	-82.18067	-61.02525	0
297	-21.96909	-71.60296	-50.44754	43.93818	12.20505	-62.65259	-7.32303	-48.8202	-54.51589	-72.41663	-82.99434	-65.0936	0
298	-25.22377	-77.29865	-52.07488	50.44754	11.39138	-65.0936	-7.32303	-48.8202	-56.9569	-72.41663	-82.99434	-74.04397	0
299	-28.47845	-82.18067	-52.88855	55.32956	9.76404	-67.53461	-7.32303	-49.63387	-59.39791	-72.41663	-81.367	-85.43535	0
300	-29.29212	-85.43535	-53.70222	58.58424	8.95037	-69.16195	-8.95037	-50.44754	-62.65259	-74.04397	-80.55333	-92.75838	0
301	-29.29212	-87.06269	-55.32956	58.58424	9.76404	-69.97562	-9.76404	-52.07488	-65.0936	-78.11232	-81.367	-94.38572	0
302	-29.29212	-84.62168	-53.70222	56.9569	9.76404	-68.34828	-10.57771	-53.70222	-65.90727	-80.55333	-82.99434	-93.57205	0
303	-31.73313	-77.29865	-46.37919	52.88855	6.50936	-61.83892	-10.57771	-54.51589	-65.0936	-82.18067	-84.62168	-87.06269	0
304	-34.98781	-69.97562	-34.98781	49.63387	0	-54.51589	-10.57771	-56.14323	-64.27993	-83.80801	-88.69003	-77.29865	0
305	-38.24249	-67.53461	-30.91946	49.63387	-4.88202	-52.88855	-12.20505	-58.58424	-65.0936	-85.43535	-93.57205	-69.97562	0
306	-40.6835	-70.78929	-32.5468	52.07488	-4.88202	-54.51589	-13.01872	-61.83892	-67.53461	-87.87636	-96.82673	-67.53461	0
307	-39.05616	-73.2303	-35.80148	53.70222	-2.44101	-56.14323	-13.83239	-62.65259	-69.16195	-87.87636	-95.19939	-65.0936	0
308	-34.17414	-73.2303	-39.86983	52.88855	0.81367	-57.77057	-13.83239	-62.65259	-69.16195	-85.43535	-90.31737	-66.72094	0
309	-30.10579	-74.85764	-43.12451	52.88855	3.25468	-58.58424	-13.01872	-61.83892	-68.34828	-83.80801	-82.99434	-74.04397	0
310	-28.47845	-79.73966	-46.37919	56.9569	4.06835	-62.65259	-13.83239	-62.65259	-69.97562	-82.99434	-78.92599	-79.73966	0
311	-26.03744	-85.43535	-48.00653	61.02525	3.25468	-65.90727	-14.64606	-65.0936	-72.41663	-84.62168	-78.92599	-79.73966	0
312	-21.15542	-85.43535	-50.44754	59.39791	6.50936	-67.53461	-15.45973	-66.72094	-74.04397	-87.87636	-80.55333	-77.29865	0
313	-13.83239	-77.29865	-52.07488	50.44754	12.20505	-65.0936	-15.45973	-68.34828	-74.04397	-90.31737	-83.80801	-76.48498	0
314	-6.50936	-71.60296	-48.8202	45.56552	11.39138	-62.65259	-16.2734	-70.78929	-74.85764	-94.38572	-89.5037	-80.55333	0
315	-4.88202	-74.04397	-44.75185	49.63387	5.69569	-63.46626	-17.90074	-74.04397	-76.48498	-99.26774	-93.57205	-84.62168	0
316	-8.95037	-79.73966	-44.75185	55.32956	1.62734	-65.90727	-18.71441	-75.67131	-79.73966	-101.70875	-94.38572	-83.80801	0
317	-17.08707	-82.99434	-45.56552	58.58424	1.62734	-66.72094	-18.71441	-76.48498	-80.55333	-100.08141	-93.57205	-81.367	0
318	-25.22377	-84.62168	-46.37919	60.21158	2.44101	-66.72094	-17.08707	-74.85764	-80.55333	-95.19939	-88.69003	-75.67131	0
319	-30.91946	-87.06269	-48.8202	62.65259	3.25468	-67.53461	-15.45973	-72.41663	-79.73966	-91.13104	-83.80801	-67.53461	0
320	-32.5468	-87.87636	-51.26121	61.83892	5.69569	-69.16195	-13.01872	-70.78929	-78.11232	-88.69003	-80.55333	-63.46626	0
321	-26.03744	-81.367	-52.88855	54.51589	10.57771	-65.90727	-8.95037	-69.16195	-76.48498	-87.87636	-78.92599	-62.65259	0
322	-18.71441	-71.60296	-52.88855	44.75185	16.2734	-61.83892	-6.50936	-69.16195	-76.48498	-87.87636	-78.92599	-63.46626	0
323	-16.2734	-65.0936	-50.44754	39.05616	17.08707	-57.77057	-5.69569	-70.78929	-77.29865	-90.31737	-80.55333	-67.53461	0
324	-19.52808	-62.65259	-45.56552	38.24249	13.01872	-56.9569	-8.1367	-74.04397	-78.92599	-93.57205	-84.62168	-74.04397	0
325	-22.78276	-65.0936	-44.75185	40.6835	10.57771	-59.39791	-12.20505	-78.92599	-82.18067	-97.6404	-88.69003	-79.73966	0
326	-24.4101	-70.78929	-49.63387	43.93818	11.39138	-64.27993	-16.2734	-84.62168	-86.24902	-101.70875	-91.94471	-82.18067	0
327	-22.78276	-75.67131	-54.51589	46.37919	14.64606	-67.53461	-19.52808	-87.06269	-88.69003	-102.52242	-93.57205	-82.99434	0
328	-20.34175	-77.29865	-56.9569	48.00653	16.2734	-68.34828	-21.15542	-87.87636	-89.5037	-101.70875	-92.75838	-79.73966	0
329	-19.52808	-79.73966	-57.77057	50.44754	16.2734	-69.16195	-21.96909	-87.06269	-88.69003	-100.08141	-90.31737	-74.04397	0
330	-21.15542	-82.99434	-59.39791	52.88855	15.45973	-70.78929	-21.96909	-86.24902	-89.5037	-99.26774	-88.69003	-72.41663	0
331	-24.4101	-87.06269	-60.21158	56.9569	14.64606	-72.41663	-21.15542	-85.43535	-90.31737	-100.08141	-90.31737	-74.04397	0
332	-27.66478	-93.57205	-61.02525	62.65259	13.01872	-76.48498	-21.15542	-87.06269	-91.94471	-104.14976	-93.57205	-77.29865	0
333	-27.66478	-99.26774	-59.39791	69.16195	8.95037	-79.73966	-22.78276	-89.5037	-95.19939	-109.03178	-98.45407	-78.11232	0
334	-26.03744	-99.26774	-56.9569	69.16195	5.69569	-80.55333	-24.4101	-91.13104	-96.82673	-113.10013	-100.89508	-74.04397	0
335	-23.59643	-92.75838	-57.77057	62.65259	8.1367	-78.92599	-23.59643	-91.13104	-96.01306	-113.10013	-100.08141	-69.16195	0
336	-18.71441	-85.43535	-61.02525	53.70222	14.64606	-77.29865	-21.96909	-90.31737	-95.19939	-111.47279	-96.82673	-69.16195	0
337	-16.2734	-83.80801	-65.0936	49.63387	21.15542	-77.29865	-20.34175	-89.5037	-92.75838	-109.03178	-95.19939	-71.60296	0
338	-17.08707	-86.24902	-68.34828	51.26121	22.78276	-78.11232	-21.96909	-90.31737	-89.5037	-109.03178	-95.19939	-75.67131	0
339	-21.15542	-88.69003	-67.53461	54.51589	21.96909	-78.92599	-21.96909	-90.31737	-87.06269	-108.21811	-94.38572	-75.67131	0
340	-25.22377	-87.87636	-66.72094	54.51589	21.15542	-76.48498	-20.34175	-87.87636	-87.06269	-106.59077	-93.57205	-75.67131	0
341	-25.22377	-85.43535	-66.72094	52.07488	22.78276	-75.67131	-17.90074	-85.43535	-87.06269	-106.59077	-94.38572	-77.29865	0
342	-21.15542	-84.62168	-69.97562	48.8202	26.03744	-76.48498	-16.2734	-84.62168	-89.5037	-109.03178	-96.01306	-78.92599	0
343	-14.64606	-81.367	-71.60296	44.75185	29.29212	-77.29865	-14.64606	-84.62168	-91.94471	-109.84545	-90.31737	-76.48498	0
344	-7.32303	-74.04397	-67.53461	39.05616	28.47845	-74.04397	-13.83239	-83.80801	-91.94471	-109.03178	-75.67131	-68.34828	0
345	-2.44101	-63.46626	-60.21158	32.5468	25.22377	-65.90727	-11.39138	-82.99434	-89.5037	-104.14976	-64.27993	-61.02525	0
346	-3.25468	-52.07488	-48.00653	27.66478	17.90074	-54.51589	-8.1367	-80.55333	-84.62168	-96.01306	-58.58424	-56.9569	0
347	-8.1367	-41.49717	-33.36047	24.4101	8.95037	-40.6835	-4.06835	-77.29865	-78.11232	-87.06269	-55.32956	-56.14323	0
348	-14.64606	-34.98781	-21.15542	24.4101	0.81367	-29.29212	-1.62734	-75.67131	-72.41663	-79.73966	-61.02525	-56.14323	-1500	QRS-0
349	-21.96909	-31.73313	-12.20505	26.03744	-4.88202	-22.78276	-1.62734	-76.48498	-69.16195	-75.67131	-75.67131	-55.32956	0
350	-28.47845	-31.73313	-6.50936	28.47845	-9.76404	-18.71441	-2.44101	-77.29865	-69.97562	-74.85764	-86.24902	-56.14323	0
351	-30.10579	-32.5468	-4.88202	30.10579	-12.20505	-18.71441	-3.25468	-79.73966	-73.2303	-78.92599	-89.5037	-57.77057	0
352	-29.29212	-33.36047	-6.50936	30.10579	-10.57771	-19.52808	-4.06835	-82.99434	-77.29865	-85.43535	-88.69003	-58.58424	0
353	-27.66478	-32.5468	-7.32303	28.47845	-8.95037	-21.15542	-4.06835	-86.24902	-82.18067	-94.38572	-87.06269	-59.39791	0
354	-27.66478	-33.36047	-7.32303	27.66478	-9.76404	-23.59643	-5.69569	-91.94471	-87.87636	-103.33609	-86.24902	-65.0936	0
355	-27.66478	-34.98781	-7.32303	30.10579	-12.20505	-26.03744	-8.1367	-98.45407	-94.38572	-110.65912	-85.43535	-70.78929	0
356	-30.91946	-34.98781	-4.88202	32.5468	-16.2734	-24.4101	-12.20505	-104.14976	-99.26774	-113.10013	-83.80801	-72.41663	0
357	-34.98781	-31.73313	3.25468	33.36047	-21.96909	-17.08707	-17.08707	-108.21811	-102.52242	-110.65912	-81.367	-69.97562	0
358	-34.17414	-20.34175	15.45973	27.66478	-27.66478	-4.06835	-21.15542	-109.84545	-101.70875	-103.33609	-75.67131	-62.65259	0
359	-29.29212	-3.25468	25.22377	16.2734	-28.47845	9.76404	-25.22377	-109.03178	-98.45407	-95.19939	-68.34828	-50.44754	0
360	-22.78276	11.39138	29.29212	3.25468	-25.22377	20.34175	-28.47845	-107.40444	-95.19939	-88.69003	-61.83892	-41.49717	0
361	-14.64606	21.96909	29.29212	-7.32303	-19.52808	26.03744	-31.73313	-106.59077	-93.57205	-84.62168	-57.77057	-36.61515	0
362	-3.25468	23.59643	22.78276	-11.39138	-12.20505	23.59643	-35.80148	-108.21811	-96.01306	-83.80801	-56.14323	-34.17414	0
363	10.57771	16.2734	11.39138	-11.39138	-4.06835	13.01872	-43.12451	-111.47279	-99.26774	-86.24902	-56.9569	-31.73313	0
364	25.22377	13.01872	0	-13.83239	5.69569	2.44101	-50.44754	-116.35481	-101.70875	-89.5037	-58.58424	-24.4101	0
365	35.80148	15.45973	-9.76404	-21.15542	15.45973	-1.62734	-57.77057	-119.60949	-102.52242	-91.13104	-56.14323	-18.71441	0
366	39.86983	21.96909	-13.01872	-28.47845	20.34175	0	-63.46626	-123.67784	-103.33609	-90.31737	-52.07488	-17.90074	0
367	38.24249	26.85111	-9.76404	-31.73313	20.34175	4.88202	-69.97562	-127.74619	-104.96343	-88.69003	-49.63387	-20.34175	0
368	34.98781	29.29212	-4.88202	-30.91946	17.08707	9.76404	-75.67131	-131.81454	-108.21811	-88.69003	-48.8202	-23.59643	0
369	30.91946	28.47845	-0.81367	-28.47845	13.01872	13.01872	-79.73966	-134.25555	-110.65912	-89.5037	-48.8202	-24.4101	0
370	24.4101	26.03744	2.44101	-23.59643	8.1367	14.64606	-81.367	-135.06922	-113.10013	-90.31737	-51.26121	-26.85111	0
371	15.45973	26.85111	12.20505	-19.52808	-0.81367	20.34175	-81.367	-135.88289	-116.35481	-93.57205	-54.51589	-30.91946	0
372	7.32303	35.80148	27.66478	-21.96909	-10.57771	31.73313	-82.18067	-137.51023	-120.42316	-99.26774	-58.58424	-33.36047	0
373	8.1367	49.63387	38.24249	-30.10579	-14.64606	43.12451	-82.99434	-140.76491	-124.49151	-107.40444	-64.27993	-38.24249	0
374	15.45973	62.65259	42.31084	-41.49717	-12.20505	48.8202	-86.24902	-147.27427	-128.55986	-116.35481	-70.78929	-45.56552	0
375	21.96909	70.78929	42.31084	-48.8202	-9.76404	50.44754	-90.31737	-154.5973	-132.62821	-125.30518	-76.48498	-50.44754	0
376	21.96909	66.72094	38.24249	-46.37919	-8.95037	47.19286	-96.01306	-161.92033	-137.51023	-131.81454	-80.55333	-53.70222	0
377	14.64606	53.70222	29.29212	-38.24249	-5.69569	37.42882	-100.08141	-166.80235	-142.39225	-135.06922	-83.80801	-55.32956	0
378	4.06835	34.98781	10.57771	-29.29212	4.06835	20.34175	-100.89508	-168.42969	-145.64693	-134.25555	-84.62168	-54.51589	0
379	-8.1367	8.1367	-13.83239	-14.64606	17.08707	-3.25468	-98.45407	-165.98868	-147.27427	-133.44188	-84.62168	-51.26121	0
380	-17.08707	-24.4101	-37.42882	6.50936	23.59643	-30.91946	-93.57205	-161.92033	-148.90161	-132.62821	-85.43535	-50.44754	0
381	-19.52808	-54.51589	-56.14323	26.03744	27.66478	-55.32956	-86.24902	-155.41097	-147.27427	-132.62821	-87.06269	-53.70222	0
382	-19.52808	-76.48498	-69.97562	40.6835	30.91946	-73.2303	-76.48498	-148.90161	-145.64693	-131.81454	-89.5037	-57.77057	0
383	-18.71441	-94.38572	-77.29865	54.51589	29.29212	-87.06269	-61.83892	-144.01959	-144.83326	-133.44188	-93.57205	-65.0936	0
384	-13.01872	-104.14976	-78.11232	64.27993	24.4101	-95.19939	-43.12451	-142.39225	-144.83326	-136.69656	-100.08141	-76.48498	0
385	-4.06835	-99.26774	-75.67131	61.02525	22.78276	-93.57205	-30.10579	-139.95124	-143.20592	-138.3239	-103.33609	-82.99434	0
386	1.62734	-86.24902	-73.2303	49.63387	25.22377	-84.62168	-26.03744	-135.88289	-139.13757	-136.69656	-102.52242	-82.18067	0
387	3.25468	-78.92599	-72.41663	43.12451	29.29212	-79.73966	-27.66478	-132.62821	-136.69656	-134.25555	-100.08141	-79.73966	0
388	-0.81367	-82.99434	-76.48498	44.75185	31.73313	-81.367	-31.73313	-131.81454	-136.69656	-132.62821	-99.26774	-83.80801	0
389	-6.50936	-91.94471	-82.18067	51.26121	33.36047	-87.87636	-36.61515	-131.00087	-137.51023	-131.81454	-98.45407	-92.75838	0
390	-9.76404	-101.70875	-89.5037	57.77057	36.61515	-95.19939	-39.86983	-131.00087	-139.13757	-132.62821	-100.08141	-99.26774	0
391	-13.83239	-111.47279	-96.01306	63.46626	38.24249	-103.33609	-41.49717	-131.81454	-141.57858	-137.51023	-104.96343	-101.70875	0
392	-17.90074	-119.60949	-101.70875	68.34828	39.86983	-109.84545	-43.93818	-134.25555	-144.01959	-144.01959	-111.47279	-102.52242	0
393	-21.15542	-124.49151	-104.96343	70.78929	41.49717	-115.54114	-47.19286	-138.3239	-148.08794	-152.96996	-120.42316	-104.96343	0
394	-22.78276	-126.93252	-105.7771	73.2303	40.6835	-120.42316	-49.63387	-142.39225	-152.96996	-161.92033	-128.55986	-110.65912	0
395	-24.4101	-127.74619	-103.33609	75.67131	36.61515	-122.0505	-50.44754	-145.64693	-156.22464	-167.61602	-133.44188	-112.28646	0
396	-29.29212	-131.00087	-100.89508	80.55333	31.73313	-122.0505	-49.63387	-146.4606	-157.85198	-168.42969	-132.62821	-109.84545	0
397	-34.17414	-135.06922	-100.08141	85.43535	28.47845	-121.23683	-49.63387	-145.64693	-158.66565	-165.98868	-129.37353	-106.59077	0
398	-36.61515	-135.06922	-101.70875	84.62168	31.73313	-120.42316	-48.8202	-143.20592	-157.85198	-160.29299	-124.49151	-109.03178	0
399	-39.05616	-131.00087	-104.14976	78.92599	36.61515	-118.79582	-46.37919	-139.95124	-155.41097	-154.5973	-117.98215	-117.16848	0
400	-39.05616	-128.55986	-104.96343	76.48498	39.05616	-116.35481	-42.31084	-135.88289	-152.15629	-150.52895	-113.9138	-124.49151	0
401	-40.6835	-132.62821	-105.7771	79.73966	38.24249	-118.79582	-40.6835	-134.25555	-151.34262	-152.15629	-116.35481	-126.93252	0
402	-42.31084	-141.57858	-109.03178	87.06269	36.61515	-124.49151	-40.6835	-135.06922	-152.96996	-157.03831	-125.30518	-126.93252	0
403	-41.49717	-146.4606	-111.47279	89.5037	37.42882	-129.37353	-40.6835	-136.69656	-155.41097	-161.92033	-134.25555	-119.60949	0
404	-36.61515	-144.01959	-112.28646	87.06269	38.24249	-131.81454	-41.49717	-139.13757	-158.66565	-165.98868	-141.57858	-107.40444	0
405	-31.73313	-140.76491	-113.10013	83.80801	39.05616	-132.62821	-41.49717	-140.76491	-160.29299	-168.42969	-143.20592	-98.45407	0
406	-27.66478	-139.13757	-114.72747	81.367	41.49717	-132.62821	-41.49717	-141.57858	-161.10666	-168.42969	-139.95124	-96.01306	0
407	-25.22377	-138.3239	-115.54114	80.55333	42.31084	-131.00087	-42.31084	-140.76491	-160.29299	-165.98868	-133.44188	-96.82673	0
408	-26.03744	-139.13757	-113.10013	82.18067	41.49717	-128.55986	-43.12451	-139.13757	-157.85198	-161.92033	-127.74619	-97.6404	0
409	-27.66478	-139.13757	-109.84545	84.62168	38.24249	-125.30518	-42.31084	-136.69656	-153.78363	-157.85198	-122.86417	-95.19939	0
410	-30.91946	-139.95124	-105.7771	87.87636	34.17414	-122.86417	-39.86983	-132.62821	-150.52895	-154.5973	-119.60949	-93.57205	0
411	-36.61515	-144.01959	-104.14976	91.94471	30.10579	-123.67784	-39.05616	-131.00087	-148.90161	-156.22464	-121.23683	-95.19939	0
412	-45.56552	-150.52895	-104.14976	98.45407	26.85111	-126.93252	-39.86983	-132.62821	-150.52895	-160.29299	-126.11885	-99.26774	0
413	-52.88855	-154.5973	-103.33609	102.52242	24.4101	-130.1872	-41.49717	-135.88289	-152.96996	-165.17501	-131.00087	-104.14976	0
414	-56.14323	-153.78363	-100.89508	103.33609	21.96909	-131.81454	-43.93818	-138.3239	-154.5973	-168.42969	-135.06922	-110.65912	0
415	-53.70222	-150.52895	-101.70875	100.08141	22.78276	-132.62821	-44.75185	-140.76491	-156.22464	-169.24336	-135.88289	-113.9138	0
416	-47.19286	-145.64693	-104.14976	94.38572	26.03744	-131.00087	-44.75185	-141.57858	-156.22464	-166.80235	-133.44188	-112.28646	0
417	-38.24249	-139.95124	-104.96343	87.87636	31.73313	-126.93252	-43.93818	-139.13757	-153.78363	-161.92033	-128.55986	-107.40444	0
418	-27.66478	-132.62821	-105.7771	79.73966	37.42882	-122.0505	-42.31084	-135.06922	-150.52895	-153.78363	-122.86417	-104.96343	0
419	-20.34175	-130.1872	-108.21811	76.48498	41.49717	-120.42316	-41.49717	-131.81454	-146.4606	-148.08794	-117.98215	-109.84545	0
420	-21.15542	-135.06922	-110.65912	79.73966	41.49717	-122.86417	-39.86983	-129.37353	-144.83326	-145.64693	-116.35481	-113.9138	0
421	-26.03744	-145.64693	-113.10013	89.5037	39.05616	-129.37353	-39.86983	-127.74619	-144.01959	-147.27427	-118.79582	-114.72747	0
422	-29.29212	-160.29299	-119.60949	100.89508	38.24249	-139.95124	-39.05616	-120.42316	-143.20592	-152.15629	-126.11885	-116.35481	0
423	-30.91946	-174.12538	-157.03831	109.03178	55.32956	-153.78363	-35.80148	-100.08141	-137.51023	-151.34262	-133.44188	-119.60949	0
424	-24.4101	-183.88942	-232.70962	108.21811	97.6404	-170.8707	-25.22377	-71.60296	-118.79582	-139.13757	-137.51023	-122.86417	0
425	-9.76404	-196.09447	-292.9212	104.14976	135.88289	-196.09447	-4.88202	-35.80148	-86.24902	-125.30518	-138.3239	-124.49151	0
426	6.50936	-215.62255	-315.70396	104.14976	157.03831	-225.38659	23.59643	14.64606	-40.6835	-113.10013	-139.13757	-126.93252	0
427	26.03744	-235.9643	-324.65433	103.33609	172.49804	-254.67871	61.83892	80.55333	15.45973	-97.6404	-140.76491	-132.62821	0
428	52.88855	-250.61036	-335.23204	97.6404	192.02612	-280.71615	106.59077	160.29299	81.367	-74.85764	-139.13757	-136.69656	0
429	87.06269	-257.93339	-355.57379	85.43535	218.87723	-302.68524	155.41097	250.61036	156.22464	-41.49717	-136.69656	-135.06922	0
430	122.0505	-261.18807	-381.61123	69.97562	249.79669	-322.21332	207.48585	351.50544	240.84632	0	-132.62821	-131.00087	0
431	149.71528	-263.62908	-409.27601	56.9569	278.27514	-339.30039	263.62908	464.60557	333.6047	49.63387	-113.10013	-124.49151	0
432	171.68437	-270.95211	-435.31345	50.44754	301.0579	-355.57379	324.65433	587.46974	434.49978	105.7771	-73.2303	-113.9138	0
433	187.95777	-274.20679	-454.84153	44.75185	318.95864	-367.77884	390.5616	719.28428	542.71789	174.12538	-21.15542	-94.38572	0
434	204.23117	-285.59817	-458.90988	41.49717	328.72268	-363.71049	461.35089	855.16717	663.95472	268.5111	46.37919	-54.51589	0
435	223.75925	-302.68524	-443.45015	39.86983	331.16369	-338.48672	527.25816	983.72703	796.58293	398.6983	146.4606	14.64606	0
436	246.54201	-274.20679	-412.53069	13.83239	326.28167	-293.73487	579.33304	1077.29908	932.46582	566.31432	283.97083	117.16848	0
437	270.13844	-186.33043	-367.77884	-41.49717	316.51763	-235.15063	602.92947	1119.60992	1060.21201	765.66347	456.46887	248.16935	0
438	292.9212	-68.34828	-303.49891	-111.47279	296.17588	-157.85198	593.16543	1115.54157	1167.61645	987.79538	659.0727	402.76665	0
439	307.56726	72.41663	-203.4175	-188.77144	253.05137	-50.44754	564.68698	1060.21201	1236.7784	1211.55463	873.06791	567.12799	0
440	301.0579	244.91467	-43.12451	-270.95211	169.24336	105.7771	528.8855	938.97518	1248.98345	1410.09011	1076.48541	722.53896	0
441	257.11972	448.33217	192.02612	-350.69177	29.29212	319.77231	490.64301	752.64475	1196.0949	1556.55071	1239.21941	846.2168	0
442	173.31171	654.19068	475.99695	-413.34436	-152.15629	563.05964	454.84153	521.56247	1080.55376	1633.03569	1338.48715	920.26077	0
443	65.90727	790.88724	745.32172	-443.45015	-340.11406	778.68219	414.9717	266.07009	908.86939	1622.45798	1355.57422	928.39747	0
444	-50.44754	818.55202	951.18023	-429.61776	-485.76099	923.51545	362.89682	0.81367	685.92381	1511.79886	1279.08924	862.4902	0
445	-170.05703	796.58293	1078.92642	-374.2882	-576.07836	989.42272	296.17588	-258.74706	420.66739	1294.54897	1109.03221	733.11667	0
446	-286.41184	757.52677	1137.51066	-286.41184	-646.86765	991.05006	218.87723	-505.28907	117.98215	972.33565	855.16717	551.66826	0
447	-397.07096	689.99216	1147.2747	-179.82107	-718.47061	946.29821	129.37353	-744.50805	-227.01393	548.41358	527.25816	330.35002	0
448	-490.64301	600.48846	1131.0013	-66.72094	-781.1232	879.57727	21.15542	-983.72703	-606.18415	52.88855	157.85198	91.94471	0
449	-556.55028	528.07183	1117.98258	20.34175	-823.43404	827.50239	-104.96343	-1209.11362	-976.404	-444.26382	-204.23117	-133.44188	0
450	-593.9791	482.50631	1099.26817	69.16195	-827.50239	790.07357	-244.101	-1392.18937	-1279.90291	-860.04919	-508.54375	-321.39965	0
451	-601.30213	409.27601	1020.34218	106.59077	-784.37788	711.96125	-384.05224	-1511.79886	-1476.81105	-1137.51066	-718.47061	-454.84153	0
452	-581.77405	301.0579	882.01828	146.4606	-709.52024	589.09708	-510.98476	-1563.06007	-1563.87374	-1268.51153	-824.24771	-527.25816	0
453	-545.1589	199.34915	714.40226	174.93905	-613.50718	466.23291	-611.06617	-1558.17805	-1565.50108	-1286.41227	-840.52111	-548.41358	0
454	-501.22072	128.55986	543.53156	185.51676	-513.42577	370.21985	-676.15977	-1523.19024	-1515.05354	-1235.96473	-805.5333	-534.58119	0
455	-457.28254	86.24902	429.61776	183.07575	-439.3818	304.31258	-710.33391	-1473.55637	-1440.1959	-1155.4114	-748.5764	-498.77971	0
456	-414.15803	61.83892	380.79756	173.31171	-397.07096	259.56073	-720.91162	-1410.09011	-1353.94688	-1066.72137	-686.73748	-454.02786	0
457	-371.84719	50.44754	361.26948	158.66565	-368.59251	231.08228	-709.52024	-1326.2821	-1257.93382	-977.21767	-626.5259	-410.90335	0
458	-331.16369	56.9569	358.0148	125.30518	-347.43709	219.6909	-672.90509	-1215.62298	-1147.2747	-885.27296	-567.12799	-368.59251	0
459	-292.10753	78.11232	362.08315	74.04397	-330.35002	223.75925	-612.69351	-1082.1811	-1023.59686	-791.70091	-506.91641	-326.28167	0
460	-256.30605	109.03178	369.40618	30.10579	-316.51763	238.40531	-545.97257	-940.60252	-894.22333	-698.12886	-452.40052	-286.41184	0
461	-223.75925	141.57858	374.2882	4.88202	-301.87157	255.49238	-481.69264	-803.09229	-768.91815	-609.43883	-405.20766	-251.42403	0
462	-193.65346	168.42969	369.40618	-10.57771	-283.15716	266.07009	-419.04005	-680.22812	-655.00435	-529.69917	-357.20113	-218.06356	0
463	-167.61602	182.26208	353.13278	-20.34175	-247.35568	264.44275	-361.26948	-577.7057	-560.61863	-462.97823	-305.12625	-186.33043	0
464	-144.01959	186.33043	329.53635	-26.03744	-195.2808	252.2377	-314.07662	-498.77971	-484.94732	-409.27601	-253.86504	-156.22464	0
465	-120.42316	182.26208	299.43056	-31.73313	-155.41097	233.52329	-278.27514	-438.56813	-427.99042	-366.96517	-217.24989	-135.06922	0
466	-100.89508	169.24336	266.07009	-33.36047	-138.3239	211.5542	-249.79669	-391.37527	-384.86591	-334.41837	-196.09447	-122.86417	0
467	-91.13104	147.27427	234.33696	-26.03744	-134.25555	186.33043	-227.8276	-353.13278	-350.69177	-307.56726	-184.70309	-115.54114	0
468	-91.13104	115.54114	205.04484	-9.76404	-134.25555	157.85198	-209.92686	-318.95864	-321.39965	-283.97083	-175.75272	-107.40444	0
469	-94.38572	79.73966	175.75272	8.95037	-131.81454	126.93252	-198.53548	-284.7845	-291.29386	-260.3744	-172.49804	-97.6404	0
470	-96.01306	50.44754	145.64693	22.78276	-122.0505	97.6404	-192.02612	-246.54201	-257.93339	-235.15063	-174.12538	-87.06269	0
471	-92.75838	30.91946	114.72747	26.03744	-103.33609	73.2303	-178.19373	-209.11319	-224.57292	-212.36787	-168.42969	-79.73966	0
472	-79.73966	17.90074	86.24902	24.4101	-81.367	52.88855	-155.41097	-177.38006	-196.90814	-194.46713	-154.5973	-74.85764	0
473	-61.83892	8.1367	66.72094	24.4101	-65.90727	36.61515	-127.74619	-147.27427	-174.12538	-176.56639	-133.44188	-67.53461	0
474	-49.63387	4.06835	55.32956	23.59643	-56.14323	25.22377	-98.45407	-117.16848	-156.22464	-155.41097	-106.59077	-56.14323	0
475	-36.61515	7.32303	46.37919	15.45973	-46.37919	21.15542	-77.29865	-96.01306	-139.13757	-137.51023	-87.06269	-46.37919	0
476	-20.34175	16.2734	37.42882	2.44101	-33.36047	21.15542	-68.34828	-82.99434	-122.86417	-126.93252	-78.11232	-41.49717	0
477	-6.50936	22.78276	29.29212	-6.50936	-21.15542	21.96909	-65.90727	-72.41663	-107.40444	-117.16848	-73.2303	-39.05616	0
478	-0.81367	22.78276	23.59643	-9.76404	-14.64606	21.15542	-65.0936	-63.46626	-92.75838	-109.03178	-69.97562	-35.80148	0
479	-0.81367	19.52808	19.52808	-8.1367	-10.57771	18.71441	-62.65259	-57.77057	-79.73966	-100.08141	-65.90727	-31.73313	0
480	-2.44101	13.01872	13.83239	-4.88202	-8.95037	13.01872	-59.39791	-57.77057	-67.53461	-92.75838	-61.83892	-29.29212	0
481	-2.44101	4.88202	7.32303	-0.81367	-5.69569	6.50936	-55.32956	-52.88855	-58.58424	-87.06269	-58.58424	-29.29212	0
482	0	-0.81367	-0.81367	0.81367	-0.81367	-0.81367	-51.26121	-40.6835	-50.44754	-82.99434	-56.14323	-29.29212	0
483	3.25468	-6.50936	-8.1367	1.62734	4.06835	-8.1367	-47.19286	-26.85111	-43.12451	-79.73966	-54.51589	-24.4101	0
484	6.50936	-8.1367	-13.01872	1.62734	6.50936	-14.64606	-44.75185	-15.45973	-37.42882	-76.48498	-52.88855	-14.64606	0
485	11.39138	-5.69569	-17.90074	-1.62734	11.39138	-17.90074	-41.49717	-5.69569	-30.10579	-71.60296	-49.63387	-6.50936	0
486	17.90074	-1.62734	-22.78276	-8.1367	17.08707	-17.90074	-38.24249	4.06835	-21.96909	-64.27993	-42.31084	-4.88202	0
487	21.96909	0	-23.59643	-11.39138	20.34175	-15.45973	-34.98781	14.64606	-13.01872	-54.51589	-34.17414	-4.06835	0
488	21.15542	2.44101	-19.52808	-12.20505	18.71441	-10.57771	-30.10579	25.22377	-1.62734	-42.31084	-24.4101	-0.81367	0
489	18.71441	3.25468	-14.64606	-9.76404	14.64606	-6.50936	-23.59643	37.42882	8.95037	-29.29212	-13.83239	5.69569	0
490	17.08707	0	-13.83239	-6.50936	12.20505	-6.50936	-17.08707	48.8202	19.52808	-19.52808	-5.69569	10.57771	0
491	14.64606	-6.50936	-19.52808	-1.62734	13.83239	-13.01872	-13.01872	55.32956	25.22377	-16.2734	-2.44101	8.95037	0
492	11.39138	-21.15542	-27.66478	7.32303	15.45973	-23.59643	-13.01872	56.9569	26.85111	-18.71441	-4.88202	3.25468	0
493	11.39138	-33.36047	-32.5468	17.08707	14.64606	-34.17414	-13.83239	57.77057	27.66478	-22.78276	-8.95037	0	0
494	13.83239	-34.98781	-34.17414	17.90074	13.83239	-38.24249	-14.64606	59.39791	30.10579	-25.22377	-13.01872	4.88202	0
495	16.2734	-27.66478	-34.17414	11.39138	16.2734	-36.61515	-13.83239	62.65259	34.98781	-23.59643	-14.64606	8.95037	0
496	19.52808	-17.90074	-33.36047	2.44101	20.34175	-30.91946	-10.57771	69.16195	41.49717	-16.2734	-11.39138	13.83239	0
497	20.34175	-7.32303	-30.10579	-6.50936	22.78276	-21.96909	-4.88202	80.55333	50.44754	-4.88202	-4.88202	20.34175	0
498	17.90074	1.62734	-25.22377	-13.83239	23.59643	-13.83239	0.81367	91.13104	59.39791	7.32303	2.44101	23.59643	0
499	13.83239	1.62734	-23.59643	-13.01872	22.78276	-11.39138	3.25468	99.26774	65.90727	15.45973	8.95037	18.71441	0
500	11.39138	-8.1367	-27.66478	-4.06835	21.96909	-18.71441	3.25468	103.33609	69.16195	18.71441	12.20505	13.01872	0
501	11.39138	-23.59643	-37.42882	4.88202	23.59643	-30.10579	0.81367	105.7771	70.78929	17.08707	11.39138	11.39138	0
502	15.45973	-30.91946	-45.56552	8.1367	29.29212	-38.24249	1.62734	109.84545	74.85764	16.2734	10.57771	13.01872	0
503	23.59643	-21.15542	-46.37919	-1.62734	34.17414	-34.98781	6.50936	122.0505	84.62168	21.15542	13.83239	21.96909	0
504	33.36047	0	-38.24249	-18.71441	36.61515	-21.96909	14.64606	140.76491	96.82673	29.29212	19.52808	36.61515	0
505	39.05616	20.34175	-26.85111	-33.36047	33.36047	-8.1367	22.78276	156.22464	108.21811	38.24249	26.85111	47.19286	0
506	39.05616	30.91946	-15.45973	-38.24249	26.85111	2.44101	28.47845	164.36134	118.79582	48.00653	34.17414	52.07488	0
507	36.61515	36.61515	-5.69569	-38.24249	20.34175	11.39138	31.73313	170.8707	129.37353	58.58424	42.31084	52.88855	0
508	34.98781	40.6835	0	-39.86983	17.90074	17.90074	35.80148	177.38006	139.13757	70.78929	50.44754	56.14323	0
509	33.36047	41.49717	-0.81367	-41.49717	20.34175	19.52808	39.05616	184.70309	146.4606	81.367	57.77057	60.21158	0
510	32.5468	34.98781	-8.1367	-38.24249	24.4101	13.01872	42.31084	192.83979	152.96996	89.5037	62.65259	61.83892	0
511	33.36047	25.22377	-16.2734	-33.36047	27.66478	4.88202	45.56552	200.97649	158.66565	95.19939	65.90727	61.83892	0
512	39.05616	20.34175	-24.4101	-32.5468	33.36047	-1.62734	48.8202	208.29952	164.36134	96.82673	65.0936	60.21158	0
513	48.8202	20.34175	-29.29212	-34.98781	39.05616	-4.88202	49.63387	213.99521	169.24336	96.01306	61.83892	61.02525	0
514	56.9569	21.15542	-28.47845	-35.80148	37.42882	-6.50936	48.8202	217.24989	174.93905	93.57205	58.58424	67.53461	0
515	58.58424	23.59643	-24.4101	-34.98781	33.36047	-5.69569	48.00653	220.50457	180.63474	93.57205	57.77057	71.60296	0
516	60.21158	30.91946	-21.15542	-40.6835	32.5468	0	50.44754	229.45494	190.39878	100.08141	64.27993	74.04397	0
517	65.0936	42.31084	-17.08707	-50.44754	35.80148	8.1367	55.32956	243.28733	202.60383	113.10013	75.67131	78.92599	0
518	68.34828	50.44754	-14.64606	-56.9569	37.42882	15.45973	60.21158	257.11972	215.62255	129.37353	87.87636	86.24902	0
519	65.90727	51.26121	-12.20505	-56.9569	35.80148	17.90074	65.0936	265.25642	227.8276	138.3239	100.08141	94.38572	0
520	61.02525	48.00653	-10.57771	-52.88855	33.36047	17.90074	70.78929	267.69743	239.21898	139.13757	109.84545	101.70875	0
521	58.58424	46.37919	-10.57771	-51.26121	31.73313	17.08707	76.48498	275.02046	249.79669	143.20592	116.35481	104.96343	0
522	61.02525	47.19286	-11.39138	-52.88855	34.17414	17.90074	81.367	288.85285	259.56073	152.96996	120.42316	106.59077	0
523	68.34828	52.07488	-11.39138	-57.77057	35.80148	18.71441	83.80801	308.38093	267.69743	169.24336	122.0505	111.47279	0
524	76.48498	60.21158	-10.57771	-65.0936	39.05616	21.15542	83.80801	331.16369	275.83413	188.77144	123.67784	122.0505	0
525	85.43535	71.60296	-11.39138	-76.48498	43.12451	24.4101	85.43535	346.62342	284.7845	203.4175	126.93252	129.37353	0
526	95.19939	82.99434	-12.20505	-88.69003	49.63387	30.10579	89.5037	355.57379	296.17588	213.18154	135.88289	133.44188	0
527	101.70875	94.38572	-10.57771	-99.26774	54.51589	38.24249	96.82673	365.33783	310.82194	223.75925	149.71528	139.13757	0
528	104.96343	104.14976	-5.69569	-107.40444	55.32956	47.19286	105.7771	376.72921	326.28167	236.77797	165.98868	148.08794	0
529	105.7771	110.65912	0	-110.65912	54.51589	53.70222	113.9138	388.93426	340.92773	250.61036	180.63474	159.47932	0
530	100.89508	107.40444	1.62734	-104.96343	49.63387	54.51589	120.42316	397.88463	351.50544	260.3744	191.21245	165.98868	0
531	90.31737	95.19939	2.44101	-92.75838	43.93818	48.8202	120.42316	401.95298	354.76012	262.00174	192.83979	164.36134	0
532	80.55333	82.18067	0	-81.367	39.05616	41.49717	115.54114	400.32564	353.94645	259.56073	189.58511	159.47932	0
533	73.2303	75.67131	0.81367	-75.67131	35.80148	37.42882	109.84545	398.6983	352.31911	261.18807	192.83979	158.66565	0
534	73.2303	81.367	4.88202	-78.92599	33.36047	39.86983	105.7771	397.88463	353.13278	270.95211	205.04484	165.98868	0
535	78.92599	94.38572	10.57771	-88.69003	32.5468	48.00653	104.96343	400.32564	357.20113	279.90248	216.43622	173.31171	0
536	86.24902	109.03178	17.08707	-100.08141	32.5468	58.58424	108.21811	406.835	363.71049	285.59817	222.94558	178.19373	0
537	94.38572	118.79582	20.34175	-108.21811	34.98781	66.72094	112.28646	414.9717	371.03352	291.29386	228.64127	180.63474	0
538	103.33609	124.49151	19.52808	-113.9138	39.86983	69.97562	115.54114	422.29473	375.91554	297.80322	233.52329	184.70309	0
539	110.65912	126.11885	15.45973	-117.16848	44.75185	69.97562	117.98215	428.80409	380.79756	305.93992	239.21898	192.83979	0
540	117.16848	126.93252	10.57771	-121.23683	51.26121	68.34828	120.42316	433.68611	384.86591	314.07662	244.91467	200.97649	0
541	121.23683	131.00087	6.50936	-126.93252	56.9569	69.16195	122.0505	436.94079	388.12059	318.95864	248.16935	209.11319	0
542	124.49151	137.51023	8.1367	-133.44188	59.39791	73.2303	122.86417	436.94079	390.5616	319.77231	248.98302	216.43622	0
543	129.37353	148.90161	13.01872	-142.39225	59.39791	79.73966	121.23683	435.31345	391.37527	318.95864	249.79669	220.50457	0
544	131.81454	158.66565	20.34175	-148.08794	56.9569	86.24902	116.35481	430.43143	390.5616	315.70396	249.79669	220.50457	0
545	129.37353	161.10666	25.22377	-147.27427	51.26121	87.87636	109.84545	423.1084	386.49325	310.82194	249.79669	218.87723	0
546	125.30518	156.22464	24.4101	-143.20592	48.8202	85.43535	104.14976	417.41271	380.79756	307.56726	253.05137	219.6909	0
547	125.30518	148.08794	18.71441	-138.3239	51.26121	79.73966	100.08141	414.9717	375.91554	307.56726	256.30605	221.31824	0
548	125.30518	137.51023	10.57771	-131.81454	54.51589	72.41663	99.26774	414.15803	371.84719	310.82194	261.18807	225.38659	0
549	122.86417	126.11885	4.88202	-122.86417	56.14323	65.0936	99.26774	414.9717	369.40618	314.89029	266.88376	230.26861	0
550	122.86417	117.98215	0	-117.16848	57.77057	58.58424	100.89508	415.78537	366.96517	318.95864	270.95211	233.52329	0
551	128.55986	119.60949	-4.06835	-120.42316	62.65259	56.9569	102.52242	415.78537	364.52416	321.39965	273.39312	234.33696	0
552	135.88289	129.37353	-3.25468	-131.00087	67.53461	62.65259	105.7771	416.59904	361.26948	323.02699	275.83413	235.15063	0
553	139.13757	141.57858	2.44101	-139.95124	67.53461	70.78929	106.59077	414.15803	358.0148	321.39965	275.83413	233.52329	0
554	139.13757	151.34262	8.95037	-146.4606	64.27993	77.29865	103.33609	412.53069	355.57379	317.3313	273.39312	229.45494	0
555	138.3239	155.41097	11.39138	-148.08794	61.83892	78.92599	98.45407	414.15803	351.50544	312.44928	270.13844	225.38659	0
556	134.25555	150.52895	9.76404	-144.83326	61.02525	75.67131	93.57205	410.90335	345.80975	310.00827	268.5111	224.57292	0
557	128.55986	139.95124	6.50936	-135.88289	60.21158	69.97562	90.31737	401.95298	341.7414	310.82194	270.13844	227.01393	0
558	124.49151	130.1872	2.44101	-127.74619	59.39791	64.27993	88.69003	391.37527	339.30039	314.89029	273.39312	231.08228	0
559	125.30518	122.0505	-2.44101	-122.86417	62.65259	57.77057	87.87636	381.61123	336.85938	318.14497	276.6478	234.33696	0
560	131.00087	117.98215	-11.39138	-122.0505	69.16195	52.88855	88.69003	375.10187	336.04571	321.39965	279.08881	234.33696	0
561	139.13757	119.60949	-17.90074	-127.74619	76.48498	50.44754	89.5037	369.40618	334.41837	322.21332	279.90248	231.89595	0
562	145.64693	123.67784	-21.15542	-134.25555	82.18067	51.26121	88.69003	363.71049	332.79103	320.58598	277.46147	228.64127	0
563	148.08794	128.55986	-20.34175	-139.13757	83.80801	53.70222	83.80801	354.76012	327.90901	315.70396	271.76578	223.75925	0
564	147.27427	135.06922	-15.45973	-142.39225	80.55333	56.9569	79.73966	348.25076	321.39965	310.00827	265.25642	218.06356	0
565	144.01959	139.13757	-9.76404	-143.20592	75.67131	60.21158	76.48498	347.43709	316.51763	305.93992	262.00174	217.24989	0
566	137.51023	136.69656	-6.50936	-139.95124	70.78929	61.02525	74.04397	342.55507	310.82194	305.12625	261.18807	218.06356	0
567	133.44188	130.1872	-7.32303	-133.44188	69.16195	58.58424	72.41663	332.79103	304.31258	305.12625	261.18807	218.06356	0
568	133.44188	121.23683	-13.83239	-127.74619	72.41663	52.07488	71.60296	320.58598	298.61689	305.93992	262.00174	213.18154	0
569	134.25555	110.65912	-23.59643	-121.23683	77.29865	42.31084	71.60296	309.1946	292.9212	305.93992	262.81541	201.79016	0
570	135.88289	100.08141	-34.17414	-115.54114	82.99434	32.5468	72.41663	299.43056	288.03918	305.12625	261.18807	193.65346	0
571	136.69656	92.75838	-42.31084	-113.10013	87.87636	25.22377	73.2303	289.66652	282.34349	301.0579	257.11972	190.39878	0
572	131.81454	87.87636	-43.12451	-109.03178	87.06269	21.96909	70.78929	278.27514	275.83413	293.73487	248.16935	187.1441	0
573	118.79582	78.92599	-40.6835	-99.26774	79.73966	18.71441	65.90727	263.62908	266.07009	283.15716	235.9643	179.82107	0
574	98.45407	64.27993	-37.42882	-82.99434	67.53461	11.39138	57.77057	252.2377	253.05137	268.5111	222.13191	168.42969	0
575	78.11232	47.19286	-35.80148	-64.27993	55.32956	1.62734	50.44754	247.35568	240.03265	255.49238	209.11319	157.03831	0
576	69.97562	36.61515	-39.05616	-55.32956	52.88855	-4.06835	46.37919	240.84632	228.64127	245.72834	199.34915	149.71528	0
577	78.11232	36.61515	-44.75185	-59.39791	60.21158	-6.50936	48.00653	231.08228	222.13191	242.47366	194.46713	146.4606	0
578	92.75838	43.93818	-49.63387	-69.16195	69.97562	-4.06835	52.88855	217.24989	218.87723	235.9643	186.33043	140.76491	0
579	103.33609	48.00653	-54.51589	-74.85764	77.29865	-3.25468	58.58424	196.90814	213.99521	222.13191	169.24336	127.74619	0
580	102.52242	42.31084	-58.58424	-69.97562	78.11232	-8.1367	60.21158	179.82107	205.04484	207.48585	153.78363	113.10013	0
581	92.75838	30.91946	-60.21158	-60.21158	74.85764	-13.83239	57.77057	169.24336	192.02612	197.72181	144.83326	103.33609	0
582	80.55333	22.78276	-57.77057	-51.26121	68.34828	-17.08707	52.88855	161.10666	178.19373	187.95777	137.51023	94.38572	0
583	73.2303	19.52808	-50.44754	-44.75185	59.39791	-15.45973	48.00653	152.15629	165.98868	178.19373	130.1872	84.62168	0
584	69.16195	18.71441	-39.86983	-39.05616	47.19286	-12.20505	43.93818	147.27427	153.78363	171.68437	126.11885	71.60296	0
585	63.46626	19.52808	-31.73313	-34.98781	38.24249	-8.95037	41.49717	148.08794	144.01959	170.8707	126.93252	60.21158	0
586	58.58424	17.08707	-32.5468	-33.36047	37.42882	-10.57771	41.49717	144.83326	135.06922	165.17501	121.23683	51.26121	0
587	53.70222	8.95037	-39.86983	-28.47845	40.6835	-17.08707	40.6835	134.25555	123.67784	150.52895	103.33609	42.31084	0
588	44.75185	-6.50936	-48.8202	-17.08707	43.12451	-29.29212	39.05616	119.60949	111.47279	131.81454	82.18067	36.61515	0
589	32.5468	-24.4101	-56.14323	-1.62734	42.31084	-41.49717	37.42882	107.40444	102.52242	113.9138	64.27993	34.98781	0
590	26.85111	-34.98781	-61.02525	5.69569	43.12451	-48.00653	39.86983	99.26774	93.57205	100.08141	53.70222	34.98781	0
591	30.10579	-30.91946	-61.83892	1.62734	44.75185	-46.37919	44.75185	95.19939	82.99434	88.69003	48.8202	34.98781	0
592	34.98781	-22.78276	-58.58424	-4.88202	46.37919	-39.86983	48.00653	90.31737	73.2303	78.11232	43.93818	30.91946	0
593	34.17414	-17.08707	-53.70222	-8.1367	43.93818	-35.80148	46.37919	81.367	63.46626	64.27993	34.17414	20.34175	0
594	28.47845	-18.71441	-47.19286	-4.06835	35.80148	-34.98781	40.6835	74.04397	52.88855	54.51589	21.15542	5.69569	0
595	20.34175	-26.03744	-41.49717	5.69569	24.4101	-36.61515	34.17414	71.60296	42.31084	52.07488	8.95037	-5.69569	0
596	9.76404	-36.61515	-38.24249	17.08707	16.2734	-40.6835	30.10579	66.72094	32.5468	47.19286	0	-13.01872	0
597	2.44101	-45.56552	-41.49717	24.4101	14.64606	-45.56552	27.66478	56.14323	25.22377	36.61515	-5.69569	-17.08707	0
598	1.62734	-48.8202	-50.44754	23.59643	22.78276	-51.26121	26.85111	45.56552	21.15542	26.03744	-8.95037	-18.71441	0
599	0.81367	-46.37919	-59.39791	17.90074	34.17414	-53.70222	28.47845	38.24249	18.71441	17.90074	-10.57771	-17.90074	0
600	0	-43.93818	-62.65259	13.83239	39.05616	-52.88855	30.10579	34.17414	15.45973	11.39138	-10.57771	-17.90074	0
601	-1.62734	-45.56552	-59.39791	16.2734	35.80148	-52.07488	30.91946	30.10579	10.57771	4.06835	-14.64606	-21.96909	0
602	-4.06835	-50.44754	-53.70222	23.59643	27.66478	-51.26121	26.85111	22.78276	3.25468	-5.69569	-21.96909	-29.29212	0
603	-3.25468	-56.14323	-48.00653	31.73313	18.71441	-52.07488	20.34175	13.83239	-4.88202	-16.2734	-31.73313	-38.24249	0
604	0	-55.32956	-43.93818	33.36047	13.83239	-51.26121	15.45973	5.69569	-10.57771	-24.4101	-39.05616	-46.37919	0
605	0	-50.44754	-42.31084	29.29212	13.01872	-48.8202	13.01872	0.81367	-13.83239	-28.47845	-42.31084	-49.63387	0
606	-0.81367	-47.19286	-42.31084	26.03744	14.64606	-48.00653	13.83239	0	-15.45973	-28.47845	-42.31084	-48.8202	0
607	-3.25468	-48.00653	-43.93818	26.03744	16.2734	-48.00653	15.45973	0	-14.64606	-27.66478	-40.6835	-46.37919	0
608	-2.44101	-50.44754	-47.19286	26.85111	20.34175	-50.44754	16.2734	0	-14.64606	-26.85111	-39.05616	-44.75185	0
609	0	-52.07488	-53.70222	26.03744	26.03744	-54.51589	15.45973	0	-15.45973	-27.66478	-39.05616	-43.93818	0
610	2.44101	-52.07488	-58.58424	24.4101	30.91946	-55.32956	16.2734	0	-17.90074	-28.47845	-39.86983	-44.75185	0
611	3.25468	-50.44754	-59.39791	21.96909	33.36047	-54.51589	16.2734	-0.81367	-20.34175	-31.73313	-43.12451	-48.00653	0
612	5.69569	-48.8202	-59.39791	19.52808	34.17414	-53.70222	13.83239	-4.06835	-24.4101	-35.80148	-48.8202	-52.07488	0
613	2.44101	-49.63387	-56.9569	21.15542	30.91946	-52.88855	9.76404	-8.95037	-29.29212	-41.49717	-55.32956	-55.32956	0
614	-5.69569	-55.32956	-51.26121	30.10579	21.15542	-54.51589	4.88202	-16.2734	-34.98781	-48.00653	-61.83892	-58.58424	0
615	-15.45973	-65.90727	-47.19286	42.31084	9.76404	-58.58424	0.81367	-23.59643	-39.86983	-52.88855	-64.27993	-60.21158	0
616	-24.4101	-74.85764	-44.75185	52.88855	2.44101	-62.65259	0	-27.66478	-43.12451	-54.51589	-63.46626	-59.39791	0
617	-34.17414	-81.367	-41.49717	60.21158	-1.62734	-63.46626	0	-27.66478	-43.93818	-52.88855	-60.21158	-56.9569	0
618	-42.31084	-86.24902	-39.86983	66.72094	-4.88202	-64.27993	0.81367	-26.03744	-43.93818	-50.44754	-56.9569	-60.21158	-1250	T-0
619	-47.19286	-90.31737	-39.86983	71.60296	-6.50936	-65.90727	1.62734	-24.4101	-44.75185	-48.8202	-55.32956	-69.97562	0
620	-50.44754	-95.19939	-42.31084	75.67131	-5.69569	-68.34828	0.81367	-24.4101	-46.37919	-50.44754	-57.77057	-77.29865	0
621	-51.26121	-96.01306	-43.93818	75.67131	-4.06835	-69.97562	0	-26.85111	-48.00653	-52.88855	-61.02525	-78.11232	0
622	-45.56552	-89.5037	-43.93818	68.34828	-0.81367	-66.72094	-0.81367	-27.66478	-48.00653	-55.32956	-64.27993	-74.04397	0
623	-34.98781	-75.67131	-41.49717	55.32956	2.44101	-58.58424	0.81367	-26.85111	-45.56552	-53.70222	-63.46626	-67.53461	0
624	-23.59643	-59.39791	-38.24249	39.86983	6.50936	-49.63387	4.88202	-24.4101	-39.86983	-50.44754	-59.39791	-61.83892	0
625	-9.76404	-43.93818	-39.05616	23.59643	13.01872	-43.12451	10.57771	-21.15542	-34.17414	-45.56552	-54.51589	-55.32956	0
626	3.25468	-32.5468	-42.31084	11.39138	21.15542	-39.05616	14.64606	-17.90074	-30.10579	-40.6835	-49.63387	-49.63387	0
627	11.39138	-30.10579	-46.37919	6.50936	27.66478	-39.86983	15.45973	-16.2734	-30.10579	-39.05616	-47.19286	-47.19286	0
628	13.83239	-34.17414	-49.63387	8.95037	30.91946	-43.12451	13.01872	-17.90074	-34.17414	-39.86983	-46.37919	-52.88855	0
629	8.1367	-43.93818	-52.07488	17.90074	29.29212	-48.8202	8.95037	-21.15542	-39.05616	-43.12451	-48.8202	-66.72094	0
630	-2.44101	-56.14323	-52.07488	30.91946	23.59643	-54.51589	4.06835	-26.03744	-44.75185	-48.8202	-54.51589	-79.73966	0
631	-13.01872	-65.0936	-51.26121	40.6835	17.90074	-57.77057	0.81367	-29.29212	-47.19286	-53.70222	-62.65259	-84.62168	0
632	-17.08707	-66.72094	-49.63387	43.12451	15.45973	-57.77057	0	-30.91946	-46.37919	-56.9569	-69.16195	-81.367	0
633	-15.45973	-63.46626	-48.8202	39.86983	15.45973	-55.32956	1.62734	-30.91946	-43.12451	-57.77057	-72.41663	-74.85764	0
634	-13.01872	-57.77057	-48.00653	34.98781	16.2734	-53.70222	2.44101	-31.73313	-40.6835	-57.77057	-74.04397	-68.34828	0
635	-14.64606	-56.9569	-47.19286	33.36047	14.64606	-53.70222	2.44101	-33.36047	-40.6835	-59.39791	-72.41663	-61.83892	0
636	-20.34175	-62.65259	-48.00653	38.24249	12.20505	-56.9569	0.81367	-35.80148	-42.31084	-60.21158	-69.16195	-57.77057	0
637	-29.29212	-71.60296	-49.63387	46.37919	10.57771	-62.65259	0	-37.42882	-43.93818	-60.21158	-65.90727	-55.32956	0
638	-38.24249	-80.55333	-52.88855	54.51589	10.57771	-68.34828	0	-37.42882	-46.37919	-60.21158	-62.65259	-54.51589	0
639	-43.12451	-91.13104	-56.9569	63.46626	9.76404	-74.85764	-0.81367	-38.24249	-48.8202	-61.02525	-63.46626	-54.51589	0
640	-41.49717	-100.89508	-59.39791	72.41663	8.1367	-80.55333	-2.44101	-39.86983	-52.07488	-63.46626	-65.90727	-56.9569	0
641	-38.24249	-101.70875	-61.02525	72.41663	8.95037	-81.367	-3.25468	-41.49717	-52.88855	-65.90727	-69.16195	-60.21158	0
642	-34.17414	-91.94471	-60.21158	62.65259	13.01872	-75.67131	-1.62734	-40.6835	-50.44754	-65.90727	-69.16195	-59.39791	0
643	-27.66478	-78.11232	-56.9569	50.44754	16.2734	-67.53461	0	-39.86983	-47.19286	-65.90727	-68.34828	-59.39791	0
644	-19.52808	-67.53461	-54.51589	40.6835	17.90074	-61.83892	0.81367	-40.6835	-45.56552	-65.90727	-69.16195	-61.02525	0
645	-12.20505	-59.39791	-53.70222	32.5468	20.34175	-57.77057	0.81367	-43.12451	-44.75185	-66.72094	-69.16195	-61.83892	0
646	-7.32303	-53.70222	-52.88855	26.85111	21.96909	-55.32956	1.62734	-43.93818	-43.93818	-65.90727	-68.34828	-61.83892	0
647	-3.25468	-50.44754	-52.07488	24.4101	23.59643	-52.88855	2.44101	-41.49717	-43.12451	-65.0936	-66.72094	-60.21158	0
648	-1.62734	-51.26121	-51.26121	25.22377	23.59643	-52.88855	2.44101	-40.6835	-43.93818	-65.0936	-66.72094	-59.39791	0
649	-3.25468	-56.14323	-52.07488	30.91946	22.78276	-55.32956	0	-40.6835	-46.37919	-65.90727	-68.34828	-59.39791	0
650	-7.32303	-60.21158	-52.07488	35.80148	21.96909	-56.9569	-0.81367	-41.49717	-48.8202	-67.53461	-70.78929	-60.21158	0
651	-8.1367	-61.83892	-52.88855	36.61515	21.15542	-56.9569	-1.62734	-42.31084	-51.26121	-69.16195	-72.41663	-61.83892	0
652	-7.32303	-61.83892	-53.70222	35.80148	22.78276	-57.77057	-2.44101	-44.75185	-54.51589	-70.78929	-73.2303	-62.65259	0
653	-10.57771	-64.27993	-53.70222	37.42882	21.15542	-58.58424	-4.06835	-47.19286	-56.9569	-72.41663	-74.04397	-64.27993	0
654	-17.90074	-68.34828	-49.63387	43.93818	13.01872	-59.39791	-4.88202	-49.63387	-58.58424	-73.2303	-74.04397	-65.90727	0
655	-26.03744	-74.04397	-43.93818	52.07488	3.25468	-60.21158	-4.88202	-52.88855	-59.39791	-73.2303	-73.2303	-65.90727	0
656	-32.5468	-79.73966	-40.6835	59.39791	-2.44101	-61.83892	-4.88202	-54.51589	-61.02525	-72.41663	-72.41663	-65.0936	0
657	-39.86983	-85.43535	-39.86983	65.0936	-4.88202	-64.27993	-5.69569	-56.14323	-62.65259	-72.41663	-73.2303	-65.90727	0
658	-42.31084	-88.69003	-41.49717	67.53461	-4.06835	-65.90727	-6.50936	-56.14323	-64.27993	-73.2303	-74.04397	-65.0936	0
659	-35.80148	-82.99434	-43.93818	61.02525	0.81367	-64.27993	-4.88202	-53.70222	-62.65259	-72.41663	-73.2303	-61.83892	0
660	-24.4101	-71.60296	-45.56552	50.44754	8.95037	-58.58424	-0.81367	-49.63387	-59.39791	-69.97562	-72.41663	-58.58424	0
661	-22.78276	-65.90727	-43.93818	45.56552	10.57771	-54.51589	0.81367	-48.8202	-56.9569	-69.97562	-71.60296	-57.77057	0
662	-31.73313	-70.78929	-40.6835	52.07488	4.06835	-55.32956	-0.81367	-51.26121	-58.58424	-73.2303	-74.04397	-61.02525	0
663	-38.24249	-77.29865	-40.6835	57.77057	0.81367	-58.58424	-4.06835	-55.32956	-60.21158	-76.48498	-76.48498	-65.90727	0
664	-35.80148	-75.67131	-43.93818	54.51589	3.25468	-59.39791	-6.50936	-58.58424	-61.02525	-77.29865	-76.48498	-69.97562	0
665	-29.29212	-70.78929	-47.19286	48.00653	7.32303	-59.39791	-6.50936	-61.02525	-61.02525	-76.48498	-75.67131	-72.41663	0
666	-25.22377	-66.72094	-47.19286	42.31084	9.76404	-57.77057	-6.50936	-61.83892	-61.02525	-75.67131	-74.85764	-72.41663	0
667	-21.96909	-65.0936	-48.00653	40.6835	12.20505	-56.9569	-5.69569	-61.83892	-61.02525	-75.67131	-74.85764	-70.78929	0
668	-18.71441	-64.27993	-50.44754	39.05616	15.45973	-57.77057	-6.50936	-61.83892	-61.02525	-77.29865	-74.85764	-65.90727	0
669	-20.34175	-64.27993	-52.88855	39.05616	18.71441	-59.39791	-7.32303	-61.02525	-62.65259	-78.92599	-74.85764	-60.21158	0
670	-25.22377	-67.53461	-53.70222	42.31084	18.71441	-60.21158	-8.1367	-61.83892	-65.90727	-80.55333	-74.85764	-56.14323	0
671	-30.91946	-73.2303	-52.07488	49.63387	14.64606	-62.65259	-9.76404	-64.27993	-69.16195	-82.99434	-74.85764	-56.14323	0
672	-40.6835	-83.80801	-49.63387	60.21158	6.50936	-65.90727	-13.01872	-69.16195	-73.2303	-85.43535	-75.67131	-58.58424	0
673	-50.44754	-93.57205	-47.19286	70.78929	0	-69.97562	-16.2734	-72.41663	-74.85764	-87.06269	-77.29865	-61.83892	0
674	-56.14323	-97.6404	-44.75185	74.85764	-5.69569	-70.78929	-18.71441	-74.85764	-74.04397	-87.06269	-77.29865	-65.0936	0
675	-56.14323	-97.6404	-46.37919	74.04397	-5.69569	-72.41663	-18.71441	-76.48498	-72.41663	-86.24902	-77.29865	-67.53461	0
676	-51.26121	-100.89508	-54.51589	72.41663	0	-78.92599	-19.52808	-78.92599	-74.85764	-87.87636	-78.92599	-71.60296	0
677	-44.75185	-106.59077	-65.90727	73.2303	8.95037	-87.06269	-23.59643	-82.18067	-79.73966	-91.94471	-82.99434	-76.48498	0
678	-37.42882	-109.84545	-73.2303	72.41663	17.08707	-92.75838	-26.03744	-84.62168	-84.62168	-96.01306	-85.43535	-79.73966	0
679	-28.47845	-105.7771	-75.67131	67.53461	22.78276	-91.94471	-25.22377	-83.80801	-87.06269	-97.6404	-85.43535	-79.73966	0
680	-20.34175	-96.01306	-74.85764	60.21158	26.03744	-85.43535	-22.78276	-81.367	-87.06269	-97.6404	-84.62168	-77.29865	0
681	-16.2734	-88.69003	-72.41663	54.51589	27.66478	-80.55333	-20.34175	-79.73966	-87.87636	-99.26774	-86.24902	-77.29865	0
682	-17.90074	-87.87636	-70.78929	53.70222	26.03744	-78.92599	-21.15542	-82.18067	-89.5037	-102.52242	-91.13104	-78.11232	0
683	-23.59643	-91.94471	-69.16195	58.58424	21.96909	-79.73966	-23.59643	-84.62168	-91.94471	-106.59077	-96.01306	-81.367	0
684	-29.29212	-93.57205	-67.53461	61.02525	17.90074	-80.55333	-25.22377	-87.87636	-93.57205	-108.21811	-99.26774	-84.62168	0
685	-26.85111	-89.5037	-66.72094	55.32956	17.90074	-78.11232	-23.59643	-88.69003	-91.94471	-108.21811	-98.45407	-84.62168	0
686	-17.90074	-78.92599	-67.53461	44.75185	23.59643	-73.2303	-21.15542	-86.24902	-88.69003	-104.96343	-93.57205	-81.367	0
687	-8.1367	-70.78929	-67.53461	36.61515	28.47845	-69.97562	-17.08707	-81.367	-86.24902	-100.89508	-87.87636	-75.67131	0
688	-3.25468	-68.34828	-66.72094	34.98781	30.91946	-68.34828	-13.83239	-78.11232	-85.43535	-98.45407	-82.99434	-74.85764	0
689	-6.50936	-73.2303	-67.53461	40.6835	29.29212	-71.60296	-13.01872	-78.11232	-87.87636	-99.26774	-82.18067	-82.18067	0
690	-17.90074	-86.24902	-68.34828	53.70222	24.4101	-77.29865	-16.2734	-80.55333	-94.38572	-103.33609	-86.24902	-88.69003	0
691	-31.73313	-101.70875	-67.53461	69.97562	16.2734	-84.62168	-20.34175	-86.24902	-100.89508	-109.84545	-91.94471	-89.5037	0
692	-38.24249	-111.47279	-65.90727	79.73966	9.76404	-87.87636	-23.59643	-90.31737	-105.7771	-113.9138	-94.38572	-87.06269	0
693	-34.17414	-105.7771	-62.65259	75.67131	8.95037	-83.80801	-21.96909	-90.31737	-108.21811	-112.28646	-92.75838	-81.367	0
694	-23.59643	-91.13104	-61.83892	61.02525	13.83239	-75.67131	-19.52808	-87.06269	-105.7771	-107.40444	-88.69003	-74.85764	0
695	-13.83239	-78.11232	-64.27993	46.37919	21.15542	-70.78929	-17.90074	-84.62168	-100.08141	-103.33609	-84.62168	-70.78929	0
696	-8.95037	-74.04397	-69.97562	38.24249	29.29212	-72.41663	-17.08707	-82.99434	-96.01306	-100.89508	-82.99434	-69.16195	0
697	-9.76404	-76.48498	-73.2303	39.05616	31.73313	-74.85764	-17.08707	-81.367	-93.57205	-100.89508	-82.99434	-69.16195	0
698	-15.45973	-81.367	-70.78929	45.56552	28.47845	-76.48498	-17.08707	-79.73966	-92.75838	-101.70875	-82.18067	-67.53461	0
699	-19.52808	-84.62168	-66.72094	51.26121	23.59643	-76.48498	-16.2734	-78.11232	-92.75838	-102.52242	-82.99434	-65.0936	0
700	-21.15542	-83.80801	-63.46626	53.70222	21.15542	-74.04397	-15.45973	-77.29865	-92.75838	-103.33609	-83.80801	-65.0936	0
701	-17.08707	-78.11232	-61.83892	49.63387	21.96909	-69.97562	-13.83239	-76.48498	-92.75838	-102.52242	-82.99434	-64.27993	0
702	-13.83239	-71.60296	-58.58424	44.75185	21.96909	-64.27993	-11.39138	-76.48498	-91.94471	-100.08141	-79.73966	-61.83892	0
703	-19.52808	-68.34828	-49.63387	44.75185	13.83239	-57.77057	-9.76404	-76.48498	-91.13104	-96.01306	-75.67131	-60.21158	0
704	-32.5468	-66.72094	-36.61515	48.8202	0.81367	-50.44754	-9.76404	-78.11232	-90.31737	-91.94471	-73.2303	-60.21158	0
705	-43.12451	-64.27993	-25.22377	51.26121	-9.76404	-43.93818	-10.57771	-81.367	-91.13104	-89.5037	-71.60296	-60.21158	0
706	-48.8202	-61.02525	-17.08707	51.26121	-16.2734	-39.05616	-12.20505	-84.62168	-93.57205	-88.69003	-70.78929	-61.02525	0
707	-49.63387	-58.58424	-13.83239	50.44754	-17.90074	-36.61515	-13.83239	-87.06269	-97.6404	-91.13104	-73.2303	-62.65259	0
708	-43.12451	-54.51589	-13.01872	47.19286	-15.45973	-34.98781	-13.83239	-89.5037	-101.70875	-96.01306	-74.85764	-62.65259	0
709	-30.10579	-45.56552	-15.45973	38.24249	-8.1367	-30.91946	-12.20505	-88.69003	-104.14976	-97.6404	-75.67131	-60.21158	0
710	-16.2734	-33.36047	-17.08707	26.03744	0	-25.22377	-8.1367	-86.24902	-104.14976	-97.6404	-74.85764	-56.14323	0
711	-7.32303	-25.22377	-17.90074	17.90074	4.88202	-21.15542	-4.88202	-85.43535	-104.96343	-97.6404	-74.04397	-53.70222	0
712	-4.06835	-20.34175	-16.2734	13.83239	5.69569	-17.08707	-4.88202	-87.06269	-106.59077	-96.82673	-72.41663	-52.88855	0
713	-1.62734	-15.45973	-10.57771	11.39138	1.62734	-12.20505	-9.76404	-90.31737	-108.21811	-95.19939	-69.97562	-51.26121	0
714	-0.81367	-11.39138	-2.44101	11.39138	-5.69569	-5.69569	-16.2734	-94.38572	-109.03178	-91.94471	-65.0936	-50.44754	0
715	-3.25468	-8.95037	4.06835	10.57771	-12.20505	0	-23.59643	-99.26774	-109.03178	-87.87636	-61.02525	-48.00653	0
716	-4.88202	-4.06835	6.50936	7.32303	-13.01872	1.62734	-29.29212	-103.33609	-109.84545	-85.43535	-57.77057	-45.56552	0
717	-0.81367	3.25468	7.32303	0	-8.1367	5.69569	-34.17414	-105.7771	-110.65912	-83.80801	-56.14323	-42.31084	0
718	4.06835	9.76404	7.32303	-6.50936	-4.06835	8.1367	-40.6835	-107.40444	-112.28646	-83.80801	-55.32956	-39.86983	0
719	6.50936	13.01872	7.32303	-8.1367	-1.62734	9.76404	-48.00653	-109.84545	-113.10013	-84.62168	-54.51589	-36.61515	0
720	7.32303	14.64606	6.50936	-8.95037	0	10.57771	-54.51589	-110.65912	-113.9138	-83.80801	-54.51589	-33.36047	0
721	11.39138	18.71441	4.88202	-13.83239	4.06835	13.01872	-60.21158	-111.47279	-117.16848	-82.99434	-52.88855	-30.91946	0
722	19.52808	24.4101	3.25468	-21.15542	8.1367	14.64606	-67.53461	-114.72747	-120.42316	-82.99434	-51.26121	-29.29212	0
723	21.96909	25.22377	0.81367	-23.59643	10.57771	14.64606	-75.67131	-121.23683	-124.49151	-85.43535	-52.07488	-30.10579	0
724	15.45973	21.96909	1.62734	-19.52808	6.50936	13.01872	-82.18067	-128.55986	-127.74619	-87.87636	-52.88855	-33.36047	0
725	4.88202	14.64606	4.06835	-13.01872	0	10.57771	-86.24902	-135.06922	-131.00087	-91.94471	-56.14323	-38.24249	0
726	-2.44101	8.95037	5.69569	-7.32303	-4.06835	8.1367	-87.87636	-138.3239	-134.25555	-95.19939	-59.39791	-43.12451	0
727	-2.44101	9.76404	7.32303	-6.50936	-4.88202	8.1367	-86.24902	-139.13757	-135.06922	-96.01306	-59.39791	-44.75185	0
728	1.62734	16.2734	8.95037	-12.20505	-2.44101	11.39138	-84.62168	-138.3239	-136.69656	-98.45407	-58.58424	-42.31084	0
729	5.69569	20.34175	5.69569	-17.08707	3.25468	12.20505	-84.62168	-139.95124	-140.76491	-101.70875	-59.39791	-39.05616	0
730	8.1367	17.08707	-2.44101	-15.45973	10.57771	6.50936	-87.06269	-143.20592	-147.27427	-106.59077	-63.46626	-36.61515	0
731	11.39138	5.69569	-14.64606	-10.57771	17.90074	-4.06835	-91.13104	-148.90161	-154.5973	-113.9138	-67.53461	-37.42882	0
732	15.45973	-5.69569	-28.47845	-5.69569	25.22377	-16.2734	-95.19939	-154.5973	-160.29299	-119.60949	-70.78929	-39.05616	0
733	14.64606	-20.34175	-39.86983	1.62734	28.47845	-29.29212	-98.45407	-158.66565	-164.36134	-123.67784	-73.2303	-43.12451	0
734	8.1367	-39.86983	-49.63387	15.45973	27.66478	-43.12451	-99.26774	-161.92033	-166.80235	-126.93252	-76.48498	-49.63387	0
735	1.62734	-60.21158	-59.39791	30.10579	25.22377	-58.58424	-97.6404	-163.54767	-167.61602	-130.1872	-80.55333	-55.32956	0
736	-3.25468	-78.11232	-68.34828	42.31084	26.03744	-73.2303	-93.57205	-161.10666	-165.98868	-131.81454	-84.62168	-60.21158	0
737	-8.95037	-90.31737	-76.48498	51.26121	28.47845	-83.80801	-86.24902	-155.41097	-162.734	-132.62821	-89.5037	-65.0936	0
738	-13.83239	-98.45407	-80.55333	57.77057	29.29212	-90.31737	-78.92599	-148.08794	-159.47932	-134.25555	-93.57205	-68.34828	0
739	-19.52808	-103.33609	-82.18067	63.46626	29.29212	-93.57205	-71.60296	-141.57858	-157.85198	-135.06922	-96.82673	-69.16195	0
740	-22.78276	-101.70875	-81.367	62.65259	30.10579	-91.94471	-64.27993	-134.25555	-155.41097	-135.06922	-98.45407	-67.53461	0
741	-20.34175	-93.57205	-78.92599	56.9569	31.73313	-85.43535	-55.32956	-128.55986	-154.5973	-135.06922	-96.82673	-65.0936	0
742	-16.2734	-84.62168	-73.2303	49.63387	30.10579	-78.11232	-48.8202	-125.30518	-155.41097	-135.06922	-94.38572	-61.83892	0
743	-13.01872	-78.92599	-69.97562	45.56552	29.29212	-73.2303	-44.75185	-124.49151	-155.41097	-134.25555	-92.75838	-61.02525	0
744	-10.57771	-76.48498	-69.97562	42.31084	29.29212	-71.60296	-43.12451	-125.30518	-154.5973	-133.44188	-93.57205	-63.46626	0
745	-9.76404	-79.73966	-74.85764	41.49717	31.73313	-75.67131	-43.93818	-128.55986	-154.5973	-134.25555	-96.01306	-69.16195	0
746	-10.57771	-87.87636	-83.80801	45.56552	35.80148	-85.43535	-45.56552	-131.81454	-155.41097	-138.3239	-101.70875	-75.67131	0
747	-12.20505	-97.6404	-90.31737	51.26121	38.24249	-94.38572	-46.37919	-132.62821	-157.03831	-143.20592	-107.40444	-81.367	0
748	-14.64606	-104.14976	-91.13104	57.77057	37.42882	-98.45407	-43.93818	-129.37353	-157.85198	-147.27427	-110.65912	-83.80801	0
749	-16.2734	-105.7771	-89.5037	61.83892	35.80148	-98.45407	-40.6835	-126.11885	-157.85198	-150.52895	-112.28646	-83.80801	0
750	-14.64606	-103.33609	-89.5037	61.02525	36.61515	-96.82673	-38.24249	-123.67784	-157.85198	-152.96996	-114.72747	-84.62168	0
751	-14.64606	-104.14976	-89.5037	61.83892	37.42882	-96.01306	-37.42882	-124.49151	-159.47932	-155.41097	-117.16848	-87.06269	0
752	-23.59643	-113.10013	-89.5037	69.97562	32.5468	-100.89508	-39.86983	-129.37353	-162.734	-158.66565	-120.42316	-91.13104	0
753	-37.42882	-127.74619	-91.13104	83.80801	26.03744	-108.21811	-43.93818	-134.25555	-165.17501	-160.29299	-123.67784	-96.01306	0
754	-48.00653	-139.13757	-93.57205	93.57205	21.15542	-114.72747	-48.8202	-138.3239	-165.17501	-161.10666	-124.49151	-100.08141	0
755	-55.32956	-147.27427	-96.82673	98.45407	19.52808	-120.42316	-51.26121	-141.57858	-163.54767	-159.47932	-125.30518	-103.33609	0
756	-59.39791	-154.5973	-101.70875	102.52242	20.34175	-127.74619	-52.88855	-143.20592	-162.734	-159.47932	-127.74619	-106.59077	0
757	-57.77057	-161.10666	-108.21811	105.7771	24.4101	-134.25555	-54.51589	-144.01959	-163.54767	-162.734	-131.81454	-112.28646	0
758	-56.14323	-165.98868	-112.28646	109.03178	26.85111	-139.13757	-55.32956	-144.83326	-163.54767	-167.61602	-136.69656	-116.35481	0
759	-54.51589	-167.61602	-113.10013	111.47279	28.47845	-141.57858	-55.32956	-144.83326	-164.36134	-170.8707	-140.76491	-117.16848	0
760	-48.8202	-164.36134	-116.35481	108.21811	33.36047	-140.76491	-54.51589	-144.01959	-165.98868	-172.49804	-142.39225	-116.35481	0
761	-38.24249	-157.85198	-119.60949	100.08141	39.86983	-138.3239	-52.88855	-142.39225	-165.98868	-171.68437	-140.76491	-113.9138	0
762	-26.03744	-146.4606	-120.42316	87.87636	47.19286	-132.62821	-49.63387	-139.95124	-163.54767	-168.42969	-135.88289	-109.03178	0
763	-12.20505	-134.25555	-122.86417	74.85764	54.51589	-127.74619	-47.19286	-137.51023	-159.47932	-162.734	-130.1872	-103.33609	0
764	-8.1367	-130.1872	-125.30518	68.34828	56.9569	-126.11885	-46.37919	-131.81454	-155.41097	-158.66565	-125.30518	-101.70875	0
765	-15.45973	-139.95124	-125.30518	77.29865	51.26121	-131.00087	-47.19286	-122.86417	-155.41097	-157.85198	-124.49151	-102.52242	0
766	-29.29212	-159.47932	-124.49151	96.01306	40.6835	-141.57858	-49.63387	-120.42316	-157.85198	-160.29299	-126.93252	-105.7771	0
767	-44.75185	-177.38006	-122.86417	115.54114	30.91946	-150.52895	-51.26121	-125.30518	-161.92033	-164.36134	-131.00087	-109.84545	0
768	-55.32956	-187.1441	-120.42316	126.11885	25.22377	-154.5973	-52.07488	-132.62821	-165.17501	-168.42969	-135.06922	-111.47279	0
769	-57.77057	-187.95777	-121.23683	127.74619	26.85111	-155.41097	-52.88855	-137.51023	-166.80235	-172.49804	-138.3239	-111.47279	0
770	-57.77057	-184.70309	-122.86417	125.30518	30.10579	-154.5973	-52.07488	-139.95124	-167.61602	-174.93905	-140.76491	-112.28646	0
771	-55.32956	-178.19373	-122.0505	120.42316	32.5468	-149.71528	-50.44754	-139.13757	-165.98868	-173.31171	-139.95124	-111.47279	0
772	-48.8202	-168.42969	-120.42316	110.65912	35.80148	-144.01959	-47.19286	-135.88289	-160.29299	-169.24336	-135.06922	-109.03178	0
773	-39.86983	-157.85198	-119.60949	99.26774	39.86983	-137.51023	-44.75185	-132.62821	-154.5973	-163.54767	-129.37353	-106.59077	0
774	-32.5468	-148.08794	-118.79582	89.5037	42.31084	-131.81454	-43.93818	-131.00087	-149.71528	-158.66565	-126.11885	-107.40444	0
775	-28.47845	-139.95124	-117.98215	80.55333	43.93818	-127.74619	-43.12451	-130.1872	-146.4606	-156.22464	-124.49151	-107.40444	0
776	-26.85111	-135.88289	-115.54114	77.29865	43.93818	-125.30518	-40.6835	-128.55986	-143.20592	-153.78363	-123.67784	-107.40444	0
777	-28.47845	-137.51023	-113.9138	78.92599	42.31084	-125.30518	-37.42882	-124.49151	-139.95124	-153.78363	-124.49151	-105.7771	0
778	-28.47845	-142.39225	-117.16848	83.80801	43.12451	-130.1872	-33.36047	-118.79582	-139.13757	-155.41097	-125.30518	-109.03178	0
779	-24.4101	-151.34262	-127.74619	87.87636	37.42882	-140.76491	-33.36047	-108.21811	-135.88289	-161.10666	-126.93252	-121.23683	0
780	-16.2734	-167.61602	-152.15629	93.57205	26.03744	-160.29299	-35.80148	-88.69003	-125.30518	-170.05703	-130.1872	-131.81454	0
781	-6.50936	-196.90814	-191.21245	104.14976	36.61515	-193.65346	-29.29212	-56.9569	-103.33609	-170.8707	-135.06922	-139.95124	0
782	0	-235.9643	-235.9643	120.42316	71.60296	-235.9643	-4.06835	-10.57771	-69.97562	-159.47932	-143.20592	-149.71528	0
783	2.44101	-275.83413	-279.90248	137.51023	124.49151	-277.46147	37.42882	49.63387	-22.78276	-139.95124	-146.4606	-155.41097	0
784	13.01872	-301.87157	-318.95864	157.85198	192.83979	-309.1946	86.24902	126.11885	36.61515	-111.47279	-135.06922	-148.08794	0
785	38.24249	-308.38093	-353.13278	175.75272	246.54201	-329.53635	138.3239	216.43622	112.28646	-72.41663	-122.86417	-137.51023	0
786	73.2303	-301.87157	-381.61123	168.42969	275.02046	-340.92773	194.46713	321.39965	201.79016	-21.96909	-112.28646	-128.55986	0
787	108.21811	-292.9212	-406.835	136.69656	291.29386	-349.8781	253.05137	439.3818	301.87157	34.17414	-94.38572	-116.35481	0
788	139.95124	-288.85285	-432.05877	90.31737	304.31258	-361.26948	316.51763	567.94166	408.46234	94.38572	-68.34828	-100.89508	0
789	167.61602	-285.59817	-454.84153	32.5468	318.14497	-371.84719	384.05224	705.45189	519.93513	164.36134	-28.47845	-75.67131	0
790	192.02612	-271.76578	-465.41924	-8.95037	329.53635	-369.40618	447.5185	847.03047	641.17196	257.11972	34.98781	-34.98781	0
791	216.43622	-237.59164	-455.6552	-34.17414	333.6047	-345.80975	499.59338	981.28602	772.9865	383.23857	131.81454	28.47845	0
792	241.65999	-184.70309	-427.99042	-59.39791	331.97736	-305.12625	546.78624	1089.50413	908.86939	543.53156	263.62908	118.79582	0
793	267.69743	-116.35481	-388.12059	-93.57205	326.28167	-251.42403	583.40139	1157.03874	1039.87026	735.55768	431.2451	237.59164	0
794	289.66652	-32.5468	-332.79103	-139.13757	312.44928	-181.44841	596.42011	1170.87113	1154.59773	953.62124	628.15324	379.98389	0
795	306.75359	61.83892	-245.72834	-199.34915	279.08881	-82.99434	585.02873	1122.05093	1236.7784	1181.44884	844.58946	538.64954	0
796	302.68524	179.0074	-96.01306	-267.69743	202.60383	62.65259	555.73661	1005.69612	1267.69786	1392.18937	1056.14366	698.94253	0
797	260.3744	346.62342	126.93252	-335.23204	66.72094	266.88376	513.42577	824.24771	1231.08271	1557.36438	1218.87766	822.62037	0
798	177.38006	549.22725	398.6983	-387.30692	-116.35481	512.6121	463.7919	594.79277	1129.37396	1653.37744	1302.68567	884.45929	0
799	70.78929	729.04832	668.83674	-413.34436	-307.56726	751.83108	417.41271	340.11406	969.08097	1664.76882	1323.02742	896.66434	0
800	-39.86983	845.40313	885.27296	-410.90335	-469.48759	919.4471	371.03352	78.11232	758.34044	1580.96081	1278.27557	860.86286	0
801	-149.71528	882.83195	1027.66521	-377.54288	-593.16543	996.74575	315.70396	-179.0074	505.28907	1391.3757	1148.90204	764.8498	0
802	-262.00174	847.84414	1104.96386	-305.93992	-685.92381	1000.8141	245.72834	-428.80409	211.5542	1089.50413	926.77013	607.81149	0
803	-374.2882	742.06704	1131.81497	-204.23117	-754.27209	934.90683	160.29299	-673.71876	-126.11885	679.41445	618.3892	397.88463	0
804	-479.25163	590.72442	1126.11928	-93.57205	-803.90596	820.17936	55.32956	-921.07444	-502.84806	183.88942	252.2377	157.85198	0
805	-563.87331	459.72355	1099.26817	4.06835	-832.38441	724.1663	-67.53461	-1158.66608	-882.83195	-330.35002	-122.0505	-79.73966	0
806	-617.57553	368.59251	1048.00696	84.62168	-833.19808	659.88637	-204.23117	-1357.20156	-1207.48628	-777.05485	-446.70483	-283.15716	0
807	-636.28994	287.22551	962.57161	148.08794	-799.02394	592.35176	-343.36874	-1493.08445	-1432.0592	-1089.50413	-679.41445	-431.2451	0
808	-622.45755	206.67218	847.84414	195.2808	-735.55768	509.35742	-472.74227	-1561.43273	-1545.973	-1252.23813	-807.97431	-515.05311	0
809	-583.40139	137.51023	755.89943	220.50457	-671.27775	425.54941	-579.33304	-1574.45145	-1567.94209	-1290.48062	-846.2168	-541.90422	0
810	-529.69917	92.75838	710.33391	221.31824	-623.27122	356.38746	-651.74967	-1549.22768	-1528.88593	-1249.79712	-825.06138	-529.69917	0
811	-471.11493	71.60296	656.63169	205.04484	-568.75533	307.56726	-692.43317	-1498.78014	-1458.91031	-1171.6848	-771.35916	-495.52503	0
812	-419.04005	61.83892	575.26469	183.07575	-501.22072	272.57945	-700.56987	-1433.68654	-1373.47496	-1083.80844	-703.82455	-454.02786	0
813	-376.72921	56.14323	493.08402	162.734	-437.75446	245.72834	-681.04179	-1352.31954	-1279.90291	-995.93208	-632.22159	-414.9717	0
814	-339.30039	58.58424	425.54941	154.5973	-384.86591	228.64127	-646.05398	-1250.61079	-1174.93948	-910.49673	-569.569	-379.98389	0
815	-302.68524	74.85764	382.4249	154.5973	-344.18241	225.38659	-600.48846	-1126.93295	-1055.32999	-820.99303	-513.42577	-345.80975	0
816	-267.69743	101.70875	362.08315	136.69656	-314.89029	233.52329	-541.90422	-987.79538	-927.5838	-728.23465	-459.72355	-309.1946	0
817	-235.15063	129.37353	353.94645	97.6404	-294.54854	244.101	-480.0653	-848.65781	-802.27862	-637.91728	-406.835	-273.39312	0
818	-202.60383	151.34262	345.80975	54.51589	-274.20679	251.42403	-418.22638	-720.09795	-687.55115	-553.2956	-355.57379	-235.9643	0
819	-174.12538	161.92033	331.97736	21.96909	-253.05137	248.16935	-362.89682	-610.2525	-588.28341	-480.0653	-315.70396	-205.85851	0
820	-153.78363	158.66565	310.00827	4.88202	-231.89595	235.15063	-318.14497	-521.56247	-508.54375	-419.04005	-291.29386	-187.95777	0
821	-139.95124	149.71528	285.59817	-4.06835	-211.5542	218.87723	-283.15716	-454.02786	-445.89116	-371.84719	-266.88376	-170.8707	0
822	-126.11885	144.01959	261.18807	-13.01872	-189.58511	203.4175	-253.86504	-402.76665	-396.25729	-335.23204	-236.77797	-149.71528	0
823	-110.65912	137.51023	235.9643	-20.34175	-168.42969	187.95777	-224.57292	-361.26948	-356.38746	-300.24423	-208.29952	-126.11885	0
824	-96.82673	124.49151	209.11319	-20.34175	-149.71528	168.42969	-193.65346	-327.90901	-322.21332	-265.25642	-184.70309	-102.52242	0
825	-84.62168	104.96343	179.0074	-17.08707	-130.1872	143.20592	-168.42969	-296.98955	-290.48019	-237.59164	-166.80235	-88.69003	0
826	-71.60296	84.62168	147.27427	-13.01872	-108.21811	116.35481	-151.34262	-261.18807	-257.11972	-218.06356	-151.34262	-84.62168	0
827	-60.21158	65.90727	117.16848	-8.95037	-87.06269	91.94471	-137.51023	-223.75925	-224.57292	-200.97649	-138.3239	-80.55333	0
828	-56.14323	44.75185	90.31737	0	-69.16195	66.72094	-125.30518	-189.58511	-196.90814	-187.95777	-128.55986	-75.67131	0
829	-58.58424	18.71441	66.72094	14.64606	-57.77057	41.49717	-117.16848	-162.734	-176.56639	-181.44841	-123.67784	-69.97562	0
830	-61.83892	-5.69569	47.19286	31.73313	-50.44754	20.34175	-110.65912	-142.39225	-161.92033	-181.44841	-121.23683	-67.53461	0
831	-60.21158	-16.2734	34.17414	36.61515	-42.31084	8.95037	-104.96343	-126.11885	-147.27427	-176.56639	-117.16848	-65.90727	0
832	-52.88855	-11.39138	27.66478	27.66478	-33.36047	8.95037	-96.01306	-109.84545	-130.1872	-161.10666	-106.59077	-61.83892	0
833	-41.49717	0.81367	26.03744	13.01872	-26.03744	14.64606	-87.06269	-93.57205	-111.47279	-139.13757	-93.57205	-56.14323	0
834	-28.47845	8.95037	26.03744	4.88202	-24.4101	18.71441	-78.92599	-79.73966	-94.38572	-119.60949	-81.367	-50.44754	0
835	-18.71441	4.88202	23.59643	5.69569	-25.22377	16.2734	-74.04397	-69.97562	-78.92599	-106.59077	-74.04397	-45.56552	0
836	-15.45973	-4.06835	17.90074	11.39138	-23.59643	7.32303	-69.97562	-61.02525	-65.90727	-96.82673	-69.16195	-39.86983	0
837	-10.57771	-8.1367	8.95037	11.39138	-16.2734	0	-62.65259	-48.00653	-52.07488	-87.87636	-61.02525	-30.91946	0
838	2.44101	-3.25468	0	2.44101	-3.25468	-2.44101	-52.88855	-32.5468	-38.24249	-78.11232	-51.26121	-21.15542	0
839	19.52808	3.25468	-11.39138	-8.1367	12.20505	-4.88202	-43.93818	-17.08707	-26.85111	-69.97562	-42.31084	-13.01872	0
840	34.17414	7.32303	-24.4101	-17.08707	27.66478	-8.1367	-37.42882	-4.88202	-18.71441	-63.46626	-37.42882	-10.57771	0
841	41.49717	7.32303	-32.5468	-21.15542	36.61515	-11.39138	-34.17414	1.62734	-13.01872	-59.39791	-36.61515	-12.20505	0
842	36.61515	4.06835	-32.5468	-17.90074	34.98781	-13.01872	-34.17414	6.50936	-8.1367	-56.9569	-35.80148	-13.01872	0
843	29.29212	2.44101	-27.66478	-13.83239	28.47845	-11.39138	-34.17414	10.57771	-1.62734	-52.07488	-34.17414	-12.20505	0
844	26.85111	5.69569	-23.59643	-16.2734	24.4101	-7.32303	-33.36047	16.2734	6.50936	-45.56552	-30.91946	-10.57771	0
845	30.10579	10.57771	-24.4101	-23.59643	26.03744	-4.88202	-30.91946	21.15542	14.64606	-39.05616	-26.85111	-8.1367	0
846	33.36047	11.39138	-28.47845	-27.66478	30.91946	-7.32303	-28.47845	27.66478	20.34175	-34.17414	-22.78276	-6.50936	0
847	34.98781	8.1367	-32.5468	-26.03744	34.17414	-12.20505	-24.4101	34.98781	25.22377	-29.29212	-18.71441	-4.06835	0
848	32.5468	1.62734	-34.98781	-20.34175	34.17414	-17.08707	-18.71441	43.93818	30.91946	-24.4101	-13.83239	0	0
849	27.66478	-4.88202	-37.42882	-13.01872	34.17414	-21.96909	-13.83239	52.88855	35.80148	-19.52808	-9.76404	5.69569	0
850	21.96909	-13.83239	-41.49717	-4.06835	34.17414	-28.47845	-10.57771	59.39791	39.86983	-15.45973	-8.1367	8.1367	0
851	17.90074	-22.78276	-45.56552	3.25468	33.36047	-33.36047	-9.76404	63.46626	42.31084	-13.83239	-8.95037	7.32303	0
852	11.39138	-28.47845	-43.12451	8.95037	28.47845	-34.98781	-9.76404	67.53461	47.19286	-11.39138	-8.1367	7.32303	0
853	5.69569	-28.47845	-37.42882	12.20505	21.96909	-31.73313	-9.76404	71.60296	54.51589	-5.69569	-4.88202	13.83239	0
854	3.25468	-25.22377	-32.5468	9.76404	17.08707	-26.85111	-9.76404	76.48498	62.65259	1.62734	0	26.85111	0
855	4.88202	-18.71441	-29.29212	3.25468	16.2734	-21.96909	-6.50936	82.99434	72.41663	9.76404	4.88202	35.80148	0
856	10.57771	-10.57771	-27.66478	-4.88202	18.71441	-17.90074	0	92.75838	82.99434	18.71441	12.20505	37.42882	0
857	20.34175	-3.25468	-29.29212	-13.01872	24.4101	-16.2734	8.95037	104.14976	91.94471	26.85111	17.90074	36.61515	0
858	30.91946	0.81367	-32.5468	-18.71441	31.73313	-16.2734	15.45973	114.72747	98.45407	30.91946	21.15542	34.17414	0
859	38.24249	2.44101	-34.98781	-19.52808	35.80148	-17.08707	19.52808	118.79582	102.52242	33.36047	21.15542	32.5468	0
860	39.05616	1.62734	-37.42882	-17.08707	37.42882	-17.90074	21.15542	116.35481	106.59077	34.98781	20.34175	30.91946	0
861	39.86983	2.44101	-36.61515	-17.08707	38.24249	-16.2734	22.78276	117.98215	111.47279	37.42882	20.34175	30.91946	0
862	43.93818	8.1367	-34.17414	-21.96909	38.24249	-11.39138	23.59643	127.74619	119.60949	42.31084	22.78276	32.5468	0
863	50.44754	16.2734	-30.91946	-30.10579	38.24249	-5.69569	23.59643	139.95124	129.37353	48.8202	27.66478	35.80148	0
864	57.77057	27.66478	-27.66478	-39.86983	39.05616	0.81367	25.22377	151.34262	139.13757	57.77057	34.17414	39.05616	0
865	61.02525	38.24249	-23.59643	-51.26121	39.86983	8.1367	27.66478	162.734	150.52895	67.53461	41.49717	43.12451	0
866	57.77057	40.6835	-20.34175	-53.70222	37.42882	10.57771	31.73313	173.31171	159.47932	75.67131	47.19286	48.00653	0
867	47.19286	31.73313	-19.52808	-43.93818	33.36047	5.69569	33.36047	182.26208	165.98868	80.55333	49.63387	49.63387	0
868	37.42882	17.90074	-21.96909	-30.10579	30.10579	-2.44101	34.98781	189.58511	170.05703	82.99434	49.63387	50.44754	0
869	36.61515	11.39138	-24.4101	-23.59643	30.10579	-7.32303	32.5468	194.46713	177.38006	82.18067	53.70222	55.32956	0
870	42.31084	21.15542	-24.4101	-30.10579	34.17414	-1.62734	26.03744	196.90814	190.39878	78.92599	61.02525	64.27993	0
871	51.26121	40.6835	-21.96909	-48.00653	42.31084	9.76404	27.66478	205.85851	205.85851	84.62168	69.97562	72.41663	0
872	62.65259	61.02525	-17.08707	-66.72094	47.19286	21.96909	38.24249	222.94558	218.06356	100.08141	78.11232	78.92599	0
873	72.41663	75.67131	-9.76404	-78.11232	47.19286	33.36047	49.63387	240.84632	227.8276	117.98215	83.80801	82.99434	0
874	74.85764	82.18067	-3.25468	-82.99434	42.31084	40.6835	58.58424	254.67871	237.59164	133.44188	89.5037	83.80801	0
875	70.78929	79.73966	0.81367	-80.55333	35.80148	41.49717	63.46626	262.81541	246.54201	144.01959	91.94471	83.80801	0
876	63.46626	70.78929	3.25468	-71.60296	28.47845	37.42882	65.90727	270.13844	253.86504	151.34262	92.75838	82.99434	0
877	52.07488	58.58424	5.69569	-58.58424	21.15542	31.73313	66.72094	277.46147	258.74706	155.41097	93.57205	82.18067	0
878	43.12451	47.19286	6.50936	-45.56552	15.45973	26.03744	69.16195	285.59817	263.62908	158.66565	96.01306	85.43535	0
879	39.86983	41.49717	4.88202	-38.24249	14.64606	21.96909	72.41663	292.10753	269.32477	157.85198	101.70875	91.13104	0
880	43.12451	43.93818	0.81367	-39.86983	19.52808	21.96909	78.11232	294.54854	279.08881	155.41097	109.84545	97.6404	0
881	50.44754	55.32956	0	-52.07488	26.85111	28.47845	84.62168	304.31258	290.48019	161.10666	120.42316	104.14976	0
882	61.83892	71.60296	0.81367	-67.53461	34.17414	36.61515	89.5037	319.77231	303.49891	176.56639	132.62821	111.47279	0
883	75.67131	87.06269	3.25468	-82.99434	39.05616	45.56552	93.57205	336.85938	314.89029	194.46713	143.20592	122.0505	0
884	86.24902	100.89508	6.50936	-96.01306	40.6835	54.51589	97.6404	353.13278	325.468	213.99521	154.5973	140.76491	0
885	92.75838	110.65912	10.57771	-106.59077	41.49717	61.83892	103.33609	366.96517	336.04571	231.08228	165.17501	157.03831	0
886	96.82673	117.16848	13.01872	-113.10013	41.49717	65.90727	107.40444	377.54288	344.99608	244.101	173.31171	164.36134	0
887	100.08141	118.79582	13.01872	-114.72747	43.12451	65.90727	109.84545	385.67958	350.69177	252.2377	178.19373	165.17501	0
888	100.89508	113.9138	10.57771	-109.84545	44.75185	61.02525	109.03178	390.5616	351.50544	255.49238	180.63474	161.92033	0
889	99.26774	106.59077	7.32303	-102.52242	44.75185	56.14323	107.40444	388.93426	351.50544	250.61036	183.88942	161.10666	0
890	97.6404	102.52242	5.69569	-96.82673	44.75185	53.70222	105.7771	382.4249	353.13278	242.47366	187.95777	162.734	0
891	97.6404	103.33609	6.50936	-96.01306	43.93818	55.32956	105.7771	381.61123	358.82847	242.47366	195.2808	168.42969	0
892	99.26774	107.40444	8.1367	-100.08141	44.75185	58.58424	104.14976	388.93426	364.52416	253.05137	202.60383	174.93905	0
893	104.96343	112.28646	6.50936	-105.7771	48.00653	60.21158	102.52242	397.88463	370.21985	266.88376	210.74053	187.1441	0
894	109.03178	117.98215	5.69569	-113.9138	50.44754	62.65259	102.52242	404.39399	375.10187	279.90248	218.06356	203.4175	0
895	111.47279	126.93252	9.76404	-123.67784	49.63387	69.97562	104.96343	410.08968	381.61123	292.10753	225.38659	214.80888	0
896	114.72747	138.3239	17.08707	-132.62821	48.8202	78.11232	108.21811	417.41271	388.12059	303.49891	234.33696	218.06356	0
897	122.0505	148.90161	21.15542	-140.76491	50.44754	85.43535	112.28646	423.92207	393.00261	312.44928	243.28733	218.87723	0
898	132.62821	157.85198	21.96909	-148.90161	54.51589	89.5037	114.72747	427.99042	394.62995	317.3313	250.61036	221.31824	0
899	139.95124	161.10666	21.15542	-150.52895	57.77057	91.13104	115.54114	428.80409	392.18894	318.14497	254.67871	222.94558	0
900	139.13757	157.03831	19.52808	-144.83326	57.77057	88.69003	111.47279	426.36308	385.67958	315.70396	253.86504	221.31824	0
901	132.62821	151.34262	19.52808	-137.51023	55.32956	86.24902	105.7771	421.48106	379.17022	310.82194	251.42403	218.87723	0
902	128.55986	149.71528	21.96909	-135.88289	52.88855	86.24902	101.70875	415.78537	373.47453	309.1946	250.61036	218.06356	0
903	130.1872	153.78363	22.78276	-139.95124	52.88855	88.69003	99.26774	413.34436	369.40618	310.00827	253.86504	219.6909	0
904	133.44188	157.85198	21.96909	-145.64693	54.51589	91.13104	98.45407	410.90335	368.59251	312.44928	257.93339	221.31824	0
905	135.88289	159.47932	17.08707	-151.34262	58.58424	89.5037	98.45407	407.64867	371.03352	313.26295	262.00174	222.13191	0
906	139.95124	160.29299	13.01872	-155.41097	62.65259	87.06269	99.26774	406.835	373.47453	315.70396	265.25642	224.57292	0
907	141.57858	160.29299	12.20505	-156.22464	65.0936	85.43535	100.89508	406.835	375.10187	318.14497	269.32477	227.8276	0
908	140.76491	156.22464	12.20505	-151.34262	63.46626	82.99434	100.89508	405.20766	373.47453	317.3313	269.32477	230.26861	0
909	140.76491	151.34262	10.57771	-145.64693	63.46626	79.73966	98.45407	401.95298	369.40618	314.89029	267.69743	231.89595	0
910	140.76491	147.27427	8.1367	-140.76491	65.0936	77.29865	96.01306	397.88463	363.71049	312.44928	265.25642	231.89595	0
911	139.95124	142.39225	7.32303	-135.06922	63.46626	74.85764	92.75838	391.37527	357.20113	309.1946	262.00174	229.45494	0
912	139.95124	134.25555	5.69569	-128.55986	61.02525	70.78929	87.06269	382.4249	350.69177	305.12625	260.3744	226.20026	0
913	139.13757	131.00087	4.06835	-126.11885	60.21158	68.34828	82.99434	373.47453	346.62342	303.49891	260.3744	223.75925	0
914	144.83326	136.69656	0	-135.88289	65.90727	69.97562	81.367	367.77884	346.62342	305.93992	264.44275	223.75925	0
915	155.41097	149.71528	-3.25468	-152.15629	74.85764	74.04397	82.99434	364.52416	349.06443	309.1946	270.13844	226.20026	0
916	161.10666	159.47932	-4.88202	-163.54767	81.367	76.48498	85.43535	362.08315	350.69177	314.07662	275.83413	229.45494	0
917	156.22464	157.03831	-4.88202	-160.29299	80.55333	74.85764	85.43535	358.0148	348.25076	314.89029	277.46147	230.26861	0
918	141.57858	140.76491	-4.06835	-144.01959	72.41663	67.53461	80.55333	349.8781	341.7414	310.00827	273.39312	227.01393	0
919	124.49151	119.60949	-4.06835	-121.23683	63.46626	56.14323	73.2303	338.48672	332.79103	302.68524	265.25642	221.31824	0
920	109.84545	102.52242	-5.69569	-103.33609	56.9569	48.00653	68.34828	328.72268	324.65433	296.98955	257.93339	215.62255	0
921	104.96343	96.01306	-7.32303	-96.82673	55.32956	44.75185	66.72094	321.39965	318.14497	295.36221	254.67871	212.36787	0
922	114.72747	103.33609	-9.76404	-105.7771	61.83892	46.37919	68.34828	316.51763	316.51763	298.61689	256.30605	213.18154	0
923	133.44188	117.98215	-15.45973	-124.49151	74.04397	52.07488	70.78929	313.26295	318.95864	305.12625	261.18807	215.62255	0
924	147.27427	129.37353	-20.34175	-138.3239	82.99434	55.32956	72.41663	314.07662	321.39965	314.89029	271.76578	216.43622	0
925	149.71528	126.93252	-26.03744	-140.76491	86.24902	50.44754	71.60296	315.70396	318.14497	325.468	283.97083	213.18154	0
926	146.4606	114.72747	-31.73313	-132.62821	85.43535	40.6835	69.16195	310.00827	311.63561	324.65433	285.59817	207.48585	0
927	139.13757	100.08141	-36.61515	-119.60949	83.80801	30.91946	66.72094	293.73487	301.0579	312.44928	271.76578	198.53548	0
928	129.37353	88.69003	-40.6835	-110.65912	83.80801	22.78276	62.65259	275.02046	289.66652	295.36221	253.86504	184.70309	0
929	121.23683	87.06269	-43.93818	-109.03178	87.06269	20.34175	61.02525	258.74706	279.90248	279.90248	236.77797	165.98868	0
930	117.16848	87.87636	-46.37919	-109.03178	90.31737	21.15542	61.83892	245.72834	272.57945	269.32477	223.75925	153.78363	0
931	113.10013	83.80801	-43.93818	-102.52242	86.24902	21.15542	61.83892	235.15063	266.07009	261.18807	213.99521	150.52895	0
932	103.33609	75.67131	-38.24249	-91.94471	76.48498	18.71441	60.21158	225.38659	260.3744	254.67871	206.67218	150.52895	0
933	95.19939	67.53461	-34.17414	-82.18067	67.53461	17.08707	59.39791	216.43622	255.49238	250.61036	202.60383	149.71528	0
934	89.5037	60.21158	-33.36047	-75.67131	61.83892	13.83239	64.27993	212.36787	248.98302	250.61036	202.60383	150.52895	0
935	81.367	48.8202	-37.42882	-69.16195	59.39791	5.69569	74.04397	210.74053	239.21898	251.42403	205.85851	152.15629	0
936	71.60296	34.98781	-42.31084	-58.58424	56.9569	-3.25468	75.67131	201.79016	226.20026	244.101	198.53548	144.83326	0
937	62.65259	22.78276	-45.56552	-48.00653	54.51589	-11.39138	68.34828	185.51676	212.36787	226.20026	180.63474	128.55986	0
938	61.02525	17.90074	-44.75185	-42.31084	52.88855	-13.83239	60.21158	170.05703	201.79016	202.60383	153.78363	108.21811	0
939	61.83892	16.2734	-43.93818	-38.24249	52.07488	-13.83239	53.70222	156.22464	191.21245	173.31171	121.23683	83.80801	0
940	57.77057	12.20505	-43.12451	-31.73313	48.8202	-14.64606	48.00653	144.01959	179.0074	151.34262	96.01306	65.90727	0
941	48.00653	5.69569	-40.6835	-22.78276	43.93818	-16.2734	43.93818	131.00087	165.17501	139.13757	82.99434	57.77057	0
942	39.86983	-1.62734	-39.86983	-15.45973	39.05616	-19.52808	40.6835	118.79582	153.78363	131.81454	74.85764	53.70222	0
943	34.98781	-8.1367	-43.12451	-11.39138	38.24249	-24.4101	39.05616	109.03178	143.20592	126.11885	69.16195	49.63387	0
944	33.36047	-14.64606	-51.26121	-9.76404	41.49717	-31.73313	37.42882	104.96343	131.81454	123.67784	61.83892	42.31084	0
945	30.91946	-24.4101	-61.02525	-6.50936	45.56552	-42.31084	35.80148	106.59077	119.60949	124.49151	53.70222	32.5468	0
946	26.03744	-33.36047	-66.72094	-1.62734	46.37919	-50.44754	35.80148	104.14976	107.40444	117.98215	45.56552	24.4101	0
947	24.4101	-34.17414	-65.0936	0	44.75185	-49.63387	38.24249	95.19939	98.45407	101.70875	39.05616	17.90074	0
948	26.03744	-26.85111	-58.58424	-2.44101	42.31084	-43.12451	39.86983	83.80801	88.69003	82.99434	31.73313	8.1367	0
949	27.66478	-17.08707	-49.63387	-7.32303	39.86983	-33.36047	41.49717	73.2303	79.73966	65.0936	22.78276	-5.69569	0
950	30.10579	-7.32303	-42.31084	-11.39138	38.24249	-23.59643	41.49717	65.0936	71.60296	52.07488	14.64606	-16.2734	0
951	30.91946	-4.06835	-39.05616	-11.39138	36.61515	-20.34175	40.6835	56.9569	63.46626	40.6835	6.50936	-19.52808	0
952	27.66478	-9.76404	-39.86983	-7.32303	34.98781	-23.59643	38.24249	48.8202	55.32956	30.91946	-1.62734	-21.15542	0
953	25.22377	-17.08707	-43.93818	-2.44101	34.98781	-30.10579	34.98781	42.31084	48.00653	22.78276	-9.76404	-21.96909	0
954	26.85111	-23.59643	-50.44754	-0.81367	37.42882	-36.61515	32.5468	41.49717	41.49717	21.15542	-17.08707	-25.22377	0
955	29.29212	-34.17414	-56.9569	4.06835	37.42882	-45.56552	29.29212	45.56552	33.36047	24.4101	-25.22377	-30.10579	0
956	28.47845	-46.37919	-61.83892	13.01872	34.98781	-54.51589	26.85111	44.75185	25.22377	21.96909	-31.73313	-35.80148	0
957	23.59643	-53.70222	-61.02525	20.34175	31.73313	-58.58424	26.03744	37.42882	18.71441	13.01872	-35.80148	-38.24249	0
958	17.08707	-52.07488	-55.32956	21.96909	27.66478	-54.51589	26.85111	30.10579	14.64606	2.44101	-37.42882	-39.05616	0
959	12.20505	-47.19286	-48.00653	21.96909	24.4101	-48.00653	25.22377	22.78276	10.57771	-6.50936	-39.86983	-39.05616	0
960	8.95037	-43.93818	-45.56552	22.78276	23.59643	-43.93818	22.78276	15.45973	5.69569	-13.83239	-43.12451	-41.49717	0
961	6.50936	-42.31084	-46.37919	21.96909	25.22377	-43.12451	19.52808	9.76404	0.81367	-20.34175	-47.19286	-43.93818	0
962	4.88202	-42.31084	-47.19286	21.15542	26.03744	-43.12451	17.90074	4.88202	-0.81367	-23.59643	-48.00653	-45.56552	0
963	2.44101	-43.12451	-46.37919	21.15542	24.4101	-43.93818	18.71441	3.25468	-0.81367	-22.78276	-46.37919	-44.75185	0
964	0	-43.12451	-46.37919	21.15542	22.78276	-43.93818	20.34175	8.1367	0	-16.2734	-43.93818	-45.56552	0
965	-5.69569	-48.00653	-48.00653	22.78276	21.15542	-48.00653	21.96909	15.45973	-0.81367	-7.32303	-43.93818	-46.37919	0
966	-13.83239	-58.58424	-52.07488	30.91946	18.71441	-56.14323	20.34175	17.08707	-4.88202	-6.50936	-47.19286	-49.63387	0
967	-21.96909	-70.78929	-55.32956	41.49717	16.2734	-64.27993	17.08707	9.76404	-11.39138	-16.2734	-52.88855	-53.70222	0
968	-26.85111	-76.48498	-58.58424	46.37919	17.90074	-68.34828	13.83239	0.81367	-17.08707	-27.66478	-58.58424	-56.14323	0
969	-25.22377	-68.34828	-61.02525	37.42882	26.03744	-65.0936	15.45973	-1.62734	-17.90074	-34.17414	-59.39791	-53.70222	0
970	-14.64606	-53.70222	-61.02525	25.22377	34.17414	-56.14323	19.52808	0	-15.45973	-34.98781	-57.77057	-48.8202	0
971	-7.32303	-46.37919	-56.9569	20.34175	34.17414	-49.63387	21.15542	0	-13.01872	-34.98781	-56.14323	-46.37919	0
972	-9.76404	-50.44754	-52.07488	26.85111	26.85111	-49.63387	20.34175	-3.25468	-13.01872	-36.61515	-56.9569	-46.37919	0
973	-16.2734	-61.02525	-51.26121	37.42882	19.52808	-54.51589	16.2734	-6.50936	-14.64606	-39.05616	-57.77057	-49.63387	0
974	-22.78276	-71.60296	-52.88855	45.56552	15.45973	-61.02525	12.20505	-10.57771	-17.08707	-43.12451	-60.21158	-54.51589	0
975	-23.59643	-78.92599	-59.39791	47.19286	17.08707	-69.16195	9.76404	-15.45973	-20.34175	-48.00653	-63.46626	-59.39791	0
976	-20.34175	-82.18067	-67.53461	46.37919	22.78276	-75.67131	7.32303	-19.52808	-25.22377	-52.07488	-65.90727	-61.83892	0
977	-17.08707	-83.80801	-70.78929	45.56552	26.03744	-78.11232	5.69569	-21.15542	-28.47845	-54.51589	-68.34828	-63.46626	0
978	-13.83239	-80.55333	-67.53461	44.75185	26.03744	-74.85764	5.69569	-20.34175	-30.91946	-55.32956	-68.34828	-62.65259	0
979	-11.39138	-72.41663	-62.65259	40.6835	25.22377	-67.53461	7.32303	-22.78276	-30.10579	-53.70222	-65.90727	-59.39791	0
980	-9.76404	-59.39791	-58.58424	31.73313	29.29212	-57.77057	10.57771	-29.29212	-26.85111	-48.00653	-61.83892	-56.14323	0
