samplenr	I	II	III	aVR	aVL	aVF	V1	V2	V3	V4	V5	V6	measurement
0	-0.81367	-6.50936	-5.69569	4.06835	2.44101	-6.50936	-0.81367	-2.44101	-0.81367	2.44101	0	0	0
1	-4.06835	-29.29212	-25.22377	16.2734	11.39138	-27.66478	-4.06835	-10.57771	-3.25468	12.20505	2.44101	-2.44101	0
2	-6.50936	-61.02525	-53.70222	33.36047	24.4101	-56.9569	-10.57771	-20.34175	-6.50936	24.4101	4.06835	-4.06835	0
3	-7.32303	-84.62168	-78.11232	56.14323	34.17414	-82.99434	-21.15542	-27.66478	-9.76404	33.36047	5.69569	-3.25468	0
4	-4.88202	-67.53461	-100.08141	74.85764	41.49717	-110.65912	-27.66478	-35.80148	-13.83239	39.05616	5.69569	-1.62734	0
5	-2.44101	-16.2734	-122.86417	72.41663	49.63387	-145.64693	-30.10579	-42.31084	-15.45973	40.6835	4.88202	0	0
6	-4.06835	0.81367	-136.69656	64.27993	54.51589	-165.98868	-28.47845	-43.93818	-13.83239	42.31084	5.69569	1.62734	0
7	-8.95037	-29.29212	-137.51023	64.27993	55.32956	-164.36134	-26.85111	-42.31084	-11.39138	45.56552	8.95037	4.06835	0
8	-14.64606	-74.85764	-135.06922	72.41663	54.51589	-157.03831	-24.4101	-39.05616	-7.32303	53.70222	14.64606	6.50936	0
9	-17.90074	-100.89508	-128.55986	94.38572	53.70222	-140.76491	-20.34175	-32.5468	0.81367	65.90727	22.78276	10.57771	0
10	-17.90074	-94.38572	-116.35481	122.0505	52.07488	-113.10013	-15.45973	-26.85111	8.95037	75.67131	30.10579	13.83239	0
11	-17.08707	-89.5037	-108.21811	131.81454	51.26121	-95.19939	-12.20505	-26.03744	10.57771	76.48498	31.73313	13.83239	0
12	-16.2734	-100.89508	-109.03178	122.0505	50.44754	-98.45407	-13.83239	-29.29212	7.32303	70.78929	28.47845	9.76404	0
13	-15.45973	-112.28646	-112.28646	99.26774	49.63387	-107.40444	-18.71441	-32.5468	1.62734	61.02525	21.15542	5.69569	0
14	-13.01872	-129.37353	-117.16848	83.80801	49.63387	-122.86417	-21.15542	-39.86983	-4.88202	50.44754	13.01872	0	0
15	-8.1367	-161.10666	-127.74619	92.75838	52.07488	-147.27427	-18.71441	-47.19286	-10.57771	42.31084	4.88202	-2.44101	0
16	-1.62734	-175.75272	-132.62821	97.6404	55.32956	-157.03831	-14.64606	-52.07488	-14.64606	36.61515	2.44101	-3.25468	0
17	2.44101	-159.47932	-126.93252	84.62168	56.9569	-145.64693	-9.76404	-61.83892	-23.59643	30.91946	3.25468	-0.81367	0
18	4.88202	-134.25555	-114.72747	69.97562	55.32956	-126.93252	-5.69569	-79.73966	-44.75185	20.34175	4.88202	2.44101	0
19	4.06835	-140.76491	-94.38572	69.16195	48.8202	-143.20592	-4.88202	-104.96343	-80.55333	-0.81367	1.62734	4.88202	0
20	3.25468	-184.70309	-63.46626	78.92599	36.61515	-198.53548	-7.32303	-138.3239	-139.13757	-45.56552	-10.57771	4.06835	0
21	2.44101	-192.83979	-36.61515	76.48498	25.22377	-212.36787	-8.95037	-184.70309	-224.57292	-116.35481	-34.98781	0	0
22	3.25468	-150.52895	-23.59643	56.14323	18.71441	-168.42969	-13.01872	-237.59164	-331.16369	-207.48585	-63.46626	-0.81367	0
23	7.32303	-88.69003	-18.71441	24.4101	16.2734	-107.40444	-18.71441	-264.44275	-411.71702	-305.12625	-87.06269	8.1367	0
24	18.71441	-34.17414	-17.90074	-7.32303	19.52808	-56.14323	-20.34175	-244.101	-454.02786	-393.81628	-95.19939	37.42882	0
25	43.12451	-3.25468	-21.96909	-24.4101	30.10579	-26.03744	-42.31084	-275.02046	-523.18981	-458.09621	-76.48498	91.94471	0
26	78.92599	34.98781	-18.71441	-50.44754	43.93818	4.88202	-112.28646	-462.16456	-630.59425	-484.94732	-21.96909	175.75272	0
27	122.0505	102.52242	-2.44101	-102.52242	56.9569	51.26121	-202.60383	-730.67566	-724.1663	-462.97823	71.60296	288.03918	0
28	174.93905	217.24989	21.15542	-185.51676	71.60296	139.13757	-283.15716	-978.84501	-773.80017	-384.05224	205.85851	429.61776	0
29	235.15063	347.43709	16.2734	-303.49891	100.08141	238.40531	-353.13278	-1204.2316	-776.24118	-254.67871	375.10187	594.79277	0
30	295.36221	410.08968	-21.15542	-419.85372	126.11885	268.5111	-419.04005	-1426.36351	-744.50805	-92.75838	569.569	792.51458	0
31	338.48672	454.02786	-2.44101	-494.71136	99.26774	288.03918	-478.43796	-1641.17239	-692.43317	93.57205	778.68219	1013.83282	0
32	338.48672	538.64954	120.42316	-523.18981	38.24249	370.21985	-514.23944	-1833.19851	-628.96691	298.61689	963.38528	1201.79059	0
33	277.46147	593.16543	291.29386	-496.3387	-13.01872	450.77318	-505.28907	-1982.91379	-563.87331	499.59338	1087.87679	1317.33173	0
34	169.24336	545.97257	476.81062	-395.44362	-69.16195	505.28907	-454.02786	-2065.09446	-493.89769	660.70004	1166.80278	1340.11449	0
35	43.93818	440.19547	656.63169	-252.2377	-148.08794	576.89203	-384.86591	-2082.18153	-476.81062	737.18502	1170.05746	1259.56116	0
36	-73.2303	350.69177	740.4397	-128.55986	-239.21898	606.18415	-334.41837	-2074.8585	-564.68698	679.41445	1043.93861	1086.24945	0
37	-176.56639	278.27514	708.70657	-35.80148	-314.89029	550.85459	-319.77231	-2080.55419	-709.52024	436.12712	769.73182	836.45276	0
38	-255.49238	230.26861	656.63169	32.5468	-385.67958	483.31998	-328.72268	-2098.45493	-911.3104	-1.62734	367.77884	528.8855	0
39	-306.75359	209.92686	622.45755	73.2303	-446.70483	437.75446	-345.80975	-2120.42402	-1183.07618	-542.71789	-81.367	205.85851	0
40	-339.30039	154.5973	540.27688	109.03178	-452.40052	356.38746	-370.21985	-2093.57291	-1405.20809	-991.05006	-471.9286	-81.367	0
41	-358.82847	36.61515	396.25729	164.36134	-397.88463	218.06356	-410.08968	-1956.87635	-1470.30169	-1221.31867	-737.18502	-301.87157	0
42	-359.64214	-97.6404	242.47366	226.20026	-318.95864	70.78929	-462.97823	-1768.91858	-1426.36351	-1283.15759	-861.67653	-438.56813	0
43	-337.67305	-205.04484	73.2303	263.62908	-218.87723	-50.44754	-520.7488	-1587.47017	-1338.48715	-1240.84675	-868.18589	-496.3387	0
44	-294.54854	-281.52982	-62.65259	281.52982	-124.49151	-96.82673	-572.01001	-1404.39442	-1209.92729	-1117.16891	-799.83761	-493.89769	0
45	-238.40531	-340.92773	-84.62168	294.54854	-87.06269	-68.34828	-602.1158	-1213.18197	-1044.75228	-947.92555	-691.6195	-452.40052	0
46	-181.44841	-363.71049	-72.41663	287.22551	-65.90727	-61.02525	-599.67479	-1010.57814	-856.79451	-763.22246	-570.38267	-388.12059	0
47	-131.81454	-343.36874	-92.75838	252.2377	-27.66478	-98.45407	-563.87331	-811.22899	-668.83674	-585.02873	-450.77318	-316.51763	0
48	-95.19939	-305.12625	-120.42316	195.2808	7.32303	-140.76491	-519.12146	-665.58206	-528.8855	-445.89116	-342.55507	-246.54201	0
49	-68.34828	-296.98955	-138.3239	135.06922	34.17414	-208.29952	-489.01567	-613.50718	-472.74227	-364.52416	-247.35568	-183.07575	0
50	-45.56552	-327.90901	-141.57858	109.03178	51.26121	-296.98955	-449.95951	-573.63735	-427.99042	-292.9212	-167.61602	-131.00087	0
51	-26.03744	-323.02699	-136.69656	100.08141	61.02525	-327.09534	-373.47453	-456.46887	-319.77231	-197.72181	-109.03178	-94.38572	0
52	-9.76404	-267.69743	-131.00087	87.06269	64.27993	-283.97083	-278.27514	-300.24423	-182.26208	-96.82673	-74.04397	-75.67131	0
53	0	-202.60383	-124.49151	69.16195	62.65259	-221.31824	-190.39878	-165.17501	-65.0936	-12.20505	-59.39791	-71.60296	0
54	4.06835	-158.66565	-124.49151	61.02525	61.83892	-175.75272	-123.67784	-56.9569	27.66478	48.8202	-45.56552	-65.90727	0
55	8.1367	-150.52895	-134.25555	74.04397	65.90727	-158.66565	-77.29865	30.10579	103.33609	92.75838	-26.85111	-53.70222	0
56	13.83239	-148.90161	-144.01959	82.99434	73.2303	-150.52895	-43.12451	99.26774	164.36134	125.30518	-4.06835	-39.05616	0
57	21.96909	-139.95124	-150.52895	75.67131	81.367	-143.20592	-18.71441	153.78363	209.11319	153.78363	17.90074	-25.22377	0
58	25.22377	-134.25555	-157.03831	65.90727	90.31737	-142.39225	0	193.65346	244.101	181.44841	39.86983	-13.83239	0
59	24.4101	-124.49151	-161.92033	71.60296	96.82673	-140.76491	13.01872	227.01393	273.39312	210.74053	61.02525	-4.88202	0
60	24.4101	-104.14976	-162.734	91.13104	100.89508	-131.81454	24.4101	253.05137	296.98955	233.52329	78.11232	1.62734	0
61	30.91946	-93.57205	-164.36134	96.01306	105.7771	-126.93252	33.36047	270.95211	311.63561	247.35568	90.31737	5.69569	0
62	39.86983	-96.82673	-170.05703	81.367	111.47279	-132.62821	37.42882	283.97083	321.39965	254.67871	98.45407	8.95037	0
63	48.00653	-104.14976	-174.12538	73.2303	113.10013	-139.13757	36.61515	295.36221	327.90901	257.93339	103.33609	12.20505	0
64	51.26121	-120.42316	-179.0074	71.60296	112.28646	-152.15629	35.80148	301.87157	329.53635	257.11972	104.14976	12.20505	0
65	48.8202	-151.34262	-187.1441	52.88855	110.65912	-172.49804	37.42882	307.56726	330.35002	254.67871	100.89508	10.57771	0
66	46.37919	-170.8707	-191.21245	31.73313	109.84545	-183.88942	41.49717	316.51763	336.04571	254.67871	99.26774	8.95037	0
67	48.00653	-165.17501	-190.39878	22.78276	112.28646	-179.82107	47.19286	329.53635	344.18241	260.3744	102.52242	9.76404	0
68	53.70222	-150.52895	-187.95777	21.15542	116.35481	-170.8707	53.70222	345.80975	356.38746	273.39312	109.84545	13.83239	0
69	59.39791	-130.1872	-184.70309	17.08707	120.42316	-159.47932	61.02525	365.33783	374.2882	291.29386	119.60949	18.71441	0
70	61.83892	-104.14976	-179.0074	3.25468	121.23683	-142.39225	66.72094	382.4249	387.30692	303.49891	125.30518	20.34175	0
71	61.02525	-90.31737	-174.93905	-2.44101	121.23683	-132.62821	69.97562	392.18894	392.18894	306.75359	126.11885	17.90074	0
72	60.21158	-94.38572	-177.38006	3.25468	122.0505	-135.06922	70.78929	397.88463	393.00261	305.12625	126.11885	16.2734	0
73	60.21158	-101.70875	-181.44841	8.1367	122.86417	-141.57858	66.72094	402.76665	393.00261	302.68524	126.93252	17.90074	0
74	61.83892	-113.9138	-185.51676	-2.44101	122.86417	-152.15629	64.27993	404.39399	392.18894	301.0579	126.93252	19.52808	0
75	64.27993	-137.51023	-192.83979	-24.4101	122.86417	-169.24336	65.0936	407.64867	393.81628	300.24423	126.11885	20.34175	0
76	64.27993	-151.34262	-195.2808	-30.10579	122.86417	-176.56639	69.97562	414.9717	401.13931	303.49891	126.93252	22.78276	0
77	63.46626	-145.64693	-189.58511	-17.90074	120.42316	-170.05703	77.29865	427.17675	408.46234	309.1946	130.1872	26.03744	0
78	61.83892	-135.06922	-183.88942	0	119.60949	-161.92033	85.43535	440.19547	419.04005	319.77231	135.88289	30.10579	0
79	59.39791	-118.79582	-179.0074	28.47845	120.42316	-151.34262	91.94471	456.46887	432.05877	331.97736	141.57858	34.17414	0
80	58.58424	-93.57205	-170.8707	64.27993	118.79582	-134.25555	93.57205	470.30126	443.45015	340.92773	145.64693	34.98781	0
81	61.83892	-76.48498	-166.80235	76.48498	118.79582	-122.86417	92.75838	476.81062	445.89116	341.7414	145.64693	32.5468	0
82	69.16195	-75.67131	-169.24336	63.46626	122.86417	-122.86417	88.69003	480.0653	444.26382	336.85938	143.20592	30.10579	0
83	76.48498	-78.11232	-172.49804	37.42882	126.11885	-126.11885	82.99434	484.13365	441.82281	331.16369	141.57858	29.29212	0
84	80.55333	-85.43535	-174.93905	-0.81367	126.11885	-132.62821	79.73966	485.76099	439.3818	325.468	138.3239	27.66478	0
85	81.367	-103.33609	-178.19373	-41.49717	124.49151	-144.83326	80.55333	489.01567	440.19547	323.02699	135.06922	26.03744	0
86	79.73966	-113.10013	-176.56639	-57.77057	122.0505	-148.90161	85.43535	497.96604	446.70483	324.65433	135.88289	26.03744	0
87	76.48498	-106.59077	-166.80235	-47.19286	115.54114	-139.95124	92.75838	511.79843	455.6552	329.53635	139.13757	26.85111	0
88	74.04397	-98.45407	-156.22464	-25.22377	109.84545	-130.1872	101.70875	527.25816	466.23291	338.48672	144.83326	26.85111	0
89	72.41663	-85.43535	-147.27427	-11.39138	104.14976	-118.79582	109.84545	544.34523	480.0653	349.8781	150.52895	26.85111	0
90	68.34828	-62.65259	-135.88289	-15.45973	99.26774	-100.89508	116.35481	560.61863	490.64301	356.38746	153.78363	25.22377	0
91	61.02525	-48.8202	-126.93252	-17.90074	94.38572	-88.69003	121.23683	570.38267	493.08402	355.57379	153.78363	21.96909	0
92	53.70222	-51.26121	-122.86417	-8.95037	89.5037	-87.06269	124.49151	576.89203	492.27035	350.69177	151.34262	19.52808	0
93	49.63387	-56.14323	-119.60949	-4.06835	84.62168	-88.69003	128.55986	584.21506	491.45668	343.36874	150.52895	17.08707	0
94	50.44754	-63.46626	-119.60949	3.25468	81.367	-93.57205	129.37353	589.91075	489.82934	337.67305	148.08794	13.83239	0
95	53.70222	-78.11232	-124.49151	22.78276	82.99434	-105.7771	129.37353	597.23378	491.45668	334.41837	145.64693	10.57771	0
96	56.14323	-84.62168	-125.30518	34.17414	83.80801	-109.84545	131.00087	609.43883	498.77971	334.41837	144.01959	7.32303	0
97	56.14323	-76.48498	-118.79582	27.66478	82.18067	-100.89508	135.88289	625.71223	504.4754	336.04571	142.39225	4.06835	0
98	56.14323	-65.90727	-113.10013	17.90074	81.367	-91.94471	142.39225	643.61297	511.79843	340.11406	141.57858	-0.81367	0
99	57.77057	-48.00653	-108.21811	21.15542	83.80801	-81.367	147.27427	664.76839	523.18981	348.25076	142.39225	-5.69569	0
100	63.46626	-20.34175	-102.52242	38.24249	86.24902	-64.27993	148.08794	684.29647	533.76752	353.94645	143.20592	-11.39138	1000	P+0
101	71.60296	0	-98.45407	39.05616	89.5037	-51.26121	147.27427	698.12886	535.39486	351.50544	139.95124	-17.90074	0
102	79.73966	4.88202	-96.82673	17.90074	92.75838	-47.19286	144.01959	708.70657	532.95385	342.55507	135.88289	-22.78276	0
103	86.24902	8.1367	-93.57205	-10.57771	91.13104	-43.12451	138.3239	719.28428	529.69917	331.16369	132.62821	-25.22377	0
104	90.31737	6.50936	-89.5037	-30.10579	87.06269	-43.12451	135.06922	728.23465	525.63082	320.58598	127.74619	-27.66478	0
105	91.13104	-2.44101	-87.87636	-26.85111	83.80801	-49.63387	135.88289	737.99869	524.81715	313.26295	121.23683	-30.91946	0
106	89.5037	-7.32303	-82.99434	-21.96909	79.73966	-49.63387	141.57858	751.83108	527.25816	309.1946	116.35481	-34.17414	0
107	86.24902	0	-72.41663	-29.29212	74.04397	-39.05616	149.71528	767.29081	528.8855	306.75359	113.9138	-36.61515	0
108	81.367	11.39138	-61.83892	-37.42882	69.16195	-27.66478	159.47932	783.56421	531.32651	308.38093	112.28646	-37.42882	0
109	75.67131	28.47845	-49.63387	-30.10579	63.46626	-13.01872	167.61602	801.46495	535.39486	310.00827	112.28646	-35.80148	0
110	70.78929	54.51589	-33.36047	-8.1367	55.32956	7.32303	171.68437	819.36569	537.0222	307.56726	110.65912	-34.17414	0
111	67.53461	75.67131	-16.2734	-2.44101	46.37919	26.85111	174.12538	833.19808	531.32651	296.98955	107.40444	-31.73313	0
112	67.53461	84.62168	-3.25468	-19.52808	39.05616	39.05616	174.12538	846.2168	523.18981	282.34349	103.33609	-28.47845	0
113	68.34828	90.31737	7.32303	-45.56552	30.91946	48.00653	170.8707	854.3535	512.6121	264.44275	99.26774	-24.4101	0
114	69.16195	91.13104	15.45973	-62.65259	23.59643	51.26121	166.80235	854.3535	497.96604	245.72834	91.13104	-21.15542	0
115	69.16195	82.99434	18.71441	-58.58424	19.52808	47.19286	166.80235	851.91249	483.31998	227.8276	80.55333	-21.15542	0
116	67.53461	80.55333	23.59643	-54.51589	15.45973	48.00653	169.24336	851.09882	471.11493	211.5542	70.78929	-21.96909	0
117	63.46626	91.13104	38.24249	-62.65259	7.32303	61.83892	175.75272	854.3535	460.53722	198.53548	62.65259	-21.15542	0
118	59.39791	105.7771	54.51589	-73.2303	-0.81367	78.11232	183.88942	857.60818	451.58685	188.77144	56.9569	-19.52808	0
119	56.9569	125.30518	69.16195	-87.06269	-7.32303	94.38572	189.58511	860.04919	443.45015	180.63474	52.07488	-17.08707	0
120	55.32956	151.34262	83.80801	-109.84545	-13.83239	114.72747	191.21245	859.23552	428.80409	166.80235	45.56552	-14.64606	0
121	52.07488	169.24336	96.82673	-124.49151	-20.34175	131.00087	190.39878	848.65781	403.58032	143.20592	34.17414	-15.45973	0
122	46.37919	171.68437	108.21811	-122.0505	-28.47845	138.3239	188.77144	834.82542	374.2882	115.54114	22.78276	-21.15542	0
123	39.05616	170.8707	118.79582	-117.16848	-39.05616	144.01959	189.58511	821.8067	346.62342	85.43535	12.20505	-30.10579	0
124	31.73313	167.61602	128.55986	-105.7771	-49.63387	146.4606	189.58511	806.34697	318.14497	57.77057	0	-34.17414	0
125	23.59643	157.03831	134.25555	-82.18067	-58.58424	142.39225	187.1441	790.07357	292.9212	33.36047	-11.39138	-30.10579	0
126	19.52808	152.15629	140.76491	-66.72094	-64.27993	143.20592	184.70309	775.42751	270.13844	11.39138	-22.78276	-23.59643	0
127	17.90074	158.66565	148.90161	-70.78929	-68.34828	151.34262	179.82107	760.78145	245.72834	-8.1367	-31.73313	-15.45973	0
128	16.2734	166.80235	156.22464	-78.11232	-71.60296	159.47932	174.93905	744.50805	221.31824	-27.66478	-37.42882	-8.1367	0
129	14.64606	177.38006	163.54767	-88.69003	-74.85764	168.42969	172.49804	729.04832	199.34915	-44.75185	-45.56552	-6.50936	0
130	9.76404	195.2808	174.93905	-106.59077	-81.367	182.26208	171.68437	711.14758	174.12538	-65.90727	-61.02525	-12.20505	0
131	1.62734	205.04484	185.51676	-115.54114	-89.5037	192.83979	170.05703	686.73748	142.39225	-92.75838	-79.73966	-19.52808	0
132	-6.50936	200.97649	192.83979	-109.03178	-97.6404	195.2808	170.05703	660.70004	109.03178	-122.86417	-96.82673	-29.29212	0
133	-13.83239	194.46713	197.72181	-100.89508	-105.7771	195.2808	174.12538	636.28994	78.11232	-150.52895	-108.21811	-39.86983	0
134	-18.71441	186.33043	200.97649	-109.03178	-112.28646	192.02612	177.38006	611.87984	49.63387	-174.93905	-117.98215	-43.93818	0
135	-20.34175	173.31171	199.34915	-131.00087	-114.72747	183.88942	177.38006	585.8424	22.78276	-196.09447	-128.55986	-39.86983	0
136	-22.78276	164.36134	198.53548	-135.88289	-115.54114	178.19373	176.56639	563.05964	0	-215.62255	-139.13757	-34.98781	0
137	-26.85111	161.92033	200.16282	-118.79582	-117.98215	179.0074	174.12538	541.90422	-23.59643	-234.33696	-148.08794	-29.29212	0
138	-30.10579	158.66565	200.97649	-93.57205	-120.42316	178.19373	170.8707	519.12146	-47.19286	-249.79669	-152.96996	-25.22377	0
139	-34.98781	159.47932	200.16282	-75.67131	-120.42316	177.38006	167.61602	497.15237	-68.34828	-264.44275	-161.10666	-26.85111	0
140	-39.86983	169.24336	200.16282	-74.85764	-119.60949	181.44841	163.54767	471.9286	-91.94471	-281.52982	-174.12538	-34.98781	0
141	-43.12451	173.31171	200.16282	-74.85764	-119.60949	183.88942	158.66565	441.82281	-119.60949	-302.68524	-189.58511	-44.75185	0
142	-47.19286	165.17501	196.90814	-65.90727	-120.42316	179.0074	152.96996	412.53069	-147.27427	-323.84066	-202.60383	-52.07488	0
143	-53.70222	151.34262	194.46713	-38.24249	-123.67784	171.68437	144.01959	383.23857	-171.68437	-342.55507	-212.36787	-55.32956	0
144	-58.58424	135.06922	189.58511	-8.1367	-126.11885	161.10666	137.51023	353.13278	-194.46713	-357.20113	-219.6909	-56.14323	0
145	-63.46626	112.28646	179.82107	-8.1367	-126.11885	144.83326	133.44188	321.39965	-211.5542	-366.1515	-224.57292	-56.9569	0
146	-70.78929	92.75838	172.49804	-19.52808	-126.11885	131.00087	131.81454	293.73487	-222.13191	-370.21985	-227.01393	-55.32956	0
147	-78.11232	81.367	167.61602	-17.90074	-126.11885	122.86417	131.81454	266.07009	-229.45494	-370.21985	-226.20026	-53.70222	0
148	-82.18067	71.60296	161.10666	-8.1367	-123.67784	114.72747	131.81454	239.21898	-234.33696	-366.1515	-223.75925	-51.26121	0
149	-80.55333	68.34828	152.96996	-1.62734	-118.79582	107.40444	132.62821	216.43622	-235.15063	-358.0148	-218.87723	-48.8202	0
150	-78.11232	74.04397	147.27427	-6.50936	-113.9138	107.40444	131.81454	192.02612	-238.40531	-353.94645	-215.62255	-48.8202	0
151	-78.11232	74.85764	140.76491	-8.95037	-109.03178	104.96343	128.55986	161.92033	-249.79669	-356.38746	-214.80888	-50.44754	0
152	-78.11232	62.65259	130.1872	-0.81367	-103.33609	94.38572	120.42316	131.00087	-262.00174	-359.64214	-213.18154	-50.44754	0
153	-76.48498	48.8202	118.79582	6.50936	-99.26774	82.99434	109.03178	103.33609	-270.95211	-361.26948	-210.74053	-48.00653	0
154	-72.41663	34.17414	107.40444	-0.81367	-94.38572	69.97562	99.26774	77.29865	-277.46147	-359.64214	-209.11319	-48.00653	0
155	-69.97562	13.83239	91.94471	-21.15542	-87.87636	51.26121	93.57205	54.51589	-279.08881	-353.13278	-208.29952	-51.26121	0
156	-70.78929	-2.44101	78.92599	-24.4101	-81.367	35.80148	91.94471	37.42882	-275.83413	-343.36874	-205.85851	-55.32956	0
157	-74.04397	-11.39138	70.78929	-7.32303	-77.29865	27.66478	91.13104	24.4101	-269.32477	-330.35002	-201.79016	-57.77057	0
158	-74.04397	-17.08707	62.65259	13.83239	-70.78929	20.34175	91.94471	14.64606	-259.56073	-311.63561	-192.83979	-57.77057	0
159	-70.78929	-16.2734	53.70222	27.66478	-61.83892	15.45973	96.01306	9.76404	-243.28733	-288.03918	-179.0074	-52.07488	0
160	-65.90727	-8.1367	48.00653	26.85111	-55.32956	15.45973	98.45407	3.25468	-230.26861	-269.32477	-165.98868	-48.00653	0
161	-61.83892	-4.06835	43.12451	24.4101	-50.44754	16.2734	96.82673	-9.76404	-226.20026	-259.56073	-157.85198	-44.75185	0
162	-61.02525	-8.95037	38.24249	29.29212	-48.00653	12.20505	90.31737	-26.03744	-224.57292	-253.86504	-156.22464	-46.37919	0
163	-61.83892	-15.45973	34.98781	32.5468	-46.37919	8.1367	78.92599	-41.49717	-222.13191	-246.54201	-159.47932	-51.26121	0
164	-63.46626	-21.15542	27.66478	38.24249	-42.31084	1.62734	69.16195	-57.77057	-219.6909	-238.40531	-158.66565	-52.88855	0
165	-59.39791	-31.73313	13.83239	52.07488	-33.36047	-10.57771	63.46626	-74.04397	-215.62255	-228.64127	-149.71528	-46.37919	0
166	-48.8202	-40.6835	0	59.39791	-21.96909	-22.78276	60.21158	-85.43535	-207.48585	-215.62255	-136.69656	-37.42882	0
167	-36.61515	-42.31084	-9.76404	54.51589	-11.39138	-28.47845	59.39791	-91.94471	-197.72181	-200.97649	-123.67784	-29.29212	0
168	-28.47845	-43.93818	-18.71441	46.37919	-3.25468	-33.36047	58.58424	-96.01306	-185.51676	-183.88942	-111.47279	-23.59643	0
169	-25.22377	-40.6835	-22.78276	36.61515	2.44101	-34.98781	57.77057	-96.82673	-170.05703	-163.54767	-100.08141	-18.71441	0
170	-23.59643	-29.29212	-21.96909	20.34175	4.06835	-29.29212	56.9569	-100.08141	-157.85198	-148.08794	-89.5037	-15.45973	0
171	-22.78276	-22.78276	-18.71441	11.39138	2.44101	-24.4101	52.88855	-109.84545	-152.96996	-139.95124	-82.99434	-13.83239	0
172	-24.4101	-28.47845	-17.90074	15.45973	0	-25.22377	48.8202	-120.42316	-151.34262	-135.06922	-82.18067	-17.08707	0
173	-26.85111	-34.98781	-17.08707	21.15542	-3.25468	-26.85111	46.37919	-130.1872	-148.08794	-130.1872	-86.24902	-23.59643	0
174	-27.66478	-40.6835	-17.08707	30.91946	-6.50936	-29.29212	40.6835	-139.95124	-144.83326	-124.49151	-87.06269	-26.85111	0
175	-27.66478	-49.63387	-20.34175	49.63387	-6.50936	-36.61515	34.17414	-148.08794	-139.13757	-114.72747	-81.367	-23.59643	0
176	-26.03744	-54.51589	-24.4101	61.02525	-4.88202	-41.49717	28.47845	-151.34262	-130.1872	-104.14976	-73.2303	-17.08707	0
177	-23.59643	-53.70222	-26.85111	56.9569	-0.81367	-42.31084	24.4101	-154.5973	-121.23683	-93.57205	-66.72094	-12.20505	0
178	-21.15542	-54.51589	-30.91946	50.44754	3.25468	-44.75185	21.96909	-157.03831	-112.28646	-82.99434	-61.02525	-9.76404	0
179	-21.15542	-52.88855	-34.98781	43.12451	8.1367	-46.37919	19.52808	-158.66565	-100.89508	-70.78929	-53.70222	-7.32303	0
180	-24.4101	-45.56552	-33.36047	31.73313	8.1367	-43.93818	17.90074	-161.10666	-91.94471	-61.02525	-47.19286	-4.06835	0
181	-26.85111	-41.49717	-30.10579	25.22377	4.88202	-39.86983	14.64606	-168.42969	-89.5037	-56.14323	-40.6835	0.81367	0
182	-25.22377	-42.31084	-29.29212	24.4101	4.06835	-38.24249	12.20505	-176.56639	-86.24902	-52.07488	-39.05616	4.06835	0
183	-19.52808	-39.86983	-28.47845	21.15542	4.88202	-35.80148	13.01872	-183.07575	-79.73966	-44.75185	-40.6835	4.06835	0
184	-15.45973	-40.6835	-29.29212	3.25468	4.88202	-35.80148	13.83239	-188.77144	-73.2303	-35.80148	-39.05616	8.1367	0
185	-16.2734	-49.63387	-33.36047	-25.22377	4.88202	-43.12451	12.20505	-192.83979	-65.0936	-24.4101	-30.10579	17.08707	0
186	-17.90074	-59.39791	-39.05616	-33.36047	6.50936	-51.26121	10.57771	-192.83979	-54.51589	-13.01872	-20.34175	26.03744	0
187	-18.71441	-64.27993	-43.12451	-17.08707	8.95037	-55.32956	5.69569	-192.83979	-46.37919	-4.06835	-13.83239	34.98781	0
188	-21.15542	-69.97562	-48.8202	7.32303	13.01872	-61.02525	0	-195.2808	-39.05616	4.06835	-9.76404	42.31084	0
189	-22.78276	-69.97562	-53.70222	25.22377	18.71441	-65.0936	-2.44101	-196.90814	-30.10579	13.01872	-6.50936	45.56552	0
190	-21.96909	-61.83892	-54.51589	28.47845	21.15542	-62.65259	-2.44101	-200.16282	-24.4101	17.90074	-4.06835	44.75185	0
191	-18.71441	-56.14323	-54.51589	27.66478	22.78276	-59.39791	-2.44101	-205.85851	-24.4101	17.08707	-3.25468	43.93818	0
192	-15.45973	-58.58424	-56.14323	30.91946	23.59643	-60.21158	-0.81367	-209.92686	-24.4101	15.45973	-4.88202	42.31084	0
193	-9.76404	-59.39791	-56.14323	31.73313	23.59643	-59.39791	2.44101	-209.92686	-21.96909	16.2734	-9.76404	39.05616	0
194	-3.25468	-61.02525	-56.9569	15.45973	22.78276	-59.39791	4.06835	-210.74053	-17.90074	20.34175	-8.95037	41.49717	0
195	0	-66.72094	-61.02525	-13.01872	24.4101	-65.0936	4.06835	-212.36787	-13.83239	26.03744	-2.44101	49.63387	0
196	-1.62734	-72.41663	-62.65259	-22.78276	24.4101	-69.16195	3.25468	-211.5542	-8.1367	32.5468	4.88202	58.58424	0
197	-8.95037	-75.67131	-59.39791	-6.50936	19.52808	-69.16195	2.44101	-210.74053	-4.06835	38.24249	11.39138	67.53461	0
198	-17.08707	-78.92599	-56.14323	17.90074	15.45973	-69.16195	1.62734	-210.74053	0	43.93818	18.71441	74.85764	0
199	-24.4101	-80.55333	-55.32956	38.24249	14.64606	-71.60296	2.44101	-208.29952	6.50936	50.44754	21.96909	78.11232	0
200	-29.29212	-77.29865	-54.51589	43.93818	14.64606	-69.97562	4.88202	-206.67218	11.39138	52.88855	19.52808	77.29865	0
201	-31.73313	-75.67131	-54.51589	46.37919	13.83239	-69.16195	7.32303	-209.92686	9.76404	49.63387	13.01872	74.85764	0
202	-30.91946	-79.73966	-57.77057	50.44754	15.45973	-71.60296	9.76404	-213.18154	6.50936	43.93818	8.1367	70.78929	0
203	-29.29212	-80.55333	-60.21158	49.63387	17.08707	-71.60296	13.01872	-213.18154	5.69569	39.86983	7.32303	65.90727	0
204	-24.4101	-78.11232	-61.02525	50.44754	18.71441	-69.97562	14.64606	-213.18154	6.50936	39.86983	8.1367	65.90727	0
205	-18.71441	-78.92599	-64.27993	61.02525	20.34175	-72.41663	14.64606	-212.36787	9.76404	43.12451	8.1367	71.60296	0
206	-16.2734	-79.73966	-64.27993	67.53461	21.15542	-74.04397	13.83239	-209.11319	13.01872	45.56552	7.32303	78.11232	0
207	-17.90074	-79.73966	-61.02525	65.90727	18.71441	-71.60296	13.01872	-207.48585	13.83239	47.19286	6.50936	82.18067	0
208	-21.15542	-80.55333	-59.39791	62.65259	17.90074	-71.60296	12.20505	-206.67218	14.64606	47.19286	7.32303	82.18067	0
209	-21.96909	-78.92599	-59.39791	56.14323	20.34175	-72.41663	11.39138	-205.85851	16.2734	47.19286	6.50936	79.73966	0
210	-19.52808	-70.78929	-58.58424	43.12451	21.96909	-69.16195	9.76404	-208.29952	13.83239	43.12451	1.62734	76.48498	0
211	-17.08707	-65.0936	-56.9569	32.5468	22.78276	-65.0936	8.1367	-213.99521	6.50936	34.98781	-4.88202	72.41663	0
212	-16.2734	-63.46626	-54.51589	31.73313	21.15542	-61.83892	8.1367	-218.87723	0	26.85111	-9.76404	67.53461	0
213	-17.90074	-62.65259	-49.63387	33.36047	15.45973	-57.77057	9.76404	-218.87723	-1.62734	21.96909	-11.39138	61.83892	0
214	-22.78276	-65.0936	-43.93818	21.15542	8.1367	-54.51589	10.57771	-218.87723	-2.44101	21.15542	-11.39138	59.39791	0
215	-33.36047	-74.85764	-42.31084	-1.62734	0.81367	-59.39791	12.20505	-216.43622	0	23.59643	-12.20505	63.46626	0
216	-44.75185	-86.24902	-40.6835	-4.88202	-5.69569	-64.27993	15.45973	-211.5542	3.25468	28.47845	-11.39138	70.78929	0
217	-51.26121	-91.13104	-39.05616	13.01872	-8.1367	-65.90727	18.71441	-206.67218	6.50936	31.73313	-11.39138	75.67131	0
218	-49.63387	-91.13104	-40.6835	34.17414	-4.88202	-67.53461	20.34175	-203.4175	8.95037	34.17414	-13.01872	77.29865	0
219	-44.75185	-87.06269	-43.93818	48.00653	0.81367	-69.16195	21.15542	-201.79016	10.57771	34.17414	-14.64606	76.48498	0
220	-40.6835	-79.73966	-43.93818	50.44754	4.06835	-66.72094	20.34175	-204.23117	8.95037	30.10579	-18.71441	73.2303	0
221	-36.61515	-73.2303	-41.49717	48.00653	4.88202	-62.65259	17.90074	-210.74053	1.62734	22.78276	-23.59643	69.97562	0
222	-34.98781	-69.16195	-39.05616	48.8202	3.25468	-57.77057	16.2734	-216.43622	-4.06835	14.64606	-26.03744	65.90727	0
223	-34.17414	-65.0936	-33.36047	47.19286	0	-51.26121	17.08707	-219.6909	-6.50936	8.95037	-26.03744	58.58424	0
224	-34.17414	-61.02525	-30.10579	48.00653	-1.62734	-46.37919	17.08707	-222.13191	-8.95037	5.69569	-27.66478	52.88855	0
225	-33.36047	-62.65259	-32.5468	59.39791	-0.81367	-48.00653	16.2734	-223.75925	-8.1367	6.50936	-29.29212	51.26121	0
226	-32.5468	-65.90727	-35.80148	66.72094	0	-52.07488	15.45973	-221.31824	-4.88202	8.95037	-30.91946	52.07488	0
227	-30.91946	-65.90727	-36.61515	63.46626	0.81367	-52.07488	14.64606	-218.87723	-2.44101	11.39138	-30.91946	52.07488	0
228	-29.29212	-63.46626	-35.80148	56.9569	2.44101	-51.26121	14.64606	-215.62255	0	13.01872	-28.47845	50.44754	0
229	-28.47845	-56.14323	-31.73313	47.19286	4.06835	-47.19286	16.2734	-211.5542	4.06835	17.08707	-25.22377	48.8202	0
230	-27.66478	-43.12451	-21.96909	31.73313	0.81367	-37.42882	18.71441	-209.11319	6.50936	17.90074	-25.22377	48.8202	0
231	-28.47845	-30.91946	-8.95037	21.15542	-5.69569	-24.4101	18.71441	-211.5542	3.25468	15.45973	-27.66478	49.63387	0
232	-30.10579	-23.59643	1.62734	18.71441	-13.83239	-13.83239	20.34175	-213.99521	-4.06835	12.20505	-31.73313	48.00653	0
233	-31.73313	-15.45973	12.20505	16.2734	-21.15542	-3.25468	22.78276	-210.74053	-12.20505	11.39138	-35.80148	43.93818	0
234	-31.73313	-8.1367	21.15542	18.71441	-27.66478	5.69569	25.22377	-206.67218	-12.20505	16.2734	-34.98781	43.12451	0
235	-32.5468	-4.88202	25.22377	29.29212	-30.91946	9.76404	26.85111	-201.79016	-1.62734	25.22377	-27.66478	46.37919	0
236	-32.5468	-1.62734	29.29212	34.98781	-33.36047	13.01872	30.10579	-195.2808	13.01872	35.80148	-17.08707	52.88855	0
237	-31.73313	4.06835	35.80148	29.29212	-35.80148	19.52808	36.61515	-188.77144	26.85111	44.75185	-7.32303	57.77057	0
238	-30.91946	10.57771	39.86983	21.15542	-35.80148	24.4101	44.75185	-183.07575	36.61515	52.07488	0.81367	60.21158	0
239	-28.47845	17.90074	40.6835	30.10579	-31.73313	26.85111	53.70222	-178.19373	43.12451	56.9569	5.69569	61.02525	0
240	-22.78276	26.85111	42.31084	56.9569	-27.66478	29.29212	60.21158	-175.75272	43.12451	56.9569	5.69569	60.21158	0
241	-15.45973	34.17414	43.12451	65.0936	-24.4101	33.36047	60.21158	-179.82107	35.80148	51.26121	2.44101	59.39791	0
242	-9.76404	39.86983	43.12451	45.56552	-22.78276	37.42882	58.58424	-187.95777	24.4101	46.37919	2.44101	63.46626	1500	QRS+0
243	-4.88202	50.44754	47.19286	12.20505	-22.78276	47.19286	56.9569	-195.2808	16.2734	48.8202	9.76404	72.41663	0
244	0.81367	65.0936	55.32956	-15.45973	-23.59643	60.21158	56.14323	-191.21245	19.52808	59.39791	19.52808	82.99434	0
245	7.32303	78.92599	62.65259	-28.47845	-26.03744	71.60296	54.51589	-174.12538	35.80148	74.85764	29.29212	91.94471	0
246	13.01872	91.13104	71.60296	-38.24249	-29.29212	82.18067	52.07488	-153.78363	56.9569	92.75838	39.86983	100.89508	0
247	16.2734	101.70875	81.367	-48.8202	-33.36047	91.94471	45.56552	-138.3239	71.60296	104.96343	47.19286	109.03178	0
248	16.2734	107.40444	87.87636	-55.32956	-35.80148	96.82673	34.17414	-131.81454	78.11232	110.65912	50.44754	113.10013	0
249	13.83239	110.65912	92.75838	-59.39791	-37.42882	98.45407	18.71441	-137.51023	77.29865	109.84545	51.26121	113.9138	0
250	10.57771	114.72747	100.89508	-65.0936	-42.31084	102.52242	0	-156.22464	67.53461	102.52242	48.8202	113.10013	0
251	5.69569	119.60949	109.84545	-69.97562	-48.8202	109.03178	-21.15542	-181.44841	51.26121	91.94471	45.56552	112.28646	0
252	6.50936	127.74619	117.98215	-74.04397	-53.70222	117.98215	-41.49717	-200.16282	39.05616	84.62168	42.31084	117.98215	0
253	11.39138	140.76491	123.67784	-83.80801	-53.70222	130.1872	-64.27993	-210.74053	33.36047	83.80801	39.86983	128.55986	0
254	16.2734	153.78363	125.30518	-91.13104	-50.44754	139.95124	-83.80801	-218.87723	29.29212	86.24902	43.12451	138.3239	0
255	23.59643	160.29299	120.42316	-88.69003	-43.12451	141.57858	-98.45407	-225.38659	27.66478	91.13104	52.07488	144.83326	0
256	36.61515	163.54767	112.28646	-89.5037	-34.17414	138.3239	-106.59077	-226.20026	28.47845	96.01306	61.83892	150.52895	0
257	50.44754	165.17501	104.96343	-97.6404	-25.22377	135.88289	-111.47279	-225.38659	30.10579	99.26774	69.16195	153.78363	0
258	58.58424	163.54767	95.19939	-104.14976	-14.64606	129.37353	-113.9138	-223.75925	32.5468	99.26774	72.41663	154.5973	0
259	61.02525	158.66565	86.24902	-108.21811	-6.50936	119.60949	-117.16848	-222.13191	35.80148	99.26774	74.04397	155.41097	0
260	59.39791	152.96996	81.367	-111.47279	-4.06835	112.28646	-122.0505	-226.20026	30.10579	93.57205	72.41663	153.78363	0
261	57.77057	145.64693	78.11232	-110.65912	-4.88202	105.7771	-128.55986	-235.9643	14.64606	81.367	65.90727	150.52895	0
262	58.58424	138.3239	73.2303	-106.59077	-3.25468	100.89508	-132.62821	-248.98302	-2.44101	69.97562	56.9569	149.71528	0
263	59.39791	132.62821	69.97562	-102.52242	-3.25468	98.45407	-128.55986	-258.74706	-15.45973	65.90727	48.8202	151.34262	0
264	57.77057	126.93252	66.72094	-112.28646	-4.06835	96.82673	-118.79582	-254.67871	-13.83239	71.60296	48.8202	153.78363	0
265	52.07488	115.54114	60.21158	-135.06922	-4.88202	88.69003	-106.59077	-236.77797	0	83.80801	55.32956	154.5973	0
266	42.31084	97.6404	52.07488	-135.06922	-6.50936	75.67131	-93.57205	-213.18154	17.90074	96.01306	61.02525	151.34262	0
267	30.91946	75.67131	43.93818	-104.96343	-8.95037	60.21158	-81.367	-193.65346	32.5468	102.52242	61.83892	144.01959	0
268	21.15542	50.44754	31.73313	-66.72094	-7.32303	40.6835	-71.60296	-180.63474	43.12451	103.33609	59.39791	135.88289	0
269	13.83239	28.47845	16.2734	-34.17414	-1.62734	19.52808	-64.27993	-173.31171	47.19286	101.70875	56.14323	126.93252	0
270	8.1367	12.20505	3.25468	-16.2734	3.25468	1.62734	-61.83892	-174.12538	41.49717	94.38572	50.44754	118.79582	0
271	3.25468	-3.25468	-8.95037	-3.25468	8.1367	-12.20505	-64.27993	-183.07575	26.03744	80.55333	40.6835	109.03178	0
272	-1.62734	-21.15542	-21.15542	9.76404	10.57771	-26.03744	-67.53461	-193.65346	8.95037	65.90727	28.47845	97.6404	0
273	-7.32303	-35.80148	-30.10579	20.34175	11.39138	-35.80148	-69.16195	-198.53548	0	56.9569	17.08707	86.24902	0
274	-13.01872	-46.37919	-36.61515	31.73313	12.20505	-41.49717	-69.97562	-199.34915	-4.06835	54.51589	13.01872	79.73966	0
275	-17.90074	-58.58424	-45.56552	48.8202	13.01872	-51.26121	-70.78929	-196.90814	-4.06835	57.77057	15.45973	79.73966	0
276	-21.96909	-70.78929	-52.88855	61.83892	14.64606	-61.02525	-70.78929	-189.58511	0	63.46626	18.71441	81.367	0
277	-26.03744	-79.73966	-56.9569	65.90727	14.64606	-68.34828	-69.16195	-182.26208	4.06835	66.72094	19.52808	81.367	0
278	-27.66478	-87.06269	-61.83892	66.72094	17.08707	-74.85764	-66.72094	-175.75272	8.1367	65.90727	17.90074	78.92599	0
279	-26.85111	-91.13104	-66.72094	64.27993	21.96909	-82.18067	-65.0936	-170.05703	10.57771	63.46626	16.2734	75.67131	0
280	-24.4101	-90.31737	-69.16195	56.9569	25.22377	-86.24902	-64.27993	-168.42969	6.50936	58.58424	13.01872	73.2303	0
281	-21.96909	-90.31737	-70.78929	51.26121	26.85111	-87.87636	-67.53461	-170.8707	-2.44101	49.63387	8.95037	71.60296	0
282	-17.08707	-91.94471	-76.48498	48.8202	30.91946	-89.5037	-70.78929	-171.68437	-16.2734	42.31084	7.32303	72.41663	0
283	-10.57771	-92.75838	-82.18067	47.19286	35.80148	-90.31737	-73.2303	-168.42969	-27.66478	39.86983	10.57771	75.67131	0
284	-6.50936	-94.38572	-87.06269	30.10579	38.24249	-90.31737	-73.2303	-161.92033	-30.91946	43.93818	16.2734	79.73966	0
285	-8.1367	-100.89508	-91.94471	0	39.05616	-95.19939	-72.41663	-153.78363	-23.59643	52.88855	21.96909	84.62168	0
286	-13.83239	-109.84545	-96.82673	-7.32303	38.24249	-102.52242	-70.78929	-144.83326	-11.39138	64.27993	28.47845	89.5037	0
287	-17.90074	-116.35481	-99.26774	8.95037	38.24249	-107.40444	-68.34828	-136.69656	-0.81367	73.2303	32.5468	92.75838	0
288	-17.90074	-119.60949	-103.33609	32.5468	42.31084	-111.47279	-65.0936	-129.37353	6.50936	78.92599	34.98781	96.01306	0
289	-13.83239	-119.60949	-107.40444	50.44754	48.00653	-117.16848	-61.83892	-122.0505	14.64606	82.18067	37.42882	97.6404	0
290	-10.57771	-117.98215	-108.21811	57.77057	51.26121	-119.60949	-59.39791	-118.79582	15.45973	79.73966	37.42882	99.26774	0
291	-9.76404	-117.16848	-108.21811	61.02525	51.26121	-120.42316	-61.02525	-122.0505	7.32303	72.41663	34.17414	99.26774	0
292	-12.20505	-119.60949	-108.21811	65.0936	48.8202	-119.60949	-62.65259	-125.30518	-4.06835	65.0936	28.47845	98.45407	0
293	-16.2734	-121.23683	-105.7771	67.53461	45.56552	-116.35481	-62.65259	-124.49151	-15.45973	61.02525	21.15542	98.45407	0
294	-20.34175	-121.23683	-105.7771	71.60296	44.75185	-113.9138	-63.46626	-122.0505	-18.71441	61.83892	17.90074	97.6404	0
295	-21.96909	-125.30518	-110.65912	80.55333	47.19286	-117.16848	-63.46626	-118.79582	-13.01872	67.53461	21.15542	96.82673	0
296	-21.15542	-131.81454	-116.35481	87.87636	48.8202	-122.86417	-63.46626	-113.10013	-3.25468	74.85764	25.22377	97.6404	0
297	-21.15542	-135.88289	-118.79582	88.69003	48.8202	-126.11885	-62.65259	-108.21811	3.25468	78.11232	27.66478	98.45407	0
298	-22.78276	-138.3239	-121.23683	87.06269	51.26121	-129.37353	-59.39791	-104.96343	7.32303	77.29865	26.03744	96.82673	0
299	-24.4101	-134.25555	-121.23683	80.55333	55.32956	-130.1872	-55.32956	-100.89508	10.57771	74.85764	23.59643	96.01306	0
300	-21.15542	-123.67784	-115.54114	67.53461	55.32956	-126.11885	-50.44754	-98.45407	10.57771	69.97562	21.96909	96.82673	0
301	-13.83239	-113.10013	-109.84545	55.32956	54.51589	-118.79582	-48.00653	-99.26774	5.69569	64.27993	20.34175	100.08141	0
302	-7.32303	-106.59077	-105.7771	49.63387	52.88855	-112.28646	-48.00653	-102.52242	-0.81367	58.58424	17.90074	106.59077	0
303	-3.25468	-98.45407	-98.45407	44.75185	48.8202	-101.70875	-48.8202	-109.84545	-11.39138	53.70222	15.45973	116.35481	0
304	-4.06835	-86.24902	-85.43535	43.12451	41.49717	-85.43535	-52.88855	-126.93252	-30.91946	43.93818	16.2734	126.11885	0
305	-8.1367	-74.85764	-69.16195	48.00653	30.91946	-69.97562	-57.77057	-152.15629	-66.72094	-1.62734	16.2734	131.81454	0
306	-13.83239	-61.83892	-48.8202	48.8202	17.08707	-52.88855	-58.58424	-185.51676	-122.86417	-94.38572	8.95037	133.44188	0
307	-17.90074	-45.56552	-27.66478	42.31084	4.06835	-34.98781	-55.32956	-225.38659	-202.60383	-185.51676	-10.57771	131.81454	0
308	-18.71441	-30.10579	-13.83239	31.73313	-0.81367	-21.15542	-46.37919	-269.32477	-300.24423	-254.67871	-38.24249	130.1872	0
309	-13.83239	-48.00653	-3.25468	32.5468	0	-9.76404	-35.80148	-317.3313	-408.46234	-321.39965	-65.0936	135.88289	0
310	-3.25468	-102.52242	8.1367	47.19286	0	2.44101	-30.10579	-376.72921	-524.00348	-388.12059	-79.73966	157.85198	0
311	13.83239	-113.9138	17.90074	39.05616	2.44101	20.34175	-37.42882	-462.16456	-638.73095	-444.26382	-68.34828	205.85851	0
312	44.75185	-52.88855	25.22377	-4.88202	12.20505	43.12451	-64.27993	-582.58772	-735.55768	-471.11493	-19.52808	283.97083	0
313	88.69003	4.88202	34.98781	-55.32956	26.85111	36.61515	-118.79582	-737.99869	-794.95559	-451.58685	69.97562	395.44362	0
314	145.64693	32.5468	50.44754	-96.01306	47.19286	-3.25468	-201.79016	-930.83848	-812.04266	-375.91554	202.60383	537.0222	0
315	205.04484	100.08141	67.53461	-154.5973	69.16195	4.06835	-303.49891	-1182.26251	-794.95559	-252.2377	370.21985	703.01088	0
316	260.3744	227.01393	90.31737	-243.28733	88.69003	86.24902	-404.39399	-1477.62472	-755.08576	-93.57205	561.4323	884.45929	0
317	303.49891	374.2882	135.88289	-339.30039	89.5037	205.04484	-490.64301	-1743.69481	-701.38354	88.69003	768.10448	1067.53504	0
318	312.44928	501.22072	209.92686	-436.94079	22.78276	327.90901	-558.99129	-1943.85763	-674.53243	254.67871	982.91336	1239.21941	0
319	263.62908	578.51937	254.67871	-515.05311	-93.57205	428.80409	-606.99782	-2082.9952	-685.11014	377.54288	1180.63517	1374.28863	0
320	165.17501	606.18415	258.74706	-513.42577	-174.12538	506.91641	-602.92947	-2151.34348	-655.00435	506.91641	1305.94035	1432.87287	0
321	45.56552	580.14671	298.61689	-421.48106	-227.8276	543.53156	-537.0222	-2152.97082	-563.87331	621.64388	1307.56769	1390.56203	0
322	-67.53461	503.66173	377.54288	-288.85285	-287.22551	528.8855	-456.46887	-2131.00173	-496.3387	627.33957	1164.36177	1248.16978	0
323	-168.42969	358.0148	398.6983	-133.44188	-331.97736	436.94079	-404.39399	-2125.30604	-538.64954	446.70483	873.88158	1018.71484	0
324	-253.86504	191.21245	367.77884	35.80148	-370.21985	311.63561	-384.05224	-2135.07008	-734.74401	52.88855	458.90988	720.91162	0
325	-322.21332	100.89508	373.47453	177.38006	-407.64867	250.61036	-382.4249	-2131.8154	-1047.19329	-454.02786	-5.69569	384.86591	0
326	-365.33783	32.5468	368.59251	264.44275	-408.46234	202.60383	-398.6983	-2086.24988	-1361.26991	-908.05572	-414.15803	64.27993	0
327	-380.79756	-69.16195	297.80322	310.00827	-362.08315	110.65912	-439.3818	-1988.60948	-1566.31475	-1213.18197	-695.68785	-176.56639	0
328	-372.66086	-167.61602	244.101	326.28167	-317.3313	52.88855	-497.15237	-1847.0309	-1615.94862	-1340.11449	-867.37222	-316.51763	0
329	-347.43709	-240.84632	241.65999	337.67305	-295.36221	56.9569	-559.80496	-1671.27818	-1526.44492	-1303.49934	-968.2673	-371.03352	0
330	-306.75359	-286.41184	201.79016	354.76012	-251.42403	34.17414	-611.06617	-1443.45058	-1318.95907	-1158.66608	-960.94427	-361.26948	0
331	-255.49238	-309.1946	98.45407	345.80975	-174.12538	-42.31084	-637.91728	-1165.17544	-1039.05659	-961.75794	-837.26643	-309.1946	0
332	-200.97649	-310.00827	-8.95037	305.12625	-93.57205	-119.60949	-633.03526	-913.75141	-778.68219	-751.83108	-659.0727	-234.33696	0
333	-149.71528	-291.29386	-89.5037	268.5111	-29.29212	-170.05703	-593.9791	-720.91162	-576.89203	-555.73661	-481.69264	-155.41097	0
334	-105.7771	-258.74706	-134.25555	256.30605	13.01872	-188.77144	-529.69917	-563.87331	-414.15803	-384.05224	-331.97736	-83.80801	0
335	-69.97562	-223.75925	-152.15629	235.15063	39.05616	-186.33043	-451.58685	-424.73574	-277.46147	-239.21898	-217.24989	-24.4101	0
336	-44.75185	-188.77144	-150.52895	188.77144	51.26121	-170.8707	-369.40618	-297.80322	-158.66565	-119.60949	-131.81454	23.59643	0
337	-29.29212	-154.5973	-135.88289	136.69656	52.88855	-148.08794	-291.29386	-187.1441	-58.58424	-27.66478	-73.2303	59.39791	0
338	-21.15542	-128.55986	-119.60949	96.01306	51.26121	-126.93252	-224.57292	-97.6404	21.15542	38.24249	-33.36047	83.80801	-1500	QRS-0
339	-13.01872	-110.65912	-109.03178	68.34828	52.88855	-113.9138	-172.49804	-28.47845	82.99434	85.43535	-6.50936	99.26774	0
340	-4.06835	-99.26774	-103.33609	48.00653	56.14323	-109.03178	-133.44188	21.15542	127.74619	117.16848	10.57771	109.03178	0
341	1.62734	-96.01306	-103.33609	39.05616	57.77057	-108.21811	-103.33609	60.21158	159.47932	139.95124	22.78276	115.54114	0
342	4.88202	-100.89508	-109.84545	39.05616	61.02525	-111.47279	-77.29865	96.01306	187.95777	160.29299	35.80148	122.0505	0
343	4.88202	-104.14976	-117.98215	39.05616	66.72094	-113.9138	-50.44754	134.25555	218.87723	184.70309	52.88855	131.81454	0
344	3.25468	-104.96343	-126.11885	39.86983	73.2303	-114.72747	-27.66478	171.68437	250.61036	213.18154	71.60296	141.57858	0
345	5.69569	-109.03178	-135.88289	46.37919	79.73966	-119.60949	-9.76404	205.85851	279.90248	240.84632	87.87636	148.90161	0
346	14.64606	-114.72747	-146.4606	49.63387	87.06269	-127.74619	2.44101	233.52329	303.49891	263.62908	99.26774	153.78363	0
347	26.03744	-120.42316	-157.03831	49.63387	95.19939	-136.69656	10.57771	254.67871	319.77231	276.6478	103.33609	153.78363	0
348	33.36047	-126.93252	-166.80235	49.63387	102.52242	-146.4606	15.45973	269.32477	328.72268	281.52982	103.33609	150.52895	0
349	37.42882	-130.1872	-172.49804	48.8202	109.03178	-153.78363	18.71441	279.08881	335.23204	282.34349	103.33609	147.27427	0
350	37.42882	-129.37353	-170.8707	46.37919	109.03178	-156.22464	21.96909	286.41184	337.67305	281.52982	103.33609	145.64693	0
351	37.42882	-126.93252	-165.98868	42.31084	104.96343	-153.78363	24.4101	291.29386	336.85938	279.08881	104.14976	147.27427	0
352	37.42882	-122.86417	-163.54767	39.05616	103.33609	-148.90161	27.66478	298.61689	338.48672	279.90248	108.21811	152.15629	0
353	37.42882	-115.54114	-161.92033	32.5468	103.33609	-141.57858	31.73313	310.00827	347.43709	286.41184	117.98215	161.10666	0
354	39.05616	-108.21811	-160.29299	28.47845	104.14976	-134.25555	38.24249	325.468	360.45581	300.24423	131.00087	170.8707	0
355	40.6835	-107.40444	-160.29299	32.5468	103.33609	-131.81454	45.56552	342.55507	376.72921	318.14497	143.20592	179.82107	0
356	40.6835	-111.47279	-160.29299	39.05616	101.70875	-134.25555	51.26121	358.0148	391.37527	333.6047	151.34262	184.70309	0
357	40.6835	-113.9138	-159.47932	40.6835	100.08141	-135.88289	55.32956	370.21985	401.95298	341.7414	152.96996	184.70309	0
358	43.12451	-114.72747	-161.10666	39.86983	103.33609	-138.3239	60.21158	379.98389	408.46234	344.18241	149.71528	181.44841	0
359	48.00653	-113.9138	-166.80235	35.80148	110.65912	-143.20592	64.27993	388.12059	413.34436	343.36874	146.4606	177.38006	0
360	54.51589	-111.47279	-170.8707	28.47845	117.16848	-147.27427	66.72094	392.18894	411.71702	336.85938	140.76491	173.31171	0
361	59.39791	-109.84545	-173.31171	22.78276	119.60949	-148.90161	64.27993	391.37527	405.20766	327.90901	133.44188	169.24336	0
362	62.65259	-108.21811	-173.31171	20.34175	119.60949	-146.4606	61.02525	392.18894	400.32564	320.58598	130.1872	168.42969	0
363	64.27993	-102.52242	-168.42969	16.2734	116.35481	-138.3239	59.39791	397.88463	401.95298	319.77231	131.81454	170.8707	0
364	65.0936	-92.75838	-161.92033	12.20505	113.10013	-126.93252	59.39791	406.835	408.46234	326.28167	138.3239	174.93905	0
365	65.90727	-86.24902	-157.03831	13.01872	110.65912	-119.60949	62.65259	419.04005	420.66739	340.11406	146.4606	180.63474	0
366	64.27993	-84.62168	-152.15629	15.45973	106.59077	-116.35481	66.72094	432.87244	433.68611	355.57379	155.41097	186.33043	0
367	61.02525	-85.43535	-148.08794	16.2734	103.33609	-115.54114	69.97562	445.07749	444.26382	365.33783	159.47932	189.58511	0
368	61.02525	-87.06269	-148.90161	17.08707	104.96343	-117.98215	72.41663	454.84153	451.58685	367.77884	159.47932	189.58511	0
369	65.0936	-87.87636	-152.96996	15.45973	110.65912	-122.86417	75.67131	464.60557	457.28254	366.1515	156.22464	187.95777	0
370	70.78929	-83.80801	-154.5973	9.76404	114.72747	-125.30518	78.92599	471.9286	458.09621	360.45581	152.15629	186.33043	0
371	74.04397	-79.73966	-152.96996	3.25468	115.54114	-122.86417	80.55333	475.99695	455.6552	351.50544	146.4606	185.51676	0
372	74.85764	-75.67131	-149.71528	0	113.10013	-117.98215	82.18067	476.81062	453.21419	345.80975	143.20592	186.33043	0
373	74.04397	-68.34828	-144.83326	-4.06835	109.84545	-109.03178	83.80801	476.81062	454.84153	343.36874	144.83326	189.58511	0
374	73.2303	-59.39791	-139.95124	-8.95037	107.40444	-99.26774	84.62168	481.69264	459.72355	347.43709	149.71528	193.65346	0
375	73.2303	-55.32956	-137.51023	-8.1367	106.59077	-95.19939	84.62168	493.08402	466.23291	355.57379	155.41097	196.09447	0
376	74.04397	-54.51589	-135.88289	-7.32303	105.7771	-93.57205	85.43535	509.35742	475.99695	365.33783	161.10666	198.53548	0
377	76.48498	-50.44754	-131.81454	-9.76404	104.14976	-89.5037	89.5037	526.44449	485.76099	372.66086	164.36134	200.16282	0
378	77.29865	-47.19286	-128.55986	-12.20505	104.14976	-87.87636	94.38572	541.09055	493.89769	374.2882	164.36134	198.53548	0
379	75.67131	-43.93818	-126.11885	-13.83239	104.96343	-87.87636	100.08141	553.2956	500.40705	370.21985	161.10666	192.83979	0
380	72.41663	-40.6835	-118.79582	-15.45973	100.89508	-85.43535	104.14976	559.80496	499.59338	360.45581	153.78363	185.51676	0
381	68.34828	-36.61515	-109.84545	-17.08707	93.57205	-79.73966	104.14976	560.61863	493.08402	347.43709	144.83326	178.19373	0
382	64.27993	-34.17414	-101.70875	-16.2734	85.43535	-72.41663	105.7771	563.05964	489.82934	337.67305	139.13757	173.31171	0
383	62.65259	-27.66478	-92.75838	-18.71441	78.11232	-62.65259	109.03178	569.569	492.27035	334.41837	139.13757	171.68437	0
384	65.90727	-17.90074	-86.24902	-23.59643	74.04397	-51.26121	113.10013	580.96038	499.59338	339.30039	144.01959	170.8707	0
385	70.78929	-10.57771	-83.80801	-26.85111	74.85764	-45.56552	117.98215	594.79277	511.79843	350.69177	151.34262	170.8707	0
386	72.41663	-8.1367	-81.367	-27.66478	74.85764	-43.12451	123.67784	611.87984	525.63082	362.08315	157.03831	170.05703	0
387	69.16195	-6.50936	-75.67131	-26.85111	70.78929	-39.86983	130.1872	627.33957	535.39486	367.77884	158.66565	165.98868	0
388	62.65259	-6.50936	-71.60296	-24.4101	67.53461	-38.24249	135.06922	641.17196	541.09055	365.33783	153.78363	157.85198	0
389	58.58424	-5.69569	-69.16195	-24.4101	68.34828	-39.86983	138.3239	654.19068	543.53156	356.38746	146.4606	147.27427	0
390	57.77057	-0.81367	-65.0936	-28.47845	67.53461	-38.24249	140.76491	663.95472	540.27688	343.36874	136.69656	135.88289	0
391	60.21158	5.69569	-58.58424	-34.98781	64.27993	-31.73313	140.76491	670.46408	531.32651	328.72268	126.11885	126.11885	0
392	64.27993	16.2734	-51.26121	-42.31084	60.21158	-21.96909	140.76491	678.60078	524.00348	314.89029	118.79582	120.42316	0
393	68.34828	30.91946	-39.05616	-51.26121	54.51589	-6.50936	141.57858	690.80583	519.93513	305.12625	114.72747	117.16848	0
394	70.78929	46.37919	-26.03744	-59.39791	47.19286	10.57771	143.20592	706.26556	519.12146	300.24423	113.10013	115.54114	0
395	68.34828	56.14323	-13.83239	-60.21158	38.24249	22.78276	147.27427	724.97997	522.37614	300.24423	112.28646	114.72747	0
396	61.83892	60.21158	-1.62734	-56.9569	28.47845	30.91946	152.15629	746.13539	525.63082	300.24423	111.47279	113.10013	0
397	55.32956	65.0936	9.76404	-56.9569	20.34175	39.05616	157.03831	764.03613	526.44449	295.36221	107.40444	109.84545	0
398	51.26121	71.60296	17.90074	-59.39791	16.2734	44.75185	160.29299	780.30953	523.18981	284.7845	100.08141	103.33609	0
399	49.63387	80.55333	25.22377	-64.27993	16.2734	50.44754	164.36134	794.14192	518.30779	269.32477	89.5037	96.01306	0
400	50.44754	93.57205	36.61515	-73.2303	13.01872	60.21158	166.80235	803.09229	506.91641	248.98302	78.11232	88.69003	0
401	51.26121	108.21811	50.44754	-81.367	4.88202	73.2303	167.61602	807.16064	489.01567	225.38659	64.27993	81.367	0
402	50.44754	118.79582	64.27993	-86.24902	-3.25468	87.06269	166.80235	806.34697	469.48759	201.79016	52.07488	74.85764	0
403	47.19286	128.55986	78.11232	-90.31737	-13.01872	100.89508	164.36134	803.90596	449.95951	179.82107	42.31084	69.97562	0
404	43.93818	141.57858	91.13104	-94.38572	-22.78276	116.35481	162.734	803.09229	432.87244	161.92033	35.80148	65.90727	0
405	41.49717	149.71528	101.70875	-96.01306	-30.10579	126.93252	164.36134	808.78798	418.22638	149.71528	30.91946	63.46626	0
406	39.05616	154.5973	110.65912	-95.19939	-36.61515	134.25555	169.24336	816.92468	405.20766	138.3239	25.22377	61.02525	0
407	37.42882	158.66565	118.79582	-96.82673	-41.49717	139.95124	174.12538	821.8067	391.37527	123.67784	17.90074	56.9569	0
408	37.42882	163.54767	123.67784	-99.26774	-42.31084	144.01959	179.0074	822.62037	375.10187	104.14976	7.32303	52.07488	0
409	38.24249	168.42969	127.74619	-101.70875	-41.49717	145.64693	183.88942	822.62037	357.20113	81.367	-3.25468	47.19286	0
410	37.42882	177.38006	136.69656	-105.7771	-44.75185	152.15629	185.51676	816.11101	332.79103	53.70222	-16.2734	42.31084	0
411	33.36047	185.51676	148.90161	-109.84545	-53.70222	161.92033	184.70309	802.27862	301.87157	22.78276	-30.91946	37.42882	0
412	26.85111	191.21245	162.734	-109.84545	-65.0936	172.49804	182.26208	787.63256	270.13844	-6.50936	-43.93818	34.17414	0
413	18.71441	196.90814	175.75272	-109.03178	-78.11232	184.70309	179.0074	772.9865	240.84632	-33.36047	-53.70222	31.73313	0
414	12.20505	202.60383	186.33043	-108.21811	-87.87636	194.46713	174.93905	758.34044	214.80888	-55.32956	-61.83892	27.66478	0
415	5.69569	201.79016	190.39878	-104.14976	-93.57205	197.72181	171.68437	744.50805	192.02612	-72.41663	-68.34828	22.78276	0
416	0	196.90814	193.65346	-96.82673	-98.45407	196.90814	170.8707	733.93034	172.49804	-85.43535	-74.04397	18.71441	0
417	-5.69569	193.65346	198.53548	-92.75838	-104.14976	196.90814	171.68437	722.53896	152.96996	-101.70875	-82.99434	13.01872	0
418	-11.39138	191.21245	201.79016	-88.69003	-105.7771	196.09447	173.31171	711.14758	131.81454	-121.23683	-95.19939	5.69569	0
419	-17.08707	188.77144	200.97649	-85.43535	-104.96343	192.83979	174.93905	697.31519	108.21811	-146.4606	-109.03178	-2.44101	0
420	-21.15542	188.77144	203.4175	-84.62168	-106.59077	191.21245	174.93905	677.78711	78.11232	-177.38006	-126.93252	-13.83239	0
421	-24.4101	187.95777	207.48585	-82.99434	-110.65912	192.02612	171.68437	650.936	40.6835	-210.74053	-146.4606	-27.66478	0
422	-28.47845	184.70309	209.92686	-78.92599	-116.35481	192.83979	165.98868	621.64388	4.06835	-242.47366	-164.36134	-41.49717	0
423	-33.36047	183.07575	213.99521	-75.67131	-122.86417	196.90814	161.10666	595.60644	-25.22377	-267.69743	-177.38006	-52.88855	0
424	-35.80148	185.51676	218.06356	-74.85764	-128.55986	201.79016	158.66565	574.45102	-48.00653	-284.7845	-183.07575	-61.02525	0
425	-38.24249	184.70309	219.6909	-72.41663	-131.81454	203.4175	159.47932	557.36395	-64.27993	-292.9212	-185.51676	-65.0936	0
426	-42.31084	179.82107	221.31824	-66.72094	-134.25555	200.97649	161.10666	541.90422	-77.29865	-297.80322	-185.51676	-67.53461	0
427	-48.00653	172.49804	220.50457	-61.02525	-135.88289	196.90814	162.734	524.00348	-91.13104	-302.68524	-187.95777	-71.60296	0
428	-52.88855	161.10666	213.18154	-52.88855	-133.44188	187.1441	162.734	503.66173	-106.59077	-311.63561	-194.46713	-78.11232	0
429	-56.14323	147.27427	201.79016	-43.93818	-126.11885	172.49804	160.29299	482.50631	-122.86417	-324.65433	-203.4175	-85.43535	0
430	-60.21158	135.88289	192.83979	-37.42882	-122.0505	160.29299	155.41097	455.6552	-144.01959	-342.55507	-215.62255	-94.38572	0
431	-62.65259	125.30518	185.51676	-31.73313	-120.42316	150.52895	147.27427	422.29473	-170.8707	-362.08315	-228.64127	-104.14976	0
432	-63.46626	116.35481	178.19373	-26.85111	-118.79582	143.20592	139.95124	392.18894	-192.83979	-377.54288	-238.40531	-111.47279	0
433	-61.83892	113.10013	170.8707	-26.85111	-115.54114	139.95124	135.88289	366.96517	-206.67218	-384.05224	-240.03265	-113.9138	0
434	-63.46626	111.47279	163.54767	-28.47845	-111.47279	137.51023	133.44188	345.80975	-214.80888	-383.23857	-236.77797	-113.9138	0
435	-63.46626	103.33609	153.78363	-25.22377	-106.59077	129.37353	130.1872	325.468	-219.6909	-376.72921	-231.89595	-113.10013	0
436	-61.83892	91.13104	143.20592	-17.90074	-100.89508	117.98215	126.11885	305.93992	-222.94558	-368.59251	-227.8276	-113.10013	0
437	-59.39791	78.92599	133.44188	-11.39138	-96.01306	106.59077	122.0505	287.22551	-224.57292	-361.26948	-226.20026	-114.72747	0
438	-59.39791	65.0936	122.86417	-2.44101	-91.13104	93.57205	117.98215	270.95211	-225.38659	-354.76012	-224.57292	-117.16848	0
439	-63.46626	53.70222	113.9138	4.06835	-84.62168	81.367	116.35481	258.74706	-224.57292	-349.06443	-222.94558	-117.16848	0
440	-68.34828	48.00653	111.47279	8.1367	-83.80801	75.67131	114.72747	243.28733	-226.20026	-344.99608	-222.13191	-117.16848	0
441	-73.2303	44.75185	112.28646	12.20505	-87.06269	73.2303	110.65912	222.94558	-232.70962	-343.36874	-222.94558	-117.16848	0
442	-76.48498	37.42882	110.65912	17.08707	-90.31737	70.78929	104.14976	202.60383	-238.40531	-340.92773	-222.13191	-116.35481	0
443	-79.73966	33.36047	106.59077	19.52808	-91.13104	68.34828	97.6404	186.33043	-240.03265	-335.23204	-218.06356	-114.72747	0
444	-81.367	32.5468	100.08141	17.08707	-87.87636	66.72094	90.31737	172.49804	-237.59164	-323.02699	-209.92686	-110.65912	0
445	-78.11232	27.66478	87.87636	17.08707	-79.73966	58.58424	85.43535	162.734	-229.45494	-304.31258	-197.72181	-104.14976	0
446	-69.97562	18.71441	75.67131	18.71441	-70.78929	48.00653	82.99434	155.41097	-218.06356	-283.15716	-184.70309	-96.01306	0
447	-65.90727	8.95037	66.72094	23.59643	-65.0936	38.24249	80.55333	149.71528	-205.85851	-262.81541	-171.68437	-89.5037	0
448	-65.90727	-0.81367	58.58424	30.10579	-60.21158	28.47845	78.92599	144.83326	-193.65346	-246.54201	-162.734	-84.62168	0
449	-66.72094	-11.39138	48.00653	36.61515	-52.07488	16.2734	78.11232	142.39225	-183.07575	-234.33696	-155.41097	-79.73966	0
450	-66.72094	-17.08707	39.86983	39.05616	-46.37919	7.32303	75.67131	135.88289	-178.19373	-227.8276	-151.34262	-77.29865	0
451	-62.65259	-21.15542	33.36047	39.05616	-42.31084	1.62734	69.97562	122.0505	-180.63474	-225.38659	-150.52895	-76.48498	0
452	-54.51589	-24.4101	26.03744	37.42882	-37.42882	-2.44101	62.65259	106.59077	-183.07575	-222.13191	-148.08794	-75.67131	0
453	-46.37919	-22.78276	20.34175	33.36047	-32.5468	-2.44101	54.51589	92.75838	-180.63474	-214.80888	-144.83326	-73.2303	0
454	-41.49717	-18.71441	17.08707	28.47845	-30.91946	0	47.19286	82.99434	-175.75272	-204.23117	-138.3239	-70.78929	0
455	-41.49717	-21.15542	13.83239	28.47845	-30.91946	-2.44101	41.49717	79.73966	-168.42969	-187.95777	-130.1872	-66.72094	0
456	-43.12451	-27.66478	11.39138	33.36047	-30.91946	-7.32303	38.24249	79.73966	-156.22464	-167.61602	-118.79582	-60.21158	0
457	-43.12451	-33.36047	7.32303	36.61515	-27.66478	-12.20505	36.61515	80.55333	-142.39225	-147.27427	-106.59077	-53.70222	0
458	-38.24249	-36.61515	0	36.61515	-19.52808	-18.71441	34.98781	82.99434	-127.74619	-128.55986	-95.19939	-48.00653	0
459	-32.5468	-39.86983	-8.95037	35.80148	-8.95037	-26.03744	35.80148	87.06269	-113.10013	-113.10013	-86.24902	-41.49717	0
460	-28.47845	-39.05616	-13.01872	34.17414	-3.25468	-29.29212	34.98781	85.43535	-104.96343	-104.14976	-81.367	-37.42882	0
461	-26.85111	-37.42882	-13.01872	32.5468	-3.25468	-29.29212	30.91946	77.29865	-104.14976	-99.26774	-78.92599	-34.98781	0
462	-26.03744	-37.42882	-13.01872	31.73313	-4.06835	-28.47845	26.03744	68.34828	-103.33609	-96.01306	-76.48498	-33.36047	0
463	-24.4101	-34.98781	-13.01872	29.29212	-5.69569	-25.22377	21.15542	61.83892	-100.08141	-89.5037	-69.97562	-30.10579	0
464	-22.78276	-30.91946	-13.83239	25.22377	-6.50936	-21.96909	17.90074	58.58424	-93.57205	-76.48498	-60.21158	-25.22377	0
465	-21.15542	-32.5468	-17.90074	24.4101	-4.88202	-24.4101	17.08707	58.58424	-82.99434	-58.58424	-48.00653	-19.52808	0
466	-20.34175	-39.86983	-22.78276	28.47845	-2.44101	-30.91946	17.08707	61.83892	-70.78929	-39.05616	-34.98781	-13.01872	0
467	-21.96909	-48.8202	-28.47845	33.36047	0	-38.24249	16.2734	64.27993	-58.58424	-21.15542	-25.22377	-8.95037	0
468	-22.78276	-59.39791	-37.42882	39.86983	7.32303	-48.8202	14.64606	65.90727	-47.19286	-7.32303	-18.71441	-5.69569	0
469	-22.78276	-67.53461	-48.00653	43.93818	16.2734	-59.39791	12.20505	67.53461	-38.24249	0	-15.45973	-3.25468	0
470	-21.15542	-68.34828	-52.07488	43.12451	21.15542	-63.46626	8.95037	62.65259	-34.98781	0	-17.90074	-3.25468	0
471	-17.08707	-64.27993	-51.26121	39.86983	21.96909	-61.02525	4.06835	51.26121	-38.24249	-3.25468	-23.59643	-7.32303	0
472	-12.20505	-59.39791	-49.63387	34.98781	21.15542	-56.9569	0	39.86983	-40.6835	-6.50936	-28.47845	-10.57771	0
473	-7.32303	-51.26121	-46.37919	28.47845	19.52808	-50.44754	-3.25468	33.36047	-38.24249	-4.06835	-27.66478	-10.57771	0
474	-4.06835	-42.31084	-43.12451	21.96909	16.2734	-42.31084	-4.88202	28.47845	-30.91946	4.88202	-21.96909	-6.50936	0
475	-5.69569	-40.6835	-40.6835	21.15542	13.01872	-40.6835	-4.88202	27.66478	-20.34175	21.96909	-10.57771	0.81367	0
476	-9.76404	-46.37919	-39.86983	26.03744	10.57771	-43.12451	-1.62734	29.29212	-7.32303	42.31084	0.81367	8.95037	0
477	-15.45973	-52.88855	-39.05616	32.5468	8.1367	-46.37919	0.81367	30.91946	4.06835	59.39791	10.57771	15.45973	0
478	-18.71441	-61.02525	-42.31084	39.05616	10.57771	-52.07488	3.25468	34.17414	14.64606	72.41663	17.08707	19.52808	0
479	-18.71441	-67.53461	-48.8202	43.12451	17.90074	-60.21158	4.88202	38.24249	23.59643	78.92599	20.34175	21.96909	0
480	-16.2734	-68.34828	-52.07488	43.12451	21.96909	-63.46626	4.88202	39.05616	26.85111	78.92599	18.71441	23.59643	0
481	-15.45973	-66.72094	-53.70222	41.49717	22.78276	-63.46626	2.44101	32.5468	23.59643	74.85764	13.01872	21.15542	0
482	-17.08707	-66.72094	-55.32956	39.86983	22.78276	-63.46626	0	26.03744	18.71441	68.34828	7.32303	18.71441	0
483	-21.15542	-64.27993	-53.70222	38.24249	19.52808	-60.21158	-2.44101	21.15542	17.08707	65.0936	4.88202	17.90074	0
484	-26.85111	-60.21158	-50.44754	35.80148	13.83239	-55.32956	-2.44101	19.52808	17.90074	67.53461	7.32303	19.52808	0
485	-32.5468	-61.83892	-47.19286	38.24249	8.1367	-54.51589	-0.81367	19.52808	21.96909	74.85764	13.01872	21.96909	0
486	-35.80148	-69.16195	-45.56552	44.75185	4.88202	-56.9569	0.81367	20.34175	27.66478	83.80801	17.08707	22.78276	0
487	-36.61515	-75.67131	-46.37919	51.26121	4.06835	-61.02525	1.62734	20.34175	33.36047	90.31737	18.71441	21.15542	0
488	-34.98781	-82.99434	-51.26121	55.32956	9.76404	-67.53461	2.44101	22.78276	39.05616	94.38572	19.52808	18.71441	0
489	-30.10579	-85.43535	-58.58424	55.32956	18.71441	-73.2303	4.88202	28.47845	46.37919	96.01306	18.71441	18.71441	0
490	-23.59643	-78.92599	-59.39791	49.63387	24.4101	-71.60296	7.32303	30.10579	48.00653	92.75838	15.45973	17.08707	0
491	-17.08707	-69.16195	-56.9569	42.31084	25.22377	-65.90727	8.1367	24.4101	41.49717	85.43535	8.1367	13.01872	0
492	-12.20505	-64.27993	-55.32956	37.42882	24.4101	-61.02525	8.1367	17.08707	34.98781	77.29865	1.62734	8.1367	0
493	-10.57771	-58.58424	-52.07488	33.36047	21.15542	-56.14323	8.95037	12.20505	30.91946	72.41663	0	4.06835	0
494	-10.57771	-52.07488	-51.26121	28.47845	17.90074	-51.26121	8.95037	7.32303	29.29212	71.60296	0	1.62734	0
495	-10.57771	-52.88855	-52.88855	26.85111	17.08707	-52.07488	8.95037	4.88202	30.91946	75.67131	4.06835	0.81367	0
496	-12.20505	-57.77057	-52.88855	30.10579	17.08707	-55.32956	10.57771	5.69569	35.80148	82.99434	8.95037	0	0
497	-16.2734	-63.46626	-50.44754	36.61515	14.64606	-56.9569	13.01872	8.1367	40.6835	89.5037	12.20505	-0.81367	0
498	-22.78276	-69.16195	-49.63387	42.31084	14.64606	-60.21158	16.2734	13.01872	46.37919	93.57205	13.01872	-4.06835	0
499	-28.47845	-74.85764	-52.88855	48.00653	19.52808	-65.0936	20.34175	19.52808	51.26121	91.94471	9.76404	-7.32303	0
500	-30.91946	-75.67131	-54.51589	49.63387	21.96909	-67.53461	21.96909	20.34175	48.8202	84.62168	1.62734	-13.83239	0
501	-29.29212	-73.2303	-52.07488	48.8202	19.52808	-65.0936	22.78276	13.83239	40.6835	73.2303	-8.1367	-21.96909	0
502	-27.66478	-69.97562	-48.00653	47.19286	15.45973	-60.21158	21.96909	4.88202	30.10579	61.02525	-17.90074	-29.29212	0
503	-26.03744	-62.65259	-41.49717	43.12451	8.95037	-52.88855	21.15542	-1.62734	22.78276	51.26121	-22.78276	-34.17414	0
504	-26.85111	-53.70222	-35.80148	36.61515	1.62734	-43.93818	20.34175	-7.32303	17.90074	46.37919	-23.59643	-35.80148	0
505	-28.47845	-51.26121	-31.73313	34.98781	-2.44101	-40.6835	21.96909	-8.95037	17.08707	48.8202	-19.52808	-35.80148	0
506	-30.10579	-53.70222	-29.29212	37.42882	-4.06835	-41.49717	26.03744	-6.50936	21.15542	56.9569	-14.64606	-34.98781	0
507	-32.5468	-56.9569	-27.66478	41.49717	-4.88202	-42.31084	30.10579	-4.06835	26.85111	64.27993	-10.57771	-37.42882	0
508	-35.80148	-61.83892	-29.29212	45.56552	-1.62734	-45.56552	33.36047	0	33.36047	69.16195	-10.57771	-41.49717	0
509	-39.05616	-65.90727	-33.36047	48.00653	4.88202	-51.26121	35.80148	7.32303	39.86983	69.97562	-13.01872	-46.37919	0
510	-39.05616	-63.46626	-34.17414	47.19286	8.95037	-51.26121	36.61515	9.76404	40.6835	64.27993	-18.71441	-52.88855	0
511	-34.98781	-56.9569	-30.91946	43.12451	6.50936	-45.56552	36.61515	5.69569	34.98781	56.9569	-26.03744	-60.21158	0
512	-30.10579	-48.00653	-23.59643	37.42882	2.44101	-37.42882	37.42882	0.81367	30.91946	49.63387	-30.10579	-65.0936	0
513	-26.03744	-34.98781	-14.64606	29.29212	-4.06835	-25.22377	37.42882	-1.62734	28.47845	46.37919	-30.91946	-67.53461	0
514	-21.96909	-19.52808	-4.88202	18.71441	-11.39138	-12.20505	37.42882	-3.25468	29.29212	46.37919	-28.47845	-68.34828	0
515	-20.34175	-9.76404	2.44101	11.39138	-17.08707	-3.25468	38.24249	-2.44101	31.73313	51.26121	-23.59643	-66.72094	0
516	-20.34175	-4.88202	11.39138	8.95037	-21.15542	2.44101	40.6835	0	37.42882	59.39791	-17.08707	-63.46626	0
517	-22.78276	0	20.34175	8.95037	-26.03744	8.95037	44.75185	4.06835	45.56552	68.34828	-10.57771	-61.83892	0
518	-25.22377	1.62734	26.03744	9.76404	-26.03744	13.01872	50.44754	10.57771	52.88855	74.85764	-6.50936	-60.21158	0
519	-26.03744	1.62734	26.85111	10.57771	-21.15542	13.01872	57.77057	17.08707	59.39791	76.48498	-6.50936	-60.21158	0
520	-25.22377	5.69569	29.29212	8.95037	-19.52808	16.2734	65.0936	17.08707	57.77057	71.60296	-10.57771	-61.83892	0
521	-25.22377	12.20505	34.17414	6.50936	-23.59643	21.96909	69.97562	8.95037	50.44754	63.46626	-17.08707	-65.90727	0
522	-23.59643	18.71441	39.86983	2.44101	-28.47845	28.47845	74.85764	2.44101	44.75185	56.9569	-20.34175	-67.53461	0
523	-20.34175	30.10579	47.19286	-4.06835	-33.36047	38.24249	78.92599	0	43.12451	53.70222	-19.52808	-66.72094	0
524	-16.2734	45.56552	54.51589	-15.45973	-39.05616	49.63387	78.92599	0	44.75185	56.14323	-14.64606	-62.65259	0
525	-13.01872	55.32956	60.21158	-24.4101	-42.31084	57.77057	76.48498	1.62734	50.44754	63.46626	-7.32303	-58.58424	0
526	-10.57771	61.02525	66.72094	-28.47845	-43.93818	63.46626	74.04397	6.50936	59.39791	74.85764	1.62734	-53.70222	0
527	-8.95037	69.97562	76.48498	-33.36047	-46.37919	72.41663	70.78929	13.01872	70.78929	88.69003	10.57771	-48.8202	0
528	-6.50936	76.48498	82.99434	-36.61515	-44.75185	78.92599	67.53461	19.52808	82.99434	100.89508	19.52808	-43.12451	0
529	-2.44101	82.18067	83.80801	-41.49717	-37.42882	81.367	61.02525	23.59643	92.75838	107.40444	25.22377	-37.42882	0
530	4.06835	91.13104	83.80801	-48.00653	-30.91946	86.24902	50.44754	14.64606	91.94471	106.59077	26.85111	-33.36047	0
531	10.57771	101.70875	87.06269	-56.14323	-30.91946	92.75838	33.36047	-6.50936	80.55333	99.26774	23.59643	-33.36047	0
532	15.45973	109.03178	90.31737	-61.83892	-32.5468	99.26774	13.83239	-33.36047	65.90727	89.5037	20.34175	-34.98781	0
533	16.2734	119.60949	96.01306	-69.16195	-37.42882	107.40444	-4.06835	-57.77057	54.51589	82.18067	19.52808	-34.17414	0
534	17.08707	132.62821	99.26774	-81.367	-39.86983	116.35481	-22.78276	-77.29865	46.37919	80.55333	22.78276	-30.10579	0
535	22.78276	142.39225	99.26774	-91.94471	-38.24249	120.42316	-39.05616	-91.94471	42.31084	84.62168	30.91946	-21.96909	0
536	31.73313	147.27427	99.26774	-98.45407	-33.36047	122.0505	-54.51589	-101.70875	42.31084	91.13104	39.86983	-13.01872	0
537	39.86983	151.34262	101.70875	-102.52242	-31.73313	126.11885	-68.34828	-109.03178	43.93818	98.45407	48.8202	-5.69569	0
538	44.75185	152.15629	101.70875	-103.33609	-52.88855	126.11885	-79.73966	-111.47279	47.19286	104.14976	55.32956	-0.81367	0
539	50.44754	150.52895	95.19939	-104.14976	-99.26774	122.0505	-88.69003	-110.65912	50.44754	104.96343	56.9569	3.25468	0
540	58.58424	153.78363	88.69003	-108.21811	-117.16848	120.42316	-96.01306	-115.54114	48.00653	99.26774	53.70222	4.88202	0
541	69.16195	157.85198	83.80801	-113.9138	-91.94471	120.42316	-104.96343	-131.00087	36.61515	88.69003	46.37919	1.62734	0
542	78.11232	158.66565	76.48498	-118.79582	-54.51589	117.98215	-113.9138	-149.71528	22.78276	75.67131	36.61515	-3.25468	0
543	83.80801	161.10666	72.41663	-122.0505	-24.4101	117.16848	-121.23683	-166.80235	9.76404	63.46626	30.10579	-8.95037	0
544	82.99434	161.92033	72.41663	-123.67784	-8.95037	117.16848	-123.67784	-177.38006	0.81367	57.77057	27.66478	-14.64606	0
545	74.04397	154.5973	74.04397	-117.16848	-5.69569	113.9138	-116.35481	-178.19373	0.81367	60.21158	30.91946	-17.90074	0
546	60.21158	139.95124	76.48498	-104.14976	-8.95037	107.40444	-101.70875	-168.42969	9.76404	70.78929	38.24249	-21.15542	0
547	43.93818	121.23683	74.85764	-86.24902	-13.83239	96.82673	-85.43535	-154.5973	21.96909	82.99434	45.56552	-26.03744	0
548	31.73313	95.19939	64.27993	-65.0936	-13.01872	78.92599	-71.60296	-137.51023	34.17414	91.94471	49.63387	-32.5468	0
549	24.4101	64.27993	44.75185	-43.12451	-4.06835	53.70222	-60.21158	-122.0505	43.12451	93.57205	48.00653	-41.49717	0
550	15.45973	35.80148	25.22377	-22.78276	0.81367	30.10579	-52.07488	-114.72747	43.93818	87.87636	39.86983	-54.51589	0
551	5.69569	11.39138	8.1367	-5.69569	3.25468	8.95037	-48.8202	-119.60949	35.80148	76.48498	26.85111	-71.60296	0
552	0	-8.1367	-6.50936	6.50936	5.69569	-7.32303	-48.00653	-128.55986	24.4101	61.83892	13.01872	-89.5037	0
553	-2.44101	-19.52808	-18.71441	11.39138	7.32303	-18.71441	-49.63387	-139.95124	12.20505	48.00653	1.62734	-104.96343	0
554	-1.62734	-25.22377	-30.91946	11.39138	9.76404	-27.66478	-52.88855	-152.96996	0	37.42882	-6.50936	-118.79582	0
555	0.81367	-34.17414	-43.93818	12.20505	15.45973	-39.86983	-54.51589	-163.54767	-9.76404	30.91946	-11.39138	-131.00087	0
556	1.62734	-46.37919	-55.32956	17.08707	22.78276	-52.07488	-54.51589	-169.24336	-13.83239	31.73313	-12.20505	-139.95124	-1250	T-0
557	0	-58.58424	-60.21158	26.03744	25.22377	-60.21158	-52.07488	-169.24336	-12.20505	37.42882	-10.57771	-147.27427	0
558	-3.25468	-69.97562	-64.27993	34.98781	28.47845	-68.34828	-49.63387	-164.36134	-5.69569	43.93818	-8.95037	-152.15629	0
559	-8.95037	-82.99434	-69.97562	45.56552	34.98781	-77.29865	-48.00653	-155.41097	0	45.56552	-10.57771	-157.85198	0
560	-17.08707	-90.31737	-72.41663	53.70222	35.80148	-81.367	-48.00653	-153.78363	0	40.6835	-16.2734	-164.36134	0
561	-23.59643	-94.38572	-71.60296	60.21158	30.91946	-82.99434	-49.63387	-160.29299	-7.32303	31.73313	-24.4101	-173.31171	0
562	-27.66478	-96.01306	-72.41663	61.83892	27.66478	-83.80801	-51.26121	-167.61602	-14.64606	23.59643	-30.10579	-179.82107	0
563	-28.47845	-91.13104	-73.2303	56.9569	26.03744	-82.18067	-51.26121	-172.49804	-19.52808	19.52808	-31.73313	-183.88942	0
564	-25.22377	-83.80801	-75.67131	48.00653	25.22377	-79.73966	-52.88855	-176.56639	-22.78276	18.71441	-30.91946	-186.33043	0
565	-18.71441	-83.80801	-81.367	43.12451	27.66478	-83.80801	-53.70222	-177.38006	-23.59643	22.78276	-27.66478	-187.1441	0
566	-13.01872	-89.5037	-86.24902	43.93818	32.5468	-89.5037	-51.26121	-173.31171	-18.71441	30.91946	-20.34175	-183.88942	0
567	-10.57771	-95.19939	-89.5037	47.19286	35.80148	-93.57205	-48.8202	-167.61602	-10.57771	42.31084	-11.39138	-178.19373	0
568	-11.39138	-102.52242	-94.38572	52.88855	42.31084	-100.08141	-46.37919	-157.85198	-1.62734	52.07488	-4.06835	-172.49804	0
569	-13.83239	-112.28646	-102.52242	58.58424	53.70222	-108.21811	-43.12451	-146.4606	5.69569	55.32956	-1.62734	-168.42969	0
570	-16.2734	-117.16848	-107.40444	63.46626	58.58424	-112.28646	-39.86983	-141.57858	6.50936	52.07488	-4.88202	-166.80235	0
571	-17.08707	-118.79582	-109.03178	65.90727	56.9569	-113.10013	-39.05616	-148.08794	0	43.12451	-12.20505	-170.8707	0
572	-17.90074	-122.0505	-109.03178	69.16195	52.88855	-114.72747	-39.86983	-157.85198	-9.76404	32.5468	-19.52808	-174.93905	0
573	-21.15542	-122.86417	-108.21811	70.78929	46.37919	-114.72747	-40.6835	-167.61602	-17.08707	25.22377	-24.4101	-176.56639	0
574	-24.4101	-119.60949	-109.03178	66.72094	41.49717	-114.72747	-41.49717	-174.93905	-23.59643	21.96909	-26.03744	-175.75272	0
575	-22.78276	-120.42316	-113.10013	63.46626	42.31084	-117.98215	-40.6835	-178.19373	-25.22377	24.4101	-22.78276	-173.31171	0
576	-16.2734	-123.67784	-118.79582	61.83892	48.00653	-122.86417	-37.42882	-178.19373	-21.96909	31.73313	-16.2734	-169.24336	0
577	-8.95037	-125.30518	-123.67784	61.02525	54.51589	-126.11885	-33.36047	-175.75272	-15.45973	41.49717	-8.95037	-165.98868	0
578	-2.44101	-130.1872	-130.1872	61.83892	65.0936	-131.81454	-31.73313	-170.8707	-8.1367	48.8202	-4.06835	-163.54767	0
579	0	-136.69656	-138.3239	64.27993	77.29865	-138.3239	-30.91946	-162.734	-1.62734	51.26121	-3.25468	-161.10666	0
580	0	-139.13757	-142.39225	67.53461	82.18067	-140.76491	-29.29212	-160.29299	0	48.8202	-6.50936	-161.10666	0
581	-3.25468	-138.3239	-139.13757	69.97562	77.29865	-137.51023	-27.66478	-165.98868	-4.88202	43.93818	-12.20505	-165.17501	0
582	-8.95037	-136.69656	-131.00087	72.41663	66.72094	-132.62821	-24.4101	-173.31171	-10.57771	36.61515	-18.71441	-170.05703	0
583	-14.64606	-129.37353	-119.60949	71.60296	53.70222	-123.67784	-20.34175	-180.63474	-15.45973	30.10579	-22.78276	-174.93905	0
584	-17.08707	-117.16848	-109.03178	64.27993	41.49717	-113.10013	-19.52808	-189.58511	-22.78276	24.4101	-25.22377	-177.38006	0
585	-15.45973	-106.59077	-100.89508	56.9569	35.80148	-104.96343	-19.52808	-201.79016	-32.5468	20.34175	-22.78276	-175.75272	0
586	-13.01872	-98.45407	-91.94471	50.44754	33.36047	-96.82673	-20.34175	-220.50457	-50.44754	13.01872	-18.71441	-171.68437	0
587	-10.57771	-86.24902	-78.92599	44.75185	30.10579	-84.62168	-22.78276	-248.98302	-82.18067	-4.88202	-20.34175	-170.8707	0
588	-11.39138	-74.04397	-65.90727	38.24249	29.29212	-70.78929	-26.85111	-282.34349	-132.62821	-44.75185	-32.5468	-172.49804	0
589	-14.64606	-64.27993	-57.77057	32.5468	34.17414	-61.02525	-27.66478	-320.58598	-205.04484	-109.03178	-56.14323	-174.93905	0
590	-16.2734	-53.70222	-49.63387	28.47845	34.17414	-50.44754	-25.22377	-368.59251	-300.24423	-192.02612	-87.06269	-177.38006	0
591	-9.76404	-36.61515	-38.24249	18.71441	29.29212	-35.80148	-20.34175	-425.54941	-410.08968	-284.7845	-115.54114	-173.31171	0
592	4.88202	-11.39138	-24.4101	0	24.4101	-16.2734	-19.52808	-489.01567	-520.7488	-371.84719	-129.37353	-153.78363	0
593	27.66478	-21.15542	-8.95037	-5.69569	22.78276	-39.05616	-17.08707	-571.19634	-624.89856	-440.19547	-116.35481	-109.84545	0
594	56.9569	-74.04397	6.50936	1.62734	24.4101	-111.47279	-10.57771	-686.73748	-715.21593	-476.81062	-70.78929	-38.24249	0
595	96.01306	-68.34828	21.96909	-22.78276	34.17414	-127.74619	-52.07488	-840.52111	-778.68219	-468.67392	12.20505	62.65259	0
596	148.08794	26.85111	36.61515	-96.01306	52.88855	-56.14323	-160.29299	-1034.98824	-804.71963	-407.64867	135.06922	194.46713	0
597	212.36787	156.22464	47.19286	-190.39878	79.73966	43.93818	-283.15716	-1278.27557	-802.27862	-301.0579	292.10753	349.8781	0
598	277.46147	331.16369	107.40444	-280.71615	85.43535	189.58511	-384.05224	-1554.1097	-781.93687	-161.92033	471.9286	482.50631	0
599	328.72268	512.6121	246.54201	-354.76012	48.00653	355.57379	-461.35089	-1829.13016	-746.13539	2.44101	668.02307	563.87331	0
600	340.92773	595.60644	383.23857	-414.15803	-10.57771	446.70483	-484.13365	-2076.48584	-698.94253	192.02612	875.50892	667.2094	0
601	295.36221	620.83021	485.76099	-442.63648	-86.24902	501.22072	-434.49978	-2269.32563	-646.86765	388.12059	1069.97605	817.73835	0
602	196.09447	628.96691	562.24597	-417.41271	-177.38006	553.2956	-358.82847	-2372.66172	-596.42011	555.73661	1196.90857	938.16151	0
603	73.2303	541.90422	598.86112	-321.39965	-233.52329	568.75533	-293.73487	-2384.86677	-553.2956	651.74967	1204.2316	958.50326	0
604	-49.63387	391.37527	602.1158	-174.12538	-244.101	576.07836	-253.86504	-2356.38832	-524.81715	623.27122	1067.53504	862.4902	0
605	-163.54767	301.0579	585.02873	-39.86983	-266.07009	585.8424	-248.98302	-2336.04657	-560.61863	427.17675	789.2599	663.14105	0
606	-265.25642	244.101	552.48193	57.77057	-319.77231	542.71789	-265.25642	-2331.97822	-717.65694	52.07488	397.07096	386.49325	0
607	-347.43709	152.96996	499.59338	139.95124	-366.1515	432.05877	-288.03918	-2319.77317	-979.65868	-430.43143	-39.05616	76.48498	0
608	-401.95298	83.80801	469.48759	187.95777	-404.39399	338.48672	-317.3313	-2316.51849	-1255.49281	-883.64562	-425.54941	-210.74053	0
609	-426.36308	66.72094	477.62429	196.09447	-434.49978	299.43056	-362.89682	-2313.26381	-1446.70526	-1190.39921	-697.31519	-436.12712	0
610	-420.66739	17.90074	428.80409	209.11319	-414.15803	230.26861	-429.61776	-2182.26294	-1481.69307	-1316.51806	-838.0801	-585.02873	0
611	-388.93426	-81.367	300.24423	238.40531	-340.11406	105.7771	-506.91641	-1906.42881	-1361.26991	-1286.41227	-866.55855	-659.0727	0
612	-336.85938	-177.38006	154.5973	257.11972	-244.91467	-17.90074	-577.7057	-1624.89899	-1184.70352	-1152.97039	-814.48367	-669.65041	0
613	-272.57945	-242.47366	27.66478	279.08881	-153.78363	-113.10013	-624.08489	-1394.63038	-1008.9508	-969.08097	-716.0296	-634.6626	0
614	-207.48585	-269.32477	-63.46626	307.56726	-81.367	-170.8707	-637.91728	-1193.65389	-836.45276	-774.61384	-601.30213	-573.63735	0
615	-150.52895	-270.95211	-121.23683	302.68524	-26.03744	-200.16282	-614.32085	-1013.01915	-672.09142	-591.53809	-487.38833	-503.66173	0
616	-103.33609	-257.93339	-152.96996	256.30605	13.83239	-208.29952	-559.80496	-846.2168	-518.30779	-431.2451	-384.05224	-433.68611	0
617	-69.97562	-231.89595	-160.29299	199.34915	38.24249	-197.72181	-484.13365	-690.80583	-374.2882	-301.0579	-300.24423	-368.59251	0
618	-48.8202	-202.60383	-153.78363	148.90161	53.70222	-179.0074	-398.6983	-596.42011	-287.22551	-201.79016	-238.40531	-312.44928	0
619	-35.80148	-177.38006	-144.01959	110.65912	67.53461	-161.10666	-314.07662	-575.26469	-270.13844	-119.60949	-187.1441	-266.07009	0
620	-25.22377	-152.15629	-131.00087	84.62168	71.60296	-139.95124	-241.65999	-524.81715	-229.45494	-49.63387	-140.76491	-235.15063	0
621	-15.45973	-128.55986	-119.60949	65.90727	67.53461	-122.0505	-186.33043	-415.78537	-138.3239	1.62734	-104.96343	-217.24989	0
622	-5.69569	-113.10013	-114.72747	52.88855	65.90727	-112.28646	-144.01959	-299.43056	-39.05616	39.05616	-78.92599	-207.48585	0
623	1.62734	-101.70875	-116.35481	41.49717	65.90727	-108.21811	-109.03178	-198.53548	44.75185	66.72094	-57.77057	-200.16282	0
624	8.95037	-96.01306	-124.49151	33.36047	67.53461	-109.84545	-79.73966	-120.42316	110.65912	92.75838	-38.24249	-192.02612	0
625	16.2734	-100.08141	-135.06922	32.5468	72.41663	-118.79582	-52.07488	-61.02525	159.47932	120.42316	-17.90074	-183.88942	0
626	25.22377	-109.84545	-147.27427	34.98781	81.367	-130.1872	-26.03744	-15.45973	197.72181	148.90161	2.44101	-174.93905	0
627	32.5468	-118.79582	-158.66565	38.24249	91.94471	-139.95124	-4.88202	17.90074	227.8276	176.56639	21.15542	-168.42969	0
628	34.17414	-127.74619	-167.61602	41.49717	104.96343	-148.90161	8.95037	47.19286	252.2377	200.16282	36.61515	-163.54767	0
629	31.73313	-137.51023	-178.19373	45.56552	122.0505	-157.85198	18.71441	74.85764	271.76578	215.62255	45.56552	-159.47932	0
630	30.10579	-141.57858	-184.70309	48.8202	131.00087	-161.92033	24.4101	91.94471	282.34349	222.13191	48.00653	-159.47932	0
631	33.36047	-139.13757	-183.88942	48.00653	128.55986	-160.29299	28.47845	100.08141	285.59817	222.94558	45.56552	-164.36134	0
632	39.05616	-132.62821	-179.82107	43.93818	122.86417	-154.5973	32.5468	105.7771	287.22551	222.13191	42.31084	-170.05703	0
633	45.56552	-122.86417	-174.93905	36.61515	114.72747	-147.27427	35.80148	110.65912	288.85285	220.50457	41.49717	-175.75272	0
634	50.44754	-112.28646	-171.68437	28.47845	106.59077	-141.57858	38.24249	115.54114	290.48019	220.50457	43.12451	-179.82107	0
635	54.51589	-108.21811	-170.05703	23.59643	104.14976	-140.76491	41.49717	122.86417	293.73487	224.57292	47.19286	-182.26208	0
636	55.32956	-112.28646	-171.68437	25.22377	104.96343	-143.20592	44.75185	132.62821	301.0579	233.52329	54.51589	-182.26208	0
637	55.32956	-114.72747	-172.49804	26.85111	108.21811	-145.64693	48.8202	144.83326	311.63561	246.54201	62.65259	-181.44841	0
638	56.9569	-118.79582	-176.56639	27.66478	117.98215	-148.90161	51.26121	161.10666	326.28167	260.3744	70.78929	-178.19373	0
639	59.39791	-124.49151	-184.70309	30.10579	135.88289	-154.5973	52.88855	182.26208	341.7414	270.95211	77.29865	-173.31171	0
640	61.83892	-126.93252	-191.21245	30.91946	146.4606	-157.85198	53.70222	196.09447	350.69177	275.83413	78.92599	-170.8707	0
641	64.27993	-123.67784	-192.83979	29.29212	144.83326	-157.03831	52.07488	202.60383	352.31911	275.02046	76.48498	-171.68437	0
642	65.90727	-118.79582	-188.77144	26.03744	138.3239	-152.15629	51.26121	205.04484	351.50544	272.57945	72.41663	-172.49804	0
643	68.34828	-109.84545	-182.26208	20.34175	128.55986	-144.83326	51.26121	207.48585	351.50544	268.5111	69.16195	-171.68437	0
644	69.97562	-99.26774	-176.56639	13.01872	118.79582	-137.51023	49.63387	209.11319	349.8781	266.07009	67.53461	-170.05703	0
645	69.97562	-95.19939	-172.49804	9.76404	113.10013	-135.06922	51.26121	214.80888	349.8781	268.5111	69.16195	-166.80235	0
646	69.97562	-96.01306	-170.8707	9.76404	112.28646	-135.06922	53.70222	222.94558	355.57379	275.83413	75.67131	-161.92033	0
647	71.60296	-94.38572	-169.24336	8.1367	114.72747	-133.44188	56.14323	234.33696	364.52416	287.22551	84.62168	-155.41097	0
648	74.04397	-94.38572	-170.8707	6.50936	124.49151	-133.44188	59.39791	249.79669	376.72921	299.43056	92.75838	-148.08794	0
649	75.67131	-96.01306	-175.75272	5.69569	142.39225	-135.88289	63.46626	270.13844	389.74793	308.38093	97.6404	-140.76491	0
650	78.11232	-91.94471	-178.19373	3.25468	152.15629	-134.25555	67.53461	284.7845	397.88463	311.63561	97.6404	-138.3239	0
651	82.18067	-86.24902	-176.56639	0	148.90161	-130.1872	68.34828	289.66652	397.88463	308.38093	91.94471	-141.57858	0
652	85.43535	-81.367	-173.31171	-2.44101	142.39225	-126.11885	67.53461	289.66652	395.44362	301.87157	82.99434	-147.27427	0
653	88.69003	-74.04397	-169.24336	-7.32303	133.44188	-120.42316	67.53461	290.48019	393.00261	293.73487	74.85764	-152.15629	0
654	90.31737	-65.90727	-165.17501	-13.01872	123.67784	-115.54114	66.72094	292.10753	389.74793	286.41184	69.97562	-152.96996	0
655	89.5037	-64.27993	-161.92033	-15.45973	117.98215	-113.9138	68.34828	296.98955	389.74793	282.34349	68.34828	-152.15629	0
656	87.06269	-68.34828	-161.10666	-12.20505	116.35481	-116.35481	70.78929	305.12625	393.81628	283.97083	69.97562	-148.08794	0
657	82.99434	-74.04397	-160.29299	-7.32303	116.35481	-118.79582	72.41663	316.51763	401.95298	288.85285	74.85764	-144.01959	0
658	78.11232	-80.55333	-161.10666	-1.62734	122.86417	-121.23683	75.67131	334.41837	414.15803	296.17588	81.367	-138.3239	0
659	73.2303	-82.99434	-160.29299	0.81367	134.25555	-121.23683	83.80801	359.64214	430.43143	304.31258	89.5037	-130.1872	0
660	69.97562	-75.67131	-151.34262	0	135.88289	-112.28646	92.75838	382.4249	442.63648	308.38093	95.19939	-124.49151	0
661	69.97562	-62.65259	-139.95124	-4.06835	126.11885	-99.26774	97.6404	394.62995	446.70483	305.93992	94.38572	-125.30518	0
662	72.41663	-52.88855	-130.1872	-10.57771	115.54114	-89.5037	99.26774	400.32564	446.70483	300.24423	90.31737	-131.00087	0
663	75.67131	-40.6835	-122.86417	-17.90074	104.96343	-80.55333	98.45407	404.39399	444.26382	291.29386	85.43535	-138.3239	0
664	78.92599	-26.85111	-116.35481	-28.47845	95.19939	-71.60296	96.82673	409.27601	441.82281	283.15716	80.55333	-147.27427	0
665	82.99434	-17.08707	-110.65912	-37.42882	90.31737	-64.27993	96.82673	419.85372	441.82281	279.90248	79.73966	-153.78363	0
666	87.06269	-11.39138	-106.59077	-42.31084	91.13104	-60.21158	101.70875	435.31345	448.33217	283.97083	82.99434	-157.85198	0
667	89.5037	-8.1367	-102.52242	-43.93818	91.13104	-56.9569	105.7771	454.02786	458.90988	291.29386	88.69003	-161.10666	0
668	87.06269	-11.39138	-101.70875	-41.49717	98.45407	-57.77057	110.65912	475.18328	471.11493	298.61689	94.38572	-163.54767	0
669	83.80801	-17.08707	-105.7771	-36.61515	113.9138	-61.83892	114.72747	500.40705	483.31998	301.0579	96.01306	-165.98868	0
670	81.367	-19.52808	-107.40444	-34.17414	121.23683	-61.83892	117.98215	519.93513	489.01567	297.80322	91.13104	-172.49804	0
671	80.55333	-16.2734	-103.33609	-33.36047	114.72747	-57.77057	119.60949	532.14018	488.202	288.85285	81.367	-184.70309	0
672	80.55333	-9.76404	-96.01306	-35.80148	102.52242	-51.26121	121.23683	541.90422	485.76099	278.27514	70.78929	-197.72181	0
673	81.367	2.44101	-82.99434	-43.12451	87.87636	-38.24249	121.23683	550.04092	481.69264	266.07009	60.21158	-209.92686	0
674	81.367	20.34175	-67.53461	-52.07488	70.78929	-22.78276	119.60949	557.36395	474.36961	252.2377	50.44754	-219.6909	0
675	78.92599	33.36047	-50.44754	-58.58424	56.14323	-8.95037	120.42316	567.94166	470.30126	242.47366	43.12451	-224.57292	0
676	75.67131	44.75185	-33.36047	-62.65259	46.37919	3.25468	123.67784	584.21506	471.11493	239.21898	40.6835	-224.57292	0
677	74.85764	57.77057	-17.90074	-69.16195	39.86983	18.71441	127.74619	604.55681	477.62429	240.84632	43.93818	-220.50457	0
678	75.67131	69.16195	-8.1367	-74.85764	45.56552	29.29212	131.81454	628.15324	485.76099	243.28733	48.8202	-213.99521	0
679	75.67131	74.04397	-4.88202	-78.11232	60.21158	34.17414	135.88289	655.00435	493.08402	240.84632	51.26121	-207.48585	0
680	74.85764	79.73966	-0.81367	-80.55333	66.72094	39.86983	138.3239	674.53243	492.27035	231.89595	48.8202	-205.04484	0
681	74.85764	87.06269	4.88202	-82.18067	58.58424	47.19286	139.13757	684.29647	481.69264	216.43622	39.05616	-208.29952	0
682	73.2303	91.94471	13.83239	-83.80801	44.75185	54.51589	139.95124	689.17849	467.04658	196.90814	27.66478	-213.99521	0
683	68.34828	100.89508	25.22377	-86.24902	28.47845	63.46626	140.76491	691.6195	450.77318	176.56639	17.08707	-219.6909	0
684	62.65259	113.9138	38.24249	-92.75838	12.20505	76.48498	141.57858	693.24684	433.68611	156.22464	7.32303	-225.38659	0
685	60.21158	126.11885	50.44754	-100.08141	0.81367	87.87636	144.83326	698.12886	418.22638	139.13757	0.81367	-228.64127	0
686	62.65259	135.06922	61.83892	-104.96343	-3.25468	96.82673	149.71528	705.45189	406.02133	124.49151	-4.06835	-230.26861	0
687	64.27993	144.01959	72.41663	-109.03178	-6.50936	107.40444	153.78363	711.96125	394.62995	112.28646	-8.1367	-231.08228	0
688	62.65259	148.90161	80.55333	-110.65912	-3.25468	113.9138	157.03831	720.09795	384.05224	100.08141	-12.20505	-228.64127	0
689	57.77057	149.71528	84.62168	-109.03178	8.95037	117.16848	160.29299	729.04832	372.66086	85.43535	-17.08707	-225.38659	0
690	52.07488	152.96996	91.13104	-106.59077	11.39138	122.86417	161.92033	730.67566	355.57379	66.72094	-26.03744	-225.38659	0
691	48.8202	159.47932	100.89508	-106.59077	0	131.81454	160.29299	722.53896	331.97736	43.93818	-39.86983	-230.26861	0
692	48.00653	167.61602	112.28646	-109.03178	-14.64606	141.57858	158.66565	710.33391	305.93992	18.71441	-56.14323	-236.77797	0
693	48.00653	178.19373	124.49151	-113.9138	-4.06835	152.96996	156.22464	695.68785	277.46147	-7.32303	-71.60296	-242.47366	0
694	44.75185	190.39878	138.3239	-119.60949	35.80148	165.17501	154.5973	679.41445	248.16935	-34.98781	-83.80801	-245.72834	0
695	38.24249	196.90814	152.96996	-119.60949	48.8202	174.12538	154.5973	665.58206	219.6909	-58.58424	-93.57205	-246.54201	0
696	28.47845	197.72181	165.17501	-115.54114	18.71441	179.82107	156.22464	654.19068	194.46713	-78.92599	-100.89508	-246.54201	0
697	18.71441	196.09447	175.75272	-109.84545	-21.96909	184.70309	156.22464	643.61297	171.68437	-96.82673	-108.21811	-247.35568	0
698	8.95037	192.02612	180.63474	-103.33609	-49.63387	185.51676	156.22464	636.28994	150.52895	-113.9138	-115.54114	-248.98302	0
699	1.62734	186.33043	179.82107	-97.6404	-56.14323	183.07575	157.03831	631.40792	130.1872	-133.44188	-124.49151	-248.98302	0
700	0	186.33043	180.63474	-95.19939	-60.21158	184.70309	156.22464	620.01654	106.59077	-155.41097	-136.69656	-250.61036	0
701	0	190.39878	183.88942	-96.01306	-70.78929	188.77144	153.78363	600.48846	78.11232	-179.82107	-152.96996	-256.30605	0
702	0	192.83979	187.95777	-96.82673	-82.18067	191.21245	151.34262	577.7057	48.8202	-205.04484	-168.42969	-262.81541	0
703	-3.25468	196.09447	193.65346	-97.6404	-95.19939	195.2808	148.08794	552.48193	18.71441	-231.08228	-183.88942	-269.32477	0
704	-8.95037	199.34915	200.16282	-97.6404	-109.03178	200.16282	144.83326	527.25816	-11.39138	-256.30605	-197.72181	-275.83413	0
705	-16.2734	197.72181	205.04484	-94.38572	-117.98215	200.16282	143.20592	505.28907	-39.86983	-278.27514	-209.92686	-279.90248	0
706	-22.78276	190.39878	207.48585	-87.87636	-122.0505	197.72181	144.83326	487.38833	-63.46626	-295.36221	-218.87723	-283.15716	0
707	-28.47845	183.07575	207.48585	-80.55333	-122.86417	193.65346	147.27427	469.48759	-82.99434	-308.38093	-224.57292	-284.7845	0
708	-33.36047	170.8707	202.60383	-71.60296	-113.10013	186.33043	147.27427	454.02786	-99.26774	-318.95864	-228.64127	-286.41184	0
709	-38.24249	155.41097	193.65346	-59.39791	-94.38572	174.12538	147.27427	440.19547	-113.9138	-329.53635	-232.70962	-286.41184	0
710	-46.37919	142.39225	187.95777	-47.19286	-87.06269	165.98868	146.4606	420.66739	-131.00087	-342.55507	-240.84632	-289.66652	0
711	-52.88855	133.44188	184.70309	-39.05616	-93.57205	160.29299	144.01959	393.81628	-152.15629	-357.20113	-251.42403	-295.36221	0
712	-54.51589	128.55986	181.44841	-35.80148	-101.70875	156.22464	140.76491	366.96517	-171.68437	-371.03352	-260.3744	-301.87157	0
713	-52.88855	128.55986	178.19373	-37.42882	-109.03178	153.78363	138.3239	340.92773	-189.58511	-382.4249	-268.5111	-307.56726	0
714	-51.26121	129.37353	174.93905	-39.86983	-116.35481	152.15629	134.25555	313.26295	-207.48585	-393.00261	-274.20679	-313.26295	0
715	-52.07488	124.49151	170.05703	-38.24249	-118.79582	146.4606	130.1872	288.03918	-223.75925	-400.32564	-278.27514	-315.70396	0
716	-54.51589	113.10013	162.734	-31.73313	-116.35481	136.69656	127.74619	265.25642	-235.15063	-402.76665	-279.08881	-315.70396	0
717	-58.58424	100.08141	156.22464	-22.78276	-113.10013	126.93252	123.67784	243.28733	-244.101	-401.13931	-276.6478	-312.44928	0
718	-64.27993	84.62168	147.27427	-13.01872	-129.37353	114.72747	118.79582	224.57292	-248.16935	-396.25729	-270.95211	-308.38093	0
719	-66.72094	69.16195	132.62821	-4.06835	-164.36134	100.89508	114.72747	212.36787	-249.79669	-390.5616	-264.44275	-303.49891	0
720	-64.27993	60.21158	118.79582	-0.81367	-174.93905	90.31737	110.65912	197.72181	-251.42403	-384.86591	-259.56073	-301.87157	0
721	-56.9569	56.9569	108.21811	-0.81367	-152.15629	83.80801	104.96343	179.0074	-255.49238	-379.17022	-257.93339	-305.12625	0
722	-52.88855	52.88855	100.89508	-0.81367	-121.23683	78.11232	100.08141	159.47932	-258.74706	-374.2882	-257.11972	-311.63561	0
723	-53.70222	49.63387	98.45407	0	-100.08141	74.85764	95.19939	139.95124	-261.18807	-369.40618	-256.30605	-318.95864	0
724	-55.32956	49.63387	96.01306	0	-87.87636	73.2303	89.5037	121.23683	-264.44275	-365.33783	-253.86504	-327.09534	0
725	-54.51589	45.56552	91.13104	0	-77.29865	67.53461	84.62168	105.7771	-266.07009	-358.82847	-248.98302	-333.6047	0
726	-52.88855	37.42882	83.80801	3.25468	-69.16195	59.39791	81.367	95.19939	-262.81541	-348.25076	-240.84632	-335.23204	0
727	-53.70222	27.66478	77.29865	8.95037	-64.27993	51.26121	78.11232	85.43535	-256.30605	-333.6047	-231.08228	-333.6047	0
728	-53.70222	14.64606	66.72094	17.08707	-78.11232	39.86983	74.85764	80.55333	-247.35568	-317.3313	-217.24989	-328.72268	0
729	-52.07488	1.62734	53.70222	23.59643	-112.28646	27.66478	73.2303	81.367	-234.33696	-299.43056	-202.60383	-319.77231	0
730	-49.63387	-4.88202	43.12451	27.66478	-126.93252	19.52808	70.78929	78.11232	-222.94558	-283.15716	-191.21245	-312.44928	0
731	-48.00653	-8.95037	36.61515	29.29212	-109.84545	14.64606	67.53461	70.78929	-214.80888	-269.32477	-183.88942	-307.56726	0
732	-48.8202	-13.83239	32.5468	31.73313	-84.62168	9.76404	65.0936	61.83892	-207.48585	-257.93339	-179.0074	-304.31258	0
733	-48.8202	-17.08707	28.47845	33.36047	-63.46626	6.50936	62.65259	52.07488	-201.79016	-247.35568	-174.12538	-301.0579	0
734	-47.19286	-17.08707	25.22377	31.73313	-50.44754	4.06835	59.39791	42.31084	-199.34915	-238.40531	-169.24336	-297.80322	0
735	-43.93818	-21.15542	19.52808	31.73313	-39.86983	-1.62734	57.77057	34.98781	-196.09447	-228.64127	-161.92033	-292.10753	0
736	-42.31084	-28.47845	11.39138	33.36047	-30.91946	-8.95037	56.14323	32.5468	-189.58511	-214.80888	-152.15629	-283.97083	0
737	-39.86983	-32.5468	5.69569	34.17414	-22.78276	-14.64606	54.51589	30.91946	-180.63474	-197.72181	-140.76491	-275.02046	0
738	-35.80148	-37.42882	-1.62734	34.98781	-34.98781	-20.34175	51.26121	32.5468	-170.8707	-179.82107	-127.74619	-265.25642	0
739	-31.73313	-44.75185	-12.20505	38.24249	-68.34828	-29.29212	47.19286	35.80148	-160.29299	-163.54767	-116.35481	-257.93339	0
740	-30.91946	-50.44754	-20.34175	41.49717	-83.80801	-34.98781	41.49717	32.5468	-153.78363	-152.96996	-110.65912	-255.49238	0
741	-30.91946	-52.07488	-22.78276	43.12451	-69.97562	-35.80148	34.98781	24.4101	-151.34262	-146.4606	-111.47279	-258.74706	0
742	-30.10579	-51.26121	-22.78276	41.49717	-46.37919	-35.80148	28.47845	15.45973	-148.90161	-141.57858	-112.28646	-263.62908	0
743	-27.66478	-46.37919	-20.34175	37.42882	-27.66478	-32.5468	24.4101	7.32303	-145.64693	-136.69656	-110.65912	-266.88376	0
744	-23.59643	-39.05616	-17.08707	31.73313	-17.90074	-27.66478	22.78276	1.62734	-140.76491	-130.1872	-105.7771	-266.07009	0
745	-19.52808	-34.98781	-16.2734	26.85111	-9.76404	-26.03744	22.78276	0.81367	-133.44188	-120.42316	-97.6404	-261.18807	0
746	-17.08707	-34.98781	-17.90074	25.22377	-3.25468	-27.66478	23.59643	1.62734	-124.49151	-107.40444	-87.87636	-252.2377	0
747	-16.2734	-37.42882	-21.15542	25.22377	1.62734	-30.10579	22.78276	2.44101	-115.54114	-93.57205	-77.29865	-243.28733	0
748	-16.2734	-43.93818	-28.47845	28.47845	-12.20505	-36.61515	20.34175	5.69569	-104.96343	-78.92599	-66.72094	-233.52329	0
749	-17.08707	-52.88855	-39.05616	32.5468	-48.00653	-45.56552	17.90074	12.20505	-91.94471	-64.27993	-56.9569	-223.75925	0
750	-15.45973	-56.14323	-46.37919	34.17414	-63.46626	-50.44754	15.45973	16.2734	-82.99434	-52.88855	-50.44754	-216.43622	0
751	-12.20505	-55.32956	-48.8202	33.36047	-48.00653	-51.26121	12.20505	12.20505	-77.29865	-44.75185	-49.63387	-213.18154	0
752	-9.76404	-53.70222	-48.8202	30.91946	-22.78276	-50.44754	8.95037	8.1367	-73.2303	-39.05616	-48.8202	-209.92686	0
753	-6.50936	-48.8202	-45.56552	26.85111	-4.06835	-46.37919	7.32303	4.06835	-69.16195	-33.36047	-45.56552	-205.04484	0
754	-4.88202	-42.31084	-42.31084	21.96909	4.88202	-42.31084	7.32303	0.81367	-65.0936	-28.47845	-39.86983	-197.72181	0
755	-4.06835	-41.49717	-41.49717	21.15542	11.39138	-41.49717	8.95037	0.81367	-60.21158	-21.15542	-34.17414	-190.39878	0
756	-3.25468	-43.93818	-43.93818	21.96909	17.08707	-44.75185	12.20505	3.25468	-52.88855	-12.20505	-26.85111	-184.70309	0
757	-3.25468	-48.00653	-46.37919	23.59643	21.15542	-48.00653	13.01872	5.69569	-44.75185	-1.62734	-20.34175	-179.82107	0
758	-3.25468	-52.88855	-51.26121	26.03744	34.17414	-52.88855	13.01872	10.57771	-35.80148	8.1367	-13.83239	-176.56639	0
759	-2.44101	-59.39791	-59.39791	30.10579	57.77057	-59.39791	13.01872	17.90074	-26.03744	17.90074	-7.32303	-174.12538	0
760	-0.81367	-61.83892	-64.27993	31.73313	69.97562	-61.83892	10.57771	21.96909	-19.52808	24.4101	-4.88202	-173.31171	0
761	0	-59.39791	-63.46626	30.10579	64.27993	-60.21158	7.32303	21.15542	-16.2734	28.47845	-6.50936	-174.12538	0
762	0.81367	-56.14323	-61.02525	27.66478	52.07488	-57.77057	4.88202	18.71441	-13.83239	30.10579	-8.95037	-175.75272	0
763	0	-52.07488	-56.14323	25.22377	36.61515	-52.88855	3.25468	13.83239	-13.01872	28.47845	-12.20505	-179.0074	0
764	-0.81367	-46.37919	-50.44754	22.78276	21.96909	-48.00653	0.81367	8.95037	-14.64606	26.03744	-14.64606	-181.44841	0
765	-2.44101	-44.75185	-46.37919	21.96909	13.83239	-45.56552	0.81367	7.32303	-13.83239	25.22377	-16.2734	-183.07575	0
766	-4.06835	-48.00653	-47.19286	23.59643	13.83239	-48.00653	2.44101	8.1367	-10.57771	27.66478	-15.45973	-182.26208	0
767	-1.62734	-51.26121	-52.07488	24.4101	19.52808	-52.88855	4.06835	8.95037	-7.32303	31.73313	-13.83239	-180.63474	0
768	1.62734	-57.77057	-61.83892	26.03744	37.42882	-60.21158	4.88202	12.20505	-2.44101	36.61515	-8.95037	-177.38006	0
769	1.62734	-65.90727	-72.41663	30.10579	65.90727	-68.34828	5.69569	19.52808	4.06835	42.31084	-3.25468	-174.12538	0
770	-2.44101	-70.78929	-78.11232	34.17414	78.92599	-72.41663	6.50936	22.78276	8.1367	47.19286	0	-171.68437	0
771	-8.1367	-70.78929	-73.2303	36.61515	68.34828	-70.78929	7.32303	21.96909	8.95037	48.8202	0.81367	-170.05703	0
772	-12.20505	-69.97562	-63.46626	40.6835	47.19286	-65.0936	7.32303	20.34175	10.57771	49.63387	0	-170.05703	0
773	-17.90074	-66.72094	-50.44754	42.31084	24.4101	-57.77057	7.32303	17.08707	10.57771	48.00653	-1.62734	-171.68437	0
774	-21.96909	-60.21158	-41.49717	40.6835	6.50936	-50.44754	6.50936	13.01872	6.50936	41.49717	-5.69569	-174.93905	0
775	-21.15542	-57.77057	-39.86983	38.24249	0.81367	-49.63387	6.50936	9.76404	3.25468	35.80148	-11.39138	-179.82107	0
776	-17.08707	-57.77057	-43.12451	35.80148	4.88202	-51.26121	8.1367	9.76404	2.44101	32.5468	-15.45973	-182.26208	0
777	-13.01872	-56.9569	-46.37919	33.36047	10.57771	-52.88855	9.76404	12.20505	4.88202	33.36047	-16.2734	-183.07575	0
778	-9.76404	-59.39791	-51.26121	33.36047	26.85111	-56.14323	11.39138	17.08707	8.95037	37.42882	-13.83239	-182.26208	0
779	-8.1367	-65.90727	-58.58424	37.42882	52.88855	-61.83892	13.83239	25.22377	15.45973	41.49717	-9.76404	-181.44841	0
780	-9.76404	-69.97562	-62.65259	41.49717	65.90727	-65.0936	14.64606	29.29212	17.90074	43.12451	-8.95037	-184.70309	0
781	-11.39138	-69.97562	-60.21158	42.31084	56.9569	-63.46626	13.01872	26.03744	16.2734	40.6835	-14.64606	-192.02612	0
782	-14.64606	-65.90727	-52.88855	41.49717	40.6835	-57.77057	13.01872	21.96909	13.83239	37.42882	-21.15542	-200.97649	0
783	-18.71441	-57.77057	-41.49717	38.24249	20.34175	-48.00653	14.64606	17.90074	10.57771	30.91946	-26.03744	-208.29952	0
784	-20.34175	-48.00653	-30.91946	33.36047	2.44101	-39.05616	16.2734	12.20505	4.06835	22.78276	-31.73313	-214.80888	0
785	-20.34175	-44.75185	-27.66478	30.91946	-4.06835	-36.61515	17.90074	8.1367	-1.62734	13.83239	-36.61515	-218.87723	0
786	-18.71441	-46.37919	-30.10579	30.91946	-2.44101	-39.05616	17.90074	6.50936	-6.50936	7.32303	-41.49717	-222.13191	0
787	-17.90074	-49.63387	-32.5468	32.5468	0.81367	-42.31084	17.90074	4.06835	-10.57771	3.25468	-43.12451	-222.94558	0
788	-18.71441	-55.32956	-37.42882	35.80148	15.45973	-46.37919	17.90074	4.88202	-10.57771	3.25468	-40.6835	-222.13191	0
789	-20.34175	-63.46626	-43.12451	43.12451	39.86983	-52.07488	19.52808	8.95037	-5.69569	5.69569	-35.80148	-221.31824	0
790	-25.22377	-68.34828	-43.12451	48.8202	48.8202	-53.70222	20.34175	11.39138	-2.44101	8.1367	-34.17414	-223.75925	0
791	-30.91946	-68.34828	-37.42882	52.07488	37.42882	-51.26121	20.34175	8.1367	-1.62734	9.76404	-37.42882	-229.45494	0
792	-34.98781	-65.0936	-30.91946	51.26121	19.52808	-46.37919	21.15542	5.69569	-0.81367	9.76404	-40.6835	-235.9643	0
793	-35.80148	-56.9569	-22.78276	46.37919	2.44101	-38.24249	21.15542	2.44101	-1.62734	7.32303	-44.75185	-242.47366	0
794	-33.36047	-45.56552	-13.83239	39.86983	-12.20505	-29.29212	21.96909	0	-5.69569	3.25468	-48.00653	-247.35568	0
795	-30.91946	-38.24249	-8.95037	34.98781	-19.52808	-23.59643	23.59643	0	-7.32303	1.62734	-50.44754	-248.16935	0
796	-27.66478	-34.98781	-5.69569	31.73313	-19.52808	-21.15542	27.66478	3.25468	-6.50936	2.44101	-52.07488	-246.54201	0
797	-24.4101	-32.5468	-3.25468	29.29212	-18.71441	-18.71441	30.10579	5.69569	-5.69569	4.06835	-52.07488	-243.28733	0
798	-21.15542	-30.91946	-2.44101	29.29212	-6.50936	-17.08707	32.5468	10.57771	-3.25468	8.95037	-48.00653	-238.40531	0
799	-15.45973	-28.47845	-5.69569	26.03744	21.15542	-16.2734	36.61515	19.52808	4.06835	17.08707	-39.05616	-232.70962	0
800	-7.32303	-18.71441	-5.69569	17.90074	37.42882	-11.39138	41.49717	26.85111	12.20505	26.85111	-31.73313	-227.01393	0
801	-2.44101	-5.69569	0.81367	8.95037	29.29212	-0.81367	43.93818	30.10579	19.52808	37.42882	-26.03744	-221.31824	0
802	-0.81367	3.25468	13.83239	4.88202	9.76404	9.76404	48.00653	31.73313	26.03744	45.56552	-21.15542	-214.80888	0
803	-3.25468	12.20505	27.66478	1.62734	-12.20505	21.15542	53.70222	31.73313	29.29212	49.63387	-17.90074	-209.11319	0
804	-7.32303	21.15542	39.86983	0	-32.5468	30.91946	60.21158	26.85111	27.66478	48.00653	-17.90074	-203.4175	0
805	-11.39138	26.85111	48.00653	-2.44101	-43.93818	37.42882	67.53461	22.78276	22.78276	42.31084	-19.52808	-200.16282	0
806	-14.64606	28.47845	52.07488	-2.44101	-46.37919	39.86983	74.04397	19.52808	18.71441	35.80148	-23.59643	-197.72181	0
807	-14.64606	28.47845	54.51589	-1.62734	-46.37919	40.6835	76.48498	16.2734	14.64606	30.91946	-26.03744	-194.46713	0
808	-13.01872	28.47845	53.70222	-1.62734	-60.21158	40.6835	76.48498	17.90074	16.2734	32.5468	-21.96909	-187.95777	0
809	-8.95037	31.73313	48.8202	-5.69569	-89.5037	41.49717	77.29865	27.66478	26.03744	41.49717	-9.76404	-175.75272	0
810	-0.81367	42.31084	48.00653	-15.45973	-100.08141	47.19286	78.11232	39.86983	38.24249	53.70222	2.44101	-164.36134	0
811	8.1367	59.39791	52.07488	-30.10579	-82.99434	57.77057	78.11232	49.63387	51.26121	65.90727	12.20505	-152.96996	0
812	17.08707	77.29865	58.58424	-45.56552	-59.39791	69.16195	76.48498	56.14323	62.65259	75.67131	21.15542	-142.39225	0
813	22.78276	94.38572	69.16195	-58.58424	-43.93818	82.99434	69.97562	53.70222	68.34828	80.55333	27.66478	-132.62821	0
814	26.85111	109.84545	80.55333	-68.34828	-39.05616	96.01306	58.58424	39.86983	63.46626	76.48498	30.10579	-124.49151	0
815	27.66478	120.42316	90.31737	-74.85764	-37.42882	104.96343	43.93818	21.15542	53.70222	69.16195	30.91946	-117.16848	0
816	27.66478	125.30518	96.01306	-77.29865	-36.61515	109.84545	30.10579	3.25468	43.93818	61.83892	30.10579	-109.84545	0
817	26.85111	127.74619	100.08141	-78.92599	-35.80148	113.10013	15.45973	-13.83239	34.17414	55.32956	29.29212	-104.14976	0
818	26.03744	128.55986	100.08141	-78.11232	-52.88855	113.9138	1.62734	-26.85111	27.66478	52.88855	33.36047	-98.45407	0
819	27.66478	128.55986	95.19939	-78.92599	-86.24902	113.10013	-12.20505	-34.17414	26.85111	54.51589	41.49717	-91.94471	0
820	34.17414	134.25555	92.75838	-84.62168	-100.89508	115.54114	-29.29212	-43.12451	23.59643	56.14323	46.37919	-87.06269	0
821	42.31084	144.83326	95.19939	-93.57205	-85.43535	122.0505	-48.00653	-55.32956	18.71441	56.14323	44.75185	-85.43535	0
822	51.26121	154.5973	98.45407	-103.33609	-61.83892	127.74619	-64.27993	-65.90727	14.64606	55.32956	41.49717	-85.43535	0
823	59.39791	163.54767	100.08141	-112.28646	-41.49717	132.62821	-76.48498	-75.67131	10.57771	52.07488	39.05616	-84.62168	0
824	65.90727	170.05703	100.89508	-118.79582	-29.29212	135.88289	-85.43535	-86.24902	4.06835	44.75185	35.80148	-83.80801	0
825	70.78929	170.05703	96.82673	-121.23683	-19.52808	133.44188	-92.75838	-95.19939	-2.44101	35.80148	31.73313	-82.99434	0
826	75.67131	165.17501	87.87636	-121.23683	-8.1367	126.11885	-99.26774	-103.33609	-10.57771	26.03744	27.66478	-82.18067	0
827	79.73966	157.85198	76.48498	-120.42316	0.81367	117.16848	-104.96343	-113.10013	-19.52808	17.08707	24.4101	-81.367	0
828	82.99434	147.27427	64.27993	-114.72747	20.34175	105.7771	-107.40444	-118.79582	-25.22377	12.20505	26.85111	-81.367	0
829	82.18067	132.62821	52.88855	-104.14976	47.19286	93.57205	-101.70875	-114.72747	-23.59643	13.83239	33.36047	-82.18067	0
830	74.85764	120.42316	49.63387	-92.75838	55.32956	87.06269	-90.31737	-104.14976	-15.45973	21.15542	40.6835	-85.43535	0
831	61.83892	111.47279	52.07488	-82.18067	40.6835	83.80801	-75.67131	-91.94471	-4.06835	31.73313	44.75185	-89.5037	0
832	51.26121	101.70875	51.26121	-74.04397	21.96909	78.11232	-60.21158	-78.11232	8.1367	42.31084	47.19286	-96.01306	0
833	42.31084	89.5037	46.37919	-65.90727	7.32303	69.16195	-48.00653	-69.16195	16.2734	46.37919	45.56552	-104.96343	0
834	34.17414	74.85764	38.24249	-54.51589	-4.06835	56.9569	-41.49717	-66.72094	16.2734	43.12451	39.86983	-117.16848	0
835	25.22377	52.07488	24.4101	-39.05616	-8.1367	38.24249	-38.24249	-65.90727	12.20505	34.17414	30.91946	-128.55986	0
836	15.45973	26.85111	8.1367	-21.96909	-4.06835	17.08707	-35.80148	-66.72094	7.32303	24.4101	21.15542	-139.95124	0
837	9.76404	4.88202	-6.50936	-8.1367	2.44101	-0.81367	-34.98781	-71.60296	-1.62734	13.01872	10.57771	-150.52895	0
838	8.1367	-13.01872	-23.59643	1.62734	-3.25468	-18.71441	-35.80148	-78.92599	-12.20505	1.62734	3.25468	-159.47932	0
839	7.32303	-31.73313	-41.49717	13.01872	-27.66478	-35.80148	-35.80148	-83.80801	-20.34175	-4.88202	0	-167.61602	0
840	4.06835	-47.19286	-54.51589	23.59643	-38.24249	-49.63387	-35.80148	-90.31737	-27.66478	-9.76404	-3.25468	-175.75272	0
841	0	-56.9569	-60.21158	30.10579	-26.03744	-56.9569	-36.61515	-96.01306	-32.5468	-12.20505	-8.95037	-183.07575	0
842	-1.62734	-61.83892	-61.83892	32.5468	-5.69569	-61.02525	-36.61515	-100.08141	-32.5468	-11.39138	-13.01872	-188.77144	0
843	-2.44101	-61.83892	-61.83892	31.73313	8.95037	-61.02525	-37.42882	-104.14976	-34.17414	-13.01872	-17.08707	-192.83979	0
844	-2.44101	-60.21158	-60.21158	30.10579	16.2734	-59.39791	-39.05616	-109.84545	-39.05616	-17.90074	-21.96909	-196.90814	0
845	-0.81367	-60.21158	-62.65259	29.29212	23.59643	-61.83892	-39.05616	-112.28646	-41.49717	-23.59643	-26.85111	-197.72181	0
846	0	-64.27993	-67.53461	30.10579	30.91946	-66.72094	-37.42882	-109.84545	-41.49717	-26.85111	-30.10579	-196.90814	0
847	0.81367	-69.16195	-71.60296	32.5468	35.80148	-70.78929	-36.61515	-108.21811	-41.49717	-28.47845	-31.73313	-193.65346	0
848	-0.81367	-76.48498	-78.92599	37.42882	22.78276	-77.29865	-35.80148	-105.7771	-40.6835	-28.47845	-28.47845	-187.95777	0
849	-3.25468	-87.87636	-89.5037	44.75185	-7.32303	-87.87636	-34.98781	-100.89508	-39.05616	-25.22377	-21.96909	-180.63474	0
850	-5.69569	-96.82673	-98.45407	52.07488	-21.15542	-96.01306	-34.17414	-100.08141	-38.24249	-21.15542	-18.71441	-173.31171	0
851	-6.50936	-102.52242	-102.52242	54.51589	-8.95037	-100.89508	-34.98781	-101.70875	-38.24249	-17.90074	-18.71441	-168.42969	0
852	-4.88202	-104.14976	-103.33609	54.51589	11.39138	-101.70875	-33.36047	-103.33609	-35.80148	-14.64606	-18.71441	-162.734	0
853	-2.44101	-101.70875	-101.70875	51.26121	27.66478	-100.89508	-31.73313	-105.7771	-35.80148	-13.83239	-19.52808	-157.85198	0
854	0	-98.45407	-98.45407	49.63387	34.98781	-98.45407	-30.91946	-110.65912	-38.24249	-17.08707	-21.15542	-152.96996	0
855	0	-99.26774	-99.26774	48.8202	40.6835	-99.26774	-29.29212	-112.28646	-42.31084	-22.78276	-24.4101	-148.08794	0
856	4.06835	-102.52242	-105.7771	48.8202	50.44754	-104.96343	-27.66478	-113.10013	-43.93818	-27.66478	-27.66478	-144.83326	0
857	11.39138	-104.96343	-116.35481	45.56552	62.65259	-111.47279	-27.66478	-116.35481	-47.19286	-31.73313	-30.10579	-140.76491	0
858	20.34175	-109.03178	-129.37353	43.93818	87.06269	-119.60949	-28.47845	-118.79582	-48.8202	-33.36047	-27.66478	-136.69656	0
859	25.22377	-117.16848	-139.13757	49.63387	117.98215	-126.93252	-28.47845	-116.35481	-46.37919	-29.29212	-17.90074	-131.81454	0
860	18.71441	-125.30518	-139.95124	59.39791	125.30518	-130.1872	-28.47845	-113.9138	-43.12451	-23.59643	-10.57771	-127.74619	0
861	5.69569	-131.81454	-131.81454	68.34828	106.59077	-130.1872	-29.29212	-112.28646	-39.05616	-18.71441	-8.1367	-126.11885	0
862	-5.69569	-133.44188	-123.67784	73.2303	82.99434	-126.93252	-29.29212	-108.21811	-34.17414	-14.64606	-8.1367	-125.30518	0
863	-9.76404	-130.1872	-115.54114	72.41663	61.02525	-122.0505	-26.03744	-104.96343	-29.29212	-12.20505	-8.1367	-123.67784	0
864	-8.1367	-125.30518	-109.03178	70.78929	43.12451	-116.35481	-23.59643	-104.14976	-29.29212	-14.64606	-10.57771	-122.86417	0
865	-7.32303	-124.49151	-106.59077	70.78929	34.98781	-115.54114	-22.78276	-103.33609	-31.73313	-21.15542	-16.2734	-122.86417	0
866	-8.95037	-125.30518	-108.21811	70.78929	35.80148	-116.35481	-21.96909	-102.52242	-35.80148	-30.10579	-24.4101	-122.86417	0
867	-7.32303	-120.42316	-109.03178	65.90727	41.49717	-114.72747	-21.15542	-104.14976	-41.49717	-37.42882	-30.10579	-121.23683	0
868	0	-112.28646	-111.47279	57.77057	34.98781	-111.47279	-20.34175	-106.59077	-46.37919	-41.49717	-28.47845	-113.9138	0
869	10.57771	-104.14976	-116.35481	49.63387	13.01872	-108.21811	-20.34175	-112.28646	-52.07488	-42.31084	-20.34175	-103.33609	0
870	16.2734	-92.75838	-115.54114	40.6835	3.25468	-101.70875	-25.22377	-127.74619	-67.53461	-48.8202	-13.83239	-92.75838	0
871	13.83239	-78.92599	-105.7771	30.10579	12.20505	-89.5037	-31.73313	-156.22464	-97.6404	-67.53461	-16.2734	-84.62168	0
872	6.50936	-62.65259	-85.43535	21.96909	18.71441	-72.41663	-35.80148	-192.02612	-144.83326	-96.01306	-26.85111	-78.92599	0
873	-0.81367	-45.56552	-57.77057	17.08707	15.45973	-50.44754	-36.61515	-236.77797	-173.31171	-115.54114	-46.37919	-75.67131	0
874	-4.88202	-27.66478	-34.98781	10.57771	8.1367	-30.91946	-32.5468	-288.03918	-177.38006	-135.06922	-73.2303	-72.41663	0
875	-0.81367	-14.64606	-23.59643	2.44101	8.1367	-18.71441	-24.4101	-339.30039	-240.84632	-205.04484	-101.70875	-63.46626	0
876	11.39138	0	-18.71441	-8.95037	14.64606	-8.95037	-17.08707	-391.37527	-379.17022	-319.77231	-118.79582	-39.05616	0
877	31.73313	22.78276	-12.20505	-29.29212	22.78276	4.88202	-15.45973	-458.09621	-534.58119	-430.43143	-112.28646	8.1367	0
878	61.02525	57.77057	-7.32303	-84.62168	20.34175	25.22377	-26.03744	-554.10927	-670.46408	-520.7488	-101.70875	83.80801	0
879	100.89508	104.96343	-6.50936	-177.38006	7.32303	51.26121	-58.58424	-685.92381	-767.29081	-575.26469	-90.31737	187.1441	0
880	153.78363	164.36134	-2.44101	-257.11972	15.45973	83.80801	-120.42316	-859.23552	-816.92468	-554.10927	17.90074	340.11406	0
881	216.43622	235.15063	8.1367	-307.56726	51.26121	123.67784	-205.85851	-1078.11275	-825.06138	-451.58685	245.72834	546.78624	0
882	280.71615	322.21332	26.03744	-351.50544	92.75838	172.49804	-299.43056	-1333.60513	-805.5333	-297.80322	490.64301	746.13539	0
883	335.23204	378.35655	13.01872	-388.12059	142.39225	184.70309	-385.67958	-1544.34566	-767.29081	-114.72747	706.26556	912.12407	0
884	356.38746	380.79756	-15.45973	-412.53069	176.56639	166.80235	-449.14584	-1672.09185	-715.21593	91.13104	911.3104	1062.65302	0
885	320.58598	423.1084	65.0936	-424.73574	123.67784	231.08228	-469.48759	-1813.67043	-654.19068	304.31258	1103.33652	1190.39921	0
886	228.64127	503.66173	249.79669	-409.27601	-10.57771	368.59251	-435.31345	-1973.14975	-580.96038	493.89769	1240.03308	1262.00217	0
887	106.59077	541.90422	421.48106	-351.50544	-155.41097	476.81062	-362.08315	-2074.8585	-497.96604	615.94819	1269.3252	1241.66042	0
888	-17.90074	570.38267	582.58772	-288.03918	-257.93339	576.07836	-291.29386	-2120.42402	-439.3818	620.01654	1159.47975	1121.23726	0
889	-131.81454	611.87984	743.69438	-240.03265	-309.1946	681.04179	-254.67871	-2149.71614	-467.04658	457.28254	907.24205	912.12407	0
890	-231.89595	567.94166	803.09229	-161.10666	-346.62342	689.99216	-254.67871	-2180.6356	-628.96691	101.70875	524.81715	630.59425	0
891	-310.82194	415.78537	734.74401	-41.49717	-384.05224	578.51937	-274.20679	-2201.79102	-909.68306	-389.74793	74.04397	312.44928	0
892	-358.82847	225.38659	602.92947	79.73966	-397.07096	416.59904	-303.49891	-2187.14496	-1221.31867	-878.7636	-341.7414	28.47845	0
893	-379.98389	50.44754	452.40052	177.38006	-382.4249	253.05137	-327.90901	-2119.61035	-1460.53765	-1235.96473	-648.49499	-177.38006	0
894	-379.17022	-83.80801	311.63561	240.84632	-355.57379	113.9138	-343.36874	-1998.37352	-1567.94209	-1407.6491	-821.8067	-327.90901	0
895	-358.0148	-182.26208	183.88942	275.83413	-318.95864	0.81367	-389.74793	-1834.82585	-1539.46364	-1410.90378	-874.69525	-431.2451	0
896	-319.77231	-248.98302	73.2303	286.41184	-257.11972	-87.06269	-473.55594	-1646.86808	-1408.46277	-1296.17631	-838.89377	-476.81062	0
897	-268.5111	-286.41184	-17.90074	277.46147	-171.68437	-152.15629	-554.92294	-1446.70526	-1221.31867	-1119.60992	-761.59512	-481.69264	0
898	-212.36787	-298.61689	-89.5037	254.67871	-98.45407	-193.65346	-622.45755	-1289.66695	-1055.32999	-947.11188	-710.33391	-463.7919	0
899	-158.66565	-290.48019	-138.3239	225.38659	-58.58424	-211.5542	-665.58206	-1192.02655	-941.41619	-809.60165	-683.4828	-413.34436	0
900	-111.47279	-266.88376	-161.92033	191.21245	-29.29212	-210.74053	-632.22159	-1052.88898	-799.02394	-648.49499	-603.74314	-339.30039	0
901	-71.60296	-232.70962	-165.98868	153.78363	4.06835	-196.09447	-522.37614	-845.40313	-603.74314	-445.89116	-468.67392	-262.81541	0
902	-42.31084	-196.90814	-159.47932	118.79582	33.36047	-175.75272	-403.58032	-628.15324	-406.835	-273.39312	-328.72268	-196.09447	0
903	-25.22377	-164.36134	-147.27427	90.31737	49.63387	-154.5973	-311.63561	-439.3818	-240.84632	-160.29299	-212.36787	-144.01959	0
904	-13.01872	-137.51023	-133.44188	69.97562	54.51589	-135.06922	-240.03265	-294.54854	-117.98215	-90.31737	-129.37353	-107.40444	0
905	-1.62734	-117.98215	-123.67784	55.32956	56.9569	-121.23683	-185.51676	-190.39878	-31.73313	-47.19286	-78.92599	-85.43535	0
906	8.95037	-106.59077	-121.23683	45.56552	63.46626	-113.9138	-143.20592	-114.72747	28.47845	-17.08707	-49.63387	-72.41663	0
907	17.08707	-101.70875	-122.0505	40.6835	69.16195	-112.28646	-107.40444	-59.39791	72.41663	7.32303	-30.91946	-63.46626	0
908	19.52808	-104.96343	-129.37353	41.49717	60.21158	-116.35481	-74.85764	-14.64606	108.21811	34.17414	-13.01872	-56.14323	0
909	22.78276	-113.10013	-144.83326	45.56552	37.42882	-126.11885	-43.93818	26.85111	142.39225	64.27993	5.69569	-50.44754	0
910	28.47845	-120.42316	-159.47932	47.19286	31.73313	-135.88289	-17.08707	64.27993	174.12538	94.38572	22.78276	-47.19286	0
911	34.98781	-124.49151	-168.42969	45.56552	49.63387	-143.20592	3.25468	96.01306	201.79016	121.23683	34.17414	-47.19286	0
912	39.86983	-127.74619	-173.31171	43.93818	72.41663	-148.08794	19.52808	122.86417	226.20026	144.01959	43.93818	-47.19286	0
913	43.12451	-127.74619	-173.31171	42.31084	87.87636	-148.90161	30.91946	144.83326	244.101	160.29299	51.26121	-47.19286	0
914	46.37919	-125.30518	-170.05703	40.6835	93.57205	-147.27427	39.05616	158.66565	254.67871	168.42969	54.51589	-46.37919	0
915	49.63387	-124.49151	-169.24336	39.05616	98.45407	-147.27427	43.12451	170.05703	262.00174	170.8707	53.70222	-45.56552	0
916	52.88855	-124.49151	-174.12538	37.42882	107.40444	-149.71528	45.56552	179.82107	267.69743	170.05703	52.07488	-43.93818	0
917	56.9569	-124.49151	-179.82107	34.17414	115.54114	-152.15629	46.37919	187.95777	270.95211	168.42969	51.26121	-41.49717	0
918	61.02525	-126.11885	-188.77144	32.5468	137.51023	-157.03831	48.00653	196.90814	274.20679	170.8707	55.32956	-37.42882	0
919	63.46626	-128.55986	-199.34915	33.36047	173.31171	-161.10666	52.88855	209.11319	282.34349	179.82107	66.72094	-31.73313	0
920	65.0936	-127.74619	-201.79016	33.36047	189.58511	-161.10666	56.9569	220.50457	292.10753	192.83979	77.29865	-27.66478	0
921	64.27993	-124.49151	-196.90814	31.73313	177.38006	-157.03831	58.58424	230.26861	302.68524	205.85851	82.99434	-25.22377	0
922	61.02525	-123.67784	-191.21245	30.91946	157.03831	-155.41097	61.02525	240.03265	313.26295	218.06356	85.43535	-23.59643	0
923	59.39791	-122.0505	-184.70309	30.91946	135.06922	-152.15629	63.46626	246.54201	321.39965	225.38659	85.43535	-23.59643	0
924	61.83892	-117.16848	-178.19373	28.47845	117.16848	-148.08794	66.72094	250.61036	325.468	227.01393	83.80801	-23.59643	0
925	69.16195	-111.47279	-178.19373	21.96909	112.28646	-145.64693	70.78929	257.93339	329.53635	227.01393	79.73966	-23.59643	0
926	77.29865	-107.40444	-182.26208	16.2734	117.98215	-145.64693	75.67131	266.07009	332.79103	224.57292	74.85764	-23.59643	0
927	80.55333	-105.7771	-185.51676	12.20505	124.49151	-146.4606	77.29865	271.76578	333.6047	222.13191	71.60296	-21.96909	0
928	79.73966	-107.40444	-190.39878	13.01872	113.9138	-148.08794	78.11232	279.90248	336.85938	223.75925	75.67131	-18.71441	0
929	78.11232	-108.21811	-199.34915	13.83239	87.06269	-150.52895	81.367	292.9212	345.80975	233.52329	87.87636	-11.39138	0
930	81.367	-104.96343	-203.4175	10.57771	76.48498	-148.90161	84.62168	306.75359	356.38746	245.72834	100.08141	-4.06835	0
931	87.87636	-97.6404	-199.34915	4.06835	88.69003	-144.01959	86.24902	317.3313	366.1515	257.11972	106.59077	0	0
932	90.31737	-91.13104	-189.58511	0	104.14976	-137.51023	87.87636	327.90901	375.91554	266.88376	111.47279	4.88202	0
933	88.69003	-84.62168	-174.93905	-0.81367	110.65912	-128.55986	90.31737	334.41837	382.4249	270.95211	113.9138	7.32303	0
934	84.62168	-78.11232	-161.10666	-1.62734	108.21811	-119.60949	90.31737	336.85938	384.05224	267.69743	111.47279	6.50936	0
935	82.99434	-75.67131	-155.41097	-1.62734	109.03178	-115.54114	88.69003	339.30039	382.4249	258.74706	104.14976	2.44101	0
936	83.80801	-76.48498	-157.85198	-1.62734	114.72747	-117.98215	87.87636	344.18241	381.61123	248.98302	95.19939	-0.81367	0
937	83.80801	-78.11232	-161.92033	-2.44101	120.42316	-120.42316	87.87636	349.8781	381.61123	241.65999	90.31737	-2.44101	0
938	83.80801	-81.367	-167.61602	-0.81367	139.13757	-123.67784	90.31737	358.82847	384.86591	240.03265	93.57205	-1.62734	0
939	81.367	-83.80801	-177.38006	1.62734	173.31171	-127.74619	96.01306	373.47453	393.00261	244.91467	102.52242	-0.81367	0
940	74.04397	-83.80801	-179.82107	2.44101	187.95777	-126.93252	100.89508	387.30692	402.76665	253.86504	110.65912	-0.81367	0
941	69.97562	-81.367	-171.68437	2.44101	172.49804	-122.0505	104.14976	399.51197	413.34436	262.81541	115.54114	-0.81367	0
942	67.53461	-80.55333	-158.66565	5.69569	144.83326	-116.35481	107.40444	410.90335	423.1084	270.13844	117.98215	-0.81367	0
943	61.83892	-78.11232	-142.39225	8.1367	113.9138	-109.03178	110.65912	420.66739	429.61776	271.76578	118.79582	-2.44101	0
944	56.14323	-69.97562	-128.55986	6.50936	89.5037	-99.26774	113.9138	427.99042	432.05877	266.88376	116.35481	-4.88202	0
945	58.58424	-61.02525	-122.0505	0	81.367	-91.94471	117.16848	437.75446	434.49978	258.74706	109.84545	-8.1367	0
946	68.34828	-52.07488	-123.67784	-8.95037	87.06269	-88.69003	120.42316	449.95951	436.12712	249.79669	101.70875	-13.83239	0
947	79.73966	-43.93818	-126.93252	-18.71441	96.01306	-86.24902	122.0505	460.53722	436.12712	239.21898	95.19939	-19.52808	0
948	87.87636	-39.86983	-133.44188	-23.59643	119.60949	-86.24902	123.67784	471.9286	436.12712	231.89595	94.38572	-24.4101	0
949	91.13104	-40.6835	-143.20592	-23.59643	157.85198	-88.69003	126.93252	485.76099	437.75446	230.26861	99.26774	-28.47845	0
950	91.13104	-41.49717	-146.4606	-21.15542	174.12538	-89.5037	129.37353	499.59338	441.82281	231.89595	102.52242	-34.17414	0
951	88.69003	-39.86983	-139.13757	-21.96909	161.10666	-85.43535	131.00087	513.42577	448.33217	235.9643	100.89508	-39.05616	0
952	85.43535	-36.61515	-128.55986	-22.78276	137.51023	-79.73966	133.44188	529.69917	458.90988	240.84632	98.45407	-43.12451	0
953	79.73966	-29.29212	-113.10013	-25.22377	136.69656	-69.97562	137.51023	545.97257	467.86025	242.47366	96.01306	-46.37919	0
954	74.85764	-17.90074	-96.01306	-28.47845	167.61602	-56.9569	139.95124	559.80496	471.9286	239.21898	92.75838	-48.8202	0
955	74.85764	-7.32303	-85.43535	-34.17414	182.26208	-47.19286	143.20592	575.26469	474.36961	231.89595	87.06269	-50.44754	0
956	78.92599	0	-79.73966	-40.6835	162.734	-40.6835	146.4606	591.53809	475.99695	222.94558	80.55333	-52.88855	0
957	82.99434	8.95037	-74.85764	-47.19286	131.81454	-33.36047	148.90161	606.18415	475.18328	212.36787	76.48498	-53.70222	0
958	85.43535	14.64606	-74.85764	-50.44754	119.60949	-29.29212	151.34262	621.64388	475.18328	205.04484	77.29865	-53.70222	0
959	87.06269	17.90074	-80.55333	-51.26121	134.25555	-27.66478	154.5973	639.54462	476.81062	202.60383	82.99434	-52.07488	0
960	88.69003	22.78276	-79.73966	-53.70222	139.13757	-22.78276	157.03831	657.44536	479.25163	203.4175	87.06269	-50.44754	0
961	89.5037	31.73313	-69.16195	-58.58424	121.23683	-13.83239	157.85198	672.90509	482.50631	205.85851	85.43535	-50.44754	0
962	87.87636	41.49717	-53.70222	-63.46626	96.01306	-2.44101	159.47932	688.36482	485.76099	205.85851	81.367	-51.26121	0
963	82.18067	52.07488	-33.36047	-66.72094	94.38572	10.57771	161.92033	699.7562	483.31998	200.16282	74.85764	-53.70222	0
964	74.04397	61.83892	-8.95037	-65.90727	122.86417	26.03744	164.36134	707.8929	475.18328	186.33043	64.27993	-56.14323	0
965	61.83892	66.72094	8.95037	-61.83892	129.37353	37.42882	167.61602	716.0296	463.7919	167.61602	51.26121	-59.39791	0
966	52.88855	69.97562	21.15542	-59.39791	100.08141	43.93818	170.05703	724.97997	453.21419	147.27427	35.80148	-62.65259	0
967	49.63387	76.48498	29.29212	-61.83892	63.46626	52.07488	170.8707	730.67566	439.3818	126.11885	22.78276	-65.0936	0
968	51.26121	83.80801	30.91946	-66.72094	21.15542	57.77057	171.68437	736.37135	425.54941	106.59077	16.2734	-64.27993	0
969	57.77057	89.5037	23.59643	-70.78929	-21.15542	60.21158	173.31171	743.69438	414.15803	92.75838	16.2734	-63.46626	0
970	65.90727	97.6404	19.52808	-77.29865	-39.86983	63.46626	174.93905	748.5764	401.95298	81.367	14.64606	-62.65259	0
971	71.60296	107.40444	27.66478	-85.43535	-34.98781	71.60296	175.75272	750.20374	390.5616	71.60296	8.95037	-62.65259	0
972	73.2303	118.79582	43.93818	-91.94471	-26.03744	83.80801	177.38006	751.01741	379.17022	60.21158	1.62734	-61.83892	0
973	71.60296	131.81454	65.0936	-96.82673	-24.4101	99.26774	179.82107	747.76273	362.08315	42.31084	-6.50936	-63.46626	0
974	67.53461	144.83326	87.06269	-100.08141	-32.5468	115.54114	180.63474	737.99869	337.67305	17.08707	-20.34175	-66.72094	0
975	61.83892	154.5973	102.52242	-101.70875	-38.24249	126.93252	181.44841	728.23465	310.82194	-13.01872	-38.24249	-70.78929	0
976	56.14323	159.47932	111.47279	-103.33609	-38.24249	133.44188	179.82107	718.47061	283.97083	-44.75185	-56.14323	-75.67131	0
977	50.44754	162.734	118.79582	-104.14976	-39.86983	139.95124	178.19373	707.07923	256.30605	-74.85764	-72.41663	-79.73966	0
978	46.37919	164.36134	122.0505	-101.70875	-29.29212	143.20592	178.19373	695.68785	229.45494	-100.89508	-81.367	-82.18067	0
979	38.24249	162.734	119.60949	-95.19939	-1.62734	144.83326	179.82107	686.73748	206.67218	-119.60949	-82.18067	-82.99434	0
980	24.4101	161.92033	123.67784	-89.5037	5.69569	148.08794	180.63474	676.97344	186.33043	-134.25555	-83.80801	-82.99434	0
981	10.57771	164.36134	138.3239	-86.24902	-15.45973	156.22464	180.63474	665.58206	167.61602	-147.27427	-88.69003	-82.99434	0
