samplenr	I	II	III	aVR	aVL	aVF	V1	V2	V3	V4	V5	V6	measurement
0	-0.81367	0	0	0	0	0	3.25468	12.20505	56.9569	0.81367	1.62734	-5.69569	0
1	-4.88202	-7.32303	-5.69569	4.06835	1.62734	-6.50936	13.83239	50.44754	248.98302	6.50936	10.57771	-17.08707	0
2	-9.76404	-23.59643	-17.08707	13.83239	4.88202	-20.34175	29.29212	91.13104	507.73008	15.45973	22.78276	-21.15542	0
3	-13.83239	-39.05616	-27.66478	24.4101	8.1367	-33.36047	45.56552	109.84545	702.19721	19.52808	30.91946	-19.52808	0
4	-14.64606	-48.8202	-35.80148	30.10579	10.57771	-42.31084	57.77057	107.40444	806.34697	17.90074	35.80148	-18.71441	0
5	-10.57771	-52.07488	-42.31084	30.10579	14.64606	-47.19286	64.27993	103.33609	845.40313	13.01872	36.61515	-9.76404	0
6	-3.25468	-46.37919	-42.31084	25.22377	17.08707	-43.93818	69.16195	104.96343	828.31606	8.1367	30.91946	8.1367	0
7	2.44101	-37.42882	-37.42882	17.90074	17.90074	-37.42882	74.04397	100.08141	772.17283	4.06835	23.59643	13.83239	0
8	4.06835	-34.98781	-37.42882	15.45973	18.71441	-35.80148	73.2303	89.5037	712.77492	5.69569	22.78276	7.32303	0
9	3.25468	-37.42882	-39.86983	17.08707	20.34175	-39.05616	66.72094	79.73966	659.0727	12.20505	29.29212	0	0
10	0	-38.24249	-39.05616	17.90074	19.52808	-39.05616	59.39791	78.11232	604.55681	17.08707	34.98781	-10.57771	0
11	-3.25468	-39.05616	-38.24249	19.52808	17.90074	-38.24249	49.63387	90.31737	568.75533	21.96909	40.6835	-21.15542	0
12	-8.1367	-42.31084	-38.24249	21.96909	16.2734	-40.6835	43.93818	103.33609	556.55028	28.47845	46.37919	-18.71441	0
13	-10.57771	-43.93818	-36.61515	24.4101	13.83239	-39.86983	44.75185	100.89508	544.34523	30.91946	49.63387	-10.57771	0
14	-11.39138	-43.12451	-34.17414	25.22377	12.20505	-39.05616	48.00653	86.24902	528.8855	27.66478	50.44754	-5.69569	0
15	-9.76404	-44.75185	-35.80148	26.03744	12.20505	-40.6835	48.8202	75.67131	522.37614	21.15542	48.8202	5.69569	0
16	-5.69569	-43.93818	-35.80148	25.22377	13.01872	-39.86983	50.44754	74.04397	510.17109	14.64606	43.12451	24.4101	0
17	-2.44101	-36.61515	-30.10579	21.15542	11.39138	-33.36047	54.51589	69.16195	484.13365	8.95037	35.80148	30.91946	0
18	-0.81367	-30.91946	-26.85111	17.08707	10.57771	-28.47845	52.88855	58.58424	466.23291	8.95037	33.36047	25.22377	0
19	0	-30.91946	-28.47845	15.45973	12.20505	-30.10579	46.37919	49.63387	455.6552	14.64606	38.24249	17.90074	0
20	0	-29.29212	-29.29212	13.83239	13.83239	-30.10579	39.05616	48.8202	440.19547	18.71441	44.75185	8.95037	0
21	-1.62734	-27.66478	-28.47845	12.20505	13.83239	-27.66478	30.91946	61.02525	437.75446	23.59643	51.26121	0.81367	0
22	-4.06835	-30.91946	-30.91946	14.64606	14.64606	-30.91946	26.03744	74.85764	452.40052	30.91946	58.58424	4.06835	0
23	-4.88202	-34.17414	-32.5468	17.08707	14.64606	-33.36047	27.66478	74.04397	460.53722	34.17414	63.46626	13.01872	0
24	-4.06835	-33.36047	-31.73313	17.08707	14.64606	-32.5468	31.73313	61.02525	461.35089	30.10579	64.27993	18.71441	0
25	-0.81367	-33.36047	-33.36047	16.2734	15.45973	-33.36047	34.17414	52.07488	466.23291	22.78276	62.65259	29.29212	0
26	2.44101	-34.17414	-34.98781	15.45973	17.08707	-34.17414	37.42882	51.26121	460.53722	13.01872	56.14323	44.75185	0
27	4.88202	-30.91946	-32.5468	13.83239	16.2734	-31.73313	42.31084	46.37919	441.82281	5.69569	48.00653	49.63387	0
28	4.06835	-30.91946	-32.5468	13.83239	16.2734	-31.73313	41.49717	36.61515	430.43143	4.88202	46.37919	42.31084	0
29	1.62734	-34.98781	-34.98781	17.08707	17.08707	-34.98781	35.80148	29.29212	427.17675	10.57771	51.26121	35.80148	0
30	-0.81367	-34.17414	-33.36047	17.08707	15.45973	-33.36047	30.10579	28.47845	422.29473	17.08707	57.77057	26.85111	0
31	-0.81367	-29.29212	-31.73313	13.01872	16.2734	-30.91946	23.59643	41.49717	428.80409	24.4101	65.0936	18.71441	0
32	1.62734	-28.47845	-35.80148	10.57771	20.34175	-32.5468	17.90074	55.32956	448.33217	32.5468	71.60296	21.15542	0
33	4.06835	-30.91946	-39.86983	10.57771	23.59643	-34.98781	17.90074	53.70222	455.6552	34.17414	74.85764	28.47845	0
34	2.44101	-34.17414	-40.6835	13.01872	22.78276	-37.42882	19.52808	39.86983	451.58685	27.66478	74.04397	31.73313	0
35	0	-39.05616	-40.6835	17.90074	20.34175	-39.86983	21.15542	16.2734	450.77318	18.71441	71.60296	39.86983	0
36	0	-39.05616	-35.80148	20.34175	15.45973	-37.42882	26.03744	-15.45973	441.82281	9.76404	66.72094	54.51589	0
37	0	-32.5468	-28.47845	17.90074	11.39138	-30.91946	31.73313	-34.98781	420.66739	3.25468	60.21158	56.9569	0
38	0	-30.91946	-28.47845	16.2734	11.39138	-29.29212	31.73313	-31.73313	408.46234	1.62734	57.77057	48.8202	0
39	0.81367	-33.36047	-33.36047	16.2734	15.45973	-33.36047	26.85111	-18.71441	406.835	6.50936	61.02525	39.86983	0
40	0.81367	-32.5468	-34.17414	14.64606	17.08707	-33.36047	21.15542	-0.81367	405.20766	12.20505	65.0936	43.93818	0
41	-1.62734	-30.91946	-31.73313	13.83239	16.2734	-31.73313	14.64606	24.4101	416.59904	18.71441	70.78929	67.53461	0
42	-4.88202	-34.17414	-33.36047	16.2734	16.2734	-34.17414	10.57771	46.37919	440.19547	26.85111	77.29865	85.43535	0
43	-5.69569	-36.61515	-34.98781	18.71441	16.2734	-35.80148	12.20505	48.8202	451.58685	29.29212	80.55333	82.18067	0
44	-6.50936	-36.61515	-33.36047	19.52808	14.64606	-34.98781	15.45973	38.24249	453.21419	22.78276	78.92599	66.72094	0
45	-4.88202	-37.42882	-32.5468	20.34175	13.01872	-34.98781	18.71441	17.08707	458.90988	14.64606	77.29865	58.58424	0
46	-0.81367	-34.98781	-30.91946	18.71441	13.01872	-33.36047	25.22377	-11.39138	456.46887	6.50936	74.04397	60.21158	0
47	1.62734	-29.29212	-27.66478	14.64606	11.39138	-28.47845	32.5468	-27.66478	442.63648	1.62734	69.16195	58.58424	0
48	1.62734	-30.10579	-27.66478	15.45973	12.20505	-29.29212	33.36047	-24.4101	436.12712	2.44101	68.34828	49.63387	0
49	0	-35.80148	-34.17414	17.90074	15.45973	-34.98781	27.66478	-13.01872	437.75446	8.95037	71.60296	40.6835	0
50	0	-37.42882	-38.24249	17.90074	18.71441	-38.24249	20.34175	1.62734	440.19547	15.45973	74.85764	44.75185	0
51	0	-35.80148	-39.86983	15.45973	20.34175	-38.24249	13.01872	24.4101	456.46887	23.59643	78.92599	65.0936	0
52	0.81367	-35.80148	-43.12451	13.83239	23.59643	-39.86983	7.32303	43.93818	484.94732	33.36047	84.62168	81.367	0
53	2.44101	-35.80148	-43.93818	13.01872	25.22377	-40.6835	6.50936	45.56552	500.40705	37.42882	87.06269	77.29865	0
54	3.25468	-34.98781	-42.31084	13.01872	23.59643	-39.05616	8.1367	33.36047	502.84806	31.73313	86.24902	64.27993	0
55	3.25468	-37.42882	-41.49717	15.45973	21.96909	-39.05616	10.57771	10.57771	506.10274	22.78276	85.43535	57.77057	0
56	3.25468	-37.42882	-38.24249	17.08707	18.71441	-37.42882	16.2734	-17.08707	500.40705	11.39138	81.367	61.83892	0
57	1.62734	-33.36047	-30.10579	17.08707	13.01872	-31.73313	23.59643	-33.36047	484.13365	0.81367	73.2303	60.21158	0
58	-2.44101	-32.5468	-26.03744	18.71441	8.95037	-29.29212	24.4101	-30.91946	477.62429	-0.81367	65.0936	52.07488	0
59	-6.50936	-39.05616	-29.29212	23.59643	8.95037	-34.17414	17.90074	-21.15542	479.25163	2.44101	59.39791	43.12451	0
60	-8.95037	-41.49717	-31.73313	24.4101	10.57771	-36.61515	10.57771	-7.32303	481.69264	8.1367	54.51589	47.19286	0
61	-9.76404	-40.6835	-33.36047	22.78276	13.01872	-37.42882	3.25468	11.39138	497.15237	16.2734	52.07488	67.53461	0
62	-10.57771	-42.31084	-37.42882	22.78276	15.45973	-40.6835	0	28.47845	525.63082	26.85111	52.88855	82.99434	0
63	-9.76404	-44.75185	-39.86983	23.59643	16.2734	-42.31084	0.81367	30.10579	541.09055	31.73313	52.88855	80.55333	0
64	-8.95037	-43.12451	-37.42882	23.59643	15.45973	-40.6835	4.88202	21.15542	541.90422	28.47845	51.26121	68.34828	0
65	-5.69569	-41.49717	-35.80148	22.78276	14.64606	-38.24249	8.95037	2.44101	542.71789	20.34175	48.8202	62.65259	0
66	-1.62734	-38.24249	-33.36047	21.15542	13.83239	-35.80148	15.45973	-21.96909	532.95385	10.57771	45.56552	65.90727	0
67	0	-32.5468	-28.47845	17.90074	11.39138	-30.10579	22.78276	-35.80148	514.23944	0.81367	39.05616	65.90727	0
68	0	-30.91946	-26.85111	16.2734	10.57771	-29.29212	22.78276	-33.36047	504.4754	-1.62734	33.36047	58.58424	0
69	0	-35.80148	-32.5468	18.71441	13.83239	-34.17414	16.2734	-23.59643	505.28907	0.81367	30.10579	49.63387	0
70	-1.62734	-38.24249	-35.80148	19.52808	15.45973	-37.42882	8.95037	-10.57771	509.35742	5.69569	27.66478	52.88855	0
71	-4.88202	-37.42882	-36.61515	18.71441	17.08707	-37.42882	1.62734	7.32303	528.07183	13.83239	26.85111	71.60296	0
72	-4.88202	-39.05616	-39.86983	17.90074	19.52808	-39.05616	-2.44101	24.4101	558.99129	25.22377	29.29212	87.06269	0
73	-2.44101	-37.42882	-39.86983	17.08707	20.34175	-39.05616	-1.62734	26.85111	576.07836	30.10579	30.91946	85.43535	0
74	-0.81367	-34.98781	-37.42882	15.45973	18.71441	-35.80148	1.62734	17.90074	576.89203	26.03744	28.47845	74.85764	0
75	-0.81367	-36.61515	-36.61515	17.90074	17.08707	-36.61515	4.88202	-1.62734	574.45102	16.2734	25.22377	69.16195	0
76	0	-36.61515	-33.36047	19.52808	13.83239	-34.98781	11.39138	-29.29212	561.4323	3.25468	18.71441	72.41663	0
77	0.81367	-33.36047	-28.47845	17.90074	11.39138	-30.91946	19.52808	-44.75185	540.27688	-7.32303	12.20505	71.60296	0
78	1.62734	-34.17414	-30.91946	17.90074	13.01872	-32.5468	21.15542	-41.49717	529.69917	-8.95037	9.76404	63.46626	0
79	1.62734	-38.24249	-36.61515	18.71441	17.08707	-37.42882	16.2734	-30.10579	531.32651	-1.62734	9.76404	55.32956	0
80	-0.81367	-38.24249	-37.42882	18.71441	17.90074	-38.24249	8.95037	-17.90074	536.20853	4.88202	8.95037	56.14323	0
81	-5.69569	-38.24249	-36.61515	18.71441	16.2734	-37.42882	0	-1.62734	554.92294	13.01872	8.95037	71.60296	0
82	-6.50936	-40.6835	-39.05616	19.52808	18.71441	-39.86983	-6.50936	13.83239	584.21506	23.59643	9.76404	84.62168	0
83	-4.06835	-41.49717	-42.31084	19.52808	20.34175	-41.49717	-8.1367	16.2734	597.23378	27.66478	9.76404	82.99434	0
84	-3.25468	-39.86983	-39.86983	18.71441	19.52808	-39.86983	-5.69569	6.50936	593.9791	21.96909	7.32303	72.41663	0
85	-4.06835	-41.49717	-37.42882	21.96909	16.2734	-39.05616	-2.44101	-10.57771	588.28341	11.39138	3.25468	66.72094	0
86	-3.25468	-41.49717	-33.36047	23.59643	12.20505	-37.42882	4.06835	-34.98781	572.01001	-1.62734	-1.62734	69.97562	0
87	0	-35.80148	-28.47845	20.34175	10.57771	-31.73313	12.20505	-50.44754	548.41358	-13.83239	-9.76404	67.53461	0
88	2.44101	-31.73313	-29.29212	16.2734	13.01872	-30.10579	13.01872	-49.63387	537.0222	-18.71441	-16.2734	57.77057	0
89	4.88202	-34.98781	-36.61515	15.45973	18.71441	-35.80148	6.50936	-42.31084	537.0222	-13.83239	-18.71441	48.8202	0
90	10.57771	-35.80148	-41.49717	14.64606	21.96909	-38.24249	-0.81367	-30.91946	541.09055	-7.32303	-19.52808	49.63387	0
91	20.34175	-34.98781	-41.49717	13.01872	22.78276	-38.24249	-8.95037	-12.20505	558.99129	2.44101	-17.08707	65.90727	0
92	23.59643	-35.80148	-41.49717	14.64606	22.78276	-39.05616	-13.01872	6.50936	588.28341	17.90074	-11.39138	82.18067	0
93	17.90074	-36.61515	-39.86983	15.45973	20.34175	-38.24249	-11.39138	12.20505	601.30213	26.85111	-6.50936	82.18067	0
94	10.57771	-34.17414	-35.80148	15.45973	18.71441	-34.98781	-7.32303	4.06835	595.60644	23.59643	-6.50936	70.78929	0
95	7.32303	-34.98781	-37.42882	15.45973	18.71441	-35.80148	-5.69569	-13.83239	585.8424	13.01872	-9.76404	62.65259	0
96	8.1367	-35.80148	-38.24249	15.45973	19.52808	-36.61515	-0.81367	-38.24249	565.50065	-0.81367	-15.45973	61.83892	0
97	8.1367	-30.91946	-33.36047	13.83239	17.08707	-32.5468	7.32303	-51.26121	539.46321	-13.01872	-22.78276	56.9569	0
98	4.06835	-28.47845	-28.47845	13.01872	13.83239	-28.47845	9.76404	-48.00653	527.25816	-13.83239	-24.4101	48.8202	0
99	1.62734	-27.66478	-26.85111	13.83239	12.20505	-26.85111	6.50936	-37.42882	528.07183	-4.06835	-21.15542	42.31084	0
100	-0.81367	-22.78276	-22.78276	11.39138	10.57771	-22.78276	0	-26.03744	532.95385	4.88202	-18.71441	45.56552	1000	P+0
101	-4.06835	-17.90074	-18.71441	8.1367	9.76404	-18.71441	-6.50936	-11.39138	550.85459	15.45973	-14.64606	61.02525	0
102	-4.06835	-14.64606	-17.90074	4.88202	9.76404	-16.2734	-12.20505	4.06835	580.96038	30.10579	-8.95037	76.48498	0
103	1.62734	-3.25468	-12.20505	-2.44101	9.76404	-7.32303	-11.39138	8.1367	593.9791	39.05616	-3.25468	79.73966	0
104	12.20505	15.45973	-0.81367	-16.2734	8.1367	7.32303	-6.50936	2.44101	591.53809	40.6835	1.62734	76.48498	0
105	25.22377	37.42882	10.57771	-32.5468	6.50936	23.59643	-0.81367	-6.50936	588.28341	39.05616	8.1367	78.11232	0
106	40.6835	61.83892	24.4101	-49.63387	4.88202	43.12451	10.57771	-18.71441	576.89203	36.61515	13.83239	87.87636	0
107	50.44754	86.24902	41.49717	-65.0936	0	64.27993	26.03744	-21.96909	557.36395	34.98781	17.08707	92.75838	0
108	52.07488	97.6404	51.26121	-72.41663	-2.44101	74.04397	34.98781	-13.01872	549.22725	41.49717	21.15542	90.31737	0
109	49.63387	96.82673	50.44754	-72.41663	-1.62734	74.04397	34.17414	-1.62734	551.66826	51.26121	25.22377	85.43535	0
110	46.37919	96.82673	49.63387	-72.41663	-1.62734	73.2303	27.66478	3.25468	552.48193	57.77057	24.4101	85.43535	0
111	41.49717	96.01306	49.63387	-71.60296	-1.62734	73.2303	16.2734	9.76404	563.87331	62.65259	23.59643	96.01306	0
112	38.24249	93.57205	48.00653	-69.97562	-1.62734	70.78929	6.50936	17.08707	585.02873	69.97562	22.78276	104.96343	0
113	39.86983	93.57205	47.19286	-69.97562	-0.81367	70.78929	2.44101	13.83239	588.28341	69.97562	22.78276	103.33609	0
114	39.86983	94.38572	49.63387	-69.97562	-3.25468	71.60296	1.62734	0	572.82368	61.02525	20.34175	93.57205	0
115	37.42882	87.06269	48.00653	-63.46626	-4.88202	67.53461	0.81367	-19.52808	552.48193	44.75185	15.45973	70.78929	0
116	37.42882	75.67131	42.31084	-55.32956	-4.88202	59.39791	5.69569	-41.49717	525.63082	26.03744	8.1367	35.80148	0
117	39.05616	68.34828	35.80148	-51.26121	-2.44101	52.07488	14.64606	-51.26121	497.15237	12.20505	0	14.64606	0
118	43.12451	61.83892	24.4101	-50.44754	4.88202	43.12451	16.2734	-43.93818	487.38833	12.20505	-3.25468	17.90074	0
119	48.8202	52.88855	8.1367	-49.63387	17.08707	30.91946	9.76404	-30.10579	493.08402	22.78276	-0.81367	31.73313	0
120	58.58424	44.75185	-6.50936	-49.63387	29.29212	18.71441	-3.25468	-19.52808	501.22072	32.5468	0	49.63387	0
121	72.41663	35.80148	-22.78276	-48.00653	40.6835	5.69569	-20.34175	-8.1367	519.93513	41.49717	0	71.60296	0
122	80.55333	21.15542	-42.31084	-43.12451	52.88855	-9.76404	-33.36047	3.25468	547.59991	50.44754	-0.81367	87.06269	0
123	78.92599	9.76404	-54.51589	-37.42882	59.39791	-21.96909	-37.42882	4.06835	556.55028	52.88855	-2.44101	87.06269	0
124	69.16195	4.88202	-55.32956	-33.36047	57.77057	-25.22377	-35.80148	-4.06835	545.97257	46.37919	-7.32303	76.48498	0
125	56.9569	0	-50.44754	-25.22377	49.63387	-25.22377	-30.91946	-19.52808	530.51284	33.36047	-14.64606	52.07488	0
126	43.93818	-4.06835	-42.31084	-16.2734	39.05616	-23.59643	-21.15542	-39.86983	505.28907	13.83239	-26.85111	15.45973	0
127	30.10579	-6.50936	-30.10579	-8.1367	26.03744	-18.71441	-9.76404	-52.88855	472.74227	-4.06835	-44.75185	-8.95037	0
128	15.45973	-13.01872	-23.59643	0.81367	16.2734	-18.71441	-6.50936	-55.32956	454.02786	-14.64606	-61.02525	-13.83239	0
129	3.25468	-24.4101	-25.22377	11.39138	12.20505	-25.22377	-12.20505	-51.26121	449.14584	-13.83239	-74.04397	-8.95037	0
130	0.81367	-30.91946	-26.85111	17.08707	10.57771	-29.29212	-17.90074	-45.56552	450.77318	-9.76404	-82.99434	1.62734	0
131	7.32303	-32.5468	-26.03744	19.52808	8.1367	-29.29212	-25.22377	-34.17414	467.86025	-0.81367	-87.87636	19.52808	0
132	10.57771	-35.80148	-27.66478	21.96909	8.95037	-31.73313	-29.29212	-18.71441	493.89769	11.39138	-89.5037	35.80148	0
133	6.50936	-38.24249	-29.29212	22.78276	8.95037	-34.17414	-27.66478	-14.64606	500.40705	16.2734	-91.94471	36.61515	0
134	0	-38.24249	-27.66478	24.4101	7.32303	-33.36047	-23.59643	-22.78276	486.57466	8.95037	-96.82673	26.85111	0
135	-5.69569	-41.49717	-28.47845	26.85111	6.50936	-34.98781	-20.34175	-38.24249	467.04658	-4.88202	-101.70875	4.88202	0
136	-8.1367	-40.6835	-25.22377	27.66478	4.06835	-33.36047	-12.20505	-56.14323	439.3818	-21.96909	-107.40444	-24.4101	0
137	-11.39138	-32.5468	-13.83239	25.22377	-2.44101	-22.78276	-1.62734	-65.90727	408.46234	-34.98781	-113.10013	-42.31084	0
138	-16.2734	-26.85111	-4.88202	23.59643	-8.95037	-15.45973	0.81367	-63.46626	394.62995	-37.42882	-116.35481	-39.05616	0
139	-21.96909	-30.91946	-4.88202	27.66478	-10.57771	-17.90074	-4.06835	-56.14323	395.44362	-30.91946	-116.35481	-27.66478	0
140	-21.96909	-34.17414	-8.1367	29.29212	-8.95037	-21.15542	-12.20505	-48.8202	401.95298	-23.59643	-115.54114	-11.39138	0
141	-13.83239	-34.17414	-12.20505	27.66478	-5.69569	-22.78276	-21.15542	-38.24249	424.73574	-13.83239	-112.28646	9.76404	0
142	-8.1367	-35.80148	-17.08707	27.66478	-1.62734	-26.03744	-26.85111	-24.4101	456.46887	-0.81367	-107.40444	26.85111	0
143	-10.57771	-37.42882	-18.71441	28.47845	-0.81367	-27.66478	-25.22377	-19.52808	468.67392	2.44101	-102.52242	31.73313	0
144	-15.45973	-36.61515	-16.2734	28.47845	-2.44101	-26.03744	-19.52808	-26.03744	461.35089	-4.06835	-100.89508	25.22377	0
145	-24.4101	-35.80148	-15.45973	27.66478	-3.25468	-25.22377	-14.64606	-39.05616	449.14584	-18.71441	-102.52242	7.32303	0
146	-37.42882	-30.91946	-13.01872	23.59643	-2.44101	-21.96909	-6.50936	-55.32956	428.80409	-39.05616	-107.40444	-20.34175	0
147	-42.31084	-24.4101	-8.95037	18.71441	-3.25468	-16.2734	4.06835	-65.90727	403.58032	-55.32956	-113.10013	-36.61515	0
148	-39.05616	-26.03744	-9.76404	19.52808	-3.25468	-17.90074	7.32303	-64.27993	393.81628	-58.58424	-113.9138	-33.36047	0
149	-34.98781	-34.98781	-14.64606	26.03744	-2.44101	-24.4101	1.62734	-56.14323	398.6983	-49.63387	-109.84545	-21.96909	0
150	-26.85111	-39.86983	-17.08707	30.10579	-2.44101	-28.47845	-5.69569	-50.44754	408.46234	-40.6835	-107.40444	-8.1367	0
151	-13.83239	-39.05616	-19.52808	29.29212	-0.81367	-29.29212	-17.08707	-40.6835	428.80409	-29.29212	-104.96343	8.95037	0
152	-5.69569	-39.86983	-21.96909	28.47845	0.81367	-30.91946	-24.4101	-26.03744	456.46887	-13.83239	-99.26774	25.22377	0
153	-6.50936	-38.24249	-20.34175	27.66478	0.81367	-29.29212	-24.4101	-20.34175	462.16456	-4.06835	-94.38572	30.91946	0
154	-8.1367	-33.36047	-17.90074	24.4101	0	-26.03744	-20.34175	-26.85111	444.26382	-7.32303	-92.75838	24.4101	0
155	-8.95037	-32.5468	-17.08707	22.78276	0	-25.22377	-17.08707	-40.6835	419.04005	-17.90074	-94.38572	4.88202	0
156	-8.95037	-32.5468	-15.45973	24.4101	-0.81367	-24.4101	-9.76404	-56.9569	385.67958	-32.5468	-97.6404	-22.78276	0
157	-12.20505	-30.91946	-9.76404	24.4101	-5.69569	-20.34175	0	-67.53461	349.8781	-43.93818	-101.70875	-41.49717	0
158	-16.2734	-30.10579	-6.50936	25.22377	-8.1367	-18.71441	0	-68.34828	331.97736	-45.56552	-105.7771	-43.93818	0
159	-19.52808	-31.73313	-8.95037	26.85111	-7.32303	-20.34175	-5.69569	-63.46626	331.97736	-36.61515	-104.96343	-37.42882	0
160	-16.2734	-32.5468	-9.76404	26.85111	-6.50936	-21.15542	-14.64606	-56.9569	340.92773	-25.22377	-102.52242	-26.03744	0
161	-8.1367	-33.36047	-10.57771	27.66478	-5.69569	-21.96909	-22.78276	-45.56552	366.96517	-10.57771	-96.82673	-8.1367	0
162	-3.25468	-36.61515	-15.45973	29.29212	-3.25468	-26.03744	-28.47845	-28.47845	401.95298	6.50936	-88.69003	8.1367	0
163	-3.25468	-37.42882	-17.90074	27.66478	0	-27.66478	-26.85111	-20.34175	416.59904	15.45973	-82.18067	13.83239	0
164	-4.88202	-31.73313	-17.08707	22.78276	0	-24.4101	-21.96909	-25.22377	409.27601	11.39138	-79.73966	8.1367	0
165	-5.69569	-28.47845	-16.2734	20.34175	0.81367	-22.78276	-17.08707	-35.80148	393.81628	0	-80.55333	-8.1367	0
166	-7.32303	-27.66478	-13.01872	20.34175	-0.81367	-20.34175	-8.1367	-48.00653	366.96517	-16.2734	-82.99434	-34.17414	0
167	-9.76404	-23.59643	-5.69569	19.52808	-6.50936	-14.64606	4.06835	-56.14323	336.04571	-30.10579	-87.87636	-52.07488	0
168	-13.01872	-21.15542	-2.44101	18.71441	-8.1367	-11.39138	8.1367	-53.70222	319.77231	-32.5468	-91.13104	-55.32956	0
169	-13.83239	-26.03744	-8.95037	20.34175	-4.06835	-17.08707	4.06835	-43.93818	317.3313	-26.03744	-92.75838	-52.07488	0
170	-8.1367	-33.36047	-18.71441	22.78276	1.62734	-26.03744	0.81367	-30.91946	320.58598	-21.96909	-96.01306	-48.00653	0
171	2.44101	-45.56552	-34.17414	28.47845	10.57771	-39.86983	3.25468	-93.57205	340.92773	-20.34175	-101.70875	-42.31084	0
172	10.57771	-68.34828	-60.21158	38.24249	26.03744	-64.27993	-17.08707	-235.9643	375.10187	-19.52808	-110.65912	-41.49717	0
173	9.76404	-96.82673	-91.94471	51.26121	43.12451	-94.38572	-64.27993	-275.83413	394.62995	-28.47845	-123.67784	-55.32956	0
174	5.69569	-126.93252	-122.86417	65.0936	58.58424	-124.49151	-54.51589	-158.66565	402.76665	-44.75185	-142.39225	-82.99434	0
175	4.88202	-159.47932	-157.85198	79.73966	77.29865	-158.66565	30.10579	15.45973	423.92207	-58.58424	-158.66565	-119.60949	0
176	11.39138	-190.39878	-195.2808	91.94471	98.45407	-192.83979	100.08141	199.34915	475.99695	-56.9569	-169.24336	-158.66565	0
177	25.22377	-216.43622	-233.52329	97.6404	124.49151	-224.57292	131.81454	398.6983	516.68045	-20.34175	-166.80235	-183.07575	0
178	47.19286	-242.47366	-283.97083	98.45407	161.92033	-262.81541	228.64127	648.49499	545.97257	74.85764	-140.76491	-182.26208	0
179	82.18067	-266.88376	-345.80975	92.75838	211.5542	-305.93992	435.31345	966.63996	716.84327	244.91467	-80.55333	-161.10666	0
180	128.55986	-275.83413	-405.20766	72.41663	266.88376	-340.11406	687.55115	1322.21375	1066.72137	480.0653	11.39138	-119.60949	0
181	187.1441	-265.25642	-456.46887	35.80148	323.84066	-360.45581	951.18023	1559.80539	1356.38789	644.42664	135.88289	-157.85198	0
182	258.74706	-237.59164	-502.84806	-13.01872	384.05224	-371.03352	1173.31214	1620.01697	1495.52546	707.8929	290.48019	-292.10753	0
183	344.18241	-186.33043	-537.0222	-81.367	443.45015	-362.08315	1225.38702	1689.17892	1751.01784	930.83848	474.36961	-294.54854	0
184	441.00914	-107.40444	-551.66826	-168.42969	498.77971	-329.53635	1063.46669	1811.22942	2200.97735	1380.79799	684.29647	-97.6404	0
185	526.44449	-7.32303	-553.2956	-269.32477	549.22725	-280.71615	748.5764	1868.99999	2676.9743	1897.47844	912.12407	165.17501	0
186	583.40139	100.89508	-534.58119	-370.21985	585.02873	-216.43622	314.07662	1806.3474	3205.8598	2361.27034	1131.81497	414.9717	0
187	620.83021	210.74053	-479.25163	-452.40052	584.21506	-134.25555	-121.23683	1606.99825	3730.67695	2681.04265	1301.872	615.94819	0
188	625.71223	305.12625	-377.54288	-496.3387	529.69917	-35.80148	-399.51197	1234.33739	3883.64691	2688.36568	1389.74836	752.64475	0
189	574.45102	375.91554	-235.9643	-494.71136	423.1084	69.16195	-570.38267	719.28428	3558.99258	2342.55593	1378.35698	815.29734	0
190	470.30126	417.41271	-72.41663	-454.84153	281.52982	171.68437	-720.91162	213.18154	2939.78971	1874.69568	1255.49281	804.71963	0
191	334.41837	419.85372	74.85764	-382.4249	134.25555	246.54201	-837.26643	-213.18154	2026.0383	1398.69873	1032.54723	729.04832	0
192	196.90814	381.61123	180.63474	-292.10753	10.57771	280.71615	-937.34784	-558.17762	1048.82063	904.80104	754.27209	610.2525	0
193	84.62168	325.468	240.03265	-205.85851	-76.48498	282.34349	-1029.29255	-799.02394	467.86025	457.28254	481.69264	471.11493	0
194	6.50936	268.5111	261.18807	-137.51023	-126.93252	264.44275	-1042.31127	-922.70178	201.79016	122.0505	260.3744	336.85938	0
195	-40.6835	213.99521	251.42403	-88.69003	-144.01959	232.70962	-952.80757	-936.53417	15.45973	-71.60296	104.96343	220.50457	0
196	-69.16195	172.49804	226.20026	-60.21158	-139.95124	199.34915	-852.72616	-877.13626	-104.96343	-152.96996	7.32303	126.93252	0
197	-75.67131	148.08794	202.60383	-48.00653	-129.37353	175.75272	-786.81889	-779.49586	-179.82107	-188.77144	-50.44754	65.0936	0
198	-68.34828	131.81454	182.26208	-41.49717	-117.16848	157.03831	-691.6195	-672.09142	-213.18154	-212.36787	-79.73966	34.17414	0
199	-57.77057	115.54114	162.734	-35.80148	-104.96343	139.13757	-550.85459	-572.82368	-217.24989	-221.31824	-90.31737	20.34175	0
200	-45.56552	104.96343	149.71528	-30.91946	-97.6404	126.93252	-414.9717	-495.52503	-201.79016	-225.38659	-94.38572	13.01872	0
201	-32.5468	96.01306	143.20592	-25.22377	-94.38572	118.79582	-309.1946	-432.87244	-159.47932	-222.13191	-94.38572	11.39138	0
202	-27.66478	85.43535	134.25555	-18.71441	-91.13104	109.03178	-235.9643	-378.35655	-100.89508	-210.74053	-92.75838	13.01872	0
203	-33.36047	75.67131	127.74619	-12.20505	-89.5037	100.89508	-183.07575	-341.7414	-55.32956	-205.04484	-91.13104	7.32303	0
204	-44.75185	69.97562	126.93252	-6.50936	-91.94471	97.6404	-146.4606	-324.65433	-28.47845	-209.11319	-92.75838	-2.44101	0
205	-60.21158	61.83892	123.67784	0	-93.57205	92.75838	-124.49151	-318.95864	-10.57771	-218.06356	-95.19939	-17.08707	0
206	-78.11232	53.70222	122.0505	4.88202	-94.38572	87.87636	-107.40444	-318.14497	-8.95037	-231.08228	-98.45407	-36.61515	0
207	-87.87636	53.70222	125.30518	6.50936	-98.45407	89.5037	-91.13104	-317.3313	-19.52808	-240.84632	-104.96343	-50.44754	0
208	-87.06269	53.70222	126.11885	6.50936	-99.26774	90.31737	-85.43535	-310.00827	-23.59643	-236.77797	-108.21811	-52.88855	0
209	-80.55333	51.26121	122.0505	7.32303	-96.82673	87.06269	-87.87636	-296.98955	-22.78276	-219.6909	-106.59077	-48.8202	0
210	-69.97562	53.70222	122.86417	5.69569	-96.01306	88.69003	-92.75838	-286.41184	-24.4101	-205.85851	-102.52242	-42.31084	0
211	-56.9569	61.83892	130.1872	1.62734	-99.26774	94.38572	-98.45407	-273.39312	-21.15542	-197.72181	-98.45407	-32.5468	0
212	-49.63387	65.0936	133.44188	0	-100.08141	97.6404	-99.26774	-255.49238	-16.2734	-180.63474	-91.13104	-19.52808	0
213	-51.26121	67.53461	135.06922	-0.81367	-101.70875	100.08141	-91.94471	-246.54201	-34.17414	-161.10666	-85.43535	-13.01872	0
214	-57.77057	71.60296	139.95124	-2.44101	-104.14976	104.96343	-79.73966	-248.98302	-71.60296	-152.96996	-84.62168	-13.83239	0
215	-69.97562	71.60296	144.01959	0	-108.21811	107.40444	-67.53461	-257.11972	-109.84545	-156.22464	-85.43535	-21.15542	0
216	-85.43535	69.97562	148.08794	1.62734	-113.10013	109.03178	-51.26121	-266.88376	-148.08794	-169.24336	-89.5037	-34.98781	0
217	-93.57205	72.41663	153.78363	1.62734	-117.98215	113.10013	-33.36047	-273.39312	-177.38006	-183.88942	-96.82673	-44.75185	0
218	-92.75838	72.41663	153.78363	2.44101	-117.98215	113.10013	-24.4101	-272.57945	-183.07575	-187.1441	-99.26774	-43.93818	0
219	-87.06269	69.16195	148.90161	3.25468	-114.72747	109.03178	-24.4101	-266.07009	-170.05703	-179.0074	-97.6404	-36.61515	0
220	-77.29865	72.41663	148.90161	0.81367	-113.10013	110.65912	-28.47845	-260.3744	-146.4606	-174.93905	-92.75838	-26.85111	0
221	-63.46626	78.92599	152.96996	-3.25468	-113.9138	114.72747	-34.98781	-251.42403	-109.84545	-174.93905	-86.24902	-13.01872	0
222	-56.14323	79.73966	151.34262	-4.88202	-111.47279	114.72747	-40.6835	-236.77797	-69.97562	-164.36134	-78.11232	1.62734	0
223	-56.9569	78.92599	149.71528	-4.88202	-110.65912	113.10013	-41.49717	-231.08228	-53.70222	-152.15629	-71.60296	8.95037	0
224	-61.02525	80.55333	151.34262	-5.69569	-110.65912	114.72747	-39.86983	-235.9643	-61.02525	-147.27427	-69.16195	7.32303	0
225	-69.97562	77.29865	149.71528	-4.06835	-110.65912	113.10013	-40.6835	-246.54201	-78.92599	-150.52895	-69.97562	-1.62734	0
226	-82.99434	74.04397	148.08794	-0.81367	-111.47279	110.65912	-36.61515	-257.11972	-108.21811	-158.66565	-73.2303	-15.45973	0
227	-88.69003	77.29865	152.96996	-2.44101	-113.9138	115.54114	-30.10579	-264.44275	-140.76491	-166.80235	-78.92599	-24.4101	0
228	-85.43535	82.99434	157.03831	-6.50936	-114.72747	120.42316	-31.73313	-266.88376	-161.10666	-164.36134	-82.18067	-24.4101	0
229	-78.11232	85.43535	155.41097	-8.95037	-112.28646	120.42316	-41.49717	-266.07009	-168.42969	-152.96996	-80.55333	-20.34175	0
230	-73.2303	88.69003	156.22464	-11.39138	-112.28646	122.0505	-51.26121	-264.44275	-169.24336	-145.64693	-77.29865	-13.83239	0
231	-70.78929	92.75838	161.10666	-13.01872	-114.72747	126.11885	-60.21158	-257.93339	-152.96996	-143.20592	-71.60296	-2.44101	0
232	-69.97562	92.75838	161.10666	-13.01872	-114.72747	125.30518	-66.72094	-243.28733	-123.67784	-132.62821	-62.65259	11.39138	0
233	-69.16195	91.94471	160.29299	-13.01872	-113.9138	125.30518	-65.0936	-234.33696	-109.03178	-122.86417	-56.14323	17.90074	0
234	-70.78929	91.94471	161.92033	-11.39138	-116.35481	126.11885	-60.21158	-237.59164	-108.21811	-123.67784	-55.32956	16.2734	0
235	-77.29865	86.24902	160.29299	-7.32303	-117.16848	123.67784	-55.32956	-244.91467	-109.84545	-122.0505	-56.14323	8.1367	0
236	-87.06269	82.18067	158.66565	-4.88202	-117.98215	121.23683	-44.75185	-253.05137	-116.35481	-113.10013	-60.21158	-4.06835	0
237	-89.5037	86.24902	161.92033	-7.32303	-118.79582	124.49151	-32.5468	-257.93339	-121.23683	-117.16848	-65.0936	-12.20505	0
238	-82.99434	89.5037	161.10666	-10.57771	-116.35481	125.30518	-27.66478	-257.11972	-111.47279	-131.81454	-67.53461	-13.01872	0
239	-75.67131	87.06269	154.5973	-11.39138	-111.47279	121.23683	-31.73313	-251.42403	-89.5037	-142.39225	-65.0936	-8.95037	0
240	-70.78929	87.06269	153.78363	-10.57771	-110.65912	120.42316	-38.24249	-246.54201	-65.0936	-152.96996	-62.65259	-2.44101	0
241	-70.78929	88.69003	157.03831	-10.57771	-113.9138	122.0505	-46.37919	-240.03265	-33.36047	-161.10666	-58.58424	6.50936	0
242	-71.60296	84.62168	155.41097	-7.32303	-113.9138	118.79582	-52.88855	-228.64127	-3.25468	-157.03831	-53.70222	18.71441	0
243	-69.97562	79.73966	149.71528	-4.88202	-110.65912	113.10013	-53.70222	-224.57292	4.06835	-149.71528	-51.26121	22.78276	0
244	-69.16195	78.11232	147.27427	-4.88202	-109.03178	112.28646	-52.88855	-231.89595	-6.50936	-148.90161	-51.26121	19.52808	0
245	-68.34828	76.48498	147.27427	-3.25468	-109.84545	111.47279	-50.44754	-240.84632	-25.22377	-152.96996	-52.88855	11.39138	0
246	-67.53461	76.48498	150.52895	-2.44101	-112.28646	113.10013	-43.93818	-248.98302	-51.26121	-161.10666	-54.51589	0.81367	0
247	-65.0936	82.18067	156.22464	-6.50936	-114.72747	119.60949	-36.61515	-253.86504	-79.73966	-168.42969	-58.58424	-7.32303	0
248	-60.21158	87.87636	155.41097	-12.20505	-111.47279	122.0505	-39.05616	-256.30605	-97.6404	-165.98868	-61.83892	-10.57771	0
249	-54.51589	87.87636	147.27427	-15.45973	-103.33609	117.98215	-49.63387	-255.49238	-104.14976	-156.22464	-61.83892	-11.39138	0
250	-53.70222	87.06269	143.20592	-16.2734	-99.26774	114.72747	-61.02525	-255.49238	-104.96343	-145.64693	-60.21158	-10.57771	0
251	-57.77057	87.06269	144.83326	-15.45973	-102.52242	114.72747	-69.97562	-250.61036	-94.38572	-131.00087	-56.14323	-4.88202	0
252	-62.65259	85.43535	147.27427	-12.20505	-105.7771	114.72747	-74.85764	-236.77797	-75.67131	-113.10013	-47.19286	4.88202	0
253	-65.90727	84.62168	149.71528	-9.76404	-108.21811	115.54114	-70.78929	-229.45494	-71.60296	-104.14976	-39.86983	11.39138	0
254	-69.16195	85.43535	153.78363	-8.95037	-111.47279	118.79582	-63.46626	-232.70962	-82.18067	-107.40444	-37.42882	10.57771	0
255	-74.85764	83.80801	153.78363	-8.1367	-112.28646	118.79582	-56.9569	-240.03265	-96.01306	-110.65912	-39.05616	4.06835	0
256	-83.80801	82.18067	153.78363	-7.32303	-112.28646	117.98215	-47.19286	-247.35568	-113.9138	-107.40444	-43.93818	-7.32303	0
257	-89.5037	85.43535	157.03831	-8.1367	-114.72747	122.0505	-34.98781	-252.2377	-128.55986	-113.9138	-51.26121	-16.2734	0
258	-86.24902	86.24902	158.66565	-8.95037	-115.54114	122.86417	-30.10579	-250.61036	-127.74619	-128.55986	-54.51589	-19.52808	1500	QRS+0
259	-78.11232	83.80801	152.96996	-8.1367	-111.47279	118.79582	-31.73313	-244.101	-116.35481	-135.88289	-51.26121	-17.08707	0
260	-69.97562	84.62168	150.52895	-10.57771	-108.21811	117.16848	-34.98781	-237.59164	-99.26774	-143.20592	-46.37919	-11.39138	0
261	-64.27993	90.31737	152.96996	-14.64606	-109.03178	120.42316	-39.86983	-228.64127	-72.41663	-148.08794	-41.49717	-3.25468	0
262	-61.02525	89.5037	150.52895	-15.45973	-107.40444	117.98215	-43.12451	-216.43622	-43.12451	-144.83326	-35.80148	5.69569	0
263	-60.21158	85.43535	147.27427	-13.01872	-104.96343	114.72747	-42.31084	-211.5542	-31.73313	-142.39225	-31.73313	11.39138	0
264	-59.39791	84.62168	145.64693	-13.01872	-103.33609	113.9138	-39.05616	-216.43622	-36.61515	-148.08794	-31.73313	9.76404	0
265	-61.83892	84.62168	143.20592	-13.83239	-101.70875	113.10013	-35.80148	-223.75925	-48.8202	-150.52895	-34.98781	4.06835	0
266	-71.60296	83.80801	143.20592	-13.83239	-101.70875	113.9138	-27.66478	-230.26861	-68.34828	-144.01959	-39.05616	-2.44101	0
267	-78.11232	87.87636	150.52895	-15.45973	-105.7771	119.60949	-17.08707	-235.15063	-89.5037	-145.64693	-44.75185	-6.50936	0
268	-79.73966	91.13104	157.03831	-14.64606	-111.47279	124.49151	-13.01872	-235.15063	-100.89508	-153.78363	-47.19286	-5.69569	0
269	-76.48498	91.13104	159.47932	-13.01872	-113.10013	125.30518	-14.64606	-230.26861	-104.14976	-155.41097	-45.56552	0	0
270	-72.41663	97.6404	165.17501	-16.2734	-117.16848	131.00087	-17.90074	-225.38659	-103.33609	-152.96996	-42.31084	7.32303	0
271	-68.34828	107.40444	175.75272	-21.96909	-122.0505	139.95124	-21.15542	-217.24989	-94.38572	-145.64693	-37.42882	17.90074	0
272	-64.27993	111.47279	177.38006	-24.4101	-122.86417	142.39225	-21.96909	-203.4175	-82.18067	-131.81454	-30.91946	30.91946	0
273	-61.83892	108.21811	171.68437	-23.59643	-118.79582	138.3239	-17.90074	-196.09447	-88.69003	-125.30518	-26.85111	39.86983	0
274	-61.83892	104.14976	167.61602	-21.15542	-116.35481	135.06922	-10.57771	-198.53548	-109.84545	-129.37353	-26.85111	40.6835	0
275	-66.72094	98.45407	162.734	-17.90074	-113.9138	130.1872	-4.88202	-203.4175	-135.06922	-131.81454	-29.29212	36.61515	0
276	-77.29865	91.94471	158.66565	-15.45973	-112.28646	125.30518	3.25468	-207.48585	-165.17501	-127.74619	-34.17414	30.10579	0
277	-83.80801	91.94471	160.29299	-14.64606	-113.9138	126.93252	13.83239	-209.92686	-192.83979	-131.81454	-39.86983	25.22377	0
278	-82.18067	93.57205	162.734	-14.64606	-115.54114	128.55986	17.08707	-209.11319	-207.48585	-142.39225	-44.75185	24.4101	0
279	-76.48498	92.75838	160.29299	-13.83239	-113.9138	126.93252	14.64606	-203.4175	-211.5542	-148.08794	-44.75185	27.66478	0
280	-69.16195	95.19939	161.10666	-16.2734	-113.9138	127.74619	12.20505	-197.72181	-209.11319	-148.90161	-41.49717	32.5468	0
281	-64.27993	101.70875	165.98868	-20.34175	-116.35481	132.62821	9.76404	-185.51676	-195.2808	-144.01959	-35.80148	42.31084	0
282	-58.58424	103.33609	164.36134	-22.78276	-113.9138	131.81454	8.95037	-167.61602	-175.75272	-133.44188	-27.66478	54.51589	0
283	-56.14323	98.45407	157.85198	-21.15542	-109.84545	126.11885	13.83239	-156.22464	-170.8707	-128.55986	-21.96909	61.02525	0
284	-58.58424	94.38572	154.5973	-17.90074	-108.21811	122.86417	20.34175	-155.41097	-179.82107	-135.88289	-21.96909	56.9569	0
285	-59.39791	88.69003	151.34262	-14.64606	-107.40444	119.60949	26.03744	-157.03831	-191.21245	-141.57858	-26.03744	48.00653	0
286	-56.14323	86.24902	148.90161	-13.83239	-105.7771	117.98215	35.80148	-157.03831	-205.85851	-141.57858	-32.5468	36.61515	0
287	-54.51589	88.69003	150.52895	-15.45973	-106.59077	120.42316	48.00653	-156.22464	-220.50457	-147.27427	-40.6835	26.85111	0
288	-55.32956	87.06269	148.90161	-14.64606	-104.96343	118.79582	52.88855	-151.34262	-223.75925	-157.03831	-44.75185	20.34175	0
289	-56.14323	82.18067	141.57858	-12.20505	-100.89508	112.28646	51.26121	-142.39225	-218.06356	-161.92033	-43.93818	17.90074	0
290	-55.32956	82.99434	140.76491	-13.01872	-100.08141	111.47279	47.19286	-134.25555	-206.67218	-163.54767	-42.31084	16.2734	0
291	-54.51589	87.87636	144.83326	-16.2734	-102.52242	114.72747	41.49717	-123.67784	-185.51676	-161.10666	-40.6835	15.45973	0
292	-54.51589	83.80801	140.76491	-14.64606	-100.89508	109.84545	39.05616	-108.21811	-160.29299	-153.78363	-36.61515	18.71441	0
293	-55.32956	75.67131	132.62821	-10.57771	-96.01306	101.70875	43.12451	-97.6404	-148.90161	-149.71528	-32.5468	17.90074	0
294	-55.32956	71.60296	127.74619	-8.1367	-92.75838	98.45407	48.8202	-94.38572	-152.15629	-154.5973	-33.36047	11.39138	0
295	-52.07488	68.34828	122.86417	-8.1367	-88.69003	95.19939	53.70222	-94.38572	-157.85198	-158.66565	-36.61515	1.62734	0
296	-47.19286	65.90727	118.79582	-8.95037	-85.43535	92.75838	61.83892	-91.13104	-167.61602	-157.85198	-40.6835	-8.1367	0
297	-43.93818	66.72094	117.98215	-10.57771	-84.62168	92.75838	70.78929	-87.87636	-179.0074	-161.92033	-46.37919	-17.08707	0
298	-44.75185	65.90727	116.35481	-9.76404	-82.99434	91.94471	73.2303	-81.367	-181.44841	-170.05703	-52.07488	-24.4101	0
299	-46.37919	60.21158	109.84545	-6.50936	-80.55333	85.43535	69.97562	-72.41663	-176.56639	-174.12538	-53.70222	-29.29212	0
300	-49.63387	56.14323	108.21811	-3.25468	-81.367	82.18067	66.72094	-63.46626	-168.42969	-174.93905	-53.70222	-31.73313	0
301	-52.07488	55.32956	110.65912	-1.62734	-84.62168	81.367	62.65259	-52.07488	-152.96996	-170.8707	-52.88855	-31.73313	0
302	-51.26121	49.63387	104.96343	0	-82.18067	74.85764	60.21158	-36.61515	-133.44188	-162.734	-50.44754	-27.66478	0
303	-47.19286	43.12451	93.57205	1.62734	-73.2303	66.72094	63.46626	-25.22377	-129.37353	-159.47932	-48.00653	-26.85111	0
304	-42.31084	40.6835	84.62168	0	-65.90727	61.02525	67.53461	-21.15542	-138.3239	-163.54767	-49.63387	-30.91946	0
305	-35.80148	36.61515	74.85764	0	-57.77057	55.32956	71.60296	-19.52808	-149.71528	-174.93905	-53.70222	-38.24249	0
306	-27.66478	33.36047	65.90727	-2.44101	-49.63387	49.63387	78.11232	-15.45973	-165.98868	-189.58511	-59.39791	-45.56552	0
307	-21.96909	33.36047	62.65259	-4.88202	-45.56552	48.00653	85.43535	-10.57771	-180.63474	-200.97649	-66.72094	-52.88855	0
308	-21.15542	30.10579	57.77057	-4.06835	-42.31084	43.93818	85.43535	-1.62734	-184.70309	-203.4175	-74.04397	-57.77057	0
309	-21.15542	21.96909	47.19286	0	-35.80148	34.98781	79.73966	8.95037	-179.82107	-197.72181	-78.11232	-59.39791	0
310	-20.34175	17.90074	40.6835	0.81367	-32.5468	28.47845	74.04397	20.34175	-169.24336	-189.58511	-79.73966	-56.9569	0
311	-21.15542	14.64606	39.86983	3.25468	-34.17414	25.22377	68.34828	35.80148	-148.90161	-179.0074	-79.73966	-50.44754	0
312	-22.78276	4.88202	31.73313	8.95037	-31.73313	15.45973	65.0936	54.51589	-122.86417	-166.80235	-76.48498	-39.86983	0
313	-21.15542	-4.88202	19.52808	13.01872	-23.59643	4.06835	66.72094	69.16195	-108.21811	-161.10666	-74.04397	-32.5468	0
314	-17.90074	-9.76404	8.95037	13.83239	-16.2734	-1.62734	69.97562	76.48498	-104.14976	-164.36134	-74.85764	-30.91946	0
315	-12.20505	-15.45973	0	13.83239	-7.32303	-8.1367	70.78929	80.55333	-101.70875	-174.93905	-77.29865	-32.5468	0
316	-6.50936	-22.78276	-10.57771	14.64606	0	-16.2734	73.2303	83.80801	-104.14976	-187.95777	-82.18067	-36.61515	0
317	-4.06835	-26.85111	-16.2734	15.45973	2.44101	-21.15542	76.48498	87.06269	-104.96343	-198.53548	-87.87636	-40.6835	0
318	-4.06835	-31.73313	-22.78276	17.08707	6.50936	-26.85111	74.04397	92.75838	-96.82673	-200.16282	-93.57205	-43.12451	0
319	-3.25468	-40.6835	-34.17414	21.15542	13.83239	-37.42882	65.0936	101.70875	-81.367	-192.02612	-95.19939	-43.12451	0
320	-2.44101	-46.37919	-41.49717	23.59643	17.08707	-44.75185	56.9569	110.65912	-61.83892	-181.44841	-95.19939	-39.86983	0
321	-0.81367	-48.00653	-42.31084	24.4101	16.2734	-47.19286	48.8202	122.86417	-33.36047	-168.42969	-93.57205	-33.36047	0
322	4.88202	-52.07488	-52.07488	23.59643	23.59643	-54.51589	42.31084	139.13757	-1.62734	-152.15629	-89.5037	-21.96909	0
323	14.64606	-56.14323	-66.72094	20.34175	36.61515	-63.46626	41.49717	151.34262	16.2734	-143.20592	-86.24902	-14.64606	0
324	24.4101	-56.9569	-78.92599	16.2734	48.8202	-69.16195	41.49717	154.5973	21.15542	-144.83326	-87.06269	-13.01872	0
325	30.10579	-61.83892	-88.69003	15.45973	56.9569	-75.67131	39.86983	154.5973	21.96909	-154.5973	-90.31737	-15.45973	0
326	32.5468	-69.16195	-97.6404	17.90074	62.65259	-83.80801	40.6835	153.78363	16.2734	-169.24336	-96.82673	-21.15542	0
327	32.5468	-74.04397	-100.89508	20.34175	63.46626	-87.06269	43.93818	152.15629	9.76404	-182.26208	-106.59077	-29.29212	0
328	30.91946	-78.11232	-104.14976	23.59643	65.0936	-91.13104	40.6835	155.41097	13.01872	-187.1441	-115.54114	-36.61515	0
329	30.10579	-85.43535	-113.10013	26.85111	69.97562	-99.26774	32.5468	162.734	22.78276	-183.88942	-119.60949	-40.6835	0
330	30.91946	-88.69003	-117.16848	28.47845	71.60296	-103.33609	22.78276	170.05703	34.17414	-177.38006	-122.86417	-44.75185	0
331	32.5468	-88.69003	-115.54114	28.47845	69.16195	-104.96343	13.01872	180.63474	56.14323	-165.98868	-122.86417	-43.93818	0
332	34.17414	-96.01306	-123.67784	30.91946	74.04397	-113.10013	8.1367	198.53548	85.43535	-146.4606	-117.16848	-36.61515	0
333	36.61515	-105.7771	-137.51023	34.17414	82.99434	-124.49151	8.95037	213.99521	104.14976	-129.37353	-109.03178	-28.47845	0
334	38.24249	-111.47279	-146.4606	36.61515	89.5037	-131.00087	13.83239	221.31824	112.28646	-120.42316	-103.33609	-25.22377	0
335	41.49717	-116.35481	-155.41097	36.61515	96.82673	-136.69656	18.71441	225.38659	117.16848	-117.98215	-98.45407	-24.4101	0
336	48.8202	-118.79582	-163.54767	34.17414	103.33609	-140.76491	26.85111	226.20026	114.72747	-121.23683	-96.82673	-27.66478	0
337	52.88855	-119.60949	-166.80235	33.36047	107.40444	-143.20592	35.80148	224.57292	109.84545	-125.30518	-97.6404	-33.36047	0
338	50.44754	-126.11885	-172.49804	36.61515	109.84545	-148.90161	37.42882	225.38659	113.10013	-122.0505	-96.82673	-38.24249	-1500	QRS-0
339	45.56552	-135.88289	-178.19373	44.75185	110.65912	-157.03831	33.36047	230.26861	122.0505	-109.84545	-93.57205	-39.86983	0
340	39.05616	-138.3239	-174.12538	48.8202	104.14976	-157.03831	27.66478	233.52329	134.25555	-96.01306	-90.31737	-40.6835	0
341	35.80148	-134.25555	-163.54767	48.8202	95.19939	-152.15629	21.15542	238.40531	153.78363	-81.367	-86.24902	-39.05616	0
342	39.86983	-133.44188	-165.17501	47.19286	96.82673	-153.78363	15.45973	246.54201	178.19373	-62.65259	-79.73966	-34.17414	0
343	46.37919	-133.44188	-173.31171	43.12451	105.7771	-157.03831	14.64606	248.98302	190.39878	-49.63387	-74.85764	-31.73313	0
344	51.26121	-131.00087	-179.82107	39.05616	112.28646	-157.85198	15.45973	244.101	189.58511	-44.75185	-72.41663	-33.36047	0
345	54.51589	-131.81454	-183.88942	37.42882	117.16848	-159.47932	17.08707	237.59164	185.51676	-46.37919	-69.97562	-37.42882	0
346	56.14323	-133.44188	-185.51676	37.42882	118.79582	-159.47932	21.96909	231.89595	175.75272	-52.07488	-69.97562	-42.31084	0
347	56.14323	-128.55986	-179.82107	34.98781	115.54114	-153.78363	30.10579	226.20026	165.17501	-58.58424	-70.78929	-47.19286	0
348	54.51589	-123.67784	-174.12538	34.17414	112.28646	-148.08794	34.17414	224.57292	163.54767	-56.14323	-69.97562	-48.8202	0
349	49.63387	-125.30518	-172.49804	37.42882	109.84545	-148.90161	31.73313	225.38659	169.24336	-47.19286	-68.34828	-48.00653	0
350	41.49717	-126.93252	-165.17501	42.31084	100.89508	-147.27427	27.66478	225.38659	174.12538	-37.42882	-65.90727	-47.19286	0
351	34.17414	-126.93252	-152.96996	46.37919	88.69003	-143.20592	22.78276	225.38659	185.51676	-25.22377	-61.83892	-44.75185	0
352	30.91946	-129.37353	-151.34262	49.63387	84.62168	-144.83326	18.71441	228.64127	199.34915	-8.95037	-56.14323	-37.42882	0
353	33.36047	-130.1872	-156.22464	48.00653	90.31737	-147.27427	18.71441	225.38659	200.97649	0.81367	-50.44754	-33.36047	0
354	39.05616	-124.49151	-159.47932	42.31084	96.01306	-144.01959	21.96909	215.62255	189.58511	4.06835	-47.19286	-31.73313	0
355	42.31084	-120.42316	-160.29299	38.24249	99.26774	-141.57858	25.22377	205.04484	175.75272	1.62734	-43.93818	-31.73313	0
356	42.31084	-118.79582	-157.03831	37.42882	97.6404	-137.51023	32.5468	195.2808	155.41097	-5.69569	-42.31084	-31.73313	0
357	39.05616	-113.9138	-148.90161	36.61515	91.94471	-131.00087	43.12451	184.70309	133.44188	-13.83239	-43.12451	-34.17414	0
358	34.17414	-113.10013	-144.01959	38.24249	87.87636	-128.55986	48.8202	178.19373	120.42316	-15.45973	-41.49717	-34.17414	0
359	27.66478	-117.98215	-143.20592	43.93818	83.80801	-130.1872	50.44754	176.56639	114.72747	-9.76404	-38.24249	-32.5468	0
360	20.34175	-117.16848	-135.06922	48.00653	75.67131	-126.93252	50.44754	174.12538	113.10013	-4.06835	-35.80148	-30.10579	0
361	17.90074	-112.28646	-122.0505	47.19286	65.0936	-120.42316	48.00653	173.31171	122.0505	2.44101	-34.17414	-27.66478	0
362	17.90074	-109.84545	-117.98215	46.37919	61.02525	-118.79582	46.37919	175.75272	139.13757	13.01872	-30.10579	-22.78276	0
363	16.2734	-108.21811	-117.98215	45.56552	61.83892	-117.16848	49.63387	174.93905	148.08794	21.15542	-25.22377	-18.71441	0
364	14.64606	-103.33609	-114.72747	43.93818	61.02525	-111.47279	55.32956	167.61602	147.27427	21.15542	-22.78276	-17.90074	0
365	13.83239	-100.89508	-112.28646	42.31084	61.02525	-107.40444	60.21158	160.29299	145.64693	17.08707	-21.15542	-17.08707	0
366	13.83239	-100.08141	-110.65912	41.49717	60.21158	-105.7771	68.34828	152.15629	139.13757	7.32303	-20.34175	-17.90074	0
367	13.01872	-96.01306	-104.14976	39.86983	56.9569	-99.26774	77.29865	144.01959	130.1872	-3.25468	-22.78276	-21.15542	0
368	10.57771	-91.13104	-98.45407	39.86983	52.88855	-94.38572	81.367	138.3239	130.1872	-8.95037	-24.4101	-25.22377	0
369	8.95037	-91.13104	-98.45407	40.6835	52.07488	-94.38572	78.92599	137.51023	135.88289	-6.50936	-23.59643	-25.22377	0
370	9.76404	-99.26774	-92.75838	42.31084	48.8202	-91.13104	75.67131	137.51023	143.20592	-2.44101	-21.15542	-23.59643	0
371	9.76404	-117.98215	-79.73966	49.63387	39.05616	-82.99434	71.60296	139.95124	157.85198	5.69569	-17.90074	-18.71441	0
372	5.69569	-131.00087	-74.85764	56.9569	33.36047	-82.18067	66.72094	144.83326	176.56639	17.90074	-13.01872	-11.39138	0
373	1.62734	-126.93252	-77.29865	56.9569	34.17414	-84.62168	65.0936	144.83326	183.88942	26.85111	-8.95037	-6.50936	0
374	0.81367	-109.84545	-78.11232	50.44754	36.61515	-82.99434	65.90727	139.13757	180.63474	26.85111	-8.1367	-4.88202	0
375	1.62734	-96.01306	-80.55333	43.93818	39.05616	-82.18067	68.34828	132.62821	174.93905	23.59643	-6.50936	-4.06835	0
376	0.81367	-91.13104	-82.99434	43.12451	40.6835	-84.62168	74.04397	126.93252	162.734	16.2734	-5.69569	-5.69569	0
377	-2.44101	-87.06269	-79.73966	43.93818	36.61515	-82.99434	82.18067	120.42316	148.08794	6.50936	-8.1367	-10.57771	0
378	-6.50936	-81.367	-73.2303	43.12451	32.5468	-78.11232	85.43535	115.54114	141.57858	3.25468	-9.76404	-14.64606	0
379	-6.50936	-78.92599	-72.41663	42.31084	31.73313	-76.48498	84.62168	116.35481	141.57858	7.32303	-8.95037	-14.64606	0
380	-5.69569	-87.87636	-65.90727	39.86983	27.66478	-87.87636	81.367	117.98215	142.39225	13.83239	-8.1367	-13.01872	0
381	-6.50936	-110.65912	-53.70222	38.24249	17.08707	-114.72747	77.29865	120.42316	151.34262	21.15542	-7.32303	-10.57771	0
382	-8.95037	-126.93252	-49.63387	40.6835	13.01872	-131.00087	73.2303	126.11885	165.98868	33.36047	-4.06835	-5.69569	0
383	-10.57771	-121.23683	-54.51589	43.12451	15.45973	-123.67784	73.2303	127.74619	170.8707	40.6835	-0.81367	-1.62734	0
384	-11.39138	-104.14976	-56.9569	42.31084	18.71441	-103.33609	75.67131	122.86417	167.61602	41.49717	0	-1.62734	0
385	-10.57771	-87.87636	-58.58424	49.63387	21.96909	-84.62168	77.29865	117.98215	162.734	35.80148	0.81367	-3.25468	0
386	-8.95037	-74.85764	-57.77057	66.72094	22.78276	-69.97562	82.18067	113.9138	153.78363	25.22377	0	-5.69569	0
387	-8.1367	-64.27993	-52.88855	73.2303	21.15542	-57.77057	88.69003	109.03178	142.39225	12.20505	-2.44101	-11.39138	0
388	-8.95037	-61.83892	-52.07488	67.53461	19.52808	-54.51589	90.31737	106.59077	139.13757	4.88202	-4.06835	-14.64606	0
389	-12.20505	-65.0936	-53.70222	59.39791	18.71441	-56.9569	87.87636	107.40444	142.39225	4.88202	-3.25468	-13.83239	0
390	-15.45973	-78.92599	-65.90727	49.63387	12.20505	-71.60296	83.80801	109.03178	147.27427	5.69569	-3.25468	-11.39138	0
391	-17.08707	-107.40444	-94.38572	41.49717	0	-104.14976	77.29865	111.47279	159.47932	10.57771	-1.62734	-5.69569	0
392	-16.2734	-123.67784	-112.28646	37.42882	-1.62734	-122.86417	71.60296	116.35481	176.56639	20.34175	0.81367	0.81367	0
393	-13.83239	-113.10013	-103.33609	34.17414	3.25468	-113.10013	69.16195	117.16848	183.88942	27.66478	4.06835	7.32303	0
394	-9.76404	-90.31737	-83.80801	30.10579	9.76404	-90.31737	69.16195	111.47279	180.63474	28.47845	5.69569	10.57771	0
395	-4.88202	-72.41663	-68.34828	35.80148	17.90074	-71.60296	68.34828	104.96343	175.75272	24.4101	7.32303	12.20505	0
396	0	-58.58424	-56.14323	50.44754	21.96909	-57.77057	70.78929	97.6404	165.17501	17.08707	8.1367	13.01872	0
397	-0.81367	-47.19286	-41.49717	57.77057	18.71441	-43.93818	78.11232	91.13104	153.78363	8.95037	8.95037	13.01872	0
398	-8.1367	-43.93818	-31.73313	56.14323	12.20505	-37.42882	82.18067	88.69003	152.15629	7.32303	11.39138	16.2734	0
399	-14.64606	-48.8202	-30.91946	51.26121	8.95037	-39.05616	82.99434	91.13104	156.22464	10.57771	15.45973	21.15542	0
400	-16.2734	-67.53461	-48.8202	43.12451	16.2734	-59.39791	79.73966	91.94471	158.66565	13.01872	15.45973	24.4101	0
401	-14.64606	-104.96343	-88.69003	34.98781	35.80148	-100.89508	72.41663	92.75838	165.98868	15.45973	13.01872	26.85111	0
402	-13.01872	-126.11885	-112.28646	30.91946	48.8202	-125.30518	64.27993	94.38572	177.38006	22.78276	13.01872	30.10579	0
403	-12.20505	-114.72747	-103.33609	29.29212	44.75185	-113.9138	59.39791	91.94471	180.63474	27.66478	12.20505	31.73313	0
404	-11.39138	-88.69003	-78.11232	26.03744	32.5468	-86.24902	57.77057	86.24902	174.93905	27.66478	12.20505	30.91946	0
405	-11.39138	-65.0936	-54.51589	30.91946	21.15542	-61.02525	57.77057	81.367	170.05703	26.03744	21.96909	31.73313	0
406	-11.39138	-50.44754	-37.42882	43.12451	12.20505	-43.93818	61.83892	78.11232	161.10666	21.96909	39.86983	31.73313	0
407	-12.20505	-39.86983	-24.4101	49.63387	4.88202	-31.73313	68.34828	71.60296	148.08794	13.83239	48.00653	29.29212	0
408	-16.2734	-38.24249	-17.90074	48.8202	0	-27.66478	69.97562	65.90727	142.39225	10.57771	43.93818	28.47845	0
409	-18.71441	-40.6835	-18.71441	43.93818	0	-29.29212	67.53461	65.0936	142.39225	10.57771	36.61515	30.91946	0
410	-19.52808	-38.24249	-39.05616	37.42882	8.95037	-51.26121	62.65259	65.90727	142.39225	11.39138	28.47845	34.17414	0
411	-19.52808	-35.80148	-83.80801	31.73313	32.5468	-97.6404	55.32956	67.53461	148.90161	13.83239	22.78276	38.24249	0
412	-19.52808	-39.05616	-110.65912	30.91946	46.37919	-125.30518	47.19286	71.60296	161.10666	21.15542	20.34175	43.12451	0
413	-17.90074	-41.49717	-100.89508	29.29212	42.31084	-113.10013	42.31084	70.78929	164.36134	25.22377	20.34175	45.56552	0
414	-16.2734	-39.05616	-73.2303	26.03744	29.29212	-82.99434	39.86983	65.0936	158.66565	24.4101	19.52808	45.56552	0
415	-13.83239	-36.61515	-48.8202	22.78276	17.90074	-57.77057	36.61515	57.77057	152.15629	20.34175	26.85111	43.93818	0
416	-12.20505	-36.61515	-30.91946	21.96909	8.95037	-43.93818	36.61515	49.63387	140.76491	12.20505	41.49717	40.6835	0
417	-13.01872	-34.98781	-17.90074	21.96909	0.81367	-32.5468	40.6835	42.31084	127.74619	3.25468	48.00653	36.61515	0
418	-14.64606	-34.17414	-12.20505	22.78276	-1.62734	-26.85111	43.12451	36.61515	123.67784	0	43.93818	34.17414	0
419	-14.64606	-37.42882	-15.45973	25.22377	0	-27.66478	42.31084	36.61515	126.11885	0.81367	37.42882	34.98781	0
420	-12.20505	-36.61515	-43.93818	24.4101	14.64606	-27.66478	40.6835	35.80148	126.11885	3.25468	29.29212	35.80148	0
421	-8.95037	-31.73313	-96.82673	21.15542	43.12451	-24.4101	34.98781	35.80148	131.81454	7.32303	24.4101	37.42882	0
422	-4.06835	-30.91946	-127.74619	19.52808	61.02525	-26.85111	29.29212	37.42882	143.20592	18.71441	23.59643	40.6835	0
423	-1.62734	-31.73313	-115.54114	17.08707	57.77057	-30.10579	28.47845	37.42882	148.08794	30.91946	27.66478	44.75185	0
424	-0.81367	-29.29212	-85.43535	14.64606	43.12451	-29.29212	28.47845	33.36047	144.01959	35.80148	30.10579	46.37919	0
425	-0.81367	-29.29212	-55.32956	13.83239	29.29212	-29.29212	26.85111	29.29212	138.3239	35.80148	38.24249	47.19286	0
426	-1.62734	-29.29212	-27.66478	13.83239	17.08707	-27.66478	27.66478	25.22377	126.93252	29.29212	50.44754	45.56552	0
427	-4.06835	-26.03744	-7.32303	13.01872	5.69569	-21.96909	32.5468	19.52808	113.9138	19.52808	54.51589	40.6835	0
428	-6.50936	-26.03744	-1.62734	14.64606	0.81367	-20.34175	34.98781	16.2734	109.03178	13.83239	50.44754	37.42882	0
429	-8.95037	-29.29212	-6.50936	17.90074	0.81367	-22.78276	34.98781	17.08707	109.84545	13.01872	44.75185	38.24249	0
430	-10.57771	-28.47845	-35.80148	18.71441	13.01872	-21.15542	33.36047	18.71441	109.03178	11.39138	37.42882	39.05616	0
431	-13.01872	-25.22377	-92.75838	20.34175	40.6835	-17.08707	27.66478	20.34175	113.9138	12.20505	31.73313	40.6835	0
432	-14.64606	-26.85111	-124.49151	22.78276	55.32956	-17.90074	20.34175	23.59643	125.30518	19.52808	30.91946	44.75185	0
433	-16.2734	-29.29212	-109.03178	23.59643	47.19286	-20.34175	17.90074	23.59643	130.1872	25.22377	30.91946	48.00653	0
434	-17.08707	-30.10579	-76.48498	22.78276	30.91946	-21.96909	16.2734	18.71441	126.11885	24.4101	30.91946	49.63387	0
435	-14.64606	-30.91946	-48.8202	21.15542	17.90074	-23.59643	13.01872	12.20505	120.42316	19.52808	31.73313	49.63387	0
436	-7.32303	-28.47845	-30.10579	15.45973	11.39138	-23.59643	12.20505	6.50936	110.65912	10.57771	31.73313	47.19286	0
437	-0.81367	-23.59643	-18.71441	9.76404	8.1367	-21.15542	15.45973	0	98.45407	0	30.10579	43.12451	0
438	0	-23.59643	-15.45973	9.76404	6.50936	-21.96909	17.08707	-3.25468	96.82673	-6.50936	29.29212	40.6835	0
439	-2.44101	-29.29212	-17.90074	14.64606	6.50936	-26.03744	17.08707	-0.81367	101.70875	-7.32303	28.47845	40.6835	0
440	-8.95037	-30.91946	-47.19286	19.52808	18.71441	-25.22377	18.71441	3.25468	106.59077	-5.69569	27.66478	42.31084	0
441	-15.45973	-28.47845	-105.7771	22.78276	45.56552	-18.71441	17.90074	8.95037	118.79582	-0.81367	27.66478	44.75185	0
442	-19.52808	-29.29212	-136.69656	26.03744	60.21158	-17.90074	15.45973	16.2734	135.88289	8.95037	30.91946	48.8202	0
443	-20.34175	-30.91946	-118.79582	26.85111	50.44754	-20.34175	16.2734	18.71441	144.83326	17.90074	33.36047	52.07488	0
444	-18.71441	-30.10579	-82.99434	24.4101	33.36047	-20.34175	16.2734	16.2734	146.4606	21.15542	34.98781	53.70222	0
445	-15.45973	-30.10579	-52.07488	21.15542	12.20505	-22.78276	13.83239	13.01872	147.27427	21.15542	35.80148	55.32956	0
446	-9.76404	-29.29212	-30.91946	17.08707	-9.76404	-23.59643	13.83239	9.76404	143.20592	17.08707	36.61515	55.32956	0
447	-4.88202	-22.78276	-14.64606	11.39138	-22.78276	-18.71441	16.2734	4.06835	136.69656	8.95037	37.42882	52.88855	0
448	-3.25468	-17.90074	-5.69569	8.95037	-22.78276	-14.64606	18.71441	0	137.51023	4.06835	37.42882	52.88855	0
449	-4.88202	-18.71441	-4.88202	10.57771	-15.45973	-14.64606	17.90074	0	141.57858	3.25468	38.24249	56.9569	0
450	-7.32303	-19.52808	-0.81367	13.01872	5.69569	-13.83239	15.45973	0	142.39225	0.81367	36.61515	59.39791	0
451	-9.76404	-17.90074	7.32303	15.45973	43.12451	-12.20505	8.95037	0	145.64693	0.81367	32.5468	61.02525	0
452	-10.57771	-21.96909	6.50936	17.90074	63.46626	-14.64606	0	0.81367	154.5973	6.50936	30.91946	61.83892	0
453	-12.20505	-26.03744	-0.81367	20.34175	56.14323	-19.52808	-2.44101	0.81367	159.47932	13.01872	30.10579	62.65259	0
454	-12.20505	-26.03744	-7.32303	18.71441	39.05616	-20.34175	-3.25468	-0.81367	158.66565	16.2734	29.29212	61.83892	0
455	-8.95037	-26.85111	-15.45973	16.2734	16.2734	-22.78276	-4.88202	-2.44101	158.66565	17.90074	30.10579	61.83892	0
456	-4.88202	-27.66478	-21.15542	13.83239	-8.95037	-24.4101	-3.25468	-4.88202	153.78363	15.45973	30.91946	61.02525	0
457	-0.81367	-22.78276	-21.15542	9.76404	-23.59643	-21.15542	0.81367	-9.76404	145.64693	7.32303	30.10579	57.77057	0
458	2.44101	-16.2734	-17.08707	4.88202	-21.15542	-16.2734	3.25468	-14.64606	144.83326	0	26.85111	56.14323	0
459	4.06835	-12.20505	-16.2734	2.44101	-11.39138	-13.83239	2.44101	-14.64606	146.4606	-4.88202	23.59643	58.58424	0
460	1.62734	-10.57771	-8.1367	4.06835	12.20505	-10.57771	0	-13.01872	144.83326	-9.76404	18.71441	61.02525	0
461	-5.69569	-13.01872	4.88202	10.57771	51.26121	-8.95037	-4.88202	-11.39138	146.4606	-10.57771	16.2734	64.27993	0
462	-14.64606	-22.78276	8.1367	20.34175	69.97562	-13.83239	-11.39138	-8.1367	154.5973	-3.25468	17.08707	69.16195	0
463	-21.96909	-30.91946	3.25468	26.85111	57.77057	-19.52808	-12.20505	-6.50936	158.66565	5.69569	19.52808	73.2303	0
464	-22.78276	-30.91946	-0.81367	26.03744	35.80148	-19.52808	-9.76404	-8.1367	157.85198	11.39138	21.96909	76.48498	0
465	-17.90074	-27.66478	-6.50936	21.15542	18.71441	-18.71441	-7.32303	-8.1367	158.66565	17.08707	26.03744	81.367	0
466	-11.39138	-25.22377	-13.01872	16.2734	9.76404	-19.52808	-4.06835	-9.76404	154.5973	17.08707	30.91946	83.80801	0
467	-7.32303	-21.96909	-13.83239	12.20505	3.25468	-17.08707	0	-14.64606	145.64693	10.57771	32.5468	80.55333	0
468	-7.32303	-20.34175	-12.20505	12.20505	-1.62734	-15.45973	1.62734	-20.34175	144.01959	3.25468	30.91946	77.29865	0
469	-9.76404	-22.78276	-12.20505	15.45973	-3.25468	-17.08707	0.81367	-21.15542	145.64693	-0.81367	29.29212	76.48498	0
470	-12.20505	-22.78276	-6.50936	17.08707	13.83239	-15.45973	0	-20.34175	144.01959	-5.69569	26.03744	76.48498	0
471	-13.01872	-21.15542	4.88202	17.90074	53.70222	-12.20505	-5.69569	-20.34175	148.08794	-7.32303	22.78276	75.67131	0
472	-11.39138	-22.78276	5.69569	18.71441	77.29865	-14.64606	-13.01872	-17.08707	158.66565	0	21.96909	75.67131	0
473	-7.32303	-22.78276	-2.44101	15.45973	69.97562	-18.71441	-12.20505	-13.83239	166.80235	8.1367	22.78276	76.48498	0
474	-1.62734	-18.71441	-9.76404	8.95037	52.07488	-17.90074	-9.76404	-13.83239	170.05703	13.83239	23.59643	77.29865	0
475	1.62734	-15.45973	-14.64606	4.88202	33.36047	-17.08707	-8.95037	-13.01872	172.49804	17.08707	26.03744	78.92599	0
476	1.62734	-16.2734	-17.08707	4.88202	17.90074	-17.08707	-7.32303	-13.83239	169.24336	15.45973	28.47845	78.92599	0
477	-1.62734	-16.2734	-12.20505	6.50936	4.88202	-13.83239	-2.44101	-19.52808	160.29299	5.69569	27.66478	74.04397	0
478	-7.32303	-17.08707	-8.1367	10.57771	-3.25468	-12.20505	0	-24.4101	157.03831	-2.44101	26.03744	69.97562	0
479	-11.39138	-21.96909	-8.95037	15.45973	-5.69569	-15.45973	0	-22.78276	158.66565	-8.1367	24.4101	69.16195	0
480	-14.64606	-23.59643	-4.06835	18.71441	-10.57771	-15.45973	0	-20.34175	157.03831	-13.01872	21.15542	69.16195	0
481	-15.45973	-21.15542	7.32303	19.52808	-19.52808	-12.20505	-4.06835	-17.90074	161.10666	-15.45973	15.45973	69.16195	0
482	-13.83239	-22.78276	7.32303	19.52808	-19.52808	-14.64606	-10.57771	-14.64606	171.68437	-10.57771	12.20505	69.16195	0
483	-11.39138	-26.03744	-1.62734	18.71441	-10.57771	-19.52808	-11.39138	-14.64606	177.38006	-4.06835	10.57771	69.97562	0
484	-9.76404	-26.03744	-9.76404	17.08707	-3.25468	-21.96909	-10.57771	-18.71441	176.56639	-1.62734	9.76404	69.16195	0
485	-10.57771	-27.66478	-14.64606	17.08707	0.81367	-22.78276	-13.83239	-21.96909	175.75272	0	11.39138	69.16195	0
486	-9.76404	-28.47845	-17.08707	16.2734	4.06835	-22.78276	-13.83239	-24.4101	170.8707	-0.81367	13.83239	68.34828	0
487	-5.69569	-22.78276	-15.45973	11.39138	5.69569	-18.71441	-12.20505	-29.29212	161.92033	-6.50936	13.83239	64.27993	0
488	-0.81367	-17.08707	-14.64606	6.50936	7.32303	-15.45973	-11.39138	-33.36047	161.92033	-12.20505	9.76404	61.02525	0
489	0.81367	-17.08707	-18.71441	6.50936	9.76404	-17.08707	-12.20505	-30.91946	165.98868	-15.45973	4.06835	60.21158	0
490	0.81367	-18.71441	-15.45973	8.1367	30.91946	-17.90074	-12.20505	-26.03744	168.42969	-17.08707	-0.81367	61.02525	0
491	-0.81367	-17.90074	-3.25468	10.57771	73.2303	-15.45973	-16.2734	-20.34175	175.75272	-13.83239	-4.88202	63.46626	0
492	-3.25468	-18.71441	0.81367	12.20505	94.38572	-15.45973	-21.15542	-14.64606	189.58511	-2.44101	-4.88202	68.34828	0
493	-4.88202	-17.08707	0.81367	11.39138	78.11232	-13.83239	-18.71441	-14.64606	197.72181	7.32303	-5.69569	73.2303	0
494	-4.88202	-7.32303	4.06835	5.69569	48.00653	-4.88202	-13.83239	-18.71441	198.53548	12.20505	-7.32303	75.67131	0
495	-1.62734	4.06835	8.1367	-2.44101	21.96909	4.06835	-13.01872	-22.78276	200.97649	14.64606	-7.32303	78.11232	0
496	4.06835	17.08707	13.01872	-13.01872	4.88202	14.64606	-9.76404	-26.03744	198.53548	14.64606	-4.88202	79.73966	0
497	12.20505	34.98781	23.59643	-26.03744	-6.50936	30.10579	-3.25468	-30.91946	196.09447	13.01872	0	81.367	0
498	19.52808	54.51589	34.98781	-39.05616	-12.20505	45.56552	2.44101	-29.29212	204.23117	15.45973	5.69569	87.87636	0
499	25.22377	69.97562	44.75185	-48.8202	-14.64606	57.77057	7.32303	-17.90074	218.87723	23.59643	14.64606	98.45407	0
500	28.47845	86.24902	61.83892	-57.77057	-22.78276	72.41663	13.83239	-2.44101	231.89595	30.91946	21.15542	105.7771	0
501	30.91946	101.70875	83.80801	-65.90727	-34.98781	87.87636	14.64606	9.76404	248.16935	39.86983	25.22377	107.40444	0
502	31.73313	105.7771	91.13104	-68.34828	-38.24249	91.13104	10.57771	18.71441	265.25642	52.07488	28.47845	104.14976	0
503	30.10579	103.33609	85.43535	-66.72094	-33.36047	87.87636	15.45973	18.71441	270.95211	61.83892	29.29212	98.45407	0
504	29.29212	102.52242	78.92599	-66.72094	-27.66478	86.24902	18.71441	9.76404	266.07009	63.46626	26.85111	91.13104	0
505	32.5468	102.52242	72.41663	-69.16195	-20.34175	85.43535	15.45973	0	261.18807	62.65259	26.03744	85.43535	0
506	35.80148	101.70875	65.90727	-71.60296	-13.83239	83.80801	13.01872	-9.76404	250.61036	57.77057	26.85111	79.73966	0
507	36.61515	102.52242	65.90727	-71.60296	-13.83239	84.62168	12.20505	-21.96909	236.77797	46.37919	25.22377	69.97562	0
508	34.17414	99.26774	65.0936	-68.34828	-14.64606	82.99434	9.76404	-31.73313	231.08228	33.36047	20.34175	61.02525	0
509	31.73313	88.69003	57.77057	-61.02525	-13.01872	74.04397	5.69569	-34.17414	231.89595	24.4101	14.64606	56.9569	0
510	31.73313	79.73966	52.07488	-56.14323	-12.20505	64.27993	4.06835	-30.10579	231.08228	17.90074	8.1367	56.14323	0
511	35.80148	73.2303	49.63387	-53.70222	-12.20505	56.14323	-0.81367	-22.78276	239.21898	18.71441	5.69569	58.58424	0
512	41.49717	62.65259	37.42882	-51.26121	-4.88202	43.12451	-8.1367	-12.20505	256.30605	28.47845	6.50936	63.46626	0
513	45.56552	53.70222	20.34175	-49.63387	6.50936	30.91946	-7.32303	-6.50936	268.5111	39.86983	8.95037	69.16195	0
514	48.8202	50.44754	6.50936	-50.44754	17.90074	24.4101	-6.50936	-6.50936	272.57945	43.12451	8.95037	71.60296	0
515	52.88855	41.49717	-8.95037	-48.8202	30.10579	13.83239	-15.45973	-9.76404	274.20679	40.6835	7.32303	69.97562	0
516	55.32956	27.66478	-26.85111	-44.75185	41.49717	0	-24.4101	-16.2734	266.88376	32.5468	4.06835	62.65259	0
517	56.14323	19.52808	-35.80148	-40.6835	47.19286	-7.32303	-25.22377	-26.03744	257.11972	17.90074	0	51.26121	0
518	48.8202	14.64606	-33.36047	-33.36047	41.49717	-8.1367	-21.96909	-32.5468	258.74706	6.50936	-4.06835	41.49717	0
519	30.91946	5.69569	-24.4101	-19.52808	27.66478	-8.1367	-19.52808	-30.91946	266.88376	0.81367	-8.1367	37.42882	0
520	9.76404	-1.62734	-8.1367	-4.06835	7.32303	-6.50936	-17.08707	-28.47845	268.5111	-4.88202	-14.64606	33.36047	0
521	-4.06835	-8.1367	8.95037	6.50936	-12.20505	-4.06835	-22.78276	-27.66478	272.57945	-8.95037	-23.59643	28.47845	0
522	-10.57771	-15.45973	10.57771	13.83239	-17.90074	-8.95037	-30.10579	-26.03744	282.34349	-5.69569	-30.10579	22.78276	0
523	-11.39138	-20.34175	2.44101	16.2734	-12.20505	-14.64606	-24.4101	-26.85111	287.22551	-0.81367	-35.80148	17.90074	0
524	-13.01872	-21.15542	-1.62734	15.45973	-8.1367	-15.45973	-17.08707	-31.73313	283.97083	0	-42.31084	13.01872	0
525	-14.64606	-23.59643	-6.50936	17.08707	-4.88202	-17.08707	-17.08707	-36.61515	279.08881	-1.62734	-44.75185	8.1367	0
526	-15.45973	-27.66478	-12.20505	18.71441	-0.81367	-20.34175	-17.90074	-41.49717	268.5111	-6.50936	-45.56552	3.25468	0
527	-13.83239	-30.10579	-16.2734	19.52808	1.62734	-22.78276	-15.45973	-48.8202	252.2377	-17.90074	-47.19286	-4.06835	0
528	-10.57771	-33.36047	-21.96909	20.34175	5.69569	-27.66478	-15.45973	-55.32956	245.72834	-30.10579	-50.44754	-10.57771	0
529	-9.76404	-39.86983	-29.29212	23.59643	8.95037	-34.17414	-17.90074	-55.32956	244.91467	-37.42882	-54.51589	-11.39138	0
530	-13.83239	-40.6835	-21.96909	26.85111	1.62734	-32.5468	-17.90074	-51.26121	243.28733	-43.12451	-59.39791	-7.32303	0
531	-21.96909	-36.61515	-1.62734	30.10579	-15.45973	-24.4101	-21.96909	-45.56552	249.79669	-42.31084	-61.83892	-0.81367	0
532	-30.10579	-38.24249	7.32303	34.98781	-25.22377	-22.78276	-26.85111	-38.24249	265.25642	-32.5468	-60.21158	6.50936	0
533	-33.36047	-40.6835	4.06835	36.61515	-23.59643	-23.59643	-18.71441	-34.98781	275.02046	-21.96909	-56.9569	13.01872	0
534	-34.17414	-38.24249	1.62734	34.98781	-20.34175	-21.96909	-8.1367	-37.42882	277.46147	-16.2734	-53.70222	17.90074	0
535	-32.5468	-35.80148	-0.81367	32.5468	-16.2734	-20.34175	-8.95037	-40.6835	279.08881	-13.83239	-49.63387	20.34175	0
536	-30.10579	-34.98781	-4.88202	30.10579	-11.39138	-20.34175	-9.76404	-44.75185	276.6478	-16.2734	-44.75185	20.34175	0
537	-26.85111	-29.29212	-1.62734	26.03744	-11.39138	-15.45973	-6.50936	-51.26121	269.32477	-27.66478	-43.12451	15.45973	0
538	-26.03744	-24.4101	1.62734	23.59643	-13.83239	-10.57771	-4.06835	-56.14323	273.39312	-39.05616	-43.93818	11.39138	0
539	-27.66478	-26.03744	2.44101	26.03744	-15.45973	-11.39138	-4.88202	-54.51589	282.34349	-47.19286	-47.19286	11.39138	0
540	-30.91946	-28.47845	6.50936	29.29212	-20.34175	-12.20505	-5.69569	-50.44754	288.03918	-55.32956	-52.88855	13.01872	0
541	-31.73313	-29.29212	14.64606	31.73313	-28.47845	-12.20505	-13.83239	-46.37919	300.24423	-58.58424	-58.58424	15.45973	0
542	-31.73313	-34.98781	12.20505	33.36047	-28.47845	-17.90074	-22.78276	-41.49717	318.95864	-52.07488	-60.21158	18.71441	0
543	-30.10579	-37.42882	3.25468	33.36047	-21.96909	-22.78276	-14.64606	-39.86983	331.16369	-41.49717	-59.39791	22.78276	0
544	-27.66478	-34.17414	-0.81367	29.29212	-15.45973	-21.15542	-6.50936	-43.12451	335.23204	-34.98781	-57.77057	26.03744	0
545	-26.03744	-33.36047	-5.69569	27.66478	-10.57771	-21.96909	-10.57771	-47.19286	336.04571	-30.10579	-54.51589	29.29212	0
546	-24.4101	-35.80148	-11.39138	27.66478	-5.69569	-23.59643	-14.64606	-52.07488	327.09534	-30.10579	-51.26121	29.29212	0
547	-21.96909	-34.98781	-12.20505	26.03744	-4.06835	-22.78276	-13.01872	-60.21158	312.44928	-39.05616	-49.63387	25.22377	0
548	-18.71441	-32.5468	-12.20505	24.4101	-3.25468	-21.96909	-11.39138	-65.0936	305.93992	-46.37919	-48.8202	23.59643	0
549	-16.2734	-30.91946	-13.83239	22.78276	-1.62734	-21.96909	-11.39138	-62.65259	305.93992	-49.63387	-48.00653	28.47845	0
550	-14.64606	-27.66478	-8.95037	21.15542	-4.88202	-19.52808	-10.57771	-56.14323	304.31258	-49.63387	-48.8202	33.36047	0
551	-15.45973	-28.47845	-0.81367	21.96909	-11.39138	-19.52808	-16.2734	-48.8202	310.82194	-45.56552	-49.63387	35.80148	0
552	-17.08707	-35.80148	-3.25468	26.85111	-12.20505	-26.85111	-23.59643	-41.49717	327.09534	-32.5468	-48.8202	37.42882	0
553	-19.52808	-43.12451	-12.20505	30.91946	-7.32303	-33.36047	-13.83239	-39.05616	338.48672	-20.34175	-47.19286	36.61515	0
554	-18.71441	-43.12451	-17.90074	29.29212	-2.44101	-34.17414	-4.06835	-42.31084	343.36874	-13.83239	-46.37919	34.17414	0
555	-16.2734	-41.49717	-23.59643	26.85111	2.44101	-34.17414	-6.50936	-44.75185	351.50544	-10.57771	-43.12451	32.5468	0
556	-13.83239	-40.6835	-26.03744	25.22377	5.69569	-33.36047	-8.1367	-45.56552	355.57379	-12.20505	-37.42882	30.91946	0
557	-13.83239	-35.80148	-21.15542	23.59643	3.25468	-28.47845	-4.06835	-48.8202	355.57379	-22.78276	-34.17414	25.22377	0
558	-16.2734	-33.36047	-16.2734	23.59643	0	-24.4101	-1.62734	-50.44754	366.1515	-33.36047	-34.17414	21.96909	0
559	-19.52808	-35.80148	-14.64606	26.85111	-2.44101	-25.22377	-1.62734	-46.37919	380.79756	-39.05616	-34.98781	24.4101	0
560	-22.78276	-35.80148	-8.1367	29.29212	-8.95037	-23.59643	-2.44101	-39.86983	391.37527	-43.12451	-37.42882	27.66478	0
561	-24.4101	-33.36047	3.25468	29.29212	-18.71441	-19.52808	-11.39138	-34.98781	404.39399	-43.12451	-41.49717	30.91946	0
562	-24.4101	-37.42882	1.62734	30.91946	-18.71441	-24.4101	-18.71441	-27.66478	422.29473	-34.17414	-43.12451	32.5468	0
563	-20.34175	-45.56552	-14.64606	32.5468	-6.50936	-35.80148	-4.88202	-21.15542	430.43143	-24.4101	-44.75185	32.5468	0
564	-12.20505	-52.88855	-34.98781	30.91946	8.95037	-48.00653	11.39138	-13.01872	427.99042	-24.4101	-50.44754	27.66478	0
565	-5.69569	-67.53461	-60.21158	34.17414	26.85111	-65.90727	18.71441	1.62734	423.92207	-32.5468	-61.02525	19.52808	0
566	-0.81367	-90.31737	-89.5037	43.12451	44.75185	-90.31737	1.62734	29.29212	419.85372	-48.8202	-75.67131	3.25468	0
567	2.44101	-115.54114	-118.79582	54.51589	61.02525	-117.16848	-29.29212	74.04397	427.17675	-70.78929	-95.19939	-20.34175	0
568	4.88202	-146.4606	-150.52895	69.16195	77.29865	-148.08794	-11.39138	142.39225	459.72355	-82.18067	-112.28646	-41.49717	0
569	4.06835	-183.07575	-187.1441	88.69003	96.01306	-184.70309	68.34828	236.77797	515.86678	-69.97562	-119.60949	-52.88855	0
570	13.83239	-215.62255	-220.50457	102.52242	113.10013	-219.6909	172.49804	358.82847	599.67479	-31.73313	-116.35481	-56.9569	0
571	40.6835	-240.03265	-253.86504	106.59077	135.88289	-252.2377	314.07662	532.95385	629.78058	-52.07488	-96.82673	-52.88855	0
572	76.48498	-262.81541	-305.12625	103.33609	175.75272	-290.48019	519.93513	787.63256	614.32085	-188.77144	-48.8202	-36.61515	0
573	115.54114	-278.27514	-366.96517	88.69003	229.45494	-327.90901	751.83108	1117.16891	799.83761	-217.24989	32.5468	-5.69569	0
574	163.54767	-275.83413	-423.92207	58.58424	287.22551	-353.13278	943.04353	1468.67435	1230.26904	58.58424	148.08794	42.31084	0
575	226.20026	-256.30605	-476.81062	15.45973	348.25076	-368.59251	1059.39834	1778.68262	1742.06747	545.1589	296.98955	110.65912	0
576	283.97083	-219.6909	-521.56247	-43.12451	412.53069	-371.03352	1059.39834	2056.14409	2348.25162	1082.99477	474.36961	200.16282	0
577	329.53635	-155.41097	-546.78624	-118.79582	469.48759	-351.50544	923.51545	2324.65519	2907.24291	1598.04788	676.97344	308.38093	0
578	401.95298	-63.46626	-547.59991	-210.74053	515.86678	-305.12625	707.8929	2399.51283	3145.64822	2073.23116	900.73269	443.45015	0
579	507.73008	44.75185	-530.51284	-310.82194	552.48193	-242.47366	443.45015	2152.15715	3246.5433	2494.71222	1133.44231	598.86112	0
580	602.92947	159.47932	-545.1589	-402.76665	563.87331	-163.54767	140.76491	1755.08619	3388.12188	2817.73921	1340.92816	751.83108	0
581	644.42664	262.00174	-585.8424	-463.7919	525.63082	-69.97562	-135.06922	1340.92816	3343.37003	2980.47321	1480.8794	873.06791	0
582	633.84893	339.30039	-519.12146	-478.43796	435.31345	30.91946	-327.90901	916.19242	3011.39267	2932.46668	1520.74923	943.8572	0
583	585.02873	388.93426	-321.39965	-449.95951	305.12625	134.25555	-467.86025	484.94732	2588.28427	2649.30952	1442.63691	950.36656	0
584	473.55594	408.46234	-92.75838	-390.5616	160.29299	222.13191	-607.81149	46.37919	2139.13843	2145.64779	1248.16978	888.52764	0
585	314.07662	387.30692	92.75838	-309.1946	30.91946	273.39312	-741.25337	-371.03352	1602.11623	1497.96647	967.45363	770.54549	0
586	160.29299	336.04571	209.92686	-221.31824	-64.27993	283.97083	-863.30387	-710.33391	1151.34305	971.52198	659.0727	716.0296	0
587	40.6835	276.6478	267.69743	-145.64693	-126.11885	270.95211	-961.75794	-926.77013	918.63343	715.21593	384.86591	766.47714	0
588	-34.98781	221.31824	280.71615	-88.69003	-156.22464	244.91467	-973.14932	-1005.69612	723.35263	500.40705	181.44841	738.81236	0
589	-72.41663	174.93905	261.18807	-52.07488	-160.29299	211.5542	-886.08663	-969.89464	480.0653	227.01393	50.44754	584.21506	0
590	-81.367	142.39225	233.52329	-32.5468	-151.34262	182.26208	-748.5764	-868.99956	270.13844	-5.69569	-26.03744	411.71702	0
591	-76.48498	122.86417	210.74053	-25.22377	-141.57858	159.47932	-583.40139	-817.73835	131.00087	-164.36134	-65.0936	274.20679	0
592	-68.34828	106.59077	186.33043	-21.15542	-128.55986	139.13757	-445.89116	-854.3535	63.46626	-245.72834	-78.92599	186.33043	0
593	-63.46626	92.75838	163.54767	-16.2734	-114.72747	122.86417	-396.25729	-833.19808	34.17414	-275.83413	-82.18067	139.95124	0
594	-60.21158	83.80801	147.27427	-13.83239	-104.14976	112.28646	-365.33783	-711.14758	26.03744	-279.08881	-82.18067	117.98215	0
595	-57.77057	75.67131	134.25555	-10.57771	-96.01306	103.33609	-304.31258	-570.38267	34.17414	-268.5111	-81.367	109.03178	0
596	-57.77057	67.53461	125.30518	-6.50936	-91.94471	96.01306	-234.33696	-454.02786	42.31084	-257.11972	-81.367	102.52242	0
597	-59.39791	65.90727	125.30518	-4.06835	-92.75838	96.01306	-170.05703	-378.35655	44.75185	-254.67871	-82.18067	96.01306	0
598	-61.02525	64.27993	126.93252	-1.62734	-94.38572	96.01306	-126.11885	-333.6047	55.32956	-252.2377	-81.367	94.38572	0
599	-61.83892	61.02525	123.67784	0	-93.57205	92.75838	-101.70875	-305.93992	66.72094	-247.35568	-78.11232	100.89508	0
600	-62.65259	60.21158	126.93252	0.81367	-96.01306	91.94471	-89.5037	-290.48019	69.97562	-244.101	-77.29865	108.21811	0
601	-63.46626	61.83892	136.69656	0	-103.33609	94.38572	-96.01306	-282.34349	72.41663	-237.59164	-77.29865	115.54114	0
602	-65.90727	61.02525	139.95124	1.62734	-105.7771	94.38572	-102.52242	-275.83413	75.67131	-222.94558	-75.67131	121.23683	0
603	-68.34828	58.58424	136.69656	3.25468	-104.96343	91.94471	-82.18067	-273.39312	65.90727	-206.67218	-74.04397	124.49151	0
604	-69.97562	61.02525	135.06922	2.44101	-103.33609	94.38572	-60.21158	-274.20679	43.93818	-196.90814	-73.2303	124.49151	0
605	-69.16195	63.46626	134.25555	0	-100.89508	96.82673	-57.77057	-274.20679	18.71441	-189.58511	-70.78929	123.67784	0
606	-66.72094	66.72094	133.44188	-1.62734	-99.26774	99.26774	-55.32956	-271.76578	-13.83239	-185.51676	-65.90727	121.23683	0
607	-64.27993	74.04397	139.13757	-5.69569	-101.70875	106.59077	-47.19286	-272.57945	-52.07488	-190.39878	-64.27993	113.9138	0
608	-65.90727	80.55333	147.27427	-7.32303	-107.40444	114.72747	-43.93818	-273.39312	-80.55333	-197.72181	-65.90727	108.21811	0
609	-69.16195	81.367	152.15629	-5.69569	-111.47279	117.16848	-43.12451	-267.69743	-100.89508	-203.4175	-68.34828	106.59077	0
610	-71.60296	82.99434	158.66565	-5.69569	-117.16848	119.60949	-39.05616	-260.3744	-118.79582	-208.29952	-73.2303	107.40444	0
611	-72.41663	85.43535	168.42969	-6.50936	-123.67784	122.86417	-45.56552	-253.05137	-125.30518	-209.11319	-75.67131	109.84545	0
612	-73.2303	82.99434	169.24336	-4.88202	-124.49151	120.42316	-50.44754	-244.101	-118.79582	-200.97649	-74.85764	113.9138	0
613	-73.2303	79.73966	161.92033	-4.06835	-119.60949	115.54114	-25.22377	-240.84632	-114.72747	-191.21245	-72.41663	119.60949	0
614	-69.97562	82.18067	156.22464	-7.32303	-113.9138	115.54114	-3.25468	-244.101	-117.16848	-185.51676	-69.16195	123.67784	0
615	-69.16195	82.99434	152.96996	-8.95037	-110.65912	116.35481	-6.50936	-248.16935	-121.23683	-181.44841	-64.27993	126.93252	0
616	-71.60296	84.62168	155.41097	-8.1367	-113.10013	119.60949	-14.64606	-254.67871	-135.88289	-181.44841	-58.58424	127.74619	0
617	-73.2303	88.69003	162.734	-8.1367	-117.98215	126.11885	-19.52808	-264.44275	-158.66565	-189.58511	-56.14323	122.86417	0
618	-74.85764	88.69003	165.17501	-7.32303	-120.42316	127.74619	-28.47845	-270.95211	-176.56639	-195.2808	-54.51589	120.42316	0
619	-78.11232	82.18067	161.92033	-2.44101	-120.42316	122.86417	-40.6835	-270.13844	-191.21245	-196.09447	-53.70222	124.49151	0
620	-81.367	79.73966	165.17501	0	-124.49151	121.23683	-48.00653	-266.88376	-209.11319	-196.09447	-56.14323	129.37353	-1250	T-0
621	-82.99434	81.367	174.12538	0	-131.00087	123.67784	-64.27993	-263.62908	-219.6909	-192.83979	-61.02525	133.44188	0
622	-82.99434	79.73966	174.93905	0.81367	-131.81454	121.23683	-74.85764	-259.56073	-220.50457	-180.63474	-63.46626	139.13757	0
623	-79.73966	78.11232	166.80235	-0.81367	-125.30518	117.98215	-51.26121	-257.93339	-223.75925	-165.98868	-62.65259	145.64693	0
624	-74.04397	82.99434	160.29299	-6.50936	-117.98215	118.79582	-27.66478	-258.74706	-231.89595	-155.41097	-59.39791	152.96996	0
625	-68.34828	87.06269	156.22464	-11.39138	-112.28646	120.42316	-26.85111	-258.74706	-236.77797	-147.27427	-52.88855	161.92033	0
626	-65.0936	90.31737	156.22464	-13.83239	-110.65912	122.86417	-30.10579	-258.74706	-243.28733	-147.27427	-45.56552	167.61602	0
627	-63.46626	97.6404	161.10666	-17.90074	-112.28646	130.1872	-28.47845	-262.00174	-252.2377	-157.85198	-42.31084	168.42969	0
628	-61.02525	104.14976	165.98868	-21.15542	-113.9138	135.88289	-31.73313	-264.44275	-248.98302	-170.05703	-42.31084	170.05703	0
629	-61.83892	103.33609	166.80235	-20.34175	-115.54114	135.88289	-38.24249	-260.3744	-239.21898	-180.63474	-43.12451	174.93905	0
630	-67.53461	100.08141	171.68437	-16.2734	-121.23683	135.06922	-42.31084	-254.67871	-231.08228	-192.02612	-47.19286	180.63474	0
631	-73.2303	96.01306	179.0074	-11.39138	-128.55986	134.25555	-56.14323	-248.98302	-217.24989	-198.53548	-52.88855	184.70309	0
632	-76.48498	89.5037	177.38006	-6.50936	-129.37353	128.55986	-64.27993	-243.28733	-195.2808	-195.2808	-55.32956	189.58511	0
633	-75.67131	85.43535	169.24336	-5.69569	-123.67784	122.86417	-36.61515	-240.84632	-178.19373	-189.58511	-55.32956	194.46713	0
634	-72.41663	88.69003	164.36134	-9.76404	-117.98215	123.67784	-9.76404	-242.47366	-170.05703	-185.51676	-54.51589	200.16282	0
635	-65.0936	93.57205	159.47932	-16.2734	-111.47279	125.30518	-10.57771	-244.101	-163.54767	-183.07575	-50.44754	205.85851	0
636	-56.14323	100.08141	156.22464	-23.59643	-105.7771	127.74619	-16.2734	-248.16935	-169.24336	-185.51676	-47.19286	207.48585	0
637	-50.44754	108.21811	159.47932	-29.29212	-104.96343	134.25555	-19.52808	-257.11972	-184.70309	-196.90814	-48.00653	202.60383	0
638	-52.07488	109.03178	162.734	-28.47845	-108.21811	136.69656	-30.10579	-263.62908	-195.2808	-207.48585	-49.63387	198.53548	0
639	-58.58424	103.33609	162.734	-21.96909	-111.47279	133.44188	-43.93818	-262.81541	-203.4175	-210.74053	-50.44754	200.16282	0
640	-61.83892	100.89508	166.80235	-19.52808	-115.54114	133.44188	-50.44754	-259.56073	-214.80888	-211.5542	-52.07488	204.23117	0
641	-59.39791	104.96343	173.31171	-22.78276	-118.79582	135.06922	-65.0936	-253.86504	-219.6909	-205.04484	-52.88855	209.92686	0
642	-55.32956	105.7771	171.68437	-25.22377	-116.35481	133.44188	-73.2303	-245.72834	-218.87723	-189.58511	-50.44754	215.62255	0
643	-55.32956	104.96343	167.61602	-26.03744	-112.28646	131.81454	-43.12451	-242.47366	-224.57292	-171.68437	-46.37919	220.50457	0
644	-58.58424	103.33609	165.17501	-23.59643	-112.28646	131.00087	-16.2734	-244.91467	-237.59164	-160.29299	-43.93818	221.31824	0
645	-62.65259	98.45407	161.10666	-19.52808	-111.47279	128.55986	-19.52808	-248.98302	-250.61036	-152.96996	-41.49717	219.6909	0
646	-62.65259	94.38572	156.22464	-17.08707	-109.03178	125.30518	-26.85111	-253.86504	-268.5111	-152.15629	-39.86983	213.99521	0
647	-62.65259	95.19939	157.85198	-17.08707	-110.65912	126.93252	-30.10579	-262.00174	-291.29386	-162.734	-42.31084	203.4175	0
648	-63.46626	98.45407	162.734	-17.08707	-113.9138	131.00087	-39.05616	-267.69743	-303.49891	-172.49804	-43.93818	195.2808	0
649	-65.0936	98.45407	164.36134	-17.08707	-115.54114	131.81454	-48.8202	-265.25642	-310.82194	-175.75272	-43.93818	194.46713	0
650	-65.90727	101.70875	170.8707	-17.90074	-119.60949	135.06922	-50.44754	-259.56073	-318.95864	-178.19373	-44.75185	196.09447	0
651	-66.72094	104.96343	179.82107	-19.52808	-125.30518	139.13757	-63.46626	-253.05137	-321.39965	-178.19373	-47.19286	196.90814	0
652	-65.90727	103.33609	179.0074	-19.52808	-124.49151	136.69656	-69.16195	-244.101	-314.89029	-172.49804	-46.37919	196.90814	0
653	-65.0936	98.45407	170.05703	-18.71441	-117.98215	130.1872	-36.61515	-239.21898	-314.07662	-165.17501	-43.12451	196.90814	0
654	-60.21158	97.6404	161.10666	-20.34175	-109.84545	126.11885	-6.50936	-236.77797	-316.51763	-162.734	-39.86983	196.90814	0
655	-53.70222	99.26774	152.96996	-24.4101	-102.52242	124.49151	-7.32303	-235.9643	-316.51763	-162.734	-34.98781	198.53548	0
656	-45.56552	102.52242	148.08794	-29.29212	-96.82673	125.30518	-13.01872	-237.59164	-321.39965	-168.42969	-30.91946	197.72181	0
657	-40.6835	109.03178	149.71528	-34.17414	-95.19939	129.37353	-14.64606	-243.28733	-330.35002	-182.26208	-32.5468	192.83979	0
658	-39.86983	111.47279	152.15629	-34.98781	-96.82673	132.62821	-23.59643	-246.54201	-331.97736	-193.65346	-34.98781	188.77144	0
659	-45.56552	107.40444	154.5973	-30.91946	-101.70875	131.81454	-33.36047	-241.65999	-327.90901	-198.53548	-36.61515	191.21245	0
660	-55.32956	104.96343	162.734	-25.22377	-110.65912	133.44188	-35.80148	-233.52329	-327.90901	-200.16282	-37.42882	196.09447	0
661	-62.65259	103.33609	174.12538	-21.15542	-120.42316	135.88289	-21.15542	-223.75925	-323.84066	-196.90814	-39.05616	201.79016	0
662	-66.72094	100.08141	176.56639	-17.90074	-122.86417	134.25555	33.36047	-212.36787	-318.14497	-186.33043	-36.61515	209.11319	0
663	-69.16195	96.82673	172.49804	-15.45973	-121.23683	131.00087	100.08141	-205.04484	-321.39965	-174.12538	-33.36047	216.43622	0
664	-69.16195	97.6404	169.24336	-16.2734	-118.79582	131.00087	116.35481	-205.04484	-331.16369	-167.61602	-31.73313	222.94558	0
665	-65.0936	100.89508	166.80235	-19.52808	-115.54114	132.62821	82.99434	-206.67218	-338.48672	-164.36134	-30.10579	227.01393	0
666	-60.21158	103.33609	163.54767	-21.96909	-112.28646	132.62821	46.37919	-209.11319	-352.31911	-164.36134	-26.85111	227.8276	0
667	-56.9569	104.96343	162.734	-24.4101	-109.84545	134.25555	21.96909	-213.99521	-372.66086	-171.68437	-26.03744	224.57292	0
668	-54.51589	104.14976	160.29299	-24.4101	-108.21811	132.62821	-0.81367	-215.62255	-385.67958	-179.0074	-27.66478	221.31824	0
669	-53.70222	99.26774	154.5973	-22.78276	-104.96343	126.93252	-18.71441	-211.5542	-396.25729	-182.26208	-30.91946	222.13191	0
670	-55.32956	96.82673	154.5973	-20.34175	-105.7771	124.49151	-22.78276	-205.04484	-410.90335	-186.33043	-35.80148	223.75925	0
671	-58.58424	96.82673	161.92033	-19.52808	-111.47279	126.11885	-7.32303	-196.90814	-419.04005	-185.51676	-40.6835	226.20026	0
672	-61.02525	94.38572	163.54767	-17.90074	-113.10013	124.49151	0	-185.51676	-423.1084	-176.56639	-41.49717	228.64127	0
673	-60.21158	93.57205	158.66565	-17.90074	-109.03178	122.0505	-33.36047	-177.38006	-436.12712	-165.98868	-40.6835	230.26861	0
674	-56.14323	96.82673	155.41097	-21.96909	-104.96343	123.67784	-62.65259	-174.12538	-449.95951	-161.10666	-40.6835	231.89595	0
675	-52.07488	100.08141	152.96996	-25.22377	-101.70875	125.30518	-58.58424	-172.49804	-455.6552	-157.85198	-37.42882	232.70962	0
676	-48.8202	102.52242	151.34262	-27.66478	-99.26774	126.93252	-31.73313	-170.05703	-462.97823	-157.85198	-32.5468	231.89595	0
677	-45.56552	109.03178	155.41097	-31.73313	-100.08141	132.62821	0.81367	-170.05703	-472.74227	-164.36134	-30.10579	227.8276	0
678	-43.12451	113.10013	157.03831	-34.98781	-100.89508	135.88289	15.45973	-168.42969	-474.36961	-172.49804	-30.10579	222.94558	0
679	-43.12451	110.65912	155.41097	-33.36047	-100.08141	133.44188	18.71441	-161.10666	-471.11493	-177.38006	-31.73313	221.31824	0
680	-48.00653	107.40444	157.85198	-29.29212	-104.14976	131.81454	22.78276	-151.34262	-471.11493	-183.88942	-36.61515	219.6909	0
681	-52.88855	105.7771	165.17501	-26.85111	-109.84545	132.62821	36.61515	-140.76491	-464.60557	-187.95777	-41.49717	217.24989	0
682	-56.14323	101.70875	165.17501	-23.59643	-111.47279	130.1872	40.6835	-130.1872	-454.84153	-183.88942	-43.93818	214.80888	0
683	-57.77057	97.6404	159.47932	-21.96909	-108.21811	125.30518	4.88202	-122.86417	-454.02786	-176.56639	-43.93818	211.5542	0
684	-55.32956	96.82673	153.78363	-22.78276	-104.14976	123.67784	-25.22377	-120.42316	-452.40052	-172.49804	-43.12451	206.67218	0
685	-51.26121	96.82673	147.27427	-24.4101	-98.45407	121.23683	-23.59643	-116.35481	-441.00914	-168.42969	-40.6835	202.60383	0
686	-44.75185	96.82673	140.76491	-26.85111	-91.94471	117.98215	1.62734	-112.28646	-431.2451	-168.42969	-36.61515	196.09447	0
687	-37.42882	99.26774	137.51023	-30.91946	-87.87636	118.79582	33.36047	-109.84545	-426.36308	-174.93905	-34.17414	186.33043	0
688	-34.98781	98.45407	134.25555	-31.73313	-85.43535	116.35481	45.56552	-104.96343	-417.41271	-181.44841	-32.5468	179.0074	0
689	-36.61515	90.31737	128.55986	-26.03744	-83.80801	109.03178	46.37919	-93.57205	-406.835	-183.07575	-30.91946	175.75272	0
690	-39.05616	82.99434	124.49151	-21.96909	-82.99434	103.33609	49.63387	-81.367	-402.76665	-186.33043	-32.5468	173.31171	0
691	-38.24249	79.73966	122.86417	-21.15542	-81.367	99.26774	62.65259	-69.97562	-397.07096	-187.95777	-37.42882	167.61602	0
692	-34.98781	73.2303	113.9138	-19.52808	-74.85764	90.31737	65.0936	-58.58424	-392.18894	-183.07575	-40.6835	161.92033	0
693	-32.5468	67.53461	103.33609	-18.71441	-67.53461	82.99434	29.29212	-51.26121	-401.13931	-175.75272	-43.12451	156.22464	0
694	-30.91946	67.53461	99.26774	-19.52808	-64.27993	81.367	-1.62734	-46.37919	-408.46234	-170.8707	-43.93818	151.34262	0
695	-29.29212	68.34828	96.82673	-21.15542	-62.65259	81.367	-1.62734	-40.6835	-405.20766	-166.80235	-43.12451	148.08794	0
696	-26.03744	66.72094	92.75838	-21.15542	-58.58424	79.73966	21.15542	-34.17414	-403.58032	-165.17501	-39.86983	143.20592	0
697	-21.96909	66.72094	88.69003	-21.96909	-55.32956	77.29865	50.44754	-30.91946	-407.64867	-171.68437	-41.49717	134.25555	0
698	-18.71441	64.27993	83.80801	-21.96909	-52.07488	74.04397	58.58424	-26.03744	-409.27601	-179.0074	-46.37919	126.93252	0
699	-15.45973	56.9569	73.2303	-20.34175	-45.56552	65.0936	55.32956	-15.45973	-408.46234	-183.07575	-50.44754	123.67784	0
700	-11.39138	52.07488	65.0936	-20.34175	-39.05616	58.58424	56.9569	-3.25468	-410.08968	-186.33043	-54.51589	122.86417	0
701	-10.57771	49.63387	63.46626	-19.52808	-37.42882	54.51589	69.16195	8.95037	-406.02133	-186.33043	-57.77057	123.67784	0
702	-14.64606	40.6835	60.21158	-13.83239	-37.42882	48.00653	71.60296	25.22377	-401.95298	-178.19373	-57.77057	126.11885	0
703	-17.90074	30.91946	51.26121	-7.32303	-34.17414	39.05616	39.86983	37.42882	-410.08968	-170.05703	-56.9569	129.37353	0
704	-15.45973	26.03744	41.49717	-6.50936	-27.66478	32.5468	12.20505	43.93818	-415.78537	-165.17501	-56.9569	131.00087	0
705	-7.32303	24.4101	30.91946	-9.76404	-18.71441	26.85111	12.20505	49.63387	-406.835	-162.734	-56.9569	131.81454	0
706	1.62734	24.4101	21.15542	-13.83239	-9.76404	21.96909	34.17414	54.51589	-397.88463	-163.54767	-56.9569	131.00087	0
707	11.39138	26.03744	13.83239	-19.52808	-1.62734	19.52808	59.39791	55.32956	-393.00261	-171.68437	-60.21158	125.30518	0
708	17.90074	22.78276	4.88202	-20.34175	4.88202	13.83239	61.83892	56.9569	-382.4249	-179.82107	-64.27993	119.60949	0
709	21.15542	13.01872	-6.50936	-17.08707	12.20505	2.44101	52.88855	64.27993	-370.21985	-183.07575	-67.53461	117.98215	0
710	20.34175	2.44101	-15.45973	-11.39138	17.08707	-6.50936	48.8202	74.85764	-358.82847	-183.88942	-70.78929	117.16848	0
711	17.90074	-6.50936	-21.15542	-6.50936	19.52808	-15.45973	55.32956	87.06269	-342.55507	-182.26208	-72.41663	116.35481	0
712	15.45973	-19.52808	-30.10579	0	23.59643	-27.66478	103.33609	102.52242	-328.72268	-172.49804	-71.60296	116.35481	0
713	13.83239	-30.10579	-41.49717	5.69569	28.47845	-38.24249	175.75272	115.54114	-330.35002	-161.10666	-69.16195	116.35481	0
714	15.45973	-34.17414	-49.63387	6.50936	33.36047	-43.12451	199.34915	122.86417	-329.53635	-153.78363	-68.34828	113.9138	0
715	19.52808	-37.42882	-57.77057	6.50936	39.05616	-48.00653	164.36134	127.74619	-315.70396	-148.90161	-66.72094	109.84545	0
716	24.4101	-41.49717	-66.72094	7.32303	45.56552	-54.51589	124.49151	131.00087	-302.68524	-148.90161	-65.0936	102.52242	0
717	30.10579	-43.12451	-73.2303	5.69569	51.26121	-58.58424	95.19939	131.00087	-293.73487	-155.41097	-66.72094	91.94471	0
718	37.42882	-45.56552	-81.367	4.06835	58.58424	-63.46626	58.58424	131.81454	-279.90248	-160.29299	-71.60296	82.18067	0
719	41.49717	-52.07488	-93.57205	4.88202	65.90727	-72.41663	27.66478	138.3239	-262.81541	-160.29299	-74.85764	76.48498	0
720	41.49717	-60.21158	-100.08141	8.95037	69.97562	-80.55333	15.45973	148.08794	-247.35568	-156.22464	-78.11232	72.41663	0
721	39.05616	-67.53461	-103.33609	13.01872	71.60296	-87.87636	21.15542	159.47932	-225.38659	-148.90161	-78.92599	69.97562	0
722	37.42882	-79.73966	-113.10013	19.52808	76.48498	-98.45407	21.96909	172.49804	-206.67218	-133.44188	-74.85764	69.97562	0
723	39.05616	-88.69003	-126.11885	22.78276	83.80801	-109.03178	-4.88202	184.70309	-205.85851	-116.35481	-70.78929	72.41663	0
724	44.75185	-90.31737	-135.06922	20.34175	91.94471	-113.9138	-27.66478	190.39878	-202.60383	-104.96343	-69.97562	73.2303	0
725	52.88855	-90.31737	-144.01959	17.08707	99.26774	-117.98215	-25.22377	194.46713	-184.70309	-96.82673	-68.34828	74.04397	0
726	59.39791	-93.57205	-152.96996	15.45973	106.59077	-123.67784	-2.44101	196.90814	-168.42969	-91.13104	-65.0936	72.41663	0
727	65.0936	-93.57205	-158.66565	13.83239	110.65912	-126.11885	22.78276	196.90814	-156.22464	-90.31737	-62.65259	66.72094	0
728	68.34828	-93.57205	-161.92033	12.20505	113.9138	-127.74619	23.59643	197.72181	-139.13757	-88.69003	-61.83892	60.21158	0
729	69.16195	-99.26774	-167.61602	14.64606	117.16848	-132.62821	11.39138	201.79016	-121.23683	-82.18067	-61.02525	54.51589	0
730	66.72094	-104.96343	-170.05703	18.71441	117.98215	-138.3239	6.50936	206.67218	-108.21811	-74.85764	-61.02525	49.63387	0
731	64.27993	-108.21811	-170.05703	20.34175	117.98215	-140.76491	11.39138	211.5542	-92.75838	-64.27993	-59.39791	44.75185	0
732	65.0936	-112.28646	-174.93905	21.96909	122.0505	-146.4606	8.95037	218.06356	-83.80801	-48.00653	-54.51589	43.12451	0
733	66.72094	-116.35481	-182.26208	22.78276	126.11885	-151.34262	-17.90074	222.13191	-93.57205	-30.91946	-49.63387	42.31084	0
734	68.34828	-116.35481	-184.70309	21.96909	127.74619	-152.15629	-41.49717	220.50457	-100.89508	-19.52808	-47.19286	39.05616	0
735	68.34828	-116.35481	-186.33043	21.96909	128.55986	-152.15629	-39.86983	216.43622	-91.13104	-12.20505	-46.37919	33.36047	0
736	67.53461	-117.16848	-185.51676	23.59643	126.93252	-151.34262	-17.90074	210.74053	-81.367	-9.76404	-44.75185	25.22377	0
737	65.90727	-113.9138	-179.82107	22.78276	122.0505	-146.4606	8.1367	201.79016	-76.48498	-11.39138	-43.93818	13.83239	0
738	64.27993	-110.65912	-174.93905	22.78276	118.79582	-143.20592	8.95037	195.2808	-65.0936	-11.39138	-43.12451	4.88202	0
739	63.46626	-113.10013	-175.75272	24.4101	117.98215	-144.83326	0	193.65346	-54.51589	-7.32303	-40.6835	-0.81367	0
740	62.65259	-113.9138	-176.56639	24.4101	118.79582	-145.64693	-4.06835	192.02612	-48.00653	-3.25468	-39.86983	-8.95037	0
741	64.27993	-113.9138	-175.75272	23.59643	120.42316	-146.4606	0	190.39878	-39.86983	0.81367	-40.6835	-19.52808	0
742	62.65259	-118.79582	-178.19373	26.03744	122.0505	-150.52895	-2.44101	192.02612	-39.05616	10.57771	-37.42882	-28.47845	0
743	56.9569	-122.86417	-178.19373	30.10579	119.60949	-152.15629	-27.66478	193.65346	-61.02525	22.78276	-33.36047	-35.80148	0
744	52.07488	-118.79582	-170.8707	30.91946	113.10013	-146.4606	-46.37919	191.21245	-78.11232	30.10579	-30.91946	-43.12451	0
745	50.44754	-111.47279	-163.54767	28.47845	108.21811	-137.51023	-40.6835	186.33043	-75.67131	34.98781	-28.47845	-51.26121	0
746	51.26121	-105.7771	-157.03831	26.03744	104.14976	-131.00087	-15.45973	179.82107	-73.2303	34.98781	-25.22377	-60.21158	0
747	50.44754	-99.26774	-148.90161	23.59643	98.45407	-123.67784	12.20505	170.8707	-74.04397	30.10579	-22.78276	-71.60296	0
748	50.44754	-93.57205	-143.20592	21.15542	95.19939	-117.98215	12.20505	161.92033	-69.16195	26.03744	-22.78276	-81.367	0
749	51.26121	-93.57205	-144.01959	21.15542	96.01306	-118.79582	1.62734	157.03831	-65.0936	25.22377	-21.96909	-87.87636	0
750	50.44754	-93.57205	-143.20592	21.15542	96.82673	-118.79582	1.62734	154.5973	-65.0936	26.03744	-21.15542	-93.57205	0
751	48.8202	-91.94471	-138.3239	20.34175	94.38572	-117.16848	12.20505	152.96996	-60.21158	27.66478	-19.52808	-98.45407	0
752	47.19286	-94.38572	-139.13757	21.96909	95.19939	-118.79582	16.2734	152.15629	-62.65259	33.36047	-14.64606	-103.33609	0
753	47.19286	-96.82673	-142.39225	22.78276	96.82673	-121.23683	-2.44101	149.71528	-89.5037	39.86983	-12.20505	-109.84545	0
754	48.00653	-94.38572	-142.39225	21.15542	96.82673	-118.79582	-17.08707	142.39225	-109.03178	39.86983	-13.83239	-121.23683	0
755	49.63387	-90.31737	-140.76491	18.71441	96.01306	-115.54114	-11.39138	133.44188	-104.14976	37.42882	-15.45973	-139.13757	0
756	52.07488	-85.43535	-137.51023	15.45973	94.38572	-110.65912	13.83239	126.11885	-95.19939	33.36047	-15.45973	-160.29299	0
757	50.44754	-75.67131	-125.30518	12.20505	87.06269	-100.08141	42.31084	118.79582	-88.69003	27.66478	-14.64606	-184.70309	0
758	41.49717	-69.97562	-110.65912	14.64606	74.85764	-90.31737	40.6835	113.9138	-75.67131	23.59643	-13.01872	-208.29952	0
759	27.66478	-74.04397	-101.70875	22.78276	63.46626	-87.87636	27.66478	113.10013	-64.27993	24.4101	-10.57771	-230.26861	0
760	17.08707	-78.11232	-94.38572	29.29212	55.32956	-86.24902	24.4101	112.28646	-61.02525	24.4101	-10.57771	-252.2377	0
761	12.20505	-78.11232	-88.69003	31.73313	51.26121	-84.62168	30.91946	111.47279	-55.32956	25.22377	-10.57771	-271.76578	0
762	12.20505	-78.11232	-88.69003	31.73313	52.07488	-85.43535	32.5468	112.28646	-60.21158	30.91946	-8.1367	-286.41184	0
763	13.01872	-78.11232	-91.13104	30.91946	53.70222	-86.24902	13.83239	113.9138	-94.38572	37.42882	-6.50936	-295.36221	0
764	13.83239	-74.04397	-88.69003	27.66478	52.88855	-82.18067	1.62734	111.47279	-118.79582	39.86983	-8.1367	-300.24423	0
765	15.45973	-68.34828	-84.62168	24.4101	50.44754	-77.29865	8.1367	107.40444	-115.54114	39.05616	-8.95037	-303.49891	0
766	17.08707	-65.90727	-82.99434	22.78276	49.63387	-74.04397	8.95037	103.33609	-108.21811	35.80148	-8.1367	-305.12625	0
767	18.71441	-60.21158	-78.92599	20.34175	47.19286	-69.16195	-17.90074	98.45407	-102.52242	30.10579	-8.1367	-307.56726	0
768	19.52808	-55.32956	-74.04397	17.08707	45.56552	-64.27993	-49.63387	94.38572	-90.31737	26.03744	-9.76404	-310.00827	0
769	17.90074	-56.9569	-74.85764	18.71441	45.56552	-65.90727	-50.44754	91.94471	-81.367	25.22377	-10.57771	-311.63561	0
770	14.64606	-61.83892	-75.67131	22.78276	44.75185	-69.16195	-25.22377	91.13104	-80.55333	25.22377	-11.39138	-315.70396	0
771	12.20505	-64.27993	-74.04397	24.4101	43.93818	-69.97562	6.50936	90.31737	-75.67131	27.66478	-12.20505	-319.77231	0
772	11.39138	-66.72094	-76.48498	26.03744	45.56552	-73.2303	26.03744	92.75838	-82.99434	34.17414	-8.1367	-321.39965	0
773	13.01872	-67.53461	-80.55333	25.22377	48.8202	-74.85764	19.52808	95.19939	-122.0505	41.49717	-5.69569	-319.77231	0
774	16.2734	-61.83892	-79.73966	20.34175	49.63387	-71.60296	10.57771	93.57205	-150.52895	43.12451	-7.32303	-318.95864	0
775	16.2734	-56.9569	-74.04397	17.90074	46.37919	-65.90727	17.08707	91.94471	-145.64693	41.49717	-9.76404	-316.51763	0
776	10.57771	-54.51589	-65.0936	20.34175	38.24249	-59.39791	16.2734	89.5037	-133.44188	36.61515	-10.57771	-314.07662	0
777	4.06835	-49.63387	-53.70222	21.96909	27.66478	-51.26121	-12.20505	86.24902	-121.23683	30.10579	-13.01872	-313.26295	0
778	0.81367	-46.37919	-47.19286	22.78276	22.78276	-46.37919	-46.37919	83.80801	-101.70875	25.22377	-13.83239	-312.44928	0
779	2.44101	-48.00653	-50.44754	21.96909	25.22377	-48.8202	-47.19286	84.62168	-84.62168	25.22377	-13.01872	-311.63561	0
780	5.69569	-48.00653	-52.88855	20.34175	28.47845	-51.26121	-21.15542	86.24902	-77.29865	26.03744	-12.20505	-313.26295	0
781	4.88202	-47.19286	-51.26121	20.34175	28.47845	-50.44754	12.20505	87.87636	-65.90727	28.47845	-8.95037	-314.89029	0
782	2.44101	-50.44754	-51.26121	22.78276	27.66478	-52.07488	33.36047	91.94471	-69.97562	34.98781	-1.62734	-313.26295	0
783	-0.81367	-54.51589	-52.07488	26.03744	26.85111	-54.51589	29.29212	95.19939	-109.84545	40.6835	1.62734	-311.63561	0
784	-3.25468	-53.70222	-50.44754	26.85111	24.4101	-52.88855	21.96909	92.75838	-139.13757	40.6835	0	-310.82194	0
785	-3.25468	-52.07488	-48.00653	26.03744	22.78276	-50.44754	26.03744	88.69003	-132.62821	37.42882	-3.25468	-310.00827	0
786	-1.62734	-50.44754	-48.00653	25.22377	22.78276	-49.63387	23.59643	84.62168	-117.98215	31.73313	-4.06835	-308.38093	0
787	1.62734	-43.93818	-45.56552	21.15542	21.96909	-44.75185	-7.32303	79.73966	-103.33609	24.4101	-6.50936	-307.56726	0
788	4.88202	-37.42882	-42.31084	16.2734	21.96909	-39.86983	-47.19286	73.2303	-82.18067	19.52808	-8.95037	-306.75359	0
789	6.50936	-36.61515	-43.12451	13.83239	23.59643	-39.86983	-54.51589	70.78929	-66.72094	19.52808	-9.76404	-305.12625	0
790	7.32303	-36.61515	-43.12451	13.83239	24.4101	-39.86983	-31.73313	69.97562	-62.65259	23.59643	-8.95037	-303.49891	0
791	6.50936	-34.98781	-40.6835	13.01872	24.4101	-39.05616	0	70.78929	-56.14323	28.47845	-5.69569	-303.49891	0
792	4.88202	-38.24249	-42.31084	15.45973	25.22377	-41.49717	19.52808	73.2303	-67.53461	36.61515	0.81367	-302.68524	0
793	4.06835	-42.31084	-47.19286	17.08707	26.85111	-45.56552	16.2734	75.67131	-120.42316	44.75185	4.88202	-301.0579	0
794	7.32303	-40.6835	-48.8202	14.64606	28.47845	-45.56552	11.39138	73.2303	-161.10666	45.56552	3.25468	-301.87157	0
795	10.57771	-37.42882	-48.8202	12.20505	30.10579	-43.93818	17.08707	67.53461	-162.734	41.49717	0	-303.49891	0
796	9.76404	-38.24249	-48.00653	13.01872	27.66478	-43.12451	15.45973	61.83892	-154.5973	36.61515	-2.44101	-305.93992	0
797	4.06835	-37.42882	-41.49717	16.2734	21.96909	-39.86983	-15.45973	55.32956	-143.20592	30.10579	-4.06835	-310.00827	0
798	-0.81367	-36.61515	-34.17414	18.71441	15.45973	-34.98781	-57.77057	48.00653	-123.67784	26.03744	-6.50936	-313.26295	0
799	-4.88202	-37.42882	-31.73313	21.15542	12.20505	-34.17414	-66.72094	43.93818	-108.21811	26.03744	-6.50936	-315.70396	0
800	-6.50936	-36.61515	-30.10579	21.15542	10.57771	-33.36047	-43.93818	43.12451	-102.52242	29.29212	-4.06835	-318.14497	0
801	-3.25468	-32.5468	-27.66478	17.08707	12.20505	-30.91946	-11.39138	43.93818	-91.94471	34.98781	0	-318.95864	0
802	0	-31.73313	-30.91946	13.83239	17.08707	-32.5468	8.95037	49.63387	-100.08141	42.31084	8.1367	-315.70396	0
803	3.25468	-33.36047	-36.61515	13.01872	21.15542	-35.80148	8.1367	53.70222	-152.15629	48.8202	13.83239	-311.63561	0
804	2.44101	-32.5468	-36.61515	13.01872	20.34175	-34.98781	4.88202	52.07488	-190.39878	47.19286	12.20505	-310.00827	0
805	2.44101	-30.91946	-34.98781	12.20505	18.71441	-33.36047	9.76404	46.37919	-187.1441	39.86983	7.32303	-313.26295	0
806	4.88202	-30.91946	-35.80148	12.20505	19.52808	-33.36047	6.50936	39.05616	-173.31171	30.10579	3.25468	-317.3313	0
807	8.1367	-29.29212	-35.80148	9.76404	21.15542	-32.5468	-26.03744	30.10579	-156.22464	19.52808	-1.62734	-323.02699	0
808	9.76404	-25.22377	-34.17414	7.32303	21.15542	-29.29212	-72.41663	22.78276	-131.00087	12.20505	-5.69569	-326.28167	0
809	10.57771	-23.59643	-34.17414	5.69569	21.96909	-28.47845	-84.62168	20.34175	-110.65912	11.39138	-6.50936	-326.28167	0
810	11.39138	-21.96909	-33.36047	4.06835	21.96909	-27.66478	-61.83892	19.52808	-103.33609	14.64606	-4.88202	-324.65433	0
811	9.76404	-20.34175	-29.29212	3.25468	20.34175	-25.22377	-29.29212	20.34175	-91.94471	19.52808	-0.81367	-323.02699	0
812	7.32303	-23.59643	-30.91946	6.50936	19.52808	-27.66478	-7.32303	24.4101	-102.52242	26.03744	6.50936	-318.95864	0
813	3.25468	-29.29212	-33.36047	10.57771	19.52808	-31.73313	-5.69569	28.47845	-162.734	34.17414	13.01872	-312.44928	0
814	0	-30.10579	-30.91946	13.83239	15.45973	-30.91946	-5.69569	28.47845	-208.29952	35.80148	13.01872	-308.38093	0
815	-2.44101	-30.91946	-28.47845	15.45973	13.01872	-30.10579	0.81367	23.59643	-208.29952	31.73313	10.57771	-305.93992	0
816	-0.81367	-33.36047	-31.73313	16.2734	14.64606	-32.5468	0.81367	18.71441	-196.09447	25.22377	8.1367	-305.12625	0
817	4.88202	-30.10579	-34.17414	12.20505	17.90074	-32.5468	17.08707	13.01872	-179.82107	17.08707	4.88202	-305.93992	0
818	10.57771	-25.22377	-34.98781	6.50936	21.96909	-30.10579	73.2303	6.50936	-154.5973	11.39138	1.62734	-306.75359	0
819	14.64606	-26.03744	-39.86983	4.88202	26.03744	-32.5468	107.40444	0.81367	-137.51023	8.95037	0	-307.56726	0
820	14.64606	-27.66478	-42.31084	5.69569	27.66478	-34.98781	92.75838	-0.81367	-135.88289	11.39138	0	-306.75359	0
821	11.39138	-27.66478	-39.05616	6.50936	25.22377	-33.36047	63.46626	-0.81367	-128.55986	15.45973	2.44101	-304.31258	0
822	4.88202	-29.29212	-34.17414	10.57771	20.34175	-32.5468	32.5468	3.25468	-144.01959	24.4101	11.39138	-296.17588	0
823	0	-30.91946	-31.73313	13.83239	16.2734	-32.5468	0	8.1367	-213.18154	32.5468	17.08707	-288.03918	0
824	-1.62734	-28.47845	-27.66478	13.83239	13.83239	-28.47845	-17.90074	8.95037	-265.25642	32.5468	14.64606	-282.34349	0
825	-1.62734	-26.03744	-24.4101	12.20505	11.39138	-25.22377	-17.08707	5.69569	-265.25642	26.85111	9.76404	-279.90248	0
826	-1.62734	-25.22377	-22.78276	12.20505	9.76404	-23.59643	-17.90074	1.62734	-250.61036	18.71441	4.06835	-279.08881	0
827	0	-21.96909	-21.15542	10.57771	8.95037	-21.15542	-48.00653	-3.25468	-229.45494	9.76404	-0.81367	-280.71615	0
828	2.44101	-21.96909	-22.78276	9.76404	11.39138	-22.78276	-93.57205	-8.1367	-196.90814	4.06835	-4.06835	-281.52982	0
829	2.44101	-26.85111	-28.47845	11.39138	14.64606	-27.66478	-105.7771	-9.76404	-172.49804	4.88202	-2.44101	-279.90248	0
830	0.81367	-29.29212	-30.10579	13.83239	14.64606	-30.10579	-80.55333	-9.76404	-165.17501	8.1367	-0.81367	-277.46147	0
831	0.81367	-26.03744	-26.85111	11.39138	13.83239	-27.66478	-46.37919	-8.1367	-152.15629	12.20505	3.25468	-275.02046	0
832	5.69569	-23.59643	-28.47845	7.32303	17.08707	-26.85111	-20.34175	-1.62734	-164.36134	18.71441	12.20505	-268.5111	0
833	9.76404	-21.15542	-30.91946	4.06835	21.15542	-26.85111	-13.83239	4.88202	-232.70962	24.4101	17.90074	-260.3744	0
834	10.57771	-18.71441	-30.10579	2.44101	20.34175	-24.4101	-11.39138	6.50936	-281.52982	23.59643	14.64606	-258.74706	0
835	7.32303	-19.52808	-27.66478	4.06835	17.08707	-23.59643	-4.06835	3.25468	-273.39312	17.08707	8.1367	-261.18807	0
836	4.88202	-22.78276	-27.66478	8.1367	15.45973	-25.22377	-4.88202	0.81367	-248.16935	9.76404	2.44101	-266.88376	0
837	4.88202	-21.96909	-26.03744	8.1367	14.64606	-24.4101	10.57771	-1.62734	-215.62255	2.44101	-0.81367	-271.76578	0
838	6.50936	-17.90074	-23.59643	5.69569	13.83239	-21.15542	62.65259	-4.88202	-170.05703	0	-4.06835	-275.83413	0
839	5.69569	-19.52808	-24.4101	5.69569	13.83239	-21.96909	93.57205	-6.50936	-135.88289	2.44101	-2.44101	-276.6478	0
840	1.62734	-22.78276	-24.4101	9.76404	12.20505	-23.59643	78.92599	-8.1367	-122.86417	8.95037	0	-277.46147	0
841	-2.44101	-24.4101	-22.78276	12.20505	9.76404	-23.59643	50.44754	-7.32303	-107.40444	15.45973	5.69569	-276.6478	0
842	-5.69569	-28.47845	-23.59643	15.45973	8.95037	-26.03744	21.15542	-2.44101	-122.0505	21.96909	16.2734	-273.39312	0
843	-5.69569	-32.5468	-26.85111	17.90074	10.57771	-30.10579	-6.50936	1.62734	-199.34915	27.66478	21.96909	-267.69743	0
844	-1.62734	-29.29212	-27.66478	14.64606	12.20505	-28.47845	-21.96909	0.81367	-257.11972	26.03744	17.90074	-266.88376	0
845	3.25468	-25.22377	-29.29212	9.76404	15.45973	-27.66478	-20.34175	-2.44101	-251.42403	18.71441	11.39138	-269.32477	0
846	7.32303	-23.59643	-30.91946	7.32303	17.90074	-27.66478	-19.52808	-7.32303	-228.64127	10.57771	4.88202	-271.76578	0
847	8.95037	-20.34175	-28.47845	4.88202	17.90074	-24.4101	-0.81367	-12.20505	-196.90814	4.06835	0	-273.39312	0
848	8.95037	-16.2734	-25.22377	3.25468	16.2734	-21.15542	51.26121	-16.2734	-150.52895	1.62734	-2.44101	-274.20679	0
849	8.1367	-18.71441	-26.85111	4.06835	17.08707	-22.78276	82.99434	-17.90074	-116.35481	4.06835	-0.81367	-274.20679	0
850	7.32303	-21.15542	-28.47845	5.69569	17.08707	-25.22377	69.97562	-16.2734	-105.7771	9.76404	1.62734	-273.39312	0
851	4.88202	-22.78276	-28.47845	7.32303	17.08707	-26.03744	43.12451	-13.83239	-91.94471	15.45973	7.32303	-273.39312	0
852	2.44101	-26.85111	-30.91946	10.57771	16.2734	-29.29212	15.45973	-8.1367	-109.84545	21.15542	15.45973	-270.95211	0
853	0.81367	-30.91946	-32.5468	13.01872	17.08707	-31.73313	-10.57771	-4.06835	-196.90814	25.22377	19.52808	-266.88376	0
854	1.62734	-28.47845	-30.91946	12.20505	16.2734	-29.29212	-25.22377	-4.88202	-261.18807	21.96909	13.01872	-266.88376	0
855	0.81367	-26.03744	-28.47845	11.39138	13.83239	-26.85111	-23.59643	-8.1367	-257.93339	13.01872	4.06835	-268.5111	0
856	0	-28.47845	-27.66478	13.83239	13.01872	-28.47845	-21.15542	-11.39138	-234.33696	4.06835	-2.44101	-269.32477	0
857	-1.62734	-29.29212	-26.03744	15.45973	10.57771	-27.66478	-1.62734	-14.64606	-198.53548	-2.44101	-8.95037	-269.32477	0
858	-4.06835	-27.66478	-21.96909	15.45973	7.32303	-25.22377	48.8202	-17.08707	-145.64693	-4.88202	-12.20505	-269.32477	0
859	-6.50936	-29.29212	-21.15542	17.08707	5.69569	-25.22377	79.73966	-19.52808	-104.96343	-2.44101	-10.57771	-266.88376	0
860	-8.1367	-30.91946	-22.78276	18.71441	5.69569	-26.85111	68.34828	-19.52808	-92.75838	3.25468	-6.50936	-263.62908	0
861	-6.50936	-30.10579	-24.4101	17.08707	8.1367	-26.85111	43.93818	-18.71441	-77.29865	10.57771	0.81367	-258.74706	0
862	-3.25468	-30.10579	-27.66478	15.45973	11.39138	-28.47845	17.08707	-14.64606	-96.01306	18.71441	13.01872	-249.79669	0
863	-1.62734	-30.10579	-29.29212	14.64606	13.83239	-30.10579	-7.32303	-9.76404	-187.95777	24.4101	17.90074	-241.65999	0
864	-1.62734	-28.47845	-26.85111	14.64606	12.20505	-27.66478	-19.52808	-9.76404	-257.11972	21.96909	13.83239	-238.40531	0
865	-4.06835	-29.29212	-24.4101	16.2734	8.95037	-26.85111	-18.71441	-13.83239	-253.05137	11.39138	4.88202	-240.03265	0
866	-6.50936	-31.73313	-23.59643	18.71441	7.32303	-27.66478	-17.08707	-17.90074	-228.64127	1.62734	-1.62734	-240.84632	0
867	-7.32303	-29.29212	-20.34175	17.90074	4.88202	-24.4101	0	-21.15542	-191.21245	-6.50936	-8.1367	-240.84632	0
868	-4.88202	-25.22377	-18.71441	14.64606	4.88202	-21.15542	48.00653	-24.4101	-134.25555	-11.39138	-13.01872	-240.03265	0
869	-1.62734	-25.22377	-21.96909	13.01872	8.95037	-23.59643	74.04397	-26.85111	-91.13104	-9.76404	-12.20505	-236.77797	0
870	-0.81367	-26.85111	-26.03744	13.01872	11.39138	-26.03744	60.21158	-26.85111	-79.73966	-4.06835	-8.95037	-232.70962	0
871	-0.81367	-26.85111	-25.22377	13.01872	11.39138	-26.03744	34.17414	-25.22377	-63.46626	1.62734	-0.81367	-227.01393	0
872	-1.62734	-29.29212	-27.66478	14.64606	13.01872	-28.47845	6.50936	-19.52808	-82.99434	9.76404	10.57771	-218.06356	0
873	0	-33.36047	-34.17414	15.45973	16.2734	-34.17414	-16.2734	-13.01872	-182.26208	16.2734	17.08707	-208.29952	0
874	3.25468	-33.36047	-37.42882	13.83239	20.34175	-35.80148	-29.29212	-13.01872	-257.11972	13.83239	13.01872	-204.23117	0
875	5.69569	-32.5468	-38.24249	13.01872	21.96909	-35.80148	-29.29212	-17.90074	-253.86504	3.25468	4.88202	-205.04484	0
876	4.88202	-34.17414	-38.24249	14.64606	20.34175	-35.80148	-28.47845	-21.96909	-227.01393	-6.50936	-1.62734	-206.67218	0
877	0.81367	-31.73313	-31.73313	14.64606	15.45973	-31.73313	-60.21158	-26.03744	-184.70309	-14.64606	-8.1367	-206.67218	0
878	-1.62734	-25.22377	-21.96909	13.01872	8.95037	-23.59643	-117.16848	-28.47845	-117.98215	-17.08707	-9.76404	-204.23117	0
879	-1.62734	-18.71441	-16.2734	9.76404	5.69569	-17.08707	-138.3239	-29.29212	-66.72094	-12.20505	-5.69569	-198.53548	0
880	1.62734	-8.95037	-10.57771	2.44101	5.69569	-9.76404	-113.10013	-27.66478	-49.63387	-1.62734	1.62734	-188.77144	0
881	8.95037	6.50936	-2.44101	-8.95037	5.69569	1.62734	-74.85764	-24.4101	-28.47845	8.95037	13.83239	-175.75272	0
882	15.45973	21.96909	4.88202	-19.52808	4.88202	13.01872	-44.75185	-17.08707	-43.93818	22.78276	31.73313	-158.66565	0
883	20.34175	36.61515	15.45973	-30.10579	1.62734	26.03744	-26.85111	-7.32303	-143.20592	38.24249	46.37919	-139.95124	0
884	22.78276	55.32956	30.91946	-39.86983	-4.06835	43.12451	-12.20505	0	-214.80888	48.8202	53.70222	-126.11885	0
885	26.03744	72.41663	45.56552	-49.63387	-10.57771	58.58424	1.62734	4.06835	-200.16282	51.26121	56.9569	-117.98215	0
886	29.29212	83.80801	55.32956	-56.9569	-13.83239	69.97562	8.95037	7.32303	-164.36134	51.26121	57.77057	-112.28646	0
887	30.91946	92.75838	62.65259	-61.83892	-17.08707	78.11232	28.47845	8.1367	-117.98215	48.00653	55.32956	-109.84545	0
888	30.91946	95.19939	65.90727	-63.46626	-17.90074	80.55333	70.78929	3.25468	-50.44754	42.31084	49.63387	-111.47279	0
889	30.10579	91.13104	61.02525	-61.02525	-16.2734	75.67131	90.31737	-3.25468	-4.88202	39.05616	45.56552	-115.54114	0
890	31.73313	88.69003	56.9569	-61.02525	-13.01872	72.41663	74.04397	-10.57771	0	38.24249	44.75185	-120.42316	0
891	34.98781	91.94471	56.14323	-64.27993	-10.57771	74.04397	46.37919	-15.45973	8.95037	39.05616	48.00653	-124.49151	0
892	37.42882	91.94471	53.70222	-65.90727	-8.1367	73.2303	18.71441	-16.2734	106.59077	41.49717	56.9569	-124.49151	0
893	34.17414	86.24902	50.44754	-61.02525	-7.32303	68.34828	-2.44101	-13.83239	260.3744	43.12451	59.39791	-122.86417	0
894	28.47845	77.29865	47.19286	-53.70222	-8.95037	61.83892	-12.20505	-15.45973	301.0579	36.61515	52.88855	-125.30518	0
895	22.78276	65.0936	41.49717	-44.75185	-8.95037	52.88855	-8.95037	-17.08707	213.99521	25.22377	43.93818	-131.81454	0
896	20.34175	52.88855	33.36047	-36.61515	-6.50936	43.12451	-4.06835	-17.08707	86.24902	16.2734	37.42882	-136.69656	0
897	22.78276	48.00653	26.85111	-34.98781	-3.25468	37.42882	13.83239	-16.2734	-6.50936	11.39138	34.17414	-139.13757	0
898	30.10579	44.75185	16.2734	-37.42882	4.88202	30.91946	53.70222	-15.45973	-24.4101	12.20505	34.98781	-139.13757	0
899	39.05616	34.98781	-3.25468	-37.42882	20.34175	15.45973	70.78929	-15.45973	-19.52808	17.90074	38.24249	-139.95124	0
900	47.19286	21.96909	-25.22377	-35.80148	34.98781	-0.81367	50.44754	-16.2734	-28.47845	21.96909	39.86983	-143.20592	0
901	52.07488	11.39138	-41.49717	-33.36047	46.37919	-14.64606	19.52808	-17.08707	-16.2734	24.4101	41.49717	-146.4606	0
902	51.26121	0	-52.07488	-26.85111	51.26121	-25.22377	-9.76404	-13.83239	88.69003	28.47845	48.00653	-144.83326	0
903	42.31084	-8.1367	-52.07488	-17.90074	47.19286	-30.10579	-30.10579	-8.1367	246.54201	32.5468	50.44754	-139.95124	0
904	28.47845	-11.39138	-41.49717	-9.76404	34.98781	-26.03744	-37.42882	-8.1367	291.29386	26.85111	41.49717	-140.76491	0
905	15.45973	-13.01872	-29.29212	-1.62734	21.96909	-21.15542	-32.5468	-14.64606	207.48585	12.20505	27.66478	-147.27427	0
906	6.50936	-17.08707	-22.78276	4.88202	13.01872	-19.52808	-27.66478	-22.78276	78.92599	-4.06835	12.20505	-157.03831	0
907	0.81367	-18.71441	-17.90074	8.95037	7.32303	-17.90074	-57.77057	-30.91946	-16.2734	-19.52808	-1.62734	-167.61602	0
908	-4.88202	-22.78276	-16.2734	14.64606	4.06835	-19.52808	-121.23683	-36.61515	-34.17414	-28.47845	-11.39138	-174.93905	0
909	-11.39138	-33.36047	-20.34175	22.78276	3.25468	-26.85111	-148.08794	-38.24249	-28.47845	-26.85111	-13.01872	-177.38006	0
910	-17.08707	-40.6835	-22.78276	28.47845	2.44101	-32.5468	-123.67784	-36.61515	-39.05616	-19.52808	-11.39138	-175.75272	0
911	-21.15542	-42.31084	-21.96909	30.91946	0	-32.5468	-83.80801	-32.5468	-27.66478	-11.39138	-5.69569	-170.8707	0
912	-23.59643	-45.56552	-21.96909	33.36047	0	-34.17414	-51.26121	-26.03744	74.85764	-2.44101	4.06835	-163.54767	0
913	-27.66478	-51.26121	-24.4101	38.24249	-0.81367	-37.42882	-31.73313	-21.96909	222.94558	1.62734	6.50936	-155.41097	0
914	-30.10579	-52.88855	-23.59643	39.86983	-3.25468	-38.24249	-18.71441	-23.59643	258.74706	-0.81367	0	-154.5973	0
915	-30.91946	-52.07488	-21.15542	40.6835	-4.88202	-36.61515	-8.95037	-29.29212	171.68437	-13.01872	-10.57771	-159.47932	0
916	-31.73313	-52.07488	-18.71441	41.49717	-7.32303	-34.98781	-4.88202	-34.17414	43.93818	-24.4101	-18.71441	-164.36134	0
917	-33.36047	-48.8202	-13.83239	41.49717	-10.57771	-31.73313	9.76404	-37.42882	-46.37919	-33.36047	-26.03744	-167.61602	0
918	-33.36047	-45.56552	-11.39138	39.05616	-11.39138	-28.47845	45.56552	-39.86983	-53.70222	-37.42882	-29.29212	-168.42969	0
919	-31.73313	-48.00653	-16.2734	39.86983	-8.1367	-31.73313	62.65259	-40.6835	-39.05616	-34.17414	-26.85111	-166.80235	0
920	-29.29212	-51.26121	-21.96909	39.86983	-4.06835	-36.61515	48.8202	-39.86983	-46.37919	-26.85111	-21.96909	-161.92033	0
921	-27.66478	-51.26121	-23.59643	38.24249	-1.62734	-37.42882	25.22377	-38.24249	-30.91946	-19.52808	-12.20505	-155.41097	0
922	-26.85111	-52.88855	-26.85111	38.24249	0	-39.86983	3.25468	-32.5468	74.85764	-12.20505	0	-144.83326	0
923	-27.66478	-56.9569	-30.10579	41.49717	0.81367	-43.93818	-12.20505	-27.66478	222.94558	-8.1367	4.88202	-134.25555	0
924	-29.29212	-57.77057	-29.29212	43.12451	0	-43.93818	-17.90074	-27.66478	260.3744	-14.64606	-1.62734	-131.00087	0
925	-30.10579	-57.77057	-26.85111	43.12451	-1.62734	-42.31084	-14.64606	-32.5468	180.63474	-29.29212	-12.20505	-132.62821	0
926	-30.10579	-57.77057	-26.03744	43.93818	-2.44101	-42.31084	-9.76404	-35.80148	60.21158	-44.75185	-21.96909	-135.06922	0
927	-28.47845	-54.51589	-23.59643	41.49717	-3.25468	-39.05616	8.1367	-39.05616	-23.59643	-56.14323	-30.10579	-136.69656	0
928	-25.22377	-50.44754	-22.78276	38.24249	-2.44101	-36.61515	45.56552	-41.49717	-21.15542	-61.83892	-33.36047	-137.51023	0
929	-23.59643	-51.26121	-26.03744	37.42882	0	-38.24249	65.0936	-42.31084	-1.62734	-58.58424	-30.10579	-135.88289	0
930	-22.78276	-52.07488	-28.47845	36.61515	1.62734	-39.86983	53.70222	-41.49717	-9.76404	-49.63387	-24.4101	-132.62821	0
931	-23.59643	-49.63387	-26.85111	35.80148	0.81367	-37.42882	32.5468	-39.05616	-74.85764	-39.86983	-15.45973	-129.37353	0
932	-21.96909	-48.00653	-26.85111	34.17414	1.62734	-37.42882	11.39138	-33.36047	-139.95124	-29.29212	-2.44101	-121.23683	0
933	-19.52808	-47.19286	-28.47845	32.5468	4.06835	-37.42882	-4.88202	-27.66478	-85.43535	-20.34175	2.44101	-113.10013	0
934	-20.34175	-44.75185	-25.22377	30.91946	1.62734	-34.98781	-12.20505	-27.66478	-9.76404	-21.15542	-2.44101	-111.47279	0
935	-22.78276	-45.56552	-21.96909	33.36047	-0.81367	-34.17414	-11.39138	-33.36047	-5.69569	-31.73313	-12.20505	-116.35481	0
936	-26.03744	-50.44754	-22.78276	38.24249	-3.25468	-36.61515	-8.1367	-39.05616	-48.00653	-43.12451	-21.15542	-122.0505	0
937	-28.47845	-52.07488	-21.15542	40.6835	-4.88202	-36.61515	6.50936	-43.12451	-74.04397	-51.26121	-27.66478	-127.74619	0
938	-28.47845	-48.8202	-19.52808	39.05616	-5.69569	-34.17414	40.6835	-46.37919	-32.5468	-54.51589	-31.73313	-131.00087	0
939	-26.03744	-47.19286	-20.34175	36.61515	-3.25468	-34.17414	56.9569	-48.00653	8.1367	-49.63387	-29.29212	-131.81454	0
940	-22.78276	-45.56552	-22.78276	33.36047	-0.81367	-34.17414	44.75185	-47.19286	7.32303	-39.86983	-24.4101	-130.1872	0
941	-20.34175	-40.6835	-21.15542	29.29212	0	-30.91946	23.59643	-44.75185	21.15542	-29.29212	-14.64606	-126.93252	0
942	-18.71441	-37.42882	-20.34175	26.85111	0.81367	-29.29212	1.62734	-38.24249	119.60949	-17.90074	-2.44101	-119.60949	0
943	-17.90074	-36.61515	-19.52808	26.03744	0.81367	-28.47845	-13.01872	-30.91946	248.16935	-9.76404	2.44101	-111.47279	0
944	-18.71441	-35.80148	-17.08707	26.03744	-0.81367	-26.03744	-19.52808	-28.47845	267.69743	-10.57771	-2.44101	-110.65912	0
945	-21.15542	-37.42882	-16.2734	28.47845	-2.44101	-26.85111	-15.45973	-30.10579	181.44841	-20.34175	-12.20505	-116.35481	0
946	-21.96909	-39.86983	-16.2734	30.91946	-4.06835	-27.66478	-9.76404	-30.91946	56.9569	-30.10579	-21.15542	-122.0505	0
947	-22.78276	-38.24249	-13.01872	30.91946	-5.69569	-25.22377	-39.86983	-30.10579	-26.03744	-38.24249	-29.29212	-126.93252	0
948	-21.96909	-38.24249	-14.64606	30.10579	-4.88202	-26.85111	-109.84545	-27.66478	-13.83239	-42.31084	-33.36047	-131.00087	0
949	-20.34175	-49.63387	-28.47845	34.98781	2.44101	-39.05616	-139.95124	-20.34175	12.20505	-42.31084	-34.98781	-134.25555	0
950	-19.52808	-67.53461	-48.00653	43.12451	13.01872	-57.77057	-108.21811	-4.88202	2.44101	-42.31084	-39.86983	-139.95124	0
951	-17.08707	-87.87636	-70.78929	51.26121	26.03744	-78.92599	-50.44754	-22.78276	21.15542	-46.37919	-45.56552	-147.27427	0
952	-13.01872	-114.72747	-102.52242	62.65259	43.93818	-108.21811	14.64606	-144.83326	8.95037	-49.63387	-49.63387	-154.5973	0
953	-7.32303	-145.64693	-139.13757	75.67131	65.0936	-142.39225	82.99434	-279.08881	-112.28646	-48.8202	-61.02525	-162.734	0
954	0	-174.93905	-175.75272	86.24902	87.06269	-174.93905	155.41097	-240.03265	-183.07575	-45.56552	-78.92599	-177.38006	0
955	11.39138	-204.23117	-216.43622	95.19939	113.10013	-209.92686	229.45494	-32.5468	-105.7771	-31.73313	-91.94471	-192.83979	0
956	27.66478	-237.59164	-264.44275	104.96343	144.83326	-250.61036	311.63561	246.54201	118.79582	11.39138	-91.13104	-203.4175	0
957	49.63387	-266.07009	-314.07662	108.21811	179.82107	-289.66652	388.12059	574.45102	528.8855	109.84545	-65.90727	-202.60383	0
958	82.18067	-282.34349	-362.89682	100.08141	221.31824	-323.02699	474.36961	946.29821	991.86373	282.34349	-5.69569	-184.70309	0
959	128.55986	-286.41184	-414.9717	78.11232	270.95211	-350.69177	633.84893	1332.79146	1356.38789	528.8855	96.01306	-144.01959	0
960	194.46713	-274.20679	-463.7919	41.49717	325.468	-368.59251	833.19808	1679.41488	1636.29037	829.9434	232.70962	-80.55333	0
961	278.27514	-240.84632	-502.03439	-10.57771	380.79756	-371.03352	978.03134	1941.41662	1856.79494	1166.80278	263.62908	-48.8202	0
962	362.89682	-186.33043	-528.07183	-77.29865	433.68611	-357.20113	1056.95733	2100.08227	1955.24901	1427.17718	166.80235	-134.25555	0
963	446.70483	-111.47279	-539.46321	-158.66565	483.31998	-325.468	1051.26164	2139.13843	2008.13756	1585.02916	240.03265	-229.45494	0
964	531.32651	-13.01872	-532.95385	-253.86504	525.63082	-273.39312	861.67653	2054.51675	2209.11405	1851.91292	556.55028	-127.74619	0
965	589.09708	94.38572	-506.10274	-348.25076	552.48193	-205.85851	504.4754	1856.79494	2524.81801	2253.05223	932.46582	142.39225	0
966	590.72442	196.90814	-445.89116	-420.66739	544.34523	-123.67784	102.52242	1558.17805	2825.87591	2594.79363	1244.9151	429.61776	0
967	551.66826	288.85285	-335.23204	-457.28254	479.25163	-22.78276	-239.21898	1178.19416	3043.93947	2737.99955	1423.10883	646.86765	0
968	481.69264	357.20113	-184.70309	-450.77318	363.71049	85.43535	-478.43796	751.01741	3008.95166	2625.71309	1445.89159	761.59512	0
969	379.98389	388.93426	-30.10579	-405.20766	224.57292	179.0074	-651.74967	301.87157	2581.77491	2260.37526	1323.84109	772.9865	0
970	264.44275	385.67958	100.08141	-336.04571	91.13104	242.47366	-786.00522	-143.20592	1855.1676	1698.12929	1082.99477	694.87418	0
971	152.15629	350.69177	191.21245	-256.30605	-15.45973	270.95211	-873.88158	-529.69917	1006.50979	1058.58467	786.00522	563.87331	0
972	57.77057	294.54854	235.9643	-176.56639	-89.5037	265.25642	-907.24205	-795.76926	274.20679	493.89769	507.73008	421.48106	0
973	-10.57771	234.33696	247.35568	-110.65912	-131.00087	240.84632	-884.45929	-921.07444	-144.01959	96.01306	285.59817	296.17588	0
974	-50.44754	187.95777	241.65999	-67.53461	-148.08794	214.80888	-815.29734	-930.02481	-340.11406	-137.51023	125.30518	191.21245	0
975	-65.0936	157.03831	225.38659	-44.75185	-147.27427	191.21245	-716.0296	-863.30387	-449.14584	-253.05137	22.78276	111.47279	0
976	-61.83892	133.44188	199.34915	-34.98781	-132.62821	166.80235	-602.92947	-759.15411	-518.30779	-296.98955	-32.5468	57.77057	0
977	-53.70222	117.16848	174.12538	-30.91946	-116.35481	145.64693	-529.69917	-649.30866	-648.49499	-304.31258	-61.02525	25.22377	0
978	-50.44754	105.7771	157.85198	-27.66478	-105.7771	131.81454	-510.98476	-554.10927	-824.24771	-296.17588	-71.60296	6.50936	0
979	-52.88855	91.94471	146.4606	-19.52808	-100.89508	118.79582	-468.67392	-478.43796	-866.55855	-281.52982	-72.41663	-4.06835	0
980	-56.9569	78.11232	135.88289	-11.39138	-96.82673	106.59077	-379.17022	-419.04005	-751.83108	-264.44275	-69.97562	-13.01872	0
981	-58.58424	69.16195	126.93252	-6.50936	-92.75838	98.45407	-285.59817	-374.2882	-555.73661	-249.79669	-63.46626	-19.52808	0
982	-59.39791	59.39791	117.98215	-0.81367	-88.69003	88.69003	-212.36787	-339.30039	-427.99042	-238.40531	-53.70222	-21.15542	0
983	-61.02525	49.63387	109.84545	4.06835	-85.43535	79.73966	-163.54767	-313.26295	-484.94732	-229.45494	-50.44754	-20.34175	0
984	-61.02525	46.37919	107.40444	5.69569	-84.62168	77.29865	-131.81454	-297.80322	-545.1589	-230.26861	-56.14323	-23.59643	0
985	-62.65259	46.37919	109.03178	6.50936	-86.24902	78.11232	-109.84545	-289.66652	-500.40705	-236.77797	-63.46626	-30.10579	0
986	-65.0936	43.93818	111.47279	9.76404	-89.5037	77.29865	-96.82673	-283.97083	-449.14584	-243.28733	-69.97562	-36.61515	0
987	-68.34828	44.75185	115.54114	11.39138	-93.57205	80.55333	-80.55333	-279.90248	-379.98389	-246.54201	-75.67131	-43.93818	0
988	-69.16195	48.00653	119.60949	10.57771	-96.01306	83.80801	-55.32956	-276.6478	-248.98302	-244.101	-79.73966	-49.63387	0
989	-68.34828	48.00653	117.16848	8.95037	-93.57205	82.99434	-44.75185	-273.39312	-161.92033	-232.70962	-77.29865	-52.88855	0
990	-65.90727	49.63387	115.54114	7.32303	-91.94471	82.99434	-52.88855	-267.69743	-173.31171	-215.62255	-70.78929	-51.26121	0
991	-64.27993	55.32956	118.79582	3.25468	-91.94471	87.06269	-63.46626	-260.3744	-256.30605	-197.72181	-59.39791	-47.19286	0
992	-64.27993	59.39791	122.86417	0.81367	-93.57205	91.13104	-71.60296	-249.79669	-345.80975	-180.63474	-43.93818	-38.24249	0
993	-67.53461	61.02525	126.93252	1.62734	-96.82673	93.57205	-74.04397	-240.03265	-346.62342	-167.61602	-36.61515	-30.10579	0
994	-73.2303	63.46626	135.88289	3.25468	-104.96343	99.26774	-69.16195	-236.77797	-318.95864	-166.80235	-40.6835	-28.47845	0
