samplenr	I	II	III	aVR	aVL	aVF	V1	V2	V3	V4	V5	V6	measurement
0	0	-2.44101	-1.62734	0.81367	0.81367	-1.62734	18.71441	29.29212	24.4101	13.01872	-0.81367	4.06835	0
1	0.81367	-10.57771	-9.76404	4.06835	4.88202	-8.95037	78.11232	122.0505	100.08141	56.14323	-3.25468	16.2734	0
2	4.06835	-21.15542	-23.59643	4.06835	15.45973	-19.52808	157.03831	243.28733	200.16282	111.47279	-8.1367	32.5468	0
3	7.32303	-28.47845	-39.86983	0	29.29212	-30.10579	222.13191	342.55507	279.90248	155.41097	-15.45973	43.12451	0
4	9.76404	-35.80148	-54.51589	0.81367	39.86983	-39.05616	260.3744	401.95298	327.90901	182.26208	-24.4101	48.00653	0
5	4.06835	-48.00653	-60.21158	11.39138	39.05616	-43.93818	275.83413	427.17675	351.50544	196.09447	-30.91946	51.26121	0
6	-10.57771	-63.46626	-49.63387	34.17414	26.03744	-43.93818	279.90248	432.05877	358.0148	202.60383	-33.36047	53.70222	0
7	-24.4101	-76.48498	-29.29212	59.39791	11.39138	-43.12451	279.90248	431.2451	356.38746	202.60383	-31.73313	53.70222	0
8	-32.5468	-78.92599	-13.01872	70.78929	0.81367	-39.86983	281.52982	430.43143	353.94645	201.79016	-28.47845	52.88855	0
9	-33.36047	-67.53461	-5.69569	63.46626	-4.88202	-33.36047	286.41184	433.68611	354.76012	200.97649	-23.59643	53.70222	0
10	-25.22377	-48.8202	-4.88202	45.56552	-4.06835	-25.22377	292.9212	441.00914	359.64214	203.4175	-19.52808	55.32956	0
11	-14.64606	-30.91946	-7.32303	26.85111	-0.81367	-17.90074	298.61689	447.5185	364.52416	205.04484	-16.2734	56.9569	0
12	-2.44101	-16.2734	-10.57771	12.20505	4.06835	-13.01872	303.49891	451.58685	367.77884	207.48585	-13.83239	58.58424	0
13	8.1367	-6.50936	-14.64606	1.62734	9.76404	-9.76404	307.56726	454.02786	369.40618	210.74053	-9.76404	61.83892	0
14	15.45973	0	-18.71441	-4.06835	13.83239	-7.32303	310.00827	454.02786	371.03352	213.99521	-4.88202	65.90727	0
15	18.71441	3.25468	-20.34175	-8.95037	15.45973	-6.50936	310.82194	452.40052	371.03352	215.62255	-1.62734	69.16195	0
16	18.71441	4.06835	-19.52808	-10.57771	16.2734	-5.69569	310.82194	449.95951	370.21985	216.43622	0	71.60296	0
17	17.08707	0	-18.71441	-8.95037	15.45973	-7.32303	310.82194	448.33217	367.77884	214.80888	-1.62734	70.78929	0
18	13.83239	-8.1367	-19.52808	-4.88202	13.83239	-12.20505	310.82194	447.5185	365.33783	211.5542	-4.88202	68.34828	0
19	8.95037	-17.08707	-20.34175	0	13.01872	-17.90074	312.44928	449.95951	364.52416	207.48585	-8.95037	64.27993	0
20	4.06835	-24.4101	-21.15542	6.50936	13.01872	-23.59643	312.44928	453.21419	364.52416	202.60383	-12.20505	60.21158	0
21	-2.44101	-30.91946	-22.78276	14.64606	10.57771	-27.66478	312.44928	454.84153	363.71049	199.34915	-15.45973	56.14323	0
22	-10.57771	-37.42882	-24.4101	22.78276	5.69569	-30.91946	310.82194	453.21419	361.26948	195.2808	-18.71441	51.26121	0
23	-19.52808	-44.75185	-25.22377	31.73313	1.62734	-33.36047	309.1946	448.33217	357.20113	191.21245	-21.15542	47.19286	0
24	-26.85111	-52.88855	-26.03744	39.86983	-0.81367	-34.98781	305.93992	441.82281	353.13278	188.77144	-22.78276	45.56552	0
25	-28.47845	-56.14323	-27.66478	41.49717	-0.81367	-36.61515	305.12625	436.94079	349.06443	187.1441	-21.96909	45.56552	0
26	-16.2734	-48.00653	-30.10579	30.91946	6.50936	-34.17414	309.1946	435.31345	346.62342	186.33043	-17.08707	49.63387	0
27	4.88202	-27.66478	-32.5468	9.76404	18.71441	-26.03744	317.3313	440.19547	345.80975	186.33043	-10.57771	56.9569	0
28	22.78276	-6.50936	-32.5468	-8.95037	26.85111	-15.45973	325.468	446.70483	347.43709	187.95777	-5.69569	62.65259	0
29	32.5468	8.1367	-29.29212	-21.15542	29.29212	-6.50936	331.16369	450.77318	349.06443	187.1441	-5.69569	63.46626	0
30	33.36047	15.45973	-23.59643	-24.4101	27.66478	-1.62734	335.23204	450.77318	349.06443	183.07575	-9.76404	58.58424	0
31	30.10579	15.45973	-18.71441	-22.78276	23.59643	-0.81367	337.67305	449.14584	346.62342	178.19373	-14.64606	52.88855	0
32	25.22377	13.01872	-14.64606	-18.71441	19.52808	-0.81367	336.85938	445.07749	341.7414	173.31171	-19.52808	47.19286	0
33	21.96909	10.57771	-12.20505	-15.45973	16.2734	-0.81367	335.23204	438.56813	335.23204	169.24336	-22.78276	43.93818	0
34	19.52808	8.95037	-10.57771	-14.64606	14.64606	0	333.6047	431.2451	327.90901	165.98868	-23.59643	43.12451	0
35	18.71441	8.95037	-8.1367	-14.64606	13.83239	0	332.79103	424.73574	319.77231	163.54767	-22.78276	43.93818	0
36	18.71441	7.32303	-8.95037	-13.83239	14.64606	0	331.97736	416.59904	310.82194	159.47932	-22.78276	43.12451	0
37	18.71441	1.62734	-14.64606	-11.39138	17.08707	-5.69569	330.35002	407.64867	300.24423	151.34262	-25.22377	38.24249	0
38	15.45973	-7.32303	-21.96909	-4.88202	19.52808	-13.83239	327.90901	398.6983	287.22551	140.76491	-28.47845	29.29212	0
39	4.06835	-18.71441	-21.96909	5.69569	14.64606	-22.78276	325.468	391.37527	275.83413	128.55986	-31.73313	20.34175	0
40	-17.08707	-29.29212	-11.39138	21.96909	-0.81367	-29.29212	323.84066	388.93426	269.32477	120.42316	-34.98781	13.83239	0
41	-44.75185	-38.24249	0.81367	39.05616	-21.96909	-29.29212	324.65433	384.86591	262.00174	113.10013	-38.24249	8.1367	0
42	-72.41663	-45.56552	9.76404	52.88855	-40.6835	-26.03744	325.468	375.91554	250.61036	104.14976	-41.49717	1.62734	0
43	-89.5037	-53.70222	14.64606	63.46626	-52.07488	-23.59643	325.468	364.52416	237.59164	95.19939	-43.12451	-2.44101	0
44	-87.87636	-52.88855	16.2734	63.46626	-52.07488	-19.52808	325.468	354.76012	227.8276	90.31737	-43.93818	-4.88202	0
45	-74.04397	-45.56552	17.08707	54.51589	-45.56552	-13.83239	325.468	345.80975	218.87723	87.06269	-44.75185	-3.25468	0
46	-58.58424	-37.42882	16.2734	44.75185	-38.24249	-8.95037	325.468	335.23204	208.29952	82.18067	-45.56552	-1.62734	0
47	-38.24249	-25.22377	12.20505	30.10579	-31.73313	-4.88202	326.28167	327.09534	196.90814	75.67131	-46.37919	-1.62734	0
48	-16.2734	-8.1367	8.1367	11.39138	-26.85111	0.81367	330.35002	322.21332	187.95777	69.97562	-43.93818	-4.06835	0
49	-4.88202	2.44101	4.06835	0	-24.4101	7.32303	334.41837	317.3313	179.0074	62.65259	-42.31084	-8.1367	0
50	-4.06835	7.32303	1.62734	-1.62734	-21.15542	10.57771	335.23204	310.82194	168.42969	52.07488	-43.12451	-13.83239	0
51	-4.06835	7.32303	1.62734	-0.81367	-16.2734	10.57771	332.79103	299.43056	153.78363	39.05616	-47.19286	-21.96909	0
52	-6.50936	4.88202	8.95037	0.81367	-13.83239	7.32303	327.90901	283.15716	135.88289	23.59643	-52.07488	-30.10579	0
53	-16.2734	0	19.52808	8.1367	-17.90074	4.06835	321.39965	263.62908	115.54114	8.1367	-57.77057	-38.24249	0
54	-34.17414	-9.76404	28.47845	21.96909	-29.29212	0.81367	312.44928	241.65999	92.75838	-7.32303	-62.65259	-46.37919	0
55	-51.26121	-21.15542	34.17414	35.80148	-39.86983	0	303.49891	218.87723	68.34828	-23.59643	-68.34828	-53.70222	0
56	-61.83892	-29.29212	35.80148	43.93818	-46.37919	0	294.54854	195.2808	43.93818	-39.86983	-73.2303	-60.21158	0
57	-65.0936	-32.5468	34.98781	48.8202	-48.8202	0	288.03918	173.31171	19.52808	-56.14323	-77.29865	-67.53461	0
58	-65.0936	-32.5468	34.17414	50.44754	-48.00653	0	283.15716	152.96996	-2.44101	-73.2303	-82.18067	-75.67131	0
59	-65.0936	-32.5468	31.73313	52.07488	-47.19286	0	276.6478	132.62821	-26.85111	-92.75838	-87.06269	-86.24902	0
60	-64.27993	-31.73313	28.47845	52.07488	-44.75185	-3.25468	268.5111	111.47279	-52.07488	-114.72747	-94.38572	-99.26774	0
61	-62.65259	-30.10579	26.85111	50.44754	-43.93818	-4.06835	260.3744	88.69003	-77.29865	-135.88289	-100.08141	-111.47279	0
62	-66.72094	-30.10579	30.10579	52.07488	-49.63387	-2.44101	252.2377	65.90727	-103.33609	-155.41097	-103.33609	-122.0505	0
63	-77.29865	-39.05616	33.36047	61.83892	-59.39791	-2.44101	240.03265	37.42882	-133.44188	-177.38006	-109.84545	-135.06922	0
64	-88.69003	-53.70222	34.17414	75.67131	-69.16195	-7.32303	223.75925	3.25468	-169.24336	-203.4175	-118.79582	-150.52895	0
65	-96.01306	-66.72094	34.17414	85.43535	-72.41663	-13.83239	206.67218	-31.73313	-205.85851	-229.45494	-125.30518	-165.17501	0
66	-98.45407	-67.53461	32.5468	83.80801	-71.60296	-15.45973	193.65346	-63.46626	-238.40531	-252.2377	-130.1872	-175.75272	0
67	-97.6404	-57.77057	30.91946	71.60296	-69.97562	-11.39138	185.51676	-89.5037	-266.88376	-270.13844	-132.62821	-183.07575	0
68	-91.94471	-43.93818	31.73313	58.58424	-66.72094	-3.25468	181.44841	-110.65912	-291.29386	-286.41184	-135.06922	-187.95777	0
69	-82.18067	-33.36047	34.17414	48.8202	-61.02525	4.06835	176.56639	-130.1872	-314.89029	-304.31258	-136.69656	-193.65346	0
70	-74.04397	-28.47845	39.05616	44.75185	-59.39791	8.95037	170.05703	-150.52895	-339.30039	-325.468	-139.95124	-202.60383	0
71	-69.97562	-26.03744	45.56552	44.75185	-63.46626	9.76404	160.29299	-175.75272	-366.96517	-347.43709	-144.83326	-213.99521	0
72	-71.60296	-28.47845	50.44754	48.8202	-69.16195	8.95037	148.08794	-203.4175	-397.88463	-370.21985	-150.52895	-225.38659	0
73	-82.99434	-34.98781	56.14323	59.39791	-76.48498	7.32303	135.06922	-233.52329	-429.61776	-392.18894	-156.22464	-236.77797	0
74	-97.6404	-39.86983	63.46626	69.97562	-84.62168	6.50936	122.86417	-263.62908	-459.72355	-411.71702	-159.47932	-244.91467	0
75	-109.03178	-42.31084	69.16195	78.11232	-91.13104	7.32303	110.65912	-292.10753	-488.202	-428.80409	-161.10666	-251.42403	0
76	-115.54114	-47.19286	69.97562	83.80801	-94.38572	7.32303	97.6404	-320.58598	-516.68045	-445.89116	-163.54767	-257.93339	0
77	-118.79582	-52.88855	66.72094	87.87636	-95.19939	4.88202	85.43535	-347.43709	-544.34523	-465.41924	-167.61602	-266.88376	0
78	-121.23683	-57.77057	63.46626	90.31737	-96.01306	1.62734	74.04397	-372.66086	-571.19634	-484.94732	-173.31171	-276.6478	0
79	-124.49151	-64.27993	61.83892	94.38572	-96.01306	-0.81367	61.83892	-394.62995	-596.42011	-505.28907	-180.63474	-288.03918	0
80	-127.74619	-71.60296	61.83892	99.26774	-97.6404	-3.25468	49.63387	-417.41271	-620.83021	-524.81715	-187.95777	-298.61689	0
81	-133.44188	-76.48498	63.46626	104.96343	-100.89508	-4.88202	35.80148	-439.3818	-644.42664	-542.71789	-194.46713	-307.56726	0
82	-141.57858	-79.73966	66.72094	110.65912	-105.7771	-5.69569	22.78276	-462.16456	-666.39573	-557.36395	-199.34915	-314.07662	0
83	-148.90161	-82.99434	69.16195	116.35481	-110.65912	-5.69569	9.76404	-484.94732	-686.73748	-569.569	-202.60383	-317.3313	0
84	-153.78363	-84.62168	69.97562	118.79582	-113.10013	-5.69569	-0.81367	-504.4754	-703.82455	-577.7057	-201.79016	-318.95864	0
85	-156.22464	-87.06269	68.34828	122.0505	-113.10013	-4.88202	-10.57771	-521.56247	-718.47061	-583.40139	-198.53548	-318.14497	0
86	-154.5973	-91.94471	65.90727	127.74619	-111.47279	-4.06835	-21.15542	-537.83587	-731.48933	-589.09708	-196.90814	-318.95864	0
87	-152.15629	-96.82673	64.27993	131.81454	-109.84545	-4.88202	-31.73313	-552.48193	-742.88071	-596.42011	-196.90814	-321.39965	0
88	-152.96996	-100.89508	65.90727	135.06922	-113.10013	-6.50936	-41.49717	-563.87331	-750.20374	-602.1158	-197.72181	-323.84066	0
89	-157.85198	-100.08141	69.16195	135.88289	-117.98215	-6.50936	-46.37919	-569.569	-752.64475	-602.92947	-195.2808	-322.21332	0
90	-155.41097	-88.69003	70.78929	126.93252	-118.79582	-1.62734	-48.8202	-571.19634	-751.83108	-598.86112	-188.77144	-316.51763	0
91	-142.39225	-69.97562	67.53461	109.03178	-111.47279	4.06835	-51.26121	-571.19634	-751.01741	-592.35176	-182.26208	-310.00827	0
92	-131.81454	-54.51589	65.0936	96.01306	-105.7771	8.1367	-56.9569	-572.01001	-751.01741	-587.46974	-177.38006	-305.93992	0
93	-129.37353	-48.00653	67.53461	91.13104	-104.96343	11.39138	-65.0936	-573.63735	-751.83108	-583.40139	-175.75272	-303.49891	0
94	-131.00087	-48.00653	70.78929	90.31737	-104.96343	12.20505	-74.04397	-575.26469	-750.20374	-579.33304	-174.93905	-299.43056	0
95	-132.62821	-48.8202	75.67131	90.31737	-105.7771	12.20505	-79.73966	-572.82368	-745.32172	-572.82368	-172.49804	-292.9212	0
96	-132.62821	-49.63387	79.73966	89.5037	-106.59077	13.01872	-83.80801	-567.94166	-737.18502	-563.87331	-167.61602	-283.97083	0
97	-131.81454	-49.63387	81.367	87.87636	-105.7771	12.20505	-85.43535	-559.80496	-726.60731	-553.2956	-162.734	-275.83413	0
98	-126.93252	-50.44754	77.29865	86.24902	-100.89508	10.57771	-85.43535	-550.85459	-715.21593	-542.71789	-159.47932	-269.32477	0
99	-119.60949	-54.51589	65.90727	86.24902	-91.13104	6.50936	-85.43535	-541.90422	-703.82455	-535.39486	-159.47932	-266.88376	0
100	-111.47279	-61.83892	51.26121	86.24902	-79.73966	0.81367	-87.06269	-532.95385	-693.24684	-529.69917	-162.734	-266.07009	1000	P+0
101	-101.70875	-64.27993	37.42882	82.99434	-69.16195	-3.25468	-88.69003	-522.37614	-680.22812	-520.7488	-165.17501	-263.62908	0
102	-93.57205	-61.83892	34.17414	76.48498	-63.46626	-5.69569	-89.5037	-509.35742	-662.32738	-506.10274	-162.734	-256.30605	0
103	-90.31737	-58.58424	41.49717	69.97562	-66.72094	-6.50936	-87.06269	-492.27035	-641.17196	-485.76099	-154.5973	-243.28733	0
104	-94.38572	-52.88855	52.07488	66.72094	-74.85764	-3.25468	-83.80801	-474.36961	-619.20287	-463.7919	-145.64693	-229.45494	0
105	-97.6404	-43.12451	61.02525	64.27993	-82.99434	4.06835	-82.18067	-458.90988	-598.86112	-443.45015	-138.3239	-217.24989	0
106	-98.45407	-34.98781	68.34828	62.65259	-86.24902	12.20505	-78.92599	-440.19547	-576.07836	-422.29473	-130.1872	-205.04484	0
107	-99.26774	-30.10579	74.85764	61.83892	-87.87636	18.71441	-69.97562	-416.59904	-549.22725	-398.6983	-119.60949	-190.39878	0
108	-96.82673	-26.85111	76.48498	59.39791	-89.5037	23.59643	-58.58424	-388.93426	-520.7488	-375.10187	-109.03178	-177.38006	0
109	-89.5037	-26.85111	69.97562	55.32956	-89.5037	21.96909	-48.8202	-362.89682	-493.08402	-354.76012	-102.52242	-169.24336	0
110	-81.367	-27.66478	57.77057	52.07488	-87.06269	16.2734	-44.75185	-340.92773	-470.30126	-340.11406	-102.52242	-165.98868	0
111	-79.73966	-33.36047	48.00653	55.32956	-81.367	8.1367	-45.56552	-324.65433	-453.21419	-328.72268	-106.59077	-165.17501	0
112	-84.62168	-43.12451	41.49717	63.46626	-76.48498	0	-47.19286	-310.82194	-436.12712	-316.51763	-109.03178	-162.734	0
113	-78.92599	-39.86983	38.24249	59.39791	-66.72094	0	-41.49717	-291.29386	-411.71702	-296.98955	-103.33609	-151.34262	0
114	-57.77057	-19.52808	36.61515	39.05616	-51.26121	8.95037	-27.66478	-264.44275	-379.98389	-267.69743	-87.87636	-131.00087	0
115	-43.12451	-4.88202	36.61515	23.59643	-40.6835	16.2734	-13.83239	-237.59164	-348.25076	-238.40531	-72.41663	-109.84545	0
116	-40.6835	-3.25468	37.42882	21.96909	-38.24249	17.08707	-5.69569	-217.24989	-323.02699	-215.62255	-62.65259	-93.57205	0
117	-45.56552	-8.95037	37.42882	26.85111	-39.86983	13.83239	0	-200.16282	-303.49891	-199.34915	-57.77057	-85.43535	0
118	-53.70222	-17.90074	36.61515	35.80148	-43.12451	8.95037	2.44101	-183.07575	-284.7845	-185.51676	-56.14323	-82.18067	0
119	-61.02525	-26.85111	34.98781	43.12451	-45.56552	4.06835	6.50936	-163.54767	-265.25642	-171.68437	-56.14323	-80.55333	0
120	-65.0936	-30.10579	31.73313	43.12451	-46.37919	0	10.57771	-142.39225	-243.28733	-157.03831	-56.14323	-76.48498	0
121	-65.90727	-26.85111	26.85111	36.61515	-45.56552	-1.62734	14.64606	-122.0505	-222.13191	-142.39225	-54.51589	-71.60296	0
122	-65.0936	-23.59643	20.34175	34.17414	-43.12451	-3.25468	16.2734	-105.7771	-204.23117	-127.74619	-53.70222	-65.90727	0
123	-64.27993	-23.59643	20.34175	43.93818	-41.49717	-5.69569	17.90074	-91.94471	-187.1441	-113.9138	-52.07488	-59.39791	0
124	-61.83892	-26.03744	29.29212	56.9569	-40.6835	-4.06835	21.15542	-77.29865	-168.42969	-97.6404	-47.19286	-49.63387	0
125	-56.9569	-24.4101	39.86983	58.58424	-41.49717	0.81367	27.66478	-60.21158	-148.08794	-78.11232	-38.24249	-35.80148	0
126	-46.37919	-15.45973	43.93818	46.37919	-39.05616	5.69569	35.80148	-43.12451	-127.74619	-58.58424	-28.47845	-21.96909	0
127	-32.5468	-5.69569	38.24249	29.29212	-33.36047	7.32303	42.31084	-26.85111	-109.84545	-42.31084	-21.96909	-12.20505	0
128	-20.34175	4.06835	28.47845	13.83239	-26.03744	10.57771	48.8202	-9.76404	-91.94471	-28.47845	-18.71441	-5.69569	0
129	-13.01872	19.52808	23.59643	3.25468	-17.90074	18.71441	57.77057	9.76404	-69.97562	-13.01872	-13.01872	0.81367	0
130	-7.32303	32.5468	25.22377	-4.88202	-13.01872	29.29212	69.16195	32.5468	-45.56552	4.06835	-5.69569	10.57771	0
131	0	39.05616	29.29212	-13.83239	-11.39138	38.24249	78.92599	52.88855	-23.59643	19.52808	0	17.90074	0
132	3.25468	41.49717	32.5468	-17.90074	-12.20505	42.31084	84.62168	67.53461	-5.69569	31.73313	4.06835	23.59643	0
133	5.69569	41.49717	33.36047	-16.2734	-12.20505	42.31084	87.06269	76.48498	6.50936	40.6835	4.88202	26.85111	0
134	3.25468	38.24249	31.73313	-13.83239	-11.39138	39.05616	87.06269	82.18067	16.2734	48.8202	4.88202	29.29212	0
135	0	32.5468	29.29212	-12.20505	-8.95037	33.36047	85.43535	85.43535	24.4101	56.14323	4.06835	31.73313	0
136	-0.81367	26.03744	25.22377	-9.76404	-6.50936	26.85111	83.80801	88.69003	30.91946	62.65259	2.44101	32.5468	0
137	-0.81367	17.08707	19.52808	-5.69569	-5.69569	18.71441	82.18067	93.57205	37.42882	68.34828	0.81367	32.5468	0
138	-1.62734	4.88202	13.01872	0	-6.50936	8.95037	81.367	99.26774	44.75185	72.41663	-0.81367	31.73313	0
139	-4.88202	-4.88202	7.32303	4.06835	-7.32303	0	81.367	107.40444	52.88855	76.48498	-1.62734	30.91946	0
140	-8.95037	-9.76404	4.88202	6.50936	-6.50936	-2.44101	83.80801	117.98215	63.46626	81.367	-0.81367	32.5468	0
141	-11.39138	-8.1367	7.32303	7.32303	-5.69569	0	87.06269	129.37353	75.67131	90.31737	3.25468	36.61515	0
142	-10.57771	-1.62734	9.76404	4.88202	-4.88202	4.06835	89.5037	138.3239	85.43535	99.26774	7.32303	41.49717	0
143	-8.95037	1.62734	11.39138	2.44101	-6.50936	7.32303	90.31737	144.01959	93.57205	106.59077	10.57771	46.37919	0
144	-9.76404	4.06835	13.01872	2.44101	-9.76404	8.95037	90.31737	146.4606	99.26774	113.9138	13.83239	50.44754	0
145	-9.76404	8.1367	11.39138	-2.44101	-12.20505	9.76404	90.31737	148.08794	104.14976	121.23683	16.2734	54.51589	0
146	-10.57771	13.01872	5.69569	-9.76404	-13.01872	9.76404	90.31737	147.27427	105.7771	127.74619	18.71441	56.9569	0
147	-14.64606	13.83239	0.81367	-8.95037	-13.01872	8.1367	89.5037	146.4606	106.59077	131.00087	17.90074	56.14323	0
148	-21.96909	10.57771	-0.81367	3.25468	-12.20505	5.69569	90.31737	148.08794	108.21811	133.44188	13.01872	51.26121	0
149	-30.10579	4.06835	0	15.45973	-11.39138	4.88202	91.13104	153.78363	113.9138	134.25555	11.39138	48.00653	0
150	-29.29212	1.62734	3.25468	17.90074	-10.57771	5.69569	94.38572	165.17501	125.30518	137.51023	14.64606	51.26121	0
151	-15.45973	7.32303	6.50936	6.50936	-7.32303	12.20505	98.45407	179.0074	139.95124	145.64693	21.96909	58.58424	0
152	4.88202	14.64606	8.1367	-11.39138	0	19.52808	100.89508	189.58511	152.96996	155.41097	30.10579	66.72094	0
153	21.96909	19.52808	5.69569	-25.22377	7.32303	21.15542	100.89508	195.2808	161.92033	163.54767	35.80148	74.04397	0
154	26.85111	21.15542	3.25468	-29.29212	11.39138	18.71441	98.45407	194.46713	165.98868	168.42969	38.24249	77.29865	0
155	20.34175	15.45973	1.62734	-21.96909	8.95037	13.01872	92.75838	189.58511	165.17501	170.05703	37.42882	78.11232	0
156	6.50936	0.81367	0.81367	-5.69569	3.25468	4.88202	83.80801	183.07575	161.92033	169.24336	34.17414	75.67131	0
157	-5.69569	-15.45973	0.81367	9.76404	0	0	75.67131	177.38006	157.85198	165.98868	29.29212	71.60296	0
158	-11.39138	-22.78276	0	16.2734	-0.81367	-1.62734	74.04397	177.38006	158.66565	165.98868	26.85111	69.97562	0
159	-8.1367	-16.2734	0	11.39138	0	0	80.55333	185.51676	166.80235	171.68437	30.10579	74.04397	0
160	0	-2.44101	-0.81367	0.81367	2.44101	4.06835	88.69003	195.2808	176.56639	179.82107	34.98781	79.73966	0
161	8.1367	10.57771	-2.44101	-8.1367	6.50936	7.32303	93.57205	201.79016	184.70309	185.51676	39.05616	84.62168	0
162	14.64606	17.90074	-2.44101	-14.64606	8.95037	8.95037	92.75838	202.60383	187.95777	187.1441	39.86983	87.06269	0
163	17.90074	20.34175	-1.62734	-17.08707	8.95037	8.1367	89.5037	198.53548	187.95777	187.1441	40.6835	88.69003	0
164	15.45973	20.34175	-0.81367	-17.08707	6.50936	8.95037	84.62168	193.65346	184.70309	187.1441	42.31084	89.5037	0
165	10.57771	20.34175	0	-15.45973	0.81367	11.39138	79.73966	187.95777	181.44841	189.58511	43.12451	89.5037	0
166	7.32303	18.71441	0	-13.01872	-0.81367	14.64606	76.48498	183.88942	179.0074	192.02612	43.12451	87.87636	0
167	7.32303	14.64606	-0.81367	-11.39138	0	16.2734	74.85764	182.26208	177.38006	193.65346	42.31084	86.24902	0
168	8.1367	10.57771	-0.81367	-9.76404	2.44101	14.64606	75.67131	184.70309	179.0074	194.46713	39.86983	85.43535	0
169	9.76404	6.50936	-1.62734	-8.95037	6.50936	8.95037	75.67131	190.39878	183.88942	194.46713	38.24249	83.80801	0
170	12.20505	2.44101	-3.25468	-8.1367	12.20505	1.62734	76.48498	193.65346	187.1441	190.39878	35.80148	80.55333	0
171	11.39138	-0.81367	-4.06835	-5.69569	17.08707	-3.25468	74.85764	193.65346	185.51676	184.70309	33.36047	77.29865	0
172	8.95037	-3.25468	-5.69569	-2.44101	21.15542	-6.50936	72.41663	190.39878	182.26208	179.82107	31.73313	75.67131	0
173	12.20505	0	-8.1367	-5.69569	24.4101	-5.69569	70.78929	186.33043	179.82107	178.19373	34.17414	76.48498	0
174	20.34175	10.57771	-10.57771	-17.08707	25.22377	-0.81367	69.97562	182.26208	179.82107	180.63474	39.86983	80.55333	0
175	30.91946	26.03744	-14.64606	-33.36047	27.66478	4.88202	69.97562	179.82107	180.63474	185.51676	47.19286	86.24902	0
176	43.93818	39.05616	-17.90074	-47.19286	30.91946	10.57771	69.97562	177.38006	181.44841	189.58511	52.88855	91.13104	0
177	47.19286	42.31084	-20.34175	-49.63387	30.10579	13.83239	70.78929	177.38006	181.44841	190.39878	56.14323	92.75838	0
178	35.80148	29.29212	-17.08707	-35.80148	22.78276	8.95037	69.16195	174.93905	179.0074	186.33043	55.32956	89.5037	0
179	17.90074	7.32303	-13.01872	-14.64606	14.64606	-1.62734	65.0936	172.49804	174.93905	179.0074	48.8202	82.99434	0
180	0	-13.01872	-9.76404	4.88202	8.95037	-13.01872	61.83892	170.8707	171.68437	172.49804	43.12451	76.48498	0
181	-11.39138	-24.4101	-7.32303	17.08707	4.88202	-17.90074	60.21158	170.8707	171.68437	170.8707	39.86983	74.85764	0
182	-12.20505	-20.34175	-4.06835	16.2734	4.06835	-13.83239	61.83892	173.31171	174.93905	174.93905	41.49717	78.11232	0
183	-2.44101	-6.50936	-0.81367	4.88202	4.88202	-4.06835	65.0936	175.75272	179.82107	182.26208	47.19286	85.43535	0
184	9.76404	9.76404	0.81367	-9.76404	8.1367	5.69569	67.53461	176.56639	183.88942	191.21245	54.51589	94.38572	0
185	22.78276	24.4101	1.62734	-26.85111	13.01872	14.64606	69.16195	176.56639	186.33043	197.72181	59.39791	101.70875	0
186	34.17414	34.98781	0	-41.49717	17.90074	19.52808	69.16195	174.12538	185.51676	200.16282	61.83892	104.14976	0
187	40.6835	39.05616	-3.25468	-47.19286	23.59643	17.08707	65.90727	170.05703	181.44841	196.90814	61.02525	101.70875	0
188	39.86983	32.5468	-5.69569	-42.31084	26.03744	11.39138	62.65259	166.80235	176.56639	190.39878	56.9569	95.19939	0
189	29.29212	18.71441	-8.1367	-27.66478	21.15542	3.25468	60.21158	165.17501	173.31171	183.88942	52.07488	89.5037	0
190	13.83239	3.25468	-8.1367	-10.57771	13.01872	-3.25468	57.77057	163.54767	170.8707	178.19373	46.37919	82.99434	0
191	0	-11.39138	-8.95037	4.88202	4.88202	-10.57771	55.32956	161.10666	167.61602	172.49804	42.31084	77.29865	0
192	-8.95037	-22.78276	-13.01872	15.45973	1.62734	-17.90074	52.07488	156.22464	164.36134	167.61602	39.86983	72.41663	0
193	-5.69569	-26.85111	-18.71441	17.08707	3.25468	-22.78276	48.00653	151.34262	160.29299	165.17501	38.24249	69.97562	0
194	4.06835	-22.78276	-23.59643	8.95037	8.1367	-25.22377	43.93818	145.64693	157.85198	164.36134	38.24249	69.16195	0
195	14.64606	-17.08707	-26.03744	0	13.83239	-24.4101	41.49717	141.57858	155.41097	163.54767	40.6835	69.16195	0
196	17.90074	-12.20505	-25.22377	-4.88202	17.08707	-21.15542	41.49717	139.13757	154.5973	164.36134	43.93818	70.78929	0
197	11.39138	-10.57771	-19.52808	-6.50936	11.39138	-15.45973	44.75185	140.76491	156.22464	168.42969	47.19286	74.04397	0
198	0.81367	-9.76404	-14.64606	-3.25468	3.25468	-9.76404	48.8202	144.83326	160.29299	172.49804	49.63387	78.11232	0
199	0	-8.95037	-12.20505	-3.25468	0.81367	-4.06835	52.88855	151.34262	166.80235	176.56639	52.07488	82.18067	0
200	6.50936	-8.1367	-12.20505	-8.1367	6.50936	-1.62734	56.14323	156.22464	171.68437	180.63474	52.88855	84.62168	0
201	13.83239	-8.95037	-14.64606	-11.39138	12.20505	-2.44101	56.14323	157.03831	173.31171	182.26208	51.26121	84.62168	0
202	17.08707	-9.76404	-19.52808	-9.76404	16.2734	-7.32303	53.70222	152.96996	170.8707	181.44841	48.00653	84.62168	0
203	20.34175	-11.39138	-24.4101	-7.32303	20.34175	-14.64606	49.63387	147.27427	166.80235	178.19373	45.56552	82.99434	0
204	25.22377	-13.83239	-30.91946	-6.50936	25.22377	-22.78276	43.93818	139.13757	162.734	172.49804	43.12451	81.367	0
205	31.73313	-13.01872	-36.61515	-8.95037	31.73313	-28.47845	38.24249	133.44188	158.66565	167.61602	41.49717	79.73966	0
206	33.36047	-10.57771	-36.61515	-12.20505	33.36047	-27.66478	34.98781	130.1872	156.22464	164.36134	39.05616	77.29865	0
207	27.66478	-8.1367	-29.29212	-14.64606	28.47845	-22.78276	34.98781	127.74619	154.5973	161.92033	36.61515	74.85764	0
208	21.15542	-4.06835	-19.52808	-14.64606	21.96909	-17.08707	37.42882	127.74619	152.96996	159.47932	34.17414	73.2303	0
209	14.64606	0	-13.83239	-12.20505	16.2734	-12.20505	39.86983	129.37353	153.78363	158.66565	34.17414	72.41663	0
210	10.57771	2.44101	-11.39138	-8.1367	11.39138	-8.1367	41.49717	131.81454	157.03831	160.29299	35.80148	71.60296	0
211	9.76404	3.25468	-8.95037	-8.1367	8.95037	-4.88202	41.49717	135.06922	160.29299	162.734	38.24249	70.78929	0
212	17.08707	4.06835	-6.50936	-13.83239	9.76404	-1.62734	40.6835	136.69656	162.734	166.80235	40.6835	71.60296	0
213	29.29212	6.50936	-4.88202	-23.59643	11.39138	-0.81367	37.42882	136.69656	164.36134	169.24336	42.31084	71.60296	0
214	40.6835	8.1367	-2.44101	-31.73313	13.83239	0	34.17414	135.06922	165.17501	171.68437	43.12451	73.2303	0
215	49.63387	13.01872	-0.81367	-36.61515	17.08707	3.25468	32.5468	131.00087	163.54767	171.68437	46.37919	75.67131	0
216	53.70222	24.4101	0	-42.31084	20.34175	10.57771	35.80148	127.74619	161.10666	172.49804	52.07488	79.73966	0
217	48.8202	37.42882	0.81367	-48.00653	24.4101	17.90074	40.6835	127.74619	161.10666	173.31171	56.14323	83.80801	0
218	38.24249	39.05616	0.81367	-44.75185	24.4101	17.90074	42.31084	126.93252	159.47932	170.05703	55.32956	81.367	0
219	28.47845	28.47845	0	-33.36047	21.15542	10.57771	38.24249	122.86417	155.41097	162.734	49.63387	74.85764	0
220	19.52808	16.2734	-3.25468	-21.15542	14.64606	3.25468	34.17414	117.98215	149.71528	154.5973	44.75185	68.34828	0
221	13.01872	8.1367	-5.69569	-12.20505	8.1367	-0.81367	31.73313	116.35481	146.4606	149.71528	41.49717	65.90727	0
222	13.01872	5.69569	-7.32303	-9.76404	7.32303	-1.62734	29.29212	115.54114	146.4606	148.90161	41.49717	65.0936	0
223	20.34175	9.76404	-8.95037	-14.64606	12.20505	0	27.66478	114.72747	146.4606	149.71528	42.31084	66.72094	0
224	26.85111	15.45973	-10.57771	-20.34175	17.90074	0.81367	26.03744	113.10013	146.4606	151.34262	43.93818	69.16195	0
225	25.22377	18.71441	-12.20505	-20.34175	17.90074	2.44101	24.4101	111.47279	146.4606	152.96996	46.37919	70.78929	0
226	17.08707	19.52808	-12.20505	-12.20505	13.83239	1.62734	21.96909	110.65912	145.64693	153.78363	48.00653	70.78929	0
227	13.83239	16.2734	-14.64606	-7.32303	13.83239	-2.44101	22.78276	110.65912	146.4606	154.5973	47.19286	70.78929	0
228	19.52808	16.2734	-20.34175	-13.01872	19.52808	-6.50936	25.22377	113.9138	148.08794	153.78363	45.56552	69.97562	0
229	24.4101	16.2734	-26.85111	-21.96909	22.78276	-8.95037	28.47845	117.16848	151.34262	153.78363	43.93818	69.97562	0
230	24.4101	14.64606	-27.66478	-25.22377	21.96909	-8.1367	31.73313	120.42316	153.78363	154.5973	43.93818	69.97562	0
231	23.59643	13.83239	-22.78276	-24.4101	19.52808	-7.32303	34.98781	122.0505	157.03831	156.22464	45.56552	71.60296	0
232	24.4101	13.83239	-17.90074	-22.78276	17.08707	-8.1367	35.80148	122.0505	159.47932	157.03831	47.19286	71.60296	0
233	25.22377	13.01872	-15.45973	-21.15542	13.83239	-8.95037	34.98781	120.42316	160.29299	157.03831	48.8202	72.41663	0
234	26.03744	11.39138	-13.83239	-18.71441	10.57771	-8.95037	33.36047	117.16848	157.03831	156.22464	51.26121	74.04397	0
235	26.85111	10.57771	-11.39138	-17.08707	11.39138	-7.32303	30.91946	113.10013	152.96996	155.41097	52.07488	74.85764	0
236	29.29212	12.20505	-9.76404	-17.08707	14.64606	-4.88202	29.29212	110.65912	149.71528	156.22464	52.07488	74.85764	1500	QRS+0
237	32.5468	15.45973	-8.95037	-21.15542	18.71441	-1.62734	30.91946	111.47279	149.71528	157.85198	53.70222	74.85764	0
238	34.98781	19.52808	-9.76404	-25.22377	21.96909	0.81367	34.17414	115.54114	152.15629	160.29299	54.51589	74.85764	0
239	35.80148	18.71441	-11.39138	-26.03744	24.4101	1.62734	36.61515	118.79582	155.41097	161.10666	53.70222	74.04397	0
240	33.36047	13.83239	-13.83239	-23.59643	26.03744	1.62734	37.42882	120.42316	157.03831	159.47932	50.44754	73.2303	0
241	31.73313	9.76404	-15.45973	-21.15542	26.03744	0	36.61515	119.60949	156.22464	157.85198	46.37919	70.78929	0
242	27.66478	7.32303	-17.08707	-17.90074	22.78276	-4.06835	34.17414	117.16848	155.41097	156.22464	42.31084	69.16195	0
243	19.52808	3.25468	-17.08707	-11.39138	17.08707	-7.32303	30.91946	113.9138	152.96996	155.41097	39.86983	67.53461	0
244	9.76404	-2.44101	-17.08707	-3.25468	11.39138	-10.57771	26.85111	110.65912	150.52895	155.41097	38.24249	66.72094	0
245	4.06835	-7.32303	-17.08707	0	8.95037	-13.01872	24.4101	108.21811	148.90161	156.22464	38.24249	67.53461	0
246	3.25468	-9.76404	-17.08707	0.81367	9.76404	-13.83239	22.78276	107.40444	149.71528	157.03831	38.24249	68.34828	0
247	4.06835	-11.39138	-17.08707	1.62734	10.57771	-14.64606	23.59643	109.03178	151.34262	157.03831	38.24249	68.34828	0
248	3.25468	-11.39138	-19.52808	4.06835	11.39138	-17.08707	25.22377	109.84545	152.15629	154.5973	35.80148	66.72094	0
249	6.50936	-12.20505	-24.4101	4.88202	15.45973	-20.34175	26.03744	109.84545	151.34262	150.52895	31.73313	62.65259	0
250	13.01872	-13.01872	-30.91946	1.62734	21.96909	-24.4101	23.59643	109.03178	150.52895	145.64693	25.22377	56.14323	0
251	18.71441	-13.83239	-34.98781	0	27.66478	-26.85111	21.96909	108.21811	149.71528	143.20592	21.15542	52.07488	0
252	22.78276	-7.32303	-34.98781	-8.95037	31.73313	-23.59643	23.59643	109.84545	152.15629	147.27427	23.59643	53.70222	0
253	27.66478	5.69569	-33.36047	-24.4101	38.24249	-13.01872	28.47845	113.10013	157.85198	155.41097	31.73313	61.02525	0
254	34.17414	17.08707	-28.47845	-39.05616	41.49717	-1.62734	32.5468	116.35481	162.734	164.36134	41.49717	69.97562	0
255	34.98781	21.96909	-18.71441	-42.31084	35.80148	6.50936	34.98781	117.16848	165.17501	170.05703	49.63387	77.29865	0
256	27.66478	23.59643	-7.32303	-34.98781	23.59643	11.39138	36.61515	117.16848	165.17501	171.68437	52.88855	79.73966	0
257	20.34175	21.96909	-0.81367	-24.4101	13.83239	11.39138	35.80148	115.54114	163.54767	170.05703	52.07488	78.11232	0
258	17.08707	19.52808	0	-18.71441	8.1367	8.1367	34.98781	115.54114	161.92033	165.17501	48.00653	73.2303	0
259	20.34175	17.08707	-3.25468	-17.08707	6.50936	4.06835	34.98781	116.35481	161.92033	160.29299	43.93818	67.53461	0
260	22.78276	12.20505	-7.32303	-16.2734	8.1367	-0.81367	34.17414	117.98215	161.92033	156.22464	39.05616	62.65259	0
261	21.15542	6.50936	-8.95037	-12.20505	13.01872	-4.88202	34.17414	118.79582	163.54767	154.5973	34.98781	60.21158	0
262	17.90074	8.95037	-8.95037	-15.45973	17.90074	-2.44101	36.61515	122.0505	166.80235	158.66565	36.61515	62.65259	0
263	17.90074	20.34175	-5.69569	-27.66478	21.96909	6.50936	43.93818	126.11885	174.12538	165.98868	42.31084	69.97562	0
264	19.52808	31.73313	0.81367	-39.05616	21.96909	19.52808	51.26121	129.37353	180.63474	174.12538	49.63387	77.29865	0
265	19.52808	43.12451	9.76404	-44.75185	15.45973	29.29212	56.14323	131.81454	184.70309	178.19373	56.9569	83.80801	0
266	17.08707	54.51589	17.08707	-47.19286	6.50936	35.80148	59.39791	134.25555	185.51676	181.44841	62.65259	87.06269	0
267	19.52808	61.02525	21.96909	-49.63387	1.62734	40.6835	64.27993	138.3239	187.1441	183.07575	65.0936	88.69003	0
268	26.85111	64.27993	24.4101	-52.07488	2.44101	43.12451	70.78929	144.01959	188.77144	184.70309	65.90727	90.31737	0
269	35.80148	65.0936	21.96909	-53.70222	7.32303	43.12451	77.29865	148.90161	192.02612	185.51676	65.0936	91.13104	0
270	47.19286	65.90727	15.45973	-55.32956	14.64606	40.6835	81.367	152.96996	194.46713	186.33043	61.83892	91.13104	0
271	56.9569	66.72094	8.95037	-59.39791	22.78276	38.24249	82.99434	155.41097	194.46713	186.33043	57.77057	89.5037	0
272	58.58424	63.46626	5.69569	-57.77057	24.4101	34.98781	82.18067	154.5973	192.83979	186.33043	53.70222	87.06269	0
273	49.63387	56.14323	7.32303	-50.44754	19.52808	32.5468	80.55333	152.15629	190.39878	187.1441	51.26121	85.43535	0
274	34.17414	45.56552	11.39138	-38.24249	10.57771	30.91946	79.73966	148.08794	187.95777	187.95777	49.63387	84.62168	0
275	17.08707	34.17414	15.45973	-25.22377	0.81367	30.10579	78.92599	143.20592	183.88942	187.1441	47.19286	82.18067	0
276	8.1367	27.66478	17.90074	-17.90074	-4.06835	29.29212	79.73966	141.57858	183.07575	185.51676	47.19286	79.73966	0
277	14.64606	32.5468	17.90074	-23.59643	0	30.10579	82.99434	146.4606	187.95777	184.70309	50.44754	80.55333	0
278	32.5468	50.44754	17.90074	-41.49717	8.1367	37.42882	87.87636	157.03831	197.72181	187.95777	58.58424	87.06269	0
279	52.88855	77.29865	25.22377	-65.90727	17.90074	52.88855	91.13104	170.8707	213.18154	197.72181	71.60296	98.45407	0
280	72.41663	107.40444	34.98781	-90.31737	22.78276	71.60296	89.5037	183.88942	228.64127	210.74053	85.43535	113.10013	0
281	87.06269	131.00087	43.93818	-109.84545	24.4101	87.87636	80.55333	191.21245	239.21898	222.94558	96.82673	125.30518	0
282	95.19939	146.4606	50.44754	-121.23683	23.59643	98.45407	67.53461	191.21245	244.101	231.89595	105.7771	133.44188	0
283	100.08141	153.78363	52.88855	-126.93252	23.59643	103.33609	50.44754	185.51676	243.28733	236.77797	112.28646	139.13757	0
284	104.14976	154.5973	48.8202	-129.37353	27.66478	102.52242	30.10579	174.12538	237.59164	237.59164	115.54114	143.20592	0
285	109.84545	152.15629	40.6835	-131.00087	34.98781	100.08141	9.76404	160.29299	229.45494	236.77797	117.16848	145.64693	0
286	117.98215	152.15629	33.36047	-135.06922	42.31084	96.82673	-6.50936	149.71528	222.13191	234.33696	118.79582	146.4606	0
287	126.93252	153.78363	27.66478	-139.95124	49.63387	94.38572	-16.2734	144.83326	218.06356	233.52329	120.42316	147.27427	0
288	134.25555	154.5973	25.22377	-144.01959	54.51589	91.94471	-21.15542	145.64693	218.06356	235.15063	122.0505	148.08794	0
289	137.51023	155.41097	23.59643	-145.64693	56.9569	89.5037	-21.96909	149.71528	220.50457	237.59164	122.86417	148.90161	0
290	138.3239	152.15629	20.34175	-144.01959	57.77057	86.24902	-19.52808	154.5973	225.38659	240.84632	123.67784	148.08794	0
291	136.69656	144.83326	16.2734	-137.51023	56.14323	80.55333	-17.90074	157.85198	230.26861	240.84632	124.49151	147.27427	0
292	135.06922	135.88289	10.57771	-131.81454	57.77057	72.41663	-16.2734	158.66565	231.08228	239.21898	123.67784	147.27427	0
293	132.62821	127.74619	5.69569	-126.93252	61.02525	65.0936	-16.2734	159.47932	230.26861	239.21898	122.86417	148.90161	0
294	129.37353	122.0505	2.44101	-123.67784	61.02525	56.9569	-17.90074	158.66565	229.45494	239.21898	122.86417	151.34262	0
295	122.86417	117.98215	1.62734	-118.79582	56.9569	50.44754	-18.71441	156.22464	228.64127	240.03265	124.49151	153.78363	0
296	113.9138	113.9138	4.06835	-113.10013	55.32956	48.00653	-17.08707	155.41097	229.45494	240.84632	126.11885	156.22464	0
297	112.28646	117.16848	7.32303	-114.72747	56.9569	52.88855	-11.39138	156.22464	232.70962	241.65999	129.37353	158.66565	0
298	120.42316	129.37353	8.95037	-126.11885	61.83892	64.27993	-2.44101	159.47932	235.9643	242.47366	133.44188	159.47932	0
299	128.55986	141.57858	9.76404	-137.51023	65.0936	73.2303	3.25468	162.734	236.77797	241.65999	135.06922	157.03831	0
300	132.62821	145.64693	8.1367	-142.39225	66.72094	76.48498	6.50936	162.734	234.33696	238.40531	133.44188	153.78363	0
301	132.62821	140.76491	3.25468	-139.13757	67.53461	72.41663	6.50936	159.47932	228.64127	232.70962	126.93252	147.27427	0
302	125.30518	124.49151	-3.25468	-126.93252	65.90727	61.02525	3.25468	151.34262	218.87723	224.57292	115.54114	137.51023	0
303	113.10013	102.52242	-8.1367	-108.21811	62.65259	45.56552	0	141.57858	209.11319	215.62255	100.89508	127.74619	0
304	100.89508	83.80801	-12.20505	-92.75838	59.39791	34.17414	0	132.62821	200.97649	208.29952	87.87636	119.60949	0
305	87.87636	70.78929	-10.57771	-81.367	52.07488	29.29212	2.44101	128.55986	196.09447	204.23117	79.73966	116.35481	0
306	73.2303	62.65259	-3.25468	-69.97562	39.86983	29.29212	9.76404	127.74619	194.46713	201.79016	75.67131	113.9138	0
307	56.9569	54.51589	2.44101	-56.9569	28.47845	28.47845	18.71441	129.37353	192.02612	198.53548	70.78929	109.03178	0
308	37.42882	39.05616	4.88202	-39.86983	16.2734	22.78276	26.03744	129.37353	188.77144	190.39878	62.65259	99.26774	0
309	15.45973	20.34175	6.50936	-18.71441	4.88202	11.39138	30.10579	129.37353	182.26208	178.19373	53.70222	87.06269	0
310	2.44101	7.32303	5.69569	-5.69569	-1.62734	-1.62734	30.10579	128.55986	174.93905	165.98868	45.56552	77.29865	0
311	0	4.06835	4.06835	-1.62734	-2.44101	-8.1367	29.29212	127.74619	170.8707	157.85198	40.6835	70.78929	0
312	4.88202	8.95037	3.25468	-7.32303	0	-4.06835	30.10579	125.30518	168.42969	154.5973	38.24249	66.72094	0
313	18.71441	21.96909	2.44101	-20.34175	4.88202	4.88202	29.29212	121.23683	166.80235	153.78363	36.61515	65.90727	0
314	34.98781	36.61515	0.81367	-35.80148	11.39138	14.64606	27.66478	116.35481	165.17501	154.5973	36.61515	65.90727	0
315	44.75185	43.93818	0	-44.75185	17.08707	19.52808	26.03744	111.47279	164.36134	156.22464	36.61515	67.53461	0
316	40.6835	36.61515	-1.62734	-39.05616	17.90074	15.45973	25.22377	108.21811	162.734	157.85198	35.80148	68.34828	0
317	25.22377	20.34175	-4.06835	-22.78276	11.39138	6.50936	26.85111	108.21811	161.92033	157.03831	34.98781	68.34828	0
318	9.76404	7.32303	-6.50936	-8.95037	4.06835	-0.81367	29.29212	110.65912	160.29299	152.15629	33.36047	67.53461	0
319	0.81367	1.62734	-6.50936	-1.62734	0	-3.25468	31.73313	113.10013	160.29299	147.27427	30.91946	65.0936	0
320	-1.62734	0	-4.06835	0	-1.62734	-2.44101	32.5468	114.72747	161.10666	143.20592	26.85111	60.21158	0
321	-1.62734	0	-2.44101	0	-1.62734	0	31.73313	113.10013	161.10666	142.39225	22.78276	56.14323	0
322	0	0	0	-0.81367	-1.62734	2.44101	29.29212	110.65912	160.29299	142.39225	19.52808	53.70222	0
323	-0.81367	0	2.44101	-0.81367	-2.44101	4.06835	25.22377	106.59077	158.66565	144.83326	18.71441	52.88855	0
324	-4.06835	0	6.50936	0.81367	-4.88202	4.88202	21.15542	101.70875	157.03831	148.08794	20.34175	54.51589	0
325	-9.76404	0	10.57771	2.44101	-7.32303	5.69569	18.71441	97.6404	154.5973	151.34262	21.96909	56.9569	0
326	-14.64606	-2.44101	11.39138	4.06835	-8.95037	3.25468	16.2734	93.57205	152.96996	152.15629	22.78276	56.14323	0
327	-15.45973	-4.06835	7.32303	5.69569	-8.1367	-0.81367	15.45973	91.94471	150.52895	148.90161	21.96909	52.07488	0
328	-8.95037	-5.69569	-1.62734	4.88202	-0.81367	-6.50936	16.2734	92.75838	149.71528	142.39225	18.71441	45.56552	0
329	6.50936	-4.88202	-13.01872	-0.81367	8.95037	-12.20505	17.08707	96.82673	149.71528	135.06922	15.45973	39.86983	0
330	26.85111	-2.44101	-24.4101	-12.20505	21.15542	-18.71441	17.90074	100.08141	149.71528	129.37353	11.39138	35.80148	0
331	43.12451	0	-34.98781	-21.15542	31.73313	-23.59643	16.2734	102.52242	148.08794	127.74619	10.57771	34.17414	0
332	43.12451	0	-34.17414	-21.96909	31.73313	-21.15542	15.45973	103.33609	148.08794	131.81454	15.45973	38.24249	0
333	28.47845	-1.62734	-18.71441	-10.57771	16.2734	-13.01872	16.2734	99.26774	148.90161	140.76491	25.22377	48.00653	0
334	13.83239	-4.06835	2.44101	4.06835	-4.88202	-1.62734	11.39138	85.43535	145.64693	149.71528	34.98781	60.21158	0
335	4.88202	0.81367	19.52808	8.1367	-22.78276	9.76404	-4.88202	56.9569	134.25555	158.66565	46.37919	74.85764	0
336	5.69569	18.71441	32.5468	-1.62734	-33.36047	24.4101	-39.05616	6.50936	109.84545	168.42969	61.02525	95.19939	0
337	10.57771	41.49717	47.19286	-21.15542	-38.24249	41.49717	-91.13104	-67.53461	72.41663	181.44841	83.80801	124.49151	0
338	13.83239	62.65259	67.53461	-41.49717	-41.49717	57.77057	-158.66565	-165.98868	23.59643	197.72181	109.84545	155.41097	0
339	13.83239	79.73966	83.80801	-54.51589	-43.12451	72.41663	-228.64127	-279.90248	-37.42882	206.67218	127.74619	175.75272	0
340	10.57771	80.55333	82.99434	-53.70222	-39.86983	74.85764	-286.41184	-393.00261	-104.96343	200.97649	137.51023	182.26208	0
341	5.69569	62.65259	62.65259	-40.6835	-28.47845	58.58424	-325.468	-483.31998	-160.29299	184.70309	137.51023	179.0074	0
342	0.81367	38.24249	32.5468	-24.4101	-13.01872	31.73313	-352.31911	-545.97257	-196.09447	169.24336	129.37353	167.61602	0
343	-1.62734	13.83239	2.44101	-6.50936	0.81367	4.06835	-384.86591	-593.16543	-222.13191	159.47932	117.16848	152.96996	0
344	-0.81367	-5.69569	-21.15542	5.69569	13.01872	-17.90074	-441.00914	-641.17196	-243.28733	154.5973	113.10013	144.83326	0
345	13.01872	-14.64606	-40.6835	3.25468	30.10579	-30.91946	-534.58119	-703.82455	-263.62908	152.96996	126.11885	155.41097	0
346	43.93818	-6.50936	-58.58424	-16.2734	53.70222	-34.98781	-672.90509	-799.02394	-292.10753	153.78363	158.66565	184.70309	0
347	87.87636	15.45973	-75.67131	-50.44754	82.99434	-31.73313	-850.28515	-935.7205	-338.48672	156.22464	205.04484	227.8276	0
348	136.69656	45.56552	-91.94471	-91.13104	114.72747	-22.78276	-1058.58467	-1108.21854	-402.76665	160.29299	259.56073	272.57945	0
349	183.07575	75.67131	-105.7771	-130.1872	144.83326	-13.83239	-1274.20722	-1288.85328	-477.62429	159.47932	315.70396	307.56726	0
350	220.50457	100.08141	-118.79582	-161.10666	169.24336	-8.1367	-1470.30169	-1440.1959	-553.2956	139.95124	362.08315	331.16369	0
351	250.61036	120.42316	-129.37353	-186.33043	189.58511	-3.25468	-1635.4767	-1549.22768	-629.78058	87.06269	393.81628	333.6047	0
352	279.90248	137.51023	-142.39225	-209.92686	209.92686	-0.81367	-1773.8006	-1629.78101	-720.91162	-11.39138	400.32564	298.61689	0
353	306.75359	142.39225	-163.54767	-224.57292	234.33696	-9.76404	-1881.20504	-1691.61993	-834.01175	-163.54767	369.40618	211.5542	0
354	324.65433	124.49151	-200.16282	-224.57292	262.00174	-37.42882	-1951.18066	-1735.55811	-960.1306	-353.94645	295.36221	71.60296	0
355	330.35002	86.24902	-244.101	-208.29952	288.03918	-78.92599	-1986.98214	-1763.22289	-1085.43578	-554.92294	191.21245	-97.6404	0
356	316.51763	35.80148	-280.71615	-176.56639	299.43056	-122.86417	-2003.25554	-1783.56464	-1205.85894	-737.99869	82.99434	-260.3744	0
357	279.90248	-14.64606	-295.36221	-132.62821	288.03918	-155.41097	-2009.7649	-1813.67043	-1327.90944	-890.96865	-9.76404	-393.00261	0
358	231.08228	-56.14323	-288.03918	-87.87636	260.3744	-171.68437	-2001.6282	-1849.47191	-1458.91031	-1013.83282	-82.99434	-484.94732	0
359	181.44841	-82.18067	-264.44275	-50.44754	223.75925	-172.49804	-1965.01305	-1877.13669	-1585.02916	-1104.15019	-135.88289	-537.0222	0
360	134.25555	-89.5037	-223.75925	-21.96909	179.0074	-156.22464	-1895.03743	-1893.41009	-1676.97387	-1153.78406	-164.36134	-561.4323	0
361	87.87636	-80.55333	-169.24336	-4.06835	128.55986	-124.49151	-1788.44666	-1875.50935	-1706.26599	-1156.22507	-174.12538	-561.4323	0
362	52.88855	-57.77057	-111.47279	1.62734	81.367	-84.62168	-1646.86808	-1797.39703	-1661.51414	-1109.03221	-170.05703	-534.58119	0
363	33.36047	-27.66478	-61.83892	-2.44101	47.19286	-44.75185	-1474.37004	-1657.44579	-1550.85502	-1021.96952	-152.96996	-486.57466	0
364	25.22377	0	-26.03744	-11.39138	25.22377	-13.01872	-1280.71658	-1467.04701	-1388.93469	-905.61471	-131.00087	-426.36308	0
365	23.59643	21.15542	-1.62734	-21.96909	13.01872	8.95037	-1071.60339	-1243.28776	-1192.84022	-772.9865	-109.84545	-362.08315	0
366	22.78276	39.86983	16.2734	-31.73313	3.25468	27.66478	-855.98084	-1002.44144	-978.03134	-630.59425	-87.87636	-296.17588	0
367	18.71441	56.14323	35.80148	-37.42882	-7.32303	43.12451	-642.7993	-759.15411	-759.15411	-485.76099	-65.90727	-230.26861	0
368	11.39138	66.72094	55.32956	-39.05616	-21.15542	53.70222	-444.26382	-528.8855	-549.22725	-349.8781	-46.37919	-168.42969	0
369	0.81367	69.16195	68.34828	-34.98781	-33.36047	59.39791	-270.95211	-325.468	-362.89682	-231.08228	-31.73313	-115.54114	0
370	-9.76404	58.58424	68.34828	-24.4101	-39.05616	56.14323	-129.37353	-155.41097	-205.85851	-132.62821	-22.78276	-74.04397	0
371	-16.2734	36.61515	52.88855	-9.76404	-34.98781	39.86983	-19.52808	-20.34175	-80.55333	-56.14323	-21.15542	-44.75185	0
372	-18.71441	7.32303	26.85111	3.25468	-24.4101	14.64606	57.77057	78.11232	12.20505	-0.81367	-22.78276	-26.85111	0
373	-21.15542	-21.15542	0.81367	13.83239	-14.64606	-11.39138	109.03178	144.83326	78.11232	36.61515	-26.85111	-17.90074	0
374	-26.85111	-39.86983	-15.45973	20.34175	-8.1367	-28.47845	140.76491	188.77144	122.86417	63.46626	-29.29212	-10.57771	0
375	-26.85111	-45.56552	-24.4101	22.78276	-2.44101	-36.61515	161.92033	218.87723	155.41097	85.43535	-29.29212	-1.62734	0
376	-20.34175	-44.75185	-28.47845	21.96909	4.06835	-39.05616	177.38006	241.65999	181.44841	103.33609	-26.85111	7.32303	0
377	-11.39138	-40.6835	-30.10579	19.52808	10.57771	-37.42882	191.21245	262.00174	202.60383	117.16848	-21.15542	15.45973	0
378	-2.44101	-38.24249	-29.29212	15.45973	14.64606	-32.5468	205.04484	283.15716	224.57292	128.55986	-15.45973	23.59643	0
379	0.81367	-36.61515	-26.85111	13.83239	17.08707	-26.85111	218.06356	305.12625	245.72834	139.95124	-10.57771	30.91946	0
380	0	-35.80148	-23.59643	16.2734	17.90074	-24.4101	226.20026	323.02699	263.62908	148.08794	-8.1367	34.98781	0
381	-3.25468	-37.42882	-26.03744	18.71441	18.71441	-26.85111	228.64127	334.41837	273.39312	150.52895	-6.50936	36.61515	0
382	-6.50936	-42.31084	-33.36047	22.78276	18.71441	-34.17414	228.64127	337.67305	278.27514	149.71528	-6.50936	37.42882	0
383	-10.57771	-48.00653	-40.6835	27.66478	17.08707	-40.6835	226.20026	340.11406	283.15716	148.90161	-7.32303	36.61515	0
384	-13.83239	-51.26121	-44.75185	31.73313	14.64606	-42.31084	224.57292	342.55507	289.66652	150.52895	-9.76404	34.98781	0
385	-17.08707	-52.88855	-47.19286	34.17414	12.20505	-43.93818	224.57292	343.36874	294.54854	154.5973	-12.20505	33.36047	0
386	-18.71441	-56.9569	-48.00653	37.42882	8.95037	-47.19286	226.20026	343.36874	296.98955	158.66565	-15.45973	30.10579	0
387	-19.52808	-60.21158	-48.00653	39.86983	5.69569	-51.26121	226.20026	344.99608	298.61689	163.54767	-21.15542	23.59643	0
388	-19.52808	-62.65259	-48.00653	40.6835	5.69569	-53.70222	229.45494	350.69177	304.31258	168.42969	-21.96909	21.96909	0
389	-17.90074	-61.83892	-48.00653	38.24249	9.76404	-53.70222	238.40531	362.89682	314.89029	174.12538	-17.08707	26.03744	0
390	-15.45973	-53.70222	-46.37919	30.10579	15.45973	-49.63387	248.16935	376.72921	328.72268	183.07575	-10.57771	34.17414	0
391	-9.76404	-42.31084	-43.93818	20.34175	21.15542	-42.31084	257.11972	388.93426	340.11406	191.21245	-2.44101	43.12451	0
392	-1.62734	-32.5468	-40.6835	14.64606	23.59643	-34.17414	262.00174	396.25729	348.25076	198.53548	3.25468	51.26121	0
393	4.88202	-27.66478	-37.42882	11.39138	24.4101	-28.47845	263.62908	399.51197	352.31911	204.23117	7.32303	57.77057	0
394	9.76404	-25.22377	-34.98781	8.1367	24.4101	-26.03744	262.81541	398.6983	353.13278	205.85851	9.76404	61.02525	0
395	11.39138	-26.03744	-34.17414	6.50936	25.22377	-26.03744	261.18807	397.07096	351.50544	206.67218	10.57771	62.65259	0
396	11.39138	-27.66478	-35.80148	7.32303	24.4101	-27.66478	260.3744	397.07096	349.8781	205.85851	9.76404	62.65259	0
397	4.88202	-32.5468	-35.80148	12.20505	21.15542	-30.91946	263.62908	401.13931	351.50544	205.85851	9.76404	62.65259	0
398	-4.06835	-38.24249	-32.5468	20.34175	14.64606	-34.17414	269.32477	408.46234	354.76012	205.85851	8.95037	63.46626	0
399	-12.20505	-42.31084	-30.10579	26.03744	9.76404	-36.61515	273.39312	416.59904	359.64214	207.48585	8.1367	63.46626	0
400	-20.34175	-46.37919	-30.10579	30.10579	8.1367	-39.86983	274.20679	422.29473	363.71049	207.48585	6.50936	61.83892	0
401	-25.22377	-52.07488	-32.5468	34.98781	8.1367	-43.93818	272.57945	424.73574	363.71049	205.04484	3.25468	57.77057	0
402	-26.03744	-56.14323	-37.42882	37.42882	8.95037	-50.44754	270.13844	423.1084	361.26948	200.16282	0	52.88855	-1500	QRS-0
403	-22.78276	-59.39791	-41.49717	39.05616	10.57771	-55.32956	269.32477	420.66739	359.64214	197.72181	0	51.26121	0
404	-14.64606	-57.77057	-46.37919	35.80148	15.45973	-56.14323	270.13844	419.85372	360.45581	200.16282	3.25468	52.88855	0
405	-2.44101	-52.07488	-51.26121	26.85111	23.59643	-54.51589	270.95211	418.22638	361.26948	205.85851	8.95037	56.9569	0
406	7.32303	-46.37919	-55.32956	18.71441	30.91946	-52.88855	274.20679	419.04005	362.89682	209.92686	13.01872	60.21158	0
407	14.64606	-43.12451	-59.39791	13.01872	36.61515	-52.07488	278.27514	423.1084	366.1515	209.92686	13.83239	63.46626	0
408	20.34175	-42.31084	-64.27993	9.76404	39.86983	-52.88855	283.15716	427.99042	369.40618	209.92686	12.20505	63.46626	0
409	24.4101	-39.86983	-65.0936	8.95037	41.49717	-52.07488	288.03918	433.68611	373.47453	211.5542	8.95037	61.83892	0
410	26.03744	-33.36047	-60.21158	9.76404	39.86983	-46.37919	293.73487	438.56813	376.72921	213.18154	4.88202	59.39791	0
411	24.4101	-26.85111	-52.07488	8.95037	34.98781	-38.24249	297.80322	441.82281	378.35655	213.18154	0.81367	56.14323	0
412	21.15542	-21.96909	-44.75185	7.32303	29.29212	-32.5468	298.61689	443.45015	378.35655	210.74053	-2.44101	53.70222	0
413	16.2734	-21.15542	-38.24249	6.50936	24.4101	-29.29212	297.80322	442.63648	379.17022	209.11319	-3.25468	52.88855	0
414	13.83239	-21.15542	-33.36047	6.50936	22.78276	-26.03744	296.17588	441.82281	379.17022	209.92686	-0.81367	55.32956	0
415	13.83239	-21.96909	-30.10579	6.50936	22.78276	-22.78276	296.98955	441.00914	379.98389	211.5542	3.25468	57.77057	0
416	14.64606	-21.96909	-29.29212	5.69569	22.78276	-21.15542	299.43056	441.00914	379.98389	212.36787	6.50936	60.21158	0
417	11.39138	-21.15542	-28.47845	5.69569	20.34175	-20.34175	302.68524	442.63648	381.61123	211.5542	7.32303	60.21158	0
418	7.32303	-21.15542	-28.47845	6.50936	17.90074	-21.15542	305.93992	446.70483	384.05224	208.29952	6.50936	58.58424	0
419	5.69569	-21.15542	-29.29212	7.32303	16.2734	-22.78276	308.38093	449.95951	385.67958	204.23117	4.88202	55.32956	0
420	7.32303	-21.15542	-30.10579	7.32303	16.2734	-24.4101	310.00827	453.21419	387.30692	200.16282	4.88202	52.88855	0
421	9.76404	-20.34175	-31.73313	6.50936	17.08707	-26.03744	310.82194	455.6552	388.12059	197.72181	5.69569	51.26121	0
422	12.20505	-22.78276	-33.36047	8.1367	17.90074	-28.47845	310.82194	455.6552	388.12059	197.72181	8.1367	52.07488	0
423	12.20505	-26.03744	-35.80148	9.76404	20.34175	-31.73313	310.82194	453.21419	386.49325	200.16282	9.76404	53.70222	0
424	10.57771	-29.29212	-37.42882	11.39138	21.96909	-34.17414	308.38093	448.33217	384.86591	201.79016	11.39138	56.14323	0
425	8.1367	-34.17414	-39.05616	13.83239	22.78276	-37.42882	305.12625	441.82281	379.98389	200.16282	9.76404	56.14323	0
426	7.32303	-40.6835	-43.12451	15.45973	23.59643	-41.49717	301.0579	435.31345	372.66086	193.65346	4.88202	53.70222	0
427	6.50936	-47.19286	-49.63387	17.08707	26.85111	-44.75185	298.61689	432.05877	366.96517	186.33043	0	49.63387	0
428	5.69569	-48.8202	-55.32956	17.08707	30.91946	-45.56552	301.0579	432.87244	364.52416	181.44841	-3.25468	45.56552	0
429	4.06835	-46.37919	-55.32956	13.83239	32.5468	-43.93818	308.38093	436.12712	367.77884	178.19373	-1.62734	44.75185	0
430	4.06835	-40.6835	-47.19286	9.76404	29.29212	-39.86983	316.51763	441.82281	374.2882	179.82107	2.44101	46.37919	0
431	4.06835	-32.5468	-35.80148	6.50936	22.78276	-36.61515	321.39965	447.5185	380.79756	184.70309	5.69569	47.19286	0
432	0	-28.47845	-28.47845	8.95037	15.45973	-32.5468	322.21332	447.5185	380.79756	187.1441	6.50936	46.37919	0
433	-4.88202	-33.36047	-24.4101	15.45973	9.76404	-27.66478	320.58598	441.00914	372.66086	183.88942	5.69569	45.56552	0
434	-11.39138	-39.86983	-23.59643	21.96909	4.88202	-25.22377	318.14497	431.2451	362.08315	179.0074	5.69569	43.93818	0
435	-17.90074	-41.49717	-24.4101	26.03744	-0.81367	-26.03744	316.51763	422.29473	352.31911	174.12538	4.88202	42.31084	0
436	-18.71441	-38.24249	-26.85111	26.03744	-1.62734	-26.03744	315.70396	413.34436	342.55507	168.42969	4.88202	41.49717	0
437	-13.01872	-34.17414	-30.10579	21.96909	3.25468	-25.22377	314.89029	406.835	332.79103	161.10666	4.06835	40.6835	0
438	-4.88202	-31.73313	-33.36047	17.08707	10.57771	-24.4101	317.3313	402.76665	326.28167	153.78363	2.44101	38.24249	0
439	0	-30.91946	-32.5468	13.01872	14.64606	-23.59643	321.39965	402.76665	322.21332	148.90161	0.81367	34.17414	0
440	-0.81367	-32.5468	-26.03744	13.01872	11.39138	-21.15542	325.468	402.76665	318.95864	145.64693	0	30.10579	0
441	-8.1367	-33.36047	-17.08707	17.08707	4.06835	-19.52808	327.09534	399.51197	313.26295	141.57858	0	26.85111	0
442	-14.64606	-32.5468	-12.20505	20.34175	-2.44101	-18.71441	326.28167	391.37527	304.31258	136.69656	-0.81367	22.78276	0
443	-16.2734	-32.5468	-9.76404	21.96909	-8.1367	-20.34175	323.84066	379.98389	292.9212	128.55986	-2.44101	17.90074	0
444	-18.71441	-36.61515	-8.95037	24.4101	-13.01872	-21.96909	319.77231	366.96517	279.90248	117.98215	-4.88202	11.39138	0
445	-23.59643	-43.12451	-8.1367	30.10579	-14.64606	-23.59643	316.51763	353.94645	265.25642	106.59077	-7.32303	4.88202	0
446	-26.85111	-47.19286	-7.32303	36.61515	-14.64606	-25.22377	315.70396	342.55507	250.61036	95.19939	-10.57771	0	0
447	-30.10579	-48.8202	-6.50936	40.6835	-13.83239	-26.03744	314.89029	331.16369	235.9643	82.18067	-15.45973	-7.32303	0
448	-36.61515	-52.88855	-8.1367	46.37919	-14.64606	-29.29212	310.82194	318.14497	219.6909	66.72094	-23.59643	-17.90074	0
449	-45.56552	-62.65259	-9.76404	55.32956	-16.2734	-36.61515	304.31258	302.68524	200.97649	48.8202	-34.17414	-30.91946	0
450	-57.77057	-80.55333	-13.83239	69.97562	-17.90074	-46.37919	295.36221	283.15716	178.19373	26.85111	-43.93818	-48.00653	0
451	-70.78929	-100.08141	-20.34175	86.24902	-21.15542	-52.07488	286.41184	261.18807	152.15629	4.88202	-51.26121	-64.27993	0
452	-80.55333	-106.59077	-24.4101	91.13104	-21.96909	-52.88855	278.27514	240.03265	129.37353	-10.57771	-54.51589	-74.04397	0
453	-85.43535	-96.01306	-23.59643	82.18067	-19.52808	-49.63387	272.57945	223.75925	111.47279	-20.34175	-55.32956	-76.48498	0
454	-81.367	-80.55333	-13.83239	71.60296	-17.08707	-40.6835	269.32477	209.11319	95.19939	-27.66478	-53.70222	-74.04397	0
455	-68.34828	-65.0936	5.69569	66.72094	-15.45973	-26.03744	269.32477	196.09447	80.55333	-34.17414	-50.44754	-71.60296	0
456	-58.58424	-47.19286	28.47845	60.21158	-14.64606	-9.76404	270.13844	182.26208	64.27993	-43.12451	-48.8202	-71.60296	0
457	-46.37919	-26.03744	42.31084	43.93818	-14.64606	3.25468	271.76578	169.24336	48.00653	-53.70222	-48.8202	-75.67131	0
458	-35.80148	-10.57771	44.75185	29.29212	-17.90074	11.39138	274.20679	156.22464	30.91946	-67.53461	-49.63387	-82.18067	0
459	-34.98781	-4.88202	38.24249	23.59643	-25.22377	14.64606	274.20679	141.57858	10.57771	-83.80801	-52.88855	-92.75838	0
460	-38.24249	-7.32303	30.91946	24.4101	-31.73313	13.01872	268.5111	121.23683	-13.01872	-104.96343	-56.9569	-104.96343	0
461	-39.05616	-12.20505	24.4101	25.22377	-35.80148	7.32303	259.56073	97.6404	-40.6835	-126.93252	-61.02525	-116.35481	0
462	-42.31084	-20.34175	21.15542	30.10579	-38.24249	0	248.98302	70.78929	-69.97562	-149.71528	-64.27993	-126.11885	0
463	-51.26121	-30.10579	21.96909	40.6835	-41.49717	-7.32303	235.9643	40.6835	-101.70875	-172.49804	-68.34828	-135.06922	0
464	-63.46626	-38.24249	24.4101	52.88855	-46.37919	-12.20505	222.13191	8.95037	-134.25555	-195.2808	-73.2303	-144.01959	0
465	-73.2303	-43.93818	27.66478	61.83892	-51.26121	-13.01872	209.11319	-21.15542	-166.80235	-216.43622	-78.11232	-152.96996	0
466	-80.55333	-48.8202	30.10579	68.34828	-56.14323	-10.57771	199.34915	-50.44754	-197.72181	-239.21898	-83.80801	-164.36134	0
467	-88.69003	-52.88855	31.73313	74.04397	-61.02525	-7.32303	189.58511	-77.29865	-228.64127	-264.44275	-91.94471	-179.0074	0
468	-95.19939	-58.58424	30.91946	78.92599	-65.0936	-8.1367	179.82107	-104.14976	-259.56073	-291.29386	-101.70875	-196.09447	0
469	-100.89508	-65.90727	30.10579	84.62168	-67.53461	-13.01872	170.05703	-130.1872	-289.66652	-316.51763	-109.84545	-211.5542	0
470	-108.21811	-74.85764	28.47845	91.94471	-68.34828	-17.90074	158.66565	-157.03831	-318.95864	-339.30039	-117.16848	-225.38659	0
471	-117.16848	-82.99434	27.66478	101.70875	-71.60296	-21.96909	145.64693	-184.70309	-349.06443	-360.45581	-122.86417	-237.59164	0
472	-122.0505	-91.13104	29.29212	110.65912	-76.48498	-25.22377	132.62821	-214.80888	-380.79756	-382.4249	-129.37353	-248.98302	0
473	-126.11885	-96.82673	28.47845	117.98215	-81.367	-30.91946	118.79582	-246.54201	-415.78537	-407.64867	-136.69656	-262.00174	0
474	-131.00087	-100.08141	24.4101	121.23683	-86.24902	-36.61515	104.14976	-279.90248	-450.77318	-434.49978	-144.01959	-275.02046	0
475	-135.88289	-100.08141	24.4101	121.23683	-88.69003	-38.24249	91.13104	-309.1946	-481.69264	-458.90988	-148.90161	-285.59817	0
476	-144.01959	-100.89508	30.10579	123.67784	-95.19939	-34.98781	81.367	-334.41837	-508.54375	-479.25163	-151.34262	-294.54854	0
477	-157.85198	-104.14976	35.80148	131.00087	-104.14976	-30.91946	74.04397	-356.38746	-532.95385	-498.77971	-154.5973	-304.31258	0
478	-165.98868	-109.84545	38.24249	136.69656	-111.47279	-30.10579	68.34828	-377.54288	-557.36395	-519.12146	-160.29299	-316.51763	0
479	-163.54767	-113.10013	38.24249	140.76491	-113.9138	-32.5468	62.65259	-397.88463	-580.14671	-539.46321	-166.80235	-327.90901	0
480	-153.78363	-107.40444	39.05616	139.13757	-110.65912	-30.10579	57.77057	-414.9717	-599.67479	-554.92294	-172.49804	-337.67305	0
481	-150.52895	-94.38572	53.70222	133.44188	-113.10013	-17.90074	53.70222	-427.99042	-612.69351	-561.4323	-176.56639	-342.55507	0
482	-157.03831	-83.80801	74.85764	128.55986	-122.86417	-2.44101	48.8202	-440.19547	-624.89856	-566.31432	-178.19373	-344.18241	0
483	-165.98868	-79.73966	85.43535	126.11885	-131.00087	3.25468	39.86983	-457.28254	-640.35829	-573.63735	-178.19373	-344.99608	0
484	-174.93905	-80.55333	85.43535	123.67784	-135.88289	2.44101	27.66478	-477.62429	-658.25903	-583.40139	-176.56639	-345.80975	0
485	-178.19373	-83.80801	81.367	123.67784	-135.88289	-2.44101	16.2734	-497.15237	-675.3461	-590.72442	-172.49804	-344.99608	0
486	-173.31171	-90.31737	75.67131	121.23683	-128.55986	-7.32303	4.88202	-515.05311	-689.17849	-595.60644	-169.24336	-343.36874	0
487	-163.54767	-91.94471	69.16195	117.16848	-118.79582	-11.39138	-2.44101	-527.25816	-698.94253	-598.04745	-165.98868	-341.7414	0
488	-152.96996	-87.87636	65.0936	113.10013	-109.03178	-13.83239	-8.1367	-534.58119	-703.82455	-598.86112	-162.734	-340.92773	0
489	-144.83326	-84.62168	61.83892	110.65912	-103.33609	-14.64606	-13.01872	-538.64954	-707.07923	-600.48846	-160.29299	-341.7414	0
490	-139.13757	-82.99434	57.77057	109.03178	-98.45407	-14.64606	-18.71441	-541.90422	-708.70657	-603.74314	-160.29299	-342.55507	0
491	-132.62821	-80.55333	52.88855	105.7771	-92.75838	-15.45973	-25.22377	-544.34523	-709.52024	-605.37048	-161.10666	-341.7414	0
492	-131.81454	-81.367	50.44754	106.59077	-91.94471	-16.2734	-30.91946	-545.1589	-707.8929	-603.74314	-161.92033	-339.30039	0
493	-139.95124	-87.06269	52.07488	113.9138	-95.19939	-17.08707	-36.61515	-545.97257	-704.63822	-598.04745	-161.92033	-335.23204	0
494	-152.15629	-95.19939	53.70222	123.67784	-100.08141	-18.71441	-42.31084	-545.97257	-699.7562	-589.09708	-159.47932	-329.53635	0
495	-162.734	-103.33609	55.32956	133.44188	-104.96343	-19.52808	-49.63387	-545.97257	-694.06051	-580.14671	-157.03831	-323.84066	0
496	-166.80235	-107.40444	55.32956	140.76491	-107.40444	-21.15542	-56.14323	-545.1589	-688.36482	-570.38267	-154.5973	-318.14497	0
497	-167.61602	-106.59077	56.9569	144.83326	-109.03178	-21.96909	-61.83892	-541.90422	-680.22812	-559.80496	-152.96996	-311.63561	0
498	-167.61602	-104.14976	60.21158	147.27427	-111.47279	-21.96909	-65.90727	-534.58119	-668.83674	-549.22725	-151.34262	-305.93992	0
499	-167.61602	-104.96343	63.46626	149.71528	-113.9138	-21.96909	-68.34828	-524.81715	-655.81802	-538.64954	-151.34262	-300.24423	0
500	-167.61602	-104.14976	64.27993	149.71528	-116.35481	-21.15542	-68.34828	-512.6121	-640.35829	-528.07183	-150.52895	-295.36221	0
501	-163.54767	-100.89508	61.83892	143.20592	-113.10013	-21.15542	-66.72094	-497.96604	-624.08489	-516.68045	-148.90161	-289.66652	0
502	-155.41097	-98.45407	53.70222	133.44188	-105.7771	-23.59643	-65.0936	-483.31998	-606.99782	-504.4754	-146.4606	-283.97083	0
503	-139.95124	-93.57205	43.93818	119.60949	-92.75838	-26.03744	-63.46626	-468.67392	-588.28341	-487.38833	-142.39225	-275.83413	0
504	-117.98215	-76.48498	34.17414	94.38572	-77.29865	-21.96909	-58.58424	-449.95951	-564.68698	-465.41924	-132.62821	-261.18807	0
505	-96.01306	-50.44754	24.4101	61.83892	-63.46626	-13.83239	-50.44754	-428.80409	-537.83587	-440.19547	-118.79582	-241.65999	0
506	-75.67131	-27.66478	19.52808	36.61515	-51.26121	-4.88202	-42.31084	-406.02133	-510.98476	-414.15803	-104.96343	-221.31824	0
507	-67.53461	-17.90074	24.4101	30.10579	-48.8202	2.44101	-34.17414	-384.05224	-483.31998	-387.30692	-91.94471	-202.60383	0
508	-74.85764	-21.15542	36.61515	39.05616	-56.9569	7.32303	-27.66478	-362.08315	-456.46887	-362.89682	-83.80801	-187.1441	0
509	-87.06269	-28.47845	48.8202	52.88855	-68.34828	9.76404	-22.78276	-340.11406	-432.05877	-341.7414	-78.11232	-175.75272	0
510	-96.82673	-33.36047	58.58424	62.65259	-78.11232	12.20505	-17.90074	-319.77231	-407.64867	-325.468	-75.67131	-169.24336	0
511	-102.52242	-34.17414	62.65259	65.90727	-85.43535	13.83239	-13.83239	-299.43056	-386.49325	-314.07662	-75.67131	-165.17501	0
512	-104.14976	-32.5468	63.46626	65.0936	-87.87636	15.45973	-9.76404	-280.71615	-364.52416	-300.24423	-76.48498	-161.10666	0
513	-103.33609	-30.10579	61.02525	64.27993	-87.87636	17.90074	-5.69569	-262.00174	-340.92773	-282.34349	-73.2303	-153.78363	0
514	-101.70875	-30.91946	56.14323	64.27993	-86.24902	17.90074	-1.62734	-244.101	-317.3313	-262.81541	-69.16195	-143.20592	0
515	-101.70875	-34.17414	51.26121	67.53461	-83.80801	13.01872	0	-229.45494	-297.80322	-246.54201	-65.0936	-134.25555	0
516	-101.70875	-38.24249	47.19286	71.60296	-78.92599	5.69569	0	-215.62255	-279.90248	-234.33696	-62.65259	-128.55986	0
517	-97.6404	-40.6835	42.31084	71.60296	-71.60296	0	2.44101	-200.16282	-261.18807	-222.94558	-61.83892	-122.86417	0
518	-87.87636	-42.31084	35.80148	66.72094	-63.46626	-4.06835	6.50936	-183.88942	-241.65999	-209.11319	-61.02525	-115.54114	0
519	-77.29865	-41.49717	29.29212	59.39791	-55.32956	-6.50936	9.76404	-166.80235	-220.50457	-192.02612	-60.21158	-108.21811	0
520	-69.16195	-37.42882	25.22377	52.07488	-49.63387	-6.50936	13.83239	-148.08794	-197.72181	-173.31171	-57.77057	-100.08141	0
521	-61.83892	-31.73313	24.4101	44.75185	-44.75185	-4.06835	19.52808	-127.74619	-174.93905	-153.78363	-54.51589	-91.13104	0
522	-56.14323	-27.66478	25.22377	39.86983	-41.49717	-1.62734	26.85111	-106.59077	-151.34262	-135.88289	-51.26121	-82.18067	0
523	-52.07488	-25.22377	25.22377	38.24249	-39.05616	-0.81367	33.36047	-87.06269	-129.37353	-121.23683	-48.8202	-74.85764	0
524	-50.44754	-26.85111	23.59643	38.24249	-37.42882	-1.62734	36.61515	-72.41663	-111.47279	-109.03178	-47.19286	-69.16195	0
525	-50.44754	-31.73313	19.52808	40.6835	-34.98781	-6.50936	36.61515	-61.02525	-97.6404	-99.26774	-47.19286	-65.90727	0
526	-53.70222	-41.49717	11.39138	47.19286	-33.36047	-15.45973	34.17414	-52.88855	-87.06269	-90.31737	-48.8202	-63.46626	0
527	-60.21158	-54.51589	4.06835	56.9569	-31.73313	-25.22377	30.91946	-44.75185	-76.48498	-80.55333	-51.26121	-61.02525	0
528	-63.46626	-61.02525	0.81367	61.83892	-30.91946	-30.10579	31.73313	-33.36047	-61.02525	-67.53461	-51.26121	-54.51589	0
529	-60.21158	-49.63387	4.06835	51.26121	-31.73313	-21.96909	40.6835	-13.83239	-39.05616	-48.00653	-43.93818	-41.49717	0
530	-53.70222	-25.22377	11.39138	29.29212	-33.36047	-6.50936	56.14323	10.57771	-13.01872	-25.22377	-32.5468	-25.22377	0
531	-44.75185	-6.50936	20.34175	10.57771	-33.36047	5.69569	71.60296	34.17414	11.39138	-4.88202	-22.78276	-12.20505	0
532	-38.24249	3.25468	27.66478	4.06835	-34.17414	13.83239	81.367	52.07488	30.91946	9.76404	-17.08707	-4.88202	0
533	-38.24249	8.1367	34.17414	7.32303	-36.61515	20.34175	85.43535	62.65259	44.75185	20.34175	-14.64606	-1.62734	0
534	-40.6835	8.95037	40.6835	13.83239	-40.6835	23.59643	86.24902	69.97562	55.32956	29.29212	-13.01872	0	0
535	-40.6835	8.1367	45.56552	15.45973	-42.31084	22.78276	87.06269	77.29865	65.90727	37.42882	-12.20505	3.25468	0
536	-32.5468	6.50936	43.12451	10.57771	-37.42882	21.15542	88.69003	83.80801	75.67131	44.75185	-10.57771	4.88202	0
537	-23.59643	4.88202	34.98781	5.69569	-28.47845	17.90074	87.87636	87.87636	82.99434	50.44754	-10.57771	4.88202	0
538	-18.71441	3.25468	26.85111	4.88202	-21.15542	14.64606	85.43535	91.94471	88.69003	53.70222	-13.01872	4.88202	0
539	-18.71441	0.81367	22.78276	7.32303	-18.71441	11.39138	84.62168	96.82673	96.01306	58.58424	-16.2734	5.69569	0
540	-19.52808	-1.62734	21.96909	12.20505	-19.52808	8.1367	84.62168	104.14976	105.7771	66.72094	-16.2734	7.32303	0
541	-21.15542	-4.88202	21.96909	15.45973	-20.34175	5.69569	86.24902	113.9138	117.16848	76.48498	-14.64606	9.76404	0
542	-21.96909	-6.50936	20.34175	16.2734	-20.34175	3.25468	88.69003	122.0505	127.74619	84.62168	-11.39138	13.83239	0
543	-21.96909	-8.95037	17.08707	16.2734	-18.71441	0.81367	89.5037	129.37353	136.69656	91.13104	-8.1367	17.08707	0
544	-21.15542	-11.39138	13.01872	16.2734	-17.08707	-0.81367	90.31737	134.25555	144.01959	96.82673	-5.69569	21.96909	0
545	-21.96909	-13.83239	10.57771	17.90074	-17.08707	-3.25468	89.5037	135.06922	148.08794	101.70875	-3.25468	25.22377	0
546	-24.4101	-16.2734	8.95037	20.34175	-18.71441	-4.06835	87.06269	134.25555	148.90161	104.96343	-1.62734	26.85111	0
547	-26.85111	-18.71441	8.1367	22.78276	-21.15542	-6.50936	84.62168	133.44188	150.52895	108.21811	-0.81367	26.85111	0
548	-28.47845	-17.90074	9.76404	24.4101	-22.78276	-9.76404	82.18067	135.06922	152.96996	110.65912	0	26.03744	0
549	-30.10579	-17.90074	12.20505	24.4101	-22.78276	-12.20505	78.11232	136.69656	157.03831	112.28646	-0.81367	25.22377	0
550	-37.42882	-25.22377	15.45973	31.73313	-26.85111	-17.90074	69.97562	134.25555	155.41097	108.21811	-7.32303	21.15542	0
551	-52.88855	-41.49717	16.2734	48.00653	-34.17414	-26.03744	58.58424	128.55986	151.34262	102.52242	-17.90074	13.83239	0
552	-56.9569	-45.56552	17.08707	51.26121	-34.98781	-26.03744	55.32956	129.37353	153.78363	100.89508	-21.96909	12.20505	0
553	-40.6835	-28.47845	17.08707	34.17414	-26.85111	-13.01872	61.02525	138.3239	164.36134	107.40444	-17.90074	17.90074	0
554	-19.52808	-2.44101	15.45973	12.20505	-17.08707	2.44101	69.97562	148.90161	176.56639	116.35481	-10.57771	25.22377	0
555	-2.44101	19.52808	11.39138	-4.06835	-7.32303	16.2734	74.85764	156.22464	184.70309	126.11885	-4.88202	30.91946	0
556	15.45973	30.91946	7.32303	-17.08707	3.25468	26.85111	76.48498	160.29299	189.58511	135.06922	0	38.24249	0
557	35.80148	30.91946	4.06835	-26.03744	15.45973	31.73313	76.48498	161.10666	192.83979	142.39225	4.88202	45.56552	0
558	50.44754	30.91946	-0.81367	-34.17414	24.4101	33.36047	74.04397	161.92033	195.2808	145.64693	8.1367	49.63387	0
559	55.32956	35.80148	-8.1367	-42.31084	29.29212	32.5468	74.04397	164.36134	199.34915	146.4606	10.57771	52.07488	0
560	53.70222	37.42882	-11.39138	-44.75185	30.10579	30.91946	78.92599	171.68437	207.48585	150.52895	17.08707	57.77057	0
561	51.26121	34.17414	-6.50936	-39.86983	26.85111	29.29212	87.87636	183.88942	218.06356	157.85198	26.85111	65.90727	0
562	42.31084	30.10579	0	-32.5468	18.71441	26.03744	94.38572	192.02612	226.20026	164.36134	33.36047	70.78929	0
563	27.66478	25.22377	6.50936	-23.59643	8.1367	21.96909	94.38572	194.46713	229.45494	165.98868	33.36047	71.60296	0
564	13.01872	19.52808	12.20505	-14.64606	0	17.08707	89.5037	190.39878	227.01393	164.36134	30.10579	70.78929	0
565	2.44101	13.83239	14.64606	-7.32303	-5.69569	13.01872	82.18067	183.88942	222.13191	161.10666	23.59643	68.34828	0
566	-2.44101	7.32303	15.45973	-1.62734	-7.32303	7.32303	74.04397	175.75272	213.99521	156.22464	17.08707	64.27993	0
567	-5.69569	1.62734	14.64606	1.62734	-8.1367	1.62734	68.34828	169.24336	206.67218	151.34262	13.01872	60.21158	0
568	-8.95037	-1.62734	11.39138	6.50936	-9.76404	-1.62734	64.27993	165.98868	202.60383	148.90161	10.57771	56.9569	0
569	-11.39138	-4.88202	4.06835	9.76404	-8.95037	-4.06835	62.65259	163.54767	200.16282	146.4606	8.95037	55.32956	0
570	-6.50936	-5.69569	-3.25468	7.32303	-4.06835	-5.69569	63.46626	164.36134	200.16282	144.83326	8.95037	54.51589	0
571	4.06835	-4.88202	-13.83239	0.81367	5.69569	-7.32303	65.0936	165.98868	200.16282	142.39225	8.95037	53.70222	0
572	17.90074	-3.25468	-25.22377	-6.50936	18.71441	-9.76404	64.27993	165.17501	199.34915	137.51023	8.1367	51.26121	0
573	30.10579	-1.62734	-34.17414	-13.83239	30.91946	-13.01872	61.83892	164.36134	197.72181	133.44188	6.50936	48.00653	0
574	36.61515	0	-37.42882	-18.71441	35.80148	-14.64606	59.39791	162.734	196.90814	130.1872	4.88202	44.75185	0
575	29.29212	0	-30.91946	-13.83239	30.10579	-14.64606	56.9569	161.92033	196.09447	130.1872	3.25468	43.93818	0
576	10.57771	-1.62734	-19.52808	-1.62734	17.08707	-13.01872	54.51589	160.29299	196.09447	131.00087	1.62734	44.75185	0
577	-6.50936	-4.06835	-7.32303	8.95037	4.06835	-10.57771	53.70222	159.47932	196.09447	133.44188	2.44101	48.00653	0
578	-15.45973	-1.62734	2.44101	12.20505	-4.06835	-3.25468	54.51589	158.66565	195.2808	135.88289	5.69569	54.51589	0
579	-13.83239	5.69569	9.76404	5.69569	-9.76404	7.32303	55.32956	159.47932	196.09447	138.3239	10.57771	61.83892	0
580	-8.95037	13.01872	14.64606	-0.81367	-12.20505	15.45973	57.77057	160.29299	196.09447	141.57858	13.01872	65.90727	0
581	-2.44101	16.2734	13.83239	-5.69569	-9.76404	17.08707	58.58424	161.10666	196.90814	143.20592	13.01872	65.90727	0
582	6.50936	16.2734	8.1367	-8.1367	-1.62734	13.01872	57.77057	161.10666	195.2808	141.57858	11.39138	61.83892	0
583	15.45973	12.20505	1.62734	-10.57771	8.1367	7.32303	56.14323	160.29299	193.65346	138.3239	8.1367	55.32956	0
584	18.71441	4.88202	-3.25468	-12.20505	14.64606	0	52.07488	158.66565	192.02612	134.25555	4.06835	48.00653	0
585	13.83239	0	-3.25468	-10.57771	12.20505	-0.81367	49.63387	156.22464	188.77144	131.81454	2.44101	45.56552	0
586	6.50936	-4.06835	3.25468	-7.32303	4.06835	1.62734	48.8202	153.78363	184.70309	132.62821	4.06835	47.19286	0
587	-0.81367	-4.88202	11.39138	-4.06835	-3.25468	5.69569	48.8202	150.52895	183.88942	135.06922	5.69569	49.63387	0
588	-6.50936	-4.06835	15.45973	0	-8.95037	6.50936	47.19286	146.4606	182.26208	135.88289	7.32303	51.26121	0
589	-9.76404	-4.06835	13.01872	3.25468	-8.95037	4.06835	45.56552	142.39225	179.0074	131.81454	7.32303	52.07488	0
590	-10.57771	-6.50936	5.69569	4.88202	-5.69569	0	44.75185	137.51023	174.12538	126.11885	5.69569	51.26121	0
591	-9.76404	-8.1367	-0.81367	6.50936	-2.44101	-4.88202	45.56552	135.88289	170.8707	120.42316	3.25468	48.8202	0
592	-6.50936	-8.1367	-5.69569	7.32303	0	-7.32303	47.19286	135.88289	169.24336	116.35481	0.81367	46.37919	0
593	-4.06835	-4.06835	-8.95037	8.1367	4.88202	-7.32303	48.8202	138.3239	170.05703	113.9138	-0.81367	43.93818	0
594	-1.62734	0	-9.76404	8.1367	7.32303	-4.88202	48.8202	139.13757	170.05703	110.65912	-2.44101	41.49717	0
595	-2.44101	1.62734	-7.32303	7.32303	3.25468	-1.62734	46.37919	137.51023	168.42969	107.40444	-4.06835	39.05616	0
596	-5.69569	3.25468	-1.62734	6.50936	-1.62734	0	43.12451	134.25555	165.98868	104.96343	-4.88202	36.61515	0
597	-4.88202	3.25468	0	4.88202	-2.44101	0	39.86983	131.00087	165.17501	104.14976	-4.06835	36.61515	0
598	1.62734	4.06835	-1.62734	3.25468	2.44101	-1.62734	38.24249	128.55986	164.36134	104.14976	-0.81367	36.61515	0
599	8.95037	3.25468	-5.69569	0.81367	9.76404	-5.69569	38.24249	126.93252	163.54767	104.14976	1.62734	36.61515	0
600	13.01872	0.81367	-10.57771	-2.44101	15.45973	-11.39138	38.24249	124.49151	161.10666	100.89508	3.25468	35.80148	0
601	15.45973	-3.25468	-14.64606	-5.69569	17.90074	-16.2734	39.05616	122.86417	158.66565	96.82673	1.62734	34.17414	0
602	16.2734	-9.76404	-18.71441	-8.1367	16.2734	-20.34175	39.05616	123.67784	156.22464	93.57205	-0.81367	32.5468	0
603	14.64606	-14.64606	-20.34175	-7.32303	12.20505	-22.78276	36.61515	125.30518	155.41097	91.94471	-5.69569	28.47845	0
604	10.57771	-17.90074	-17.90074	-3.25468	10.57771	-22.78276	33.36047	126.11885	156.22464	91.13104	-9.76404	26.03744	0
605	8.1367	-14.64606	-11.39138	-0.81367	11.39138	-17.08707	30.91946	126.11885	157.03831	92.75838	-10.57771	26.85111	0
606	10.57771	-4.88202	-5.69569	-7.32303	14.64606	-8.95037	30.10579	125.30518	158.66565	95.19939	-6.50936	30.91946	0
607	19.52808	5.69569	-1.62734	-17.90074	17.08707	0	30.91946	125.30518	160.29299	98.45407	-1.62734	37.42882	0
608	26.85111	15.45973	0	-27.66478	19.52808	5.69569	30.10579	123.67784	160.29299	100.89508	2.44101	43.12451	0
609	30.91946	17.08707	-4.06835	-30.91946	21.15542	5.69569	27.66478	116.35481	154.5973	97.6404	2.44101	43.93818	0
610	32.5468	10.57771	-16.2734	-31.73313	25.22377	-2.44101	21.15542	106.59077	145.64693	88.69003	-3.25468	38.24249	0
611	37.42882	4.88202	-30.10579	-32.5468	33.36047	-12.20505	16.2734	99.26774	139.13757	81.367	-10.57771	31.73313	0
612	40.6835	4.06835	-37.42882	-30.91946	37.42882	-17.08707	16.2734	98.45407	137.51023	76.48498	-13.01872	27.66478	0
613	34.17414	4.88202	-30.91946	-25.22377	30.91946	-13.01872	21.15542	103.33609	140.76491	74.04397	-10.57771	28.47845	0
614	24.4101	8.95037	-15.45973	-19.52808	18.71441	-4.88202	27.66478	110.65912	146.4606	74.04397	-4.06835	33.36047	0
615	16.2734	13.83239	-1.62734	-16.2734	8.95037	2.44101	32.5468	115.54114	151.34262	75.67131	1.62734	38.24249	0
616	11.39138	17.90074	5.69569	-14.64606	2.44101	8.1367	33.36047	117.16848	152.15629	77.29865	5.69569	42.31084	0
617	8.95037	21.15542	9.76404	-14.64606	-0.81367	12.20505	31.73313	115.54114	148.90161	77.29865	8.1367	45.56552	0
618	10.57771	23.59643	10.57771	-16.2734	-5.69569	15.45973	29.29212	112.28646	143.20592	75.67131	8.95037	48.00653	0
619	13.01872	24.4101	10.57771	-18.71441	-7.32303	17.08707	26.85111	109.03178	138.3239	73.2303	8.1367	48.8202	0
620	14.64606	24.4101	9.76404	-19.52808	-4.88202	17.08707	26.03744	105.7771	135.88289	73.2303	6.50936	48.8202	0
621	15.45973	21.15542	7.32303	-19.52808	-2.44101	13.83239	26.03744	105.7771	135.06922	72.41663	4.06835	47.19286	0
622	17.08707	16.2734	4.06835	-19.52808	0	9.76404	27.66478	109.03178	136.69656	73.2303	0.81367	44.75185	0
623	20.34175	14.64606	0	-21.96909	4.88202	6.50936	29.29212	114.72747	141.57858	74.85764	-1.62734	41.49717	0
624	24.4101	15.45973	-3.25468	-23.59643	10.57771	4.88202	30.10579	117.98215	144.83326	75.67131	-3.25468	39.86983	0
625	29.29212	17.90074	-6.50936	-26.85111	16.2734	5.69569	28.47845	116.35481	143.20592	74.04397	-5.69569	38.24249	0
626	34.98781	22.78276	-8.1367	-30.91946	20.34175	6.50936	24.4101	111.47279	139.13757	70.78929	-8.1367	36.61515	0
627	41.49717	28.47845	-8.95037	-35.80148	23.59643	7.32303	20.34175	104.14976	134.25555	67.53461	-10.57771	35.80148	0
628	44.75185	30.91946	-8.95037	-39.86983	25.22377	5.69569	16.2734	96.82673	129.37353	64.27993	-11.39138	35.80148	0
629	40.6835	31.73313	-7.32303	-40.6835	23.59643	4.06835	13.01872	91.13104	125.30518	62.65259	-12.20505	35.80148	0
630	31.73313	30.10579	-5.69569	-40.6835	19.52808	4.06835	13.01872	88.69003	123.67784	62.65259	-11.39138	35.80148	0
631	24.4101	30.10579	-3.25468	-39.05616	16.2734	7.32303	17.08707	91.94471	125.30518	63.46626	-8.95037	37.42882	0
632	21.96909	31.73313	0	-37.42882	14.64606	12.20505	23.59643	99.26774	130.1872	66.72094	-4.88202	40.6835	0
633	24.4101	33.36047	1.62734	-37.42882	14.64606	16.2734	30.91946	108.21811	135.88289	69.16195	-1.62734	43.12451	0
634	30.10579	35.80148	2.44101	-39.05616	13.01872	19.52808	35.80148	114.72747	140.76491	70.78929	0	44.75185	0
635	35.80148	34.17414	0.81367	-37.42882	8.95037	17.90074	38.24249	117.98215	142.39225	70.78929	1.62734	47.19286	0
636	37.42882	27.66478	-2.44101	-30.91946	7.32303	13.01872	38.24249	116.35481	140.76491	69.16195	2.44101	49.63387	0
637	37.42882	22.78276	-5.69569	-26.03744	9.76404	8.1367	36.61515	114.72747	139.13757	69.16195	4.88202	52.07488	0
638	35.80148	21.96909	-5.69569	-25.22377	13.01872	8.1367	34.98781	112.28646	138.3239	71.60296	8.95037	55.32956	0
639	33.36047	23.59643	-5.69569	-26.03744	15.45973	8.95037	33.36047	110.65912	138.3239	73.2303	12.20505	57.77057	0
640	30.91946	22.78276	-4.88202	-25.22377	16.2734	8.95037	32.5468	109.84545	137.51023	74.85764	13.83239	58.58424	0
641	24.4101	19.52808	-4.88202	-21.15542	14.64606	7.32303	32.5468	109.84545	136.69656	73.2303	12.20505	56.14323	0
642	14.64606	13.01872	-5.69569	-13.01872	13.83239	4.06835	34.17414	109.03178	133.44188	68.34828	6.50936	52.07488	0
643	5.69569	7.32303	-6.50936	-3.25468	12.20505	0.81367	34.98781	106.59077	131.00087	61.83892	-1.62734	47.19286	0
644	2.44101	3.25468	-4.88202	0.81367	10.57771	-1.62734	34.17414	105.7771	128.55986	56.9569	-8.95037	42.31084	-1250	T-0
645	3.25468	1.62734	-3.25468	0	9.76404	-4.06835	33.36047	104.96343	127.74619	56.14323	-12.20505	39.86983	0
646	4.88202	3.25468	-1.62734	-2.44101	8.1367	-4.88202	32.5468	104.96343	128.55986	56.9569	-11.39138	40.6835	0
647	3.25468	3.25468	0	-2.44101	6.50936	-4.06835	33.36047	104.14976	129.37353	58.58424	-8.1367	42.31084	0
648	0	1.62734	2.44101	0	4.88202	-2.44101	34.17414	103.33609	128.55986	60.21158	-5.69569	44.75185	0
649	-0.81367	2.44101	4.88202	0	2.44101	0.81367	38.24249	104.96343	127.74619	63.46626	-1.62734	49.63387	0
650	3.25468	8.1367	8.1367	-4.06835	0.81367	7.32303	45.56552	108.21811	127.74619	68.34828	2.44101	54.51589	0
651	6.50936	13.83239	8.95037	-8.95037	0	11.39138	52.88855	113.10013	130.1872	71.60296	4.06835	56.14323	0
652	8.95037	17.08707	8.1367	-12.20505	0	12.20505	59.39791	117.98215	135.88289	74.85764	3.25468	54.51589	0
653	20.34175	24.4101	5.69569	-21.96909	6.50936	13.83239	67.53461	124.49151	141.57858	74.85764	2.44101	52.88855	0
654	41.49717	37.42882	1.62734	-40.6835	21.15542	16.2734	74.85764	131.81454	144.83326	74.04397	4.06835	53.70222	0
655	61.83892	50.44754	-2.44101	-56.9569	34.98781	19.52808	78.92599	135.88289	148.08794	74.04397	4.88202	54.51589	0
656	71.60296	56.14323	-1.62734	-66.72094	36.61515	22.78276	80.55333	136.69656	150.52895	75.67131	4.88202	54.51589	0
657	69.16195	55.32956	6.50936	-69.16195	26.03744	30.10579	82.18067	136.69656	152.15629	78.11232	6.50936	56.9569	0
658	58.58424	59.39791	17.08707	-68.34828	17.08707	43.12451	87.87636	138.3239	156.22464	83.80801	12.20505	64.27993	0
659	52.88855	73.2303	26.85111	-70.78929	13.83239	57.77057	95.19939	144.01959	162.734	93.57205	21.15542	75.67131	0
660	57.77057	89.5037	32.5468	-78.11232	14.64606	68.34828	101.70875	149.71528	168.42969	101.70875	27.66478	86.24902	0
661	64.27993	100.89508	34.98781	-85.43535	18.71441	73.2303	103.33609	154.5973	172.49804	107.40444	32.5468	92.75838	0
662	67.53461	104.96343	35.80148	-90.31737	20.34175	73.2303	100.08141	159.47932	177.38006	109.84545	36.61515	96.01306	0
663	69.97562	107.40444	35.80148	-93.57205	19.52808	72.41663	92.75838	164.36134	182.26208	113.10013	42.31084	100.08141	0
664	71.60296	112.28646	39.05616	-96.01306	17.90074	74.85764	81.367	167.61602	186.33043	117.98215	49.63387	105.7771	0
665	78.92599	119.60949	43.12451	-102.52242	16.2734	78.92599	66.72094	168.42969	188.77144	123.67784	56.9569	111.47279	0
666	95.19939	132.62821	47.19286	-115.54114	16.2734	83.80801	49.63387	165.98868	190.39878	128.55986	63.46626	117.16848	0
667	108.21811	148.90161	49.63387	-129.37353	18.71441	91.94471	34.98781	161.92033	192.02612	133.44188	70.78929	124.49151	0
668	114.72747	161.10666	52.07488	-137.51023	21.15542	98.45407	21.15542	156.22464	192.83979	137.51023	79.73966	131.81454	0
669	117.16848	165.98868	52.07488	-141.57858	25.22377	103.33609	9.76404	150.52895	191.21245	140.76491	86.24902	138.3239	0
670	113.9138	162.734	49.63387	-137.51023	28.47845	104.96343	-0.81367	144.83326	187.1441	140.76491	89.5037	139.95124	0
671	107.40444	152.96996	44.75185	-129.37353	28.47845	102.52242	-8.95037	142.39225	183.07575	139.13757	90.31737	138.3239	0
672	104.96343	142.39225	40.6835	-122.0505	30.91946	100.08141	-13.83239	143.20592	182.26208	137.51023	90.31737	135.06922	0
673	110.65912	135.06922	38.24249	-117.98215	35.80148	100.89508	-13.83239	144.01959	184.70309	135.88289	88.69003	131.81454	0
674	117.16848	131.00087	34.17414	-122.0505	41.49717	97.6404	-14.64606	146.4606	186.33043	133.44188	87.87636	131.00087	0
675	122.86417	128.55986	22.78276	-132.62821	49.63387	90.31737	-16.2734	147.27427	184.70309	129.37353	87.06269	131.00087	0
676	133.44188	129.37353	6.50936	-144.01959	61.83892	82.99434	-18.71441	146.4606	181.44841	126.93252	86.24902	131.00087	0
677	147.27427	134.25555	-4.88202	-152.96996	69.97562	78.92599	-18.71441	146.4606	181.44841	129.37353	87.87636	134.25555	0
678	157.85198	140.76491	-8.1367	-161.10666	74.85764	78.11232	-13.83239	147.27427	186.33043	138.3239	92.75838	141.57858	0
679	158.66565	146.4606	-1.62734	-161.92033	74.85764	78.11232	-6.50936	148.90161	192.02612	148.08794	97.6404	147.27427	0
680	150.52895	148.08794	5.69569	-154.5973	74.04397	76.48498	0	149.71528	195.2808	152.96996	100.08141	150.52895	0
681	140.76491	142.39225	8.95037	-144.01959	72.41663	74.04397	2.44101	148.90161	192.02612	148.90161	98.45407	148.08794	0
682	131.81454	132.62821	6.50936	-133.44188	69.97562	69.97562	3.25468	145.64693	184.70309	137.51023	91.94471	139.95124	0
683	123.67784	122.0505	2.44101	-122.86417	65.90727	65.90727	3.25468	142.39225	177.38006	125.30518	84.62168	131.00087	0
684	115.54114	113.9138	0.81367	-114.72747	60.21158	62.65259	5.69569	140.76491	172.49804	116.35481	78.92599	123.67784	0
685	100.08141	104.96343	1.62734	-103.33609	48.8202	61.02525	8.95037	139.13757	169.24336	111.47279	74.04397	118.79582	0
686	82.18067	96.82673	4.88202	-89.5037	34.17414	61.02525	13.01872	139.13757	166.80235	109.84545	71.60296	116.35481	0
687	70.78929	94.38572	10.57771	-82.99434	25.22377	62.65259	17.90074	137.51023	164.36134	108.21811	69.97562	115.54114	0
688	60.21158	89.5037	18.71441	-74.85764	17.08707	61.02525	20.34175	133.44188	159.47932	105.7771	65.0936	113.10013	0
689	46.37919	77.29865	24.4101	-61.02525	8.95037	54.51589	20.34175	126.93252	151.34262	100.08141	56.9569	106.59077	0
690	34.17414	64.27993	24.4101	-47.19286	4.06835	46.37919	21.96909	122.0505	144.01959	91.94471	47.19286	98.45407	0
691	26.03744	57.77057	20.34175	-36.61515	6.50936	39.05616	27.66478	120.42316	139.13757	84.62168	38.24249	89.5037	0
692	22.78276	51.26121	12.20505	-29.29212	12.20505	30.91946	34.98781	122.0505	136.69656	78.11232	30.91946	80.55333	0
693	22.78276	43.12451	4.06835	-26.03744	16.2734	21.96909	41.49717	123.67784	134.25555	69.97562	24.4101	70.78929	0
694	25.22377	33.36047	-0.81367	-25.22377	18.71441	13.83239	44.75185	122.86417	130.1872	61.02525	17.90074	61.83892	0
695	26.03744	24.4101	-4.88202	-22.78276	18.71441	8.1367	43.93818	117.98215	124.49151	53.70222	11.39138	54.51589	0
696	23.59643	17.08707	-6.50936	-19.52808	16.2734	4.88202	40.6835	111.47279	117.16848	48.8202	6.50936	49.63387	0
697	20.34175	12.20505	-5.69569	-15.45973	13.01872	3.25468	35.80148	103.33609	109.03178	44.75185	2.44101	45.56552	0
698	19.52808	8.95037	-6.50936	-13.01872	11.39138	1.62734	30.10579	94.38572	102.52242	42.31084	0.81367	43.93818	0
699	20.34175	6.50936	-9.76404	-12.20505	13.01872	0	26.85111	88.69003	96.82673	40.6835	0.81367	43.93818	0
700	20.34175	2.44101	-15.45973	-9.76404	16.2734	-5.69569	24.4101	85.43535	92.75838	39.05616	0	42.31084	0
701	13.83239	-4.06835	-19.52808	-2.44101	15.45973	-12.20505	23.59643	85.43535	89.5037	34.98781	-2.44101	39.05616	0
702	1.62734	-11.39138	-18.71441	7.32303	9.76404	-17.90074	25.22377	88.69003	87.87636	29.29212	-4.88202	34.98781	0
703	-7.32303	-17.90074	-16.2734	13.01872	2.44101	-19.52808	28.47845	93.57205	90.31737	25.22377	-6.50936	32.5468	0
704	-13.83239	-19.52808	-14.64606	13.01872	-1.62734	-19.52808	30.10579	96.82673	94.38572	24.4101	-8.1367	30.91946	0
705	-15.45973	-18.71441	-13.01872	10.57771	-4.88202	-18.71441	30.91946	98.45407	96.82673	25.22377	-8.1367	31.73313	0
706	-15.45973	-16.2734	-8.1367	8.1367	-6.50936	-15.45973	30.91946	99.26774	98.45407	28.47845	-7.32303	34.17414	0
707	-13.83239	-12.20505	-3.25468	6.50936	-5.69569	-10.57771	31.73313	99.26774	100.08141	34.17414	-4.06835	39.05616	0
708	-8.95037	-6.50936	0	3.25468	-4.06835	-4.06835	30.91946	97.6404	102.52242	40.6835	-0.81367	43.93818	0
709	1.62734	3.25468	0.81367	-4.88202	0.81367	1.62734	30.91946	96.01306	104.14976	46.37919	1.62734	48.00653	0
710	17.08707	14.64606	-1.62734	-16.2734	9.76404	5.69569	34.17414	95.19939	104.96343	48.8202	4.06835	50.44754	0
711	28.47845	21.15542	-5.69569	-24.4101	17.08707	7.32303	38.24249	97.6404	105.7771	48.8202	5.69569	50.44754	0
712	32.5468	22.78276	-8.95037	-27.66478	20.34175	6.50936	42.31084	101.70875	108.21811	47.19286	4.88202	48.00653	0
713	28.47845	18.71441	-8.95037	-23.59643	17.90074	4.06835	44.75185	107.40444	111.47279	44.75185	4.06835	44.75185	0
714	13.01872	8.1367	-4.88202	-11.39138	8.1367	2.44101	46.37919	113.10013	115.54114	42.31084	4.06835	43.12451	0
715	-1.62734	-3.25468	-0.81367	1.62734	0	0.81367	44.75185	113.9138	116.35481	41.49717	3.25468	42.31084	0
716	-4.06835	-6.50936	-0.81367	4.06835	-4.06835	0	41.49717	109.03178	113.10013	42.31084	3.25468	42.31084	0
717	4.06835	0	-5.69569	-3.25468	-3.25468	0	33.36047	97.6404	106.59077	43.93818	4.88202	45.56552	0
718	13.01872	9.76404	-8.1367	-13.83239	0	2.44101	18.71441	75.67131	92.75838	45.56552	8.95037	52.07488	0
719	17.08707	21.96909	0	-21.96909	0.81367	12.20505	-4.06835	40.6835	73.2303	48.8202	20.34175	64.27993	0
720	19.52808	43.12451	20.34175	-31.73313	-6.50936	32.5468	-40.6835	-13.01872	43.93818	54.51589	42.31084	87.87636	0
721	20.34175	71.60296	48.00653	-46.37919	-17.08707	60.21158	-94.38572	-93.57205	1.62734	61.02525	71.60296	120.42316	0
722	21.96909	96.82673	72.41663	-60.21158	-26.03744	84.62168	-162.734	-200.97649	-56.9569	67.53461	100.89508	152.96996	0
723	25.22377	106.59077	81.367	-65.0936	-29.29212	93.57205	-234.33696	-323.84066	-131.00087	66.72094	122.0505	174.12538	0
724	28.47845	93.57205	68.34828	-60.21158	-21.15542	80.55333	-291.29386	-439.3818	-204.23117	55.32956	126.93252	177.38006	0
725	28.47845	61.83892	36.61515	-44.75185	-4.06835	48.8202	-327.90901	-526.44449	-259.56073	42.31084	117.98215	166.80235	0
726	21.15542	22.78276	-0.81367	-23.59643	11.39138	7.32303	-358.0148	-589.91075	-296.98955	27.66478	100.08141	148.08794	0
727	10.57771	-9.76404	-36.61515	-6.50936	24.4101	-32.5468	-396.25729	-640.35829	-325.468	14.64606	84.62168	130.1872	0
728	8.1367	-32.5468	-63.46626	2.44101	37.42882	-60.21158	-460.53722	-693.24684	-347.43709	8.1367	82.18067	125.30518	0
729	22.78276	-39.86983	-82.18067	0.81367	53.70222	-70.78929	-567.94166	-766.47714	-371.84719	9.76404	100.08141	139.95124	0
730	54.51589	-26.03744	-94.38572	-17.90074	74.85764	-66.72094	-719.28428	-873.06791	-406.02133	14.64606	135.88289	171.68437	0
731	100.89508	5.69569	-102.52242	-55.32956	101.70875	-51.26121	-901.54636	-1012.20548	-453.21419	21.15542	188.77144	219.6909	0
732	157.03831	53.70222	-105.7771	-105.7771	130.1872	-26.85111	-1100.89551	-1170.05746	-508.54375	26.03744	253.05137	277.46147	0
733	212.36787	105.7771	-106.59077	-159.47932	158.66565	0	-1296.98998	-1318.95907	-566.31432	28.47845	317.3313	330.35002	0
734	267.69743	152.96996	-113.9138	-204.23117	189.58511	19.52808	-1462.97866	-1430.43186	-620.01654	17.90074	369.40618	362.08315	0
735	316.51763	191.21245	-125.30518	-235.15063	221.31824	32.5468	-1595.60687	-1503.66216	-676.97344	-28.47845	401.95298	359.64214	0
736	343.36874	209.92686	-138.3239	-253.86504	244.91467	35.80148	-1701.38397	-1556.55071	-754.27209	-129.37353	403.58032	307.56726	0
737	349.8781	196.09447	-160.29299	-255.49238	257.11972	17.90074	-1778.68262	-1598.04788	-855.16717	-287.22551	359.64214	196.90814	0
738	343.36874	149.71528	-199.34915	-235.9643	265.25642	-24.4101	-1824.24814	-1628.15367	-969.89464	-484.13365	269.32477	33.36047	0
739	322.21332	79.73966	-247.35568	-195.2808	273.39312	-82.99434	-1850.28558	-1652.56377	-1089.50413	-688.36482	151.34262	-150.52895	0
740	285.59817	6.50936	-282.34349	-144.01959	273.39312	-136.69656	-1869.81366	-1678.60121	-1208.29995	-869.81323	36.61515	-316.51763	0
741	237.59164	-52.07488	-292.10753	-91.94471	257.11972	-171.68437	-1883.64605	-1720.09838	-1332.79146	-1015.46016	-55.32956	-442.63648	0
742	181.44841	-95.19939	-278.27514	-43.12451	225.38659	-187.1441	-1882.83238	-1768.10491	-1468.67435	-1120.42359	-126.11885	-524.00348	0
743	121.23683	-122.0505	-244.101	-0.81367	180.63474	-183.07575	-1856.79494	-1803.90639	-1600.48889	-1184.70352	-178.19373	-565.50065	0
744	69.16195	-124.49151	-193.65346	25.22377	131.00087	-159.47932	-1796.58336	-1824.24814	-1692.4336	-1215.62298	-205.85851	-578.51937	0
745	34.98781	-100.08141	-137.51023	29.29212	87.06269	-119.60949	-1698.94296	-1807.16107	-1716.8437	-1213.18197	-209.92686	-567.94166	0
746	17.90074	-61.02525	-85.43535	17.08707	56.14323	-74.04397	-1567.12842	-1729.86242	-1668.83717	-1169.24379	-195.2808	-535.39486	0
747	14.64606	-22.78276	-43.93818	0	34.17414	-33.36047	-1406.02176	-1593.97953	-1557.36438	-1090.3178	-172.49804	-486.57466	0
748	21.96909	8.95037	-13.83239	-16.2734	20.34175	-1.62734	-1222.13234	-1408.46277	-1397.07139	-983.72703	-147.27427	-428.80409	0
749	33.36047	38.24249	6.50936	-34.17414	13.01872	22.78276	-1018.71484	-1187.14453	-1200.16325	-855.98084	-122.86417	-366.1515	0
750	40.6835	61.83892	26.85111	-50.44754	4.88202	46.37919	-804.71963	-947.11188	-982.91336	-714.40226	-100.08141	-299.43056	0
751	39.86983	74.85764	47.19286	-60.21158	-5.69569	66.72094	-593.9791	-706.26556	-763.22246	-569.569	-78.92599	-232.70962	0
752	30.10579	78.92599	63.46626	-60.21158	-17.90074	78.11232	-401.95298	-484.13365	-558.17762	-434.49978	-62.65259	-172.49804	0
753	18.71441	74.04397	66.72094	-52.07488	-25.22377	75.67131	-238.40531	-292.10753	-379.17022	-318.14497	-52.07488	-122.86417	0
754	9.76404	56.9569	56.14323	-36.61515	-24.4101	59.39791	-105.7771	-134.25555	-231.08228	-224.57292	-47.19286	-86.24902	0
755	4.06835	26.03744	32.5468	-14.64606	-17.90074	30.91946	-5.69569	-9.76404	-113.9138	-152.15629	-47.19286	-61.02525	0
756	0.81367	-8.95037	3.25468	8.1367	-6.50936	-1.62734	63.46626	80.55333	-26.85111	-99.26774	-49.63387	-45.56552	0
757	0	-37.42882	-23.59643	24.4101	5.69569	-30.91946	110.65912	142.39225	33.36047	-61.83892	-52.07488	-34.17414	0
758	-0.81367	-52.88855	-42.31084	31.73313	13.83239	-48.00653	139.13757	183.07575	74.85764	-35.80148	-52.07488	-26.03744	0
759	-2.44101	-55.32956	-48.00653	32.5468	17.08707	-51.26121	158.66565	209.92686	104.14976	-17.08707	-48.00653	-17.08707	0
760	-3.25468	-48.00653	-43.12451	28.47845	18.71441	-45.56552	174.12538	230.26861	126.93252	-0.81367	-40.6835	-7.32303	0
761	-3.25468	-38.24249	-34.98781	21.96909	19.52808	-36.61515	188.77144	250.61036	147.27427	13.01872	-32.5468	1.62734	0
762	0	-30.10579	-28.47845	15.45973	20.34175	-30.91946	200.97649	270.13844	167.61602	25.22377	-27.66478	8.1367	0
763	4.06835	-24.4101	-24.4101	8.95037	20.34175	-26.85111	213.18154	289.66652	187.95777	35.80148	-23.59643	13.01872	0
764	10.57771	-18.71441	-23.59643	3.25468	21.15542	-24.4101	223.75925	307.56726	206.67218	46.37919	-20.34175	17.90074	0
765	15.45973	-15.45973	-25.22377	-0.81367	21.96909	-23.59643	231.89595	321.39965	222.13191	56.9569	-17.90074	22.78276	0
766	16.2734	-13.01872	-30.10579	-4.88202	24.4101	-25.22377	236.77797	331.16369	233.52329	65.90727	-15.45973	26.85111	0
767	15.45973	-10.57771	-36.61515	-8.95037	26.85111	-26.03744	239.21898	336.04571	241.65999	74.04397	-13.01872	30.10579	0
768	17.90074	-10.57771	-41.49717	-13.01872	28.47845	-27.66478	238.40531	337.67305	247.35568	79.73966	-10.57771	33.36047	0
769	22.78276	-13.83239	-43.12451	-17.08707	28.47845	-29.29212	237.59164	338.48672	250.61036	84.62168	-8.95037	35.80148	0
770	28.47845	-13.83239	-43.12451	-20.34175	28.47845	-28.47845	239.21898	340.11406	253.86504	87.87636	-7.32303	36.61515	0
771	30.91946	-9.76404	-40.6835	-20.34175	27.66478	-25.22377	243.28733	346.62342	260.3744	91.13104	-7.32303	36.61515	0
772	30.91946	-6.50936	-37.42882	-17.90074	26.03744	-23.59643	248.98302	353.94645	267.69743	93.57205	-8.1367	34.98781	0
773	27.66478	-6.50936	-35.80148	-13.83239	25.22377	-23.59643	253.05137	361.26948	275.02046	94.38572	-8.95037	33.36047	0
774	24.4101	-8.1367	-35.80148	-11.39138	26.03744	-24.4101	254.67871	366.96517	279.90248	94.38572	-9.76404	30.91946	0
775	21.15542	-10.57771	-37.42882	-10.57771	26.85111	-26.85111	254.67871	369.40618	283.15716	95.19939	-11.39138	29.29212	0
776	21.15542	-12.20505	-39.86983	-10.57771	28.47845	-29.29212	253.05137	370.21985	284.7845	96.82673	-11.39138	30.10579	0
777	25.22377	-13.83239	-42.31084	-9.76404	30.10579	-30.10579	252.2377	370.21985	285.59817	99.26774	-10.57771	31.73313	0
778	26.03744	-16.2734	-44.75185	-7.32303	30.91946	-31.73313	249.79669	367.77884	285.59817	102.52242	-8.1367	35.80148	0
779	21.15542	-24.4101	-46.37919	0	29.29212	-35.80148	248.16935	365.33783	283.97083	104.96343	-6.50936	39.86983	0
780	11.39138	-34.17414	-48.00653	11.39138	26.03744	-40.6835	248.16935	364.52416	282.34349	105.7771	-5.69569	41.49717	0
781	0.81367	-45.56552	-48.8202	22.78276	23.59643	-46.37919	248.98302	365.33783	281.52982	104.96343	-7.32303	39.86983	0
782	-5.69569	-53.70222	-52.88855	30.91946	22.78276	-52.88855	250.61036	367.77884	282.34349	103.33609	-10.57771	35.80148	0
783	-8.95037	-59.39791	-59.39791	35.80148	26.03744	-58.58424	252.2377	372.66086	283.97083	99.26774	-16.2734	30.91946	0
784	-8.95037	-63.46626	-66.72094	35.80148	30.10579	-63.46626	252.2377	375.91554	285.59817	96.01306	-20.34175	26.03744	0
785	-7.32303	-62.65259	-68.34828	31.73313	33.36047	-64.27993	250.61036	376.72921	286.41184	94.38572	-23.59643	22.78276	0
786	-8.1367	-58.58424	-64.27993	27.66478	30.91946	-59.39791	250.61036	378.35655	287.22551	96.82673	-24.4101	22.78276	0
787	-4.06835	-48.8202	-58.58424	22.78276	27.66478	-50.44754	253.86504	379.98389	289.66652	101.70875	-21.96909	26.03744	0
788	7.32303	-34.17414	-55.32956	10.57771	30.10579	-39.86983	258.74706	381.61123	292.10753	107.40444	-18.71441	30.91946	0
789	24.4101	-20.34175	-55.32956	-2.44101	37.42882	-34.17414	262.81541	384.05224	296.98955	113.9138	-12.20505	37.42882	0
790	38.24249	-13.83239	-59.39791	-11.39138	46.37919	-33.36047	262.81541	388.93426	301.87157	119.60949	-6.50936	43.12451	0
791	44.75185	-10.57771	-61.02525	-16.2734	52.07488	-34.17414	265.25642	393.00261	306.75359	122.86417	-3.25468	44.75185	0
792	47.19286	-3.25468	-57.77057	-21.96909	53.70222	-30.10579	273.39312	400.32564	313.26295	124.49151	-0.81367	45.56552	0
793	49.63387	4.88202	-51.26121	-26.03744	52.88855	-22.78276	284.7845	408.46234	321.39965	127.74619	2.44101	47.19286	0
794	50.44754	11.39138	-43.12451	-27.66478	48.8202	-16.2734	293.73487	415.78537	329.53635	131.00087	5.69569	48.8202	0
795	47.19286	13.01872	-36.61515	-27.66478	43.93818	-12.20505	300.24423	419.85372	333.6047	132.62821	7.32303	50.44754	0
796	41.49717	9.76404	-30.91946	-24.4101	37.42882	-10.57771	301.87157	419.04005	334.41837	131.81454	7.32303	49.63387	0
797	30.10579	3.25468	-26.03744	-15.45973	31.73313	-11.39138	300.24423	414.9717	331.16369	130.1872	7.32303	48.00653	0
798	17.08707	-4.88202	-22.78276	-5.69569	27.66478	-14.64606	296.17588	408.46234	326.28167	127.74619	6.50936	46.37919	0
799	8.1367	-10.57771	-21.96909	0	24.4101	-18.71441	292.9212	402.76665	319.77231	124.49151	5.69569	43.93818	0
800	4.88202	-16.2734	-22.78276	3.25468	22.78276	-24.4101	290.48019	399.51197	313.26295	120.42316	2.44101	39.86983	0
801	5.69569	-21.96909	-23.59643	4.88202	21.96909	-26.85111	290.48019	399.51197	310.00827	115.54114	0	35.80148	0
802	4.88202	-25.22377	-24.4101	6.50936	19.52808	-26.85111	293.73487	401.95298	310.82194	113.10013	-1.62734	32.5468	0
803	-1.62734	-29.29212	-21.96909	12.20505	12.20505	-26.03744	299.43056	406.835	314.07662	111.47279	-1.62734	30.10579	0
804	-13.83239	-35.80148	-15.45973	22.78276	1.62734	-23.59643	303.49891	410.90335	317.3313	111.47279	-0.81367	29.29212	0
805	-22.78276	-38.24249	-8.1367	29.29212	-4.88202	-21.15542	307.56726	414.15803	321.39965	113.10013	0	30.91946	0
806	-27.66478	-37.42882	-3.25468	31.73313	-8.1367	-19.52808	310.00827	414.15803	323.84066	116.35481	1.62734	32.5468	0
807	-32.5468	-35.80148	-2.44101	35.80148	-8.95037	-18.71441	310.00827	412.53069	323.84066	117.98215	2.44101	35.80148	0
808	-35.80148	-34.98781	-2.44101	38.24249	-9.76404	-19.52808	307.56726	410.90335	320.58598	117.98215	3.25468	39.86983	0
809	-34.17414	-33.36047	-4.06835	35.80148	-10.57771	-18.71441	305.12625	410.08968	317.3313	118.79582	4.06835	42.31084	0
810	-20.34175	-23.59643	-7.32303	23.59643	-7.32303	-15.45973	307.56726	409.27601	316.51763	118.79582	7.32303	43.93818	0
811	-0.81367	-8.95037	-12.20505	6.50936	-4.88202	-11.39138	314.07662	410.90335	316.51763	118.79582	10.57771	44.75185	0
812	9.76404	0	-13.01872	-4.06835	-2.44101	-8.1367	322.21332	413.34436	318.14497	117.98215	12.20505	44.75185	0
813	9.76404	1.62734	-8.95037	-6.50936	-2.44101	-5.69569	329.53635	416.59904	318.95864	114.72747	13.01872	43.12451	0
814	2.44101	0	-2.44101	-1.62734	-4.88202	-5.69569	331.97736	416.59904	316.51763	109.03178	11.39138	39.86983	0
815	-4.06835	-3.25468	4.06835	3.25468	-6.50936	-6.50936	331.97736	412.53069	310.82194	102.52242	8.95037	36.61515	0
816	-9.76404	-5.69569	8.95037	7.32303	-8.1367	-6.50936	331.16369	406.835	304.31258	96.82673	8.1367	34.98781	0
817	-13.01872	-6.50936	11.39138	9.76404	-8.1367	-2.44101	331.16369	401.13931	298.61689	95.19939	9.76404	34.17414	0
818	-14.64606	-4.88202	13.83239	9.76404	-6.50936	4.06835	332.79103	396.25729	294.54854	96.01306	12.20505	34.98781	0
819	-16.2734	-0.81367	16.2734	8.95037	-8.1367	11.39138	335.23204	391.37527	288.85285	96.82673	14.64606	35.80148	0
820	-20.34175	-0.81367	17.90074	10.57771	-13.83239	13.01872	335.23204	384.86591	279.90248	93.57205	13.83239	33.36047	0
821	-28.47845	-6.50936	19.52808	17.90074	-20.34175	9.76404	333.6047	377.54288	267.69743	86.24902	8.1367	26.85111	0
822	-36.61515	-14.64606	20.34175	26.03744	-25.22377	4.88202	331.16369	370.21985	256.30605	75.67131	1.62734	17.08707	0
823	-41.49717	-23.59643	17.90074	33.36047	-27.66478	-1.62734	328.72268	362.89682	244.91467	64.27993	-4.88202	7.32303	0
824	-43.12451	-32.5468	12.20505	39.05616	-27.66478	-9.76404	325.468	355.57379	234.33696	52.88855	-12.20505	-1.62734	0
825	-42.31084	-39.05616	6.50936	41.49717	-25.22377	-16.2734	321.39965	346.62342	222.13191	43.12451	-18.71441	-8.95037	0
826	-40.6835	-43.93818	0	43.12451	-21.15542	-20.34175	317.3313	336.04571	208.29952	34.17414	-22.78276	-16.2734	0
827	-43.12451	-51.26121	-4.06835	48.00653	-16.2734	-22.78276	313.26295	323.84066	194.46713	26.03744	-24.4101	-20.34175	0
828	-52.88855	-57.77057	-2.44101	55.32956	-13.01872	-23.59643	311.63561	313.26295	183.07575	21.15542	-23.59643	-21.96909	0
829	-59.39791	-56.14323	3.25468	58.58424	-11.39138	-20.34175	314.07662	304.31258	172.49804	18.71441	-21.15542	-20.34175	0
830	-53.70222	-40.6835	9.76404	48.00653	-11.39138	-10.57771	318.95864	298.61689	163.54767	16.2734	-17.90074	-18.71441	0
831	-40.6835	-21.15542	16.2734	30.91946	-13.83239	0	324.65433	294.54854	155.41097	12.20505	-16.2734	-17.90074	0
832	-29.29212	-7.32303	21.15542	19.52808	-17.08707	7.32303	328.72268	288.85285	145.64693	4.88202	-15.45973	-21.96909	0
833	-20.34175	-1.62734	23.59643	13.83239	-21.15542	10.57771	331.16369	281.52982	134.25555	-5.69569	-17.08707	-27.66478	0
834	-13.83239	0	22.78276	10.57771	-21.15542	9.76404	329.53635	270.13844	119.60949	-18.71441	-21.15542	-36.61515	0
835	-9.76404	0	19.52808	7.32303	-17.90074	8.1367	323.02699	254.67871	100.08141	-32.5468	-28.47845	-46.37919	0
836	-10.57771	-2.44101	18.71441	6.50936	-17.08707	8.1367	314.89029	235.15063	78.11232	-48.00653	-34.98781	-55.32956	0
837	-21.15542	-6.50936	24.4101	12.20505	-23.59643	10.57771	307.56726	215.62255	56.14323	-61.83892	-39.86983	-61.83892	0
838	-38.24249	-9.76404	34.98781	22.78276	-35.80148	13.83239	301.87157	195.2808	34.98781	-74.04397	-42.31084	-65.90727	0
839	-56.9569	-13.83239	45.56552	32.5468	-47.19286	16.2734	295.36221	174.93905	12.20505	-87.87636	-43.12451	-70.78929	0
840	-73.2303	-21.15542	50.44754	41.49717	-57.77057	15.45973	288.85285	152.96996	-11.39138	-104.96343	-47.19286	-78.92599	0
841	-80.55333	-29.29212	50.44754	47.19286	-63.46626	8.95037	280.71615	130.1872	-38.24249	-126.11885	-52.88855	-91.13104	0
842	-81.367	-37.42882	48.00653	52.88855	-62.65259	1.62734	272.57945	106.59077	-65.0936	-148.90161	-61.02525	-105.7771	0
843	-83.80801	-45.56552	45.56552	60.21158	-62.65259	-4.06835	265.25642	85.43535	-91.13104	-170.8707	-67.53461	-118.79582	0
844	-91.13104	-52.07488	44.75185	69.16195	-65.90727	-7.32303	258.74706	64.27993	-115.54114	-191.21245	-71.60296	-129.37353	0
845	-98.45407	-56.14323	46.37919	75.67131	-70.78929	-7.32303	251.42403	42.31084	-139.95124	-208.29952	-74.85764	-137.51023	0
846	-105.7771	-58.58424	50.44754	81.367	-77.29865	-4.88202	243.28733	18.71441	-165.98868	-226.20026	-77.29865	-144.83326	0
847	-115.54114	-61.83892	55.32956	88.69003	-84.62168	-3.25468	232.70962	-7.32303	-195.2808	-244.91467	-81.367	-152.96996	0
848	-124.49151	-69.16195	59.39791	96.01306	-93.57205	-4.06835	218.06356	-39.86983	-229.45494	-268.5111	-87.87636	-165.98868	0
849	-135.06922	-83.80801	61.83892	105.7771	-104.14976	-10.57771	200.16282	-77.29865	-268.5111	-296.98955	-97.6404	-183.07575	0
850	-148.08794	-100.89508	61.83892	119.60949	-113.10013	-19.52808	182.26208	-113.10013	-308.38093	-326.28167	-105.7771	-201.79016	0
851	-151.34262	-104.96343	59.39791	123.67784	-114.72747	-23.59643	170.05703	-142.39225	-340.92773	-352.31911	-112.28646	-218.06356	0
852	-139.95124	-91.94471	56.14323	113.9138	-111.47279	-19.52808	164.36134	-163.54767	-366.96517	-371.84719	-117.16848	-227.8276	0
853	-130.1872	-69.97562	54.51589	100.08141	-105.7771	-10.57771	161.92033	-181.44841	-388.93426	-388.93426	-118.79582	-235.15063	0
854	-127.74619	-51.26121	58.58424	87.87636	-100.89508	-1.62734	157.85198	-200.97649	-410.90335	-406.02133	-118.79582	-241.65999	0
855	-130.1872	-40.6835	64.27993	82.18067	-100.89508	4.88202	151.34262	-222.13191	-433.68611	-422.29473	-118.79582	-247.35568	0
856	-134.25555	-35.80148	69.16195	87.06269	-102.52242	9.76404	144.01959	-245.72834	-459.72355	-438.56813	-120.42316	-253.86504	0
857	-136.69656	-36.61515	69.97562	93.57205	-102.52242	8.95037	132.62821	-273.39312	-488.202	-457.28254	-124.49151	-262.00174	0
858	-131.81454	-38.24249	69.97562	93.57205	-99.26774	4.88202	119.60949	-301.87157	-517.49412	-476.81062	-130.1872	-270.95211	0
859	-126.93252	-42.31084	69.16195	91.13104	-96.82673	2.44101	109.03178	-328.72268	-545.1589	-494.71136	-134.25555	-278.27514	0
860	-129.37353	-52.07488	67.53461	94.38572	-97.6404	0.81367	98.45407	-353.13278	-571.19634	-511.79843	-138.3239	-285.59817	0
861	-134.25555	-63.46626	66.72094	100.89508	-100.08141	-0.81367	87.87636	-376.72921	-598.04745	-530.51284	-144.01959	-296.17588	0
862	-141.57858	-74.04397	65.90727	107.40444	-103.33609	-1.62734	75.67131	-400.32564	-623.27122	-550.85459	-150.52895	-308.38093	0
863	-149.71528	-81.367	68.34828	114.72747	-109.03178	-1.62734	65.0936	-421.48106	-645.24031	-567.94166	-155.41097	-318.95864	0
864	-158.66565	-83.80801	74.85764	120.42316	-116.35481	0	56.14323	-439.3818	-664.76839	-581.77405	-158.66565	-325.468	0
865	-167.61602	-84.62168	84.62168	124.49151	-126.11885	2.44101	47.19286	-456.46887	-681.04179	-592.35176	-159.47932	-328.72268	0
866	-173.31171	-82.99434	91.94471	127.74619	-131.81454	5.69569	37.42882	-473.55594	-696.50152	-601.30213	-159.47932	-330.35002	0
867	-175.75272	-82.99434	96.01306	129.37353	-134.25555	6.50936	27.66478	-492.27035	-711.96125	-608.62516	-159.47932	-331.16369	0
868	-175.75272	-82.18067	97.6404	129.37353	-134.25555	5.69569	16.2734	-510.17109	-727.42098	-615.94819	-160.29299	-331.97736	0
869	-175.75272	-81.367	97.6404	129.37353	-134.25555	5.69569	5.69569	-526.44449	-741.25337	-622.45755	-161.10666	-332.79103	0
870	-175.75272	-80.55333	96.01306	128.55986	-134.25555	5.69569	-3.25468	-539.46321	-752.64475	-628.15324	-161.92033	-334.41837	0
871	-174.12538	-78.11232	90.31737	126.93252	-132.62821	4.88202	-11.39138	-548.41358	-759.96778	-632.22159	-163.54767	-336.04571	0
872	-172.49804	-74.04397	82.18067	125.30518	-131.00087	3.25468	-17.90074	-551.66826	-764.03613	-634.6626	-164.36134	-336.85938	0
873	-170.05703	-70.78929	78.11232	123.67784	-129.37353	3.25468	-22.78276	-552.48193	-764.03613	-634.6626	-162.734	-336.04571	0
874	-171.68437	-69.97562	80.55333	123.67784	-133.44188	6.50936	-25.22377	-550.04092	-760.78145	-631.40792	-161.10666	-331.97736	0
875	-181.44841	-72.41663	86.24902	127.74619	-143.20592	13.01872	-27.66478	-548.41358	-757.52677	-626.5259	-159.47932	-327.90901	0
876	-192.83979	-78.92599	92.75838	136.69656	-152.15629	14.64606	-34.17414	-550.04092	-756.7131	-622.45755	-158.66565	-323.84066	0
877	-205.85851	-95.19939	96.01306	147.27427	-157.85198	6.50936	-47.19286	-555.73661	-758.34044	-620.83021	-159.47932	-322.21332	0
878	-224.57292	-121.23683	96.01306	161.10666	-164.36134	-7.32303	-65.0936	-562.24597	-762.40879	-621.64388	-161.92033	-323.84066	0
879	-241.65999	-144.83326	93.57205	178.19373	-170.05703	-22.78276	-81.367	-567.94166	-763.22246	-620.83021	-165.98868	-325.468	0
880	-235.9643	-144.83326	89.5037	177.38006	-163.54767	-26.03744	-86.24902	-564.68698	-754.27209	-611.06617	-165.17501	-318.14497	0
881	-199.34915	-115.54114	82.99434	148.90161	-140.76491	-16.2734	-77.29865	-547.59991	-729.86199	-589.91075	-154.5973	-301.0579	0
882	-154.5973	-80.55333	78.11232	111.47279	-114.72747	-0.81367	-63.46626	-523.18981	-699.7562	-563.05964	-139.95124	-280.71615	0
883	-118.79582	-54.51589	75.67131	78.92599	-93.57205	10.57771	-52.07488	-500.40705	-672.90509	-540.27688	-129.37353	-263.62908	0
884	-100.89508	-36.61515	69.97562	61.02525	-82.18067	17.90074	-44.75185	-483.31998	-650.936	-521.56247	-122.86417	-252.2377	0
885	-96.82673	-26.85111	63.46626	58.58424	-78.92599	21.15542	-42.31084	-467.86025	-630.59425	-503.66173	-117.16848	-242.47366	0
886	-98.45407	-26.85111	61.02525	64.27993	-79.73966	21.15542	-43.93818	-454.02786	-611.87984	-485.76099	-112.28646	-231.89595	0
887	-105.7771	-29.29212	62.65259	69.97562	-84.62168	17.08707	-46.37919	-441.00914	-593.9791	-468.67392	-108.21811	-222.13191	0
888	-114.72747	-31.73313	68.34828	74.04397	-92.75838	15.45973	-47.19286	-426.36308	-573.63735	-449.14584	-103.33609	-210.74053	0
889	-120.42316	-31.73313	76.48498	75.67131	-99.26774	19.52808	-43.12451	-406.835	-550.04092	-427.17675	-97.6404	-196.90814	0
890	-122.86417	-30.10579	81.367	77.29865	-102.52242	21.96909	-37.42882	-384.05224	-524.81715	-405.20766	-91.94471	-183.07575	0
891	-122.0505	-28.47845	81.367	77.29865	-101.70875	21.96909	-31.73313	-361.26948	-499.59338	-384.86591	-87.06269	-172.49804	0
892	-117.98215	-29.29212	75.67131	76.48498	-97.6404	19.52808	-26.03744	-339.30039	-474.36961	-366.1515	-83.80801	-163.54767	0
893	-111.47279	-32.5468	66.72094	74.04397	-91.13104	17.08707	-21.96909	-318.14497	-449.95951	-349.06443	-80.55333	-156.22464	0
894	-104.96343	-35.80148	58.58424	70.78929	-84.62168	16.2734	-19.52808	-298.61689	-427.17675	-332.79103	-79.73966	-149.71528	0
895	-100.89508	-38.24249	56.14323	69.97562	-80.55333	15.45973	-18.71441	-282.34349	-406.02133	-316.51763	-78.92599	-142.39225	0
896	-102.52242	-39.05616	58.58424	71.60296	-82.18067	15.45973	-17.08707	-266.07009	-384.86591	-298.61689	-76.48498	-133.44188	0
897	-104.96343	-39.05616	62.65259	73.2303	-84.62168	14.64606	-13.83239	-249.79669	-362.89682	-279.08881	-72.41663	-122.86417	0
898	-105.7771	-37.42882	66.72094	72.41663	-87.06269	16.2734	-8.95037	-231.89595	-340.92773	-257.93339	-66.72094	-111.47279	0
899	-102.52242	-31.73313	69.97562	67.53461	-87.06269	19.52808	-2.44101	-212.36787	-316.51763	-235.9643	-59.39791	-99.26774	0
900	-98.45407	-21.96909	72.41663	60.21158	-86.24902	25.22377	7.32303	-187.95777	-290.48019	-213.18154	-49.63387	-86.24902	0
901	-95.19939	-14.64606	74.85764	53.70222	-84.62168	30.10579	19.52808	-161.92033	-262.00174	-191.21245	-41.49717	-73.2303	0
902	-95.19939	-14.64606	74.04397	51.26121	-83.80801	29.29212	28.47845	-137.51023	-235.9643	-172.49804	-36.61515	-64.27993	0
903	-97.6404	-23.59643	69.16195	53.70222	-82.18067	24.4101	33.36047	-118.79582	-214.80888	-159.47932	-34.17414	-59.39791	0
904	-100.08141	-35.80148	61.83892	59.39791	-79.73966	20.34175	34.17414	-104.14976	-196.90814	-148.90161	-34.17414	-56.9569	0
905	-94.38572	-39.05616	53.70222	60.21158	-73.2303	16.2734	35.80148	-88.69003	-178.19373	-135.06922	-33.36047	-50.44754	0
906	-79.73966	-30.91946	49.63387	50.44754	-63.46626	16.2734	39.86983	-73.2303	-158.66565	-118.79582	-29.29212	-40.6835	0
907	-65.0936	-17.08707	49.63387	39.05616	-56.14323	20.34175	44.75185	-56.9569	-139.13757	-100.89508	-23.59643	-29.29212	0
908	-56.14323	-7.32303	50.44754	30.91946	-52.88855	23.59643	48.8202	-42.31084	-120.42316	-84.62168	-17.90074	-19.52808	0
909	-52.88855	-1.62734	50.44754	27.66478	-52.07488	25.22377	53.70222	-27.66478	-103.33609	-69.97562	-14.64606	-11.39138	0
910	-55.32956	-0.81367	51.26121	28.47845	-53.70222	25.22377	57.77057	-13.01872	-87.06269	-57.77057	-12.20505	-6.50936	0
911	-61.83892	-4.88202	52.07488	33.36047	-55.32956	23.59643	63.46626	1.62734	-69.97562	-45.56552	-9.76404	-1.62734	0
912	-67.53461	-11.39138	52.07488	39.05616	-56.14323	20.34175	69.16195	17.90074	-52.07488	-33.36047	-7.32303	2.44101	0
913	-69.16195	-15.45973	50.44754	42.31084	-58.58424	17.90074	73.2303	31.73313	-34.98781	-21.96909	-6.50936	6.50936	0
914	-67.53461	-17.08707	49.63387	41.49717	-61.83892	16.2734	74.85764	43.12451	-21.15542	-12.20505	-5.69569	10.57771	0
915	-63.46626	-16.2734	48.8202	39.86983	-61.83892	16.2734	76.48498	52.88855	-8.1367	-1.62734	-4.06835	15.45973	0
916	-56.9569	-11.39138	47.19286	33.36047	-57.77057	17.90074	79.73966	63.46626	5.69569	10.57771	0.81367	23.59643	0
917	-48.00653	-3.25468	48.8202	25.22377	-51.26121	23.59643	84.62168	74.85764	21.15542	25.22377	8.95037	34.17414	0
918	-40.6835	1.62734	52.07488	20.34175	-47.19286	30.91946	87.87636	85.43535	35.80148	38.24249	14.64606	43.12451	0
919	-36.61515	1.62734	52.88855	17.08707	-46.37919	33.36047	88.69003	91.94471	45.56552	46.37919	16.2734	47.19286	0
920	-34.17414	0	47.19286	13.01872	-43.12451	29.29212	88.69003	97.6404	52.88855	51.26121	13.83239	48.00653	0
921	-34.17414	-2.44101	35.80148	8.1367	-39.05616	19.52808	87.06269	102.52242	58.58424	53.70222	9.76404	46.37919	0
922	-34.17414	-1.62734	21.96909	2.44101	-33.36047	11.39138	87.06269	109.03178	65.90727	56.9569	5.69569	44.75185	0
923	-33.36047	4.06835	13.83239	-3.25468	-26.03744	8.95037	88.69003	117.98215	75.67131	63.46626	5.69569	44.75185	0
924	-30.10579	11.39138	17.08707	-6.50936	-22.78276	13.83239	93.57205	128.55986	88.69003	73.2303	10.57771	49.63387	0
925	-26.85111	17.08707	25.22377	-6.50936	-24.4101	21.15542	98.45407	137.51023	100.89508	84.62168	16.2734	56.9569	0
926	-27.66478	18.71441	34.17414	-2.44101	-29.29212	25.22377	100.89508	142.39225	109.03178	92.75838	20.34175	61.83892	0
927	-36.61515	17.08707	44.75185	2.44101	-39.05616	27.66478	100.89508	145.64693	114.72747	100.89508	21.96909	66.72094	0
928	-44.75185	13.01872	52.88855	9.76404	-48.00653	30.10579	100.89508	149.71528	121.23683	108.21811	25.22377	71.60296	0
929	-50.44754	8.1367	57.77057	15.45973	-53.70222	32.5468	101.70875	156.22464	128.55986	115.54114	28.47845	77.29865	0
930	-55.32956	4.88202	60.21158	20.34175	-57.77057	33.36047	103.33609	162.734	135.88289	121.23683	30.10579	80.55333	0
931	-56.14323	0.81367	57.77057	24.4101	-57.77057	31.73313	104.14976	169.24336	143.20592	124.49151	30.91946	80.55333	0
932	-54.51589	-2.44101	51.26121	26.85111	-52.88855	25.22377	104.14976	174.12538	148.08794	126.93252	30.10579	79.73966	0
933	-50.44754	-4.88202	43.93818	26.03744	-47.19286	20.34175	103.33609	177.38006	152.96996	127.74619	29.29212	78.11232	0
934	-39.05616	-0.81367	38.24249	18.71441	-38.24249	18.71441	102.52242	179.82107	157.85198	131.00087	30.91946	79.73966	0
935	-24.4101	8.95037	34.17414	6.50936	-28.47845	21.15542	102.52242	182.26208	163.54767	136.69656	34.17414	82.99434	0
936	-12.20505	18.71441	32.5468	-3.25468	-21.15542	24.4101	102.52242	184.70309	169.24336	143.20592	37.42882	88.69003	0
937	-4.88202	26.03744	31.73313	-10.57771	-17.90074	27.66478	102.52242	185.51676	174.93905	150.52895	40.6835	95.19939	0
938	-1.62734	29.29212	30.10579	-13.83239	-16.2734	30.10579	103.33609	187.1441	179.82107	157.03831	43.12451	100.89508	0
939	0	29.29212	28.47845	-13.83239	-14.64606	30.91946	104.14976	188.77144	183.88942	161.10666	44.75185	104.96343	0
940	-4.88202	25.22377	27.66478	-9.76404	-16.2734	28.47845	103.33609	189.58511	186.33043	162.734	43.93818	104.96343	0
941	-13.83239	16.2734	27.66478	-0.81367	-20.34175	22.78276	100.08141	189.58511	186.33043	161.10666	39.86983	100.89508	0
942	-24.4101	5.69569	27.66478	8.1367	-26.03744	17.08707	96.01306	187.95777	185.51676	157.85198	35.80148	94.38572	0
943	-32.5468	-1.62734	28.47845	15.45973	-30.10579	13.01872	91.94471	186.33043	183.88942	155.41097	32.5468	89.5037	0
944	-32.5468	-2.44101	27.66478	16.2734	-30.10579	11.39138	87.87636	184.70309	183.88942	154.5973	31.73313	88.69003	0
945	-23.59643	4.06835	26.85111	8.1367	-25.22377	11.39138	84.62168	181.44841	184.70309	156.22464	33.36047	91.94471	0
946	-12.20505	13.01872	24.4101	0	-18.71441	13.01872	81.367	179.0074	184.70309	157.85198	34.98781	96.01306	0
947	-1.62734	20.34175	20.34175	-7.32303	-10.57771	17.08707	79.73966	177.38006	183.88942	158.66565	36.61515	98.45407	0
948	7.32303	25.22377	17.90074	-13.01872	-1.62734	18.71441	79.73966	176.56639	183.07575	159.47932	36.61515	99.26774	0
949	13.01872	26.85111	16.2734	-17.90074	2.44101	18.71441	81.367	176.56639	185.51676	161.10666	36.61515	100.89508	0
950	8.95037	24.4101	15.45973	-15.45973	0	17.90074	83.80801	179.0074	188.77144	162.734	35.80148	101.70875	0
951	-4.06835	14.64606	15.45973	-4.88202	-8.95037	14.64606	82.99434	180.63474	188.77144	161.10666	33.36047	99.26774	0
952	-21.15542	0	16.2734	8.95037	-19.52808	8.95037	80.55333	179.0074	187.1441	157.03831	28.47845	93.57205	0
953	-34.98781	-12.20505	17.08707	21.96909	-27.66478	3.25468	75.67131	176.56639	183.88942	152.96996	21.15542	87.06269	0
954	-44.75185	-22.78276	17.90074	32.5468	-31.73313	-0.81367	69.97562	171.68437	179.82107	149.71528	17.08707	80.55333	0
955	-43.12451	-23.59643	17.90074	31.73313	-30.91946	-1.62734	65.90727	169.24336	178.19373	148.90161	17.90074	77.29865	0
956	-26.85111	-15.45973	13.83239	17.90074	-20.34175	0.81367	64.27993	168.42969	179.0074	152.15629	21.96909	77.29865	0
957	0	-5.69569	6.50936	-2.44101	-4.88202	4.06835	63.46626	167.61602	179.82107	154.5973	26.03744	78.11232	0
958	22.78276	1.62734	0	-18.71441	5.69569	5.69569	63.46626	165.98868	180.63474	154.5973	28.47845	78.11232	0
959	32.5468	5.69569	-4.06835	-26.03744	9.76404	5.69569	65.0936	164.36134	181.44841	152.96996	29.29212	77.29865	0
960	34.17414	5.69569	-4.88202	-26.85111	8.1367	4.88202	65.90727	165.17501	181.44841	151.34262	30.10579	77.29865	0
961	29.29212	6.50936	-3.25468	-25.22377	4.88202	5.69569	67.53461	168.42969	182.26208	150.52895	30.10579	78.92599	0
962	20.34175	8.1367	0	-20.34175	2.44101	5.69569	68.34828	171.68437	183.07575	150.52895	31.73313	80.55333	0
963	12.20505	6.50936	0	-13.01872	1.62734	1.62734	66.72094	171.68437	182.26208	149.71528	30.91946	80.55333	0
964	5.69569	2.44101	0	-5.69569	1.62734	-6.50936	61.83892	165.98868	177.38006	144.83326	26.03744	79.73966	0
965	0	-4.06835	-3.25468	0	1.62734	-13.83239	55.32956	158.66565	171.68437	141.57858	21.96909	78.11232	0
966	0.81367	-3.25468	-6.50936	0	4.06835	-13.01872	53.70222	155.41097	170.05703	142.39225	22.78276	78.92599	0
967	11.39138	8.1367	-7.32303	-7.32303	7.32303	-2.44101	56.9569	157.03831	172.49804	148.08794	27.66478	83.80801	0
968	22.78276	23.59643	-4.88202	-14.64606	11.39138	8.95037	63.46626	161.10666	177.38006	153.78363	33.36047	88.69003	0
969	31.73313	30.10579	-4.06835	-19.52808	17.08707	13.01872	65.90727	162.734	179.0074	156.22464	35.80148	90.31737	0
970	34.17414	20.34175	-3.25468	-17.90074	25.22377	5.69569	65.0936	162.734	178.19373	152.96996	33.36047	87.06269	0
971	32.5468	0.81367	-4.06835	-9.76404	29.29212	-2.44101	64.27993	162.734	176.56639	149.71528	30.10579	82.99434	0
972	26.85111	-14.64606	-4.88202	1.62734	26.03744	-8.1367	63.46626	163.54767	176.56639	148.08794	28.47845	80.55333	0
973	21.15542	-18.71441	-4.88202	6.50936	22.78276	-9.76404	62.65259	164.36134	177.38006	147.27427	28.47845	79.73966	0
974	20.34175	-11.39138	-7.32303	0	21.15542	-7.32303	62.65259	164.36134	178.19373	147.27427	29.29212	80.55333	0
975	24.4101	0.81367	-9.76404	-10.57771	17.90074	-3.25468	61.83892	162.734	179.0074	148.08794	30.91946	82.18067	0
976	27.66478	13.01872	-8.1367	-20.34175	13.01872	1.62734	61.02525	161.10666	177.38006	150.52895	33.36047	85.43535	0
977	26.03744	22.78276	-2.44101	-25.22377	8.95037	5.69569	61.02525	158.66565	175.75272	152.15629	36.61515	88.69003	0
978	20.34175	26.85111	0.81367	-23.59643	3.25468	8.95037	60.21158	155.41097	173.31171	152.15629	37.42882	89.5037	0
979	11.39138	19.52808	1.62734	-14.64606	-0.81367	8.1367	57.77057	151.34262	168.42969	146.4606	34.98781	86.24902	0
980	3.25468	4.88202	0.81367	0	-4.06835	2.44101	56.14323	146.4606	164.36134	139.95124	31.73313	82.99434	0
981	-2.44101	-7.32303	0	9.76404	-4.88202	-1.62734	54.51589	144.83326	161.10666	135.06922	29.29212	79.73966	0
982	-5.69569	-12.20505	-1.62734	12.20505	-3.25468	-4.88202	52.07488	144.83326	160.29299	133.44188	26.85111	76.48498	0
983	-3.25468	-11.39138	-4.88202	8.95037	0	-7.32303	49.63387	144.01959	161.10666	132.62821	25.22377	74.04397	0
984	3.25468	-7.32303	-8.1367	1.62734	6.50936	-8.95037	47.19286	141.57858	160.29299	131.81454	23.59643	73.2303	0
985	13.83239	-3.25468	-11.39138	-5.69569	14.64606	-10.57771	43.12451	138.3239	158.66565	131.00087	21.15542	72.41663	0
986	21.15542	0	-13.01872	-11.39138	21.96909	-11.39138	39.86983	135.06922	157.03831	131.00087	20.34175	72.41663	0
987	24.4101	0.81367	-13.01872	-13.83239	22.78276	-10.57771	39.05616	133.44188	157.03831	131.81454	21.15542	74.85764	0
988	23.59643	0.81367	-13.01872	-13.01872	19.52808	-9.76404	40.6835	133.44188	157.85198	135.06922	23.59643	78.92599	0
989	19.52808	0.81367	-11.39138	-11.39138	14.64606	-7.32303	43.93818	135.88289	160.29299	137.51023	26.85111	82.18067	0
990	16.2734	3.25468	-11.39138	-10.57771	11.39138	-4.88202	46.37919	139.13757	161.92033	138.3239	28.47845	83.80801	0
991	13.83239	4.06835	-11.39138	-9.76404	8.95037	-4.06835	47.19286	139.13757	161.10666	136.69656	27.66478	81.367	0
992	11.39138	3.25468	-11.39138	-8.1367	8.95037	-3.25468	45.56552	137.51023	159.47932	134.25555	26.03744	78.92599	0
993	9.76404	1.62734	-11.39138	-6.50936	8.95037	-3.25468	43.12451	135.06922	157.85198	131.81454	24.4101	76.48498	0
994	8.95037	0	-8.95037	-4.88202	8.95037	-3.25468	39.05616	131.81454	156.22464	130.1872	22.78276	75.67131	0
995	7.32303	0	-5.69569	-4.06835	8.95037	-1.62734	36.61515	128.55986	155.41097	131.00087	24.4101	77.29865	0
996	7.32303	1.62734	-2.44101	-5.69569	8.1367	0	37.42882	127.74619	156.22464	134.25555	28.47845	82.18067	0
997	8.95037	5.69569	-1.62734	-8.95037	7.32303	1.62734	39.05616	127.74619	157.85198	138.3239	33.36047	87.87636	0
998	11.39138	9.76404	-3.25468	-10.57771	7.32303	1.62734	41.49717	129.37353	159.47932	141.57858	35.80148	91.13104	0
999	15.45973	11.39138	-8.1367	-12.20505	7.32303	0	43.93818	131.81454	160.29299	143.20592	36.61515	91.94471	0
1000	17.08707	10.57771	-12.20505	-13.01872	8.95037	-1.62734	45.56552	134.25555	161.10666	143.20592	36.61515	91.13104	0
1001	16.2734	7.32303	-13.83239	-11.39138	9.76404	-4.06835	43.93818	135.88289	161.10666	140.76491	34.98781	87.87636	0
1002	12.20505	3.25468	-13.83239	-8.95037	8.95037	-4.88202	40.6835	133.44188	157.85198	135.88289	31.73313	83.80801	0
1003	6.50936	-0.81367	-12.20505	-4.06835	6.50936	-5.69569	35.80148	127.74619	152.96996	130.1872	26.85111	78.92599	0
1004	-1.62734	-8.1367	-10.57771	3.25468	1.62734	-8.1367	29.29212	119.60949	147.27427	126.11885	20.34175	74.85764	0
1005	-11.39138	-21.15542	-9.76404	13.01872	-4.06835	-13.01872	23.59643	111.47279	141.57858	122.86417	15.45973	71.60296	0
1006	-22.78276	-39.05616	-9.76404	24.4101	-13.01872	-22.78276	17.90074	102.52242	133.44188	119.60949	10.57771	69.16195	0
1007	-34.98781	-56.14323	-9.76404	37.42882	-19.52808	-32.5468	13.01872	94.38572	126.93252	116.35481	7.32303	66.72094	0
1008	-35.80148	-58.58424	-13.01872	40.6835	-17.08707	-38.24249	13.01872	93.57205	126.11885	115.54114	7.32303	65.90727	0
1009	-19.52808	-42.31084	-16.2734	26.85111	-4.88202	-39.05616	19.52808	100.89508	131.81454	118.79582	8.1367	69.16195	0
1010	-0.81367	-23.59643	-21.15542	9.76404	7.32303	-34.98781	26.85111	110.65912	138.3239	123.67784	10.57771	72.41663	0
