samplenr	I	II	III	aVR	aVL	aVF	V1	V2	V3	V4	V5	V6	measurement
0	-5.69569	3.25468	12.20505	0.81367	-8.1367	6.50936	-0.81367	0.81367	0	0	2.44101	3.25468	0
1	-23.59643	17.90074	48.8202	3.25468	-33.36047	29.29212	-1.62734	5.69569	4.06835	2.44101	13.01872	14.64606	0
2	-44.75185	39.05616	96.01306	0	-66.72094	63.46626	0.81367	17.90074	14.64606	8.95037	30.10579	33.36047	0
3	-66.72094	56.9569	137.51023	-1.62734	-100.89508	97.6404	10.57771	37.42882	33.36047	18.71441	48.8202	52.07488	0
4	-96.01306	69.16195	167.61602	4.88202	-138.3239	122.0505	24.4101	61.02525	56.14323	29.29212	62.65259	66.72094	0
5	-122.0505	76.48498	188.77144	16.2734	-165.98868	135.88289	36.61515	82.18067	76.48498	41.49717	69.16195	76.48498	0
6	-139.95124	78.92599	203.4175	27.66478	-181.44841	143.20592	45.56552	97.6404	92.75838	53.70222	69.97562	81.367	0
7	-150.52895	78.11232	212.36787	36.61515	-187.95777	145.64693	52.88855	110.65912	106.59077	64.27993	69.16195	84.62168	0
8	-147.27427	82.99434	216.43622	33.36047	-186.33043	150.52895	61.83892	124.49151	121.23683	69.97562	69.97562	85.43535	0
9	-132.62821	96.82673	218.87723	17.90074	-176.56639	159.47932	70.78929	139.95124	139.13757	74.04397	74.85764	83.80801	0
10	-114.72747	109.84545	220.50457	2.44101	-161.92033	165.17501	76.48498	152.96996	155.41097	75.67131	78.11232	79.73966	0
11	-99.26774	117.98215	220.50457	-8.1367	-149.71528	166.80235	75.67131	160.29299	165.98868	74.04397	74.85764	74.04397	0
12	-96.82673	115.54114	220.50457	-8.95037	-148.08794	162.734	69.97562	164.36134	172.49804	69.97562	68.34828	69.16195	0
13	-108.21811	105.7771	221.31824	0.81367	-156.22464	157.85198	65.90727	169.24336	181.44841	66.72094	62.65259	65.90727	0
14	-118.79582	96.01306	218.87723	11.39138	-163.54767	152.15629	68.34828	181.44841	195.2808	69.16195	62.65259	65.0936	0
15	-126.11885	79.73966	207.48585	18.71441	-164.36134	140.76491	74.85764	196.09447	212.36787	74.85764	65.90727	63.46626	0
16	-129.37353	58.58424	184.70309	20.34175	-157.03831	119.60949	78.11232	208.29952	226.20026	78.11232	65.90727	58.58424	0
17	-118.79582	45.56552	156.22464	17.08707	-138.3239	99.26774	78.92599	218.06356	238.40531	78.92599	61.83892	49.63387	0
18	-96.82673	43.12451	130.1872	13.01872	-114.72747	85.43535	79.73966	225.38659	250.61036	78.11232	54.51589	39.86983	0
19	-74.85764	43.93818	110.65912	9.76404	-93.57205	76.48498	79.73966	232.70962	264.44275	78.11232	45.56552	30.91946	0
20	-61.83892	43.93818	100.08141	8.1367	-82.18067	72.41663	82.18067	240.84632	278.27514	80.55333	38.24249	21.96909	0
21	-61.02525	45.56552	103.33609	7.32303	-83.80801	74.85764	88.69003	253.86504	294.54854	84.62168	34.17414	14.64606	0
22	-69.16195	50.44754	116.35481	7.32303	-94.38572	83.80801	98.45407	271.76578	313.26295	87.06269	31.73313	11.39138	0
23	-83.80801	56.9569	135.06922	8.1367	-111.47279	96.82673	109.03178	292.10753	330.35002	88.69003	30.91946	7.32303	0
24	-103.33609	58.58424	155.41097	8.1367	-131.81454	107.40444	117.16848	310.82194	345.80975	88.69003	30.10579	1.62734	0
25	-115.54114	53.70222	161.92033	8.1367	-140.76491	109.03178	122.0505	327.90901	359.64214	89.5037	30.10579	-3.25468	0
26	-105.7771	45.56552	145.64693	6.50936	-127.74619	96.82673	125.30518	342.55507	372.66086	91.13104	30.91946	-8.95037	0
27	-83.80801	34.98781	113.9138	7.32303	-100.08141	75.67131	126.11885	353.94645	386.49325	92.75838	29.29212	-15.45973	0
28	-62.65259	23.59643	82.99434	8.95037	-73.2303	54.51589	125.30518	362.89682	400.32564	93.57205	23.59643	-23.59643	0
29	-46.37919	16.2734	60.21158	9.76404	-53.70222	40.6835	123.67784	370.21985	414.15803	92.75838	15.45973	-34.17414	0
30	-33.36047	11.39138	39.05616	7.32303	-34.98781	27.66478	120.42316	373.47453	423.1084	87.87636	4.06835	-48.00653	0
31	-23.59643	7.32303	16.2734	1.62734	-14.64606	14.64606	117.98215	375.91554	427.99042	80.55333	-8.95037	-66.72094	0
32	-17.08707	3.25468	1.62734	0	-1.62734	3.25468	116.35481	378.35655	430.43143	72.41663	-21.15542	-82.18067	0
33	-17.08707	-4.06835	-2.44101	4.88202	0	-4.06835	117.98215	383.23857	433.68611	66.72094	-29.29212	-91.94471	0
34	-14.64606	-9.76404	-6.50936	8.95037	0.81367	-9.76404	122.86417	395.44362	443.45015	65.0936	-32.5468	-94.38572	0
35	3.25468	-6.50936	-17.90074	0	13.01872	-13.83239	127.74619	412.53069	458.09621	65.0936	-32.5468	-93.57205	0
36	32.5468	-4.06835	-42.31084	-13.83239	38.24249	-24.4101	132.62821	423.92207	469.48759	62.65259	-34.98781	-97.6404	0
37	58.58424	-12.20505	-74.85764	-21.96909	66.72094	-39.86983	135.06922	426.36308	474.36961	56.14323	-42.31084	-109.03178	0
38	75.67131	-27.66478	-107.40444	-23.59643	90.31737	-55.32956	135.88289	422.29473	475.99695	51.26121	-49.63387	-122.86417	0
39	81.367	-42.31084	-126.11885	-18.71441	102.52242	-71.60296	134.25555	416.59904	475.99695	46.37919	-58.58424	-135.88289	0
40	69.97562	-52.88855	-132.62821	-8.1367	102.52242	-86.24902	134.25555	411.71702	474.36961	40.6835	-71.60296	-144.83326	0
41	47.19286	-65.0936	-135.88289	5.69569	97.6404	-95.19939	134.25555	410.08968	471.11493	35.80148	-85.43535	-152.15629	0
42	25.22377	-82.99434	-139.95124	19.52808	91.13104	-105.7771	132.62821	407.64867	467.86025	30.10579	-96.82673	-161.10666	0
43	16.2734	-101.70875	-144.01959	32.5468	87.87636	-118.79582	129.37353	403.58032	466.23291	24.4101	-102.52242	-169.24336	0
44	18.71441	-112.28646	-152.96996	43.93818	89.5037	-131.00087	128.55986	401.13931	467.04658	21.96909	-104.96343	-174.93905	0
45	25.22377	-115.54114	-161.92033	49.63387	91.13104	-138.3239	126.11885	397.07096	465.41924	21.96909	-104.96343	-178.19373	0
46	29.29212	-113.10013	-161.92033	45.56552	90.31737	-137.51023	123.67784	389.74793	461.35089	21.96909	-103.33609	-178.19373	0
47	32.5468	-107.40444	-156.22464	37.42882	87.87636	-131.00087	121.23683	382.4249	455.6552	21.96909	-100.89508	-176.56639	0
48	34.98781	-102.52242	-153.78363	29.29212	87.06269	-124.49151	119.60949	373.47453	446.70483	21.96909	-100.89508	-176.56639	0
49	43.93818	-100.08141	-154.5973	25.22377	92.75838	-122.0505	117.98215	361.26948	435.31345	20.34175	-104.96343	-179.0074	0
50	56.14323	-96.82673	-160.29299	19.52808	104.96343	-121.23683	116.35481	349.06443	423.1084	17.90074	-112.28646	-183.07575	0
51	66.72094	-91.13104	-165.98868	10.57771	117.98215	-122.0505	113.9138	338.48672	409.27601	12.20505	-121.23683	-186.33043	0
52	78.11232	-94.38572	-174.93905	8.95037	126.93252	-131.00087	108.21811	324.65433	390.5616	3.25468	-129.37353	-191.21245	0
53	90.31737	-112.28646	-191.21245	17.08707	135.06922	-151.34262	97.6404	305.93992	366.1515	-11.39138	-135.88289	-200.97649	0
54	96.01306	-135.06922	-213.18154	26.03744	145.64693	-175.75272	86.24902	286.41184	340.11406	-26.85111	-142.39225	-210.74053	0
55	93.57205	-150.52895	-230.26861	31.73313	153.78363	-193.65346	76.48498	270.13844	317.3313	-39.05616	-144.83326	-218.06356	0
56	91.13104	-155.41097	-239.21898	30.91946	159.47932	-200.97649	69.97562	259.56073	300.24423	-42.31084	-143.20592	-218.87723	0
57	87.06269	-153.78363	-238.40531	23.59643	159.47932	-197.72181	71.60296	253.05137	290.48019	-33.36047	-135.06922	-210.74053	0
58	83.80801	-144.83326	-230.26861	19.52808	155.41097	-187.95777	79.73966	248.98302	286.41184	-17.90074	-122.86417	-197.72181	0
59	81.367	-131.81454	-216.43622	21.15542	148.90161	-173.31171	89.5037	244.101	283.15716	-2.44101	-110.65912	-185.51676	0
60	73.2303	-120.42316	-196.09447	24.4101	134.25555	-157.03831	97.6404	238.40531	276.6478	8.1367	-100.89508	-178.19373	0
61	59.39791	-113.9138	-173.31171	25.22377	114.72747	-143.20592	100.89508	228.64127	262.81541	11.39138	-96.82673	-173.31171	0
62	50.44754	-112.28646	-158.66565	26.03744	100.89508	-135.88289	97.6404	215.62255	241.65999	5.69569	-100.89508	-174.12538	0
63	48.8202	-111.47279	-154.5973	26.03744	97.6404	-133.44188	88.69003	198.53548	216.43622	-8.95037	-114.72747	-180.63474	0
64	53.70222	-110.65912	-158.66565	24.4101	103.33609	-133.44188	78.92599	179.82107	191.21245	-26.03744	-131.81454	-190.39878	0
65	61.83892	-108.21811	-164.36134	19.52808	110.65912	-131.81454	70.78929	164.36134	168.42969	-37.42882	-144.01959	-197.72181	0
66	61.83892	-103.33609	-158.66565	16.2734	109.03178	-124.49151	65.0936	155.41097	153.78363	-42.31084	-145.64693	-198.53548	0
67	48.8202	-98.45407	-142.39225	20.34175	94.38572	-113.10013	65.90727	153.78363	148.08794	-38.24249	-135.06922	-189.58511	0
68	30.10579	-96.01306	-124.49151	29.29212	76.48498	-104.96343	73.2303	154.5973	148.08794	-28.47845	-117.98215	-175.75272	0
69	15.45973	-99.26774	-113.9138	39.05616	64.27993	-102.52242	82.99434	154.5973	148.90161	-17.90074	-100.89508	-160.29299	0
70	4.88202	-106.59077	-111.47279	48.8202	57.77057	-106.59077	91.13104	150.52895	144.01959	-13.01872	-87.06269	-148.08794	0
71	-2.44101	-114.72747	-105.7771	61.83892	46.37919	-109.84545	96.01306	144.01959	135.88289	-11.39138	-76.48498	-138.3239	0
72	-7.32303	-115.54114	-92.75838	71.60296	28.47845	-102.52242	99.26774	139.13757	128.55986	-12.20505	-67.53461	-126.93252	0
73	-8.1367	-107.40444	-81.367	68.34828	15.45973	-87.06269	102.52242	138.3239	124.49151	-12.20505	-59.39791	-113.9138	0
74	-0.81367	-96.01306	-74.85764	54.51589	16.2734	-71.60296	104.96343	137.51023	121.23683	-13.01872	-52.88855	-103.33609	0
75	10.57771	-85.43535	-75.67131	42.31084	27.66478	-64.27993	100.89508	131.00087	113.9138	-17.08707	-48.8202	-99.26774	0
76	22.78276	-80.55333	-79.73966	35.80148	43.12451	-70.78929	92.75838	116.35481	100.08141	-23.59643	-51.26121	-100.89508	0
77	34.17414	-84.62168	-87.06269	32.5468	62.65259	-87.06269	83.80801	99.26774	84.62168	-27.66478	-58.58424	-104.14976	0
78	34.98781	-92.75838	-96.01306	34.98781	74.85764	-103.33609	78.11232	86.24902	74.04397	-29.29212	-65.0936	-107.40444	0
79	22.78276	-99.26774	-99.26774	42.31084	69.97562	-108.21811	75.67131	80.55333	69.97562	-29.29212	-66.72094	-108.21811	0
80	4.88202	-101.70875	-93.57205	50.44754	55.32956	-104.14976	78.11232	81.367	70.78929	-28.47845	-65.0936	-106.59077	0
81	-12.20505	-100.89508	-82.18067	58.58424	37.42882	-95.19939	82.99434	86.24902	71.60296	-30.10579	-61.83892	-103.33609	0
82	-30.91946	-96.01306	-68.34828	65.0936	20.34175	-82.18067	87.87636	91.13104	72.41663	-31.73313	-59.39791	-100.89508	0
83	-48.8202	-87.06269	-53.70222	69.16195	7.32303	-65.90727	90.31737	94.38572	72.41663	-32.5468	-56.9569	-99.26774	0
84	-57.77057	-77.29865	-39.86983	68.34828	-1.62734	-52.07488	87.87636	94.38572	70.78929	-32.5468	-54.51589	-97.6404	0
85	-55.32956	-71.60296	-33.36047	64.27993	-4.88202	-47.19286	81.367	88.69003	65.90727	-31.73313	-53.70222	-98.45407	0
86	-48.00653	-74.85764	-39.05616	61.83892	-0.81367	-52.88855	72.41663	81.367	58.58424	-30.91946	-53.70222	-98.45407	0
87	-43.12451	-85.43535	-52.88855	65.90727	5.69569	-68.34828	64.27993	73.2303	51.26121	-30.10579	-53.70222	-98.45407	0
88	-44.75185	-98.45407	-68.34828	76.48498	11.39138	-86.24902	56.9569	65.0936	43.93818	-31.73313	-56.9569	-99.26774	0
89	-52.07488	-111.47279	-74.85764	87.87636	9.76404	-98.45407	53.70222	56.14323	38.24249	-35.80148	-61.83892	-101.70875	0
90	-57.77057	-116.35481	-72.41663	91.94471	4.06835	-97.6404	56.14323	50.44754	32.5468	-39.05616	-65.90727	-100.89508	0
91	-48.8202	-104.96343	-72.41663	79.73966	4.06835	-87.06269	63.46626	48.8202	23.59643	-41.49717	-71.60296	-99.26774	0
92	-24.4101	-82.18067	-74.04397	56.9569	16.2734	-74.04397	69.16195	48.00653	14.64606	-46.37919	-78.11232	-98.45407	0
93	3.25468	-61.02525	-74.85764	39.05616	31.73313	-65.0936	71.60296	48.00653	7.32303	-53.70222	-84.62168	-100.08141	0
94	24.4101	-50.44754	-75.67131	29.29212	42.31084	-61.83892	71.60296	47.19286	2.44101	-60.21158	-90.31737	-103.33609	0
95	34.17414	-49.63387	-79.73966	23.59643	49.63387	-65.0936	69.97562	45.56552	0	-63.46626	-93.57205	-105.7771	0
96	37.42882	-51.26121	-87.06269	19.52808	56.9569	-70.78929	66.72094	43.12451	-0.81367	-61.02525	-91.94471	-105.7771	0
97	39.05616	-53.70222	-94.38572	15.45973	63.46626	-75.67131	61.83892	39.86983	-0.81367	-57.77057	-87.06269	-104.14976	0
98	37.42882	-56.14323	-94.38572	11.39138	64.27993	-74.85764	57.77057	37.42882	0	-52.88855	-80.55333	-100.08141	0
99	22.78276	-56.9569	-78.11232	9.76404	49.63387	-65.90727	59.39791	39.05616	4.06835	-43.93818	-69.97562	-92.75838	0
100	-10.57771	-58.58424	-45.56552	15.45973	16.2734	-52.88855	65.0936	43.93818	11.39138	-34.17414	-56.14323	-83.80801	1000	P+0
101	-43.93818	-59.39791	-13.01872	31.73313	-16.2734	-43.93818	70.78929	48.00653	17.90074	-26.85111	-44.75185	-77.29865	0
102	-60.21158	-56.9569	2.44101	52.07488	-32.5468	-39.05616	75.67131	51.26121	18.71441	-26.85111	-39.05616	-73.2303	0
103	-60.21158	-59.39791	4.06835	64.27993	-34.17414	-39.05616	76.48498	51.26121	12.20505	-33.36047	-39.86983	-74.04397	0
104	-55.32956	-69.16195	-1.62734	65.0936	-33.36047	-43.93818	72.41663	46.37919	0	-45.56552	-48.00653	-79.73966	0
105	-52.07488	-80.55333	-11.39138	60.21158	-29.29212	-50.44754	65.90727	39.05616	-12.20505	-53.70222	-56.14323	-85.43535	0
106	-46.37919	-87.06269	-20.34175	55.32956	-18.71441	-54.51589	61.02525	32.5468	-19.52808	-55.32956	-60.21158	-88.69003	0
107	-39.05616	-87.87636	-27.66478	52.07488	-6.50936	-58.58424	59.39791	28.47845	-21.15542	-51.26121	-58.58424	-89.5037	0
108	-35.80148	-86.24902	-32.5468	52.88855	0	-61.02525	60.21158	23.59643	-21.96909	-46.37919	-55.32956	-87.87636	0
109	-31.73313	-80.55333	-36.61515	50.44754	4.88202	-59.39791	61.02525	21.15542	-22.78276	-43.12451	-50.44754	-84.62168	0
110	-16.2734	-67.53461	-40.6835	39.86983	15.45973	-56.14323	61.02525	21.15542	-24.4101	-42.31084	-46.37919	-80.55333	0
111	3.25468	-55.32956	-46.37919	24.4101	30.10579	-56.14323	61.02525	22.78276	-25.22377	-44.75185	-47.19286	-78.11232	0
112	15.45973	-47.19286	-49.63387	14.64606	39.05616	-56.14323	61.02525	25.22377	-26.85111	-47.19286	-50.44754	-76.48498	0
113	13.83239	-40.6835	-46.37919	12.20505	35.80148	-54.51589	63.46626	30.10579	-26.03744	-50.44754	-52.88855	-74.85764	0
114	4.88202	-33.36047	-34.98781	13.83239	24.4101	-48.8202	69.16195	37.42882	-21.96909	-52.88855	-50.44754	-73.2303	0
115	2.44101	-23.59643	-21.15542	10.57771	17.08707	-38.24249	73.2303	42.31084	-19.52808	-50.44754	-46.37919	-69.97562	0
116	12.20505	-13.01872	-10.57771	1.62734	21.15542	-22.78276	72.41663	40.6835	-21.15542	-46.37919	-44.75185	-67.53461	0
117	23.59643	-0.81367	-4.88202	-5.69569	26.03744	-12.20505	68.34828	34.98781	-25.22377	-43.12451	-43.93818	-66.72094	0
118	28.47845	6.50936	-4.88202	-11.39138	26.03744	-12.20505	62.65259	28.47845	-30.91946	-41.49717	-47.19286	-69.16195	0
119	26.03744	3.25468	-8.95037	-9.76404	24.4101	-19.52808	53.70222	21.96909	-36.61515	-42.31084	-55.32956	-76.48498	0
120	16.2734	-10.57771	-11.39138	0	21.15542	-27.66478	47.19286	17.08707	-44.75185	-44.75185	-62.65259	-82.99434	0
121	-3.25468	-30.10579	-9.76404	17.90074	8.95037	-34.17414	46.37919	12.20505	-52.07488	-49.63387	-62.65259	-83.80801	0
122	-29.29212	-50.44754	-9.76404	39.86983	-5.69569	-39.86983	49.63387	9.76404	-57.77057	-56.14323	-58.58424	-79.73966	0
123	-50.44754	-68.34828	-13.01872	58.58424	-15.45973	-46.37919	54.51589	9.76404	-61.02525	-61.83892	-54.51589	-74.85764	0
124	-65.0936	-78.92599	-15.45973	72.41663	-22.78276	-51.26121	58.58424	10.57771	-63.46626	-64.27993	-52.88855	-72.41663	0
125	-75.67131	-82.99434	-14.64606	82.99434	-30.91946	-55.32956	60.21158	10.57771	-66.72094	-67.53461	-53.70222	-70.78929	0
126	-74.85764	-82.99434	-10.57771	83.80801	-38.24249	-57.77057	57.77057	7.32303	-70.78929	-69.97562	-56.14323	-71.60296	0
127	-66.72094	-82.18067	-7.32303	75.67131	-42.31084	-58.58424	54.51589	2.44101	-75.67131	-70.78929	-58.58424	-72.41663	0
128	-64.27993	-83.80801	-6.50936	68.34828	-43.93818	-56.9569	52.07488	-1.62734	-78.92599	-72.41663	-61.83892	-73.2303	0
129	-66.72094	-84.62168	-5.69569	65.90727	-41.49717	-53.70222	49.63387	-5.69569	-80.55333	-74.85764	-65.90727	-74.04397	0
130	-65.90727	-82.18067	-7.32303	65.0936	-36.61515	-48.8202	48.00653	-9.76404	-82.18067	-80.55333	-73.2303	-74.04397	0
131	-56.14323	-79.73966	-16.2734	61.02525	-23.59643	-48.8202	41.49717	-17.08707	-89.5037	-91.13104	-82.99434	-78.11232	0
132	-39.05616	-76.48498	-37.42882	51.26121	-5.69569	-55.32956	31.73313	-26.85111	-101.70875	-104.96343	-91.94471	-87.06269	0
133	-26.03744	-71.60296	-60.21158	43.93818	6.50936	-62.65259	22.78276	-35.80148	-112.28646	-116.35481	-100.08141	-96.01306	0
134	-20.34175	-64.27993	-69.16195	39.86983	12.20505	-64.27993	22.78276	-35.80148	-113.10013	-116.35481	-100.08141	-98.45407	0
135	-23.59643	-52.88855	-52.88855	36.61515	4.06835	-51.26121	35.80148	-22.78276	-100.89508	-100.08141	-84.62168	-87.06269	0
136	-35.80148	-39.05616	-17.08707	34.98781	-16.2734	-25.22377	54.51589	-2.44101	-79.73966	-74.04397	-57.77057	-66.72094	0
137	-44.75185	-28.47845	16.2734	32.5468	-34.17414	0	68.34828	15.45973	-61.02525	-51.26121	-30.91946	-48.8202	0
138	-47.19286	-26.03744	29.29212	31.73313	-39.05616	8.95037	74.04397	21.96909	-52.88855	-36.61515	-13.01872	-39.05616	0
139	-46.37919	-30.10579	21.96909	31.73313	-32.5468	2.44101	73.2303	17.08707	-57.77057	-30.91946	-5.69569	-36.61515	0
140	-43.12451	-36.61515	6.50936	33.36047	-21.15542	-9.76404	69.16195	6.50936	-68.34828	-33.36047	-8.95037	-41.49717	0
141	-39.86983	-44.75185	-6.50936	36.61515	-13.01872	-22.78276	64.27993	-2.44101	-80.55333	-42.31084	-17.08707	-47.19286	0
142	-36.61515	-53.70222	-14.64606	40.6835	-9.76404	-32.5468	61.83892	-9.76404	-93.57205	-57.77057	-26.85111	-55.32956	0
143	-34.17414	-62.65259	-15.45973	40.6835	-9.76404	-34.17414	60.21158	-12.20505	-106.59077	-75.67131	-34.98781	-61.83892	0
144	-31.73313	-67.53461	-9.76404	36.61515	-11.39138	-27.66478	59.39791	-12.20505	-113.9138	-84.62168	-39.86983	-59.39791	0
145	-30.91946	-65.0936	-0.81367	30.91946	-16.2734	-17.90074	58.58424	-9.76404	-113.10013	-83.80801	-39.86983	-50.44754	0
146	-35.80148	-52.07488	9.76404	26.03744	-24.4101	-10.57771	57.77057	-8.1367	-108.21811	-78.11232	-35.80148	-40.6835	0
147	-45.56552	-36.61515	20.34175	22.78276	-34.17414	-5.69569	56.9569	-6.50936	-102.52242	-72.41663	-30.91946	-34.98781	0
148	-49.63387	-25.22377	26.85111	21.96909	-37.42882	-3.25468	55.32956	-6.50936	-100.08141	-68.34828	-28.47845	-33.36047	0
149	-43.12451	-21.15542	29.29212	21.15542	-30.91946	-4.88202	52.88855	-8.95037	-100.89508	-68.34828	-30.91946	-35.80148	0
150	-32.5468	-17.08707	26.85111	19.52808	-20.34175	-5.69569	50.44754	-13.83239	-103.33609	-73.2303	-36.61515	-41.49717	0
151	-27.66478	-11.39138	21.96909	17.08707	-10.57771	-0.81367	49.63387	-16.2734	-106.59077	-77.29865	-39.86983	-45.56552	0
152	-25.22377	-0.81367	17.08707	12.20505	-6.50936	8.1367	52.88855	-13.83239	-108.21811	-77.29865	-39.05616	-43.93818	0
153	-22.78276	10.57771	13.83239	3.25468	-10.57771	17.08707	58.58424	-8.1367	-107.40444	-73.2303	-37.42882	-37.42882	0
154	-26.85111	15.45973	13.01872	-0.81367	-21.15542	18.71441	63.46626	-2.44101	-104.96343	-66.72094	-33.36047	-33.36047	0
155	-39.05616	6.50936	14.64606	7.32303	-34.17414	14.64606	65.90727	1.62734	-101.70875	-57.77057	-26.85111	-33.36047	0
156	-50.44754	-4.06835	21.96909	20.34175	-43.93818	10.57771	66.72094	4.06835	-99.26774	-47.19286	-17.08707	-33.36047	0
157	-56.14323	-8.1367	33.36047	27.66478	-50.44754	13.01872	69.97562	8.95037	-93.57205	-38.24249	-4.88202	-30.10579	0
158	-56.14323	-1.62734	43.93818	26.03744	-55.32956	22.78276	78.11232	18.71441	-81.367	-28.47845	6.50936	-21.15542	0
159	-52.07488	8.95037	49.63387	19.52808	-58.58424	34.98781	90.31737	31.73313	-64.27993	-13.83239	17.08707	-8.95037	0
160	-45.56552	15.45973	48.8202	13.83239	-56.14323	39.86983	100.89508	42.31084	-52.07488	-1.62734	19.52808	-0.81367	0
161	-39.86983	15.45973	43.93818	11.39138	-50.44754	40.6835	104.14976	43.12451	-50.44754	0	14.64606	-2.44101	0
162	-48.00653	12.20505	46.37919	12.20505	-52.88855	42.31084	100.89508	38.24249	-60.21158	-11.39138	4.88202	-12.20505	0
163	-70.78929	12.20505	56.14323	15.45973	-69.16195	44.75185	96.01306	33.36047	-73.2303	-26.85111	-5.69569	-22.78276	0
164	-90.31737	12.20505	68.34828	17.90074	-86.24902	51.26121	95.19939	30.10579	-83.80801	-36.61515	-13.83239	-26.85111	0
165	-90.31737	11.39138	78.92599	16.2734	-93.57205	60.21158	96.82673	26.85111	-87.87636	-37.42882	-13.01872	-22.78276	0
166	-78.92599	17.90074	85.43535	12.20505	-89.5037	65.0936	97.6404	26.03744	-87.06269	-32.5468	-7.32303	-14.64606	0
167	-66.72094	31.73313	85.43535	10.57771	-81.367	63.46626	93.57205	25.22377	-83.80801	-25.22377	0	-8.1367	0
168	-56.9569	43.12451	78.92599	5.69569	-72.41663	58.58424	86.24902	24.4101	-80.55333	-17.90074	4.88202	-3.25468	0
169	-48.00653	50.44754	68.34828	-4.88202	-63.46626	54.51589	76.48498	21.96909	-78.11232	-13.83239	7.32303	-0.81367	0
170	-37.42882	51.26121	56.14323	-13.83239	-54.51589	51.26121	64.27993	14.64606	-78.11232	-12.20505	7.32303	-0.81367	0
171	-34.17414	43.12451	44.75185	-11.39138	-50.44754	46.37919	48.00653	2.44101	-81.367	-14.64606	7.32303	-1.62734	0
172	-39.86983	25.22377	37.42882	1.62734	-49.63387	35.80148	30.10579	-11.39138	-88.69003	-19.52808	6.50936	-2.44101	0
173	-44.75185	4.06835	29.29212	16.2734	-44.75185	20.34175	13.01872	-25.22377	-98.45407	-25.22377	3.25468	-4.06835	0
174	-39.05616	-9.76404	17.08707	22.78276	-32.5468	5.69569	-2.44101	-39.05616	-109.84545	-33.36047	-1.62734	-8.1367	0
175	-24.4101	-12.20505	5.69569	17.90074	-16.2734	-2.44101	-15.45973	-51.26121	-121.23683	-42.31084	-8.95037	-11.39138	0
176	-8.1367	-5.69569	0	7.32303	-4.88202	-2.44101	-23.59643	-61.83892	-129.37353	-48.00653	-13.83239	-13.83239	0
177	7.32303	6.50936	-0.81367	-6.50936	3.25468	2.44101	-27.66478	-68.34828	-135.06922	-50.44754	-15.45973	-14.64606	0
178	25.22377	26.03744	-6.50936	-23.59643	13.01872	9.76404	-27.66478	-71.60296	-135.88289	-51.26121	-17.08707	-13.83239	0
179	35.80148	41.49717	-16.2734	-34.17414	18.71441	13.01872	-22.78276	-69.97562	-131.81454	-50.44754	-19.52808	-11.39138	0
180	36.61515	43.93818	-26.85111	-34.17414	18.71441	13.83239	-14.64606	-64.27993	-123.67784	-48.00653	-21.15542	-6.50936	0
181	34.17414	34.17414	-30.10579	-30.91946	11.39138	12.20505	-8.95037	-56.14323	-116.35481	-48.00653	-21.15542	-1.62734	0
182	32.5468	16.2734	-26.03744	-26.03744	0	6.50936	-4.88202	-52.88855	-116.35481	-51.26121	-25.22377	0	0
183	34.98781	0	-26.03744	-17.08707	2.44101	-4.06835	-3.25468	-56.9569	-123.67784	-54.51589	-33.36047	0.81367	0
184	39.86983	-10.57771	-38.24249	-4.06835	18.71441	-19.52808	-4.06835	-61.83892	-129.37353	-57.77057	-38.24249	-0.81367	0
185	41.49717	-18.71441	-56.14323	6.50936	36.61515	-33.36047	-6.50936	-67.53461	-132.62821	-63.46626	-36.61515	-7.32303	0
186	38.24249	-22.78276	-72.41663	13.83239	49.63387	-40.6835	-11.39138	-74.85764	-138.3239	-67.53461	-34.98781	-13.01872	0
187	33.36047	-24.4101	-77.29865	14.64606	53.70222	-42.31084	-15.45973	-83.80801	-148.08794	-69.97562	-35.80148	-17.08707	0
188	27.66478	-22.78276	-68.34828	12.20505	48.00653	-38.24249	-18.71441	-91.13104	-157.03831	-73.2303	-39.86983	-20.34175	0
189	21.96909	-18.71441	-52.88855	8.95037	38.24249	-30.91946	-21.15542	-97.6404	-165.17501	-79.73966	-46.37919	-24.4101	0
190	16.2734	-15.45973	-37.42882	5.69569	26.85111	-23.59643	-24.4101	-101.70875	-170.8707	-87.87636	-55.32956	-30.10579	0
191	8.1367	-14.64606	-21.96909	2.44101	15.45973	-17.90074	-25.22377	-102.52242	-173.31171	-93.57205	-64.27993	-36.61515	0
192	0.81367	-13.01872	-6.50936	0	6.50936	-10.57771	-20.34175	-97.6404	-170.05703	-94.38572	-69.16195	-39.05616	0
193	-2.44101	-8.95037	2.44101	0	1.62734	-4.06835	-13.01872	-87.87636	-162.734	-89.5037	-71.60296	-39.05616	0
194	-4.06835	-8.1367	6.50936	1.62734	0.81367	-4.06835	-5.69569	-78.92599	-152.96996	-82.18067	-69.16195	-35.80148	0
195	-7.32303	-17.90074	5.69569	9.76404	1.62734	-13.83239	-1.62734	-73.2303	-146.4606	-75.67131	-64.27993	-32.5468	0
196	-17.90074	-34.98781	0.81367	25.22377	0	-26.03744	1.62734	-69.16195	-143.20592	-69.97562	-60.21158	-30.91946	0
197	-36.61515	-52.88855	0.81367	43.93818	-9.76404	-35.80148	5.69569	-66.72094	-141.57858	-66.72094	-56.14323	-30.10579	0
198	-54.51589	-67.53461	7.32303	60.21158	-20.34175	-41.49717	9.76404	-65.90727	-142.39225	-68.34828	-56.14323	-32.5468	0
199	-67.53461	-78.11232	10.57771	72.41663	-28.47845	-44.75185	11.39138	-66.72094	-144.01959	-74.85764	-60.21158	-39.05616	0
200	-66.72094	-80.55333	5.69569	73.2303	-28.47845	-46.37919	11.39138	-70.78929	-148.08794	-85.43535	-68.34828	-46.37919	0
201	-47.19286	-72.41663	-2.44101	62.65259	-14.64606	-44.75185	8.95037	-77.29865	-152.96996	-95.19939	-78.11232	-53.70222	0
202	-22.78276	-61.83892	-12.20505	51.26121	0	-38.24249	8.1367	-80.55333	-157.03831	-102.52242	-85.43535	-57.77057	0
203	-11.39138	-52.07488	-14.64606	43.93818	5.69569	-30.10579	9.76404	-78.92599	-157.03831	-104.14976	-89.5037	-56.9569	0
204	-17.08707	-43.12451	-4.88202	42.31084	0	-20.34175	14.64606	-73.2303	-151.34262	-98.45407	-87.06269	-52.07488	0
205	-27.66478	-36.61515	13.83239	46.37919	-11.39138	-8.1367	18.71441	-66.72094	-141.57858	-87.87636	-78.92599	-44.75185	0
206	-38.24249	-32.5468	27.66478	48.8202	-22.78276	0	21.15542	-61.02525	-135.06922	-79.73966	-72.41663	-38.24249	0
207	-42.31084	-34.17414	30.91946	47.19286	-26.03744	0	20.34175	-57.77057	-134.25555	-80.55333	-70.78929	-34.17414	0
208	-43.12451	-42.31084	28.47845	47.19286	-21.96909	-3.25468	13.83239	-57.77057	-138.3239	-88.69003	-73.2303	-33.36047	0
209	-49.63387	-53.70222	26.03744	52.88855	-23.59643	-8.95037	7.32303	-61.83892	-144.83326	-99.26774	-78.92599	-36.61515	0
210	-62.65259	-59.39791	29.29212	61.83892	-37.42882	-11.39138	3.25468	-63.46626	-148.90161	-102.52242	-82.99434	-39.05616	0
211	-75.67131	-58.58424	39.86983	69.97562	-57.77057	-7.32303	2.44101	-59.39791	-147.27427	-100.08141	-82.18067	-37.42882	0
212	-87.06269	-55.32956	48.00653	74.85764	-72.41663	-3.25468	5.69569	-54.51589	-144.83326	-96.82673	-78.11232	-33.36047	0
213	-95.19939	-56.9569	45.56552	78.92599	-74.85764	-5.69569	8.1367	-53.70222	-145.64693	-93.57205	-77.29865	-32.5468	0
214	-96.01306	-64.27993	32.5468	82.99434	-68.34828	-16.2734	5.69569	-57.77057	-151.34262	-91.13104	-82.18067	-37.42882	0
215	-87.06269	-69.16195	15.45973	82.18067	-53.70222	-26.85111	1.62734	-63.46626	-158.66565	-90.31737	-88.69003	-41.49717	0
216	-71.60296	-68.34828	0.81367	74.85764	-37.42882	-34.17414	0	-67.53461	-162.734	-89.5037	-92.75838	-43.93818	0
217	-58.58424	-67.53461	-7.32303	69.16195	-25.22377	-37.42882	-0.81367	-69.16195	-163.54767	-90.31737	-93.57205	-45.56552	0
218	-52.07488	-69.97562	-11.39138	65.90727	-17.90074	-40.6835	0	-70.78929	-161.92033	-90.31737	-94.38572	-47.19286	0
219	-52.07488	-76.48498	-13.01872	66.72094	-14.64606	-43.93818	2.44101	-70.78929	-159.47932	-91.13104	-96.82673	-48.8202	0
220	-56.9569	-85.43535	-15.45973	72.41663	-13.83239	-49.63387	6.50936	-70.78929	-157.03831	-92.75838	-100.08141	-51.26121	0
221	-65.90727	-92.75838	-16.2734	79.73966	-13.83239	-54.51589	11.39138	-68.34828	-153.78363	-95.19939	-103.33609	-53.70222	0
222	-72.41663	-91.94471	-14.64606	81.367	-14.64606	-53.70222	18.71441	-62.65259	-148.90161	-96.01306	-105.7771	-52.88855	0
223	-69.16195	-83.80801	-11.39138	73.2303	-14.64606	-47.19286	26.03744	-53.70222	-141.57858	-94.38572	-105.7771	-51.26121	0
224	-59.39791	-73.2303	-7.32303	61.02525	-16.2734	-36.61515	31.73313	-46.37919	-135.88289	-91.94471	-104.96343	-48.8202	0
225	-51.26121	-62.65259	-2.44101	49.63387	-18.71441	-27.66478	34.17414	-40.6835	-131.81454	-89.5037	-104.96343	-48.00653	0
226	-45.56552	-53.70222	0.81367	40.6835	-21.15542	-21.96909	35.80148	-33.36047	-125.30518	-87.87636	-104.96343	-49.63387	0
227	-43.12451	-43.12451	5.69569	34.17414	-25.22377	-15.45973	44.75185	-17.08707	-109.03178	-81.367	-101.70875	-49.63387	0
228	-43.12451	-28.47845	17.90074	28.47845	-29.29212	-4.06835	63.46626	14.64606	-75.67131	-64.27993	-91.94471	-46.37919	0
229	-44.75185	-15.45973	31.73313	25.22377	-32.5468	8.1367	87.06269	58.58424	-25.22377	-39.05616	-78.11232	-43.93818	0
230	-47.19286	-14.64606	35.80148	28.47845	-33.36047	10.57771	104.96343	109.03178	34.98781	-9.76404	-65.0936	-47.19286	0
231	-48.8202	-34.98781	15.45973	39.86983	-26.03744	-9.76404	115.54114	154.5973	100.08141	17.90074	-55.32956	-56.14323	0
232	-43.93818	-71.60296	-27.66478	56.14323	-4.06835	-51.26121	118.79582	192.02612	165.98868	47.19286	-43.12451	-65.0936	0
233	-23.59643	-106.59077	-84.62168	63.46626	31.73313	-96.01306	114.72747	226.20026	237.59164	84.62168	-22.78276	-67.53461	0
234	11.39138	-125.30518	-140.76491	55.32956	76.48498	-134.25555	109.03178	267.69743	324.65433	133.44188	9.76404	-57.77057	0
235	58.58424	-131.81454	-195.2808	34.98781	126.11885	-164.36134	105.7771	326.28167	436.12712	197.72181	58.58424	-35.80148	0
236	122.0505	-128.55986	-253.86504	2.44101	185.51676	-191.21245	100.08141	401.95298	574.45102	282.34349	125.30518	-2.44101	0
237	208.29952	-110.65912	-320.58598	-48.8202	262.81541	-215.62255	83.80801	478.43796	724.1663	389.74793	216.43622	46.37919	0
238	316.51763	-74.04397	-391.37527	-122.0505	352.31911	-232.70962	50.44754	530.51284	861.67653	523.18981	338.48672	121.23683	0
239	442.63648	-21.96909	-463.7919	-211.5542	451.58685	-242.47366	-9.76404	528.8855	956.87592	677.78711	493.08402	220.50457	0
240	587.46974	41.49717	-542.71789	-315.70396	563.87331	-249.79669	-100.89508	452.40052	986.16804	841.33478	667.2094	338.48672	0
241	746.94906	115.54114	-628.96691	-432.87244	686.73748	-256.30605	-212.36787	310.00827	949.55289	995.11841	822.62037	449.95951	0
242	898.29168	183.88942	-714.40226	-537.0222	804.71963	-265.25642	-331.16369	122.86417	854.3535	1113.10056	927.5838	533.76752	0
243	1021.15585	227.8276	-785.19155	-608.62516	907.24205	-283.15716	-441.82281	-81.367	705.45189	1148.90204	985.35437	589.09708	0
244	1102.52285	237.59164	-836.45276	-648.49499	983.72703	-314.89029	-527.25816	-279.90248	503.66173	1064.28036	966.63996	595.60644	0
245	1123.67827	214.80888	-871.44057	-650.936	1017.0875	-349.06443	-575.26469	-458.09621	255.49238	873.88158	851.91249	541.09055	0
246	1069.16238	172.49804	-864.93121	-609.43883	982.09969	-362.89682	-585.02873	-610.2525	-20.34175	628.96691	674.53243	447.5185	0
247	941.41619	129.37353	-790.07357	-529.69917	875.50892	-340.92773	-563.05964	-742.06704	-313.26295	375.10187	477.62429	344.18241	0
248	770.54549	94.38572	-665.58206	-432.05877	722.53896	-290.48019	-521.56247	-848.65781	-610.2525	130.1872	288.03918	247.35568	0
249	605.37048	68.34828	-531.32651	-338.48672	569.569	-233.52329	-465.41924	-913.75141	-881.20461	-98.45407	117.16848	162.734	0
250	473.55594	47.19286	-423.92207	-262.81541	447.5185	-187.95777	-396.25729	-942.22986	-1092.75881	-304.31258	-32.5468	85.43535	0
251	377.54288	26.85111	-349.8781	-204.23117	361.26948	-160.29299	-316.51763	-938.16151	-1222.94601	-471.11493	-155.41097	18.71441	0
252	298.61689	11.39138	-288.85285	-157.85198	291.29386	-137.51023	-228.64127	-909.68306	-1268.51153	-576.89203	-238.40531	-27.66478	0
253	218.06356	3.25468	-218.06356	-113.10013	216.43622	-106.59077	-146.4606	-874.69525	-1254.67914	-621.64388	-283.15716	-55.32956	0
254	124.49151	-5.69569	-134.25555	-60.21158	128.55986	-69.97562	-90.31737	-841.33478	-1223.75968	-626.5259	-305.12625	-73.2303	0
255	26.03744	-24.4101	-56.14323	-1.62734	38.24249	-39.05616	-62.65259	-816.92468	-1196.90857	-611.06617	-314.07662	-86.24902	0
256	-52.88855	-49.63387	0	50.44754	-28.47845	-20.34175	-59.39791	-805.5333	-1175.75315	-592.35176	-313.26295	-94.38572	0
257	-98.45407	-72.41663	31.73313	83.80801	-63.46626	-11.39138	-78.92599	-806.34697	-1147.2747	-568.75533	-309.1946	-99.26774	0
258	-113.10013	-82.18067	42.31084	96.01306	-73.2303	-9.76404	-107.40444	-795.76926	-1090.3178	-532.95385	-296.17588	-97.6404	0
259	-105.7771	-77.29865	40.6835	90.31737	-70.78929	-9.76404	-133.44188	-746.94906	-992.6774	-479.25163	-266.88376	-83.80801	0
260	-85.43535	-58.58424	30.91946	68.34828	-60.21158	-8.95037	-148.08794	-659.88637	-864.93121	-413.34436	-223.75925	-59.39791	0
261	-66.72094	-33.36047	21.15542	39.86983	-44.75185	-4.06835	-146.4606	-550.85459	-725.79364	-345.80975	-174.12538	-29.29212	0
262	-56.14323	-8.95037	22.78276	19.52808	-36.61515	5.69569	-130.1872	-437.75446	-596.42011	-283.97083	-126.11885	0	0
263	-52.88855	7.32303	38.24249	11.39138	-43.93818	20.34175	-109.03178	-340.11406	-489.82934	-232.70962	-85.43535	22.78276	0
264	-55.32956	17.90074	64.27993	9.76404	-61.02525	38.24249	-87.06269	-265.25642	-410.08968	-189.58511	-54.51589	39.86983	0
265	-65.0936	24.4101	91.94471	13.83239	-79.73966	56.14323	-67.53461	-211.5542	-351.50544	-153.78363	-29.29212	52.88855	0
266	-78.11232	29.29212	114.72747	20.34175	-96.01306	70.78929	-52.07488	-179.0074	-313.26295	-130.1872	-12.20505	61.83892	1500	QRS+0
267	-88.69003	34.98781	128.55986	24.4101	-107.40444	80.55333	-46.37919	-164.36134	-293.73487	-113.10013	-4.88202	65.0936	0
268	-94.38572	41.49717	134.25555	27.66478	-113.10013	84.62168	-48.00653	-162.734	-288.03918	-104.14976	-7.32303	64.27993	0
269	-96.82673	45.56552	134.25555	28.47845	-116.35481	87.06269	-49.63387	-162.734	-286.41184	-102.52242	-10.57771	60.21158	0
270	-97.6404	46.37919	130.1872	27.66478	-119.60949	90.31737	-44.75185	-157.03831	-279.90248	-104.96343	-9.76404	55.32956	0
271	-98.45407	48.00653	123.67784	26.03744	-122.0505	92.75838	-37.42882	-147.27427	-269.32477	-105.7771	-5.69569	52.07488	0
272	-96.01306	49.63387	119.60949	22.78276	-121.23683	93.57205	-31.73313	-136.69656	-257.93339	-104.14976	1.62734	49.63387	0
273	-91.13104	50.44754	122.0505	17.90074	-115.54114	92.75838	-29.29212	-126.93252	-246.54201	-99.26774	10.57771	49.63387	0
274	-91.94471	48.8202	130.1872	19.52808	-115.54114	92.75838	-30.10579	-119.60949	-237.59164	-91.13104	16.2734	50.44754	0
275	-104.96343	42.31084	139.95124	31.73313	-124.49151	92.75838	-32.5468	-117.98215	-231.08228	-82.18067	19.52808	51.26121	0
276	-127.74619	35.80148	149.71528	50.44754	-141.57858	91.13104	-36.61515	-117.16848	-227.01393	-71.60296	22.78276	50.44754	0
277	-151.34262	30.10579	157.03831	66.72094	-160.29299	93.57205	-35.80148	-112.28646	-217.24989	-61.83892	26.03744	52.07488	0
278	-161.10666	30.91946	163.54767	69.97562	-171.68437	100.89508	-28.47845	-103.33609	-203.4175	-54.51589	28.47845	56.9569	0
279	-155.41097	38.24249	169.24336	59.39791	-168.42969	107.40444	-20.34175	-96.01306	-191.21245	-50.44754	30.91946	59.39791	0
280	-143.20592	48.00653	171.68437	43.12451	-156.22464	112.28646	-13.83239	-91.94471	-183.88942	-48.00653	33.36047	60.21158	0
281	-126.93252	61.83892	175.75272	30.91946	-144.01959	119.60949	-6.50936	-87.06269	-177.38006	-43.93818	39.86983	62.65259	0
282	-113.9138	75.67131	190.39878	22.78276	-139.13757	131.00087	-0.81367	-79.73966	-169.24336	-38.24249	47.19286	66.72094	0
283	-108.21811	88.69003	205.04484	16.2734	-142.39225	139.95124	3.25468	-71.60296	-161.92033	-30.91946	52.88855	69.16195	0
284	-99.26774	100.08141	208.29952	8.95037	-143.20592	146.4606	7.32303	-63.46626	-152.15629	-21.15542	59.39791	72.41663	0
285	-85.43535	110.65912	197.72181	1.62734	-133.44188	147.27427	9.76404	-56.14323	-140.76491	-8.95037	67.53461	78.11232	0
286	-74.04397	109.03178	171.68437	-6.50936	-113.9138	135.88289	6.50936	-54.51589	-135.06922	-4.88202	70.78929	81.367	0
287	-66.72094	86.24902	135.88289	-5.69569	-91.94471	117.16848	-2.44101	-60.21158	-138.3239	-13.83239	66.72094	78.11232	0
288	-70.78929	50.44754	102.52242	9.76404	-78.92599	99.26774	-13.01872	-69.97562	-144.83326	-34.17414	58.58424	71.60296	0
289	-89.5037	22.78276	93.57205	34.17414	-87.06269	86.24902	-22.78276	-79.73966	-152.96996	-51.26121	46.37919	62.65259	0
290	-113.9138	9.76404	115.54114	57.77057	-109.84545	84.62168	-29.29212	-87.87636	-158.66565	-60.21158	34.98781	54.51589	0
291	-135.06922	4.06835	150.52895	78.11232	-132.62821	90.31737	-31.73313	-91.13104	-161.92033	-61.83892	25.22377	50.44754	0
292	-152.15629	1.62734	176.56639	89.5037	-150.52895	94.38572	-33.36047	-91.94471	-163.54767	-61.02525	17.08707	48.00653	0
293	-155.41097	8.1367	183.88942	84.62168	-158.66565	97.6404	-30.10579	-87.87636	-160.29299	-58.58424	10.57771	47.19286	0
294	-144.01959	23.59643	179.82107	65.90727	-155.41097	100.89508	-22.78276	-78.11232	-150.52895	-51.26121	8.95037	49.63387	0
295	-126.11885	42.31084	175.75272	43.93818	-148.90161	107.40444	-13.83239	-65.90727	-136.69656	-39.86983	13.01872	55.32956	0
296	-110.65912	61.02525	173.31171	23.59643	-144.01959	117.16848	-8.1367	-55.32956	-122.0505	-26.85111	21.96909	63.46626	0
297	-103.33609	76.48498	173.31171	12.20505	-143.20592	126.11885	-5.69569	-48.8202	-110.65912	-16.2734	31.73313	72.41663	0
298	-107.40444	86.24902	173.31171	10.57771	-146.4606	126.93252	-9.76404	-50.44754	-106.59077	-8.95037	38.24249	76.48498	0
299	-116.35481	90.31737	170.05703	10.57771	-144.83326	119.60949	-17.90074	-58.58424	-110.65912	-7.32303	39.86983	75.67131	0
300	-122.86417	89.5037	165.98868	8.1367	-139.95124	115.54114	-25.22377	-67.53461	-118.79582	-11.39138	39.05616	74.04397	0
301	-126.93252	88.69003	172.49804	7.32303	-142.39225	119.60949	-29.29212	-73.2303	-125.30518	-18.71441	36.61515	73.2303	0
302	-131.81454	87.87636	187.95777	10.57771	-152.96996	130.1872	-30.91946	-75.67131	-128.55986	-28.47845	32.5468	73.2303	0
303	-135.06922	86.24902	201.79016	16.2734	-164.36134	140.76491	-30.91946	-73.2303	-127.74619	-36.61515	28.47845	72.41663	0
304	-132.62821	84.62168	207.48585	18.71441	-168.42969	145.64693	-30.10579	-69.16195	-121.23683	-39.86983	26.85111	69.97562	0
305	-126.93252	79.73966	203.4175	20.34175	-165.98868	142.39225	-31.73313	-64.27993	-113.10013	-37.42882	29.29212	69.97562	0
306	-120.42316	67.53461	190.39878	24.4101	-157.85198	129.37353	-33.36047	-59.39791	-104.14976	-31.73313	34.98781	71.60296	0
307	-116.35481	51.26121	168.42969	31.73313	-144.83326	111.47279	-33.36047	-54.51589	-96.01306	-21.96909	42.31084	75.67131	0
308	-111.47279	39.05616	145.64693	39.86983	-130.1872	95.19939	-30.91946	-47.19286	-86.24902	-12.20505	48.8202	81.367	0
309	-105.7771	30.10579	127.74619	47.19286	-117.98215	83.80801	-26.85111	-40.6835	-74.85764	-4.88202	52.07488	85.43535	0
310	-97.6404	26.03744	117.16848	52.07488	-108.21811	77.29865	-23.59643	-35.80148	-65.90727	-1.62734	52.07488	87.87636	0
311	-91.94471	24.4101	113.9138	50.44754	-102.52242	76.48498	-21.96909	-34.17414	-61.02525	-0.81367	49.63387	87.06269	0
312	-88.69003	24.4101	116.35481	43.93818	-99.26774	78.11232	-21.96909	-32.5468	-60.21158	-1.62734	46.37919	83.80801	0
313	-92.75838	24.4101	119.60949	37.42882	-103.33609	80.55333	-23.59643	-31.73313	-62.65259	-3.25468	43.12451	76.48498	0
314	-101.70875	26.85111	121.23683	32.5468	-113.10013	82.18067	-25.22377	-31.73313	-61.83892	0.81367	42.31084	69.97562	0
315	-111.47279	32.5468	131.81454	30.10579	-125.30518	88.69003	-24.4101	-27.66478	-54.51589	13.01872	44.75185	72.41663	0
316	-115.54114	43.93818	149.71528	26.03744	-135.06922	100.08141	-18.71441	-19.52808	-39.05616	30.10579	51.26121	82.99434	0
317	-101.70875	61.83892	165.17501	12.20505	-139.13757	111.47279	-12.20505	-10.57771	-23.59643	41.49717	58.58424	95.19939	0
318	-65.0936	78.92599	172.49804	-15.45973	-131.81454	116.35481	-8.1367	-4.06835	-12.20505	42.31084	63.46626	104.14976	0
319	-24.4101	91.94471	169.24336	-47.19286	-113.10013	118.79582	-4.06835	-2.44101	-4.06835	37.42882	65.0936	109.84545	0
320	-12.20505	100.08141	168.42969	-58.58424	-104.96343	117.98215	0	-4.06835	-1.62734	31.73313	61.02525	113.10013	0
321	-32.5468	93.57205	176.56639	-46.37919	-113.10013	115.54114	-1.62734	-7.32303	-4.88202	26.03744	53.70222	108.21811	0
322	-56.9569	74.04397	181.44841	-27.66478	-122.0505	113.10013	-11.39138	-9.76404	-8.95037	21.15542	46.37919	97.6404	0
323	-73.2303	57.77057	178.19373	-13.01872	-124.49151	110.65912	-21.15542	-9.76404	-9.76404	18.71441	43.12451	88.69003	0
324	-82.18067	52.88855	169.24336	-1.62734	-123.67784	108.21811	-27.66478	-4.88202	-6.50936	19.52808	43.12451	85.43535	0
325	-89.5037	52.88855	161.92033	4.06835	-124.49151	106.59077	-31.73313	0.81367	0	22.78276	45.56552	85.43535	0
326	-96.82673	53.70222	160.29299	8.1367	-128.55986	109.84545	-30.10579	8.95037	8.95037	28.47845	47.19286	88.69003	0
327	-100.08141	56.14323	163.54767	10.57771	-132.62821	115.54114	-23.59643	19.52808	21.15542	34.17414	50.44754	92.75838	0
328	-98.45407	59.39791	168.42969	12.20505	-134.25555	117.98215	-13.01872	32.5468	35.80148	39.05616	53.70222	96.82673	0
329	-93.57205	61.02525	168.42969	14.64606	-131.00087	116.35481	-4.88202	43.12451	51.26121	40.6835	53.70222	97.6404	0
330	-89.5037	59.39791	161.10666	18.71441	-124.49151	110.65912	-0.81367	50.44754	63.46626	38.24249	48.8202	92.75838	0
331	-91.94471	52.88855	152.96996	23.59643	-119.60949	101.70875	-1.62734	54.51589	70.78929	31.73313	39.86983	84.62168	0
332	-99.26774	41.49717	144.01959	30.91946	-117.16848	94.38572	-7.32303	57.77057	72.41663	22.78276	30.10579	72.41663	0
333	-109.03178	25.22377	133.44188	41.49717	-117.16848	88.69003	-15.45973	59.39791	70.78929	14.64606	20.34175	60.21158	0
334	-111.47279	15.45973	124.49151	47.19286	-116.35481	82.99434	-20.34175	61.02525	70.78929	12.20505	16.2734	53.70222	0
335	-103.33609	28.47845	121.23683	31.73313	-113.9138	86.24902	-20.34175	65.90727	78.11232	17.90074	17.90074	52.88855	0
336	-91.13104	59.39791	125.30518	2.44101	-113.9138	100.08141	-17.08707	78.11232	96.01306	32.5468	26.85111	59.39791	0
337	-78.92599	91.13104	139.13757	-21.15542	-115.54114	118.79582	-6.50936	98.45407	122.86417	52.88855	40.6835	73.2303	0
338	-69.16195	112.28646	156.22464	-32.5468	-117.98215	134.25555	4.06835	120.42316	152.15629	72.41663	54.51589	87.87636	0
339	-65.90727	116.35481	167.61602	-32.5468	-120.42316	141.57858	12.20505	138.3239	175.75272	82.18067	60.21158	95.19939	0
340	-76.48498	107.40444	172.49804	-19.52808	-122.86417	141.57858	17.90074	151.34262	192.83979	82.18067	58.58424	95.19939	0
341	-99.26774	92.75838	170.8707	1.62734	-126.11885	138.3239	21.15542	161.10666	206.67218	77.29865	50.44754	91.13104	0
342	-118.79582	79.73966	165.98868	21.15542	-129.37353	130.1872	21.96909	166.80235	214.80888	71.60296	41.49717	82.99434	0
343	-124.49151	70.78929	161.10666	30.91946	-131.81454	120.42316	19.52808	171.68437	222.94558	69.16195	34.98781	73.2303	0
344	-117.16848	66.72094	157.03831	32.5468	-130.1872	113.10013	17.08707	177.38006	231.08228	70.78929	31.73313	66.72094	0
345	-104.14976	68.34828	154.5973	28.47845	-126.93252	110.65912	14.64606	183.07575	239.21898	75.67131	29.29212	61.83892	0
346	-93.57205	68.34828	153.78363	21.96909	-124.49151	109.03178	14.64606	187.95777	245.72834	82.18067	26.85111	56.14323	-1500	QRS-0
347	-81.367	66.72094	146.4606	8.95037	-114.72747	103.33609	12.20505	193.65346	254.67871	89.5037	27.66478	52.07488	0
348	-61.83892	65.0936	129.37353	-5.69569	-96.01306	94.38572	7.32303	201.79016	266.88376	95.19939	28.47845	48.00653	0
349	-48.8202	64.27993	111.47279	-13.01872	-82.18067	84.62168	2.44101	209.11319	279.08881	98.45407	27.66478	41.49717	0
350	-49.63387	61.83892	94.38572	-7.32303	-79.73966	74.85764	0	215.62255	290.48019	96.82673	22.78276	33.36047	0
351	-51.26121	59.39791	85.43535	-3.25468	-82.18067	67.53461	-1.62734	222.13191	300.24423	92.75838	16.2734	23.59643	0
352	-48.00653	54.51589	85.43535	-2.44101	-87.06269	62.65259	-1.62734	230.26861	310.00827	87.87636	6.50936	13.83239	0
353	-47.19286	48.00653	88.69003	0	-88.69003	60.21158	0	240.84632	321.39965	82.99434	-1.62734	4.88202	0
354	-39.05616	48.00653	86.24902	-4.06835	-78.92599	61.83892	6.50936	254.67871	336.85938	81.367	-8.95037	0	0
355	-11.39138	59.39791	73.2303	-18.71441	-52.88855	63.46626	13.83239	269.32477	354.76012	83.80801	-13.01872	-1.62734	0
356	23.59643	74.04397	54.51589	-33.36047	-21.15542	62.65259	21.15542	283.97083	373.47453	87.87636	-17.08707	-2.44101	0
357	46.37919	78.92599	36.61515	-42.31084	4.06835	56.9569	26.03744	296.17588	389.74793	90.31737	-23.59643	-6.50936	0
358	53.70222	71.60296	17.08707	-48.8202	21.96909	43.93818	26.85111	301.0579	401.13931	89.5037	-34.17414	-17.08707	0
359	54.51589	56.14323	-4.06835	-52.88855	32.5468	24.4101	24.4101	301.0579	406.835	84.62168	-47.19286	-31.73313	0
360	59.39791	39.86983	-22.78276	-52.07488	43.12451	4.88202	17.90074	299.43056	409.27601	76.48498	-61.83892	-43.93818	0
361	70.78929	30.91946	-36.61515	-51.26121	55.32956	-7.32303	13.01872	303.49891	414.9717	66.72094	-75.67131	-53.70222	0
362	85.43535	35.80148	-41.49717	-58.58424	65.0936	-14.64606	13.01872	312.44928	423.92207	58.58424	-85.43535	-64.27993	0
363	87.87636	38.24249	-38.24249	-61.02525	70.78929	-17.08707	15.45973	320.58598	431.2451	54.51589	-91.94471	-72.41663	0
364	67.53461	24.4101	-30.91946	-43.93818	69.97562	-18.71441	17.90074	327.09534	437.75446	56.14323	-94.38572	-78.11232	0
365	32.5468	0	-25.22377	-14.64606	65.90727	-24.4101	19.52808	332.79103	441.82281	61.02525	-93.57205	-82.99434	0
366	10.57771	-22.78276	-31.73313	7.32303	60.21158	-35.80148	17.90074	333.6047	445.07749	66.72094	-93.57205	-89.5037	0
367	14.64606	-38.24249	-54.51589	13.01872	64.27993	-52.88855	12.20505	330.35002	446.70483	69.97562	-98.45407	-100.08141	0
368	36.61515	-45.56552	-87.87636	5.69569	82.18067	-69.97562	3.25468	323.02699	446.70483	68.34828	-108.21811	-114.72747	0
369	59.39791	-47.19286	-117.98215	-1.62734	102.52242	-84.62168	-4.88202	313.26295	445.07749	64.27993	-120.42316	-131.00087	0
370	79.73966	-54.51589	-143.20592	-8.1367	119.60949	-100.89508	-10.57771	305.93992	442.63648	60.21158	-131.81454	-144.83326	0
371	93.57205	-70.78929	-161.92033	-13.01872	129.37353	-117.98215	-14.64606	302.68524	438.56813	56.9569	-142.39225	-153.78363	0
372	96.82673	-87.06269	-176.56639	-9.76404	134.25555	-132.62821	-18.71441	302.68524	436.94079	53.70222	-150.52895	-157.85198	0
373	100.89508	-92.75838	-185.51676	-9.76404	133.44188	-139.13757	-21.15542	305.93992	440.19547	51.26121	-155.41097	-158.66565	0
374	105.7771	-84.62168	-184.70309	-15.45973	126.11885	-133.44188	-17.08707	311.63561	445.89116	52.07488	-155.41097	-157.03831	0
375	104.14976	-74.85764	-174.93905	-18.71441	119.60949	-121.23683	-7.32303	314.89029	450.77318	56.14323	-150.52895	-152.15629	0
376	96.01306	-68.34828	-161.10666	-17.08707	115.54114	-109.03178	0.81367	318.14497	454.84153	62.65259	-143.20592	-147.27427	0
377	91.13104	-65.0936	-149.71528	-13.83239	111.47279	-102.52242	2.44101	317.3313	454.02786	65.90727	-136.69656	-144.83326	0
378	87.87636	-63.46626	-147.27427	-13.01872	107.40444	-101.70875	-0.81367	307.56726	445.07749	64.27993	-133.44188	-148.90161	0
379	84.62168	-68.34828	-152.96996	-10.57771	107.40444	-109.03178	-7.32303	292.9212	431.2451	59.39791	-134.25555	-155.41097	0
380	86.24902	-80.55333	-161.92033	-2.44101	113.10013	-121.23683	-13.83239	278.27514	415.78537	55.32956	-139.95124	-162.734	0
381	91.13104	-94.38572	-171.68437	5.69569	120.42316	-134.25555	-19.52808	265.25642	400.32564	52.88855	-147.27427	-167.61602	0
382	94.38572	-105.7771	-181.44841	11.39138	126.93252	-146.4606	-24.4101	253.05137	384.05224	48.00653	-151.34262	-172.49804	0
383	94.38572	-113.9138	-187.1441	13.83239	130.1872	-156.22464	-30.10579	240.84632	365.33783	39.05616	-154.5973	-177.38006	0
384	91.94471	-116.35481	-187.95777	14.64606	130.1872	-158.66565	-34.17414	230.26861	349.06443	30.10579	-157.03831	-179.82107	0
385	83.80801	-112.28646	-181.44841	14.64606	125.30518	-152.15629	-36.61515	222.13191	336.04571	26.03744	-154.5973	-178.19373	0
386	69.16195	-109.84545	-169.24336	15.45973	113.9138	-143.20592	-39.86983	213.18154	326.28167	24.4101	-151.34262	-175.75272	0
387	45.56552	-111.47279	-155.41097	18.71441	96.82673	-134.25555	-41.49717	205.04484	318.95864	22.78276	-148.08794	-172.49804	0
388	22.78276	-111.47279	-143.20592	24.4101	76.48498	-122.86417	-37.42882	200.16282	314.07662	25.22377	-140.76491	-162.734	0
389	17.90074	-100.08141	-129.37353	23.59643	68.34828	-109.03178	-26.85111	201.79016	310.00827	32.5468	-129.37353	-148.90161	0
390	33.36047	-78.11232	-117.16848	12.20505	74.85764	-96.82673	-15.45973	204.23117	305.93992	40.6835	-117.16848	-135.88289	0
391	52.07488	-51.26121	-110.65912	-1.62734	84.62168	-88.69003	-4.88202	206.67218	299.43056	48.00653	-109.03178	-127.74619	0
392	66.72094	-30.91946	-108.21811	-14.64606	91.13104	-84.62168	0.81367	205.85851	291.29386	52.07488	-104.96343	-124.49151	0
393	69.97562	-27.66478	-107.40444	-21.96909	91.13104	-83.80801	1.62734	200.16282	277.46147	49.63387	-104.96343	-123.67784	0
394	59.39791	-41.49717	-108.21811	-23.59643	84.62168	-87.06269	-4.88202	187.95777	257.93339	39.86983	-109.03178	-125.30518	0
395	52.88855	-59.39791	-116.35481	-19.52808	83.80801	-95.19939	-16.2734	170.8707	235.15063	26.03744	-115.54114	-130.1872	0
396	64.27993	-68.34828	-130.1872	-17.90074	96.01306	-103.33609	-26.03744	154.5973	213.99521	13.83239	-121.23683	-134.25555	0
397	80.55333	-68.34828	-139.95124	-20.34175	112.28646	-108.21811	-32.5468	141.57858	196.09447	5.69569	-122.86417	-134.25555	0
398	89.5037	-65.90727	-144.83326	-21.15542	120.42316	-109.84545	-36.61515	131.00087	182.26208	1.62734	-121.23683	-132.62821	0
399	88.69003	-65.0936	-144.83326	-20.34175	120.42316	-108.21811	-39.05616	120.42316	169.24336	0	-119.60949	-130.1872	0
400	82.18067	-65.90727	-139.13757	-18.71441	111.47279	-104.96343	-39.86983	110.65912	157.03831	-2.44101	-117.16848	-128.55986	0
401	75.67131	-63.46626	-127.74619	-14.64606	98.45407	-97.6404	-39.86983	104.14976	148.08794	-3.25468	-113.10013	-125.30518	0
402	71.60296	-57.77057	-119.60949	-7.32303	89.5037	-89.5037	-39.05616	100.89508	141.57858	-2.44101	-106.59077	-120.42316	0
403	64.27993	-52.88855	-114.72747	0	82.99434	-82.18067	-35.80148	101.70875	139.13757	0.81367	-98.45407	-113.10013	0
404	48.8202	-52.07488	-108.21811	7.32303	73.2303	-74.85764	-30.91946	105.7771	139.13757	7.32303	-91.13104	-103.33609	0
405	30.91946	-54.51589	-96.01306	16.2734	62.65259	-67.53461	-29.29212	106.59077	136.69656	12.20505	-83.80801	-95.19939	0
406	17.90074	-58.58424	-87.87636	23.59643	52.88855	-64.27993	-31.73313	102.52242	131.81454	12.20505	-77.29865	-90.31737	0
407	8.1367	-65.0936	-88.69003	33.36047	47.19286	-64.27993	-37.42882	95.19939	126.93252	9.76404	-73.2303	-89.5037	0
408	-4.06835	-74.85764	-87.87636	44.75185	44.75185	-68.34828	-39.86983	89.5037	122.86417	8.1367	-69.97562	-88.69003	0
409	-8.95037	-73.2303	-76.48498	43.93818	47.19286	-65.0936	-34.98781	91.13104	123.67784	11.39138	-62.65259	-82.18067	0
410	-1.62734	-56.9569	-64.27993	30.10579	53.70222	-52.07488	-25.22377	97.6404	128.55986	18.71441	-52.88855	-71.60296	0
411	2.44101	-41.49717	-55.32956	17.90074	56.9569	-38.24249	-16.2734	104.14976	131.81454	24.4101	-46.37919	-62.65259	0
412	0	-34.17414	-46.37919	14.64606	55.32956	-28.47845	-12.20505	107.40444	129.37353	26.85111	-42.31084	-56.14323	0
413	-12.20505	-38.24249	-37.42882	22.78276	50.44754	-28.47845	-17.08707	102.52242	119.60949	19.52808	-46.37919	-56.14323	0
414	-23.59643	-52.88855	-39.05616	38.24249	43.12451	-40.6835	-28.47845	91.13104	104.14976	7.32303	-55.32956	-61.83892	0
415	-26.85111	-68.34828	-53.70222	51.26121	37.42882	-61.83892	-37.42882	81.367	91.94471	-0.81367	-60.21158	-65.0936	0
416	-24.4101	-79.73966	-66.72094	56.14323	34.17414	-78.11232	-43.12451	74.85764	83.80801	-4.06835	-59.39791	-64.27993	0
417	-18.71441	-82.18067	-73.2303	52.07488	33.36047	-83.80801	-44.75185	70.78929	79.73966	-2.44101	-53.70222	-61.02525	0
418	-9.76404	-74.04397	-78.11232	36.61515	36.61515	-80.55333	-45.56552	68.34828	78.11232	0.81367	-48.00653	-56.9569	0
419	3.25468	-62.65259	-81.367	20.34175	39.05616	-74.85764	-44.75185	65.90727	78.92599	3.25468	-45.56552	-56.14323	0
420	15.45973	-54.51589	-78.92599	8.95037	39.05616	-66.72094	-46.37919	62.65259	78.92599	4.06835	-45.56552	-58.58424	0
421	18.71441	-48.00653	-71.60296	3.25468	34.98781	-58.58424	-50.44754	57.77057	77.29865	3.25468	-46.37919	-61.83892	0
422	11.39138	-40.6835	-64.27993	5.69569	25.22377	-52.07488	-54.51589	54.51589	74.85764	0.81367	-48.8202	-65.0936	0
423	0.81367	-34.98781	-57.77057	13.01872	17.08707	-44.75185	-56.14323	54.51589	72.41663	0	-51.26121	-66.72094	0
424	2.44101	-31.73313	-56.14323	13.83239	19.52808	-37.42882	-56.14323	56.14323	69.97562	-0.81367	-52.88855	-67.53461	0
425	19.52808	-23.59643	-58.58424	2.44101	30.10579	-30.91946	-56.14323	57.77057	69.97562	0.81367	-49.63387	-64.27993	0
426	47.19286	-4.06835	-59.39791	-21.15542	42.31084	-22.78276	-53.70222	61.83892	73.2303	4.88202	-41.49717	-58.58424	0
427	74.85764	21.15542	-59.39791	-48.8202	54.51589	-11.39138	-49.63387	66.72094	79.73966	10.57771	-32.5468	-52.88855	0
428	86.24902	31.73313	-58.58424	-61.02525	61.83892	-8.1367	-48.8202	66.72094	82.99434	16.2734	-26.85111	-48.8202	0
429	71.60296	13.83239	-61.02525	-46.37919	63.46626	-20.34175	-56.9569	56.14323	74.85764	13.01872	-30.10579	-51.26121	0
430	40.6835	-21.96909	-66.72094	-12.20505	60.21158	-42.31084	-71.60296	38.24249	57.77057	1.62734	-40.6835	-61.02525	0
431	10.57771	-55.32956	-74.04397	18.71441	52.88855	-62.65259	-82.99434	23.59643	39.86983	-12.20505	-52.07488	-69.16195	0
432	0	-71.60296	-78.11232	32.5468	48.8202	-74.04397	-87.87636	14.64606	26.85111	-24.4101	-59.39791	-71.60296	0
433	8.1367	-68.34828	-76.48498	26.85111	50.44754	-74.04397	-84.62168	13.83239	20.34175	-31.73313	-62.65259	-70.78929	0
434	24.4101	-52.88855	-70.78929	11.39138	52.07488	-64.27993	-75.67131	17.90074	19.52808	-33.36047	-61.83892	-66.72094	0
435	35.80148	-35.80148	-62.65259	-2.44101	48.8202	-50.44754	-66.72094	25.22377	24.4101	-28.47845	-56.9569	-59.39791	0
436	37.42882	-21.15542	-53.70222	-9.76404	43.12451	-40.6835	-58.58424	32.5468	31.73313	-20.34175	-48.8202	-51.26121	0
437	32.5468	-10.57771	-43.93818	-13.83239	35.80148	-32.5468	-52.07488	41.49717	41.49717	-8.1367	-38.24249	-42.31084	0
438	27.66478	-4.06835	-32.5468	-16.2734	28.47845	-21.96909	-43.93818	49.63387	52.88855	3.25468	-26.85111	-32.5468	0
439	22.78276	-0.81367	-22.78276	-17.08707	20.34175	-8.95037	-35.80148	56.9569	61.02525	11.39138	-18.71441	-25.22377	0
440	17.90074	0	-18.71441	-17.08707	10.57771	0	-29.29212	61.02525	66.72094	15.45973	-17.90074	-21.96909	0
441	14.64606	-4.88202	-17.90074	-16.2734	1.62734	0	-28.47845	58.58424	65.90727	13.01872	-21.96909	-26.03744	0
442	11.39138	-16.2734	-23.59643	-10.57771	2.44101	-11.39138	-33.36047	51.26121	58.58424	5.69569	-28.47845	-34.98781	0
443	10.57771	-25.22377	-33.36047	0	9.76404	-22.78276	-38.24249	43.93818	50.44754	-0.81367	-33.36047	-43.12451	0
444	11.39138	-32.5468	-43.12451	6.50936	19.52808	-33.36047	-44.75185	35.80148	40.6835	-8.1367	-38.24249	-49.63387	0
445	12.20505	-40.6835	-53.70222	8.95037	28.47845	-45.56552	-53.70222	25.22377	26.85111	-18.71441	-45.56552	-55.32956	0
446	16.2734	-44.75185	-66.72094	8.95037	39.05616	-59.39791	-65.0936	13.01872	12.20505	-27.66478	-51.26121	-59.39791	0
447	28.47845	-43.93818	-80.55333	8.1367	53.70222	-68.34828	-74.04397	1.62734	0	-32.5468	-53.70222	-60.21158	0
448	45.56552	-42.31084	-95.19939	6.50936	71.60296	-74.85764	-79.73966	-4.88202	-8.95037	-34.98781	-52.88855	-58.58424	0
449	56.9569	-42.31084	-104.14976	4.88202	82.18067	-77.29865	-78.92599	-7.32303	-10.57771	-34.17414	-48.8202	-53.70222	0
450	56.14323	-43.93818	-98.45407	4.88202	77.29865	-74.04397	-71.60296	-3.25468	-4.88202	-29.29212	-40.6835	-45.56552	0
451	48.00653	-39.86983	-83.80801	6.50936	57.77057	-61.02525	-59.39791	4.88202	4.06835	-22.78276	-33.36047	-35.80148	0
452	34.98781	-30.91946	-66.72094	4.06835	34.17414	-43.12451	-45.56552	15.45973	14.64606	-15.45973	-27.66478	-24.4101	0
453	22.78276	-23.59643	-51.26121	0	20.34175	-30.10579	-35.80148	22.78276	20.34175	-10.57771	-22.78276	-17.90074	0
454	15.45973	-17.08707	-42.31084	-2.44101	21.96909	-25.22377	-33.36047	23.59643	19.52808	-12.20505	-21.96909	-18.71441	0
455	11.39138	-16.2734	-41.49717	0	26.85111	-26.03744	-36.61515	20.34175	14.64606	-15.45973	-26.85111	-23.59643	0
456	9.76404	-21.96909	-40.6835	3.25468	26.85111	-32.5468	-41.49717	15.45973	8.95037	-17.08707	-33.36047	-28.47845	0
457	10.57771	-30.10579	-38.24249	9.76404	21.15542	-39.05616	-45.56552	10.57771	5.69569	-17.08707	-37.42882	-31.73313	0
458	13.01872	-39.05616	-37.42882	20.34175	19.52808	-41.49717	-49.63387	7.32303	2.44101	-17.90074	-38.24249	-34.17414	0
459	9.76404	-42.31084	-36.61515	23.59643	17.90074	-41.49717	-53.70222	1.62734	-0.81367	-19.52808	-38.24249	-36.61515	0
460	0	-39.05616	-33.36047	17.08707	13.83239	-41.49717	-56.9569	-5.69569	-8.1367	-25.22377	-41.49717	-40.6835	0
461	-4.88202	-35.80148	-30.91946	11.39138	8.1367	-40.6835	-59.39791	-14.64606	-19.52808	-34.17414	-47.19286	-43.93818	0
462	-5.69569	-33.36047	-25.22377	8.1367	1.62734	-36.61515	-59.39791	-20.34175	-29.29212	-44.75185	-51.26121	-47.19286	0
463	-5.69569	-32.5468	-17.90074	10.57771	-3.25468	-28.47845	-56.14323	-21.96909	-34.17414	-52.07488	-53.70222	-51.26121	0
464	-4.88202	-32.5468	-16.2734	17.90074	-1.62734	-23.59643	-53.70222	-21.96909	-36.61515	-56.9569	-54.51589	-52.88855	0
465	0	-31.73313	-26.03744	21.96909	6.50936	-24.4101	-54.51589	-22.78276	-36.61515	-58.58424	-54.51589	-53.70222	0
466	2.44101	-31.73313	-38.24249	26.85111	16.2734	-28.47845	-57.77057	-25.22377	-36.61515	-56.14323	-52.88855	-53.70222	0
467	7.32303	-33.36047	-48.00653	31.73313	22.78276	-33.36047	-60.21158	-26.85111	-35.80148	-52.88855	-50.44754	-52.07488	0
468	14.64606	-30.10579	-48.8202	33.36047	27.66478	-34.98781	-58.58424	-26.03744	-33.36047	-48.00653	-46.37919	-47.19286	0
469	18.71441	-22.78276	-43.12451	32.5468	28.47845	-30.10579	-54.51589	-22.78276	-29.29212	-41.49717	-41.49717	-42.31084	0
470	12.20505	-20.34175	-32.5468	31.73313	21.96909	-26.03744	-49.63387	-19.52808	-24.4101	-37.42882	-37.42882	-37.42882	0
471	-4.06835	-19.52808	-15.45973	30.10579	4.88202	-22.78276	-43.93818	-17.90074	-21.15542	-34.17414	-34.98781	-34.98781	0
472	-23.59643	-17.08707	4.06835	30.10579	-13.83239	-20.34175	-38.24249	-15.45973	-20.34175	-33.36047	-34.17414	-34.17414	0
473	-39.05616	-15.45973	16.2734	34.98781	-28.47845	-17.90074	-34.17414	-13.83239	-19.52808	-32.5468	-34.17414	-34.98781	0
474	-51.26121	-16.2734	19.52808	42.31084	-35.80148	-17.08707	-31.73313	-13.83239	-21.15542	-32.5468	-35.80148	-38.24249	0
475	-54.51589	-18.71441	19.52808	44.75185	-37.42882	-15.45973	-30.91946	-13.83239	-23.59643	-34.17414	-39.05616	-42.31084	0
476	-48.8202	-22.78276	17.90074	40.6835	-32.5468	-13.83239	-30.91946	-13.83239	-25.22377	-33.36047	-41.49717	-42.31084	0
477	-48.8202	-26.85111	14.64606	42.31084	-29.29212	-17.08707	-30.10579	-13.83239	-26.03744	-31.73313	-42.31084	-39.86983	0
478	-57.77057	-30.91946	15.45973	54.51589	-36.61515	-21.96909	-29.29212	-13.83239	-25.22377	-27.66478	-39.86983	-36.61515	0
479	-66.72094	-34.98781	20.34175	66.72094	-50.44754	-19.52808	-26.03744	-12.20505	-21.96909	-21.96909	-33.36047	-31.73313	0
480	-71.60296	-35.80148	21.96909	69.97562	-61.83892	-10.57771	-19.52808	-8.1367	-18.71441	-15.45973	-25.22377	-25.22377	0
481	-66.72094	-30.10579	19.52808	59.39791	-60.21158	-2.44101	-15.45973	-4.88202	-16.2734	-11.39138	-17.08707	-18.71441	0
482	-45.56552	-19.52808	10.57771	37.42882	-41.49717	0	-13.01872	-4.06835	-15.45973	-12.20505	-12.20505	-15.45973	0
483	-14.64606	-4.88202	-4.06835	9.76404	-13.83239	0	-11.39138	-4.88202	-19.52808	-18.71441	-10.57771	-15.45973	0
484	9.76404	6.50936	-19.52808	-14.64606	6.50936	-1.62734	-10.57771	-5.69569	-26.03744	-26.85111	-9.76404	-17.08707	0
485	25.22377	15.45973	-25.22377	-29.29212	18.71441	-1.62734	-12.20505	-8.1367	-28.47845	-30.10579	-6.50936	-17.90074	0
486	26.03744	19.52808	-15.45973	-30.91946	15.45973	3.25468	-11.39138	-8.1367	-28.47845	-27.66478	-0.81367	-15.45973	0
487	5.69569	19.52808	7.32303	-18.71441	-3.25468	12.20505	-5.69569	-4.88202	-25.22377	-21.15542	4.88202	-8.1367	0
488	-22.78276	17.90074	34.17414	0	-28.47845	21.96909	0	-0.81367	-22.78276	-14.64606	11.39138	0	0
489	-48.8202	13.83239	56.9569	15.45973	-51.26121	30.91946	4.88202	1.62734	-19.52808	-8.1367	17.08707	5.69569	0
490	-67.53461	9.76404	74.85764	26.85111	-69.16195	43.93818	9.76404	3.25468	-15.45973	-3.25468	23.59643	8.95037	0
491	-84.62168	7.32303	88.69003	36.61515	-85.43535	59.39791	13.83239	5.69569	-12.20505	0	31.73313	10.57771	0
492	-103.33609	4.06835	101.70875	48.8202	-102.52242	69.16195	18.71441	8.95037	-8.95037	3.25468	37.42882	12.20505	0
493	-110.65912	4.06835	108.21811	52.88855	-109.84545	70.78929	23.59643	13.01872	-7.32303	4.06835	35.80148	12.20505	0
494	-96.82673	12.20505	104.14976	42.31084	-101.70875	69.16195	26.85111	17.08707	-7.32303	1.62734	29.29212	9.76404	0
495	-74.04397	26.85111	96.82673	22.78276	-85.43535	68.34828	29.29212	21.15542	-7.32303	0.81367	23.59643	8.95037	0
496	-51.26121	43.93818	90.31737	4.06835	-68.34828	69.16195	34.17414	23.59643	-5.69569	3.25468	21.96909	9.76404	0
497	-31.73313	59.39791	86.24902	-8.95037	-55.32956	72.41663	39.86983	23.59643	-3.25468	8.95037	24.4101	10.57771	0
498	-19.52808	66.72094	81.367	-18.71441	-46.37919	74.04397	39.05616	21.15542	-0.81367	17.08707	27.66478	13.83239	0
499	-13.01872	64.27993	74.85764	-22.78276	-40.6835	74.85764	26.85111	13.83239	-1.62734	25.22377	28.47845	17.08707	0
500	-10.57771	55.32956	67.53461	-17.08707	-36.61515	73.2303	9.76404	2.44101	-4.06835	30.91946	28.47845	15.45973	0
501	-9.76404	42.31084	62.65259	-1.62734	-34.98781	69.16195	-4.06835	-6.50936	-4.88202	34.98781	30.91946	14.64606	0
502	-12.20505	35.80148	65.90727	6.50936	-36.61515	65.90727	-12.20505	-11.39138	-4.88202	38.24249	37.42882	17.08707	0
503	-9.76404	41.49717	78.92599	0	-36.61515	65.90727	-13.83239	-9.76404	-3.25468	42.31084	44.75185	23.59643	0
504	-5.69569	57.77057	87.87636	-16.2734	-34.17414	70.78929	-13.01872	-4.06835	0	47.19286	54.51589	34.17414	0
505	-6.50936	74.85764	89.5037	-30.10579	-33.36047	76.48498	-12.20505	0	1.62734	51.26121	62.65259	43.12451	0
506	-9.76404	87.06269	87.87636	-41.49717	-33.36047	81.367	-12.20505	0	0	48.8202	65.90727	49.63387	0
507	-10.57771	91.13104	80.55333	-49.63387	-30.10579	80.55333	-14.64606	-6.50936	-8.1367	39.86983	62.65259	52.88855	0
508	-8.1367	82.99434	66.72094	-50.44754	-22.78276	70.78929	-21.15542	-19.52808	-21.96909	26.85111	52.88855	49.63387	0
509	-1.62734	62.65259	44.75185	-42.31084	-14.64606	52.07488	-34.98781	-39.86983	-41.49717	8.1367	35.80148	37.42882	0
510	5.69569	39.86983	21.15542	-31.73313	-6.50936	29.29212	-51.26121	-61.02525	-61.83892	-10.57771	16.2734	20.34175	0
511	10.57771	20.34175	0.81367	-21.96909	0	9.76404	-64.27993	-78.92599	-78.92599	-27.66478	0	1.62734	0
512	6.50936	1.62734	-9.76404	-8.1367	2.44101	-4.88202	-73.2303	-91.94471	-93.57205	-41.49717	-13.83239	-12.20505	0
513	-4.88202	-14.64606	-13.83239	5.69569	0	-15.45973	-77.29865	-100.08141	-104.14976	-52.07488	-25.22377	-22.78276	0
514	-21.96909	-26.85111	-13.01872	16.2734	-7.32303	-20.34175	-76.48498	-103.33609	-109.03178	-56.9569	-32.5468	-27.66478	0
515	-30.91946	-34.17414	-12.20505	22.78276	-11.39138	-21.15542	-71.60296	-101.70875	-108.21811	-54.51589	-32.5468	-26.85111	0
516	-26.85111	-34.17414	-13.01872	21.15542	-7.32303	-20.34175	-65.0936	-97.6404	-104.96343	-48.00653	-27.66478	-19.52808	0
517	-10.57771	-26.03744	-14.64606	13.01872	0.81367	-17.90074	-57.77057	-96.01306	-101.70875	-39.86983	-18.71441	-9.76404	0
518	8.1367	-19.52808	-17.90074	4.88202	13.83239	-17.08707	-52.07488	-96.01306	-100.08141	-34.17414	-11.39138	-1.62734	0
519	22.78276	-14.64606	-23.59643	-1.62734	23.59643	-18.71441	-48.8202	-97.6404	-101.70875	-34.17414	-8.1367	1.62734	0
520	32.5468	-8.95037	-31.73313	-8.95037	28.47845	-20.34175	-47.19286	-100.89508	-106.59077	-39.05616	-8.95037	0.81367	0
521	35.80148	-7.32303	-37.42882	-9.76404	30.91946	-23.59643	-46.37919	-103.33609	-111.47279	-47.19286	-13.01872	-1.62734	0
522	31.73313	-7.32303	-38.24249	-3.25468	30.10579	-24.4101	-46.37919	-103.33609	-116.35481	-56.14323	-18.71441	-8.1367	0
523	18.71441	-8.1367	-29.29212	5.69569	20.34175	-21.15542	-44.75185	-100.89508	-117.98215	-62.65259	-23.59643	-15.45973	0
524	-4.06835	-9.76404	-7.32303	15.45973	2.44101	-14.64606	-41.49717	-94.38572	-116.35481	-64.27993	-26.03744	-21.15542	0
525	-29.29212	-10.57771	17.08707	24.4101	-14.64606	-4.06835	-39.86983	-88.69003	-111.47279	-62.65259	-24.4101	-24.4101	0
526	-48.00653	-12.20505	38.24249	34.17414	-27.66478	5.69569	-41.49717	-88.69003	-109.03178	-61.83892	-21.96909	-26.85111	0
527	-58.58424	-13.83239	51.26121	43.12451	-34.17414	13.01872	-43.93818	-90.31737	-109.84545	-59.39791	-20.34175	-27.66478	0
528	-61.83892	-14.64606	57.77057	48.00653	-39.86983	17.90074	-36.61515	-86.24902	-106.59077	-49.63387	-17.08707	-26.03744	0
529	-61.02525	-15.45973	57.77057	48.00653	-46.37919	20.34175	-23.59643	-75.67131	-98.45407	-34.17414	-11.39138	-24.4101	0
530	-59.39791	-17.08707	48.8202	46.37919	-47.19286	17.90074	-13.01872	-67.53461	-91.94471	-25.22377	-12.20505	-23.59643	0
531	-56.14323	-21.15542	34.17414	42.31084	-41.49717	10.57771	-8.95037	-67.53461	-94.38572	-26.85111	-20.34175	-26.03744	0
532	-52.07488	-25.22377	19.52808	39.86983	-35.80148	3.25468	-8.95037	-70.78929	-104.14976	-38.24249	-31.73313	-30.10579	0
533	-45.56552	-26.03744	7.32303	34.98781	-34.17414	-0.81367	-8.95037	-74.04397	-115.54114	-53.70222	-40.6835	-33.36047	0
534	-36.61515	-21.15542	1.62734	27.66478	-34.98781	-0.81367	-7.32303	-75.67131	-122.86417	-64.27993	-45.56552	-34.98781	0
535	-35.80148	-18.71441	2.44101	25.22377	-40.6835	0	-4.06835	-76.48498	-125.30518	-69.16195	-45.56552	-34.17414	0
536	-46.37919	-26.03744	7.32303	33.36047	-46.37919	-1.62734	-2.44101	-74.04397	-125.30518	-67.53461	-43.12451	-34.17414	0
537	-58.58424	-39.86983	9.76404	45.56552	-49.63387	-10.57771	-2.44101	-71.60296	-122.86417	-63.46626	-39.05616	-34.98781	0
538	-66.72094	-53.70222	4.88202	54.51589	-47.19286	-22.78276	-3.25468	-71.60296	-119.60949	-58.58424	-36.61515	-36.61515	0
539	-69.97562	-59.39791	0	56.9569	-40.6835	-29.29212	-2.44101	-71.60296	-117.16848	-54.51589	-34.98781	-35.80148	0
540	-68.34828	-54.51589	1.62734	53.70222	-36.61515	-26.85111	0.81367	-71.60296	-113.9138	-51.26121	-34.98781	-32.5468	0
541	-65.0936	-40.6835	12.20505	46.37919	-39.86983	-17.08707	7.32303	-69.97562	-110.65912	-49.63387	-35.80148	-26.85111	0
542	-63.46626	-26.85111	23.59643	41.49717	-47.19286	-8.95037	11.39138	-66.72094	-106.59077	-47.19286	-34.98781	-23.59643	0
543	-68.34828	-25.22377	33.36047	47.19286	-57.77057	-4.88202	13.01872	-63.46626	-105.7771	-47.19286	-35.80148	-22.78276	0
544	-78.11232	-34.98781	38.24249	60.21158	-65.0936	-5.69569	13.01872	-63.46626	-108.21811	-52.88855	-41.49717	-23.59643	0
545	-87.06269	-44.75185	35.80148	70.78929	-66.72094	-10.57771	10.57771	-65.0936	-112.28646	-59.39791	-45.56552	-26.03744	0
546	-88.69003	-50.44754	31.73313	74.04397	-64.27993	-15.45973	6.50936	-67.53461	-117.16848	-65.0936	-46.37919	-28.47845	0
547	-82.18067	-51.26121	26.03744	69.16195	-58.58424	-17.08707	3.25468	-71.60296	-121.23683	-67.53461	-43.93818	-31.73313	0
548	-71.60296	-48.8202	21.15542	58.58424	-50.44754	-15.45973	0.81367	-74.04397	-122.0505	-66.72094	-39.86983	-34.17414	0
549	-63.46626	-46.37919	21.96909	48.8202	-44.75185	-9.76404	3.25468	-72.41663	-120.42316	-61.02525	-34.17414	-34.17414	0
550	-59.39791	-47.19286	31.73313	43.12451	-43.12451	-0.81367	10.57771	-65.0936	-116.35481	-51.26121	-27.66478	-33.36047	0
551	-60.21158	-49.63387	45.56552	41.49717	-43.12451	4.06835	18.71441	-58.58424	-111.47279	-43.93818	-24.4101	-31.73313	0
552	-64.27993	-54.51589	48.00653	43.12451	-43.12451	1.62734	19.52808	-58.58424	-109.84545	-44.75185	-28.47845	-34.17414	0
553	-67.53461	-58.58424	37.42882	48.8202	-41.49717	-6.50936	15.45973	-63.46626	-114.72747	-54.51589	-38.24249	-41.49717	0
554	-66.72094	-61.83892	23.59643	56.14323	-38.24249	-14.64606	12.20505	-66.72094	-118.79582	-65.0936	-48.8202	-48.00653	0
555	-64.27993	-65.0936	13.01872	64.27993	-34.98781	-18.71441	12.20505	-65.0936	-118.79582	-70.78929	-55.32956	-48.8202	0
556	-60.21158	-64.27993	5.69569	66.72094	-34.98781	-17.90074	15.45973	-59.39791	-113.10013	-70.78929	-55.32956	-45.56552	0
557	-52.88855	-56.14323	3.25468	60.21158	-38.24249	-15.45973	21.96909	-49.63387	-102.52242	-65.0936	-50.44754	-41.49717	0
558	-44.75185	-41.49717	5.69569	52.07488	-38.24249	-9.76404	33.36047	-31.73313	-83.80801	-56.9569	-44.75185	-37.42882	0
559	-43.93818	-26.03744	17.08707	43.93818	-40.6835	-3.25468	52.88855	-0.81367	-52.07488	-45.56552	-38.24249	-35.80148	0
560	-55.32956	-17.08707	34.98781	42.31084	-47.19286	-0.81367	79.73966	42.31084	-4.06835	-27.66478	-33.36047	-35.80148	0
561	-77.29865	-23.59643	49.63387	48.8202	-53.70222	-2.44101	104.14976	92.75838	55.32956	-6.50936	-30.10579	-39.86983	0
562	-99.26774	-44.75185	49.63387	61.02525	-57.77057	-11.39138	119.60949	141.57858	122.86417	16.2734	-28.47845	-49.63387	0
563	-106.59077	-73.2303	26.85111	75.67131	-52.07488	-33.36047	124.49151	184.70309	196.09447	46.37919	-22.78276	-60.21158	0
564	-88.69003	-96.01306	-17.90074	82.99434	-24.4101	-65.0936	124.49151	227.8276	281.52982	88.69003	-8.1367	-63.46626	0
565	-43.12451	-107.40444	-76.48498	70.78929	21.96909	-97.6404	122.0505	282.34349	388.12059	150.52895	21.96909	-54.51589	0
566	26.85111	-104.96343	-139.95124	36.61515	85.43535	-126.11885	116.35481	356.38746	522.37614	233.52329	72.41663	-31.73313	0
567	117.16848	-82.18067	-204.23117	-17.90074	160.29299	-145.64693	110.65912	443.45015	678.60078	340.11406	146.4606	4.88202	0
568	222.94558	-41.49717	-266.88376	-91.94471	244.101	-155.41097	99.26774	524.81715	838.0801	475.99695	251.42403	63.46626	0
569	340.92773	10.57771	-331.16369	-178.19373	336.04571	-160.29299	72.41663	567.94166	974.77666	641.98563	393.81628	147.27427	0
570	466.23291	67.53461	-400.32564	-269.32477	433.68611	-165.98868	13.01872	540.27688	1058.58467	829.9434	568.75533	257.11972	0
571	596.42011	122.86417	-474.36961	-362.89682	535.39486	-175.75272	-79.73966	428.80409	1072.41706	1023.59686	763.22246	384.86591	0
572	729.04832	178.19373	-553.2956	-455.6552	641.17196	-187.95777	-196.90814	252.2377	1022.78319	1200.97692	938.16151	517.49412	0
573	857.60818	226.20026	-633.84893	-544.34523	745.32172	-203.4175	-323.02699	36.61515	918.63343	1336.04614	1064.28036	635.47627	0
574	972.33565	257.11972	-706.26556	-615.94819	833.19808	-228.64127	-441.82281	-186.33043	765.66347	1389.74836	1142.39268	713.58859	0
575	1055.32999	261.18807	-760.78145	-659.88637	890.96865	-259.56073	-532.95385	-393.00261	567.94166	1323.02742	1146.46103	726.60731	0
576	1088.69046	242.47366	-799.02394	-668.02307	921.07444	-282.34349	-585.02873	-571.19634	327.09534	1139.95167	1051.26164	672.90509	0
577	1056.95733	209.92686	-807.16064	-636.28994	912.93774	-294.54854	-602.92947	-727.42098	42.31084	875.50892	875.50892	572.82368	0
578	963.38528	164.36134	-772.9865	-567.12799	855.98084	-297.80322	-598.04745	-875.50892	-283.15716	563.05964	649.30866	445.07749	0
579	823.43404	109.03178	-701.38354	-469.48759	756.7131	-290.48019	-571.19634	-1002.44144	-623.27122	235.15063	406.835	309.1946	0
580	663.14105	51.26121	-608.62516	-360.45581	634.6626	-275.02046	-515.86678	-1082.1811	-929.21114	-71.60296	179.82107	186.33043	0
581	514.23944	-0.81367	-518.30779	-259.56073	516.68045	-257.93339	-436.12712	-1107.40487	-1162.73443	-327.90901	-8.1367	83.80801	0
582	398.6983	-41.49717	-445.89116	-180.63474	423.1084	-244.101	-346.62342	-1087.87679	-1302.68567	-515.86678	-149.71528	4.88202	0
583	311.63561	-67.53461	-384.86591	-123.67784	349.06443	-227.01393	-257.11972	-1038.24292	-1353.94688	-628.15324	-240.84632	-48.8202	0
584	231.89595	-79.73966	-316.51763	-77.29865	275.02046	-196.90814	-179.0074	-979.65868	-1340.11449	-672.09142	-284.7845	-78.92599	0
585	144.83326	-82.18067	-230.26861	-32.5468	187.95777	-154.5973	-122.86417	-934.09316	-1294.54897	-666.39573	-296.17588	-90.31737	0
586	48.8202	-82.18067	-132.62821	13.83239	91.13104	-106.59077	-92.75838	-904.80104	-1236.7784	-631.40792	-288.03918	-90.31737	0
587	-39.05616	-82.18067	-44.75185	57.77057	0.81367	-62.65259	-84.62168	-877.94993	-1169.24379	-580.14671	-267.69743	-81.367	0
588	-97.6404	-76.48498	11.39138	83.80801	-59.39791	-27.66478	-91.94471	-832.38441	-1082.1811	-519.93513	-237.59164	-64.27993	0
589	-111.47279	-59.39791	40.6835	82.18067	-80.55333	-4.06835	-108.21811	-759.15411	-969.89464	-452.40052	-200.16282	-40.6835	0
590	-85.43535	-36.61515	49.63387	62.65259	-67.53461	8.95037	-126.11885	-663.14105	-839.70744	-383.23857	-161.10666	-13.83239	0
591	-43.12451	-15.45973	44.75185	40.6835	-40.6835	17.90074	-134.25555	-555.73661	-707.8929	-319.77231	-125.30518	8.95037	0
592	-17.08707	0	41.49717	17.90074	-26.03744	26.03744	-129.37353	-450.77318	-588.28341	-266.07009	-96.01306	26.85111	0
593	-26.85111	8.95037	55.32956	2.44101	-38.24249	34.17414	-114.72747	-360.45581	-490.64301	-222.13191	-72.41663	39.05616	0
594	-54.51589	12.20505	84.62168	4.88202	-67.53461	41.49717	-95.19939	-292.9212	-417.41271	-185.51676	-53.70222	48.00653	0
595	-76.48498	11.39138	113.10013	17.90074	-93.57205	49.63387	-74.85764	-245.72834	-366.96517	-157.03831	-39.05616	56.9569	0
596	-88.69003	10.57771	126.93252	29.29212	-107.40444	60.21158	-59.39791	-217.24989	-334.41837	-136.69656	-26.03744	62.65259	0
597	-92.75838	13.83239	128.55986	33.36047	-110.65912	69.16195	-47.19286	-200.16282	-312.44928	-123.67784	-13.83239	62.65259	0
598	-90.31737	23.59643	126.93252	29.29212	-108.21811	76.48498	-37.42882	-187.1441	-292.10753	-113.10013	-5.69569	61.83892	0
599	-85.43535	37.42882	123.67784	21.96909	-103.33609	82.18067	-30.10579	-175.75272	-268.5111	-101.70875	-3.25468	62.65259	0
600	-82.99434	48.8202	118.79582	16.2734	-96.82673	82.99434	-25.22377	-165.98868	-244.91467	-90.31737	-0.81367	63.46626	0
601	-81.367	53.70222	113.9138	13.01872	-92.75838	82.99434	-19.52808	-157.85198	-224.57292	-79.73966	0	61.02525	0
602	-79.73966	51.26121	114.72747	13.83239	-91.94471	85.43535	-15.45973	-152.96996	-212.36787	-74.04397	0	57.77057	0
603	-78.11232	48.00653	124.49151	14.64606	-92.75838	88.69003	-13.01872	-149.71528	-206.67218	-71.60296	-1.62734	56.9569	0
604	-76.48498	53.70222	137.51023	10.57771	-97.6404	96.01306	-10.57771	-143.20592	-202.60383	-69.16195	-1.62734	58.58424	0
605	-76.48498	69.97562	155.41097	0.81367	-108.21811	113.10013	-3.25468	-131.00087	-193.65346	-65.0936	0	65.0936	0
606	-81.367	91.13104	180.63474	-6.50936	-126.93252	135.06922	8.95037	-113.9138	-179.0074	-56.14323	7.32303	78.92599	0
607	-100.89508	101.70875	205.85851	-3.25468	-153.78363	153.78363	19.52808	-99.26774	-165.17501	-44.75185	16.2734	91.94471	0
608	-130.1872	91.13104	221.31824	19.52808	-185.51676	161.10666	21.15542	-96.01306	-159.47932	-38.24249	21.15542	95.19939	0
609	-152.96996	65.90727	226.20026	54.51589	-209.92686	151.34262	14.64606	-104.96343	-165.17501	-41.49717	16.2734	85.43535	0
610	-165.17501	42.31084	215.62255	82.18067	-213.99521	128.55986	4.06835	-121.23683	-179.0074	-52.88855	4.88202	67.53461	0
611	-167.61602	25.22377	193.65346	90.31737	-199.34915	104.14976	-4.88202	-136.69656	-192.02612	-67.53461	-8.95037	50.44754	0
612	-158.66565	21.15542	178.19373	82.18067	-180.63474	93.57205	-8.1367	-141.57858	-196.90814	-74.85764	-17.90074	42.31084	0
613	-141.57858	34.98781	173.31171	60.21158	-163.54767	100.08141	-1.62734	-134.25555	-190.39878	-73.2303	-16.2734	44.75185	0
614	-121.23683	57.77057	175.75272	33.36047	-149.71528	115.54114	9.76404	-119.60949	-177.38006	-65.90727	-8.1367	52.88855	0
615	-104.96343	79.73966	182.26208	10.57771	-142.39225	131.81454	20.34175	-105.7771	-162.734	-55.32956	0.81367	61.83892	0
616	-91.13104	96.82673	191.21245	-7.32303	-139.95124	146.4606	27.66478	-91.13104	-147.27427	-41.49717	14.64606	74.04397	0
617	-82.18067	108.21811	201.79016	-21.96909	-140.76491	158.66565	30.91946	-79.73966	-131.81454	-25.22377	30.10579	86.24902	0
618	-86.24902	113.9138	215.62255	-24.4101	-149.71528	166.80235	30.91946	-74.85764	-122.0505	-13.83239	43.12451	94.38572	0
619	-104.96343	114.72747	227.8276	-11.39138	-165.98868	170.05703	26.85111	-76.48498	-119.60949	-8.95037	48.8202	96.82673	0
620	-128.55986	109.03178	235.9643	8.1367	-180.63474	167.61602	19.52808	-82.18067	-120.42316	-8.95037	46.37919	93.57205	0
621	-147.27427	98.45407	239.21898	26.85111	-191.21245	164.36134	14.64606	-87.06269	-122.86417	-10.57771	41.49717	87.06269	0
622	-157.03831	90.31737	241.65999	36.61515	-196.90814	163.54767	13.01872	-90.31737	-124.49151	-12.20505	37.42882	79.73966	0
623	-161.92033	89.5037	246.54201	38.24249	-201.79016	166.80235	13.83239	-90.31737	-125.30518	-12.20505	34.17414	74.04397	0
624	-161.10666	96.01306	253.86504	33.36047	-205.85851	175.75272	17.90074	-87.87636	-124.49151	-11.39138	31.73313	71.60296	0
625	-157.03831	102.52242	252.2377	22.78276	-206.67218	179.0074	21.15542	-84.62168	-122.86417	-10.57771	31.73313	71.60296	0
626	-148.90161	99.26774	237.59164	13.01872	-201.79016	170.8707	22.78276	-82.99434	-122.0505	-10.57771	34.17414	72.41663	-1250	T-0
627	-137.51023	89.5037	227.8276	8.1367	-187.95777	162.734	21.15542	-84.62168	-122.86417	-8.1367	36.61515	73.2303	0
628	-127.74619	80.55333	227.01393	8.95037	-178.19373	159.47932	19.52808	-87.06269	-122.0505	-4.88202	40.6835	74.85764	0
629	-121.23683	76.48498	227.8276	11.39138	-180.63474	157.85198	20.34175	-86.24902	-118.79582	-2.44101	46.37919	79.73966	0
630	-120.42316	77.29865	223.75925	13.83239	-184.70309	158.66565	22.78276	-84.62168	-113.9138	-1.62734	52.07488	85.43535	0
631	-116.35481	82.18067	216.43622	14.64606	-180.63474	158.66565	25.22377	-83.80801	-109.03178	-4.06835	54.51589	88.69003	0
632	-104.96343	86.24902	210.74053	14.64606	-168.42969	161.10666	28.47845	-80.55333	-102.52242	-5.69569	56.14323	90.31737	0
633	-98.45407	90.31737	205.85851	14.64606	-159.47932	161.92033	33.36047	-75.67131	-95.19939	-5.69569	58.58424	89.5037	0
634	-104.14976	87.87636	202.60383	16.2734	-157.03831	157.85198	37.42882	-69.16195	-88.69003	-3.25468	61.83892	89.5037	0
635	-122.0505	81.367	203.4175	24.4101	-161.92033	153.78363	38.24249	-63.46626	-82.18067	0.81367	65.90727	91.13104	0
636	-144.01959	74.85764	212.36787	35.80148	-176.56639	152.15629	35.80148	-58.58424	-76.48498	8.95037	72.41663	95.19939	0
637	-156.22464	69.97562	230.26861	41.49717	-200.97649	150.52895	33.36047	-56.9569	-70.78929	17.08707	78.11232	99.26774	0
638	-153.78363	65.90727	251.42403	40.6835	-224.57292	144.01959	31.73313	-56.9569	-67.53461	22.78276	78.92599	101.70875	0
639	-144.01959	67.53461	266.07009	34.98781	-235.9643	139.95124	29.29212	-59.39791	-66.72094	26.85111	79.73966	103.33609	0
640	-138.3239	72.41663	272.57945	27.66478	-235.9643	145.64693	24.4101	-61.83892	-65.90727	28.47845	81.367	106.59077	0
641	-143.20592	75.67131	274.20679	23.59643	-231.89595	160.29299	20.34175	-61.83892	-64.27993	29.29212	79.73966	107.40444	0
642	-154.5973	76.48498	270.95211	26.85111	-228.64127	170.8707	15.45973	-62.65259	-65.90727	26.03744	75.67131	104.96343	0
643	-171.68437	71.60296	264.44275	39.86983	-227.01393	172.49804	10.57771	-65.0936	-72.41663	17.08707	68.34828	101.70875	0
644	-187.95777	63.46626	257.11972	55.32956	-225.38659	165.98868	6.50936	-66.72094	-80.55333	4.06835	59.39791	98.45407	0
645	-195.2808	54.51589	245.72834	66.72094	-219.6909	154.5973	4.06835	-68.34828	-87.87636	-6.50936	48.00653	94.38572	0
646	-194.46713	47.19286	231.89595	72.41663	-211.5542	139.13757	4.06835	-67.53461	-94.38572	-12.20505	39.05616	89.5037	0
647	-187.95777	42.31084	219.6909	74.04397	-202.60383	125.30518	3.25468	-67.53461	-95.19939	-13.83239	34.17414	85.43535	0
648	-179.82107	39.05616	208.29952	71.60296	-188.77144	115.54114	4.88202	-65.0936	-87.87636	-9.76404	37.42882	85.43535	0
649	-169.24336	38.24249	199.34915	65.90727	-170.05703	112.28646	13.83239	-54.51589	-70.78929	0	48.00653	91.94471	0
650	-148.08794	52.07488	194.46713	48.00653	-152.96996	118.79582	28.47845	-38.24249	-48.00653	16.2734	62.65259	101.70875	0
651	-117.98215	81.367	195.2808	17.08707	-142.39225	135.88289	43.93818	-18.71441	-22.78276	34.17414	78.92599	113.9138	0
652	-91.94471	117.16848	206.67218	-13.83239	-137.51023	160.29299	56.9569	0	0	49.63387	93.57205	126.11885	0
653	-74.04397	150.52895	222.94558	-39.86983	-138.3239	186.33043	65.90727	17.08707	17.90074	60.21158	104.14976	135.06922	0
654	-63.46626	170.05703	232.70962	-54.51589	-144.01959	202.60383	67.53461	26.85111	27.66478	63.46626	104.96343	136.69656	0
655	-65.90727	165.17501	231.08228	-52.07488	-152.96996	200.16282	61.02525	27.66478	27.66478	60.21158	96.82673	128.55986	0
656	-84.62168	139.95124	225.38659	-30.10579	-161.10666	186.33043	48.8202	21.15542	21.15542	52.07488	86.24902	118.79582	0
657	-106.59077	109.03178	217.24989	-4.06835	-165.17501	173.31171	35.80148	11.39138	12.20505	41.49717	77.29865	109.03178	0
658	-120.42316	86.24902	211.5542	12.20505	-166.80235	163.54767	26.03744	4.06835	7.32303	34.98781	69.16195	101.70875	0
659	-128.55986	76.48498	218.06356	20.34175	-177.38006	161.10666	25.22377	4.88202	10.57771	33.36047	64.27993	97.6404	0
660	-130.1872	75.67131	235.15063	20.34175	-195.2808	164.36134	30.10579	13.01872	20.34175	34.17414	63.46626	96.82673	0
661	-128.55986	79.73966	248.16935	14.64606	-205.85851	170.05703	37.42882	26.03744	34.17414	38.24249	65.0936	99.26774	0
662	-129.37353	84.62168	253.05137	10.57771	-205.04484	174.93905	44.75185	40.6835	49.63387	45.56552	69.16195	100.89508	0
663	-135.88289	89.5037	254.67871	13.01872	-203.4175	177.38006	50.44754	54.51589	65.0936	52.88855	71.60296	100.89508	0
664	-147.27427	96.82673	256.30605	20.34175	-204.23117	178.19373	53.70222	68.34828	80.55333	61.02525	74.04397	99.26774	0
665	-152.96996	102.52242	254.67871	23.59643	-202.60383	179.0074	57.77057	82.99434	96.82673	69.97562	77.29865	99.26774	0
666	-146.4606	107.40444	246.54201	18.71441	-192.02612	179.82107	62.65259	98.45407	115.54114	82.18067	82.18067	101.70875	0
667	-135.88289	112.28646	236.77797	10.57771	-177.38006	181.44841	69.97562	115.54114	135.88289	96.82673	90.31737	109.84545	0
668	-124.49151	117.98215	230.26861	1.62734	-167.61602	182.26208	78.11232	132.62821	157.85198	110.65912	98.45407	118.79582	0
669	-114.72747	122.86417	225.38659	-4.06835	-161.92033	179.82107	82.99434	144.83326	174.93905	118.79582	101.70875	123.67784	0
670	-104.14976	125.30518	218.87723	-7.32303	-156.22464	174.12538	82.99434	151.34262	187.1441	117.98215	99.26774	121.23683	0
671	-95.19939	122.86417	209.11319	-7.32303	-151.34262	165.98868	80.55333	154.5973	192.83979	110.65912	90.31737	112.28646	0
672	-89.5037	113.10013	196.90814	-4.88202	-147.27427	153.78363	77.29865	158.66565	198.53548	100.89508	79.73966	101.70875	0
673	-91.13104	97.6404	185.51676	1.62734	-144.83326	139.95124	74.85764	165.98868	207.48585	94.38572	71.60296	92.75838	0
674	-100.08141	77.29865	179.82107	15.45973	-146.4606	128.55986	73.2303	176.56639	220.50457	89.5037	62.65259	84.62168	0
675	-110.65912	59.39791	180.63474	32.5468	-154.5973	119.60949	72.41663	187.1441	234.33696	87.87636	52.07488	74.85764	0
676	-122.0505	48.00653	182.26208	45.56552	-161.92033	113.9138	72.41663	196.90814	247.35568	89.5037	43.12451	64.27993	0
677	-124.49151	43.93818	176.56639	48.00653	-158.66565	112.28646	71.60296	207.48585	261.18807	92.75838	38.24249	54.51589	0
678	-120.42316	45.56552	169.24336	42.31084	-149.71528	111.47279	72.41663	218.87723	276.6478	96.82673	39.05616	48.00653	0
679	-114.72747	48.00653	163.54767	34.98781	-141.57858	110.65912	74.85764	231.08228	293.73487	103.33609	42.31084	43.93818	0
680	-109.84545	49.63387	161.92033	30.91946	-135.06922	109.84545	79.73966	244.101	310.82194	109.84545	44.75185	41.49717	0
681	-109.03178	48.00653	163.54767	31.73313	-131.81454	108.21811	85.43535	257.93339	327.09534	113.9138	44.75185	39.05616	0
682	-110.65912	44.75185	163.54767	34.98781	-131.81454	104.96343	91.94471	272.57945	340.92773	113.9138	41.49717	38.24249	0
683	-113.9138	38.24249	158.66565	39.05616	-131.00087	98.45407	97.6404	285.59817	353.13278	109.84545	34.98781	35.80148	0
684	-113.10013	33.36047	149.71528	39.86983	-127.74619	92.75838	102.52242	300.24423	363.71049	104.14976	26.03744	34.17414	0
685	-102.52242	34.17414	138.3239	32.5468	-117.98215	87.06269	106.59077	315.70396	373.47453	101.70875	17.90074	32.5468	0
686	-78.11232	40.6835	119.60949	15.45973	-97.6404	80.55333	109.84545	327.09534	381.61123	98.45407	8.95037	28.47845	0
687	-46.37919	53.70222	91.94471	-10.57771	-71.60296	72.41663	112.28646	335.23204	389.74793	92.75838	0	21.15542	0
688	-20.34175	69.97562	61.83892	-40.6835	-48.00653	65.90727	116.35481	340.92773	397.88463	89.5037	-5.69569	13.83239	0
689	-1.62734	76.48498	38.24249	-56.9569	-30.10579	59.39791	120.42316	347.43709	409.27601	89.5037	-10.57771	6.50936	0
690	2.44101	69.16195	21.96909	-49.63387	-21.15542	48.8202	122.86417	354.76012	422.29473	89.5037	-16.2734	0	0
691	0	58.58424	12.20505	-33.36047	-17.90074	34.98781	122.86417	362.89682	435.31345	87.87636	-25.22377	-7.32303	0
692	7.32303	48.8202	3.25468	-19.52808	-5.69569	22.78276	122.0505	371.03352	446.70483	84.62168	-36.61515	-17.90074	0
693	33.36047	43.93818	-8.1367	-15.45973	19.52808	10.57771	122.0505	379.17022	456.46887	78.92599	-48.00653	-30.91946	0
694	60.21158	38.24249	-17.08707	-20.34175	47.19286	0	122.0505	388.12059	465.41924	73.2303	-58.58424	-43.93818	0
695	61.83892	22.78276	-25.22377	-20.34175	61.83892	-10.57771	123.67784	397.07096	475.99695	70.78929	-65.90727	-52.88855	0
696	39.86983	1.62734	-33.36047	-6.50936	62.65259	-17.08707	128.55986	406.02133	489.01567	72.41663	-69.97562	-57.77057	0
697	16.2734	-15.45973	-37.42882	8.1367	55.32956	-19.52808	131.81454	411.71702	501.22072	74.85764	-72.41663	-61.02525	0
698	0	-28.47845	-40.6835	18.71441	47.19286	-25.22377	131.81454	412.53069	509.35742	74.04397	-78.11232	-69.97562	0
699	-10.57771	-39.05616	-43.12451	22.78276	43.12451	-34.17414	126.11885	409.27601	510.98476	69.16195	-89.5037	-83.80801	0
700	-13.83239	-46.37919	-45.56552	25.22377	42.31084	-43.93818	118.79582	404.39399	509.35742	61.83892	-103.33609	-100.08141	0
701	-9.76404	-53.70222	-51.26121	26.03744	43.93818	-52.88855	112.28646	397.88463	505.28907	52.07488	-115.54114	-113.9138	0
702	3.25468	-59.39791	-67.53461	22.78276	51.26121	-65.90727	107.40444	392.18894	498.77971	42.31084	-126.11885	-124.49151	0
703	29.29212	-64.27993	-96.01306	13.83239	65.90727	-81.367	102.52242	387.30692	492.27035	32.5468	-134.25555	-130.1872	0
704	56.14323	-74.04397	-126.11885	6.50936	81.367	-103.33609	99.26774	379.98389	484.13365	22.78276	-144.01959	-136.69656	0
705	65.0936	-89.5037	-147.27427	13.01872	92.75838	-126.11885	96.01306	369.40618	474.36961	14.64606	-153.78363	-145.64693	0
706	53.70222	-101.70875	-159.47932	30.91946	95.19939	-138.3239	91.94471	358.82847	465.41924	14.64606	-156.22464	-152.96996	0
707	39.86983	-105.7771	-169.24336	43.93818	91.94471	-141.57858	89.5037	350.69177	458.90988	20.34175	-152.15629	-153.78363	0
708	34.17414	-107.40444	-175.75272	45.56552	96.82673	-144.01959	88.69003	344.99608	456.46887	28.47845	-145.64693	-151.34262	0
709	39.05616	-109.84545	-185.51676	41.49717	114.72747	-146.4606	88.69003	340.11406	454.84153	34.98781	-137.51023	-148.08794	0
710	50.44754	-113.9138	-196.09447	34.98781	132.62821	-151.34262	88.69003	333.6047	450.77318	38.24249	-129.37353	-144.83326	0
711	60.21158	-120.42316	-201.79016	30.10579	140.76491	-157.03831	88.69003	327.09534	443.45015	39.86983	-125.30518	-142.39225	0
712	65.90727	-123.67784	-200.97649	27.66478	139.95124	-159.47932	90.31737	318.95864	431.2451	38.24249	-123.67784	-141.57858	0
713	64.27993	-123.67784	-195.2808	27.66478	133.44188	-157.03831	92.75838	310.00827	416.59904	33.36047	-124.49151	-142.39225	0
714	60.21158	-120.42316	-187.95777	30.91946	124.49151	-149.71528	93.57205	300.24423	401.95298	26.85111	-125.30518	-141.57858	0
715	59.39791	-112.28646	-179.82107	34.17414	120.42316	-138.3239	92.75838	292.9212	389.74793	24.4101	-122.0505	-139.13757	0
716	58.58424	-108.21811	-172.49804	35.80148	122.0505	-128.55986	89.5037	287.22551	379.98389	26.85111	-115.54114	-134.25555	0
717	56.9569	-109.84545	-170.8707	34.98781	122.86417	-127.74619	86.24902	277.46147	366.1515	27.66478	-112.28646	-128.55986	0
718	56.9569	-114.72747	-174.12538	34.17414	123.67784	-134.25555	81.367	261.18807	347.43709	25.22377	-114.72747	-125.30518	0
719	57.77057	-118.79582	-179.0074	33.36047	124.49151	-142.39225	75.67131	241.65999	324.65433	19.52808	-122.86417	-126.11885	0
720	55.32956	-125.30518	-182.26208	34.17414	125.30518	-149.71528	69.97562	219.6909	298.61689	13.83239	-133.44188	-131.00087	0
721	49.63387	-126.93252	-181.44841	30.91946	121.23683	-152.96996	65.90727	199.34915	272.57945	7.32303	-141.57858	-135.06922	0
722	44.75185	-119.60949	-178.19373	22.78276	114.72747	-148.08794	62.65259	186.33043	251.42403	0	-143.20592	-133.44188	0
723	40.6835	-110.65912	-173.31171	19.52808	108.21811	-139.95124	60.21158	178.19373	234.33696	-4.06835	-143.20592	-126.11885	0
724	40.6835	-106.59077	-168.42969	21.15542	101.70875	-133.44188	58.58424	169.24336	217.24989	-8.95037	-140.76491	-117.16848	0
725	41.49717	-105.7771	-162.734	22.78276	95.19939	-130.1872	58.58424	159.47932	200.97649	-13.01872	-137.51023	-110.65912	0
726	43.12451	-109.03178	-157.03831	29.29212	88.69003	-131.00087	56.9569	148.90161	183.07575	-19.52808	-135.88289	-107.40444	0
727	43.93818	-112.28646	-150.52895	35.80148	83.80801	-131.00087	52.88855	140.76491	166.80235	-23.59643	-132.62821	-105.7771	0
728	43.12451	-105.7771	-143.20592	33.36047	83.80801	-123.67784	50.44754	135.88289	157.85198	-21.15542	-121.23683	-100.08141	0
729	39.05616	-91.13104	-131.81454	21.96909	84.62168	-109.03178	52.07488	132.62821	156.22464	-13.01872	-104.96343	-88.69003	0
730	35.80148	-78.92599	-119.60949	12.20505	80.55333	-93.57205	55.32956	131.00087	157.85198	-6.50936	-90.31737	-77.29865	0
731	30.10579	-73.2303	-112.28646	9.76404	72.41663	-82.99434	57.77057	126.93252	156.22464	-3.25468	-83.80801	-70.78929	0
732	23.59643	-75.67131	-109.03178	16.2734	65.90727	-82.18067	57.77057	119.60949	147.27427	-4.06835	-87.87636	-70.78929	0
733	16.2734	-83.80801	-108.21811	26.85111	63.46626	-87.87636	56.14323	109.84545	135.06922	-9.76404	-96.82673	-75.67131	0
734	11.39138	-91.13104	-108.21811	35.80148	61.02525	-93.57205	53.70222	100.08141	122.86417	-15.45973	-104.96343	-80.55333	0
735	4.88202	-95.19939	-103.33609	42.31084	55.32956	-96.82673	50.44754	91.13104	111.47279	-18.71441	-109.03178	-82.18067	0
736	-3.25468	-95.19939	-94.38572	48.00653	45.56552	-96.82673	47.19286	82.18067	99.26774	-18.71441	-109.84545	-81.367	0
737	-13.01872	-95.19939	-86.24902	56.14323	34.98781	-96.01306	43.12451	74.85764	88.69003	-17.08707	-106.59077	-78.11232	0
738	-17.08707	-96.82673	-81.367	63.46626	27.66478	-95.19939	40.6835	67.53461	82.18067	-14.64606	-98.45407	-71.60296	0
739	-15.45973	-95.19939	-78.11232	63.46626	25.22377	-90.31737	39.86983	61.02525	79.73966	-11.39138	-87.87636	-63.46626	0
740	-10.57771	-85.43535	-72.41663	54.51589	26.03744	-81.367	39.86983	57.77057	78.92599	-8.95037	-78.11232	-56.14323	0
741	-2.44101	-67.53461	-65.0936	38.24249	26.85111	-69.16195	40.6835	56.14323	79.73966	-5.69569	-71.60296	-51.26121	0
742	8.1367	-46.37919	-58.58424	19.52808	28.47845	-58.58424	43.12451	56.9569	79.73966	-3.25468	-67.53461	-47.19286	0
743	16.2734	-31.73313	-53.70222	7.32303	30.10579	-50.44754	43.93818	56.9569	77.29865	-3.25468	-64.27993	-45.56552	0
744	20.34175	-30.10579	-50.44754	4.88202	33.36047	-47.19286	40.6835	53.70222	70.78929	-5.69569	-63.46626	-44.75185	0
745	20.34175	-39.05616	-48.00653	8.95037	38.24249	-52.07488	35.80148	49.63387	64.27993	-7.32303	-63.46626	-44.75185	0
746	16.2734	-48.00653	-48.00653	14.64606	38.24249	-59.39791	30.91946	47.19286	59.39791	-5.69569	-61.83892	-43.93818	0
747	8.1367	-56.9569	-42.31084	20.34175	33.36047	-63.46626	28.47845	44.75185	57.77057	-2.44101	-57.77057	-42.31084	0
748	0.81367	-68.34828	-33.36047	26.03744	26.85111	-63.46626	28.47845	41.49717	57.77057	0	-56.14323	-41.49717	0
749	-4.88202	-77.29865	-30.91946	32.5468	22.78276	-61.83892	28.47845	37.42882	58.58424	0.81367	-56.9569	-41.49717	0
750	-4.06835	-72.41663	-36.61515	31.73313	22.78276	-58.58424	30.10579	35.80148	60.21158	2.44101	-56.9569	-41.49717	0
751	4.88202	-56.9569	-43.12451	21.15542	27.66478	-51.26121	34.17414	37.42882	60.21158	5.69569	-54.51589	-39.05616	0
752	15.45973	-38.24249	-47.19286	8.1367	31.73313	-41.49717	38.24249	39.86983	59.39791	8.1367	-51.26121	-36.61515	0
753	23.59643	-19.52808	-46.37919	-3.25468	33.36047	-29.29212	43.12451	43.93818	59.39791	8.95037	-47.19286	-33.36047	0
754	27.66478	-1.62734	-41.49717	-14.64606	33.36047	-16.2734	50.44754	50.44754	61.83892	10.57771	-42.31084	-26.85111	0
755	32.5468	8.1367	-32.5468	-26.03744	39.86983	-6.50936	56.9569	52.88855	61.83892	12.20505	-35.80148	-19.52808	0
756	39.86983	8.95037	-26.03744	-28.47845	52.07488	-6.50936	61.02525	50.44754	56.9569	11.39138	-33.36047	-16.2734	0
757	36.61515	4.88202	-27.66478	-16.2734	55.32956	-17.90074	61.83892	47.19286	52.88855	13.01872	-36.61515	-20.34175	0
758	11.39138	-1.62734	-18.71441	5.69569	33.36047	-21.15542	60.21158	44.75185	52.07488	17.08707	-37.42882	-21.15542	0
759	-19.52808	-4.88202	5.69569	22.78276	-1.62734	-8.95037	58.58424	42.31084	52.07488	22.78276	-30.10579	-13.83239	0
760	-43.12451	-1.62734	30.10579	31.73313	-29.29212	7.32303	57.77057	41.49717	52.88855	26.85111	-20.34175	-4.06835	0
761	-54.51589	4.06835	43.12451	33.36047	-43.12451	20.34175	58.58424	41.49717	54.51589	30.91946	-10.57771	4.06835	0
762	-55.32956	6.50936	48.00653	30.91946	-45.56552	26.85111	58.58424	41.49717	54.51589	32.5468	-3.25468	10.57771	0
763	-48.8202	2.44101	51.26121	32.5468	-47.19286	27.66478	57.77057	40.6835	51.26121	30.91946	0	14.64606	0
764	-44.75185	-4.88202	56.14323	39.05616	-52.07488	26.85111	55.32956	37.42882	44.75185	24.4101	-0.81367	16.2734	0
765	-45.56552	-13.01872	52.88855	40.6835	-53.70222	21.15542	48.00653	30.10579	33.36047	13.01872	-7.32303	13.01872	0
766	-49.63387	-24.4101	39.05616	38.24249	-48.00653	8.1367	37.42882	19.52808	18.71441	0.81367	-15.45973	4.06835	0
767	-55.32956	-43.93818	21.15542	39.05616	-39.86983	-12.20505	27.66478	9.76404	6.50936	-5.69569	-21.15542	-6.50936	0
768	-62.65259	-67.53461	3.25468	48.8202	-31.73313	-34.17414	19.52808	0	0	-9.76404	-24.4101	-16.2734	0
769	-65.90727	-87.06269	-13.01872	61.83892	-25.22377	-50.44754	12.20505	-9.76404	-4.06835	-13.01872	-28.47845	-24.4101	0
770	-66.72094	-96.82673	-24.4101	70.78929	-20.34175	-57.77057	8.95037	-16.2734	-6.50936	-15.45973	-34.17414	-30.10579	0
771	-70.78929	-99.26774	-30.10579	79.73966	-18.71441	-62.65259	9.76404	-17.90074	-8.1367	-17.08707	-40.6835	-33.36047	0
772	-80.55333	-99.26774	-30.91946	88.69003	-20.34175	-61.02525	12.20505	-17.08707	-8.95037	-17.08707	-43.93818	-34.17414	0
773	-86.24902	-92.75838	-30.10579	91.13104	-24.4101	-52.88855	15.45973	-14.64606	-8.1367	-17.08707	-43.12451	-30.10579	0
774	-74.04397	-75.67131	-27.66478	76.48498	-21.96909	-40.6835	20.34175	-10.57771	-5.69569	-14.64606	-38.24249	-21.96909	0
775	-41.49717	-47.19286	-25.22377	44.75185	-8.1367	-27.66478	24.4101	-7.32303	-3.25468	-11.39138	-31.73313	-12.20505	0
776	-4.06835	-15.45973	-24.4101	8.95037	8.1367	-14.64606	26.85111	-4.88202	-2.44101	-8.95037	-26.85111	-2.44101	0
777	25.22377	8.95037	-23.59643	-17.90074	22.78276	-4.88202	27.66478	-5.69569	-4.06835	-10.57771	-25.22377	4.06835	0
778	47.19286	26.03744	-26.85111	-37.42882	34.98781	0	26.85111	-8.95037	-8.1367	-16.2734	-26.85111	9.76404	0
779	59.39791	34.98781	-32.5468	-50.44754	46.37919	0.81367	24.4101	-15.45973	-14.64606	-23.59643	-30.10579	15.45973	0
780	65.0936	38.24249	-35.80148	-55.32956	52.88855	0.81367	21.15542	-22.78276	-21.96909	-30.91946	-33.36047	21.15542	0
781	54.51589	34.98781	-26.85111	-48.00653	42.31084	1.62734	18.71441	-29.29212	-28.47845	-36.61515	-34.98781	26.85111	0
782	26.85111	17.08707	-6.50936	-27.66478	17.90074	1.62734	17.08707	-33.36047	-33.36047	-40.6835	-37.42882	30.91946	0
783	-1.62734	-8.95037	9.76404	-5.69569	-4.06835	0	17.90074	-34.17414	-36.61515	-43.12451	-38.24249	33.36047	0
784	-23.59643	-27.66478	20.34175	12.20505	-20.34175	0	20.34175	-31.73313	-35.80148	-40.6835	-34.98781	39.05616	0
785	-34.98781	-30.91946	24.4101	20.34175	-28.47845	1.62734	23.59643	-26.85111	-32.5468	-32.5468	-26.03744	49.63387	0
786	-33.36047	-21.15542	26.03744	18.71441	-29.29212	4.88202	30.91946	-17.90074	-26.85111	-18.71441	-10.57771	64.27993	0
787	-28.47845	-9.76404	25.22377	13.83239	-27.66478	9.76404	40.6835	-8.95037	-20.34175	-4.06835	5.69569	80.55333	0
788	-22.78276	-2.44101	19.52808	10.57771	-22.78276	8.1367	46.37919	-4.88202	-13.83239	5.69569	17.08707	91.13104	0
789	-17.90074	0	8.1367	8.1367	-13.83239	0.81367	48.00653	-7.32303	-11.39138	8.95037	18.71441	95.19939	0
790	-13.01872	-1.62734	-1.62734	6.50936	-5.69569	-6.50936	47.19286	-12.20505	-14.64606	6.50936	13.83239	92.75838	0
791	-10.57771	-6.50936	-9.76404	8.1367	0	-12.20505	43.93818	-18.71441	-23.59643	-0.81367	4.88202	87.87636	0
792	-8.95037	-12.20505	-13.01872	12.20505	2.44101	-15.45973	39.05616	-26.03744	-34.17414	-13.01872	-5.69569	80.55333	0
793	-11.39138	-15.45973	-13.01872	18.71441	-1.62734	-15.45973	34.98781	-30.91946	-43.12451	-26.85111	-15.45973	74.04397	0
794	-20.34175	-15.45973	-10.57771	21.96909	-13.01872	-11.39138	31.73313	-32.5468	-48.8202	-37.42882	-20.34175	69.97562	0
795	-22.78276	-13.01872	-4.88202	21.15542	-19.52808	-4.88202	30.10579	-34.17414	-52.88855	-40.6835	-21.15542	65.90727	0
796	-14.64606	-7.32303	-1.62734	18.71441	-16.2734	0	29.29212	-39.05616	-59.39791	-39.05616	-16.2734	61.02525	0
797	-7.32303	-3.25468	-0.81367	15.45973	-10.57771	0.81367	27.66478	-43.93818	-64.27993	-34.98781	-10.57771	58.58424	0
798	-4.88202	-4.06835	0	13.83239	-7.32303	0.81367	24.4101	-48.8202	-66.72094	-31.73313	-6.50936	56.9569	0
799	-9.76404	-8.95037	0.81367	16.2734	-7.32303	-0.81367	20.34175	-52.88855	-69.16195	-30.10579	-4.88202	54.51589	0
800	-25.22377	-18.71441	8.1367	26.85111	-17.90074	-5.69569	17.90074	-54.51589	-69.16195	-30.91946	-6.50936	51.26121	0
801	-53.70222	-30.10579	25.22377	43.93818	-39.86983	-11.39138	15.45973	-52.88855	-67.53461	-33.36047	-11.39138	49.63387	0
802	-82.18067	-41.49717	41.49717	61.83892	-61.83892	-16.2734	17.08707	-52.07488	-69.16195	-36.61515	-17.08707	45.56552	0
803	-94.38572	-51.26121	44.75185	71.60296	-69.16195	-19.52808	21.96909	-53.70222	-74.04397	-39.86983	-20.34175	36.61515	0
804	-86.24902	-52.07488	34.17414	68.34828	-62.65259	-20.34175	26.85111	-53.70222	-77.29865	-41.49717	-20.34175	30.91946	0
805	-69.16195	-46.37919	22.78276	55.32956	-56.14323	-17.08707	30.91946	-51.26121	-75.67131	-38.24249	-13.83239	31.73313	0
806	-57.77057	-36.61515	20.34175	44.75185	-53.70222	-10.57771	33.36047	-47.19286	-72.41663	-30.91946	-3.25468	37.42882	0
807	-56.14323	-27.66478	27.66478	39.86983	-55.32956	-0.81367	34.98781	-44.75185	-69.97562	-23.59643	7.32303	44.75185	0
808	-57.77057	-17.90074	39.05616	37.42882	-57.77057	6.50936	32.5468	-46.37919	-70.78929	-20.34175	13.01872	48.00653	0
809	-52.88855	-9.76404	47.19286	31.73313	-53.70222	11.39138	27.66478	-53.70222	-75.67131	-22.78276	11.39138	43.12451	0
810	-40.6835	-4.06835	49.63387	23.59643	-41.49717	14.64606	20.34175	-62.65259	-83.80801	-30.91946	4.06835	32.5468	0
811	-34.17414	-2.44101	47.19286	20.34175	-33.36047	13.83239	14.64606	-69.97562	-92.75838	-42.31084	-5.69569	20.34175	0
812	-46.37919	-5.69569	48.00653	25.22377	-40.6835	13.01872	13.83239	-72.41663	-97.6404	-50.44754	-13.83239	12.20505	0
813	-70.78929	-12.20505	56.14323	32.5468	-59.39791	15.45973	15.45973	-69.16195	-97.6404	-53.70222	-16.2734	8.1367	0
814	-89.5037	-14.64606	65.90727	37.42882	-76.48498	24.4101	20.34175	-61.83892	-92.75838	-50.44754	-10.57771	11.39138	0
815	-94.38572	-6.50936	76.48498	36.61515	-87.06269	37.42882	26.85111	-52.07488	-83.80801	-41.49717	0	18.71441	0
816	-81.367	11.39138	84.62168	23.59643	-86.24902	49.63387	34.17414	-43.93818	-74.85764	-30.10579	9.76404	26.03744	0
817	-56.9569	35.80148	87.06269	4.06835	-73.2303	62.65259	41.49717	-34.98781	-65.90727	-19.52808	20.34175	34.17414	0
818	-33.36047	54.51589	84.62168	-13.01872	-55.32956	74.04397	51.26121	-25.22377	-56.9569	-7.32303	31.73313	41.49717	0
819	-15.45973	65.90727	79.73966	-24.4101	-41.49717	79.73966	61.83892	-17.08707	-50.44754	2.44101	40.6835	46.37919	0
820	-5.69569	65.0936	74.85764	-29.29212	-34.17414	78.11232	69.16195	-11.39138	-46.37919	7.32303	43.12451	47.19286	0
821	-4.88202	53.70222	67.53461	-30.10579	-32.5468	71.60296	72.41663	-11.39138	-48.00653	4.06835	38.24249	42.31084	0
822	-12.20505	42.31084	64.27993	-27.66478	-39.86983	64.27993	69.16195	-15.45973	-56.9569	-5.69569	27.66478	30.91946	0
823	-19.52808	38.24249	68.34828	-22.78276	-51.26121	57.77057	65.0936	-18.71441	-67.53461	-18.71441	17.90074	16.2734	0
824	-25.22377	38.24249	76.48498	-17.08707	-56.9569	56.14323	64.27993	-19.52808	-73.2303	-26.85111	13.01872	7.32303	0
825	-33.36047	43.93818	87.87636	-12.20505	-56.9569	61.83892	66.72094	-17.08707	-70.78929	-24.4101	14.64606	6.50936	0
826	-38.24249	53.70222	97.6404	-12.20505	-57.77057	69.16195	71.60296	-11.39138	-61.83892	-14.64606	24.4101	13.83239	0
827	-34.17414	66.72094	99.26774	-20.34175	-55.32956	76.48498	74.04397	-5.69569	-50.44754	-3.25468	35.80148	24.4101	0
828	-26.03744	79.73966	94.38572	-32.5468	-48.00653	82.99434	74.85764	-3.25468	-40.6835	6.50936	47.19286	33.36047	0
829	-16.2734	91.13104	91.94471	-43.12451	-43.12451	90.31737	72.41663	-4.06835	-32.5468	14.64606	56.9569	39.05616	0
830	-13.83239	99.26774	95.19939	-46.37919	-45.56552	100.08141	69.16195	-5.69569	-26.85111	19.52808	65.90727	43.12451	0
831	-20.34175	99.26774	98.45407	-41.49717	-51.26121	108.21811	63.46626	-9.76404	-24.4101	23.59643	71.60296	44.75185	0
832	-26.03744	90.31737	100.08141	-30.91946	-57.77057	107.40444	52.88855	-17.90074	-29.29212	24.4101	71.60296	43.93818	0
833	-30.10579	74.85764	96.01306	-19.52808	-61.02525	96.01306	40.6835	-28.47845	-37.42882	20.34175	68.34828	39.05616	0
834	-29.29212	55.32956	81.367	-10.57771	-54.51589	76.48498	28.47845	-39.05616	-48.00653	13.01872	61.83892	30.91946	0
835	-21.96909	38.24249	60.21158	-7.32303	-41.49717	54.51589	15.45973	-52.07488	-59.39791	3.25468	53.70222	20.34175	0
836	-13.01872	27.66478	42.31084	-8.1367	-28.47845	36.61515	2.44101	-65.90727	-71.60296	-6.50936	44.75185	10.57771	0
837	-5.69569	22.78276	29.29212	-8.95037	-18.71441	26.85111	-8.95037	-79.73966	-82.99434	-17.08707	38.24249	1.62734	0
838	3.25468	20.34175	17.90074	-12.20505	-8.95037	20.34175	-18.71441	-93.57205	-94.38572	-28.47845	30.10579	-7.32303	0
839	13.83239	19.52808	4.88202	-17.08707	2.44101	13.01872	-26.03744	-107.40444	-107.40444	-43.12451	18.71441	-18.71441	0
840	21.15542	17.08707	-8.1367	-21.15542	13.83239	2.44101	-30.10579	-118.79582	-119.60949	-58.58424	5.69569	-32.5468	0
841	26.03744	9.76404	-22.78276	-21.15542	23.59643	-8.95037	-31.73313	-126.11885	-133.44188	-74.04397	-6.50936	-47.19286	0
842	24.4101	0	-32.5468	-16.2734	26.03744	-16.2734	-30.10579	-129.37353	-143.20592	-86.24902	-17.90074	-61.02525	0
843	16.2734	-6.50936	-38.24249	-7.32303	21.15542	-17.08707	-25.22377	-128.55986	-148.90161	-93.57205	-26.03744	-69.97562	0
844	6.50936	-13.83239	-38.24249	1.62734	16.2734	-17.90074	-21.15542	-125.30518	-151.34262	-95.19939	-28.47845	-72.41663	0
845	-3.25468	-24.4101	-34.17414	12.20505	9.76404	-21.15542	-17.90074	-122.0505	-149.71528	-90.31737	-23.59643	-68.34828	0
846	-17.08707	-35.80148	-25.22377	25.22377	-0.81367	-25.22377	-17.08707	-118.79582	-145.64693	-78.92599	-15.45973	-61.83892	0
847	-29.29212	-46.37919	-17.08707	39.05616	-11.39138	-28.47845	-16.2734	-116.35481	-138.3239	-65.0936	-5.69569	-54.51589	0
848	-36.61515	-55.32956	-12.20505	48.8202	-17.08707	-30.91946	-14.64606	-116.35481	-132.62821	-55.32956	0	-48.8202	0
849	-38.24249	-61.02525	-16.2734	52.88855	-14.64606	-36.61515	-13.01872	-118.79582	-129.37353	-52.88855	2.44101	-48.00653	0
850	-30.10579	-65.0936	-27.66478	51.26121	-4.88202	-44.75185	-12.20505	-121.23683	-127.74619	-57.77057	0	-51.26121	0
851	-17.90074	-63.46626	-34.98781	48.00653	4.06835	-48.00653	-10.57771	-122.86417	-129.37353	-65.0936	-4.06835	-56.9569	0
852	-7.32303	-51.26121	-32.5468	41.49717	7.32303	-40.6835	-8.95037	-123.67784	-131.81454	-71.60296	-9.76404	-63.46626	0
853	-3.25468	-34.98781	-26.03744	34.17414	8.1367	-30.10579	-7.32303	-122.0505	-136.69656	-78.92599	-13.83239	-70.78929	0
854	-4.88202	-21.96909	-18.71441	27.66478	5.69569	-21.96909	-5.69569	-120.42316	-142.39225	-85.43535	-15.45973	-78.92599	0
855	-9.76404	-13.01872	-12.20505	21.96909	0.81367	-17.08707	-4.88202	-119.60949	-148.08794	-90.31737	-16.2734	-84.62168	0
856	-14.64606	-8.95037	-5.69569	20.34175	-2.44101	-17.90074	-4.88202	-121.23683	-153.78363	-95.19939	-18.71441	-89.5037	0
857	-17.08707	-13.01872	-1.62734	21.96909	-2.44101	-21.96909	-2.44101	-122.86417	-158.66565	-99.26774	-22.78276	-94.38572	0
858	-21.15542	-24.4101	-1.62734	27.66478	-4.06835	-26.03744	0.81367	-122.86417	-160.29299	-101.70875	-26.85111	-96.82673	0
859	-30.10579	-40.6835	0	36.61515	-13.83239	-28.47845	8.1367	-120.42316	-157.85198	-101.70875	-28.47845	-96.01306	0
860	-39.86983	-50.44754	12.20505	41.49717	-32.5468	-22.78276	17.08707	-115.54114	-152.15629	-95.19939	-24.4101	-92.75838	0
861	-48.00653	-51.26121	30.91946	39.05616	-50.44754	-12.20505	25.22377	-109.84545	-144.83326	-82.18067	-13.83239	-89.5037	0
862	-53.70222	-51.26121	44.75185	35.80148	-59.39791	-4.88202	31.73313	-104.96343	-135.06922	-69.97562	-4.06835	-84.62168	0
863	-59.39791	-52.07488	47.19286	38.24249	-59.39791	-5.69569	35.80148	-100.08141	-129.37353	-67.53461	-3.25468	-83.80801	0
864	-67.53461	-53.70222	38.24249	48.00653	-55.32956	-10.57771	38.24249	-96.01306	-130.1872	-72.41663	-8.95037	-88.69003	0
865	-76.48498	-55.32956	26.03744	61.83892	-52.07488	-17.90074	39.05616	-92.75838	-133.44188	-78.92599	-15.45973	-93.57205	0
866	-79.73966	-56.9569	15.45973	69.97562	-46.37919	-21.96909	38.24249	-91.13104	-136.69656	-83.80801	-19.52808	-96.82673	0
867	-69.16195	-54.51589	9.76404	65.90727	-35.80148	-21.96909	37.42882	-91.13104	-138.3239	-87.87636	-21.15542	-96.82673	0
868	-50.44754	-43.12451	6.50936	51.26121	-24.4101	-17.90074	37.42882	-91.13104	-137.51023	-90.31737	-21.96909	-97.6404	0
869	-28.47845	-29.29212	5.69569	30.10579	-13.83239	-10.57771	40.6835	-90.31737	-134.25555	-88.69003	-20.34175	-97.6404	0
870	-8.1367	-17.90074	6.50936	9.76404	-5.69569	-5.69569	43.12451	-90.31737	-130.1872	-84.62168	-17.90074	-99.26774	0
871	0	-13.01872	8.1367	-0.81367	-3.25468	-2.44101	44.75185	-89.5037	-128.55986	-80.55333	-17.08707	-102.52242	0
872	-5.69569	-18.71441	8.1367	4.88202	-5.69569	-5.69569	47.19286	-87.87636	-128.55986	-81.367	-21.96909	-109.03178	0
873	-21.96909	-39.86983	7.32303	23.59643	-11.39138	-19.52808	48.8202	-85.43535	-127.74619	-86.24902	-29.29212	-115.54114	0
874	-39.86983	-65.0936	2.44101	43.93818	-21.15542	-34.17414	51.26121	-84.62168	-126.11885	-90.31737	-34.17414	-121.23683	0
875	-59.39791	-82.18067	-3.25468	61.83892	-35.80148	-42.31084	52.07488	-86.24902	-123.67784	-89.5037	-32.5468	-127.74619	0
876	-74.04397	-90.31737	-8.1367	74.85764	-51.26121	-45.56552	48.8202	-88.69003	-124.49151	-90.31737	-31.73313	-131.81454	0
877	-82.18067	-95.19939	-10.57771	84.62168	-59.39791	-51.26121	40.6835	-94.38572	-131.81454	-94.38572	-34.17414	-134.25555	0
878	-87.06269	-99.26774	-12.20505	91.13104	-58.58424	-59.39791	33.36047	-103.33609	-141.57858	-99.26774	-35.80148	-134.25555	0
879	-93.57205	-103.33609	-13.01872	96.82673	-56.14323	-65.0936	29.29212	-109.84545	-148.90161	-102.52242	-36.61515	-132.62821	0
880	-97.6404	-104.14976	-20.34175	101.70875	-50.44754	-68.34828	28.47845	-112.28646	-153.78363	-104.14976	-38.24249	-131.81454	0
881	-91.13104	-101.70875	-29.29212	107.40444	-39.86983	-69.16195	29.29212	-112.28646	-157.85198	-108.21811	-39.86983	-131.00087	0
882	-82.99434	-99.26774	-30.91946	109.03178	-30.91946	-65.90727	30.91946	-110.65912	-160.29299	-113.9138	-41.49717	-131.00087	0
883	-75.67131	-97.6404	-30.10579	102.52242	-24.4101	-62.65259	31.73313	-108.21811	-161.10666	-121.23683	-44.75185	-131.00087	0
884	-70.78929	-95.19939	-28.47845	93.57205	-20.34175	-57.77057	32.5468	-105.7771	-160.29299	-126.93252	-46.37919	-130.1872	0
885	-69.97562	-89.5037	-27.66478	81.367	-21.96909	-48.8202	34.17414	-100.89508	-155.41097	-127.74619	-43.93818	-128.55986	0
886	-69.16195	-75.67131	-27.66478	62.65259	-27.66478	-39.05616	41.49717	-88.69003	-143.20592	-120.42316	-37.42882	-124.49151	0
887	-65.0936	-56.9569	-19.52808	45.56552	-33.36047	-30.91946	57.77057	-65.0936	-118.79582	-101.70875	-28.47845	-119.60949	0
888	-66.72094	-43.12451	-5.69569	42.31084	-43.12451	-22.78276	84.62168	-30.10579	-82.18067	-74.04397	-17.08707	-112.28646	0
889	-84.62168	-44.75185	5.69569	49.63387	-62.65259	-16.2734	113.9138	12.20505	-35.80148	-46.37919	-12.20505	-109.84545	0
890	-109.03178	-58.58424	11.39138	62.65259	-78.11232	-19.52808	135.88289	56.9569	13.01872	-27.66478	-14.64606	-113.9138	0
891	-117.98215	-74.04397	3.25468	74.85764	-74.04397	-37.42882	148.90161	100.89508	69.97562	-12.20505	-17.08707	-118.79582	0
892	-98.45407	-84.62168	-19.52808	78.92599	-47.19286	-57.77057	160.29299	150.52895	143.20592	13.83239	-8.1367	-122.86417	0
893	-64.27993	-89.5037	-47.19286	70.78929	-11.39138	-73.2303	170.05703	206.67218	235.15063	56.14323	17.08707	-120.42316	0
894	-24.4101	-90.31737	-79.73966	56.9569	26.85111	-89.5037	175.75272	266.88376	342.55507	111.47279	56.9569	-109.03178	0
895	25.22377	-89.5037	-126.93252	35.80148	77.29865	-113.10013	177.38006	340.11406	467.86025	180.63474	108.21811	-89.5037	0
896	88.69003	-87.87636	-188.77144	4.06835	139.95124	-144.01959	178.19373	414.9717	614.32085	268.5111	174.12538	-59.39791	0
897	170.8707	-78.92599	-258.74706	-40.6835	214.80888	-172.49804	170.05703	476.81062	766.47714	374.2882	255.49238	-16.2734	0
898	281.52982	-52.07488	-338.48672	-110.65912	309.1946	-196.09447	141.57858	519.12146	901.54636	498.77971	357.20113	42.31084	0
899	419.85372	-4.88202	-425.54941	-204.23117	421.48106	-213.99521	80.55333	518.30779	994.30474	643.61297	484.94732	123.67784	0
900	575.26469	56.9569	-515.05311	-314.07662	543.53156	-227.01393	-13.01872	445.07749	1029.29255	803.09229	639.54462	227.8276	0
901	729.86199	123.67784	-602.1158	-425.54941	664.76839	-236.77797	-130.1872	300.24423	1003.25511	947.11188	810.41532	346.62342	0
902	871.44057	183.88942	-682.66913	-528.07183	776.24118	-246.54201	-257.11972	104.14976	922.70178	1051.26164	973.96299	464.60557	0
903	980.47235	227.8276	-751.01741	-611.87984	864.93121	-264.44275	-380.79756	-117.16848	790.07357	1115.54157	1093.57248	555.73661	0
904	1039.87026	244.101	-801.46495	-665.58206	921.07444	-286.41184	-484.13365	-336.04571	605.37048	1105.77753	1126.11928	589.91075	0
905	1056.14366	230.26861	-835.63909	-674.53243	946.29821	-301.0579	-550.04092	-530.51284	371.84719	984.5407	1049.6343	554.92294	0
906	1026.85154	200.16282	-836.45276	-639.54462	931.65215	-305.12625	-573.63735	-695.68785	98.45407	774.61384	888.52764	470.30126	0
907	949.55289	161.10666	-795.76926	-572.01001	872.25424	-303.49891	-567.94166	-844.58946	-211.5542	510.98476	680.22812	358.82847	0
908	842.96212	109.03178	-737.18502	-483.31998	789.2599	-297.80322	-545.1589	-973.14932	-547.59991	216.43622	450.77318	235.15063	0
909	718.47061	46.37919	-671.27775	-384.05224	694.06051	-290.48019	-502.03439	-1056.95733	-868.18589	-75.67131	231.08228	117.16848	0
910	581.77405	-9.76404	-593.9791	-281.52982	586.65607	-280.71615	-435.31345	-1097.64083	-1120.42359	-331.97736	45.56552	16.2734	0
911	445.89116	-52.88855	-511.79843	-186.33043	477.62429	-271.76578	-353.13278	-1103.33652	-1274.20722	-527.25816	-95.19939	-62.65259	0
912	329.53635	-82.99434	-428.80409	-111.47279	378.35655	-253.86504	-269.32477	-1078.11275	-1344.18284	-649.30866	-188.77144	-121.23683	0
913	230.26861	-95.19939	-340.11406	-58.58424	284.7845	-219.6909	-194.46713	-1037.42925	-1353.13321	-701.38354	-238.40531	-157.85198	0
914	141.57858	-93.57205	-244.91467	-18.71441	193.65346	-170.8707	-139.13757	-1000.00043	-1325.46843	-703.01088	-255.49238	-174.12538	0
915	62.65259	-84.62168	-152.15629	12.20505	108.21811	-119.60949	-106.59077	-975.59033	-1281.53025	-675.3461	-252.2377	-178.19373	0
916	-2.44101	-76.48498	-75.67131	35.80148	35.80148	-76.48498	-94.38572	-951.9939	-1225.38702	-631.40792	-235.15063	-170.05703	0
917	-47.19286	-72.41663	-23.59643	49.63387	-12.20505	-48.8202	-95.19939	-912.12407	-1148.90204	-577.7057	-205.85851	-152.96996	0
918	-64.27993	-69.97562	2.44101	54.51589	-36.61515	-35.80148	-104.14976	-842.96212	-1044.75228	-515.05311	-167.61602	-128.55986	0
919	-62.65259	-64.27993	11.39138	53.70222	-41.49717	-29.29212	-115.54114	-748.5764	-917.81976	-445.89116	-124.49151	-100.08141	0
920	-53.70222	-54.51589	8.1367	48.00653	-33.36047	-25.22377	-122.86417	-640.35829	-786.81889	-380.79756	-82.99434	-73.2303	0
921	-42.31084	-43.93818	0.81367	37.42882	-20.34175	-22.78276	-120.42316	-533.76752	-668.83674	-327.90901	-48.00653	-52.88855	0
922	-32.5468	-32.5468	-1.62734	26.85111	-12.20505	-17.08707	-109.84545	-440.19547	-572.01001	-286.41184	-22.78276	-37.42882	0
923	-29.29212	-18.71441	1.62734	19.52808	-10.57771	-7.32303	-93.57205	-364.52416	-497.15237	-255.49238	-6.50936	-26.03744	0
924	-32.5468	-7.32303	6.50936	17.08707	-11.39138	0	-74.85764	-310.00827	-442.63648	-231.08228	3.25468	-19.52808	0
925	-34.98781	0	11.39138	14.64606	-13.83239	4.88202	-57.77057	-270.95211	-403.58032	-213.18154	11.39138	-13.83239	0
926	-37.42882	1.62734	18.71441	16.2734	-21.15542	8.95037	-43.12451	-244.91467	-374.2882	-197.72181	16.2734	-7.32303	0
927	-55.32956	-1.62734	35.80148	30.10579	-42.31084	14.64606	-29.29212	-224.57292	-349.8781	-182.26208	23.59643	-2.44101	0
928	-91.13104	-8.95037	64.27993	56.14323	-72.41663	22.78276	-17.08707	-209.11319	-327.09534	-163.54767	32.5468	0	0
929	-124.49151	-15.45973	92.75838	78.92599	-95.19939	32.5468	-9.76404	-199.34915	-308.38093	-148.08794	42.31084	2.44101	0
930	-137.51023	-16.2734	111.47279	85.43535	-110.65912	42.31084	-4.88202	-191.21245	-292.10753	-135.06922	52.07488	4.06835	0
931	-127.74619	-4.88202	117.98215	71.60296	-120.42316	54.51589	0	-180.63474	-278.27514	-125.30518	65.0936	8.1367	0
932	-109.03178	15.45973	124.49151	48.8202	-123.67784	65.90727	7.32303	-167.61602	-266.88376	-115.54114	78.92599	15.45973	0
933	-94.38572	39.05616	134.25555	26.85111	-123.67784	75.67131	14.64606	-156.22464	-257.93339	-107.40444	91.94471	23.59643	0
934	-91.13104	59.39791	141.57858	17.08707	-126.11885	85.43535	21.15542	-147.27427	-250.61036	-104.14976	97.6404	26.85111	0
935	-100.08141	69.16195	146.4606	21.96909	-131.00087	90.31737	26.03744	-139.95124	-245.72834	-107.40444	95.19939	24.4101	0
936	-104.14976	70.78929	149.71528	26.03744	-129.37353	91.13104	29.29212	-135.88289	-240.84632	-112.28646	90.31737	18.71441	0
937	-86.24902	71.60296	148.08794	15.45973	-113.10013	91.13104	29.29212	-134.25555	-238.40531	-114.72747	87.87636	14.64606	0
938	-62.65259	73.2303	141.57858	0.81367	-93.57205	91.94471	29.29212	-134.25555	-234.33696	-112.28646	90.31737	10.57771	0
939	-59.39791	65.0936	135.88289	0.81367	-90.31737	92.75838	30.10579	-134.25555	-229.45494	-107.40444	94.38572	7.32303	0
940	-76.48498	45.56552	134.25555	17.08707	-100.89508	91.94471	31.73313	-134.25555	-223.75925	-102.52242	96.82673	4.06835	0
941	-96.01306	26.03744	134.25555	34.17414	-113.10013	87.06269	32.5468	-134.25555	-221.31824	-99.26774	96.82673	0	0
942	-109.84545	13.83239	135.06922	44.75185	-122.0505	79.73966	30.91946	-134.25555	-221.31824	-98.45407	96.82673	-4.88202	0
943	-117.16848	8.95037	136.69656	51.26121	-128.55986	74.85764	28.47845	-134.25555	-222.13191	-100.08141	96.82673	-8.95037	0
944	-119.60949	6.50936	138.3239	55.32956	-132.62821	75.67131	28.47845	-129.37353	-218.87723	-100.89508	99.26774	-8.1367	0
945	-122.0505	6.50936	143.20592	61.02525	-136.69656	80.55333	32.5468	-120.42316	-210.74053	-97.6404	104.96343	0	0
946	-127.74619	10.57771	152.15629	63.46626	-142.39225	87.06269	35.80148	-111.47279	-201.79016	-91.13104	113.9138	10.57771	0
947	-131.00087	21.96909	161.10666	56.14323	-146.4606	93.57205	37.42882	-105.7771	-195.2808	-83.80801	123.67784	19.52808	0
948	-128.55986	38.24249	165.17501	36.61515	-148.08794	103.33609	39.05616	-100.89508	-189.58511	-77.29865	133.44188	26.85111	0
949	-121.23683	50.44754	168.42969	18.71441	-147.27427	114.72747	40.6835	-96.01306	-185.51676	-73.2303	141.57858	29.29212	0
950	-117.98215	57.77057	174.12538	13.83239	-148.90161	122.0505	42.31084	-91.13104	-181.44841	-70.78929	144.83326	30.91946	0
951	-122.0505	64.27993	179.0074	21.15542	-152.96996	123.67784	45.56552	-88.69003	-176.56639	-67.53461	144.01959	31.73313	0
952	-123.67784	64.27993	182.26208	26.03744	-154.5973	122.86417	48.8202	-86.24902	-174.12538	-67.53461	141.57858	32.5468	0
953	-119.60949	58.58424	182.26208	26.03744	-152.15629	124.49151	52.07488	-82.99434	-170.8707	-69.97562	138.3239	33.36047	0
954	-113.9138	54.51589	184.70309	26.85111	-148.08794	126.11885	55.32956	-78.11232	-166.80235	-71.60296	135.06922	36.61515	0
955	-113.10013	47.19286	194.46713	39.86983	-146.4606	126.93252	58.58424	-73.2303	-161.92033	-69.97562	133.44188	42.31084	0
956	-121.23683	38.24249	205.04484	56.9569	-151.34262	126.11885	61.02525	-68.34828	-156.22464	-64.27993	134.25555	49.63387	0
957	-138.3239	32.5468	208.29952	65.0936	-167.61602	120.42316	57.77057	-68.34828	-153.78363	-60.21158	136.69656	53.70222	0
958	-152.96996	29.29212	207.48585	69.16195	-187.95777	110.65912	50.44754	-74.04397	-157.03831	-60.21158	137.51023	53.70222	0
959	-170.8707	26.85111	205.04484	81.367	-202.60383	99.26774	43.12451	-81.367	-162.734	-62.65259	135.06922	51.26121	0
960	-191.21245	24.4101	202.60383	97.6404	-210.74053	91.94471	37.42882	-87.06269	-168.42969	-66.72094	131.81454	48.00653	0
961	-202.60383	19.52808	200.97649	104.96343	-211.5542	91.13104	34.17414	-89.5037	-173.31171	-70.78929	131.00087	43.93818	0
962	-203.4175	15.45973	201.79016	103.33609	-208.29952	96.82673	34.17414	-90.31737	-175.75272	-73.2303	132.62821	41.49717	0
963	-197.72181	20.34175	207.48585	92.75838	-205.04484	104.96343	34.98781	-87.87636	-174.93905	-71.60296	136.69656	39.86983	0
964	-187.1441	35.80148	217.24989	76.48498	-202.60383	115.54114	38.24249	-82.99434	-170.8707	-64.27993	143.20592	42.31084	0
965	-174.12538	53.70222	225.38659	59.39791	-198.53548	127.74619	43.12451	-77.29865	-165.98868	-51.26121	155.41097	49.63387	0
966	-155.41097	64.27993	218.87723	43.93818	-186.33043	131.81454	43.93818	-70.78929	-157.85198	-43.12451	163.54767	53.70222	0
967	-137.51023	59.39791	198.53548	36.61515	-166.80235	122.86417	39.05616	-63.46626	-148.90161	-43.12451	165.17501	50.44754	0
968	-125.30518	44.75185	178.19373	39.05616	-148.08794	106.59077	34.17414	-60.21158	-142.39225	-48.8202	163.54767	47.19286	0
969	-118.79582	30.91946	161.92033	43.93818	-135.88289	92.75838	31.73313	-59.39791	-136.69656	-53.70222	161.92033	45.56552	0
970	-122.86417	18.71441	152.96996	52.88855	-134.25555	83.80801	30.91946	-57.77057	-131.81454	-57.77057	159.47932	43.93818	0
971	-141.57858	1.62734	152.15629	67.53461	-144.83326	76.48498	30.91946	-55.32956	-128.55986	-61.02525	157.03831	42.31084	0
972	-164.36134	-14.64606	155.41097	78.92599	-159.47932	71.60296	31.73313	-54.51589	-127.74619	-64.27993	154.5973	40.6835	0
973	-181.44841	-20.34175	165.17501	86.24902	-173.31171	70.78929	33.36047	-50.44754	-127.74619	-65.0936	153.78363	39.05616	0
974	-183.88942	-8.95037	175.75272	83.80801	-180.63474	74.04397	35.80148	-43.12451	-126.93252	-61.83892	157.03831	38.24249	0
975	-163.54767	13.83239	184.70309	65.90727	-170.05703	85.43535	38.24249	-35.80148	-122.86417	-57.77057	159.47932	38.24249	0
976	-124.49151	39.05616	190.39878	35.80148	-145.64693	104.14976	39.86983	-30.10579	-118.79582	-55.32956	158.66565	39.05616	0
977	-90.31737	59.39791	192.02612	7.32303	-126.11885	122.86417	39.86983	-26.85111	-115.54114	-53.70222	157.85198	39.05616	0
978	-80.55333	70.78929	194.46713	-3.25468	-125.30518	137.51023	40.6835	-26.03744	-109.84545	-51.26121	157.03831	39.05616	0
979	-95.19939	73.2303	201.79016	4.88202	-140.76491	144.01959	43.93818	-22.78276	-102.52242	-48.00653	157.85198	39.05616	0
980	-116.35481	67.53461	204.23117	21.15542	-157.03831	142.39225	45.56552	-18.71441	-96.82673	-46.37919	157.03831	39.86983	0
981	-135.06922	56.9569	202.60383	37.42882	-167.61602	134.25555	46.37919	-16.2734	-93.57205	-46.37919	157.03831	39.86983	0
982	-149.71528	43.93818	197.72181	52.88855	-173.31171	122.0505	49.63387	-14.64606	-91.94471	-47.19286	161.10666	39.86983	0
983	-161.10666	33.36047	191.21245	65.90727	-175.75272	109.84545	52.07488	-8.95037	-88.69003	-48.00653	163.54767	38.24249	0
984	-166.80235	27.66478	185.51676	73.2303	-175.75272	102.52242	51.26121	0.81367	-82.99434	-47.19286	164.36134	34.98781	0
985	-156.22464	30.10579	177.38006	65.90727	-166.80235	100.89508	52.07488	9.76404	-73.2303	-39.86983	169.24336	35.80148	0
986	-126.11885	41.49717	163.54767	43.93818	-143.20592	100.89508	56.14323	14.64606	-60.21158	-27.66478	179.0074	40.6835	0
987	-97.6404	52.88855	154.5973	23.59643	-120.42316	103.33609	61.83892	18.71441	-48.00653	-13.83239	187.95777	46.37919	0
988	-82.99434	61.02525	152.96996	13.83239	-111.47279	106.59077	65.90727	24.4101	-39.05616	-3.25468	194.46713	49.63387	0
989	-80.55333	66.72094	155.41097	10.57771	-112.28646	110.65912	67.53461	28.47845	-31.73313	1.62734	196.09447	50.44754	0
990	-83.80801	69.16195	165.17501	9.76404	-123.67784	117.16848	68.34828	33.36047	-26.03744	2.44101	195.2808	48.00653	0
991	-92.75838	67.53461	179.82107	13.01872	-143.20592	126.11885	69.16195	43.12451	-17.08707	2.44101	195.2808	46.37919	0
992	-105.7771	65.0936	189.58511	21.15542	-157.03831	134.25555	70.78929	57.77057	-4.06835	3.25468	196.90814	45.56552	0
