samplenr	I	II	III	aVR	aVL	aVF	V1	V2	V3	V4	V5	V6	measurement
0	-2.44101	0	1.62734	1.62734	-2.44101	0	0	-8.95037	-9.76404	-8.1367	-4.88202	0	0
1	-13.01872	-2.44101	9.76404	8.1367	-11.39138	2.44101	-2.44101	-37.42882	-43.12451	-33.36047	-22.78276	-1.62734	0
2	-28.47845	-6.50936	20.34175	17.08707	-23.59643	6.50936	-4.06835	-75.67131	-86.24902	-67.53461	-44.75185	-3.25468	0
3	-43.12451	-8.95037	30.10579	25.22377	-34.98781	11.39138	-5.69569	-107.40444	-122.0505	-96.01306	-62.65259	-4.88202	0
4	-53.70222	-9.76404	39.05616	31.73313	-44.75185	15.45973	-4.88202	-127.74619	-145.64693	-114.72747	-73.2303	-4.88202	0
5	-60.21158	-9.76404	46.37919	34.17414	-51.26121	17.08707	-3.25468	-137.51023	-157.85198	-123.67784	-78.92599	-4.88202	0
6	-61.83892	-9.76404	50.44754	34.98781	-55.32956	18.71441	-1.62734	-139.13757	-161.10666	-125.30518	-79.73966	-4.88202	0
7	-61.02525	-8.95037	50.44754	34.17414	-56.14323	19.52808	-0.81367	-135.88289	-159.47932	-123.67784	-79.73966	-4.06835	0
8	-56.14323	-8.95037	47.19286	31.73313	-52.07488	17.90074	-0.81367	-131.81454	-156.22464	-121.23683	-77.29865	-4.88202	0
9	-49.63387	-8.95037	40.6835	28.47845	-45.56552	15.45973	-2.44101	-130.1872	-155.41097	-119.60949	-75.67131	-7.32303	0
10	-45.56552	-8.95037	35.80148	26.03744	-40.6835	13.01872	-4.06835	-130.1872	-155.41097	-118.79582	-74.85764	-8.1367	0
11	-43.12451	-9.76404	32.5468	25.22377	-38.24249	11.39138	-6.50936	-131.81454	-156.22464	-117.98215	-74.85764	-9.76404	0
12	-42.31084	-9.76404	31.73313	25.22377	-37.42882	11.39138	-7.32303	-132.62821	-157.85198	-117.98215	-75.67131	-10.57771	0
13	-43.12451	-10.57771	31.73313	26.03744	-36.61515	11.39138	-6.50936	-134.25555	-158.66565	-118.79582	-75.67131	-10.57771	0
14	-44.75185	-9.76404	34.17414	26.03744	-38.24249	11.39138	-4.88202	-134.25555	-158.66565	-119.60949	-74.85764	-10.57771	0
15	-46.37919	-8.95037	36.61515	26.03744	-40.6835	13.01872	-1.62734	-133.44188	-157.03831	-119.60949	-73.2303	-10.57771	0
16	-47.19286	-8.1367	38.24249	26.03744	-42.31084	14.64606	0	-132.62821	-155.41097	-117.98215	-71.60296	-9.76404	0
17	-47.19286	-8.1367	39.05616	25.22377	-43.93818	15.45973	0.81367	-131.00087	-154.5973	-115.54114	-69.97562	-9.76404	0
18	-48.00653	-8.1367	38.24249	26.03744	-43.93818	15.45973	0	-129.37353	-153.78363	-113.9138	-68.34828	-10.57771	0
19	-47.19286	-8.95037	35.80148	26.85111	-43.12451	13.83239	-0.81367	-128.55986	-152.96996	-113.10013	-67.53461	-10.57771	0
20	-46.37919	-9.76404	33.36047	26.85111	-41.49717	11.39138	-1.62734	-129.37353	-152.96996	-113.10013	-68.34828	-10.57771	0
21	-44.75185	-10.57771	30.91946	27.66478	-39.05616	9.76404	-0.81367	-128.55986	-151.34262	-112.28646	-69.16195	-10.57771	0
22	-43.93818	-11.39138	30.10579	27.66478	-37.42882	8.1367	0.81367	-122.86417	-146.4606	-109.03178	-69.97562	-11.39138	0
23	-42.31084	-13.83239	26.85111	28.47845	-34.98781	5.69569	9.76404	-105.7771	-133.44188	-104.14976	-69.97562	-12.20505	0
24	-39.86983	-20.34175	19.52808	30.10579	-29.29212	-0.81367	27.66478	-66.72094	-105.7771	-95.19939	-69.97562	-17.08707	0
25	-37.42882	-34.17414	3.25468	35.80148	-20.34175	-15.45973	58.58424	0	-57.77057	-80.55333	-69.97562	-26.03744	0
26	-34.17414	-55.32956	-19.52808	43.93818	-7.32303	-37.42882	100.08141	91.94471	8.95037	-57.77057	-68.34828	-38.24249	0
27	-30.10579	-79.73966	-48.8202	54.51589	8.1367	-64.27993	144.83326	192.83979	86.24902	-26.85111	-62.65259	-48.00653	0
28	-22.78276	-102.52242	-79.73966	61.83892	27.66478	-91.13104	184.70309	282.34349	158.66565	9.76404	-49.63387	-50.44754	0
29	-12.20505	-117.16848	-106.59077	65.0936	46.37919	-113.10013	213.18154	344.18241	218.87723	53.70222	-26.03744	-43.12451	0
30	0	-125.30518	-128.55986	62.65259	63.46626	-128.55986	228.64127	367.77884	261.18807	104.14976	8.1367	-24.4101	0
31	15.45973	-126.93252	-145.64693	56.14323	79.73966	-137.51023	228.64127	349.8781	286.41184	161.92033	54.51589	5.69569	0
32	32.5468	-124.49151	-160.29299	45.56552	96.01306	-143.20592	213.99521	292.9212	293.73487	225.38659	109.84545	43.12451	0
33	54.51589	-123.67784	-179.82107	33.36047	117.16848	-152.15629	187.95777	205.04484	285.59817	289.66652	168.42969	83.80801	0
34	82.99434	-126.93252	-210.74053	21.15542	147.27427	-169.24336	157.03831	100.89508	264.44275	358.82847	233.52329	125.30518	0
35	121.23683	-135.06922	-256.30605	5.69569	188.77144	-196.09447	124.49151	0	239.21898	441.00914	310.00827	170.8707	0
36	170.05703	-144.01959	-314.07662	-13.01872	241.65999	-229.45494	95.19939	-88.69003	217.24989	540.27688	401.13931	222.94558	0
37	229.45494	-147.27427	-376.72921	-41.49717	302.68524	-262.00174	66.72094	-158.66565	200.97649	661.51371	512.6121	288.03918	0
38	301.0579	-135.06922	-436.12712	-83.80801	367.77884	-285.59817	34.98781	-208.29952	204.23117	814.48367	652.56334	374.2882	0
39	388.12059	-101.70875	-490.64301	-144.01959	438.56813	-296.17588	-10.57771	-236.77797	241.65999	1006.50979	829.12973	489.01567	0
40	493.08402	-49.63387	-543.53156	-222.13191	517.49412	-296.17588	-80.55333	-248.98302	297.80322	1231.08271	1040.68393	633.03526	0
41	609.43883	15.45973	-593.9791	-313.26295	601.30213	-288.85285	-177.38006	-257.11972	347.43709	1441.82324	1267.69786	796.58293	0
42	723.35263	83.80801	-639.54462	-404.39399	675.3461	-277.46147	-303.49891	-286.41184	382.4249	1593.16586	1475.18371	958.50326	0
43	822.62037	146.4606	-675.3461	-484.94732	729.04832	-264.44275	-462.97823	-359.64214	376.72921	1679.41488	1624.08532	1087.87679	0
44	890.96865	201.79016	-689.17849	-546.78624	763.22246	-243.28733	-646.05398	-493.08402	298.61689	1684.2969	1687.55158	1166.80278	0
45	913.75141	254.67871	-659.0727	-585.02873	764.03613	-201.79016	-839.70744	-695.68785	136.69656	1582.58815	1660.70047	1200.16325	0
46	877.13626	311.63561	-564.68698	-594.79277	706.26556	-126.11885	-1032.54723	-967.45363	-96.82673	1383.239	1556.55071	1196.90857	0
47	774.61384	375.10187	-398.6983	-575.26469	578.51937	-11.39138	-1194.46756	-1280.71658	-378.35655	1110.65955	1389.74836	1154.59773	0
48	618.3892	437.75446	-180.63474	-528.8855	397.07096	127.74619	-1301.05833	-1581.77448	-676.97344	784.37788	1168.43012	1069.16238	0
49	438.56813	488.202	51.26121	-465.41924	192.83979	270.95211	-1355.57422	-1820.99346	-965.01262	430.43143	908.86939	943.8572	0
50	257.11972	519.12146	268.5111	-393.00261	-4.88202	397.88463	-1362.08358	-1972.33608	-1201.79059	82.99434	635.47627	792.51458	0
51	91.94471	533.76752	450.77318	-318.95864	-178.19373	497.96604	-1317.33173	-2028.47931	-1358.8289	-225.38659	368.59251	624.08489	0
52	-39.86983	537.0222	585.8424	-253.05137	-311.63561	565.50065	-1229.45537	-1990.23682	-1445.07792	-462.16456	127.74619	451.58685	0
53	-130.1872	535.39486	668.83674	-205.85851	-399.51197	606.18415	-1116.35524	-1872.25467	-1460.53765	-604.55681	-63.46626	296.17588	0
54	-179.82107	534.58119	711.14758	-179.0074	-448.33217	627.33957	-987.79538	-1696.50195	-1399.5124	-669.65041	-193.65346	174.12538	0
55	-203.4175	529.69917	725.79364	-164.36134	-468.67392	632.22159	-851.91249	-1492.27078	-1280.71658	-679.41445	-267.69743	85.43535	0
56	-210.74053	515.05311	719.28428	-152.15629	-468.67392	620.01654	-717.65694	-1284.78493	-1131.0013	-649.30866	-296.98955	25.22377	0
57	-209.11319	487.38833	692.43317	-139.13757	-453.21419	591.53809	-594.79277	-1093.57248	-979.65868	-598.04745	-300.24423	-12.20505	0
58	-202.60383	448.33217	648.49499	-122.86417	-427.17675	549.22725	-487.38833	-928.39747	-839.70744	-538.64954	-290.48019	-36.61515	0
59	-195.2808	398.6983	593.16543	-101.70875	-394.62995	496.3387	-392.18894	-783.56421	-716.84327	-480.87897	-276.6478	-53.70222	0
60	-187.1441	340.11406	527.25816	-76.48498	-357.20113	432.87244	-305.93992	-655.81802	-609.43883	-427.17675	-262.00174	-68.34828	0
61	-178.19373	276.6478	454.84153	-49.63387	-316.51763	365.33783	-231.08228	-545.1589	-519.93513	-380.79756	-247.35568	-79.73966	0
62	-167.61602	216.43622	384.05224	-24.4101	-275.83413	300.24423	-172.49804	-454.84153	-450.77318	-345.80975	-236.77797	-89.5037	0
63	-157.03831	165.17501	323.02699	-4.06835	-240.03265	243.28733	-129.37353	-386.49325	-401.95298	-323.84066	-230.26861	-96.82673	0
64	-147.27427	126.93252	275.02046	9.76404	-210.74053	200.97649	-100.08141	-337.67305	-369.40618	-310.00827	-225.38659	-101.70875	0
65	-138.3239	100.89508	240.84632	17.90074	-189.58511	170.05703	-79.73966	-301.0579	-344.18241	-297.80322	-219.6909	-101.70875	0
66	-130.1872	82.99434	213.99521	22.78276	-171.68437	148.08794	-63.46626	-267.69743	-318.14497	-282.34349	-209.92686	-97.6404	0
67	-120.42316	68.34828	188.77144	25.22377	-155.41097	128.55986	-47.19286	-232.70962	-287.22551	-262.00174	-195.2808	-90.31737	0
68	-110.65912	53.70222	164.36134	26.85111	-137.51023	109.03178	-30.10579	-194.46713	-251.42403	-235.9643	-177.38006	-80.55333	0
69	-100.89508	39.86983	140.76491	29.29212	-121.23683	90.31737	-12.20505	-156.22464	-213.99521	-208.29952	-157.85198	-69.16195	0
70	-93.57205	28.47845	122.0505	30.91946	-108.21811	75.67131	4.06835	-122.0505	-180.63474	-183.07575	-140.76491	-59.39791	0
71	-89.5037	21.15542	109.84545	32.5468	-100.08141	67.53461	18.71441	-96.01306	-154.5973	-163.54767	-127.74619	-52.88855	0
72	-89.5037	17.08707	105.7771	34.98781	-96.82673	63.46626	30.10579	-78.11232	-137.51023	-151.34262	-119.60949	-48.8202	0
73	-92.75838	17.08707	106.59077	36.61515	-97.6404	63.46626	37.42882	-67.53461	-127.74619	-144.83326	-115.54114	-47.19286	0
74	-96.82673	17.08707	109.84545	38.24249	-100.89508	64.27993	42.31084	-61.02525	-123.67784	-142.39225	-113.9138	-46.37919	0
75	-96.82673	18.71441	112.28646	37.42882	-102.52242	65.90727	45.56552	-57.77057	-121.23683	-142.39225	-114.72747	-46.37919	0
76	-94.38572	19.52808	112.28646	35.80148	-102.52242	65.90727	46.37919	-54.51589	-118.79582	-142.39225	-114.72747	-46.37919	0
77	-90.31737	21.15542	110.65912	33.36047	-100.89508	65.90727	47.19286	-50.44754	-115.54114	-140.76491	-113.10013	-46.37919	0
78	-87.06269	21.15542	108.21811	31.73313	-97.6404	64.27993	47.19286	-45.56552	-111.47279	-139.13757	-110.65912	-45.56552	0
79	-84.62168	20.34175	105.7771	31.73313	-95.19939	62.65259	47.19286	-41.49717	-106.59077	-136.69656	-109.03178	-44.75185	0
80	-82.99434	18.71441	102.52242	31.73313	-93.57205	60.21158	47.19286	-38.24249	-103.33609	-135.06922	-108.21811	-43.93818	0
81	-82.99434	17.08707	100.89508	32.5468	-91.94471	58.58424	48.00653	-36.61515	-100.89508	-133.44188	-109.03178	-43.93818	0
82	-82.99434	16.2734	100.89508	33.36047	-91.94471	57.77057	48.8202	-35.80148	-99.26774	-131.81454	-109.03178	-43.93818	0
83	-85.43535	16.2734	101.70875	34.17414	-93.57205	58.58424	50.44754	-34.98781	-97.6404	-131.00087	-109.03178	-43.93818	0
84	-87.87636	16.2734	104.14976	34.98781	-96.01306	59.39791	53.70222	-33.36047	-95.19939	-130.1872	-109.03178	-42.31084	0
85	-89.5037	16.2734	106.59077	35.80148	-98.45407	61.02525	56.14323	-30.91946	-92.75838	-127.74619	-107.40444	-39.86983	0
86	-90.31737	16.2734	108.21811	35.80148	-99.26774	61.83892	57.77057	-27.66478	-88.69003	-123.67784	-104.96343	-37.42882	0
87	-89.5037	16.2734	107.40444	35.80148	-98.45407	61.83892	59.39791	-21.96909	-83.80801	-119.60949	-102.52242	-34.98781	0
88	-87.87636	16.2734	105.7771	34.98781	-96.01306	61.02525	60.21158	-17.08707	-78.11232	-115.54114	-99.26774	-32.5468	0
89	-85.43535	14.64606	101.70875	34.17414	-92.75838	58.58424	59.39791	-13.83239	-74.04397	-113.10013	-97.6404	-30.91946	0
90	-82.99434	13.83239	97.6404	33.36047	-90.31737	55.32956	58.58424	-12.20505	-72.41663	-113.10013	-98.45407	-30.10579	0
91	-81.367	13.01872	94.38572	32.5468	-87.87636	53.70222	57.77057	-12.20505	-71.60296	-113.9138	-100.08141	-30.91946	0
92	-79.73966	12.20505	91.94471	32.5468	-86.24902	52.07488	57.77057	-12.20505	-70.78929	-114.72747	-101.70875	-33.36047	0
93	-79.73966	11.39138	91.13104	32.5468	-85.43535	52.07488	58.58424	-11.39138	-69.97562	-116.35481	-104.14976	-35.80148	0
94	-80.55333	11.39138	91.94471	33.36047	-86.24902	52.07488	61.83892	-8.95037	-67.53461	-117.16848	-104.96343	-37.42882	0
95	-82.18067	11.39138	93.57205	34.17414	-88.69003	52.88855	65.0936	-4.06835	-64.27993	-115.54114	-104.96343	-39.05616	0
96	-82.99434	11.39138	95.19939	34.17414	-89.5037	53.70222	69.16195	0	-60.21158	-113.9138	-104.96343	-39.86983	0
97	-82.99434	11.39138	94.38572	34.98781	-89.5037	52.88855	71.60296	7.32303	-55.32956	-111.47279	-105.7771	-39.86983	0
98	-82.18067	10.57771	91.94471	34.17414	-87.87636	52.07488	73.2303	13.83239	-49.63387	-109.03178	-106.59077	-38.24249	0
99	-79.73966	10.57771	90.31737	33.36047	-85.43535	50.44754	73.2303	18.71441	-44.75185	-106.59077	-106.59077	-36.61515	0
100	-78.11232	10.57771	88.69003	32.5468	-83.80801	49.63387	73.2303	22.78276	-41.49717	-104.96343	-105.7771	-35.80148	1000	P+0
101	-77.29865	11.39138	87.87636	31.73313	-82.99434	49.63387	72.41663	25.22377	-37.42882	-104.14976	-105.7771	-34.98781	0
102	-77.29865	11.39138	88.69003	31.73313	-82.99434	49.63387	73.2303	26.85111	-34.98781	-102.52242	-104.96343	-34.98781	0
103	-78.11232	12.20505	90.31737	31.73313	-83.80801	51.26121	74.85764	30.10579	-30.91946	-100.89508	-103.33609	-34.98781	0
104	-80.55333	12.20505	93.57205	33.36047	-86.24902	52.88855	76.48498	34.17414	-26.85111	-99.26774	-101.70875	-35.80148	0
105	-81.367	13.01872	95.19939	33.36047	-87.87636	53.70222	78.92599	39.86983	-22.78276	-96.82673	-99.26774	-36.61515	0
106	-80.55333	13.01872	94.38572	32.5468	-87.06269	53.70222	80.55333	45.56552	-17.90074	-93.57205	-97.6404	-37.42882	0
107	-78.92599	12.20505	90.31737	31.73313	-84.62168	51.26121	82.18067	52.07488	-13.01872	-90.31737	-96.01306	-39.86983	0
108	-76.48498	10.57771	86.24902	30.91946	-81.367	48.8202	82.18067	58.58424	-6.50936	-87.06269	-95.19939	-41.49717	0
109	-74.85764	8.95037	82.99434	30.91946	-78.92599	45.56552	82.18067	65.0936	0	-83.80801	-93.57205	-43.12451	0
110	-74.04397	6.50936	79.73966	31.73313	-77.29865	43.12451	82.18067	70.78929	4.88202	-81.367	-92.75838	-45.56552	0
111	-74.04397	4.06835	78.11232	34.17414	-76.48498	40.6835	82.18067	76.48498	9.76404	-78.92599	-91.94471	-48.00653	0
112	-76.48498	0.81367	77.29865	36.61515	-76.48498	39.05616	83.80801	82.99434	15.45973	-76.48498	-91.13104	-49.63387	0
113	-79.73966	-1.62734	77.29865	39.86983	-77.29865	37.42882	87.06269	88.69003	21.96909	-74.04397	-89.5037	-51.26121	0
114	-82.18067	-4.88202	77.29865	43.12451	-78.92599	35.80148	90.31737	96.01306	28.47845	-71.60296	-87.87636	-52.88855	0
115	-84.62168	-7.32303	77.29865	45.56552	-79.73966	34.17414	93.57205	104.14976	35.80148	-68.34828	-84.62168	-54.51589	0
116	-84.62168	-8.95037	75.67131	45.56552	-79.73966	33.36047	96.82673	113.9138	45.56552	-62.65259	-81.367	-55.32956	0
117	-80.55333	-8.1367	72.41663	43.93818	-76.48498	31.73313	100.89508	126.11885	56.9569	-56.14323	-78.11232	-56.14323	0
118	-74.04397	-5.69569	67.53461	39.05616	-71.60296	30.91946	104.14976	139.13757	69.16195	-48.8202	-74.04397	-55.32956	0
119	-65.90727	-3.25468	61.83892	34.17414	-65.0936	29.29212	106.59077	150.52895	80.55333	-43.12451	-70.78929	-55.32956	0
120	-58.58424	-2.44101	55.32956	30.91946	-56.9569	26.03744	107.40444	159.47932	88.69003	-39.05616	-69.16195	-56.9569	0
121	-54.51589	-3.25468	48.8202	28.47845	-51.26121	21.96909	108.21811	167.61602	96.01306	-36.61515	-69.16195	-57.77057	0
122	-52.88855	-4.88202	44.75185	28.47845	-48.00653	19.52808	110.65912	174.93905	102.52242	-33.36047	-69.16195	-59.39791	0
123	-52.88855	-7.32303	43.93818	29.29212	-47.19286	17.90074	113.9138	183.88942	110.65912	-30.91946	-67.53461	-59.39791	0
124	-53.70222	-9.76404	43.93818	31.73313	-48.8202	16.2734	117.98215	193.65346	120.42316	-26.85111	-65.0936	-59.39791	0
125	-55.32956	-12.20505	43.12451	33.36047	-49.63387	14.64606	122.0505	205.85851	131.81454	-21.96909	-61.02525	-58.58424	0
126	-56.14323	-15.45973	40.6835	34.98781	-48.8202	12.20505	126.11885	218.87723	144.01959	-16.2734	-57.77057	-57.77057	0
127	-55.32956	-18.71441	36.61515	35.80148	-46.37919	8.95037	130.1872	233.52329	157.85198	-9.76404	-54.51589	-57.77057	0
128	-52.88855	-21.96909	30.10579	36.61515	-42.31084	4.06835	133.44188	248.16935	172.49804	-3.25468	-52.07488	-57.77057	0
129	-47.19286	-26.03744	21.15542	35.80148	-34.98781	-1.62734	136.69656	262.81541	186.33043	0.81367	-50.44754	-58.58424	0
130	-41.49717	-29.29212	10.57771	34.17414	-26.03744	-8.95037	138.3239	275.83413	198.53548	4.06835	-50.44754	-60.21158	0
131	-35.80148	-32.5468	1.62734	33.36047	-19.52808	-14.64606	140.76491	288.03918	210.74053	8.1367	-51.26121	-61.83892	0
132	-32.5468	-35.80148	-3.25468	32.5468	-13.83239	-19.52808	144.01959	301.87157	223.75925	12.20505	-51.26121	-62.65259	0
133	-30.10579	-38.24249	-8.1367	33.36047	-10.57771	-22.78276	148.90161	316.51763	237.59164	17.08707	-49.63387	-61.02525	0
134	-28.47845	-41.49717	-12.20505	34.17414	-7.32303	-26.85111	153.78363	331.97736	251.42403	21.96909	-47.19286	-57.77057	0
135	-26.85111	-44.75185	-17.08707	34.98781	-4.06835	-30.91946	159.47932	348.25076	266.88376	29.29212	-43.93818	-54.51589	0
136	-25.22377	-48.8202	-22.78276	35.80148	-0.81367	-35.80148	164.36134	366.96517	283.15716	37.42882	-39.86983	-52.07488	0
137	-22.78276	-52.88855	-30.10579	37.42882	2.44101	-41.49717	170.05703	387.30692	300.24423	46.37919	-35.80148	-49.63387	0
138	-20.34175	-58.58424	-38.24249	38.24249	8.1367	-48.00653	174.93905	408.46234	319.77231	55.32956	-31.73313	-46.37919	0
139	-17.08707	-63.46626	-47.19286	39.05616	14.64606	-55.32956	179.82107	429.61776	339.30039	65.0936	-27.66478	-43.93818	0
140	-12.20505	-68.34828	-56.9569	39.05616	21.96909	-63.46626	184.70309	449.95951	358.82847	74.04397	-23.59643	-42.31084	0
141	-5.69569	-73.2303	-68.34828	38.24249	30.91946	-71.60296	188.77144	468.67392	376.72921	82.18067	-21.96909	-40.6835	0
142	0	-78.11232	-78.92599	38.24249	39.05616	-78.92599	194.46713	488.202	394.62995	90.31737	-20.34175	-39.86983	0
143	4.06835	-82.99434	-87.87636	38.24249	45.56552	-85.43535	200.97649	507.73008	413.34436	98.45407	-17.90074	-39.05616	0
144	6.50936	-88.69003	-96.01306	39.86983	51.26121	-92.75838	208.29952	528.07183	432.87244	107.40444	-16.2734	-37.42882	0
145	8.95037	-95.19939	-104.14976	42.31084	56.9569	-100.08141	215.62255	550.04092	452.40052	116.35481	-13.01872	-35.80148	0
146	13.01872	-101.70875	-114.72747	43.12451	63.46626	-108.21811	222.13191	572.01001	473.55594	126.93252	-10.57771	-33.36047	0
147	19.52808	-107.40444	-127.74619	43.12451	73.2303	-117.16848	227.8276	595.60644	494.71136	136.69656	-7.32303	-31.73313	0
148	26.85111	-113.9138	-141.57858	43.12451	83.80801	-127.74619	231.89595	619.20287	515.05311	147.27427	-3.25468	-29.29212	0
149	34.17414	-120.42316	-155.41097	42.31084	94.38572	-137.51023	235.9643	640.35829	535.39486	157.85198	0	-26.85111	0
150	39.86983	-127.74619	-168.42969	43.12451	104.14976	-148.08794	239.21898	660.70004	554.10927	166.80235	1.62734	-25.22377	0
151	44.75185	-134.25555	-180.63474	43.93818	112.28646	-157.85198	242.47366	679.41445	572.01001	175.75272	2.44101	-23.59643	0
152	49.63387	-141.57858	-192.02612	44.75185	121.23683	-166.80235	245.72834	698.12886	589.09708	183.88942	3.25468	-22.78276	0
153	53.70222	-148.08794	-203.4175	45.56552	128.55986	-175.75272	249.79669	716.0296	606.18415	192.02612	4.88202	-21.96909	0
154	58.58424	-155.41097	-213.99521	47.19286	136.69656	-184.70309	255.49238	733.11667	624.08489	199.34915	5.69569	-21.15542	0
155	62.65259	-161.92033	-224.57292	48.00653	144.01959	-193.65346	260.3744	751.83108	641.17196	207.48585	8.95037	-19.52808	0
156	67.53461	-168.42969	-235.9643	48.00653	151.34262	-202.60383	265.25642	769.73182	659.0727	217.24989	13.01872	-17.90074	0
157	74.04397	-174.12538	-247.35568	48.00653	160.29299	-210.74053	269.32477	788.44623	677.78711	227.01393	17.08707	-15.45973	0
158	81.367	-179.0074	-260.3744	47.19286	170.8707	-219.6909	270.95211	806.34697	694.87418	236.77797	21.96909	-13.01872	0
159	89.5037	-184.70309	-274.20679	45.56552	181.44841	-229.45494	273.39312	822.62037	711.96125	245.72834	26.03744	-10.57771	0
160	96.82673	-189.58511	-287.22551	44.75185	191.21245	-238.40531	275.02046	838.0801	727.42098	254.67871	30.10579	-8.1367	0
161	101.70875	-194.46713	-296.98955	44.75185	198.53548	-245.72834	277.46147	851.09882	741.25337	263.62908	33.36047	-6.50936	0
162	105.7771	-199.34915	-305.12625	45.56552	205.04484	-252.2377	279.90248	863.30387	755.08576	271.76578	36.61515	-4.88202	0
163	109.03178	-205.04484	-314.89029	46.37919	211.5542	-259.56073	283.15716	873.06791	767.29081	279.08881	39.86983	-3.25468	0
164	113.9138	-211.5542	-325.468	48.00653	219.6909	-268.5111	284.7845	882.01828	777.86852	284.7845	41.49717	-1.62734	0
165	117.98215	-217.24989	-336.04571	48.00653	227.01393	-276.6478	286.41184	888.52764	787.63256	290.48019	43.12451	0	0
166	122.86417	-222.13191	-344.99608	48.00653	233.52329	-283.15716	287.22551	893.40966	795.76926	296.17588	44.75185	0.81367	0
167	127.74619	-224.57292	-353.13278	47.19286	240.03265	-288.85285	287.22551	897.47801	801.46495	301.0579	46.37919	2.44101	0
168	132.62821	-227.01393	-359.64214	46.37919	245.72834	-292.9212	285.59817	899.10535	806.34697	305.12625	48.00653	3.25468	0
169	135.88289	-228.64127	-365.33783	44.75185	250.61036	-296.98955	283.15716	898.29168	808.78798	309.1946	49.63387	5.69569	0
170	139.13757	-230.26861	-370.21985	43.93818	254.67871	-300.24423	282.34349	893.40966	809.60165	311.63561	50.44754	7.32303	0
171	139.95124	-232.70962	-373.47453	44.75185	257.11972	-303.49891	280.71615	885.27296	808.78798	313.26295	50.44754	8.95037	0
172	139.13757	-236.77797	-375.10187	47.19286	258.74706	-307.56726	279.90248	874.69525	805.5333	314.07662	50.44754	11.39138	0
173	137.51023	-239.21898	-375.91554	49.63387	258.74706	-309.1946	278.27514	861.67653	799.83761	313.26295	49.63387	13.83239	0
174	134.25555	-241.65999	-375.91554	52.88855	257.11972	-309.1946	276.6478	845.40313	792.51458	311.63561	49.63387	17.08707	0
175	131.00087	-243.28733	-375.10187	55.32956	255.49238	-310.00827	274.20679	828.31606	782.75054	310.00827	50.44754	20.34175	0
176	131.00087	-243.28733	-374.2882	55.32956	254.67871	-309.1946	271.76578	811.22899	772.9865	309.1946	52.07488	24.4101	0
177	134.25555	-240.84632	-374.2882	52.07488	255.49238	-308.38093	270.13844	794.14192	762.40879	309.1946	53.70222	27.66478	0
178	139.13757	-236.77797	-375.10187	48.00653	256.30605	-306.75359	266.07009	774.61384	750.20374	308.38093	54.51589	30.91946	0
179	141.57858	-232.70962	-374.2882	44.75185	257.11972	-304.31258	260.3744	751.83108	735.55768	305.93992	55.32956	33.36047	0
180	141.57858	-227.8276	-370.21985	42.31084	254.67871	-299.43056	252.2377	724.97997	717.65694	300.24423	53.70222	34.98781	0
181	138.3239	-222.94558	-362.08315	42.31084	249.79669	-292.9212	244.101	696.50152	695.68785	292.10753	51.26121	36.61515	0
182	132.62821	-218.87723	-352.31911	43.12451	242.47366	-286.41184	235.9643	665.58206	672.90509	283.15716	48.00653	39.05616	0
183	126.11885	-213.99521	-340.92773	43.93818	234.33696	-278.27514	227.8276	634.6626	647.68132	272.57945	45.56552	42.31084	0
184	119.60949	-207.48585	-327.90901	43.12451	223.75925	-267.69743	220.50457	602.1158	621.64388	262.00174	42.31084	45.56552	0
185	113.9138	-199.34915	-313.26295	41.49717	213.99521	-256.30605	212.36787	570.38267	595.60644	252.2377	39.86983	48.00653	0
186	108.21811	-191.21245	-299.43056	40.6835	203.4175	-244.91467	204.23117	540.27688	569.569	242.47366	37.42882	49.63387	0
187	102.52242	-183.07575	-286.41184	38.24249	194.46713	-234.33696	195.2808	510.17109	543.53156	232.70962	34.98781	51.26121	0
188	97.6404	-174.12538	-272.57945	36.61515	184.70309	-222.94558	186.33043	480.0653	517.49412	222.13191	30.91946	51.26121	0
189	91.94471	-165.17501	-257.93339	34.98781	174.93905	-211.5542	177.38006	449.14584	490.64301	211.5542	26.85111	50.44754	0
190	85.43535	-156.22464	-243.28733	34.17414	163.54767	-200.16282	168.42969	417.41271	462.97823	199.34915	20.34175	48.8202	0
191	79.73966	-148.08794	-229.45494	32.5468	153.78363	-188.77144	158.66565	384.86591	434.49978	185.51676	13.01872	48.00653	0
192	76.48498	-139.13757	-216.43622	30.10579	146.4606	-177.38006	148.08794	353.13278	404.39399	170.05703	5.69569	47.19286	0
193	72.41663	-129.37353	-203.4175	26.85111	138.3239	-166.80235	139.13757	321.39965	375.10187	155.41097	0	48.8202	0
194	68.34828	-121.23683	-190.39878	25.22377	129.37353	-156.22464	131.81454	292.9212	347.43709	142.39225	-4.88202	51.26121	0
195	64.27993	-113.10013	-177.38006	22.78276	120.42316	-144.83326	125.30518	266.88376	321.39965	131.00087	-7.32303	54.51589	0
196	59.39791	-104.14976	-163.54767	21.15542	110.65912	-133.44188	119.60949	242.47366	297.80322	120.42316	-10.57771	56.9569	0
197	54.51589	-94.38572	-148.90161	18.71441	100.89508	-122.0505	114.72747	220.50457	275.02046	110.65912	-12.20505	59.39791	0
198	48.8202	-86.24902	-135.88289	17.90074	91.94471	-111.47279	109.03178	200.16282	253.86504	100.89508	-14.64606	61.83892	0
199	44.75185	-80.55333	-125.30518	17.08707	84.62168	-102.52242	103.33609	179.82107	232.70962	91.13104	-17.08707	62.65259	0
200	39.86983	-75.67131	-116.35481	16.2734	77.29865	-96.01306	97.6404	158.66565	211.5542	80.55333	-21.96909	63.46626	0
201	36.61515	-71.60296	-109.03178	16.2734	72.41663	-90.31737	92.75838	138.3239	191.21245	69.97562	-26.85111	65.0936	0
202	34.17414	-66.72094	-100.89508	14.64606	67.53461	-83.80801	87.87636	118.79582	170.8707	60.21158	-30.91946	65.90727	0
203	29.29212	-60.21158	-91.13104	13.83239	60.21158	-75.67131	84.62168	100.89508	152.96996	52.07488	-34.17414	68.34828	0
204	23.59643	-54.51589	-78.92599	13.83239	51.26121	-66.72094	82.18067	84.62168	137.51023	44.75185	-34.98781	70.78929	0
205	18.71441	-47.19286	-65.90727	13.01872	42.31084	-56.9569	78.92599	69.97562	122.0505	38.24249	-36.61515	72.41663	0
206	16.2734	-39.05616	-55.32956	10.57771	35.80148	-47.19286	76.48498	57.77057	108.21811	32.5468	-37.42882	74.85764	0
207	15.45973	-31.73313	-47.19286	8.95037	30.91946	-39.05616	72.41663	46.37919	96.01306	27.66478	-38.24249	76.48498	0
208	13.83239	-27.66478	-41.49717	8.1367	26.85111	-34.17414	69.16195	37.42882	85.43535	23.59643	-39.05616	78.11232	0
209	10.57771	-26.03744	-37.42882	8.1367	23.59643	-31.73313	65.0936	27.66478	75.67131	19.52808	-39.86983	78.11232	0
210	7.32303	-26.03744	-33.36047	8.1367	19.52808	-30.10579	61.83892	17.90074	65.0936	13.83239	-41.49717	78.11232	0
211	2.44101	-26.03744	-30.10579	9.76404	15.45973	-27.66478	58.58424	8.1367	53.70222	8.1367	-43.93818	78.11232	0
212	-0.81367	-24.4101	-24.4101	10.57771	11.39138	-24.4101	56.9569	-0.81367	43.12451	2.44101	-46.37919	78.11232	0
213	-3.25468	-20.34175	-17.90074	9.76404	7.32303	-18.71441	56.14323	-8.95037	33.36047	-2.44101	-48.8202	79.73966	0
214	-3.25468	-13.83239	-11.39138	8.1367	4.06835	-13.01872	56.14323	-16.2734	26.03744	-6.50936	-49.63387	81.367	0
215	-2.44101	-8.1367	-5.69569	7.32303	1.62734	-6.50936	56.14323	-21.15542	19.52808	-9.76404	-49.63387	83.80801	0
216	-4.06835	-4.06835	-0.81367	6.50936	-1.62734	-2.44101	56.14323	-25.22377	14.64606	-11.39138	-49.63387	86.24902	0
217	-8.1367	-3.25468	4.06835	7.32303	-6.50936	0	55.32956	-28.47845	9.76404	-13.01872	-49.63387	87.87636	0
218	-12.20505	-1.62734	9.76404	8.1367	-11.39138	4.06835	52.88855	-31.73313	4.88202	-15.45973	-52.07488	87.87636	0
219	-15.45973	-0.81367	17.08707	9.76404	-14.64606	7.32303	49.63387	-36.61515	0	-19.52808	-54.51589	87.06269	0
220	-18.71441	0	21.96909	10.57771	-18.71441	9.76404	46.37919	-41.49717	-5.69569	-22.78276	-58.58424	86.24902	0
221	-19.52808	0.81367	24.4101	9.76404	-21.15542	10.57771	43.12451	-47.19286	-12.20505	-26.85111	-61.83892	85.43535	0
222	-18.71441	2.44101	26.03744	7.32303	-22.78276	11.39138	40.6835	-53.70222	-20.34175	-31.73313	-65.90727	83.80801	0
223	-17.90074	4.06835	27.66478	5.69569	-24.4101	13.01872	38.24249	-58.58424	-26.85111	-35.80148	-68.34828	83.80801	0
224	-19.52808	5.69569	29.29212	5.69569	-26.03744	15.45973	37.42882	-62.65259	-32.5468	-39.05616	-69.16195	85.43535	0
225	-21.15542	7.32303	30.91946	5.69569	-27.66478	18.71441	37.42882	-64.27993	-36.61515	-40.6835	-69.16195	87.06269	0
226	-22.78276	8.95037	33.36047	5.69569	-29.29212	21.15542	37.42882	-64.27993	-38.24249	-40.6835	-68.34828	88.69003	0
227	-24.4101	9.76404	34.98781	5.69569	-30.10579	22.78276	38.24249	-62.65259	-39.05616	-39.86983	-67.53461	91.13104	0
228	-25.22377	11.39138	36.61515	5.69569	-31.73313	24.4101	37.42882	-62.65259	-39.86983	-39.86983	-66.72094	93.57205	0
229	-25.22377	13.83239	38.24249	4.88202	-32.5468	26.03744	34.98781	-63.46626	-41.49717	-41.49717	-66.72094	94.38572	0
230	-26.03744	15.45973	41.49717	4.06835	-34.17414	28.47845	33.36047	-65.90727	-43.93818	-44.75185	-69.16195	92.75838	0
231	-27.66478	17.90074	45.56552	4.06835	-37.42882	31.73313	31.73313	-69.16195	-48.00653	-48.00653	-71.60296	91.13104	0
232	-30.91946	18.71441	49.63387	4.88202	-40.6835	34.17414	30.91946	-71.60296	-52.07488	-51.26121	-74.85764	90.31737	0
233	-34.17414	18.71441	53.70222	6.50936	-43.93818	36.61515	31.73313	-73.2303	-56.14323	-54.51589	-77.29865	88.69003	0
234	-39.05616	17.90074	56.9569	8.95037	-47.19286	38.24249	33.36047	-74.04397	-58.58424	-56.14323	-79.73966	89.5037	0
235	-43.12451	17.08707	59.39791	11.39138	-49.63387	39.86983	34.98781	-74.04397	-60.21158	-56.9569	-80.55333	90.31737	0
236	-46.37919	17.08707	59.39791	13.01872	-52.07488	39.86983	36.61515	-73.2303	-61.83892	-56.14323	-82.18067	91.13104	0
237	-46.37919	17.08707	58.58424	12.20505	-52.88855	39.86983	37.42882	-72.41663	-62.65259	-56.14323	-82.99434	91.13104	0
238	-44.75185	18.71441	57.77057	12.20505	-52.88855	39.05616	37.42882	-71.60296	-63.46626	-56.9569	-85.43535	88.69003	0
239	-43.93818	19.52808	59.39791	12.20505	-52.88855	39.86983	35.80148	-71.60296	-64.27993	-58.58424	-89.5037	86.24902	0
240	-45.56552	20.34175	62.65259	12.20505	-56.14323	41.49717	35.80148	-72.41663	-64.27993	-60.21158	-93.57205	83.80801	0
241	-48.8202	21.96909	66.72094	13.01872	-59.39791	43.93818	35.80148	-74.04397	-65.0936	-61.83892	-97.6404	82.18067	0
242	-51.26121	23.59643	69.97562	13.01872	-62.65259	46.37919	35.80148	-74.85764	-66.72094	-62.65259	-100.89508	78.92599	0
243	-52.88855	24.4101	72.41663	12.20505	-65.0936	48.00653	35.80148	-76.48498	-69.16195	-64.27993	-104.14976	75.67131	0
244	-52.88855	26.03744	74.85764	12.20505	-66.72094	49.63387	35.80148	-78.11232	-71.60296	-65.0936	-106.59077	72.41663	0
245	-53.70222	26.85111	78.11232	11.39138	-68.34828	52.07488	35.80148	-78.92599	-73.2303	-65.0936	-109.03178	69.16195	0
246	-53.70222	28.47845	80.55333	11.39138	-69.16195	52.88855	36.61515	-78.11232	-73.2303	-65.0936	-110.65912	65.90727	0
247	-53.70222	27.66478	80.55333	11.39138	-68.34828	52.88855	36.61515	-77.29865	-73.2303	-65.0936	-113.10013	63.46626	0
248	-53.70222	25.22377	79.73966	13.01872	-67.53461	51.26121	36.61515	-76.48498	-73.2303	-65.90727	-114.72747	61.83892	0
249	-55.32956	22.78276	78.11232	15.45973	-67.53461	49.63387	36.61515	-75.67131	-73.2303	-66.72094	-117.16848	60.21158	0
250	-56.9569	19.52808	77.29865	17.90074	-67.53461	48.00653	38.24249	-75.67131	-73.2303	-67.53461	-119.60949	60.21158	0
251	-59.39791	17.90074	78.11232	19.52808	-69.16195	48.00653	39.86983	-74.85764	-73.2303	-69.16195	-122.0505	61.02525	0
252	-62.65259	17.08707	80.55333	21.15542	-71.60296	48.8202	41.49717	-74.04397	-73.2303	-69.97562	-123.67784	61.83892	0
253	-65.90727	17.08707	82.99434	21.96909	-74.04397	50.44754	43.93818	-72.41663	-73.2303	-70.78929	-125.30518	62.65259	0
254	-66.72094	16.2734	82.99434	23.59643	-74.85764	49.63387	45.56552	-71.60296	-74.04397	-71.60296	-126.11885	62.65259	0
255	-65.90727	14.64606	81.367	24.4101	-73.2303	48.00653	46.37919	-70.78929	-74.85764	-71.60296	-126.93252	62.65259	0
256	-64.27993	13.01872	78.11232	24.4101	-71.60296	45.56552	46.37919	-69.16195	-74.04397	-70.78929	-126.93252	63.46626	0
257	-62.65259	11.39138	74.04397	24.4101	-68.34828	43.12451	46.37919	-67.53461	-73.2303	-69.97562	-126.93252	63.46626	0
258	-60.21158	9.76404	69.97562	24.4101	-65.0936	39.86983	44.75185	-65.90727	-71.60296	-69.16195	-126.93252	63.46626	0
259	-58.58424	8.1367	65.90727	23.59643	-63.46626	36.61515	42.31084	-65.0936	-70.78929	-69.16195	-128.55986	63.46626	0
260	-56.9569	8.1367	64.27993	23.59643	-61.83892	34.98781	39.86983	-65.90727	-69.97562	-70.78929	-131.00087	62.65259	0
261	-56.14323	7.32303	65.0936	22.78276	-61.83892	35.80148	37.42882	-67.53461	-70.78929	-73.2303	-133.44188	61.83892	0
262	-57.77057	8.1367	66.72094	22.78276	-63.46626	37.42882	36.61515	-69.16195	-72.41663	-74.85764	-136.69656	61.83892	0
263	-60.21158	8.95037	69.16195	22.78276	-65.0936	39.05616	36.61515	-69.97562	-74.04397	-76.48498	-138.3239	61.83892	0
264	-61.83892	9.76404	71.60296	23.59643	-66.72094	40.6835	37.42882	-69.97562	-74.85764	-77.29865	-139.13757	61.83892	0
265	-62.65259	10.57771	73.2303	23.59643	-67.53461	42.31084	37.42882	-69.16195	-75.67131	-76.48498	-140.76491	61.83892	0
266	-62.65259	11.39138	74.04397	23.59643	-67.53461	42.31084	38.24249	-67.53461	-74.85764	-75.67131	-141.57858	62.65259	0
267	-61.02525	10.57771	73.2303	23.59643	-65.90727	41.49717	39.05616	-64.27993	-74.04397	-74.85764	-143.20592	62.65259	0
268	-59.39791	8.95037	71.60296	23.59643	-65.0936	39.86983	39.05616	-61.02525	-72.41663	-73.2303	-143.20592	62.65259	0
269	-57.77057	7.32303	69.97562	23.59643	-64.27993	38.24249	38.24249	-59.39791	-71.60296	-72.41663	-144.01959	62.65259	0
270	-56.14323	5.69569	66.72094	23.59643	-63.46626	35.80148	36.61515	-60.21158	-71.60296	-72.41663	-145.64693	62.65259	0
271	-55.32956	4.88202	63.46626	23.59643	-61.02525	34.17414	34.98781	-61.83892	-73.2303	-73.2303	-147.27427	61.83892	0
272	-55.32956	4.06835	61.02525	23.59643	-59.39791	34.17414	33.36047	-64.27993	-75.67131	-74.85764	-148.90161	61.83892	0
273	-55.32956	4.88202	61.02525	23.59643	-58.58424	34.17414	31.73313	-67.53461	-78.11232	-76.48498	-149.71528	62.65259	0
274	-55.32956	6.50936	61.83892	22.78276	-58.58424	35.80148	29.29212	-69.16195	-79.73966	-76.48498	-149.71528	65.0936	1500	QRS+0
275	-54.51589	8.1367	62.65259	21.96909	-59.39791	35.80148	26.03744	-69.16195	-80.55333	-75.67131	-148.90161	67.53461	0
276	-53.70222	8.95037	62.65259	21.15542	-58.58424	35.80148	24.4101	-68.34828	-80.55333	-74.85764	-148.08794	69.16195	0
277	-52.88855	8.95037	61.02525	21.15542	-57.77057	34.98781	23.59643	-66.72094	-79.73966	-74.04397	-147.27427	68.34828	0
278	-51.26121	8.95037	59.39791	20.34175	-56.14323	34.17414	21.96909	-65.0936	-80.55333	-73.2303	-148.90161	66.72094	0
279	-49.63387	8.95037	58.58424	19.52808	-54.51589	32.5468	20.34175	-65.90727	-82.18067	-74.04397	-152.15629	64.27993	0
280	-49.63387	8.1367	57.77057	19.52808	-54.51589	32.5468	19.52808	-68.34828	-84.62168	-76.48498	-157.03831	62.65259	0
281	-49.63387	8.1367	57.77057	19.52808	-53.70222	31.73313	17.90074	-69.97562	-87.87636	-78.92599	-162.734	61.83892	0
282	-48.8202	8.1367	56.9569	18.71441	-52.88855	31.73313	17.90074	-72.41663	-90.31737	-81.367	-166.80235	62.65259	0
283	-48.8202	7.32303	56.9569	18.71441	-52.07488	31.73313	18.71441	-73.2303	-91.94471	-83.80801	-170.05703	64.27993	0
284	-50.44754	8.1367	57.77057	19.52808	-52.88855	32.5468	21.15542	-74.04397	-93.57205	-84.62168	-170.8707	66.72094	0
285	-52.88855	8.1367	57.77057	21.15542	-53.70222	33.36047	22.78276	-74.85764	-93.57205	-82.99434	-171.68437	68.34828	0
286	-53.70222	8.95037	58.58424	21.15542	-54.51589	33.36047	22.78276	-76.48498	-94.38572	-81.367	-170.8707	68.34828	0
287	-50.44754	8.95037	59.39791	19.52808	-55.32956	32.5468	21.15542	-80.55333	-93.57205	-79.73966	-170.8707	67.53461	0
288	-47.19286	10.57771	59.39791	17.08707	-54.51589	33.36047	18.71441	-84.62168	-93.57205	-79.73966	-172.49804	66.72094	0
289	-43.12451	13.01872	56.9569	15.45973	-52.07488	34.98781	16.2734	-88.69003	-92.75838	-80.55333	-174.12538	66.72094	0
290	-40.6835	14.64606	55.32956	13.83239	-49.63387	35.80148	13.01872	-93.57205	-93.57205	-81.367	-177.38006	65.90727	0
291	-39.86983	15.45973	54.51589	13.83239	-48.8202	35.80148	10.57771	-99.26774	-95.19939	-82.18067	-179.82107	66.72094	0
292	-41.49717	14.64606	56.14323	13.83239	-48.8202	36.61515	8.95037	-102.52242	-97.6404	-82.99434	-179.82107	69.16195	0
293	-43.93818	13.83239	57.77057	14.64606	-50.44754	36.61515	8.1367	-104.96343	-98.45407	-82.18067	-177.38006	73.2303	0
294	-47.19286	12.20505	59.39791	15.45973	-52.88855	36.61515	8.1367	-105.7771	-97.6404	-78.92599	-173.31171	78.92599	0
295	-48.8202	11.39138	59.39791	16.2734	-53.70222	34.98781	8.95037	-104.14976	-96.82673	-75.67131	-169.24336	84.62168	0
296	-47.19286	10.57771	56.14323	16.2734	-52.07488	32.5468	9.76404	-102.52242	-95.19939	-72.41663	-165.98868	87.87636	0
297	-42.31084	9.76404	51.26121	14.64606	-47.19286	30.10579	9.76404	-100.89508	-94.38572	-70.78929	-164.36134	89.5037	0
298	-37.42882	9.76404	46.37919	12.20505	-42.31084	28.47845	8.1367	-100.89508	-95.19939	-69.97562	-164.36134	89.5037	0
299	-34.17414	11.39138	44.75185	10.57771	-39.86983	27.66478	6.50936	-102.52242	-95.19939	-70.78929	-165.98868	87.87636	0
300	-32.5468	13.01872	44.75185	8.95037	-39.05616	29.29212	4.88202	-105.7771	-95.19939	-70.78929	-168.42969	84.62168	0
301	-32.5468	15.45973	47.19286	8.1367	-39.86983	30.91946	2.44101	-108.21811	-96.01306	-70.78929	-171.68437	81.367	0
302	-33.36047	17.08707	50.44754	7.32303	-41.49717	33.36047	1.62734	-109.84545	-97.6404	-71.60296	-174.93905	77.29865	0
303	-34.98781	17.90074	53.70222	8.1367	-43.12451	35.80148	1.62734	-111.47279	-99.26774	-73.2303	-177.38006	74.85764	0
304	-37.42882	17.90074	56.14323	8.95037	-45.56552	36.61515	1.62734	-112.28646	-101.70875	-74.04397	-179.0074	74.04397	0
305	-39.05616	17.90074	57.77057	9.76404	-48.00653	37.42882	0.81367	-112.28646	-103.33609	-73.2303	-179.0074	75.67131	0
306	-39.05616	17.08707	57.77057	9.76404	-48.8202	37.42882	0	-110.65912	-103.33609	-72.41663	-178.19373	77.29865	0
307	-37.42882	17.08707	55.32956	8.95037	-46.37919	36.61515	-1.62734	-110.65912	-104.14976	-70.78929	-177.38006	78.92599	0
308	-33.36047	17.90074	51.26121	6.50936	-42.31084	34.17414	-4.06835	-110.65912	-105.7771	-70.78929	-177.38006	80.55333	0
309	-29.29212	17.90074	47.19286	4.06835	-39.05616	32.5468	-7.32303	-113.10013	-108.21811	-71.60296	-177.38006	81.367	0
310	-26.85111	19.52808	45.56552	2.44101	-37.42882	32.5468	-9.76404	-116.35481	-109.84545	-73.2303	-178.19373	81.367	0
311	-26.03744	20.34175	46.37919	1.62734	-36.61515	33.36047	-11.39138	-118.79582	-112.28646	-74.85764	-179.82107	82.18067	0
312	-26.85111	21.15542	48.00653	1.62734	-37.42882	34.98781	-10.57771	-118.79582	-113.10013	-75.67131	-181.44841	82.99434	0
313	-28.47845	21.96909	49.63387	1.62734	-39.86983	35.80148	-8.1367	-117.98215	-113.10013	-76.48498	-182.26208	84.62168	0
314	-29.29212	23.59643	52.88855	1.62734	-42.31084	38.24249	-5.69569	-115.54114	-112.28646	-74.85764	-181.44841	87.06269	0
315	-29.29212	26.85111	56.14323	0	-43.93818	41.49717	-4.06835	-113.10013	-109.84545	-71.60296	-179.82107	88.69003	0
316	-28.47845	31.73313	59.39791	-2.44101	-45.56552	46.37919	-3.25468	-109.03178	-105.7771	-66.72094	-178.19373	90.31737	0
317	-26.85111	36.61515	61.02525	-5.69569	-45.56552	50.44754	-2.44101	-104.96343	-101.70875	-62.65259	-175.75272	92.75838	0
318	-22.78276	41.49717	61.02525	-9.76404	-43.93818	52.88855	-4.06835	-103.33609	-100.08141	-59.39791	-174.12538	94.38572	0
319	-17.90074	46.37919	62.65259	-14.64606	-40.6835	54.51589	-5.69569	-103.33609	-99.26774	-57.77057	-173.31171	96.82673	0
320	-13.83239	51.26121	65.90727	-18.71441	-39.05616	57.77057	-7.32303	-104.96343	-98.45407	-56.14323	-171.68437	100.08141	0
321	-12.20505	57.77057	69.97562	-21.96909	-39.86983	62.65259	-8.1367	-108.21811	-99.26774	-54.51589	-170.05703	102.52242	0
322	-12.20505	62.65259	74.85764	-23.59643	-42.31084	68.34828	-8.1367	-110.65912	-100.08141	-53.70222	-169.24336	104.14976	0
323	-13.83239	65.0936	79.73966	-24.4101	-45.56552	72.41663	-6.50936	-112.28646	-100.89508	-53.70222	-169.24336	103.33609	0
324	-15.45973	65.90727	82.18067	-25.22377	-48.00653	74.85764	-4.88202	-112.28646	-100.89508	-53.70222	-169.24336	101.70875	0
325	-15.45973	66.72094	82.99434	-26.03744	-48.8202	75.67131	-3.25468	-109.03178	-98.45407	-52.07488	-169.24336	99.26774	0
326	-12.20505	67.53461	80.55333	-27.66478	-47.19286	74.85764	-1.62734	-103.33609	-93.57205	-48.8202	-169.24336	96.82673	0
327	-8.1367	69.97562	78.11232	-31.73313	-43.93818	74.04397	0	-96.82673	-88.69003	-44.75185	-168.42969	95.19939	0
328	-3.25468	74.04397	76.48498	-35.80148	-40.6835	76.48498	0	-91.94471	-82.18067	-39.05616	-166.80235	96.01306	0
329	0.81367	80.55333	75.67131	-41.49717	-39.05616	78.92599	-3.25468	-88.69003	-77.29865	-34.98781	-165.17501	99.26774	0
330	6.50936	86.24902	74.85764	-47.19286	-36.61515	82.18067	-8.95037	-87.87636	-73.2303	-31.73313	-163.54767	102.52242	0
331	12.20505	91.13104	74.85764	-52.88855	-33.36047	84.62168	-17.90074	-87.87636	-71.60296	-29.29212	-161.92033	104.96343	0
332	17.90074	96.01306	74.85764	-57.77057	-29.29212	86.24902	-26.03744	-87.87636	-69.16195	-25.22377	-158.66565	109.03178	0
333	24.4101	100.89508	74.04397	-63.46626	-24.4101	87.87636	-32.5468	-87.06269	-65.0936	-21.15542	-153.78363	113.10013	0
334	30.91946	104.14976	72.41663	-69.16195	-20.34175	88.69003	-38.24249	-84.62168	-61.02525	-15.45973	-148.08794	117.16848	0
335	36.61515	106.59077	69.16195	-72.41663	-15.45973	87.87636	-44.75185	-82.18067	-57.77057	-10.57771	-142.39225	121.23683	0
336	43.93818	106.59077	64.27993	-76.48498	-8.95037	84.62168	-51.26121	-80.55333	-55.32956	-6.50936	-138.3239	124.49151	0
337	52.07488	106.59077	58.58424	-79.73966	-0.81367	80.55333	-57.77057	-79.73966	-53.70222	-3.25468	-135.06922	126.93252	0
338	58.58424	107.40444	54.51589	-83.80801	4.88202	78.11232	-64.27993	-79.73966	-52.88855	-0.81367	-132.62821	128.55986	0
339	63.46626	110.65912	52.07488	-87.06269	9.76404	78.92599	-68.34828	-82.99434	-53.70222	0	-131.81454	128.55986	0
340	65.90727	114.72747	50.44754	-89.5037	11.39138	80.55333	-71.60296	-87.06269	-54.51589	-0.81367	-133.44188	125.30518	0
341	67.53461	116.35481	49.63387	-90.31737	12.20505	82.18067	-74.04397	-91.94471	-58.58424	-4.06835	-137.51023	119.60949	0
342	66.72094	113.10013	46.37919	-88.69003	12.20505	79.73966	-74.04397	-96.01306	-64.27993	-10.57771	-143.20592	110.65912	0
343	62.65259	105.7771	42.31084	-83.80801	11.39138	73.2303	-71.60296	-99.26774	-70.78929	-18.71441	-149.71528	100.08141	0
344	56.9569	94.38572	36.61515	-75.67131	10.57771	65.0936	-67.53461	-100.89508	-78.11232	-26.85111	-156.22464	88.69003	0
345	51.26121	81.367	29.29212	-67.53461	10.57771	55.32956	-64.27993	-101.70875	-85.43535	-34.98781	-163.54767	77.29865	0
346	46.37919	69.16195	21.96909	-58.58424	11.39138	45.56552	-60.21158	-102.52242	-91.94471	-42.31084	-170.05703	66.72094	0
347	42.31084	56.14323	13.01872	-50.44754	13.01872	34.98781	-57.77057	-103.33609	-96.82673	-48.00653	-174.93905	57.77057	0
348	38.24249	43.93818	4.88202	-42.31084	15.45973	25.22377	-55.32956	-105.7771	-103.33609	-53.70222	-180.63474	49.63387	0
349	34.17414	34.17414	0	-34.98781	16.2734	17.08707	-54.51589	-111.47279	-110.65912	-61.83892	-187.95777	39.86983	0
350	29.29212	26.85111	-2.44101	-30.91946	14.64606	12.20505	-55.32956	-118.79582	-119.60949	-70.78929	-196.09447	29.29212	0
351	24.4101	25.22377	0	-27.66478	11.39138	12.20505	-56.14323	-125.30518	-127.74619	-78.11232	-202.60383	19.52808	0
352	20.34175	27.66478	6.50936	-25.22377	6.50936	17.08707	-56.9569	-130.1872	-134.25555	-84.62168	-206.67218	13.01872	0
353	14.64606	31.73313	15.45973	-23.59643	0	23.59643	-55.32956	-132.62821	-136.69656	-87.87636	-209.11319	8.1367	0
354	8.95037	36.61515	26.03744	-22.78276	-7.32303	30.10579	-52.88855	-132.62821	-135.88289	-87.87636	-209.11319	6.50936	0
355	4.06835	39.05616	33.36047	-21.15542	-14.64606	34.98781	-48.8202	-131.00087	-133.44188	-86.24902	-207.48585	4.88202	0
356	0.81367	39.05616	37.42882	-20.34175	-18.71441	36.61515	-45.56552	-128.55986	-130.1872	-84.62168	-205.04484	2.44101	0
357	-0.81367	36.61515	36.61515	-17.90074	-20.34175	35.80148	-42.31084	-126.11885	-127.74619	-82.99434	-204.23117	0	0
358	-3.25468	32.5468	34.98781	-14.64606	-20.34175	33.36047	-39.05616	-124.49151	-125.30518	-82.99434	-202.60383	-3.25468	0
359	-7.32303	26.03744	32.5468	-9.76404	-21.15542	28.47845	-34.17414	-124.49151	-123.67784	-83.80801	-200.97649	-6.50936	0
360	-13.83239	17.90074	30.91946	-2.44101	-23.59643	24.4101	-29.29212	-124.49151	-122.0505	-85.43535	-199.34915	-10.57771	0
361	-21.96909	9.76404	30.91946	4.88202	-26.85111	20.34175	-23.59643	-124.49151	-122.86417	-87.06269	-199.34915	-15.45973	0
362	-30.10579	0.81367	32.5468	13.83239	-30.91946	17.08707	-17.08707	-125.30518	-125.30518	-89.5037	-199.34915	-20.34175	0
363	-37.42882	-4.88202	35.80148	22.78276	-34.98781	15.45973	-12.20505	-126.93252	-127.74619	-92.75838	-199.34915	-23.59643	0
364	-44.75185	-8.95037	39.05616	28.47845	-39.86983	13.83239	-8.1367	-128.55986	-130.1872	-95.19939	-198.53548	-26.85111	0
365	-49.63387	-11.39138	41.49717	30.91946	-43.93818	13.01872	-6.50936	-131.00087	-132.62821	-96.82673	-197.72181	-30.91946	0
366	-52.07488	-12.20505	41.49717	30.91946	-46.37919	11.39138	-5.69569	-131.81454	-134.25555	-98.45407	-196.09447	-35.80148	0
367	-52.07488	-12.20505	39.86983	30.10579	-45.56552	11.39138	-5.69569	-132.62821	-134.25555	-100.08141	-193.65346	-39.05616	0
368	-50.44754	-11.39138	38.24249	30.10579	-44.75185	11.39138	-6.50936	-134.25555	-135.06922	-100.89508	-192.02612	-43.12451	0
369	-49.63387	-11.39138	36.61515	29.29212	-43.93818	10.57771	-7.32303	-136.69656	-135.88289	-103.33609	-190.39878	-46.37919	0
370	-48.8202	-12.20505	34.98781	29.29212	-42.31084	10.57771	-8.95037	-139.95124	-137.51023	-104.96343	-189.58511	-49.63387	-1500	QRS-0
371	-47.19286	-12.20505	33.36047	29.29212	-40.6835	9.76404	-9.76404	-142.39225	-139.95124	-107.40444	-187.95777	-52.07488	0
372	-48.00653	-12.20505	33.36047	28.47845	-39.86983	9.76404	-9.76404	-143.20592	-141.57858	-109.03178	-184.70309	-53.70222	0
373	-48.8202	-12.20505	34.98781	28.47845	-41.49717	11.39138	-8.95037	-142.39225	-142.39225	-109.84545	-179.82107	-55.32956	0
374	-50.44754	-12.20505	36.61515	29.29212	-43.12451	12.20505	-8.95037	-141.57858	-142.39225	-109.84545	-174.12538	-57.77057	0
375	-52.07488	-13.01872	38.24249	30.91946	-44.75185	13.01872	-8.1367	-139.13757	-141.57858	-109.84545	-167.61602	-61.02525	0
376	-52.07488	-13.83239	37.42882	32.5468	-43.93818	12.20505	-8.1367	-136.69656	-141.57858	-109.84545	-161.92033	-65.0936	0
377	-52.07488	-15.45973	34.98781	33.36047	-42.31084	9.76404	-8.1367	-133.44188	-140.76491	-109.84545	-156.22464	-68.34828	0
378	-50.44754	-17.90074	31.73313	33.36047	-39.86983	7.32303	-8.95037	-131.81454	-140.76491	-109.03178	-149.71528	-71.60296	0
379	-48.8202	-19.52808	28.47845	34.17414	-39.05616	4.88202	-9.76404	-131.81454	-139.95124	-109.03178	-143.20592	-74.85764	0
380	-48.00653	-19.52808	26.85111	33.36047	-38.24249	3.25468	-11.39138	-132.62821	-139.95124	-109.84545	-136.69656	-77.29865	0
381	-48.00653	-19.52808	27.66478	33.36047	-38.24249	3.25468	-12.20505	-133.44188	-139.95124	-109.84545	-132.62821	-80.55333	0
382	-48.00653	-18.71441	29.29212	32.5468	-38.24249	4.06835	-13.01872	-133.44188	-141.57858	-111.47279	-127.74619	-85.43535	0
383	-48.8202	-17.90074	31.73313	32.5468	-39.05616	5.69569	-13.01872	-134.25555	-144.01959	-112.28646	-122.86417	-89.5037	0
384	-49.63387	-16.2734	33.36047	31.73313	-40.6835	7.32303	-13.01872	-133.44188	-144.83326	-111.47279	-116.35481	-91.94471	0
385	-49.63387	-13.83239	34.98781	30.10579	-41.49717	9.76404	-13.01872	-131.00087	-144.83326	-109.84545	-108.21811	-94.38572	0
386	-48.8202	-10.57771	34.98781	27.66478	-41.49717	12.20505	-13.83239	-127.74619	-144.01959	-107.40444	-100.08141	-97.6404	0
387	-47.19286	-8.95037	34.17414	26.03744	-39.86983	13.01872	-14.64606	-125.30518	-142.39225	-105.7771	-92.75838	-101.70875	0
388	-44.75185	-7.32303	33.36047	24.4101	-38.24249	13.01872	-16.2734	-124.49151	-140.76491	-105.7771	-87.87636	-107.40444	0
389	-43.12451	-7.32303	32.5468	23.59643	-37.42882	12.20505	-18.71441	-124.49151	-140.76491	-108.21811	-86.24902	-115.54114	0
390	-41.49717	-7.32303	31.73313	23.59643	-36.61515	11.39138	-20.34175	-125.30518	-141.57858	-112.28646	-84.62168	-122.86417	0
391	-41.49717	-8.1367	31.73313	24.4101	-36.61515	10.57771	-21.15542	-126.93252	-142.39225	-114.72747	-82.99434	-126.93252	0
392	-43.12451	-9.76404	32.5468	26.03744	-37.42882	10.57771	-20.34175	-127.74619	-142.39225	-117.16848	-78.11232	-127.74619	0
393	-45.56552	-12.20505	31.73313	27.66478	-38.24249	9.76404	-19.52808	-127.74619	-143.20592	-118.79582	-70.78929	-126.93252	0
394	-47.19286	-14.64606	30.91946	29.29212	-38.24249	8.1367	-17.90074	-127.74619	-143.20592	-118.79582	-60.21158	-126.11885	0
395	-48.00653	-17.08707	29.29212	30.91946	-38.24249	5.69569	-17.08707	-126.11885	-142.39225	-117.16848	-49.63387	-125.30518	0
396	-47.19286	-18.71441	26.85111	31.73313	-36.61515	3.25468	-16.2734	-123.67784	-140.76491	-114.72747	-39.05616	-126.11885	0
397	-44.75185	-20.34175	21.96909	31.73313	-34.17414	0	-17.08707	-120.42316	-139.13757	-112.28646	-30.10579	-126.93252	0
398	-43.12451	-21.96909	18.71441	31.73313	-30.91946	-1.62734	-18.71441	-118.79582	-137.51023	-111.47279	-21.96909	-127.74619	0
399	-43.12451	-21.96909	18.71441	32.5468	-30.10579	-1.62734	-19.52808	-117.98215	-136.69656	-112.28646	-15.45973	-129.37353	0
400	-44.75185	-21.96909	21.15542	33.36047	-30.91946	-0.81367	-20.34175	-116.35481	-134.25555	-111.47279	-9.76404	-131.00087	0
401	-44.75185	-21.15542	21.96909	33.36047	-31.73313	0	-20.34175	-112.28646	-130.1872	-109.03178	-3.25468	-132.62821	0
402	-42.31084	-21.15542	20.34175	32.5468	-30.10579	0	-16.2734	-98.45407	-120.42316	-105.7771	1.62734	-135.06922	0
403	-40.6835	-26.03744	13.83239	34.17414	-26.03744	-5.69569	-1.62734	-65.0936	-97.6404	-98.45407	5.69569	-140.76491	0
404	-39.05616	-39.05616	0	39.05616	-18.71441	-18.71441	25.22377	-2.44101	-55.32956	-87.06269	8.95037	-151.34262	0
405	-37.42882	-60.21158	-22.78276	48.00653	-7.32303	-41.49717	63.46626	83.80801	2.44101	-68.34828	10.57771	-165.17501	0
406	-32.5468	-85.43535	-52.88855	57.77057	8.95037	-68.34828	103.33609	179.82107	69.97562	-42.31084	14.64606	-177.38006	0
407	-25.22377	-109.03178	-83.80801	64.27993	27.66478	-96.01306	139.13757	264.44275	132.62821	-9.76404	26.85111	-181.44841	0
408	-15.45973	-126.11885	-111.47279	66.72094	47.19286	-118.79582	165.17501	325.468	186.33043	29.29212	50.44754	-174.93905	0
409	-2.44101	-135.88289	-135.06922	66.72094	65.0936	-135.88289	180.63474	353.94645	226.20026	75.67131	86.24902	-157.03831	0
410	9.76404	-139.95124	-152.96996	62.65259	80.55333	-147.27427	184.70309	344.18241	249.79669	130.1872	132.62821	-129.37353	0
411	25.22377	-142.39225	-169.24336	56.9569	96.82673	-156.22464	175.75272	296.17588	259.56073	189.58511	187.95777	-94.38572	0
412	43.93818	-145.64693	-192.02612	49.63387	117.98215	-169.24336	157.85198	217.24989	258.74706	251.42403	247.35568	-56.14323	0
413	72.41663	-153.78363	-227.8276	39.05616	150.52895	-190.39878	134.25555	118.79582	248.16935	318.14497	313.26295	-15.45973	0
414	113.9138	-165.17501	-280.71615	24.4101	197.72181	-222.94558	106.59077	16.2734	231.08228	397.07096	388.93426	28.47845	0
415	171.68437	-175.75272	-348.25076	0.81367	260.3744	-262.00174	77.29865	-76.48498	210.74053	493.08402	480.87897	82.99434	0
416	242.47366	-179.0074	-422.29473	-32.5468	332.79103	-301.0579	49.63387	-154.5973	196.09447	611.87984	593.9791	151.34262	0
417	323.84066	-170.05703	-494.71136	-77.29865	409.27601	-332.79103	22.78276	-209.11319	200.97649	759.15411	734.74401	240.84632	0
418	419.85372	-144.01959	-564.68698	-138.3239	492.27035	-353.94645	-11.39138	-236.77797	238.40531	942.22986	910.49673	358.0148	0
419	533.76752	-100.89508	-635.47627	-217.24989	584.21506	-365.33783	-64.27993	-242.47366	292.10753	1154.59773	1120.42359	505.28907	0
420	659.0727	-43.12451	-703.82455	-308.38093	681.04179	-370.21985	-140.76491	-244.101	338.48672	1353.13321	1344.99651	671.27775	0
421	781.1232	18.71441	-762.40879	-400.32564	764.03613	-369.40618	-243.28733	-267.69743	368.59251	1488.20243	1549.22768	833.19808	0
422	882.01828	77.29865	-804.71963	-480.87897	819.36569	-361.26948	-376.72921	-336.85938	354.76012	1557.36438	1689.99259	961.75794	0
423	946.29821	131.00087	-815.29734	-539.46321	848.65781	-340.92773	-537.0222	-469.48759	261.18807	1541.90465	1736.37178	1038.24292	0
424	958.50326	184.70309	-772.9865	-572.82368	838.89377	-292.9212	-711.96125	-676.15977	79.73966	1414.97213	1685.92424	1061.02568	0
425	906.42838	247.35568	-658.25903	-577.7057	764.8498	-205.04484	-889.34131	-954.43491	-174.12538	1192.84022	1557.36438	1040.68393	0
426	787.63256	319.77231	-467.04658	-554.92294	618.3892	-73.2303	-1056.95733	-1274.20722	-469.48759	904.80104	1371.03395	984.5407	0
427	619.20287	396.25729	-222.94558	-508.54375	417.41271	86.24902	-1192.84022	-1585.84283	-775.42751	577.7057	1141.57901	890.96865	0
428	428.80409	460.53722	34.98781	-446.70483	196.90814	248.98302	-1279.08924	-1839.70787	-1064.28036	235.15063	885.27296	764.03613	0
429	239.21898	502.03439	273.39312	-377.54288	-15.45973	393.00261	-1307.56769	-2008.95123	-1312.44971	-94.38572	621.64388	614.32085	0
430	65.0936	524.00348	472.74227	-302.68524	-202.60383	505.28907	-1281.53025	-2083.80887	-1496.33913	-383.23857	365.33783	446.70483	0
431	-77.29865	531.32651	618.3892	-232.70962	-346.62342	579.33304	-1209.92729	-2064.28079	-1597.23421	-600.48846	132.62821	270.13844	0
432	-175.75272	531.32651	709.52024	-179.0074	-441.82281	621.64388	-1113.10056	-1960.9447	-1605.37091	-723.35263	-51.26121	109.84545	0
433	-231.08228	528.8855	759.96778	-147.27427	-494.71136	644.42664	-1001.62777	-1793.32868	-1524.81758	-768.10448	-171.68437	-12.20505	0
434	-253.05137	527.25816	781.1232	-134.25555	-516.68045	654.19068	-882.01828	-1586.6565	-1379.17065	-758.34044	-231.08228	-93.57205	0
435	-254.67871	520.7488	776.24118	-131.00087	-515.05311	649.30866	-761.59512	-1369.40661	-1205.85894	-709.52024	-246.54201	-139.95124	0
436	-245.72834	502.03439	747.76273	-126.93252	-497.15237	625.71223	-648.49499	-1166.80278	-1035.80191	-645.24031	-235.9643	-162.734	0
437	-232.70962	468.67392	701.38354	-117.16848	-467.04658	585.8424	-544.34523	-987.79538	-885.27296	-579.33304	-213.99521	-173.31171	0
438	-219.6909	419.85372	639.54462	-100.08141	-430.43143	530.51284	-448.33217	-832.38441	-755.89943	-518.30779	-190.39878	-180.63474	0
439	-208.29952	358.82847	566.31432	-75.67131	-388.12059	462.16456	-359.64214	-694.06051	-643.61297	-462.97823	-168.42969	-185.51676	0
440	-197.72181	289.66652	486.57466	-46.37919	-342.55507	388.12059	-280.71615	-572.01001	-548.41358	-414.9717	-149.71528	-188.77144	0
441	-187.1441	221.31824	408.46234	-17.90074	-297.80322	314.89029	-215.62255	-470.30126	-472.74227	-375.91554	-134.25555	-190.39878	0
442	-174.93905	163.54767	339.30039	4.06835	-257.11972	251.42403	-166.80235	-391.37527	-417.41271	-347.43709	-121.23683	-190.39878	0
443	-164.36134	121.23683	285.59817	19.52808	-224.57292	204.23117	-132.62821	-331.97736	-377.54288	-326.28167	-110.65912	-187.1441	0
444	-154.5973	94.38572	248.16935	26.85111	-200.97649	170.8707	-109.03178	-288.03918	-346.62342	-307.56726	-99.26774	-182.26208	0
445	-142.39225	76.48498	218.06356	30.10579	-179.82107	147.27427	-90.31737	-250.61036	-318.14497	-286.41184	-85.43535	-173.31171	0
446	-126.93252	63.46626	190.39878	30.10579	-158.66565	126.93252	-74.04397	-213.99521	-287.22551	-263.62908	-69.16195	-163.54767	0
447	-112.28646	51.26121	163.54767	29.29212	-138.3239	107.40444	-57.77057	-177.38006	-253.86504	-238.40531	-52.07488	-152.15629	0
448	-99.26774	41.49717	139.95124	28.47845	-120.42316	91.13104	-41.49717	-140.76491	-220.50457	-211.5542	-33.36047	-140.76491	0
449	-90.31737	34.98781	125.30518	27.66478	-109.03178	79.73966	-26.85111	-109.84545	-188.77144	-187.1441	-17.90074	-131.81454	0
450	-86.24902	31.73313	118.79582	27.66478	-104.14976	74.85764	-14.64606	-86.24902	-163.54767	-169.24336	-6.50936	-125.30518	0
451	-86.24902	30.91946	117.16848	26.85111	-103.33609	74.04397	-4.88202	-70.78929	-148.08794	-157.03831	-0.81367	-121.23683	0
452	-87.87636	32.5468	119.60949	26.03744	-104.96343	77.29865	0.81367	-61.83892	-139.13757	-151.34262	1.62734	-117.98215	0
453	-89.5037	34.98781	123.67784	25.22377	-107.40444	81.367	5.69569	-57.77057	-133.44188	-148.08794	3.25468	-116.35481	0
454	-91.13104	36.61515	126.93252	24.4101	-109.84545	83.80801	8.1367	-54.51589	-130.1872	-146.4606	4.88202	-113.9138	0
455	-91.13104	37.42882	128.55986	24.4101	-109.84545	84.62168	11.39138	-50.44754	-126.11885	-144.83326	6.50936	-110.65912	0
456	-90.31737	36.61515	126.93252	24.4101	-109.03178	82.99434	13.83239	-45.56552	-120.42316	-142.39225	8.1367	-108.21811	0
457	-87.87636	36.61515	124.49151	25.22377	-106.59077	81.367	15.45973	-40.6835	-114.72747	-139.13757	9.76404	-105.7771	0
458	-85.43535	35.80148	122.0505	25.22377	-104.14976	78.92599	16.2734	-35.80148	-109.03178	-136.69656	11.39138	-104.14976	0
459	-84.62168	34.98781	119.60949	25.22377	-103.33609	77.29865	16.2734	-33.36047	-104.96343	-135.06922	12.20505	-103.33609	0
460	-83.80801	33.36047	118.79582	26.03744	-102.52242	75.67131	16.2734	-31.73313	-101.70875	-135.06922	10.57771	-104.14976	0
461	-84.62168	31.73313	117.98215	26.85111	-102.52242	74.85764	16.2734	-30.10579	-100.08141	-135.88289	8.95037	-105.7771	0
462	-86.24902	30.10579	117.98215	27.66478	-102.52242	74.04397	17.08707	-28.47845	-100.08141	-137.51023	8.1367	-106.59077	0
463	-89.5037	29.29212	119.60949	29.29212	-104.14976	74.04397	17.90074	-26.03744	-99.26774	-137.51023	7.32303	-106.59077	0
464	-91.13104	28.47845	120.42316	30.10579	-105.7771	74.85764	19.52808	-23.59643	-98.45407	-136.69656	7.32303	-105.7771	0
465	-91.13104	28.47845	121.23683	30.10579	-106.59077	74.85764	21.96909	-19.52808	-96.01306	-134.25555	8.95037	-105.7771	0
466	-91.13104	27.66478	121.23683	30.10579	-106.59077	74.04397	24.4101	-13.83239	-92.75838	-130.1872	10.57771	-104.96343	0
467	-90.31737	26.85111	118.79582	30.10579	-105.7771	72.41663	26.03744	-8.1367	-88.69003	-126.93252	12.20505	-104.96343	0
468	-89.5037	26.03744	115.54114	30.10579	-103.33609	69.97562	26.03744	-3.25468	-83.80801	-123.67784	13.01872	-106.59077	0
469	-87.87636	25.22377	112.28646	29.29212	-101.70875	68.34828	26.03744	0	-79.73966	-121.23683	12.20505	-109.03178	0
470	-87.06269	24.4101	110.65912	30.10579	-100.08141	66.72094	25.22377	1.62734	-76.48498	-121.23683	9.76404	-111.47279	0
471	-86.24902	23.59643	109.03178	30.10579	-98.45407	65.90727	24.4101	3.25468	-74.85764	-121.23683	7.32303	-113.9138	0
472	-85.43535	23.59643	108.21811	29.29212	-96.82673	65.90727	25.22377	4.88202	-74.04397	-122.0505	7.32303	-114.72747	0
473	-85.43535	23.59643	108.21811	29.29212	-96.82673	65.90727	27.66478	7.32303	-73.2303	-122.86417	8.1367	-116.35481	0
474	-86.24902	24.4101	109.03178	30.10579	-97.6404	66.72094	30.10579	10.57771	-74.04397	-122.0505	8.95037	-117.98215	0
475	-87.06269	23.59643	109.03178	30.91946	-97.6404	67.53461	33.36047	15.45973	-73.2303	-120.42316	9.76404	-120.42316	0
476	-86.24902	21.96909	108.21811	31.73313	-97.6404	65.90727	36.61515	22.78276	-70.78929	-117.16848	11.39138	-122.0505	0
477	-85.43535	18.71441	104.14976	32.5468	-95.19939	61.83892	39.05616	31.73313	-66.72094	-112.28646	14.64606	-122.0505	0
478	-82.99434	15.45973	98.45407	33.36047	-91.13104	56.9569	40.6835	39.86983	-64.27993	-107.40444	17.90074	-121.23683	0
479	-80.55333	11.39138	91.94471	33.36047	-87.06269	52.07488	40.6835	45.56552	-62.65259	-104.14976	21.15542	-120.42316	0
480	-78.11232	9.76404	87.87636	33.36047	-83.80801	49.63387	39.86983	49.63387	-61.83892	-101.70875	21.96909	-120.42316	0
481	-76.48498	8.95037	86.24902	32.5468	-82.18067	48.00653	39.05616	52.88855	-61.83892	-100.08141	21.15542	-122.86417	0
482	-76.48498	9.76404	87.06269	31.73313	-82.18067	48.8202	39.05616	55.32956	-63.46626	-99.26774	19.52808	-126.93252	0
483	-78.11232	12.20505	90.31737	31.73313	-84.62168	51.26121	39.86983	59.39791	-64.27993	-99.26774	17.90074	-133.44188	0
484	-78.92599	14.64606	94.38572	30.91946	-87.06269	54.51589	42.31084	64.27993	-63.46626	-97.6404	16.2734	-140.76491	0
485	-79.73966	17.90074	97.6404	29.29212	-88.69003	57.77057	43.93818	70.78929	-61.02525	-95.19939	14.64606	-148.08794	0
486	-78.92599	19.52808	98.45407	28.47845	-88.69003	59.39791	46.37919	78.11232	-55.32956	-92.75838	13.83239	-152.96996	0
487	-77.29865	20.34175	96.82673	27.66478	-87.06269	58.58424	48.8202	86.24902	-48.00653	-88.69003	13.83239	-157.03831	0
488	-75.67131	17.90074	93.57205	27.66478	-84.62168	55.32956	51.26121	94.38572	-39.05616	-85.43535	14.64606	-161.10666	0
489	-74.04397	13.83239	87.06269	30.10579	-81.367	49.63387	54.51589	101.70875	-30.91946	-82.99434	14.64606	-166.80235	0
490	-73.2303	10.57771	81.367	31.73313	-77.29865	43.93818	56.9569	106.59077	-22.78276	-81.367	14.64606	-172.49804	0
491	-72.41663	8.1367	77.29865	32.5468	-74.85764	40.6835	57.77057	111.47279	-16.2734	-78.92599	14.64606	-178.19373	0
492	-73.2303	6.50936	76.48498	33.36047	-74.04397	39.05616	58.58424	116.35481	-9.76404	-76.48498	15.45973	-183.88942	0
493	-74.04397	6.50936	77.29865	33.36047	-74.85764	39.86983	58.58424	122.0505	-1.62734	-74.85764	16.2734	-188.77144	0
494	-74.85764	5.69569	78.11232	33.36047	-76.48498	40.6835	59.39791	129.37353	6.50936	-72.41663	16.2734	-193.65346	0
495	-74.85764	5.69569	79.73966	33.36047	-77.29865	41.49717	60.21158	137.51023	16.2734	-69.16195	15.45973	-198.53548	0
496	-74.85764	4.88202	79.73966	33.36047	-77.29865	42.31084	61.02525	146.4606	27.66478	-65.90727	13.83239	-202.60383	0
497	-72.41663	4.88202	78.11232	32.5468	-75.67131	41.49717	61.02525	155.41097	39.05616	-61.83892	13.01872	-205.85851	0
498	-69.97562	4.06835	73.2303	30.91946	-71.60296	39.05616	61.02525	163.54767	49.63387	-57.77057	13.01872	-207.48585	0
499	-67.53461	1.62734	67.53461	30.91946	-66.72094	34.17414	60.21158	170.8707	60.21158	-53.70222	13.01872	-208.29952	0
500	-65.90727	-1.62734	61.83892	31.73313	-63.46626	29.29212	61.83892	179.82107	71.60296	-49.63387	13.83239	-207.48585	0
501	-66.72094	-5.69569	58.58424	32.5468	-61.83892	26.03744	65.0936	189.58511	81.367	-44.75185	14.64606	-205.04484	0
502	-65.90727	-10.57771	54.51589	34.98781	-59.39791	21.15542	69.16195	200.16282	90.31737	-41.49717	16.2734	-203.4175	0
503	-62.65259	-15.45973	46.37919	37.42882	-53.70222	15.45973	73.2303	209.92686	96.82673	-39.86983	17.08707	-202.60383	0
504	-56.9569	-19.52808	37.42882	38.24249	-47.19286	8.95037	75.67131	219.6909	104.96343	-37.42882	19.52808	-200.97649	0
505	-52.88855	-23.59643	30.10579	37.42882	-42.31084	3.25468	78.92599	232.70962	115.54114	-32.5468	22.78276	-196.90814	0
506	-48.8202	-26.03744	23.59643	36.61515	-37.42882	-0.81367	81.367	246.54201	128.55986	-25.22377	27.66478	-191.21245	0
507	-45.56552	-27.66478	18.71441	35.80148	-32.5468	-4.06835	83.80801	262.00174	143.20592	-17.90074	30.91946	-186.33043	0
508	-43.12451	-29.29212	13.83239	34.98781	-29.29212	-7.32303	85.43535	276.6478	158.66565	-12.20505	32.5468	-181.44841	0
509	-40.6835	-30.91946	8.95037	34.98781	-25.22377	-10.57771	87.06269	290.48019	173.31171	-8.95037	31.73313	-178.19373	0
510	-37.42882	-34.17414	2.44101	35.80148	-21.15542	-15.45973	87.87636	302.68524	186.33043	-6.50936	29.29212	-176.56639	0
511	-34.98781	-38.24249	-3.25468	36.61515	-16.2734	-20.34175	88.69003	314.89029	199.34915	-3.25468	26.03744	-176.56639	0
512	-33.36047	-42.31084	-9.76404	37.42882	-11.39138	-26.03744	91.94471	327.90901	212.36787	-0.81367	22.78276	-176.56639	0
513	-30.10579	-47.19286	-17.08707	38.24249	-5.69569	-31.73313	95.19939	341.7414	225.38659	1.62734	21.96909	-175.75272	0
514	-26.85111	-52.88855	-26.03744	38.24249	0	-39.05616	99.26774	357.20113	240.03265	7.32303	21.15542	-174.12538	0
515	-22.78276	-58.58424	-34.98781	39.05616	5.69569	-46.37919	103.33609	374.2882	255.49238	13.83239	21.96909	-171.68437	0
516	-17.90074	-62.65259	-44.75185	38.24249	13.01872	-53.70222	108.21811	393.00261	272.57945	21.96909	23.59643	-167.61602	0
517	-11.39138	-66.72094	-54.51589	37.42882	21.15542	-60.21158	112.28646	413.34436	290.48019	30.10579	26.03744	-161.92033	0
518	-6.50936	-69.97562	-63.46626	36.61515	27.66478	-66.72094	115.54114	432.87244	308.38093	38.24249	27.66478	-156.22464	0
519	-2.44101	-72.41663	-70.78929	36.61515	33.36047	-72.41663	117.98215	450.77318	326.28167	45.56552	29.29212	-151.34262	0
520	0.81367	-75.67131	-78.11232	35.80148	39.05616	-77.29865	120.42316	468.67392	344.99608	53.70222	30.10579	-146.4606	0
521	4.88202	-79.73966	-85.43535	36.61515	44.75185	-82.99434	123.67784	486.57466	362.89682	62.65259	31.73313	-141.57858	0
522	7.32303	-85.43535	-93.57205	37.42882	51.26121	-89.5037	127.74619	504.4754	379.98389	69.97562	32.5468	-139.13757	0
523	9.76404	-91.94471	-102.52242	39.05616	56.14323	-96.82673	132.62821	523.18981	396.25729	77.29865	33.36047	-136.69656	0
524	13.01872	-98.45407	-112.28646	41.49717	62.65259	-104.96343	138.3239	542.71789	414.15803	86.24902	33.36047	-135.88289	0
525	17.90074	-105.7771	-124.49151	42.31084	70.78929	-114.72747	144.83326	564.68698	432.05877	95.19939	34.17414	-135.88289	0
526	24.4101	-114.72747	-139.95124	43.12451	82.18067	-127.74619	152.15629	587.46974	449.95951	104.96343	34.98781	-136.69656	0
527	33.36047	-122.86417	-157.03831	43.12451	95.19939	-139.95124	158.66565	610.2525	467.86025	115.54114	36.61515	-135.88289	0
528	41.49717	-129.37353	-171.68437	42.31084	106.59077	-150.52895	163.54767	630.59425	484.94732	126.11885	38.24249	-135.88289	0
529	48.8202	-134.25555	-184.70309	41.49717	116.35481	-159.47932	166.80235	647.68132	502.03439	135.88289	39.05616	-135.88289	0
530	55.32956	-139.95124	-196.90814	41.49717	126.11885	-169.24336	168.42969	663.95472	517.49412	143.20592	38.24249	-136.69656	0
531	61.83892	-146.4606	-209.11319	41.49717	135.06922	-178.19373	170.05703	680.22812	532.14018	149.71528	36.61515	-137.51023	0
532	66.72094	-152.96996	-221.31824	41.49717	144.01959	-187.1441	171.68437	695.68785	545.97257	155.41097	36.61515	-137.51023	0
533	71.60296	-160.29299	-232.70962	43.12451	152.15629	-196.90814	174.12538	712.77492	560.61863	162.734	39.05616	-135.06922	0
534	76.48498	-167.61602	-245.72834	44.75185	161.10666	-206.67218	177.38006	729.86199	576.07836	172.49804	43.93818	-132.62821	0
535	82.18067	-175.75272	-258.74706	45.56552	170.8707	-217.24989	182.26208	748.5764	591.53809	183.88942	48.00653	-131.00087	0
536	88.69003	-183.07575	-272.57945	46.37919	180.63474	-227.8276	187.95777	767.29081	607.81149	195.2808	52.07488	-131.00087	0
537	95.19939	-191.21245	-286.41184	46.37919	191.21245	-239.21898	192.02612	784.37788	623.27122	205.04484	54.51589	-132.62821	0
538	102.52242	-197.72181	-301.0579	46.37919	201.79016	-249.79669	195.2808	799.83761	637.10361	213.18154	55.32956	-135.06922	0
539	109.03178	-204.23117	-313.26295	45.56552	210.74053	-258.74706	196.09447	812.85633	648.49499	219.6909	56.14323	-137.51023	0
540	113.9138	-209.11319	-323.84066	45.56552	218.87723	-266.88376	196.90814	823.43404	659.0727	225.38659	56.14323	-139.95124	0
541	117.98215	-214.80888	-333.6047	46.37919	225.38659	-274.20679	196.90814	833.19808	668.83674	231.89595	57.77057	-141.57858	0
542	121.23683	-220.50457	-342.55507	47.19286	231.89595	-281.52982	197.72181	842.96212	678.60078	239.21898	61.02525	-142.39225	0
543	125.30518	-224.57292	-350.69177	48.00653	238.40531	-288.03918	198.53548	852.72616	687.55115	245.72834	65.0936	-143.20592	0
544	129.37353	-230.26861	-361.26948	48.00653	245.72834	-295.36221	200.16282	862.4902	696.50152	254.67871	71.60296	-143.20592	0
545	134.25555	-235.9643	-371.84719	48.8202	253.05137	-303.49891	200.97649	870.6269	705.45189	264.44275	78.11232	-144.01959	0
546	138.3239	-242.47366	-381.61123	50.44754	260.3744	-311.63561	202.60383	877.94993	715.21593	274.20679	83.80801	-146.4606	0
547	141.57858	-248.98302	-392.18894	50.44754	266.88376	-320.58598	203.4175	882.83195	722.53896	282.34349	88.69003	-149.71528	0
548	147.27427	-254.67871	-402.76665	49.63387	275.02046	-328.72268	201.79016	883.64562	728.23465	289.66652	91.13104	-152.96996	0
549	152.96996	-257.93339	-411.71702	48.8202	282.34349	-335.23204	200.16282	881.20461	731.48933	293.73487	91.94471	-156.22464	0
550	157.85198	-259.56073	-418.22638	48.00653	287.22551	-339.30039	197.72181	875.50892	733.11667	295.36221	91.13104	-158.66565	0
551	160.29299	-260.3744	-420.66739	48.00653	290.48019	-341.7414	194.46713	867.37222	730.67566	295.36221	89.5037	-161.92033	0
552	160.29299	-259.56073	-420.66739	47.19286	291.29386	-341.7414	191.21245	855.16717	725.79364	293.73487	87.87636	-166.80235	0
553	159.47932	-258.74706	-418.22638	47.19286	288.85285	-340.11406	189.58511	842.14845	718.47061	292.10753	87.06269	-172.49804	0
554	157.03831	-257.11972	-414.9717	47.19286	286.41184	-336.85938	187.95777	826.68872	709.52024	291.29386	86.24902	-177.38006	0
555	155.41097	-254.67871	-410.90335	47.19286	283.15716	-332.79103	187.1441	810.41532	699.7562	290.48019	87.06269	-180.63474	0
556	154.5973	-251.42403	-406.02133	46.37919	280.71615	-328.72268	184.70309	792.51458	689.17849	288.85285	87.06269	-183.07575	0
557	153.78363	-246.54201	-401.13931	45.56552	277.46147	-323.84066	181.44841	771.35916	676.97344	287.22551	87.06269	-185.51676	0
558	152.96996	-240.84632	-394.62995	43.12451	273.39312	-317.3313	176.56639	748.5764	663.14105	283.97083	87.06269	-187.1441	0
559	152.96996	-233.52329	-387.30692	39.86983	269.32477	-310.00827	169.24336	721.72529	647.68132	279.90248	87.06269	-187.1441	0
560	152.15629	-227.01393	-379.17022	36.61515	265.25642	-303.49891	161.92033	694.06051	630.59425	275.02046	87.87636	-186.33043	0
561	148.90161	-221.31824	-371.03352	34.98781	259.56073	-296.17588	153.78363	664.76839	612.69351	269.32477	87.87636	-183.88942	0
562	143.20592	-215.62255	-359.64214	34.98781	251.42403	-287.22551	145.64693	634.6626	593.16543	262.00174	87.06269	-182.26208	0
563	135.06922	-209.92686	-344.99608	35.80148	240.03265	-277.46147	139.13757	604.55681	572.82368	253.86504	85.43535	-183.07575	0
564	126.11885	-203.4175	-330.35002	37.42882	228.64127	-266.88376	133.44188	574.45102	550.85459	244.101	82.99434	-184.70309	0
565	118.79582	-197.72181	-317.3313	38.24249	218.06356	-257.11972	128.55986	545.1589	527.25816	234.33696	79.73966	-188.77144	0
566	113.10013	-191.21245	-305.93992	38.24249	209.92686	-248.16935	123.67784	517.49412	504.4754	225.38659	76.48498	-192.83979	0
567	108.21811	-184.70309	-293.73487	37.42882	200.97649	-239.21898	118.79582	489.01567	480.87897	216.43622	74.04397	-194.46713	0
568	102.52242	-177.38006	-280.71615	35.80148	191.21245	-228.64127	112.28646	460.53722	456.46887	205.85851	71.60296	-195.2808	0
569	97.6404	-167.61602	-266.07009	34.17414	181.44841	-216.43622	104.96343	430.43143	430.43143	192.83979	67.53461	-196.09447	0
570	92.75838	-156.22464	-249.79669	30.91946	170.8707	-202.60383	96.01306	399.51197	404.39399	179.82107	61.83892	-196.09447	0
571	87.87636	-144.01959	-232.70962	27.66478	159.47932	-188.77144	88.69003	368.59251	378.35655	165.98868	56.14323	-196.09447	0
572	82.18067	-133.44188	-216.43622	24.4101	148.90161	-174.93905	81.367	338.48672	350.69177	151.34262	49.63387	-196.09447	0
573	74.85764	-124.49151	-200.16282	23.59643	137.51023	-161.92033	76.48498	310.82194	323.84066	137.51023	44.75185	-195.2808	0
574	67.53461	-117.16848	-185.51676	23.59643	126.93252	-151.34262	71.60296	283.97083	297.80322	124.49151	40.6835	-193.65346	0
575	59.39791	-111.47279	-171.68437	24.4101	115.54114	-141.57858	67.53461	258.74706	274.20679	113.9138	39.05616	-191.21245	0
576	52.88855	-105.7771	-159.47932	25.22377	105.7771	-132.62821	63.46626	235.9643	252.2377	104.14976	37.42882	-187.95777	0
577	47.19286	-100.89508	-148.90161	25.22377	97.6404	-124.49151	58.58424	215.62255	230.26861	94.38572	35.80148	-184.70309	0
578	43.93818	-93.57205	-138.3239	23.59643	90.31737	-115.54114	53.70222	196.09447	209.92686	85.43535	32.5468	-181.44841	0
579	41.49717	-84.62168	-126.93252	20.34175	83.80801	-106.59077	48.8202	177.38006	190.39878	76.48498	30.10579	-179.0074	0
580	39.05616	-75.67131	-115.54114	17.08707	77.29865	-96.01306	43.93818	158.66565	171.68437	68.34828	26.03744	-178.19373	0
581	34.98781	-66.72094	-103.33609	14.64606	68.34828	-85.43535	39.05616	139.13757	151.34262	58.58424	21.15542	-178.19373	0
582	29.29212	-57.77057	-87.87636	13.01872	58.58424	-73.2303	34.98781	119.60949	130.1872	47.19286	15.45973	-178.19373	0
583	22.78276	-49.63387	-74.04397	13.01872	48.00653	-61.83892	30.91946	100.89508	109.03178	36.61515	11.39138	-179.0074	0
584	17.08707	-43.12451	-61.02525	13.01872	39.05616	-52.07488	29.29212	85.43535	90.31737	27.66478	8.1367	-179.0074	0
585	11.39138	-38.24249	-51.26121	13.01872	31.73313	-44.75185	27.66478	71.60296	73.2303	19.52808	7.32303	-178.19373	0
586	8.1367	-33.36047	-42.31084	12.20505	25.22377	-37.42882	26.85111	60.21158	58.58424	13.01872	7.32303	-178.19373	0
587	6.50936	-28.47845	-34.98781	10.57771	20.34175	-31.73313	24.4101	51.26121	46.37919	8.95037	6.50936	-177.38006	0
588	7.32303	-22.78276	-30.10579	7.32303	17.90074	-26.03744	21.96909	43.12451	34.17414	5.69569	6.50936	-178.19373	0
589	8.1367	-18.71441	-26.85111	4.88202	16.2734	-22.78276	18.71441	34.17414	22.78276	1.62734	4.88202	-179.0074	0
590	8.1367	-14.64606	-23.59643	2.44101	15.45973	-19.52808	15.45973	25.22377	11.39138	-2.44101	2.44101	-180.63474	0
591	8.1367	-11.39138	-19.52808	1.62734	13.01872	-15.45973	12.20505	15.45973	0	-7.32303	-0.81367	-182.26208	0
592	5.69569	-8.1367	-14.64606	0.81367	9.76404	-11.39138	10.57771	6.50936	-10.57771	-13.01872	-4.06835	-182.26208	0
593	2.44101	-5.69569	-8.95037	0.81367	5.69569	-7.32303	8.1367	-1.62734	-21.96909	-19.52808	-5.69569	-181.44841	0
594	0	-2.44101	-2.44101	0	0.81367	-2.44101	6.50936	-9.76404	-33.36047	-24.4101	-6.50936	-179.0074	0
595	-3.25468	0	4.06835	0	-3.25468	1.62734	4.88202	-17.08707	-43.93818	-27.66478	-5.69569	-176.56639	0
596	-5.69569	5.69569	11.39138	0	-8.95037	8.1367	4.06835	-22.78276	-52.07488	-30.10579	-5.69569	-174.12538	0
597	-7.32303	9.76404	17.08707	0	-13.01872	13.83239	3.25468	-26.03744	-59.39791	-31.73313	-6.50936	-173.31171	0
598	-8.95037	13.01872	21.96909	-0.81367	-15.45973	17.08707	3.25468	-28.47845	-65.90727	-34.17414	-8.1367	-174.93905	0
599	-10.57771	14.64606	25.22377	-0.81367	-18.71441	20.34175	3.25468	-30.91946	-73.2303	-38.24249	-10.57771	-176.56639	0
600	-13.83239	15.45973	29.29212	-1.62734	-22.78276	22.78276	2.44101	-34.17414	-82.18067	-41.49717	-13.83239	-179.0074	0
601	-16.2734	16.2734	33.36047	-0.81367	-26.03744	25.22377	0	-38.24249	-91.94471	-45.56552	-16.2734	-180.63474	0
602	-17.90074	16.2734	36.61515	0	-29.29212	26.85111	-0.81367	-43.12451	-103.33609	-48.00653	-19.52808	-179.82107	0
603	-19.52808	17.08707	39.05616	0	-30.91946	27.66478	-1.62734	-47.19286	-112.28646	-48.8202	-21.15542	-176.56639	0
604	-21.15542	17.90074	40.6835	0.81367	-32.5468	28.47845	-1.62734	-49.63387	-120.42316	-48.00653	-21.96909	-173.31171	0
605	-23.59643	18.71441	41.49717	1.62734	-33.36047	30.10579	-0.81367	-51.26121	-127.74619	-49.63387	-22.78276	-170.8707	0
606	-25.22377	19.52808	42.31084	2.44101	-34.17414	30.91946	0	-51.26121	-134.25555	-52.88855	-23.59643	-170.05703	0
607	-25.22377	19.52808	43.12451	3.25468	-34.98781	30.91946	1.62734	-49.63387	-140.76491	-55.32956	-24.4101	-171.68437	0
608	-24.4101	20.34175	44.75185	3.25468	-35.80148	32.5468	1.62734	-48.00653	-144.83326	-56.9569	-25.22377	-174.93905	0
609	-23.59643	21.15542	44.75185	2.44101	-35.80148	33.36047	0	-48.00653	-147.27427	-57.77057	-26.85111	-179.0074	0
610	-21.96909	21.96909	44.75185	0	-34.98781	34.17414	-0.81367	-49.63387	-149.71528	-57.77057	-28.47845	-183.88942	0
611	-21.96909	22.78276	44.75185	0	-34.98781	34.98781	-3.25468	-52.88855	-152.15629	-58.58424	-30.10579	-187.95777	0
612	-23.59643	22.78276	46.37919	0	-35.80148	34.98781	-5.69569	-56.14323	-155.41097	-59.39791	-31.73313	-190.39878	0
613	-25.22377	22.78276	48.00653	0	-36.61515	35.80148	-6.50936	-59.39791	-158.66565	-61.02525	-33.36047	-192.02612	0
614	-27.66478	22.78276	49.63387	1.62734	-39.05616	35.80148	-6.50936	-61.02525	-161.10666	-62.65259	-34.98781	-192.02612	0
615	-30.91946	21.96909	52.07488	3.25468	-41.49717	37.42882	-6.50936	-61.02525	-162.734	-64.27993	-34.98781	-192.83979	0
616	-33.36047	22.78276	55.32956	4.06835	-43.93818	39.05616	-5.69569	-60.21158	-163.54767	-64.27993	-35.80148	-195.2808	0
617	-35.80148	23.59643	59.39791	4.88202	-47.19286	41.49717	-4.88202	-60.21158	-164.36134	-65.0936	-36.61515	-199.34915	0
618	-37.42882	25.22377	62.65259	4.88202	-50.44754	43.93818	-4.88202	-60.21158	-165.98868	-65.90727	-39.05616	-205.04484	0
619	-39.05616	26.03744	65.0936	4.88202	-52.88855	45.56552	-4.88202	-60.21158	-165.98868	-66.72094	-42.31084	-209.92686	0
620	-39.86983	26.03744	65.90727	5.69569	-53.70222	45.56552	-4.88202	-61.02525	-165.98868	-66.72094	-43.93818	-212.36787	0
621	-40.6835	25.22377	65.90727	6.50936	-54.51589	44.75185	-4.88202	-62.65259	-165.98868	-67.53461	-44.75185	-214.80888	0
622	-41.49717	24.4101	66.72094	7.32303	-54.51589	44.75185	-4.88202	-64.27993	-166.80235	-69.16195	-44.75185	-215.62255	0
623	-43.12451	23.59643	66.72094	8.95037	-55.32956	43.93818	-4.06835	-66.72094	-166.80235	-71.60296	-45.56552	-217.24989	0
624	-45.56552	22.78276	67.53461	9.76404	-56.9569	44.75185	-3.25468	-67.53461	-166.80235	-73.2303	-46.37919	-219.6909	0
625	-47.19286	22.78276	69.16195	11.39138	-57.77057	44.75185	-2.44101	-67.53461	-165.17501	-74.04397	-48.00653	-222.94558	0
626	-48.00653	22.78276	69.97562	12.20505	-59.39791	45.56552	-1.62734	-67.53461	-164.36134	-74.85764	-51.26121	-226.20026	0
627	-48.8202	22.78276	70.78929	12.20505	-60.21158	46.37919	-1.62734	-67.53461	-164.36134	-75.67131	-54.51589	-229.45494	0
628	-49.63387	21.96909	70.78929	13.01872	-61.02525	46.37919	-2.44101	-68.34828	-163.54767	-77.29865	-56.9569	-231.89595	0
629	-50.44754	21.15542	69.97562	13.83239	-61.02525	44.75185	-2.44101	-68.34828	-163.54767	-78.92599	-59.39791	-234.33696	0
630	-51.26121	19.52808	69.97562	13.83239	-61.02525	43.93818	-3.25468	-69.16195	-162.734	-79.73966	-60.21158	-235.9643	0
631	-52.07488	17.90074	70.78929	15.45973	-61.83892	43.93818	-4.06835	-69.97562	-161.92033	-80.55333	-61.02525	-236.77797	0
632	-52.88855	16.2734	71.60296	16.2734	-61.83892	43.93818	-4.06835	-71.60296	-161.92033	-82.99434	-61.83892	-237.59164	-1250	T-0
633	-52.88855	15.45973	71.60296	17.08707	-61.83892	43.93818	-4.88202	-74.04397	-162.734	-85.43535	-62.65259	-238.40531	0
634	-53.70222	16.2734	72.41663	17.08707	-61.83892	44.75185	-5.69569	-75.67131	-163.54767	-87.06269	-62.65259	-240.84632	0
635	-54.51589	17.90074	73.2303	17.90074	-63.46626	46.37919	-5.69569	-76.48498	-162.734	-87.87636	-62.65259	-243.28733	0
636	-55.32956	18.71441	74.04397	17.08707	-64.27993	46.37919	-5.69569	-75.67131	-161.10666	-87.87636	-63.46626	-245.72834	0
637	-54.51589	19.52808	74.04397	16.2734	-64.27993	47.19286	-5.69569	-74.04397	-160.29299	-87.87636	-63.46626	-247.35568	0
638	-52.88855	20.34175	73.2303	14.64606	-63.46626	46.37919	-5.69569	-72.41663	-159.47932	-87.06269	-64.27993	-248.98302	0
639	-51.26121	20.34175	71.60296	13.83239	-61.02525	45.56552	-4.88202	-71.60296	-158.66565	-87.06269	-65.0936	-250.61036	0
640	-49.63387	20.34175	69.97562	13.83239	-60.21158	44.75185	-4.06835	-72.41663	-158.66565	-87.87636	-65.90727	-253.05137	0
641	-49.63387	18.71441	69.16195	14.64606	-60.21158	43.93818	-3.25468	-74.85764	-159.47932	-88.69003	-68.34828	-253.86504	0
642	-50.44754	17.08707	68.34828	16.2734	-60.21158	42.31084	-2.44101	-77.29865	-160.29299	-91.94471	-70.78929	-253.05137	0
643	-52.07488	14.64606	66.72094	17.90074	-60.21158	40.6835	-2.44101	-78.92599	-160.29299	-95.19939	-71.60296	-249.79669	0
644	-54.51589	11.39138	66.72094	20.34175	-60.21158	39.05616	-1.62734	-79.73966	-160.29299	-97.6404	-71.60296	-244.101	0
645	-55.32956	8.1367	65.0936	23.59643	-61.02525	36.61515	0	-80.55333	-160.29299	-98.45407	-71.60296	-240.03265	0
646	-56.14323	4.88202	61.83892	25.22377	-60.21158	33.36047	0.81367	-79.73966	-159.47932	-97.6404	-71.60296	-235.9643	0
647	-56.14323	1.62734	57.77057	26.85111	-58.58424	29.29212	2.44101	-78.92599	-157.85198	-96.82673	-70.78929	-233.52329	0
648	-56.14323	-0.81367	52.88855	26.85111	-56.14323	26.03744	2.44101	-78.11232	-156.22464	-94.38572	-69.16195	-231.08228	0
649	-54.51589	-2.44101	50.44754	26.85111	-52.88855	23.59643	2.44101	-77.29865	-154.5973	-92.75838	-67.53461	-228.64127	0
650	-52.88855	-1.62734	48.8202	26.03744	-49.63387	23.59643	1.62734	-77.29865	-152.96996	-91.13104	-65.0936	-226.20026	0
651	-50.44754	0.81367	48.8202	23.59643	-48.8202	25.22377	0.81367	-78.11232	-152.15629	-90.31737	-63.46626	-222.94558	0
652	-48.8202	4.88202	49.63387	21.15542	-48.00653	26.85111	0	-79.73966	-152.15629	-91.13104	-63.46626	-219.6909	0
653	-48.8202	6.50936	51.26121	20.34175	-49.63387	29.29212	-1.62734	-82.99434	-152.96996	-92.75838	-62.65259	-216.43622	0
654	-49.63387	7.32303	53.70222	21.15542	-51.26121	30.91946	-4.06835	-86.24902	-153.78363	-93.57205	-61.02525	-213.99521	0
655	-50.44754	7.32303	56.14323	21.15542	-52.88855	31.73313	-4.88202	-87.87636	-153.78363	-93.57205	-58.58424	-209.92686	0
656	-51.26121	7.32303	57.77057	21.15542	-54.51589	32.5468	-5.69569	-89.5037	-153.78363	-93.57205	-55.32956	-205.85851	0
657	-51.26121	8.1367	58.58424	20.34175	-54.51589	33.36047	-5.69569	-89.5037	-153.78363	-92.75838	-52.07488	-200.97649	0
658	-48.8202	8.95037	57.77057	18.71441	-53.70222	33.36047	-6.50936	-89.5037	-153.78363	-92.75838	-49.63387	-196.90814	0
659	-45.56552	10.57771	56.14323	16.2734	-51.26121	33.36047	-8.1367	-90.31737	-153.78363	-91.94471	-48.00653	-193.65346	0
660	-43.12451	12.20505	55.32956	14.64606	-49.63387	34.17414	-8.95037	-91.94471	-153.78363	-91.94471	-48.00653	-192.83979	0
661	-42.31084	15.45973	55.32956	12.20505	-48.8202	36.61515	-10.57771	-95.19939	-156.22464	-93.57205	-48.8202	-193.65346	0
662	-41.49717	17.08707	56.14323	11.39138	-48.00653	38.24249	-12.20505	-98.45407	-157.85198	-95.19939	-50.44754	-194.46713	0
663	-40.6835	17.90074	56.9569	10.57771	-48.8202	38.24249	-12.20505	-100.89508	-159.47932	-96.82673	-52.07488	-193.65346	0
664	-39.86983	18.71441	58.58424	10.57771	-48.8202	39.05616	-12.20505	-103.33609	-161.10666	-98.45407	-52.88855	-188.77144	0
665	-40.6835	17.90074	58.58424	11.39138	-49.63387	38.24249	-12.20505	-104.14976	-161.92033	-101.70875	-53.70222	-179.82107	0
666	-40.6835	15.45973	57.77057	12.20505	-49.63387	37.42882	-12.20505	-105.7771	-163.54767	-105.7771	-54.51589	-170.8707	0
667	-41.49717	13.83239	56.14323	13.01872	-48.8202	34.98781	-12.20505	-106.59077	-165.17501	-108.21811	-54.51589	-161.92033	0
668	-40.6835	12.20505	53.70222	13.01872	-47.19286	33.36047	-13.01872	-106.59077	-165.98868	-107.40444	-52.07488	-156.22464	0
669	-39.86983	11.39138	49.63387	12.20505	-43.93818	30.91946	-12.20505	-105.7771	-165.17501	-105.7771	-48.00653	-151.34262	0
670	-38.24249	10.57771	45.56552	11.39138	-41.49717	28.47845	-12.20505	-104.96343	-164.36134	-103.33609	-43.93818	-148.08794	0
671	-38.24249	8.95037	43.12451	12.20505	-39.05616	26.03744	-12.20505	-105.7771	-164.36134	-101.70875	-40.6835	-144.83326	0
672	-38.24249	6.50936	41.49717	13.01872	-39.05616	24.4101	-12.20505	-108.21811	-165.98868	-102.52242	-39.86983	-143.20592	0
673	-39.05616	4.06835	41.49717	15.45973	-39.05616	23.59643	-13.01872	-110.65912	-168.42969	-104.96343	-39.05616	-142.39225	0
674	-40.6835	3.25468	42.31084	17.08707	-40.6835	22.78276	-13.01872	-113.9138	-172.49804	-106.59077	-39.05616	-143.20592	0
675	-42.31084	2.44101	43.93818	18.71441	-42.31084	22.78276	-12.20505	-115.54114	-175.75272	-107.40444	-38.24249	-143.20592	0
676	-42.31084	3.25468	44.75185	18.71441	-43.12451	23.59643	-12.20505	-117.16848	-178.19373	-106.59077	-36.61515	-144.01959	0
677	-41.49717	4.88202	46.37919	17.08707	-43.93818	25.22377	-13.01872	-117.98215	-179.82107	-104.96343	-34.17414	-144.83326	0
678	-39.86983	7.32303	46.37919	15.45973	-43.12451	26.85111	-13.83239	-117.98215	-180.63474	-102.52242	-30.91946	-145.64693	0
679	-36.61515	9.76404	46.37919	12.20505	-41.49717	27.66478	-15.45973	-117.98215	-179.82107	-100.08141	-27.66478	-146.4606	0
680	-33.36047	13.01872	46.37919	8.95037	-40.6835	29.29212	-17.08707	-117.98215	-179.0074	-96.82673	-25.22377	-145.64693	0
681	-30.91946	15.45973	47.19286	6.50936	-39.86983	30.10579	-19.52808	-119.60949	-179.0074	-96.01306	-22.78276	-143.20592	0
682	-30.10579	16.2734	48.00653	4.88202	-39.86983	31.73313	-22.78276	-122.0505	-180.63474	-96.82673	-21.15542	-139.95124	0
683	-29.29212	17.90074	48.8202	4.06835	-39.05616	33.36047	-24.4101	-124.49151	-183.07575	-99.26774	-20.34175	-136.69656	0
684	-30.10579	19.52808	49.63387	2.44101	-39.86983	34.98781	-26.03744	-126.93252	-184.70309	-100.89508	-18.71441	-132.62821	0
685	-30.91946	21.15542	52.07488	2.44101	-41.49717	36.61515	-26.85111	-129.37353	-187.1441	-101.70875	-17.08707	-128.55986	0
686	-31.73313	23.59643	55.32956	1.62734	-43.12451	39.05616	-26.85111	-132.62821	-187.95777	-100.89508	-16.2734	-126.11885	0
687	-31.73313	26.03744	57.77057	1.62734	-45.56552	42.31084	-27.66478	-136.69656	-188.77144	-100.08141	-16.2734	-122.86417	0
688	-30.91946	29.29212	61.02525	0	-45.56552	44.75185	-27.66478	-139.13757	-187.1441	-97.6404	-14.64606	-118.79582	0
689	-28.47845	33.36047	62.65259	-1.62734	-45.56552	48.00653	-27.66478	-139.13757	-183.07575	-93.57205	-10.57771	-113.10013	0
690	-25.22377	37.42882	63.46626	-5.69569	-43.93818	50.44754	-28.47845	-138.3239	-179.0074	-89.5037	-5.69569	-105.7771	0
691	-21.15542	43.12451	65.0936	-11.39138	-43.12451	53.70222	-30.10579	-137.51023	-174.93905	-87.06269	-1.62734	-98.45407	0
692	-17.90074	50.44754	67.53461	-16.2734	-43.12451	58.58424	-31.73313	-138.3239	-171.68437	-86.24902	0	-92.75838	0
693	-16.2734	57.77057	74.04397	-21.15542	-45.56552	65.0936	-32.5468	-140.76491	-169.24336	-87.06269	0.81367	-88.69003	0
694	-17.08707	65.0936	81.367	-24.4101	-48.8202	73.2303	-33.36047	-143.20592	-168.42969	-88.69003	1.62734	-87.06269	0
695	-17.90074	71.60296	87.87636	-27.66478	-53.70222	79.73966	-33.36047	-146.4606	-166.80235	-89.5037	0.81367	-86.24902	0
696	-18.71441	74.85764	92.75838	-28.47845	-56.14323	84.62168	-33.36047	-148.08794	-165.98868	-91.13104	0	-87.06269	0
697	-19.52808	76.48498	94.38572	-29.29212	-56.9569	85.43535	-31.73313	-148.90161	-163.54767	-90.31737	0	-87.87636	0
698	-17.90074	75.67131	93.57205	-29.29212	-56.14323	84.62168	-30.10579	-147.27427	-160.29299	-87.87636	2.44101	-88.69003	0
699	-15.45973	74.85764	91.13104	-30.10579	-53.70222	82.99434	-27.66478	-143.20592	-155.41097	-82.99434	6.50936	-87.87636	0
700	-11.39138	75.67131	87.06269	-32.5468	-49.63387	81.367	-25.22377	-138.3239	-148.90161	-77.29865	11.39138	-85.43535	0
701	-6.50936	77.29865	83.80801	-35.80148	-45.56552	79.73966	-25.22377	-135.06922	-141.57858	-71.60296	16.2734	-81.367	0
702	0	79.73966	79.73966	-40.6835	-39.86983	79.73966	-27.66478	-133.44188	-135.88289	-67.53461	19.52808	-76.48498	0
703	5.69569	83.80801	76.48498	-45.56552	-34.98781	79.73966	-33.36047	-133.44188	-131.81454	-65.0936	22.78276	-69.97562	0
704	12.20505	88.69003	75.67131	-52.07488	-30.91946	82.18067	-39.86983	-133.44188	-128.55986	-63.46626	26.85111	-62.65259	0
705	19.52808	96.01306	75.67131	-58.58424	-26.85111	85.43535	-46.37919	-134.25555	-125.30518	-59.39791	32.5468	-54.51589	0
706	26.85111	102.52242	74.85764	-65.90727	-23.59643	88.69003	-52.88855	-133.44188	-122.0505	-55.32956	38.24249	-45.56552	0
707	34.17414	109.03178	73.2303	-72.41663	-18.71441	91.13104	-60.21158	-133.44188	-118.79582	-50.44754	43.93818	-37.42882	0
708	41.49717	113.9138	70.78929	-78.11232	-14.64606	92.75838	-69.16195	-132.62821	-114.72747	-45.56552	49.63387	-29.29212	0
709	47.19286	117.16848	68.34828	-82.99434	-11.39138	93.57205	-78.11232	-133.44188	-110.65912	-41.49717	53.70222	-22.78276	0
710	50.44754	119.60949	66.72094	-86.24902	-8.1367	93.57205	-86.24902	-135.06922	-107.40444	-38.24249	56.9569	-15.45973	0
711	52.88855	122.0505	67.53461	-88.69003	-7.32303	94.38572	-91.94471	-136.69656	-104.96343	-36.61515	60.21158	-8.95037	0
712	53.70222	122.86417	69.16195	-90.31737	-7.32303	94.38572	-95.19939	-138.3239	-103.33609	-36.61515	61.02525	-4.06835	0
713	53.70222	123.67784	70.78929	-91.13104	-8.1367	95.19939	-95.19939	-139.95124	-103.33609	-38.24249	61.83892	-1.62734	0
714	53.70222	122.86417	69.97562	-90.31737	-7.32303	94.38572	-94.38572	-141.57858	-105.7771	-40.6835	61.02525	-1.62734	0
715	52.07488	117.98215	65.0936	-87.06269	-5.69569	90.31737	-92.75838	-143.20592	-109.84545	-45.56552	57.77057	-4.06835	0
716	48.8202	109.03178	59.39791	-80.55333	-4.06835	83.80801	-89.5037	-144.83326	-114.72747	-52.07488	52.07488	-8.1367	0
717	44.75185	97.6404	52.07488	-71.60296	-3.25468	74.85764	-85.43535	-145.64693	-118.79582	-57.77057	45.56552	-11.39138	0
718	41.49717	83.80801	42.31084	-63.46626	0	63.46626	-81.367	-145.64693	-122.86417	-64.27993	39.86983	-14.64606	0
719	38.24249	70.78929	30.91946	-55.32956	3.25468	51.26121	-77.29865	-145.64693	-126.93252	-69.16195	34.98781	-17.90074	0
720	35.80148	56.9569	20.34175	-47.19286	7.32303	39.05616	-72.41663	-147.27427	-131.00087	-74.85764	30.91946	-21.96909	0
721	32.5468	43.93818	11.39138	-39.05616	9.76404	27.66478	-68.34828	-150.52895	-135.88289	-82.18067	25.22377	-26.03744	0
722	28.47845	34.17414	6.50936	-31.73313	11.39138	19.52808	-66.72094	-155.41097	-141.57858	-91.13104	18.71441	-31.73313	0
723	23.59643	27.66478	4.88202	-26.85111	10.57771	15.45973	-65.90727	-161.92033	-148.08794	-99.26774	11.39138	-36.61515	0
724	19.52808	26.03744	8.1367	-23.59643	6.50936	16.2734	-65.0936	-168.42969	-152.96996	-104.96343	7.32303	-40.6835	0
725	13.83239	27.66478	14.64606	-21.96909	0.81367	21.15542	-63.46626	-171.68437	-155.41097	-108.21811	4.88202	-43.93818	0
726	8.1367	30.10579	22.78276	-20.34175	-5.69569	26.85111	-61.02525	-172.49804	-155.41097	-109.84545	4.06835	-47.19286	0
727	4.88202	32.5468	28.47845	-20.34175	-10.57771	30.91946	-58.58424	-172.49804	-154.5973	-109.03178	4.06835	-52.07488	0
728	3.25468	32.5468	30.91946	-19.52808	-13.01872	32.5468	-56.9569	-171.68437	-152.96996	-108.21811	4.06835	-56.14323	0
729	2.44101	30.91946	30.91946	-17.90074	-13.01872	31.73313	-53.70222	-169.24336	-150.52895	-108.21811	4.06835	-61.02525	0
730	0	28.47845	30.10579	-15.45973	-14.64606	29.29212	-50.44754	-166.80235	-148.08794	-107.40444	3.25468	-65.0936	0
731	-3.25468	25.22377	30.10579	-11.39138	-16.2734	27.66478	-45.56552	-165.17501	-146.4606	-108.21811	2.44101	-72.41663	0
732	-8.95037	21.96909	30.91946	-7.32303	-20.34175	26.03744	-41.49717	-165.17501	-144.83326	-109.84545	0	-82.18067	0
733	-15.45973	17.90074	33.36047	-1.62734	-25.22377	25.22377	-36.61515	-165.98868	-144.83326	-112.28646	-2.44101	-92.75838	0
734	-22.78276	14.64606	37.42882	2.44101	-30.10579	25.22377	-31.73313	-166.80235	-145.64693	-116.35481	-5.69569	-103.33609	0
735	-29.29212	13.01872	41.49717	7.32303	-34.98781	26.85111	-27.66478	-167.61602	-146.4606	-120.42316	-8.95037	-110.65912	0
736	-34.17414	11.39138	45.56552	10.57771	-39.86983	27.66478	-24.4101	-168.42969	-149.71528	-123.67784	-12.20505	-115.54114	0
737	-38.24249	9.76404	48.00653	13.01872	-43.12451	28.47845	-21.96909	-169.24336	-152.15629	-125.30518	-13.83239	-117.16848	0
738	-41.49717	7.32303	48.00653	15.45973	-45.56552	28.47845	-18.71441	-168.42969	-154.5973	-126.93252	-15.45973	-117.16848	0
739	-42.31084	4.88202	46.37919	17.90074	-45.56552	26.03744	-16.2734	-166.80235	-154.5973	-127.74619	-16.2734	-113.9138	0
740	-42.31084	1.62734	43.93818	18.71441	-43.93818	23.59643	-13.83239	-165.17501	-152.96996	-127.74619	-16.2734	-110.65912	0
741	-41.49717	0	41.49717	19.52808	-42.31084	20.34175	-12.20505	-165.17501	-152.96996	-128.55986	-17.08707	-109.03178	0
742	-40.6835	-1.62734	39.86983	20.34175	-41.49717	18.71441	-12.20505	-165.98868	-154.5973	-131.00087	-18.71441	-109.03178	0
743	-40.6835	-2.44101	39.05616	21.15542	-40.6835	17.90074	-12.20505	-167.61602	-156.22464	-133.44188	-19.52808	-108.21811	0
744	-41.49717	-1.62734	39.86983	21.96909	-40.6835	18.71441	-12.20505	-168.42969	-158.66565	-135.06922	-19.52808	-105.7771	0
745	-43.12451	-0.81367	42.31084	21.96909	-42.31084	20.34175	-11.39138	-169.24336	-160.29299	-135.06922	-19.52808	-102.52242	0
746	-43.93818	0	45.56552	21.15542	-43.93818	21.96909	-10.57771	-169.24336	-161.92033	-134.25555	-19.52808	-100.89508	0
747	-44.75185	1.62734	46.37919	20.34175	-44.75185	23.59643	-8.95037	-169.24336	-162.734	-133.44188	-19.52808	-100.08141	0
748	-43.12451	2.44101	46.37919	19.52808	-44.75185	24.4101	-7.32303	-168.42969	-161.92033	-131.81454	-19.52808	-100.89508	0
749	-41.49717	2.44101	44.75185	17.90074	-43.12451	23.59643	-6.50936	-165.98868	-160.29299	-130.1872	-18.71441	-101.70875	0
750	-39.05616	2.44101	42.31084	17.08707	-41.49717	22.78276	-5.69569	-164.36134	-157.85198	-127.74619	-18.71441	-101.70875	0
751	-38.24249	1.62734	40.6835	17.08707	-40.6835	21.15542	-4.88202	-164.36134	-157.03831	-126.93252	-17.90074	-101.70875	0
752	-39.05616	0.81367	40.6835	17.08707	-39.86983	21.15542	-4.88202	-165.98868	-157.85198	-126.93252	-19.52808	-102.52242	0
753	-39.86983	0.81367	41.49717	17.08707	-40.6835	21.15542	-4.06835	-168.42969	-159.47932	-128.55986	-20.34175	-104.96343	0
754	-41.49717	0.81367	43.12451	17.90074	-42.31084	21.96909	-3.25468	-171.68437	-161.92033	-129.37353	-19.52808	-104.96343	0
755	-43.12451	2.44101	45.56552	17.90074	-43.93818	23.59643	-2.44101	-173.31171	-162.734	-129.37353	-17.90074	-102.52242	0
756	-43.93818	3.25468	47.19286	18.71441	-45.56552	24.4101	0	-174.12538	-163.54767	-127.74619	-17.08707	-99.26774	0
757	-44.75185	2.44101	48.00653	19.52808	-46.37919	24.4101	0.81367	-172.49804	-162.734	-126.11885	-15.45973	-94.38572	0
758	-43.93818	1.62734	45.56552	19.52808	-44.75185	22.78276	3.25468	-170.05703	-160.29299	-124.49151	-14.64606	-90.31737	0
759	-41.49717	0	42.31084	19.52808	-43.12451	20.34175	5.69569	-166.80235	-157.03831	-121.23683	-13.01872	-86.24902	0
760	-39.86983	-0.81367	39.05616	19.52808	-40.6835	17.90074	6.50936	-164.36134	-153.78363	-118.79582	-11.39138	-83.80801	0
761	-39.05616	-2.44101	37.42882	19.52808	-39.05616	16.2734	6.50936	-164.36134	-151.34262	-117.98215	-11.39138	-82.99434	0
762	-39.86983	-1.62734	37.42882	20.34175	-39.86983	17.08707	5.69569	-165.98868	-149.71528	-118.79582	-13.01872	-83.80801	0
763	-41.49717	-0.81367	39.86983	20.34175	-41.49717	18.71441	3.25468	-168.42969	-149.71528	-122.0505	-15.45973	-83.80801	0
764	-43.12451	0	43.93818	21.15542	-43.12451	21.96909	2.44101	-170.8707	-149.71528	-126.11885	-17.08707	-82.18067	0
765	-45.56552	0.81367	47.19286	21.96909	-45.56552	25.22377	2.44101	-172.49804	-149.71528	-129.37353	-18.71441	-78.11232	0
766	-46.37919	2.44101	49.63387	21.15542	-47.19286	26.85111	3.25468	-172.49804	-149.71528	-129.37353	-19.52808	-71.60296	0
767	-47.19286	2.44101	48.8202	20.34175	-47.19286	26.85111	5.69569	-172.49804	-147.27427	-126.93252	-17.90074	-65.0936	0
768	-46.37919	1.62734	46.37919	19.52808	-44.75185	24.4101	7.32303	-170.05703	-144.01959	-123.67784	-16.2734	-59.39791	0
769	-43.93818	-0.81367	41.49717	20.34175	-42.31084	20.34175	8.95037	-167.61602	-140.76491	-120.42316	-14.64606	-55.32956	0
770	-42.31084	-4.06835	37.42882	22.78276	-40.6835	16.2734	9.76404	-165.17501	-137.51023	-118.79582	-12.20505	-52.88855	0
771	-40.6835	-7.32303	34.17414	24.4101	-39.05616	13.01872	9.76404	-164.36134	-135.06922	-117.98215	-11.39138	-52.88855	0
772	-39.86983	-9.76404	30.91946	25.22377	-36.61515	10.57771	9.76404	-164.36134	-132.62821	-117.98215	-13.01872	-53.70222	0
773	-37.42882	-9.76404	27.66478	24.4101	-33.36047	8.95037	10.57771	-162.734	-128.55986	-117.16848	-13.83239	-55.32956	0
774	-34.17414	-8.95037	25.22377	22.78276	-29.29212	7.32303	14.64606	-154.5973	-119.60949	-114.72747	-14.64606	-56.9569	0
775	-32.5468	-13.01872	18.71441	23.59643	-25.22377	2.44101	24.4101	-131.00087	-100.08141	-108.21811	-14.64606	-60.21158	0
776	-32.5468	-25.22377	6.50936	29.29212	-18.71441	-8.95037	43.93818	-85.43535	-64.27993	-96.01306	-16.2734	-67.53461	0
777	-32.5468	-45.56552	-13.83239	39.05616	-8.95037	-29.29212	73.2303	-16.2734	-9.76404	-75.67131	-17.08707	-77.29865	0
778	-30.91946	-70.78929	-40.6835	48.8202	4.06835	-55.32956	107.40444	65.90727	55.32956	-48.00653	-14.64606	-86.24902	0
779	-26.03744	-94.38572	-69.97562	56.14323	21.15542	-82.99434	137.51023	144.83326	121.23683	-13.01872	-4.06835	-88.69003	0
780	-16.2734	-111.47279	-98.45407	59.39791	40.6835	-106.59077	157.03831	207.48585	179.82107	30.10579	17.08707	-80.55333	0
781	-1.62734	-122.0505	-124.49151	58.58424	61.02525	-125.30518	167.61602	248.16935	225.38659	83.80801	52.88855	-59.39791	0
782	15.45973	-128.55986	-145.64693	52.88855	79.73966	-137.51023	169.24336	260.3744	253.05137	144.83326	100.89508	-27.66478	0
783	34.17414	-129.37353	-163.54767	43.93818	98.45407	-146.4606	162.734	240.03265	266.07009	208.29952	155.41097	10.57771	0
784	55.32956	-130.1872	-185.51676	34.98781	120.42316	-157.03831	148.90161	189.58511	268.5111	271.76578	214.80888	52.07488	0
785	83.80801	-135.88289	-218.87723	23.59643	151.34262	-176.56639	130.1872	120.42316	263.62908	341.7414	280.71615	97.6404	0
786	122.86417	-142.39225	-267.69743	9.76404	195.2808	-205.85851	109.03178	48.8202	257.93339	429.61776	362.89682	151.34262	0
787	174.93905	-148.90161	-330.35002	-10.57771	253.05137	-242.47366	87.06269	-17.90074	253.05137	537.83587	464.60557	217.24989	0
788	237.59164	-152.96996	-400.32564	-38.24249	318.95864	-280.71615	65.0936	-78.11232	249.79669	666.39573	589.09708	297.80322	0
789	309.1946	-151.34262	-468.67392	-75.67131	388.93426	-313.26295	43.93818	-126.11885	245.72834	818.55202	737.99869	396.25729	0
790	392.18894	-137.51023	-535.39486	-125.30518	463.7919	-336.85938	22.78276	-157.03831	257.93339	1000.00043	917.81976	518.30779	0
791	491.45668	-108.21811	-602.92947	-191.21245	546.78624	-350.69177	-6.50936	-173.31171	300.24423	1217.25032	1135.88332	672.09142	0
792	604.55681	-61.02525	-667.2094	-271.76578	635.47627	-357.20113	-52.88855	-179.82107	366.1515	1456.4693	1383.239	853.53983	0
793	717.65694	-3.25468	-721.72529	-358.0148	713.58859	-356.38746	-119.60949	-194.46713	424.73574	1677.78754	1609.43926	1043.93861	0
794	814.48367	56.9569	-757.52677	-436.94079	767.29081	-345.80975	-209.92686	-242.47366	437.75446	1829.94383	1765.6639	1202.60426	0
795	881.20461	114.72747	-766.47714	-498.77971	798.21027	-323.02699	-328.72268	-348.25076	373.47453	1866.55898	1850.28558	1302.68567	0
796	901.54636	170.8707	-730.67566	-537.0222	794.14192	-278.27514	-469.48759	-525.63082	218.06356	1770.54592	1854.35393	1345.81018	0
797	860.04919	231.08228	-628.96691	-546.78624	730.67566	-198.53548	-620.83021	-781.1232	-21.96909	1551.66869	1762.40922	1340.11449	0
798	754.27209	301.0579	-452.40052	-528.8855	596.42011	-74.85764	-770.54549	-1093.57248	-324.65433	1240.03308	1584.21549	1283.15759	0
799	597.23378	377.54288	-218.87723	-488.202	405.20766	78.92599	-908.86939	-1420.66782	-652.56334	869.81323	1334.4188	1176.56682	0
800	414.9717	451.58685	35.80148	-433.68611	188.77144	243.28733	-1020.34218	-1707.89333	-973.14932	470.30126	1034.98824	1026.03787	0
801	230.26861	512.6121	281.52982	-371.84719	-24.4101	396.25729	-1087.06312	-1919.44753	-1257.12015	74.04397	716.0296	846.2168	0
802	57.77057	550.85459	492.27035	-305.12625	-216.43622	520.7488	-1100.89551	-2040.68436	-1481.69307	-283.97083	404.39399	650.12233	0
803	-89.5037	561.4323	650.12233	-236.77797	-368.59251	605.37048	-1067.53504	-2070.79015	-1627.34	-579.33304	117.98215	446.70483	0
804	-199.34915	552.48193	749.39007	-178.19373	-473.55594	650.12233	-1001.62777	-2017.9016	-1684.2969	-789.2599	-119.60949	255.49238	0
805	-266.07009	537.83587	802.27862	-140.76491	-533.76752	669.65041	-917.00609	-1895.8511	-1647.68175	-900.73269	-289.66652	98.45407	0
806	-296.17588	524.81715	824.24771	-123.67784	-559.80496	676.15977	-823.43404	-1723.35306	-1531.32694	-918.63343	-384.05224	-8.95037	0
807	-297.80322	515.05311	820.99303	-118.79582	-558.99129	672.09142	-724.1663	-1524.00391	-1362.89725	-867.37222	-415.78537	-72.41663	0
808	-282.34349	503.66173	793.32825	-118.79582	-537.83587	651.74967	-623.27122	-1319.77274	-1177.38049	-780.30953	-404.39399	-100.89508	0
809	-261.18807	480.0653	746.94906	-114.72747	-503.66173	615.94819	-527.25816	-1131.0013	-1002.44144	-684.29647	-371.84719	-109.03178	0
810	-240.84632	441.00914	685.11014	-102.52242	-462.97823	563.87331	-435.31345	-964.19895	-848.65781	-597.23378	-336.85938	-110.65912	0
811	-224.57292	385.67958	611.87984	-81.367	-419.04005	498.77971	-346.62342	-816.92468	-717.65694	-524.00348	-305.93992	-112.28646	0
812	-211.5542	318.95864	531.32651	-53.70222	-371.84719	424.73574	-262.81541	-685.92381	-605.37048	-462.97823	-279.08881	-113.9138	0
813	-199.34915	249.79669	449.14584	-25.22377	-324.65433	349.06443	-190.39878	-574.45102	-513.42577	-415.78537	-257.11972	-114.72747	0
814	-186.33043	185.51676	371.03352	0	-278.27514	278.27514	-133.44188	-484.13365	-443.45015	-380.79756	-238.40531	-113.9138	0
815	-171.68437	132.62821	303.49891	18.71441	-237.59164	218.06356	-91.13104	-414.9717	-390.5616	-353.94645	-222.94558	-109.84545	0
816	-157.03831	94.38572	251.42403	30.10579	-204.23117	173.31171	-61.83892	-361.26948	-349.06443	-330.35002	-207.48585	-102.52242	0
817	-145.64693	69.16195	214.80888	35.80148	-180.63474	142.39225	-39.05616	-317.3313	-312.44928	-305.12625	-189.58511	-91.13104	0
818	-135.88289	52.88855	188.77144	37.42882	-162.734	121.23683	-20.34175	-276.6478	-274.20679	-277.46147	-169.24336	-77.29865	0
819	-124.49151	40.6835	165.17501	36.61515	-144.83326	103.33609	-3.25468	-238.40531	-235.15063	-247.35568	-146.4606	-62.65259	0
820	-109.03178	30.91946	139.95124	34.98781	-125.30518	85.43535	11.39138	-201.79016	-196.90814	-218.06356	-124.49151	-48.8202	0
821	-96.01306	22.78276	118.79582	33.36047	-107.40444	70.78929	24.4101	-170.05703	-162.734	-192.02612	-105.7771	-38.24249	0
822	-87.06269	18.71441	105.7771	32.5468	-96.82673	62.65259	35.80148	-144.83326	-136.69656	-171.68437	-92.75838	-30.10579	0
823	-83.80801	17.08707	100.89508	32.5468	-92.75838	59.39791	43.12451	-128.55986	-118.79582	-157.85198	-83.80801	-25.22377	0
824	-82.99434	18.71441	101.70875	32.5468	-93.57205	60.21158	49.63387	-117.98215	-108.21811	-150.52895	-79.73966	-22.78276	0
825	-85.43535	21.15542	105.7771	32.5468	-96.01306	63.46626	55.32956	-111.47279	-102.52242	-147.27427	-78.11232	-19.52808	0
826	-87.87636	24.4101	109.84545	32.5468	-99.26774	65.90727	61.02525	-106.59077	-98.45407	-144.83326	-78.11232	-14.64606	0
827	-88.69003	25.22377	112.28646	33.36047	-100.89508	67.53461	65.90727	-100.89508	-96.01306	-143.20592	-78.11232	-10.57771	0
828	-87.06269	23.59643	110.65912	33.36047	-100.08141	66.72094	68.34828	-94.38572	-92.75838	-141.57858	-77.29865	-6.50936	0
829	-84.62168	21.15542	107.40444	33.36047	-97.6404	64.27993	69.16195	-88.69003	-88.69003	-138.3239	-76.48498	-4.06835	0
830	-82.99434	17.90074	103.33609	32.5468	-95.19939	61.02525	69.97562	-82.99434	-82.99434	-135.06922	-74.85764	-1.62734	0
831	-82.18067	16.2734	100.08141	32.5468	-92.75838	58.58424	70.78929	-78.92599	-78.11232	-132.62821	-72.41663	-0.81367	0
832	-82.18067	15.45973	99.26774	31.73313	-91.13104	57.77057	70.78929	-74.85764	-74.04397	-130.1872	-71.60296	0	0
833	-83.80801	15.45973	100.08141	32.5468	-92.75838	57.77057	71.60296	-72.41663	-70.78929	-128.55986	-69.97562	0.81367	0
834	-85.43535	16.2734	103.33609	32.5468	-94.38572	60.21158	72.41663	-70.78929	-68.34828	-128.55986	-69.16195	2.44101	0
835	-88.69003	17.08707	106.59077	34.17414	-97.6404	61.83892	73.2303	-69.97562	-66.72094	-127.74619	-68.34828	4.06835	0
836	-91.13104	17.08707	109.03178	35.80148	-100.08141	62.65259	75.67131	-67.53461	-65.0936	-126.11885	-66.72094	7.32303	0
837	-91.94471	16.2734	108.21811	36.61515	-100.89508	62.65259	77.29865	-63.46626	-61.83892	-123.67784	-65.0936	10.57771	0
838	-91.94471	14.64606	106.59077	38.24249	-100.08141	60.21158	79.73966	-57.77057	-57.77057	-119.60949	-62.65259	13.83239	0
839	-90.31737	12.20505	102.52242	38.24249	-96.82673	57.77057	82.18067	-52.07488	-52.88855	-116.35481	-60.21158	16.2734	0
840	-87.06269	10.57771	97.6404	37.42882	-92.75838	54.51589	82.99434	-47.19286	-48.00653	-113.10013	-58.58424	17.08707	0
841	-82.99434	9.76404	92.75838	34.98781	-88.69003	52.88855	82.99434	-44.75185	-44.75185	-112.28646	-59.39791	17.08707	0
842	-78.92599	10.57771	89.5037	33.36047	-85.43535	51.26121	82.18067	-43.12451	-43.12451	-112.28646	-62.65259	16.2734	0
843	-77.29865	12.20505	89.5037	31.73313	-83.80801	51.26121	81.367	-41.49717	-42.31084	-114.72747	-65.0936	15.45973	0
844	-78.11232	13.83239	91.13104	30.91946	-84.62168	52.88855	82.18067	-39.86983	-42.31084	-116.35481	-65.90727	15.45973	0
845	-78.92599	14.64606	93.57205	30.10579	-86.24902	54.51589	83.80801	-36.61515	-40.6835	-117.16848	-65.90727	16.2734	0
846	-78.92599	16.2734	96.01306	30.91946	-87.87636	56.14323	85.43535	-32.5468	-39.86983	-117.16848	-65.0936	17.90074	0
847	-78.11232	17.08707	96.01306	30.91946	-87.87636	56.9569	87.87636	-26.85111	-37.42882	-115.54114	-63.46626	18.71441	0
848	-78.11232	17.08707	95.19939	30.91946	-87.06269	56.9569	90.31737	-20.34175	-34.17414	-112.28646	-61.02525	20.34175	0
849	-77.29865	17.08707	94.38572	30.10579	-86.24902	56.14323	92.75838	-13.01872	-30.10579	-108.21811	-58.58424	21.96909	0
850	-77.29865	17.08707	93.57205	29.29212	-85.43535	55.32956	94.38572	-5.69569	-26.03744	-104.14976	-56.14323	22.78276	0
851	-76.48498	17.08707	93.57205	28.47845	-85.43535	55.32956	94.38572	-0.81367	-22.78276	-101.70875	-55.32956	22.78276	0
852	-75.67131	17.90074	92.75838	27.66478	-84.62168	54.51589	94.38572	0.81367	-21.15542	-100.89508	-56.14323	21.15542	0
853	-74.04397	17.90074	91.13104	26.85111	-82.99434	54.51589	92.75838	3.25468	-20.34175	-101.70875	-56.9569	18.71441	0
854	-73.2303	17.08707	90.31737	26.85111	-81.367	53.70222	92.75838	6.50936	-19.52808	-101.70875	-57.77057	17.08707	0
855	-73.2303	16.2734	89.5037	26.85111	-81.367	52.88855	93.57205	10.57771	-18.71441	-100.89508	-57.77057	15.45973	0
856	-74.04397	15.45973	89.5037	27.66478	-82.18067	52.88855	95.19939	15.45973	-17.08707	-99.26774	-58.58424	13.83239	0
857	-74.04397	15.45973	89.5037	28.47845	-82.18067	52.07488	96.82673	21.15542	-14.64606	-96.82673	-58.58424	10.57771	0
858	-73.2303	14.64606	88.69003	27.66478	-81.367	52.07488	99.26774	28.47845	-9.76404	-94.38572	-57.77057	8.95037	0
859	-72.41663	14.64606	87.87636	27.66478	-80.55333	51.26121	101.70875	36.61515	-3.25468	-89.5037	-56.9569	8.1367	0
860	-71.60296	15.45973	87.87636	26.85111	-80.55333	51.26121	104.14976	45.56552	4.06835	-83.80801	-54.51589	8.95037	0
861	-69.97562	15.45973	86.24902	26.03744	-78.92599	51.26121	106.59077	52.88855	12.20505	-78.11232	-52.88855	9.76404	0
862	-65.90727	16.2734	82.99434	24.4101	-75.67131	49.63387	107.40444	58.58424	17.90074	-74.04397	-52.88855	8.95037	0
863	-61.83892	17.08707	78.92599	23.59643	-70.78929	48.00653	108.21811	63.46626	23.59643	-71.60296	-52.07488	8.1367	0
864	-60.21158	16.2734	76.48498	23.59643	-68.34828	46.37919	109.84545	69.16195	29.29212	-68.34828	-50.44754	6.50936	0
865	-61.02525	14.64606	75.67131	24.4101	-68.34828	44.75185	113.10013	74.85764	35.80148	-64.27993	-48.8202	5.69569	0
866	-63.46626	12.20505	75.67131	25.22377	-69.16195	43.93818	116.35481	82.18067	42.31084	-61.02525	-48.00653	4.88202	0
867	-64.27993	9.76404	74.04397	26.85111	-69.16195	41.49717	119.60949	89.5037	49.63387	-56.9569	-46.37919	4.06835	0
868	-63.46626	7.32303	70.78929	26.85111	-67.53461	39.05616	122.0505	98.45407	56.9569	-52.88855	-43.93818	2.44101	0
869	-61.83892	4.88202	66.72094	26.85111	-64.27993	34.98781	125.30518	108.21811	65.90727	-48.00653	-41.49717	1.62734	0
870	-58.58424	2.44101	61.83892	26.03744	-60.21158	30.91946	128.55986	118.79582	76.48498	-43.12451	-39.05616	0.81367	0
871	-56.14323	0.81367	57.77057	26.03744	-56.9569	27.66478	131.81454	128.55986	86.24902	-38.24249	-35.80148	0	0
872	-54.51589	0	54.51589	26.03744	-55.32956	25.22377	135.06922	137.51023	95.19939	-34.98781	-33.36047	-0.81367	0
873	-53.70222	-2.44101	51.26121	26.85111	-52.88855	23.59643	137.51023	144.83326	103.33609	-32.5468	-31.73313	-3.25468	0
874	-52.88855	-4.88202	47.19286	27.66478	-49.63387	20.34175	139.13757	152.15629	110.65912	-30.91946	-29.29212	-4.88202	0
875	-51.26121	-7.32303	43.12451	28.47845	-47.19286	17.08707	142.39225	160.29299	118.79582	-29.29212	-28.47845	-6.50936	0
876	-50.44754	-9.76404	39.86983	29.29212	-44.75185	14.64606	146.4606	170.05703	126.93252	-26.85111	-28.47845	-8.1367	0
877	-50.44754	-12.20505	37.42882	30.10579	-43.12451	12.20505	150.52895	181.44841	135.88289	-24.4101	-29.29212	-9.76404	0
878	-48.8202	-13.83239	33.36047	30.10579	-41.49717	9.76404	154.5973	194.46713	146.4606	-21.15542	-30.10579	-10.57771	0
879	-45.56552	-15.45973	29.29212	29.29212	-37.42882	6.50936	159.47932	208.29952	158.66565	-15.45973	-31.73313	-10.57771	0
880	-42.31084	-17.08707	23.59643	28.47845	-33.36047	2.44101	163.54767	222.13191	172.49804	-9.76404	-31.73313	-10.57771	0
881	-39.05616	-19.52808	17.90074	28.47845	-28.47845	-0.81367	166.80235	235.9643	186.33043	-4.88202	-32.5468	-9.76404	0
882	-35.80148	-22.78276	11.39138	27.66478	-24.4101	-5.69569	169.24336	249.79669	199.34915	0	-32.5468	-8.95037	0
883	-32.5468	-26.03744	5.69569	27.66478	-19.52808	-9.76404	171.68437	262.81541	212.36787	6.50936	-30.10579	-7.32303	0
884	-29.29212	-28.47845	0	28.47845	-14.64606	-14.64606	174.93905	276.6478	224.57292	13.83239	-26.03744	-4.88202	0
885	-26.85111	-32.5468	-4.88202	29.29212	-10.57771	-18.71441	179.82107	290.48019	237.59164	20.34175	-21.96909	-2.44101	0
886	-25.22377	-35.80148	-10.57771	30.10579	-7.32303	-23.59643	185.51676	305.12625	250.61036	27.66478	-19.52808	-1.62734	0
887	-23.59643	-40.6835	-17.08707	30.91946	-3.25468	-28.47845	191.21245	322.21332	264.44275	35.80148	-17.08707	-2.44101	0
888	-19.52808	-44.75185	-24.4101	30.91946	2.44101	-34.98781	196.90814	340.92773	280.71615	44.75185	-15.45973	-3.25468	0
889	-14.64606	-48.8202	-34.17414	30.91946	8.95037	-41.49717	201.79016	361.26948	298.61689	52.88855	-13.83239	-4.06835	0
890	-8.95037	-53.70222	-44.75185	30.10579	17.08707	-49.63387	207.48585	380.79756	316.51763	61.83892	-12.20505	-4.06835	0
891	-4.06835	-58.58424	-54.51589	30.10579	24.4101	-56.9569	212.36787	400.32564	334.41837	69.97562	-9.76404	-3.25468	0
892	0	-64.27993	-64.27993	30.91946	30.91946	-64.27993	216.43622	418.22638	352.31911	78.11232	-7.32303	-1.62734	0
893	3.25468	-69.16195	-73.2303	31.73313	38.24249	-71.60296	219.6909	434.49978	368.59251	86.24902	-4.06835	-0.81367	0
894	7.32303	-74.85764	-82.18067	32.5468	44.75185	-78.92599	222.94558	451.58685	384.86591	94.38572	-0.81367	0	0
895	9.76404	-80.55333	-91.13104	34.17414	50.44754	-86.24902	227.01393	469.48759	401.95298	103.33609	1.62734	2.44101	0
896	12.20505	-87.06269	-100.08141	36.61515	56.14323	-93.57205	232.70962	489.01567	419.85372	112.28646	4.06835	4.06835	0
897	13.83239	-94.38572	-109.03178	39.05616	61.02525	-101.70875	238.40531	510.17109	437.75446	122.86417	6.50936	6.50936	0
898	17.90074	-100.89508	-120.42316	40.6835	68.34828	-110.65912	244.101	532.95385	457.28254	134.25555	9.76404	8.95037	0
899	24.4101	-108.21811	-134.25555	40.6835	78.92599	-121.23683	248.16935	555.73661	476.81062	145.64693	13.83239	10.57771	0
900	32.5468	-116.35481	-149.71528	40.6835	90.31737	-133.44188	253.05137	577.7057	497.15237	157.85198	17.08707	12.20505	0
901	39.86983	-125.30518	-165.98868	41.49717	101.70875	-145.64693	256.30605	598.04745	515.86678	169.24336	20.34175	13.83239	0
902	45.56552	-133.44188	-179.82107	43.12451	112.28646	-157.03831	260.3744	616.76186	533.76752	179.0074	22.78276	14.64606	0
903	50.44754	-141.57858	-192.83979	43.93818	121.23683	-166.80235	262.81541	634.6626	550.85459	187.95777	25.22377	15.45973	0
904	56.14323	-148.08794	-205.04484	44.75185	130.1872	-176.56639	265.25642	650.936	567.12799	197.72181	27.66478	15.45973	0
905	61.83892	-154.5973	-216.43622	45.56552	139.13757	-185.51676	267.69743	667.2094	582.58772	206.67218	30.91946	16.2734	0
906	68.34828	-159.47932	-228.64127	44.75185	148.08794	-193.65346	270.95211	683.4828	598.86112	217.24989	34.17414	17.90074	0
907	74.85764	-165.17501	-240.84632	43.93818	157.85198	-203.4175	275.83413	701.38354	615.13452	228.64127	38.24249	19.52808	0
908	82.18067	-172.49804	-255.49238	43.93818	168.42969	-213.99521	279.90248	719.28428	632.22159	240.03265	42.31084	20.34175	0
909	89.5037	-181.44841	-270.95211	44.75185	179.82107	-226.20026	282.34349	737.18502	648.49499	250.61036	45.56552	21.15542	0
910	96.01306	-189.58511	-286.41184	45.56552	191.21245	-238.40531	283.97083	753.45842	664.76839	260.3744	49.63387	21.96909	0
911	102.52242	-196.90814	-300.24423	45.56552	200.97649	-248.98302	285.59817	767.29081	679.41445	270.13844	52.07488	22.78276	0
912	109.03178	-202.60383	-312.44928	45.56552	210.74053	-257.93339	286.41184	779.49586	692.43317	277.46147	54.51589	23.59643	0
913	113.9138	-208.29952	-323.02699	45.56552	218.87723	-266.07009	288.03918	790.07357	703.82455	284.7845	57.77057	25.22377	0
914	117.98215	-213.18154	-331.97736	46.37919	225.38659	-272.57945	288.85285	799.83761	714.40226	292.9212	62.65259	27.66478	0
915	120.42316	-217.24989	-338.48672	47.19286	229.45494	-278.27514	291.29386	807.97431	724.1663	301.0579	67.53461	30.91946	0
916	122.0505	-222.94558	-345.80975	48.8202	234.33696	-283.97083	292.9212	815.29734	733.11667	309.1946	71.60296	32.5468	0
917	124.49151	-229.45494	-354.76012	51.26121	240.03265	-292.10753	295.36221	821.8067	742.06704	317.3313	75.67131	33.36047	0
918	127.74619	-235.9643	-364.52416	52.88855	245.72834	-300.24423	297.80322	828.31606	750.20374	324.65433	80.55333	33.36047	0
919	131.00087	-242.47366	-373.47453	54.51589	252.2377	-308.38093	298.61689	833.19808	758.34044	332.79103	84.62168	32.5468	0
920	134.25555	-247.35568	-382.4249	55.32956	257.93339	-314.89029	298.61689	835.63909	764.03613	340.11406	87.87636	30.91946	0
921	138.3239	-251.42403	-390.5616	55.32956	263.62908	-321.39965	296.98955	834.01175	767.29081	344.99608	89.5037	28.47845	0
922	141.57858	-253.86504	-397.07096	55.32956	268.5111	-325.468	294.54854	829.12973	768.10448	347.43709	87.87636	25.22377	0
923	143.20592	-254.67871	-400.32564	55.32956	271.76578	-328.72268	290.48019	820.99303	764.8498	347.43709	86.24902	21.96909	0
924	144.01959	-253.86504	-400.32564	54.51589	271.76578	-328.72268	286.41184	811.22899	759.96778	345.80975	84.62168	21.96909	0
925	142.39225	-253.86504	-397.88463	55.32956	270.13844	-326.28167	283.97083	799.83761	754.27209	344.18241	82.99434	24.4101	0
926	140.76491	-252.2377	-395.44362	55.32956	268.5111	-324.65433	280.71615	786.81889	746.13539	342.55507	81.367	27.66478	0
927	139.95124	-251.42403	-393.00261	54.51589	266.07009	-322.21332	277.46147	772.17283	737.18502	340.92773	80.55333	30.10579	0
928	138.3239	-249.79669	-389.74793	54.51589	264.44275	-319.77231	274.20679	757.52677	725.79364	340.11406	79.73966	32.5468	0
929	136.69656	-248.16935	-385.67958	54.51589	261.18807	-316.51763	270.13844	741.25337	715.21593	338.48672	79.73966	34.98781	0
930	134.25555	-244.91467	-379.98389	54.51589	256.30605	-312.44928	264.44275	723.35263	702.19721	336.04571	79.73966	35.80148	0
931	131.81454	-241.65999	-373.47453	53.70222	252.2377	-307.56726	258.74706	701.38354	685.92381	331.16369	77.29865	36.61515	0
932	130.1872	-236.77797	-366.96517	53.70222	248.16935	-302.68524	251.42403	676.97344	667.2094	323.02699	74.85764	36.61515	0
933	126.11885	-231.89595	-358.0148	52.88855	242.47366	-295.36221	244.91467	650.936	646.86765	314.07662	71.60296	37.42882	0
934	120.42316	-226.20026	-347.43709	52.88855	234.33696	-287.22551	238.40531	624.08489	625.71223	305.12625	69.16195	38.24249	0
935	116.35481	-219.6909	-336.04571	51.26121	226.20026	-278.27514	231.89595	597.23378	602.1158	294.54854	65.90727	39.05616	0
936	113.10013	-212.36787	-326.28167	48.8202	219.6909	-269.32477	223.75925	568.75533	578.51937	283.15716	61.83892	39.05616	0
937	109.84545	-204.23117	-314.89029	46.37919	212.36787	-259.56073	215.62255	541.09055	554.10927	272.57945	57.77057	39.86983	0
938	105.7771	-196.09447	-302.68524	43.93818	204.23117	-248.98302	207.48585	513.42577	529.69917	261.18807	53.70222	40.6835	0
939	101.70875	-187.1441	-289.66652	41.49717	195.2808	-238.40531	200.16282	485.76099	505.28907	250.61036	50.44754	43.12451	0
940	96.01306	-178.19373	-275.02046	39.86983	185.51676	-226.20026	193.65346	458.09621	480.87897	238.40531	47.19286	46.37919	0
941	88.69003	-169.24336	-259.56073	39.86983	174.12538	-214.80888	186.33043	429.61776	454.02786	225.38659	43.12451	48.8202	0
942	81.367	-161.92033	-243.28733	39.86983	161.92033	-202.60383	179.82107	401.13931	427.17675	211.5542	38.24249	49.63387	0
943	74.04397	-153.78363	-227.8276	39.05616	150.52895	-191.21245	173.31171	372.66086	399.51197	196.09447	31.73313	48.8202	0
944	67.53461	-144.83326	-213.18154	37.42882	139.95124	-179.0074	165.98868	344.18241	371.03352	180.63474	25.22377	47.19286	0
945	61.83892	-135.88289	-198.53548	35.80148	130.1872	-166.80235	158.66565	317.3313	344.18241	165.17501	17.90074	44.75185	0
946	56.14323	-126.93252	-183.88942	34.98781	119.60949	-155.41097	152.15629	292.10753	318.95864	151.34262	11.39138	43.12451	0
947	49.63387	-119.60949	-170.05703	34.17414	109.84545	-144.83326	147.27427	268.5111	294.54854	139.13757	6.50936	42.31084	0
948	43.93818	-112.28646	-157.03831	33.36047	100.08141	-135.06922	142.39225	246.54201	271.76578	127.74619	2.44101	43.93818	0
949	39.05616	-105.7771	-144.83326	31.73313	91.94471	-125.30518	137.51023	226.20026	249.79669	117.16848	0	45.56552	0
950	34.98781	-98.45407	-134.25555	30.91946	83.80801	-116.35481	132.62821	205.85851	228.64127	108.21811	-1.62734	47.19286	0
951	30.10579	-91.94471	-122.86417	29.29212	76.48498	-107.40444	127.74619	185.51676	207.48585	98.45407	-4.06835	49.63387	0
952	25.22377	-85.43535	-110.65912	28.47845	67.53461	-98.45407	122.0505	165.17501	187.1441	88.69003	-6.50936	51.26121	0
953	19.52808	-78.11232	-98.45407	27.66478	58.58424	-88.69003	116.35481	145.64693	166.80235	78.92599	-10.57771	52.88855	0
954	13.83239	-71.60296	-85.43535	27.66478	48.8202	-78.11232	111.47279	126.11885	147.27427	69.16195	-13.83239	52.88855	0
955	8.1367	-65.0936	-73.2303	26.85111	39.86983	-69.16195	107.40444	109.03178	129.37353	59.39791	-17.08707	53.70222	0
956	3.25468	-58.58424	-61.83892	26.85111	32.5468	-60.21158	103.33609	93.57205	113.10013	50.44754	-20.34175	53.70222	0
957	0.81367	-52.88855	-52.07488	25.22377	26.03744	-52.07488	100.08141	79.73966	97.6404	43.12451	-23.59643	52.88855	0
958	0.81367	-46.37919	-44.75185	23.59643	21.15542	-45.56552	96.82673	68.34828	84.62168	35.80148	-26.03744	52.88855	0
959	1.62734	-39.05616	-39.05616	21.96909	18.71441	-39.05616	94.38572	58.58424	73.2303	30.91946	-26.85111	53.70222	0
960	1.62734	-32.5468	-33.36047	20.34175	16.2734	-33.36047	91.94471	48.8202	62.65259	25.22377	-27.66478	56.14323	0
961	0	-29.29212	-27.66478	17.08707	12.20505	-28.47845	88.69003	38.24249	52.07488	19.52808	-28.47845	57.77057	0
962	-4.88202	-26.03744	-21.15542	13.83239	7.32303	-23.59643	84.62168	27.66478	40.6835	12.20505	-30.10579	59.39791	0
963	-8.1367	-21.96909	-13.01872	11.39138	1.62734	-17.90074	81.367	16.2734	30.10579	4.88202	-31.73313	60.21158	0
964	-11.39138	-16.2734	-4.06835	9.76404	-3.25468	-10.57771	78.92599	6.50936	20.34175	-0.81367	-32.5468	61.02525	0
965	-14.64606	-10.57771	4.06835	8.95037	-9.76404	-3.25468	77.29865	-0.81367	11.39138	-5.69569	-33.36047	61.83892	0
966	-17.90074	-5.69569	11.39138	8.95037	-14.64606	2.44101	76.48498	-7.32303	4.06835	-9.76404	-33.36047	62.65259	0
967	-18.71441	-1.62734	17.08707	8.95037	-17.90074	7.32303	75.67131	-13.01872	-1.62734	-13.83239	-34.17414	61.83892	0
968	-19.52808	0.81367	20.34175	8.1367	-20.34175	11.39138	74.85764	-17.08707	-7.32303	-16.2734	-34.98781	61.02525	0
969	-19.52808	3.25468	22.78276	6.50936	-21.15542	13.01872	73.2303	-21.15542	-12.20505	-19.52808	-36.61515	60.21158	0
970	-18.71441	4.88202	24.4101	5.69569	-21.96909	14.64606	71.60296	-25.22377	-17.90074	-22.78276	-39.05616	59.39791	0
971	-19.52808	5.69569	25.22377	5.69569	-22.78276	15.45973	69.97562	-29.29212	-24.4101	-27.66478	-42.31084	59.39791	0
972	-19.52808	6.50936	26.85111	5.69569	-23.59643	16.2734	68.34828	-34.17414	-31.73313	-33.36047	-45.56552	58.58424	0
973	-21.96909	7.32303	30.10579	5.69569	-26.03744	18.71441	66.72094	-39.05616	-38.24249	-39.05616	-48.00653	56.9569	0
974	-24.4101	9.76404	34.98781	5.69569	-30.10579	21.96909	65.90727	-42.31084	-44.75185	-43.12451	-49.63387	55.32956	0
975	-27.66478	12.20505	39.86983	6.50936	-34.17414	26.03744	66.72094	-44.75185	-48.8202	-45.56552	-49.63387	54.51589	0
976	-30.91946	14.64606	45.56552	7.32303	-38.24249	29.29212	67.53461	-45.56552	-52.07488	-46.37919	-50.44754	53.70222	0
977	-32.5468	16.2734	48.8202	7.32303	-40.6835	32.5468	68.34828	-44.75185	-54.51589	-47.19286	-50.44754	53.70222	0
978	-32.5468	17.08707	49.63387	7.32303	-41.49717	34.17414	68.34828	-43.93818	-56.14323	-47.19286	-50.44754	52.88855	0
979	-31.73313	17.08707	48.8202	6.50936	-40.6835	34.17414	68.34828	-43.12451	-56.9569	-48.00653	-50.44754	52.88855	0
980	-30.91946	16.2734	47.19286	6.50936	-39.86983	32.5468	68.34828	-43.12451	-58.58424	-49.63387	-51.26121	52.07488	0
981	-30.91946	16.2734	46.37919	6.50936	-39.86983	31.73313	67.53461	-43.93818	-61.02525	-51.26121	-52.07488	52.07488	0
982	-30.91946	16.2734	46.37919	6.50936	-39.86983	31.73313	66.72094	-44.75185	-63.46626	-53.70222	-52.88855	52.07488	0
983	-30.91946	16.2734	47.19286	6.50936	-39.86983	31.73313	67.53461	-45.56552	-65.0936	-55.32956	-53.70222	52.88855	0
