samplenr	I	II	III	aVR	aVL	aVF	V1	V2	V3	V4	V5	V6	measurement
0	0	-1.62734	0	0	0	0	0	5.69569	6.50936	5.69569	2.44101	1.62734	0
1	0	-4.88202	0	0	-0.81367	0.81367	0	23.59643	27.66478	22.78276	13.01872	8.95037	0
2	0	-6.50936	0	-0.81367	-1.62734	1.62734	0.81367	48.00653	56.14323	46.37919	26.03744	17.90074	0
3	0	-4.06835	0.81367	-0.81367	-1.62734	1.62734	2.44101	68.34828	79.73966	65.0936	36.61515	25.22377	0
4	0	0	0.81367	-1.62734	-0.81367	1.62734	3.25468	80.55333	94.38572	76.48498	43.12451	28.47845	0
5	1.62734	1.62734	0.81367	-4.06835	1.62734	0	3.25468	87.06269	100.89508	81.367	45.56552	28.47845	0
6	4.06835	1.62734	0.81367	-3.25468	1.62734	-0.81367	4.06835	89.5037	101.70875	81.367	46.37919	27.66478	0
7	5.69569	0	0.81367	-0.81367	0	-1.62734	5.69569	89.5037	100.89508	79.73966	45.56552	26.85111	0
8	7.32303	0.81367	3.25468	0	-1.62734	-1.62734	6.50936	87.87636	98.45407	77.29865	43.93818	26.03744	0
9	9.76404	6.50936	5.69569	-5.69569	-1.62734	-1.62734	7.32303	87.87636	96.82673	76.48498	43.93818	26.85111	0
10	17.90074	10.57771	4.06835	-16.2734	3.25468	0	8.95037	87.87636	96.82673	76.48498	44.75185	30.10579	0
11	26.85111	13.01872	-4.06835	-23.59643	12.20505	-0.81367	8.95037	86.24902	95.19939	76.48498	44.75185	30.10579	0
12	34.17414	16.2734	-15.45973	-26.03744	22.78276	-4.88202	5.69569	82.18067	91.13104	74.04397	42.31084	24.4101	0
13	44.75185	17.90074	-24.4101	-29.29212	34.17414	-11.39138	2.44101	77.29865	86.24902	69.97562	39.05616	13.83239	0
14	61.02525	22.78276	-30.10579	-37.42882	43.12451	-13.83239	1.62734	76.48498	85.43535	69.16195	37.42882	6.50936	0
15	76.48498	33.36047	-33.36047	-43.93818	50.44754	-8.95037	7.32303	80.55333	89.5037	73.2303	40.6835	3.25468	0
16	81.367	41.49717	-32.5468	-48.00653	52.88855	-1.62734	14.64606	87.87636	95.19939	78.92599	45.56552	3.25468	0
17	74.85764	43.93818	-27.66478	-49.63387	48.00653	4.06835	21.15542	94.38572	100.89508	83.80801	48.8202	4.06835	0
18	64.27993	41.49717	-23.59643	-47.19286	41.49717	7.32303	24.4101	97.6404	103.33609	86.24902	50.44754	4.88202	0
19	52.07488	34.17414	-21.96909	-40.6835	34.98781	5.69569	24.4101	97.6404	102.52242	84.62168	48.00653	3.25468	0
20	40.6835	24.4101	-21.15542	-33.36047	28.47845	1.62734	21.96909	95.19939	100.08141	81.367	44.75185	0	0
21	30.10579	14.64606	-18.71441	-26.03744	22.78276	-1.62734	17.90074	91.94471	96.82673	78.11232	41.49717	-4.06835	0
22	23.59643	5.69569	-16.2734	-21.15542	18.71441	-4.88202	15.45973	88.69003	94.38572	76.48498	39.86983	-5.69569	0
23	17.90074	-0.81367	-13.01872	-16.2734	15.45973	-5.69569	14.64606	87.06269	92.75838	77.29865	40.6835	-6.50936	0
24	11.39138	-5.69569	-11.39138	-9.76404	11.39138	-5.69569	15.45973	87.06269	91.94471	78.92599	43.12451	-5.69569	0
25	4.88202	-7.32303	-9.76404	-4.06835	6.50936	-4.88202	17.90074	88.69003	93.57205	81.367	43.93818	-3.25468	0
26	0.81367	-6.50936	-8.95037	-0.81367	4.06835	-4.06835	19.52808	91.94471	96.01306	82.18067	44.75185	-1.62734	0
27	0.81367	-4.06835	-7.32303	0	3.25468	-2.44101	20.34175	95.19939	98.45407	82.18067	44.75185	-0.81367	0
28	1.62734	-0.81367	-2.44101	0	0.81367	0	22.78276	97.6404	100.89508	83.80801	46.37919	0	0
29	4.88202	0	0.81367	0	-0.81367	2.44101	24.4101	98.45407	101.70875	84.62168	47.19286	-0.81367	0
30	10.57771	0.81367	-2.44101	0	2.44101	-0.81367	21.96909	95.19939	97.6404	81.367	43.93818	-5.69569	0
31	13.83239	0.81367	-12.20505	0.81367	8.95037	-8.1367	17.08707	87.87636	91.13104	74.85764	37.42882	-13.01872	0
32	16.2734	-1.62734	-21.96909	0.81367	15.45973	-15.45973	13.01872	81.367	85.43535	69.97562	32.5468	-18.71441	0
33	17.90074	-6.50936	-27.66478	-0.81367	20.34175	-18.71441	11.39138	78.11232	82.18067	67.53461	30.91946	-21.15542	0
34	13.83239	-8.95037	-26.03744	-0.81367	18.71441	-17.08707	12.20505	78.11232	81.367	68.34828	31.73313	-21.15542	0
35	4.88202	-8.1367	-16.2734	1.62734	8.95037	-13.01872	15.45973	80.55333	82.99434	70.78929	34.17414	-19.52808	0
36	-2.44101	-7.32303	-4.06835	2.44101	-3.25468	-7.32303	20.34175	85.43535	86.24902	74.85764	38.24249	-17.90074	0
37	-5.69569	-2.44101	5.69569	0	-11.39138	0	26.03744	91.94471	91.94471	79.73966	41.49717	-14.64606	0
38	-4.06835	6.50936	13.83239	-4.88202	-14.64606	8.1367	32.5468	97.6404	97.6404	83.80801	45.56552	-10.57771	0
39	5.69569	20.34175	14.64606	-16.2734	-8.1367	13.83239	36.61515	100.89508	101.70875	87.06269	48.8202	-5.69569	0
40	30.10579	36.61515	7.32303	-31.73313	8.1367	17.90074	39.05616	103.33609	104.14976	89.5037	50.44754	-2.44101	0
41	60.21158	51.26121	-6.50936	-44.75185	31.73313	17.90074	37.42882	101.70875	101.70875	88.69003	50.44754	-2.44101	0
42	82.18067	56.14323	-18.71441	-52.88855	52.07488	13.01872	34.17414	97.6404	96.01306	86.24902	48.8202	-4.88202	0
43	83.80801	48.8202	-26.85111	-52.88855	59.39791	4.88202	30.10579	93.57205	89.5037	82.99434	45.56552	-6.50936	0
44	65.90727	33.36047	-26.85111	-41.49717	50.44754	0	27.66478	91.13104	84.62168	80.55333	43.93818	-8.95037	0
45	39.86983	17.90074	-18.71441	-26.03744	31.73313	-1.62734	27.66478	91.13104	83.80801	78.92599	42.31084	-8.95037	0
46	20.34175	10.57771	-9.76404	-15.45973	16.2734	0	30.10579	93.57205	85.43535	79.73966	43.12451	-7.32303	0
47	13.01872	9.76404	-4.88202	-13.83239	9.76404	1.62734	31.73313	95.19939	87.87636	79.73966	43.93818	-4.88202	0
48	14.64606	13.01872	-4.06835	-17.08707	9.76404	4.06835	33.36047	96.82673	90.31737	79.73966	44.75185	-4.06835	0
49	16.2734	14.64606	-4.06835	-17.90074	9.76404	4.88202	33.36047	96.01306	90.31737	78.92599	44.75185	-4.06835	0
50	10.57771	9.76404	-3.25468	-12.20505	5.69569	3.25468	32.5468	94.38572	88.69003	78.11232	43.12451	-5.69569	0
51	1.62734	0	-2.44101	-2.44101	0.81367	1.62734	31.73313	91.94471	86.24902	75.67131	41.49717	-7.32303	0
52	-0.81367	-4.88202	-4.88202	1.62734	0	0	30.10579	87.87636	82.18067	74.04397	39.86983	-8.95037	0
53	5.69569	-1.62734	-9.76404	-2.44101	5.69569	-3.25468	28.47845	83.80801	78.11232	72.41663	37.42882	-11.39138	0
54	20.34175	4.88202	-14.64606	-13.83239	17.90074	-6.50936	26.03744	81.367	74.85764	71.60296	34.98781	-13.83239	0
55	35.80148	12.20505	-18.71441	-25.22377	30.91946	-9.76404	25.22377	81.367	73.2303	69.97562	31.73313	-16.2734	0
56	43.93818	14.64606	-21.96909	-30.91946	38.24249	-10.57771	25.22377	82.18067	73.2303	67.53461	29.29212	-18.71441	0
57	39.86983	11.39138	-21.96909	-27.66478	35.80148	-11.39138	26.03744	83.80801	74.04397	65.0936	27.66478	-19.52808	0
58	29.29212	5.69569	-20.34175	-19.52808	27.66478	-11.39138	26.03744	83.80801	73.2303	63.46626	26.03744	-21.15542	0
59	14.64606	0	-13.83239	-9.76404	15.45973	-8.95037	26.03744	84.62168	74.04397	62.65259	26.03744	-21.15542	0
60	-3.25468	-4.06835	0	-0.81367	0.81367	-3.25468	29.29212	87.06269	76.48498	65.90727	29.29212	-17.90074	0
61	-21.15542	-6.50936	13.83239	7.32303	-8.1367	3.25468	33.36047	90.31737	79.73966	69.16195	34.17414	-13.01872	0
62	-26.85111	-3.25468	21.96909	10.57771	-11.39138	9.76404	36.61515	91.94471	82.18067	73.2303	39.05616	-8.1367	0
63	-17.08707	4.06835	22.78276	4.88202	-8.95037	16.2734	41.49717	93.57205	83.80801	77.29865	43.93818	-3.25468	0
64	1.62734	12.20505	18.71441	-4.06835	-1.62734	21.96909	46.37919	95.19939	86.24902	81.367	48.00653	0	0
65	17.90074	18.71441	12.20505	-13.83239	6.50936	23.59643	48.00653	96.82673	87.87636	81.367	48.8202	0	0
66	21.96909	19.52808	5.69569	-17.08707	8.95037	20.34175	46.37919	96.01306	85.43535	78.92599	45.56552	0	0
67	16.2734	13.01872	2.44101	-10.57771	6.50936	17.90074	42.31084	96.01306	81.367	76.48498	41.49717	-1.62734	0
68	10.57771	8.1367	1.62734	-3.25468	3.25468	16.2734	39.05616	94.38572	78.11232	74.04397	37.42882	-3.25468	0
69	8.1367	8.95037	2.44101	-2.44101	1.62734	16.2734	37.42882	93.57205	76.48498	72.41663	33.36047	-4.88202	0
70	12.20505	11.39138	0	-5.69569	3.25468	13.01872	34.98781	91.13104	74.04397	69.16195	30.10579	-7.32303	0
71	21.15542	13.01872	-4.88202	-10.57771	12.20505	6.50936	30.91946	85.43535	69.16195	64.27993	26.85111	-9.76404	0
72	30.10579	12.20505	-10.57771	-15.45973	21.96909	-0.81367	26.85111	78.92599	64.27993	59.39791	25.22377	-13.01872	0
73	33.36047	9.76404	-13.83239	-17.90074	25.22377	-6.50936	24.4101	74.85764	60.21158	55.32956	23.59643	-14.64606	0
74	34.17414	8.1367	-13.83239	-19.52808	21.96909	-8.95037	24.4101	72.41663	58.58424	53.70222	23.59643	-14.64606	0
75	30.10579	4.88202	-12.20505	-18.71441	17.90074	-9.76404	26.03744	74.04397	59.39791	52.88855	23.59643	-13.83239	0
76	22.78276	1.62734	-10.57771	-14.64606	13.83239	-8.95037	27.66478	76.48498	61.02525	52.88855	23.59643	-13.83239	0
77	17.08707	0	-9.76404	-10.57771	13.01872	-8.95037	29.29212	78.11232	61.83892	52.88855	22.78276	-14.64606	0
78	10.57771	-3.25468	-8.95037	-5.69569	10.57771	-8.95037	29.29212	78.11232	61.83892	52.07488	21.15542	-16.2734	0
79	2.44101	-8.1367	-8.95037	0.81367	6.50936	-10.57771	28.47845	77.29865	60.21158	50.44754	18.71441	-18.71441	0
80	-6.50936	-14.64606	-7.32303	8.95037	0	-12.20505	26.85111	74.85764	57.77057	48.00653	16.2734	-21.96909	0
81	-18.71441	-20.34175	-4.06835	18.71441	-6.50936	-11.39138	26.03744	73.2303	56.9569	47.19286	16.2734	-21.96909	0
82	-34.17414	-24.4101	-0.81367	28.47845	-11.39138	-8.1367	26.03744	73.2303	56.14323	48.00653	17.90074	-20.34175	0
83	-41.49717	-25.22377	1.62734	32.5468	-14.64606	-4.06835	27.66478	73.2303	56.14323	49.63387	20.34175	-17.08707	0
84	-36.61515	-19.52808	4.88202	26.85111	-14.64606	-0.81367	30.10579	74.85764	56.14323	52.07488	22.78276	-13.83239	0
85	-26.85111	-10.57771	7.32303	17.08707	-13.01872	2.44101	34.17414	78.11232	57.77057	54.51589	24.4101	-10.57771	0
86	-17.08707	-1.62734	11.39138	6.50936	-12.20505	8.1367	40.6835	83.80801	60.21158	57.77057	26.85111	-6.50936	0
87	-10.57771	6.50936	16.2734	-0.81367	-13.01872	13.83239	46.37919	89.5037	62.65259	61.02525	30.10579	-3.25468	0
88	-8.1367	14.64606	21.15542	-4.88202	-14.64606	17.90074	49.63387	92.75838	64.27993	61.83892	30.91946	-0.81367	0
89	-3.25468	17.90074	19.52808	-5.69569	-13.01872	17.90074	49.63387	91.94471	63.46626	61.02525	30.10579	-2.44101	0
90	4.06835	18.71441	8.95037	-6.50936	-5.69569	12.20505	45.56552	87.06269	57.77057	56.14323	26.03744	-7.32303	0
91	8.1367	15.45973	-5.69569	-8.95037	0	3.25468	37.42882	79.73966	50.44754	49.63387	20.34175	-13.01872	0
92	5.69569	8.95037	-14.64606	-8.1367	0.81367	-3.25468	30.91946	71.60296	43.12451	43.93818	15.45973	-17.90074	0
93	0	0	-15.45973	-2.44101	0	-7.32303	25.22377	65.90727	38.24249	41.49717	13.83239	-19.52808	0
94	-4.06835	-6.50936	-13.01872	2.44101	0	-8.95037	22.78276	63.46626	35.80148	39.86983	13.01872	-20.34175	0
95	-6.50936	-8.95037	-8.95037	4.88202	0	-7.32303	23.59643	63.46626	35.80148	39.86983	13.01872	-20.34175	0
96	-5.69569	-4.06835	-4.06835	3.25468	0	-3.25468	27.66478	66.72094	37.42882	41.49717	14.64606	-18.71441	0
97	-3.25468	4.88202	0	0.81367	2.44101	2.44101	33.36047	72.41663	41.49717	44.75185	17.08707	-16.2734	0
98	-1.62734	12.20505	3.25468	-1.62734	2.44101	8.1367	38.24249	76.48498	44.75185	46.37919	19.52808	-15.45973	0
99	-2.44101	14.64606	8.1367	-3.25468	-0.81367	10.57771	39.86983	78.11232	46.37919	46.37919	20.34175	-16.2734	0
100	-5.69569	13.83239	13.01872	-3.25468	-7.32303	12.20505	39.86983	77.29865	46.37919	45.56552	21.15542	-17.08707	1000	P+0
101	-8.1367	12.20505	16.2734	-2.44101	-12.20505	13.01872	38.24249	75.67131	45.56552	43.93818	21.15542	-17.90074	0
102	-10.57771	9.76404	17.90074	0	-16.2734	13.01872	36.61515	73.2303	43.93818	43.93818	21.96909	-17.90074	0
103	-17.08707	4.88202	19.52808	4.06835	-20.34175	12.20505	34.17414	69.97562	40.6835	43.12451	21.96909	-17.90074	0
104	-26.03744	-4.06835	19.52808	13.83239	-23.59643	8.1367	31.73313	65.90727	36.61515	39.86983	19.52808	-19.52808	0
105	-35.80148	-16.2734	14.64606	25.22377	-26.03744	-0.81367	27.66478	61.02525	30.10579	34.17414	13.83239	-22.78276	0
106	-44.75185	-26.85111	6.50936	38.24249	-25.22377	-13.01872	20.34175	55.32956	23.59643	25.22377	4.88202	-27.66478	0
107	-46.37919	-36.61515	-4.06835	45.56552	-20.34175	-25.22377	13.83239	50.44754	19.52808	16.2734	-4.06835	-32.5468	0
108	-33.36047	-36.61515	-13.83239	38.24249	-9.76404	-30.10579	9.76404	48.8202	17.90074	12.20505	-8.95037	-34.17414	0
109	-13.83239	-24.4101	-20.34175	20.34175	3.25468	-25.22377	12.20505	51.26121	18.71441	13.83239	-7.32303	-31.73313	0
110	4.88202	-8.1367	-19.52808	-0.81367	13.83239	-14.64606	17.90074	56.9569	21.96909	19.52808	-1.62734	-24.4101	0
111	18.71441	6.50936	-13.01872	-20.34175	17.08707	0	26.85111	65.0936	27.66478	28.47845	8.1367	-13.83239	0
112	26.85111	19.52808	-1.62734	-31.73313	15.45973	14.64606	36.61515	73.2303	34.98781	38.24249	18.71441	-2.44101	0
113	28.47845	27.66478	7.32303	-37.42882	10.57771	25.22377	43.93818	78.11232	39.86983	46.37919	28.47845	5.69569	0
114	26.85111	32.5468	16.2734	-38.24249	3.25468	29.29212	48.8202	79.73966	41.49717	50.44754	33.36047	10.57771	0
115	25.22377	35.80148	23.59643	-37.42882	-5.69569	30.10579	51.26121	80.55333	41.49717	52.07488	35.80148	13.01872	0
116	18.71441	35.80148	29.29212	-32.5468	-13.01872	30.10579	52.07488	82.18067	42.31084	51.26121	34.98781	13.83239	0
117	5.69569	30.10579	31.73313	-21.15542	-19.52808	27.66478	51.26121	82.18067	42.31084	48.8202	31.73313	12.20505	0
118	-8.1367	19.52808	31.73313	-7.32303	-24.4101	22.78276	47.19286	80.55333	39.86983	43.93818	26.85111	8.1367	0
119	-18.71441	8.95037	28.47845	2.44101	-26.85111	17.08707	42.31084	76.48498	36.61515	39.05616	20.34175	2.44101	0
120	-24.4101	0.81367	25.22377	8.95037	-26.03744	11.39138	37.42882	72.41663	32.5468	34.17414	15.45973	-0.81367	0
121	-23.59643	-2.44101	21.96909	11.39138	-23.59643	7.32303	34.17414	67.53461	28.47845	30.10579	11.39138	-3.25468	0
122	-18.71441	-1.62734	19.52808	8.95037	-18.71441	4.88202	33.36047	64.27993	25.22377	28.47845	9.76404	-4.06835	0
123	-13.01872	0	17.08707	2.44101	-13.83239	4.06835	34.98781	61.83892	23.59643	28.47845	9.76404	-5.69569	0
124	-7.32303	4.06835	13.01872	-3.25468	-8.1367	4.88202	37.42882	61.02525	22.78276	29.29212	11.39138	-7.32303	0
125	-4.06835	4.88202	7.32303	-5.69569	-3.25468	4.06835	37.42882	61.02525	22.78276	29.29212	10.57771	-8.95037	0
126	-1.62734	0	-0.81367	-4.88202	1.62734	-0.81367	34.98781	59.39791	21.15542	26.03744	6.50936	-13.83239	0
127	0	-7.32303	-11.39138	-4.06835	7.32303	-8.95037	29.29212	55.32956	17.08707	20.34175	0	-19.52808	0
128	2.44101	-14.64606	-20.34175	-1.62734	11.39138	-17.08707	24.4101	52.07488	13.01872	14.64606	-3.25468	-21.15542	0
129	3.25468	-16.2734	-24.4101	0	12.20505	-18.71441	22.78276	51.26121	13.01872	13.01872	0	-17.08707	0
130	2.44101	-13.01872	-25.22377	0	8.95037	-14.64606	24.4101	53.70222	15.45973	14.64606	4.06835	-11.39138	0
131	0	-8.1367	-24.4101	0	4.88202	-13.01872	24.4101	52.88855	15.45973	16.2734	4.88202	-8.1367	0
132	-0.81367	-5.69569	-22.78276	1.62734	1.62734	-15.45973	21.15542	48.8202	12.20505	14.64606	0.81367	-7.32303	0
133	-3.25468	-5.69569	-19.52808	3.25468	0	-17.08707	18.71441	45.56552	9.76404	14.64606	-0.81367	-7.32303	0
134	-1.62734	-3.25468	-13.83239	1.62734	0	-13.01872	21.15542	47.19286	13.01872	17.90074	0.81367	-6.50936	0
135	7.32303	2.44101	-6.50936	-8.95037	4.06835	-4.88202	28.47845	54.51589	19.52808	24.4101	6.50936	-2.44101	0
136	22.78276	10.57771	0.81367	-26.85111	9.76404	3.25468	36.61515	63.46626	27.66478	31.73313	11.39138	1.62734	0
137	31.73313	17.90074	7.32303	-38.24249	11.39138	11.39138	43.12451	71.60296	34.98781	37.42882	15.45973	6.50936	0
138	24.4101	16.2734	11.39138	-32.5468	7.32303	13.01872	44.75185	74.85764	37.42882	38.24249	17.08707	9.76404	0
139	8.95037	5.69569	12.20505	-14.64606	-0.81367	7.32303	40.6835	72.41663	34.98781	34.98781	17.08707	10.57771	0
140	-5.69569	-4.06835	12.20505	2.44101	-7.32303	2.44101	36.61515	68.34828	31.73313	31.73313	15.45973	9.76404	0
141	-19.52808	-12.20505	13.01872	16.2734	-12.20505	3.25468	35.80148	66.72094	31.73313	32.5468	15.45973	9.76404	0
142	-30.91946	-16.2734	17.08707	24.4101	-17.08707	5.69569	37.42882	66.72094	32.5468	35.80148	17.08707	11.39138	0
143	-39.05616	-17.08707	21.96909	28.47845	-20.34175	8.1367	39.05616	66.72094	34.17414	39.05616	19.52808	13.83239	0
144	-40.6835	-17.08707	22.78276	28.47845	-20.34175	7.32303	39.05616	65.90727	34.98781	40.6835	20.34175	14.64606	0
145	-34.98781	-18.71441	13.83239	26.03744	-16.2734	3.25468	38.24249	65.90727	34.17414	39.86983	18.71441	13.83239	0
146	-25.22377	-21.15542	-1.62734	19.52808	-7.32303	-1.62734	37.42882	66.72094	34.17414	38.24249	15.45973	10.57771	0
147	-13.01872	-18.71441	-18.71441	9.76404	0	-6.50936	34.98781	68.34828	33.36047	35.80148	11.39138	6.50936	0
148	-3.25468	-12.20505	-26.03744	2.44101	4.88202	-9.76404	34.17414	69.16195	34.98781	34.17414	8.1367	4.06835	0
149	0	-5.69569	-20.34175	0	4.06835	-7.32303	35.80148	72.41663	37.42882	36.61515	9.76404	4.06835	0
150	-0.81367	-0.81367	-6.50936	0	-2.44101	-0.81367	39.86983	76.48498	42.31084	40.6835	13.83239	6.50936	0
151	-4.88202	1.62734	5.69569	0	-9.76404	5.69569	43.12451	79.73966	45.56552	45.56552	19.52808	9.76404	0
152	-11.39138	3.25468	17.08707	1.62734	-16.2734	12.20505	45.56552	81.367	48.00653	49.63387	25.22377	13.01872	0
153	-17.90074	2.44101	22.78276	5.69569	-23.59643	14.64606	46.37919	81.367	48.8202	52.88855	29.29212	14.64606	0
154	-21.96909	-1.62734	21.15542	9.76404	-26.03744	10.57771	45.56552	78.92599	47.19286	52.07488	28.47845	13.01872	0
155	-21.96909	-9.76404	13.83239	15.45973	-23.59643	3.25468	43.12451	74.85764	43.93818	48.8202	24.4101	7.32303	0
156	-19.52808	-19.52808	6.50936	22.78276	-21.15542	-4.88202	40.6835	72.41663	40.6835	44.75185	17.90074	1.62734	0
157	-14.64606	-29.29212	1.62734	28.47845	-16.2734	-11.39138	38.24249	71.60296	38.24249	41.49717	12.20505	-4.88202	0
158	-9.76404	-38.24249	-0.81367	30.10579	-5.69569	-17.08707	35.80148	69.97562	37.42882	38.24249	6.50936	-12.20505	0
159	-6.50936	-41.49717	-2.44101	28.47845	4.06835	-21.96909	32.5468	67.53461	34.98781	34.98781	2.44101	-16.2734	0
160	-4.88202	-35.80148	-1.62734	22.78276	11.39138	-21.15542	32.5468	67.53461	35.80148	35.80148	3.25468	-13.83239	0
161	0	-22.78276	0	13.83239	14.64606	-14.64606	35.80148	69.97562	39.86983	39.86983	8.95037	-4.88202	0
162	12.20505	-9.76404	0	4.06835	17.90074	-7.32303	39.05616	72.41663	43.93818	45.56552	15.45973	2.44101	0
163	21.96909	0	0	-4.06835	19.52808	-2.44101	41.49717	74.04397	46.37919	49.63387	21.15542	9.76404	0
164	22.78276	5.69569	0	-8.95037	16.2734	0	43.12451	75.67131	48.8202	53.70222	24.4101	14.64606	0
165	15.45973	6.50936	-4.06835	-8.1367	10.57771	0.81367	44.75185	78.92599	51.26121	56.14323	26.85111	17.08707	0
166	8.1367	4.88202	-7.32303	-4.88202	5.69569	0	45.56552	82.18067	52.88855	56.14323	26.03744	17.08707	0
167	4.06835	3.25468	-11.39138	-1.62734	4.88202	-4.06835	43.93818	85.43535	53.70222	55.32956	22.78276	15.45973	0
168	3.25468	2.44101	-15.45973	-1.62734	5.69569	-7.32303	42.31084	86.24902	55.32956	52.88855	19.52808	13.83239	0
169	4.06835	2.44101	-17.90074	-5.69569	5.69569	-8.95037	42.31084	87.06269	56.14323	52.88855	17.90074	13.01872	0
170	4.06835	3.25468	-16.2734	-8.1367	4.88202	-7.32303	42.31084	87.87636	57.77057	53.70222	17.90074	13.83239	0
171	2.44101	4.06835	-8.95037	-7.32303	0	-4.06835	44.75185	87.87636	59.39791	56.14323	21.15542	16.2734	0
172	-4.06835	3.25468	0.81367	-1.62734	-5.69569	0	46.37919	87.06269	60.21158	59.39791	26.03744	19.52808	0
173	-12.20505	0.81367	8.95037	3.25468	-12.20505	1.62734	47.19286	86.24902	61.02525	62.65259	30.91946	22.78276	0
174	-17.90074	-1.62734	12.20505	9.76404	-16.2734	4.06835	48.8202	87.06269	62.65259	65.0936	33.36047	25.22377	0
175	-23.59643	-4.06835	12.20505	15.45973	-18.71441	4.06835	50.44754	89.5037	64.27993	66.72094	34.17414	26.03744	0
176	-26.85111	-4.88202	9.76404	20.34175	-18.71441	2.44101	51.26121	92.75838	66.72094	67.53461	33.36047	25.22377	0
177	-28.47845	-6.50936	10.57771	21.15542	-19.52808	0	52.07488	97.6404	69.97562	68.34828	32.5468	23.59643	0
178	-26.85111	-4.88202	13.01872	18.71441	-20.34175	-2.44101	53.70222	102.52242	74.85764	69.97562	32.5468	21.96909	0
179	-17.08707	-2.44101	9.76404	10.57771	-14.64606	-4.88202	53.70222	104.14976	76.48498	70.78929	31.73313	19.52808	0
180	-0.81367	0	0	0	-1.62734	-7.32303	49.63387	100.08141	73.2303	67.53461	27.66478	17.08707	0
181	13.83239	1.62734	-13.01872	-8.1367	12.20505	-10.57771	43.93818	94.38572	69.16195	64.27993	25.22377	16.2734	0
182	24.4101	1.62734	-22.78276	-13.83239	21.96909	-11.39138	38.24249	88.69003	65.0936	61.83892	23.59643	15.45973	0
183	26.03744	0	-30.10579	-12.20505	26.85111	-11.39138	32.5468	85.43535	63.46626	60.21158	22.78276	15.45973	0
184	18.71441	-2.44101	-32.5468	-4.06835	25.22377	-9.76404	26.85111	84.62168	65.0936	58.58424	21.15542	14.64606	0
185	9.76404	-4.88202	-29.29212	4.06835	18.71441	-8.1367	26.03744	87.06269	67.53461	60.21158	22.78276	16.2734	0
186	2.44101	-6.50936	-21.96909	10.57771	12.20505	-7.32303	27.66478	91.13104	72.41663	65.90727	26.85111	21.15542	0
187	-2.44101	-8.95037	-15.45973	13.83239	7.32303	-7.32303	30.10579	96.82673	78.92599	73.2303	31.73313	26.85111	0
188	-8.95037	-14.64606	-9.76404	17.08707	3.25468	-9.76404	29.29212	100.08141	83.80801	78.11232	34.98781	31.73313	0
189	-16.2734	-21.15542	-6.50936	21.96909	-0.81367	-11.39138	26.03744	100.89508	85.43535	80.55333	36.61515	33.36047	0
190	-21.96909	-30.10579	-7.32303	26.85111	-4.88202	-15.45973	19.52808	96.82673	82.18067	78.11232	36.61515	32.5468	0
191	-24.4101	-37.42882	-11.39138	30.10579	-4.88202	-21.15542	11.39138	87.06269	74.04397	73.2303	36.61515	30.91946	0
192	-17.08707	-34.17414	-16.2734	25.22377	0	-24.4101	3.25468	77.29865	66.72094	69.16195	34.98781	32.5468	0
193	0	-20.34175	-21.15542	8.95037	9.76404	-26.03744	-1.62734	68.34828	61.02525	67.53461	32.5468	37.42882	0
194	23.59643	-4.88202	-30.91946	-9.76404	26.85111	-26.85111	-4.06835	61.02525	54.51589	63.46626	29.29212	40.6835	0
195	45.56552	4.88202	-44.75185	-26.85111	43.12451	-26.85111	-4.88202	55.32956	48.8202	58.58424	26.03744	42.31084	0
196	60.21158	8.95037	-60.21158	-39.05616	56.9569	-28.47845	-4.06835	54.51589	46.37919	55.32956	23.59643	42.31084	0
197	68.34828	6.50936	-73.2303	-43.12451	66.72094	-30.91946	-1.62734	58.58424	48.8202	55.32956	22.78276	43.12451	0
198	71.60296	2.44101	-78.11232	-41.49717	70.78929	-31.73313	3.25468	66.72094	56.14323	60.21158	25.22377	45.56552	0
199	69.97562	0.81367	-74.85764	-39.05616	69.16195	-31.73313	11.39138	75.67131	65.90727	67.53461	30.91946	50.44754	0
200	69.16195	4.06835	-67.53461	-39.05616	65.90727	-27.66478	18.71441	83.80801	74.85764	76.48498	38.24249	56.14323	0
201	69.16195	9.76404	-58.58424	-41.49717	61.83892	-21.15542	24.4101	88.69003	82.99434	84.62168	46.37919	62.65259	0
202	69.16195	17.08707	-47.19286	-46.37919	56.9569	-11.39138	25.22377	91.13104	88.69003	91.94471	55.32956	69.97562	0
203	64.27993	22.78276	-34.17414	-47.19286	48.00653	-1.62734	24.4101	91.13104	92.75838	96.82673	61.83892	76.48498	0
204	52.88855	26.85111	-21.96909	-42.31084	37.42882	4.06835	21.96909	91.13104	94.38572	100.08141	65.90727	79.73966	0
205	46.37919	32.5468	-17.08707	-39.05616	31.73313	6.50936	17.90074	91.94471	96.01306	102.52242	66.72094	78.92599	0
206	55.32956	39.05616	-23.59643	-45.56552	39.86983	5.69569	13.01872	95.19939	97.6404	103.33609	65.90727	75.67131	0
207	74.85764	43.93818	-37.42882	-57.77057	56.14323	1.62734	8.1367	100.08141	100.89508	104.96343	65.0936	73.2303	0
208	93.57205	46.37919	-50.44754	-69.16195	72.41663	-0.81367	4.06835	104.96343	105.7771	106.59077	65.90727	72.41663	0
209	105.7771	47.19286	-56.9569	-75.67131	82.18067	-3.25468	1.62734	109.84545	110.65912	110.65912	69.16195	74.04397	0
210	110.65912	46.37919	-56.9569	-77.29865	87.06269	-4.88202	1.62734	112.28646	113.9138	114.72747	73.2303	78.11232	0
211	111.47279	44.75185	-56.9569	-76.48498	87.87636	-6.50936	1.62734	113.9138	116.35481	118.79582	78.11232	81.367	0
212	110.65912	43.93818	-57.77057	-75.67131	87.06269	-8.95037	1.62734	114.72747	118.79582	122.0505	82.18067	85.43535	0
213	108.21811	44.75185	-55.32956	-74.85764	85.43535	-8.1367	4.06835	114.72747	121.23683	126.93252	86.24902	88.69003	0
214	106.59077	45.56552	-50.44754	-72.41663	81.367	-5.69569	8.95037	115.54114	124.49151	131.00087	89.5037	90.31737	0
215	106.59077	46.37919	-46.37919	-69.97562	76.48498	-1.62734	13.83239	117.16848	126.11885	132.62821	91.13104	90.31737	0
216	108.21811	52.07488	-42.31084	-69.97562	74.04397	3.25468	21.15542	122.0505	130.1872	134.25555	92.75838	90.31737	0
217	108.21811	64.27993	-34.17414	-71.60296	69.16195	14.64606	32.5468	129.37353	135.88289	137.51023	94.38572	91.13104	0
218	100.08141	74.85764	-18.71441	-71.60296	57.77057	28.47845	44.75185	137.51023	142.39225	140.76491	96.01306	92.75838	0
219	82.18067	78.92599	-0.81367	-69.16195	39.86983	39.86983	52.88855	140.76491	144.83326	140.76491	95.19939	91.13104	0
220	61.02525	74.04397	13.83239	-61.02525	21.15542	44.75185	57.77057	138.3239	142.39225	136.69656	91.13104	85.43535	0
221	37.42882	65.0936	26.03744	-48.8202	3.25468	45.56552	61.02525	133.44188	136.69656	130.1872	84.62168	78.92599	0
222	16.2734	51.26121	34.98781	-31.73313	-11.39138	43.12451	62.65259	126.11885	128.55986	122.86417	76.48498	69.97562	0
223	0	32.5468	36.61515	-13.01872	-22.78276	34.98781	61.02525	116.35481	117.98215	113.10013	66.72094	58.58424	0
224	-8.1367	13.83239	30.10579	0	-24.4101	22.78276	56.9569	106.59077	107.40444	102.52242	56.14323	48.00653	0
225	-9.76404	2.44101	17.90074	5.69569	-18.71441	11.39138	53.70222	101.70875	100.08141	94.38572	48.00653	40.6835	0
226	-4.06835	-0.81367	4.88202	4.06835	-7.32303	3.25468	50.44754	100.89508	96.82673	90.31737	43.12451	38.24249	0
227	4.88202	0	-4.88202	-1.62734	2.44101	-0.81367	48.00653	102.52242	97.6404	88.69003	43.12451	39.05616	0
228	13.83239	4.06835	-11.39138	-9.76404	10.57771	-0.81367	43.93818	104.14976	100.89508	90.31737	43.93818	40.6835	0
229	17.90074	8.1367	-11.39138	-13.83239	13.01872	0.81367	39.05616	107.40444	106.59077	93.57205	44.75185	42.31084	0
230	17.90074	10.57771	-8.95037	-15.45973	12.20505	4.88202	34.17414	109.84545	110.65912	97.6404	45.56552	43.93818	0
231	18.71441	17.90074	-4.88202	-20.34175	10.57771	8.95037	32.5468	111.47279	113.9138	102.52242	50.44754	46.37919	0
232	21.15542	30.10579	-3.25468	-30.91946	9.76404	15.45973	33.36047	112.28646	117.98215	108.21811	56.9569	50.44754	0
233	25.22377	39.05616	-1.62734	-39.05616	8.95037	18.71441	34.17414	113.10013	120.42316	113.9138	63.46626	54.51589	0
234	27.66478	41.49717	-0.81367	-39.86983	8.95037	19.52808	35.80148	112.28646	121.23683	116.35481	67.53461	56.14323	0
235	26.85111	39.86983	0	-34.98781	8.95037	17.90074	37.42882	113.10013	122.0505	116.35481	67.53461	56.14323	0
236	23.59643	37.42882	0.81367	-30.10579	8.1367	17.08707	39.86983	115.54114	123.67784	117.16848	67.53461	55.32956	0
237	21.96909	34.17414	4.88202	-26.85111	7.32303	18.71441	43.93818	119.60949	128.55986	118.79582	68.34828	56.14323	0
238	21.15542	33.36047	8.1367	-26.85111	6.50936	21.15542	47.19286	122.86417	132.62821	122.0505	69.16195	58.58424	0
239	21.96909	34.98781	12.20505	-27.66478	4.88202	23.59643	48.00653	124.49151	135.06922	123.67784	70.78929	61.02525	0
240	21.96909	39.86983	14.64606	-32.5468	4.88202	27.66478	45.56552	120.42316	134.25555	124.49151	74.04397	64.27993	0
241	21.96909	46.37919	16.2734	-39.05616	5.69569	31.73313	36.61515	107.40444	129.37353	125.30518	78.92599	69.16195	0
242	21.15542	54.51589	22.78276	-43.12451	3.25468	39.05616	22.78276	86.24902	122.86417	129.37353	91.13104	78.92599	0
243	15.45973	64.27993	38.24249	-44.75185	-7.32303	51.26121	2.44101	54.51589	114.72747	139.13757	111.47279	94.38572	0
244	6.50936	76.48498	61.83892	-44.75185	-25.22377	65.90727	-23.59643	11.39138	103.33609	150.52895	140.76491	117.16848	0
245	0	93.57205	86.24902	-49.63387	-41.49717	79.73966	-56.9569	-43.93818	89.5037	160.29299	175.75272	144.83326	0
246	-8.1367	104.14976	104.14976	-51.26121	-53.70222	90.31737	-93.57205	-109.84545	67.53461	165.98868	206.67218	170.05703	0
247	-17.08707	96.82673	105.7771	-43.93818	-58.58424	90.31737	-128.55986	-181.44841	36.61515	168.42969	223.75925	184.70309	0
248	-22.78276	73.2303	87.87636	-29.29212	-52.07488	74.04397	-154.5973	-246.54201	6.50936	169.24336	226.20026	187.1441	0
249	-27.66478	39.05616	55.32956	-11.39138	-36.61515	43.93818	-174.12538	-298.61689	-16.2734	169.24336	218.87723	179.0074	0
250	-30.10579	0	18.71441	4.88202	-19.52808	8.1367	-189.58511	-343.36874	-37.42882	165.17501	205.85851	166.80235	0
251	-31.73313	-34.98781	-12.20505	17.90074	-5.69569	-23.59643	-209.11319	-393.00261	-63.46626	152.96996	191.21245	156.22464	0
252	-26.03744	-61.02525	-41.49717	26.03744	8.95037	-50.44754	-244.91467	-461.35089	-100.89508	132.62821	180.63474	152.96996	0
253	-3.25468	-71.60296	-72.41663	24.4101	34.98781	-71.60296	-309.1946	-561.4323	-150.52895	112.28646	182.26208	164.36134	0
254	37.42882	-65.90727	-106.59077	5.69569	72.41663	-85.43535	-405.20766	-697.31519	-207.48585	99.26774	200.97649	192.83979	0
255	93.57205	-47.19286	-142.39225	-26.85111	117.16848	-93.57205	-530.51284	-868.18589	-271.76578	96.01306	235.9643	236.77797	0
256	159.47932	-17.90074	-179.0074	-71.60296	168.42969	-96.82673	-670.46408	-1057.771	-337.67305	100.89508	282.34349	290.48019	0
257	227.8276	14.64606	-213.99521	-122.0505	220.50457	-97.6404	-803.90596	-1228.6417	-393.00261	111.47279	329.53635	348.25076	0
258	295.36221	44.75185	-248.16935	-171.68437	270.95211	-98.45407	-918.63343	-1352.31954	-432.87244	116.35481	365.33783	403.58032	0
259	359.64214	65.90727	-283.97083	-211.5542	320.58598	-102.52242	-1019.52851	-1427.17718	-463.7919	101.70875	376.72921	445.89116	0
260	412.53069	80.55333	-321.39965	-235.15063	366.1515	-113.9138	-1119.60992	-1465.41967	-495.52503	54.51589	351.50544	467.04658	0
261	443.45015	78.92599	-358.82847	-244.101	401.95298	-135.06922	-1215.62298	-1480.06573	-535.39486	-32.5468	281.52982	454.84153	0
262	452.40052	53.70222	-398.6983	-239.21898	424.73574	-168.42969	-1298.61732	-1475.99738	-585.8424	-159.47932	162.734	402.76665	0
263	447.5185	12.20505	-433.68611	-221.31824	436.12712	-211.5542	-1367.77927	-1459.72398	-652.56334	-314.07662	8.95037	317.3313	0
264	432.05877	-35.80148	-457.28254	-193.65346	441.82281	-253.05137	-1427.17718	-1451.58728	-742.06704	-480.87897	-151.34262	218.06356	0
265	401.95298	-83.80801	-469.48759	-157.03831	436.12712	-286.41184	-1472.7427	-1470.30169	-859.23552	-646.86765	-297.80322	121.23683	0
266	352.31911	-124.49151	-462.97823	-113.9138	409.27601	-301.0579	-1496.33913	-1524.00391	-1003.25511	-807.16064	-420.66739	35.80148	0
267	288.85285	-148.90161	-428.80409	-71.60296	361.26948	-292.9212	-1495.52546	-1592.35219	-1160.29342	-951.18023	-509.35742	-31.73313	0
268	221.31824	-156.22464	-372.66086	-34.17414	297.80322	-265.25642	-1471.92903	-1650.12276	-1305.12668	-1063.46669	-563.05964	-80.55333	0
269	157.03831	-146.4606	-301.87157	-6.50936	229.45494	-223.75925	-1419.85415	-1689.17892	-1404.39442	-1130.18763	-589.09708	-107.40444	0
270	102.52242	-123.67784	-226.20026	8.95037	163.54767	-174.93905	-1335.23247	-1687.55158	-1434.50021	-1141.57901	-590.72442	-118.79582	0
271	58.58424	-95.19939	-154.5973	17.90074	105.7771	-124.49151	-1217.25032	-1620.83064	-1392.18937	-1099.26817	-564.68698	-121.23683	0
272	22.78276	-68.34828	-93.57205	21.96909	57.77057	-80.55333	-1074.85807	-1490.64344	-1290.48062	-1014.64649	-519.93513	-118.79582	0
273	-2.44101	-47.19286	-47.19286	25.22377	21.15542	-47.19286	-917.81976	-1318.1454	-1148.08837	-903.98737	-463.7919	-111.47279	0
274	-21.15542	-34.17414	-14.64606	26.03744	-3.25468	-24.4101	-758.34044	-1123.67827	-986.98171	-781.93687	-405.20766	-102.52242	0
275	-37.42882	-25.22377	9.76404	26.03744	-24.4101	-6.50936	-603.74314	-922.70178	-816.92468	-653.37701	-344.18241	-96.01306	0
276	-52.07488	-12.20505	36.61515	25.22377	-44.75185	8.1367	-458.90988	-723.35263	-646.86765	-523.18981	-279.08881	-87.87636	0
277	-61.02525	1.62734	61.83892	23.59643	-61.83892	17.90074	-327.09534	-537.0222	-484.94732	-397.88463	-213.18154	-74.85764	0
278	-58.58424	12.20505	70.78929	18.71441	-65.0936	22.78276	-216.43622	-375.10187	-343.36874	-288.03918	-155.41097	-62.65259	0
279	-38.24249	17.08707	56.14323	7.32303	-48.00653	21.15542	-130.1872	-242.47366	-227.01393	-197.72181	-109.03178	-53.70222	0
280	-10.57771	17.90074	29.29212	-4.88202	-21.15542	13.83239	-64.27993	-136.69656	-133.44188	-123.67784	-71.60296	-47.19286	0
281	9.76404	17.08707	6.50936	-14.64606	0	5.69569	-16.2734	-55.32956	-61.83892	-65.0936	-40.6835	-40.6835	0
282	19.52808	14.64606	-6.50936	-19.52808	12.20505	0.81367	15.45973	0	-10.57771	-21.96909	-17.08707	-36.61515	0
283	21.15542	13.83239	-13.01872	-21.15542	16.2734	-0.81367	34.98781	37.42882	22.78276	7.32303	0	-34.17414	0
284	19.52808	13.83239	-15.45973	-20.34175	14.64606	-1.62734	48.00653	62.65259	46.37919	28.47845	10.57771	-32.5468	0
285	17.08707	14.64606	-12.20505	-19.52808	11.39138	0.81367	57.77057	84.62168	65.90727	43.93818	18.71441	-30.91946	0
286	13.83239	17.08707	-4.88202	-18.71441	6.50936	6.50936	67.53461	105.7771	83.80801	58.58424	24.4101	-29.29212	0
287	7.32303	18.71441	4.06835	-13.83239	0	12.20505	76.48498	126.11885	101.70875	70.78929	30.10579	-27.66478	0
288	-8.1367	14.64606	13.83239	-0.81367	-13.01872	13.83239	83.80801	143.20592	117.98215	81.367	34.17414	-26.85111	0
289	-27.66478	5.69569	21.15542	13.83239	-27.66478	13.01872	89.5037	157.85198	131.00087	90.31737	37.42882	-26.03744	0
290	-34.17414	4.06835	26.85111	17.08707	-34.17414	12.20505	97.6404	173.31171	144.83326	102.52242	44.75185	-25.22377	0
291	-18.71441	14.64606	24.4101	3.25468	-25.22377	12.20505	106.59077	187.1441	159.47932	115.54114	53.70222	-22.78276	0
292	8.95037	27.66478	13.01872	-17.08707	-4.06835	14.64606	112.28646	197.72181	169.24336	126.11885	61.02525	-18.71441	0
293	34.98781	37.42882	-0.81367	-35.80148	17.08707	19.52808	116.35481	205.04484	177.38006	133.44188	66.72094	-14.64606	0
294	44.75185	41.49717	-4.88202	-43.12451	24.4101	25.22377	121.23683	213.99521	186.33043	142.39225	72.41663	-9.76404	0
295	36.61515	36.61515	0.81367	-38.24249	17.08707	29.29212	129.37353	227.8276	198.53548	152.96996	78.92599	-4.88202	0
296	22.78276	26.03744	8.95037	-29.29212	5.69569	30.91946	137.51023	243.28733	209.92686	161.92033	83.80801	-2.44101	0
297	7.32303	16.2734	17.08707	-19.52808	-5.69569	31.73313	142.39225	257.11972	221.31824	168.42969	86.24902	-2.44101	0
298	-8.1367	14.64606	27.66478	-14.64606	-17.90074	30.10579	147.27427	268.5111	231.89595	174.93905	87.87636	-2.44101	0
299	-17.08707	17.90074	31.73313	-13.01872	-23.59643	30.10579	152.15629	278.27514	240.03265	182.26208	91.94471	-1.62734	0
300	-20.34175	18.71441	32.5468	-10.57771	-25.22377	31.73313	157.85198	283.97083	245.72834	188.77144	96.82673	0	0
301	-16.2734	13.01872	31.73313	-7.32303	-29.29212	29.29212	158.66565	285.59817	248.16935	191.21245	98.45407	-0.81367	0
302	-8.1367	4.88202	25.22377	-5.69569	-26.03744	20.34175	155.41097	284.7845	248.16935	189.58511	96.01306	-4.88202	0
303	3.25468	0.81367	8.1367	-6.50936	-10.57771	7.32303	151.34262	282.34349	246.54201	185.51676	91.94471	-11.39138	0
304	18.71441	2.44101	-10.57771	-13.83239	9.76404	-2.44101	148.08794	280.71615	245.72834	182.26208	87.87636	-16.2734	0
305	34.17414	8.1367	-26.85111	-24.4101	30.10579	-6.50936	148.08794	283.97083	247.35568	183.07575	87.87636	-17.90074	0
306	48.00653	15.45973	-32.5468	-31.73313	43.12451	-1.62734	153.78363	294.54854	254.67871	189.58511	91.13104	-16.2734	0
307	56.14323	23.59643	-28.47845	-37.42882	45.56552	4.88202	160.29299	306.75359	265.25642	196.90814	93.57205	-13.83239	0
308	53.70222	28.47845	-19.52808	-38.24249	39.05616	10.57771	165.17501	316.51763	272.57945	202.60383	95.19939	-13.83239	0
309	45.56552	28.47845	-9.76404	-34.98781	30.10579	12.20505	165.98868	323.02699	276.6478	205.04484	96.01306	-13.83239	0
310	36.61515	26.03744	-3.25468	-30.10579	21.96909	13.01872	165.17501	324.65433	277.46147	205.85851	97.6404	-14.64606	0
311	30.91946	24.4101	0	-25.22377	17.08707	13.01872	164.36134	323.84066	276.6478	206.67218	99.26774	-15.45973	0
312	28.47845	23.59643	1.62734	-22.78276	14.64606	13.01872	162.734	321.39965	276.6478	208.29952	101.70875	-14.64606	0
313	26.85111	25.22377	3.25468	-21.96909	13.01872	15.45973	164.36134	321.39965	277.46147	211.5542	106.59077	-12.20505	0
314	25.22377	26.85111	6.50936	-21.96909	10.57771	18.71441	167.61602	323.84066	279.90248	215.62255	111.47279	-9.76404	0
315	21.96909	29.29212	8.95037	-22.78276	8.95037	21.15542	173.31171	329.53635	283.97083	219.6909	113.9138	-7.32303	0
316	20.34175	30.10579	10.57771	-23.59643	8.95037	22.78276	177.38006	338.48672	288.85285	222.13191	114.72747	-5.69569	0
317	20.34175	33.36047	13.01872	-26.85111	11.39138	24.4101	181.44841	349.06443	294.54854	224.57292	115.54114	-4.06835	0
318	21.96909	39.05616	15.45973	-32.5468	12.20505	28.47845	183.88942	358.0148	300.24423	227.01393	116.35481	-2.44101	0
319	22.78276	44.75185	18.71441	-36.61515	9.76404	31.73313	183.88942	362.08315	305.12625	229.45494	117.98215	0	0
320	24.4101	48.00653	20.34175	-39.05616	8.95037	34.17414	180.63474	362.89682	307.56726	231.08228	118.79582	0	0
321	26.85111	49.63387	17.08707	-39.86983	8.1367	34.98781	178.19373	361.26948	307.56726	232.70962	119.60949	0	0
322	28.47845	50.44754	10.57771	-40.6835	7.32303	34.98781	179.82107	359.64214	305.93992	233.52329	121.23683	1.62734	1500	QRS+0
323	29.29212	49.63387	4.06835	-40.6835	7.32303	32.5468	183.07575	356.38746	303.49891	233.52329	122.86417	4.06835	0
324	31.73313	46.37919	0	-39.86983	11.39138	28.47845	184.70309	353.94645	301.0579	231.08228	122.0505	4.06835	0
325	38.24249	42.31084	-1.62734	-39.05616	18.71441	24.4101	184.70309	353.13278	298.61689	228.64127	118.79582	1.62734	0
326	43.93818	37.42882	-4.88202	-38.24249	25.22377	18.71441	184.70309	354.76012	297.80322	225.38659	114.72747	-0.81367	0
327	49.63387	34.17414	-9.76404	-39.86983	31.73313	13.83239	183.88942	357.20113	298.61689	222.94558	110.65912	-4.06835	0
328	51.26121	31.73313	-11.39138	-41.49717	33.36047	12.20505	183.88942	359.64214	300.24423	222.13191	108.21811	-5.69569	0
329	43.12451	30.10579	-6.50936	-38.24249	28.47845	13.83239	184.70309	362.08315	303.49891	222.13191	108.21811	-6.50936	0
330	30.10579	28.47845	2.44101	-30.91946	21.96909	17.08707	187.1441	363.71049	305.93992	222.94558	109.03178	-6.50936	0
331	22.78276	31.73313	10.57771	-28.47845	16.2734	21.15542	189.58511	364.52416	306.75359	224.57292	110.65912	-5.69569	0
332	24.4101	39.86983	13.83239	-32.5468	13.01872	27.66478	194.46713	366.1515	307.56726	229.45494	113.9138	-2.44101	0
333	26.03744	45.56552	15.45973	-36.61515	8.95037	34.98781	199.34915	368.59251	309.1946	234.33696	118.79582	1.62734	0
334	26.03744	48.8202	16.2734	-38.24249	4.88202	39.86983	204.23117	370.21985	310.82194	237.59164	122.86417	6.50936	0
335	26.03744	49.63387	19.52808	-39.05616	0.81367	42.31084	206.67218	372.66086	313.26295	239.21898	124.49151	8.95037	0
336	27.66478	49.63387	22.78276	-39.05616	-2.44101	43.12451	207.48585	376.72921	314.89029	239.21898	124.49151	8.1367	0
337	27.66478	48.00653	24.4101	-38.24249	-4.06835	41.49717	206.67218	380.79756	316.51763	237.59164	122.0505	5.69569	0
338	28.47845	48.8202	23.59643	-38.24249	-1.62734	38.24249	205.85851	382.4249	316.51763	234.33696	117.98215	4.06835	0
339	30.91946	50.44754	21.96909	-40.6835	0.81367	35.80148	205.04484	384.05224	315.70396	231.89595	115.54114	2.44101	0
340	26.03744	48.00653	21.96909	-36.61515	0	33.36047	204.23117	384.05224	314.07662	230.26861	113.9138	0.81367	0
341	13.83239	38.24249	25.22377	-26.03744	-8.95037	28.47845	201.79016	379.98389	310.00827	227.01393	110.65912	-1.62734	0
342	2.44101	28.47845	28.47845	-15.45973	-21.15542	20.34175	197.72181	373.47453	303.49891	222.94558	106.59077	-6.50936	0
343	-9.76404	18.71441	28.47845	-7.32303	-27.66478	13.83239	193.65346	366.96517	296.98955	219.6909	103.33609	-10.57771	0
344	-22.78276	12.20505	23.59643	-6.50936	-23.59643	13.01872	193.65346	365.33783	294.54854	218.87723	104.14976	-9.76404	0
345	-26.85111	9.76404	26.85111	-10.57771	-21.15542	17.08707	198.53548	369.40618	296.17588	221.31824	106.59077	-5.69569	0
346	-33.36047	15.45973	41.49717	-8.1367	-30.91946	21.96909	203.4175	375.10187	300.24423	222.94558	109.03178	-1.62734	0
347	-44.75185	24.4101	56.14323	1.62734	-44.75185	26.03744	207.48585	380.79756	303.49891	223.75925	109.03178	0	0
348	-40.6835	30.10579	55.32956	5.69569	-44.75185	27.66478	209.11319	383.23857	304.31258	222.94558	107.40444	0.81367	0
349	-13.01872	37.42882	36.61515	-8.1367	-23.59643	25.22377	207.48585	381.61123	301.87157	219.6909	103.33609	0	0
350	23.59643	44.75185	12.20505	-30.10579	4.88202	21.15542	204.23117	377.54288	296.98955	214.80888	99.26774	-1.62734	0
351	51.26121	48.00653	-7.32303	-46.37919	28.47845	16.2734	199.34915	370.21985	290.48019	209.11319	94.38572	-3.25468	0
352	61.02525	46.37919	-16.2734	-52.07488	38.24249	13.83239	195.2808	363.71049	283.97083	205.04484	91.94471	-3.25468	0
353	57.77057	42.31084	-14.64606	-49.63387	36.61515	13.01872	192.83979	358.82847	279.90248	203.4175	91.13104	-2.44101	0
354	49.63387	39.05616	-7.32303	-43.93818	29.29212	14.64606	194.46713	357.20113	276.6478	202.60383	91.94471	0	0
355	39.86983	36.61515	-0.81367	-38.24249	21.15542	16.2734	197.72181	358.0148	275.83413	202.60383	91.94471	1.62734	0
356	30.91946	36.61515	2.44101	-32.5468	12.20505	19.52808	202.60383	361.26948	276.6478	202.60383	91.94471	4.06835	0
357	26.03744	38.24249	5.69569	-30.91946	7.32303	22.78276	205.85851	365.33783	277.46147	202.60383	90.31737	6.50936	0
358	23.59643	39.86983	10.57771	-30.91946	4.06835	25.22377	208.29952	367.77884	278.27514	201.79016	88.69003	7.32303	0
359	20.34175	39.86983	14.64606	-30.10579	0.81367	26.03744	209.11319	367.77884	277.46147	199.34915	87.06269	8.1367	0
360	14.64606	34.17414	17.90074	-24.4101	-2.44101	24.4101	208.29952	364.52416	272.57945	195.2808	84.62168	6.50936	0
361	1.62734	22.78276	20.34175	-12.20505	-8.95037	20.34175	203.4175	358.0148	264.44275	187.95777	81.367	3.25468	0
362	-10.57771	10.57771	21.15542	0	-15.45973	14.64606	197.72181	350.69177	253.86504	179.82107	79.73966	1.62734	0
363	-13.83239	8.95037	21.96909	1.62734	-17.08707	14.64606	195.2808	344.99608	246.54201	174.93905	79.73966	1.62734	0
364	-4.06835	17.90074	23.59643	-8.1367	-13.83239	19.52808	196.90814	343.36874	242.47366	173.31171	82.18067	2.44101	0
365	9.76404	28.47845	25.22377	-23.59643	-8.1367	26.03744	200.16282	344.18241	243.28733	174.12538	84.62168	2.44101	0
366	20.34175	37.42882	26.03744	-34.17414	-2.44101	30.10579	203.4175	345.80975	244.101	174.93905	83.80801	1.62734	0
367	26.03744	43.12451	25.22377	-39.86983	0.81367	31.73313	204.23117	344.18241	243.28733	171.68437	79.73966	0	0
368	26.03744	47.19286	25.22377	-41.49717	1.62734	32.5468	204.23117	340.11406	239.21898	166.80235	75.67131	-2.44101	0
369	22.78276	50.44754	26.85111	-40.6835	0	33.36047	203.4175	336.85938	235.15063	161.92033	72.41663	-3.25468	0
370	17.90074	52.07488	30.91946	-38.24249	-5.69569	34.17414	202.60383	333.6047	231.08228	158.66565	69.97562	-4.06835	0
371	9.76404	50.44754	37.42882	-31.73313	-13.01872	36.61515	202.60383	328.72268	225.38659	154.5973	67.53461	-3.25468	0
372	-3.25468	42.31084	43.12451	-20.34175	-22.78276	37.42882	201.79016	320.58598	217.24989	148.90161	65.0936	-1.62734	0
373	-16.2734	32.5468	47.19286	-8.1367	-31.73313	36.61515	200.97649	310.00827	207.48585	141.57858	61.02525	0	0
374	-26.03744	25.22377	49.63387	0	-38.24249	35.80148	200.97649	301.87157	198.53548	134.25555	58.58424	0	0
375	-30.91946	21.15542	52.07488	4.06835	-43.93818	37.42882	201.79016	296.98955	191.21245	128.55986	56.14323	0	0
376	-33.36047	18.71441	55.32956	5.69569	-48.8202	38.24249	202.60383	294.54854	185.51676	122.86417	53.70222	0	0
377	-34.98781	15.45973	56.14323	4.88202	-49.63387	37.42882	201.79016	289.66652	179.0074	115.54114	48.00653	-1.62734	0
378	-32.5468	13.01872	50.44754	2.44101	-44.75185	34.98781	196.90814	282.34349	169.24336	104.96343	40.6835	-6.50936	0
379	-26.03744	12.20505	42.31084	0.81367	-37.42882	31.73313	190.39878	270.95211	157.03831	91.94471	31.73313	-12.20505	0
380	-18.71441	13.83239	34.98781	-1.62734	-30.91946	30.10579	185.51676	260.3744	144.01959	79.73966	24.4101	-16.2734	0
381	-13.01872	17.90074	31.73313	-4.06835	-26.85111	29.29212	182.26208	249.79669	132.62821	69.97562	19.52808	-17.90074	0
382	-10.57771	22.78276	32.5468	-6.50936	-24.4101	30.10579	179.82107	239.21898	122.0505	61.83892	17.08707	-17.90074	0
383	-11.39138	26.03744	36.61515	-7.32303	-25.22377	32.5468	179.82107	228.64127	111.47279	55.32956	16.2734	-17.08707	0
384	-17.90074	27.66478	41.49717	-6.50936	-30.91946	34.17414	180.63474	218.87723	100.89508	47.19286	13.83239	-17.08707	0
385	-28.47845	27.66478	48.8202	-5.69569	-40.6835	34.98781	182.26208	209.92686	89.5037	38.24249	9.76404	-18.71441	0
386	-34.98781	26.03744	55.32956	-4.88202	-49.63387	35.80148	183.07575	203.4175	78.92599	29.29212	5.69569	-20.34175	0
387	-34.98781	26.85111	60.21158	-4.88202	-52.88855	37.42882	183.07575	198.53548	69.97562	20.34175	1.62734	-21.15542	0
388	-33.36047	28.47845	62.65259	-4.06835	-54.51589	39.86983	183.88942	191.21245	59.39791	10.57771	-2.44101	-21.96909	0
389	-35.80148	25.22377	63.46626	0.81367	-55.32956	42.31084	181.44841	179.0074	44.75185	-2.44101	-10.57771	-26.03744	0
390	-43.12451	15.45973	63.46626	10.57771	-59.39791	43.93818	174.93905	161.10666	25.22377	-19.52808	-20.34175	-33.36047	0
391	-51.26121	4.88202	65.90727	17.08707	-65.0936	43.12451	167.61602	140.76491	4.88202	-37.42882	-27.66478	-39.86983	0
392	-58.58424	0	72.41663	24.4101	-71.60296	44.75185	161.10666	124.49151	-11.39138	-50.44754	-30.91946	-43.12451	0
393	-65.0936	-2.44101	82.99434	33.36047	-78.92599	51.26121	157.03831	110.65912	-24.4101	-59.39791	-32.5468	-43.93818	0
394	-74.04397	-2.44101	93.57205	41.49717	-85.43535	56.9569	155.41097	96.82673	-39.05616	-69.16195	-35.80148	-43.12451	0
395	-89.5037	-4.06835	100.89508	48.00653	-91.13104	57.77057	152.96996	81.367	-56.14323	-83.80801	-43.12451	-43.12451	0
396	-103.33609	-8.1367	103.33609	51.26121	-96.82673	53.70222	148.08794	62.65259	-77.29865	-103.33609	-55.32956	-46.37919	0
397	-107.40444	-14.64606	96.01306	52.07488	-96.01306	44.75185	139.13757	39.86983	-101.70875	-127.74619	-71.60296	-54.51589	0
398	-96.82673	-17.08707	82.99434	48.00653	-83.80801	33.36047	127.74619	13.83239	-129.37353	-154.5973	-89.5037	-64.27993	0
399	-77.29865	-13.83239	69.97562	39.86983	-69.16195	25.22377	117.16848	-11.39138	-157.03831	-180.63474	-105.7771	-72.41663	0
400	-57.77057	-6.50936	59.39791	29.29212	-58.58424	21.15542	108.21811	-35.80148	-182.26208	-203.4175	-118.79582	-78.11232	0
401	-45.56552	0.81367	54.51589	20.34175	-52.88855	23.59643	103.33609	-56.14323	-204.23117	-222.13191	-128.55986	-81.367	0
402	-43.93818	7.32303	55.32956	17.90074	-52.88855	27.66478	100.08141	-77.29865	-225.38659	-239.21898	-136.69656	-82.99434	0
403	-51.26121	6.50936	59.39791	21.15542	-57.77057	30.91946	96.01306	-100.08141	-248.98302	-257.11972	-146.4606	-85.43535	0
404	-62.65259	3.25468	65.90727	28.47845	-66.72094	32.5468	91.94471	-122.86417	-272.57945	-275.83413	-157.85198	-87.06269	0
405	-74.85764	0.81367	74.04397	35.80148	-76.48498	34.17414	89.5037	-143.20592	-296.17588	-294.54854	-168.42969	-87.87636	0
406	-89.5037	-3.25468	83.80801	45.56552	-87.87636	35.80148	86.24902	-164.36134	-319.77231	-314.89029	-179.82107	-89.5037	0
407	-109.84545	-15.45973	92.75838	61.83892	-102.52242	35.80148	78.92599	-187.1441	-344.99608	-337.67305	-193.65346	-93.57205	0
408	-132.62821	-29.29212	101.70875	79.73966	-117.16848	34.98781	70.78929	-212.36787	-372.66086	-362.89682	-209.11319	-99.26774	0
409	-148.90161	-39.86983	108.21811	93.57205	-128.55986	34.17414	61.83892	-238.40531	-401.13931	-388.12059	-224.57292	-105.7771	0
410	-157.03831	-43.93818	112.28646	99.26774	-134.25555	34.17414	54.51589	-265.25642	-428.80409	-411.71702	-237.59164	-110.65912	0
411	-157.85198	-43.93818	113.9138	100.89508	-135.88289	36.61515	47.19286	-291.29386	-454.02786	-433.68611	-248.16935	-114.72747	0
412	-154.5973	-42.31084	114.72747	97.6404	-133.44188	39.86983	41.49717	-316.51763	-479.25163	-454.02786	-256.30605	-116.35481	0
413	-146.4606	-35.80148	114.72747	90.31737	-127.74619	40.6835	34.17414	-344.18241	-505.28907	-475.18328	-265.25642	-119.60949	0
414	-134.25555	-27.66478	113.9138	79.73966	-123.67784	39.05616	24.4101	-373.47453	-534.58119	-498.77971	-276.6478	-124.49151	0
415	-122.0505	-19.52808	112.28646	70.78929	-117.98215	38.24249	16.2734	-401.95298	-563.05964	-523.18981	-289.66652	-130.1872	0
416	-117.16848	-16.2734	109.03178	65.90727	-113.10013	39.05616	9.76404	-427.17675	-589.09708	-545.97257	-301.87157	-135.06922	0
417	-118.79582	-18.71441	106.59077	68.34828	-113.10013	39.05616	3.25468	-450.77318	-613.50718	-567.12799	-313.26295	-139.95124	0
418	-124.49151	-22.78276	104.96343	73.2303	-114.72747	39.05616	-3.25468	-475.18328	-637.91728	-588.28341	-325.468	-144.01959	0
419	-133.44188	-27.66478	105.7771	79.73966	-120.42316	38.24249	-10.57771	-498.77971	-662.32738	-608.62516	-336.04571	-147.27427	0
420	-144.01959	-30.10579	107.40444	86.24902	-129.37353	38.24249	-17.08707	-522.37614	-685.11014	-627.33957	-344.18241	-148.90161	0
421	-151.34262	-30.91946	110.65912	91.13104	-136.69656	39.05616	-25.22377	-546.78624	-708.70657	-645.24031	-351.50544	-150.52895	0
422	-156.22464	-34.17414	116.35481	95.19939	-142.39225	39.05616	-35.80148	-573.63735	-733.93034	-663.95472	-360.45581	-152.96996	0
423	-162.734	-39.05616	121.23683	100.08141	-146.4606	37.42882	-48.00653	-600.48846	-758.34044	-682.66913	-369.40618	-155.41097	0
424	-169.24336	-44.75185	125.30518	106.59077	-150.52895	35.80148	-58.58424	-624.89856	-781.1232	-699.7562	-378.35655	-157.85198	0
425	-174.93905	-49.63387	126.11885	111.47279	-152.96996	35.80148	-66.72094	-646.05398	-800.65128	-715.21593	-386.49325	-159.47932	0
426	-178.19373	-52.88855	125.30518	115.54114	-152.96996	34.98781	-73.2303	-663.95472	-817.73835	-729.04832	-394.62995	-161.10666	0
427	-177.38006	-54.51589	122.0505	116.35481	-152.15629	34.17414	-80.55333	-681.04179	-833.19808	-742.06704	-401.95298	-164.36134	0
428	-172.49804	-54.51589	117.16848	113.10013	-148.90161	33.36047	-87.87636	-696.50152	-847.03047	-753.45842	-409.27601	-166.80235	0
429	-168.42969	-53.70222	113.9138	110.65912	-146.4606	31.73313	-95.19939	-710.33391	-859.23552	-764.03613	-414.9717	-170.05703	0
430	-172.49804	-59.39791	112.28646	114.72747	-147.27427	27.66478	-103.33609	-724.1663	-871.44057	-772.9865	-419.85372	-172.49804	0
431	-183.07575	-69.16195	113.10013	125.30518	-150.52895	22.78276	-112.28646	-737.99869	-882.83195	-781.93687	-423.1084	-174.12538	0
432	-191.21245	-76.48498	113.9138	133.44188	-152.96996	18.71441	-118.79582	-748.5764	-890.15498	-786.00522	-423.92207	-174.93905	0
433	-194.46713	-78.11232	114.72747	135.06922	-153.78363	17.90074	-122.0505	-754.27209	-893.40966	-786.81889	-423.1084	-174.93905	0
434	-191.21245	-74.85764	114.72747	131.81454	-152.96996	18.71441	-122.0505	-755.08576	-891.78232	-782.75054	-421.48106	-174.12538	0
435	-183.88942	-68.34828	113.9138	125.30518	-149.71528	21.96909	-119.60949	-751.83108	-886.08663	-777.05485	-419.85372	-171.68437	0
436	-175.75272	-63.46626	110.65912	118.79582	-144.01959	21.96909	-117.16848	-746.94906	-880.39094	-771.35916	-417.41271	-170.05703	0
437	-169.24336	-60.21158	107.40444	113.9138	-138.3239	17.90074	-115.54114	-742.06704	-873.88158	-766.47714	-416.59904	-169.24336	0
438	-165.98868	-59.39791	102.52242	109.84545	-134.25555	13.01872	-114.72747	-736.37135	-866.55855	-760.78145	-414.15803	-169.24336	0
439	-166.80235	-61.02525	98.45407	109.84545	-131.00087	9.76404	-114.72747	-727.42098	-855.98084	-750.20374	-409.27601	-168.42969	0
440	-169.24336	-64.27993	95.19939	110.65912	-129.37353	8.95037	-114.72747	-716.0296	-842.14845	-737.18502	-401.13931	-166.80235	0
441	-171.68437	-67.53461	95.19939	112.28646	-128.55986	10.57771	-114.72747	-702.19721	-825.87505	-720.91162	-391.37527	-163.54767	0
442	-171.68437	-68.34828	101.70875	115.54114	-130.1872	14.64606	-112.28646	-685.92381	-805.5333	-701.38354	-378.35655	-157.03831	0
443	-170.8707	-63.46626	109.84545	120.42316	-135.06922	21.96909	-107.40444	-666.39573	-782.75054	-677.78711	-362.89682	-147.27427	0
444	-170.8707	-58.58424	115.54114	124.49151	-139.95124	28.47845	-102.52242	-645.24031	-758.34044	-654.19068	-347.43709	-137.51023	0
445	-170.8707	-56.9569	117.16848	126.93252	-144.01959	30.91946	-98.45407	-623.27122	-734.74401	-632.22159	-334.41837	-130.1872	0
446	-168.42969	-62.65259	111.47279	126.93252	-143.20592	26.03744	-96.01306	-604.55681	-712.77492	-613.50718	-325.468	-126.11885	0
447	-162.734	-70.78929	98.45407	125.30518	-135.06922	15.45973	-96.01306	-587.46974	-693.24684	-597.23378	-320.58598	-124.49151	0
448	-158.66565	-77.29865	86.24902	122.86417	-126.11885	5.69569	-96.01306	-569.569	-672.90509	-580.14671	-314.89029	-123.67784	0
449	-157.03831	-82.99434	77.29865	121.23683	-119.60949	0	-96.82673	-550.85459	-650.12233	-560.61863	-306.75359	-123.67784	0
450	-150.52895	-82.99434	69.16195	116.35481	-111.47279	-4.88202	-96.01306	-530.51284	-626.5259	-539.46321	-296.98955	-122.0505	0
451	-133.44188	-76.48498	58.58424	103.33609	-95.19939	-7.32303	-94.38572	-509.35742	-601.30213	-515.86678	-285.59817	-119.60949	0
452	-113.10013	-64.27993	52.07488	87.06269	-79.73966	-8.95037	-91.13104	-485.76099	-574.45102	-490.64301	-271.76578	-113.9138	0
453	-99.26774	-53.70222	50.44754	75.67131	-70.78929	-8.95037	-84.62168	-460.53722	-543.53156	-462.97823	-254.67871	-105.7771	0
454	-96.82673	-48.8202	51.26121	71.60296	-71.60296	-6.50936	-78.11232	-432.87244	-512.6121	-434.49978	-236.77797	-96.82673	0
455	-103.33609	-52.88855	52.07488	77.29865	-77.29865	-5.69569	-73.2303	-406.835	-484.13365	-409.27601	-222.13191	-90.31737	0
456	-114.72747	-61.83892	52.88855	87.87636	-83.80801	-7.32303	-70.78929	-381.61123	-456.46887	-384.86591	-209.11319	-86.24902	0
457	-122.86417	-68.34828	52.88855	94.38572	-87.87636	-7.32303	-67.53461	-355.57379	-427.17675	-360.45581	-196.09447	-81.367	0
458	-126.11885	-69.16195	54.51589	96.82673	-90.31737	-4.88202	-62.65259	-328.72268	-397.07096	-335.23204	-182.26208	-75.67131	0
459	-126.93252	-68.34828	55.32956	96.82673	-91.13104	-3.25468	-57.77057	-302.68524	-367.77884	-310.00827	-168.42969	-69.97562	0
460	-123.67784	-65.90727	55.32956	94.38572	-89.5037	-2.44101	-52.88855	-278.27514	-340.11406	-285.59817	-156.22464	-65.0936	0
461	-113.10013	-62.65259	49.63387	87.06269	-81.367	-4.06835	-50.44754	-256.30605	-314.07662	-262.81541	-144.83326	-61.02525	0
462	-96.01306	-60.21158	37.42882	75.67131	-66.72094	-8.1367	-48.8202	-237.59164	-291.29386	-241.65999	-135.88289	-56.9569	0
463	-77.29865	-58.58424	21.96909	64.27993	-49.63387	-15.45973	-48.00653	-220.50457	-270.13844	-222.94558	-127.74619	-54.51589	0
464	-60.21158	-56.9569	6.50936	55.32956	-34.17414	-21.96909	-48.00653	-204.23117	-249.79669	-204.23117	-119.60949	-52.07488	0
465	-42.31084	-53.70222	-4.88202	44.75185	-18.71441	-26.85111	-48.00653	-185.51676	-228.64127	-186.33043	-111.47279	-49.63387	0
466	-25.22377	-49.63387	-13.83239	34.17414	-4.06835	-30.91946	-45.56552	-165.17501	-206.67218	-167.61602	-103.33609	-47.19286	0
467	-14.64606	-43.93818	-17.90074	26.85111	4.06835	-31.73313	-41.49717	-142.39225	-182.26208	-147.27427	-94.38572	-43.12451	0
468	-15.45973	-39.86983	-15.45973	26.03744	2.44101	-28.47845	-34.98781	-118.79582	-157.03831	-126.11885	-82.18067	-36.61515	0
469	-23.59643	-37.42882	-4.88202	29.29212	-4.88202	-23.59643	-28.47845	-96.01306	-131.81454	-104.96343	-69.97562	-30.10579	0
470	-30.91946	-34.98781	6.50936	31.73313	-13.01872	-18.71441	-22.78276	-75.67131	-109.03178	-85.43535	-58.58424	-25.22377	0
471	-33.36047	-31.73313	13.83239	32.5468	-17.08707	-14.64606	-17.90074	-57.77057	-88.69003	-66.72094	-48.00653	-19.52808	0
472	-30.91946	-29.29212	11.39138	28.47845	-15.45973	-13.01872	-14.64606	-41.49717	-69.16195	-48.8202	-37.42882	-14.64606	0
473	-25.22377	-26.85111	4.88202	23.59643	-11.39138	-11.39138	-11.39138	-26.03744	-49.63387	-30.91946	-26.85111	-9.76404	0
474	-21.96909	-24.4101	-1.62734	20.34175	-7.32303	-9.76404	-7.32303	-10.57771	-31.73313	-14.64606	-17.90074	-4.88202	0
475	-20.34175	-20.34175	-8.1367	19.52808	-4.88202	-10.57771	-5.69569	2.44101	-16.2734	-0.81367	-11.39138	-2.44101	0
476	-18.71441	-16.2734	-11.39138	20.34175	-3.25468	-13.01872	-4.06835	15.45973	-2.44101	9.76404	-6.50936	-0.81367	0
477	-20.34175	-13.01872	-10.57771	20.34175	-6.50936	-13.83239	-1.62734	31.73313	14.64606	23.59643	0	0.81367	0
478	-26.03744	-11.39138	-5.69569	22.78276	-17.90074	-13.01872	0	48.00653	33.36047	38.24249	9.76404	2.44101	0
479	-32.5468	-13.83239	1.62734	28.47845	-29.29212	-10.57771	3.25468	59.39791	50.44754	49.63387	17.08707	4.88202	0
480	-35.80148	-23.59643	4.06835	34.98781	-31.73313	-13.01872	3.25468	65.0936	60.21158	56.14323	19.52808	5.69569	0
481	-35.80148	-36.61515	-0.81367	39.86983	-24.4101	-20.34175	0	67.53461	64.27993	58.58424	19.52808	5.69569	0
482	-35.80148	-47.19286	-5.69569	43.12451	-16.2734	-26.03744	-4.88202	69.97562	65.90727	61.83892	18.71441	4.06835	0
483	-36.61515	-52.07488	-7.32303	44.75185	-11.39138	-27.66478	-5.69569	77.29865	72.41663	69.16195	20.34175	4.06835	0
484	-36.61515	-49.63387	-6.50936	42.31084	-8.95037	-26.03744	-1.62734	87.87636	82.99434	79.73966	24.4101	5.69569	0
485	-30.91946	-42.31084	-7.32303	35.80148	-6.50936	-22.78276	3.25468	100.08141	95.19939	90.31737	29.29212	8.95037	0
486	-23.59643	-34.17414	-10.57771	27.66478	-3.25468	-19.52808	9.76404	112.28646	107.40444	100.89508	34.98781	11.39138	0
487	-13.01872	-26.03744	-16.2734	18.71441	1.62734	-16.2734	13.01872	122.0505	118.79582	109.84545	39.86983	13.83239	0
488	-3.25468	-20.34175	-21.96909	10.57771	7.32303	-13.83239	14.64606	130.1872	127.74619	116.35481	42.31084	14.64606	0
489	4.06835	-16.2734	-24.4101	4.88202	12.20505	-13.83239	16.2734	135.88289	135.06922	122.0505	44.75185	15.45973	0
490	9.76404	-11.39138	-23.59643	0	15.45973	-13.01872	18.71441	141.57858	142.39225	128.55986	48.00653	17.08707	0
491	9.76404	-7.32303	-21.96909	-1.62734	13.83239	-10.57771	21.96909	147.27427	149.71528	134.25555	51.26121	20.34175	0
492	3.25468	-5.69569	-20.34175	0	7.32303	-8.1367	26.03744	150.52895	154.5973	137.51023	54.51589	22.78276	0
493	-3.25468	-7.32303	-19.52808	4.88202	1.62734	-8.1367	26.85111	152.15629	157.85198	140.76491	56.14323	23.59643	0
494	-7.32303	-8.95037	-19.52808	11.39138	0	-13.01872	24.4101	154.5973	161.10666	144.01959	56.14323	21.96909	0
495	-8.1367	-9.76404	-22.78276	14.64606	2.44101	-19.52808	21.96909	157.03831	163.54767	145.64693	56.14323	18.71441	0
496	-0.81367	-9.76404	-26.03744	11.39138	8.1367	-22.78276	21.96909	160.29299	165.98868	147.27427	56.14323	17.08707	0
497	11.39138	-8.1367	-30.91946	2.44101	15.45973	-22.78276	22.78276	163.54767	169.24336	149.71528	56.9569	16.2734	0
498	22.78276	-5.69569	-34.17414	-5.69569	21.96909	-21.96909	25.22377	168.42969	173.31171	152.15629	59.39791	16.2734	0
499	24.4101	-4.06835	-31.73313	-9.76404	23.59643	-18.71441	29.29212	173.31171	178.19373	156.22464	62.65259	17.08707	0
500	18.71441	-4.88202	-23.59643	-7.32303	18.71441	-13.83239	34.17414	179.0074	183.88942	160.29299	66.72094	17.90074	0
501	8.95037	-6.50936	-14.64606	-2.44101	11.39138	-9.76404	38.24249	183.07575	187.95777	164.36134	69.97562	18.71441	0
502	-0.81367	-8.95037	-7.32303	4.06835	3.25468	-8.1367	39.86983	184.70309	190.39878	166.80235	72.41663	19.52808	0
503	-10.57771	-13.01872	-2.44101	9.76404	-2.44101	-8.1367	40.6835	185.51676	191.21245	167.61602	73.2303	18.71441	0
504	-15.45973	-15.45973	0	13.83239	-6.50936	-8.1367	39.86983	184.70309	190.39878	167.61602	73.2303	18.71441	0
505	-17.90074	-17.90074	2.44101	17.08707	-8.95037	-8.95037	39.86983	184.70309	190.39878	167.61602	73.2303	17.90074	0
506	-23.59643	-21.96909	5.69569	21.96909	-12.20505	-9.76404	39.05616	184.70309	190.39878	166.80235	72.41663	17.08707	0
507	-30.10579	-29.29212	8.1367	30.91946	-17.90074	-11.39138	39.05616	183.88942	190.39878	165.98868	71.60296	16.2734	0
508	-34.98781	-37.42882	11.39138	40.6835	-21.15542	-13.83239	38.24249	183.88942	189.58511	165.17501	70.78929	15.45973	0
509	-36.61515	-39.86983	14.64606	43.93818	-21.96909	-13.83239	37.42882	183.07575	188.77144	164.36134	69.97562	15.45973	0
510	-35.80148	-34.17414	16.2734	39.86983	-22.78276	-10.57771	36.61515	183.07575	188.77144	164.36134	68.34828	16.2734	-1500	QRS-0
511	-31.73313	-25.22377	16.2734	33.36047	-21.15542	-4.88202	36.61515	182.26208	190.39878	165.17501	68.34828	16.2734	0
512	-22.78276	-15.45973	12.20505	26.03744	-15.45973	-2.44101	35.80148	179.82107	189.58511	164.36134	67.53461	16.2734	0
513	-12.20505	-13.01872	0	18.71441	-4.06835	-7.32303	32.5468	172.49804	184.70309	159.47932	65.0936	12.20505	0
514	-3.25468	-20.34175	-17.90074	15.45973	8.95037	-20.34175	23.59643	160.29299	175.75272	149.71528	57.77057	4.06835	0
515	0	-31.73313	-31.73313	16.2734	21.15542	-34.17414	15.45973	148.90161	169.24336	139.95124	50.44754	-4.06835	0
516	5.69569	-35.80148	-38.24249	13.83239	30.91946	-39.86983	12.20505	144.83326	165.98868	135.88289	48.00653	-7.32303	0
517	17.08707	-25.22377	-39.05616	2.44101	35.80148	-34.98781	14.64606	146.4606	167.61602	138.3239	52.07488	-3.25468	0
518	31.73313	-8.1367	-37.42882	-12.20505	37.42882	-24.4101	20.34175	150.52895	170.8707	144.01959	59.39791	2.44101	0
519	42.31084	4.88202	-34.17414	-25.22377	37.42882	-14.64606	24.4101	153.78363	174.12538	148.90161	65.0936	8.1367	0
520	40.6835	9.76404	-30.91946	-26.85111	32.5468	-9.76404	26.03744	155.41097	174.93905	151.34262	67.53461	11.39138	0
521	26.85111	3.25468	-28.47845	-16.2734	22.78276	-8.95037	23.59643	153.78363	172.49804	149.71528	65.90727	10.57771	0
522	7.32303	-9.76404	-26.03744	0	11.39138	-14.64606	17.90074	148.08794	167.61602	144.01959	61.02525	5.69569	0
523	-9.76404	-26.03744	-24.4101	16.2734	3.25468	-21.96909	10.57771	139.95124	159.47932	135.88289	54.51589	0	0
524	-21.96909	-39.05616	-22.78276	29.29212	-1.62734	-29.29212	4.06835	133.44188	152.96996	129.37353	49.63387	-3.25468	0
525	-28.47845	-48.00653	-22.78276	34.17414	-4.06835	-34.98781	-0.81367	126.93252	146.4606	123.67784	46.37919	-6.50936	0
526	-29.29212	-51.26121	-24.4101	34.17414	-3.25468	-40.6835	-4.88202	121.23683	140.76491	118.79582	43.12451	-8.1367	0
527	-22.78276	-52.07488	-27.66478	31.73313	0	-43.93818	-8.1367	116.35481	136.69656	115.54114	41.49717	-8.1367	0
528	-13.83239	-50.44754	-27.66478	30.10579	1.62734	-42.31084	-7.32303	113.9138	135.88289	115.54114	41.49717	-6.50936	0
529	-7.32303	-42.31084	-23.59643	26.03744	1.62734	-34.98781	-3.25468	114.72747	139.13757	119.60949	44.75185	-0.81367	0
530	-3.25468	-31.73313	-18.71441	19.52808	2.44101	-26.03744	0.81367	117.98215	144.01959	125.30518	49.63387	4.88202	0
531	0	-22.78276	-13.83239	14.64606	3.25468	-17.90074	5.69569	121.23683	147.27427	129.37353	54.51589	12.20505	0
532	0.81367	-13.83239	-8.95037	8.1367	4.88202	-8.95037	11.39138	124.49151	150.52895	132.62821	59.39791	19.52808	0
533	2.44101	-3.25468	-2.44101	0	4.06835	0	17.08707	126.11885	153.78363	135.88289	65.0936	25.22377	0
534	5.69569	3.25468	2.44101	-7.32303	0.81367	5.69569	18.71441	126.11885	155.41097	137.51023	68.34828	28.47845	0
535	9.76404	4.88202	3.25468	-10.57771	0	7.32303	17.90074	125.30518	153.78363	135.88289	68.34828	28.47845	0
536	9.76404	4.88202	-2.44101	-12.20505	4.06835	2.44101	13.01872	121.23683	150.52895	132.62821	65.0936	26.03744	0
537	6.50936	0	-13.01872	-11.39138	13.01872	-4.88202	6.50936	115.54114	144.01959	126.11885	58.58424	21.96909	0
538	3.25468	-8.1367	-21.96909	-5.69569	17.90074	-15.45973	0	107.40444	136.69656	119.60949	52.07488	18.71441	0
539	0.81367	-17.08707	-26.85111	1.62734	19.52808	-22.78276	-5.69569	101.70875	130.1872	113.9138	47.19286	17.08707	0
540	0	-22.78276	-28.47845	6.50936	17.90074	-26.03744	-8.1367	98.45407	127.74619	110.65912	45.56552	15.45973	0
541	2.44101	-23.59643	-27.66478	8.1367	17.90074	-26.85111	-8.95037	96.82673	126.93252	110.65912	44.75185	16.2734	0
542	9.76404	-18.71441	-26.85111	3.25468	21.15542	-26.03744	-8.1367	97.6404	126.93252	110.65912	45.56552	17.08707	0
543	18.71441	-10.57771	-26.85111	-4.88202	25.22377	-24.4101	-6.50936	98.45407	126.93252	111.47279	45.56552	17.90074	0
544	26.03744	-4.06835	-29.29212	-11.39138	27.66478	-21.96909	-4.88202	99.26774	126.93252	111.47279	47.19286	19.52808	0
545	30.10579	-2.44101	-31.73313	-14.64606	30.10579	-19.52808	-4.06835	98.45407	126.11885	111.47279	47.19286	19.52808	0
546	30.91946	-4.06835	-33.36047	-13.83239	31.73313	-17.90074	-3.25468	96.82673	126.11885	111.47279	46.37919	19.52808	0
547	28.47845	-5.69569	-33.36047	-12.20505	30.10579	-16.2734	-1.62734	95.19939	126.11885	111.47279	46.37919	18.71441	0
548	23.59643	-7.32303	-30.10579	-9.76404	26.85111	-15.45973	-1.62734	95.19939	126.11885	111.47279	47.19286	17.90074	0
549	15.45973	-8.95037	-26.85111	-7.32303	21.15542	-15.45973	-1.62734	96.01306	126.93252	111.47279	48.00653	18.71441	0
550	4.88202	-9.76404	-22.78276	-4.88202	14.64606	-14.64606	-1.62734	96.82673	126.93252	110.65912	49.63387	19.52808	0
551	-1.62734	-8.1367	-17.90074	-0.81367	8.1367	-14.64606	-2.44101	97.6404	126.11885	109.84545	51.26121	23.59643	0
552	-8.1367	-6.50936	-11.39138	4.06835	4.06835	-14.64606	-2.44101	97.6404	124.49151	109.84545	52.07488	27.66478	0
553	-12.20505	-7.32303	-4.88202	8.1367	0	-15.45973	-2.44101	96.01306	122.0505	110.65912	51.26121	30.10579	0
554	-18.71441	-9.76404	0	12.20505	-4.06835	-14.64606	-2.44101	94.38572	121.23683	110.65912	51.26121	33.36047	0
555	-26.85111	-11.39138	3.25468	18.71441	-7.32303	-9.76404	-0.81367	93.57205	122.0505	112.28646	52.88855	37.42882	0
556	-32.5468	-13.01872	8.95037	25.22377	-12.20505	-2.44101	1.62734	92.75838	124.49151	114.72747	56.9569	42.31084	0
557	-35.80148	-15.45973	15.45973	28.47845	-19.52808	2.44101	4.88202	92.75838	126.11885	117.16848	59.39791	45.56552	0
558	-31.73313	-13.83239	16.2734	25.22377	-19.52808	4.06835	6.50936	92.75838	127.74619	117.98215	60.21158	48.00653	0
559	-19.52808	-6.50936	10.57771	15.45973	-13.01872	1.62734	7.32303	93.57205	127.74619	116.35481	61.02525	48.00653	0
560	-8.95037	4.88202	7.32303	5.69569	-7.32303	0	5.69569	94.38572	126.93252	116.35481	61.02525	49.63387	0
561	-4.06835	15.45973	5.69569	-0.81367	-7.32303	-0.81367	4.06835	95.19939	127.74619	117.98215	61.02525	51.26121	0
562	-3.25468	17.08707	0	-2.44101	-8.95037	0	2.44101	95.19939	128.55986	118.79582	61.83892	52.07488	0
563	-1.62734	10.57771	-7.32303	0	-8.95037	-0.81367	0	91.13104	126.93252	115.54114	61.02525	48.8202	0
564	1.62734	0.81367	-14.64606	0.81367	-2.44101	-5.69569	-3.25468	83.80801	122.0505	109.03178	56.9569	42.31084	0
565	8.95037	-7.32303	-23.59643	0	7.32303	-12.20505	-8.95037	76.48498	116.35481	102.52242	52.07488	34.98781	0
566	20.34175	-11.39138	-34.17414	-4.06835	21.96909	-17.08707	-14.64606	69.97562	111.47279	97.6404	47.19286	27.66478	0
567	34.17414	-9.76404	-44.75185	-12.20505	37.42882	-20.34175	-18.71441	64.27993	108.21811	94.38572	43.93818	21.96909	0
568	45.56552	-4.88202	-49.63387	-21.15542	47.19286	-21.15542	-20.34175	62.65259	106.59077	93.57205	43.12451	19.52808	0
569	48.8202	-2.44101	-50.44754	-24.4101	50.44754	-21.96909	-20.34175	61.02525	104.96343	91.94471	43.93818	18.71441	0
570	42.31084	-8.1367	-49.63387	-17.90074	46.37919	-24.4101	-18.71441	59.39791	102.52242	90.31737	44.75185	17.08707	0
571	26.85111	-20.34175	-46.37919	-4.06835	37.42882	-26.85111	-17.90074	58.58424	101.70875	87.87636	45.56552	15.45973	0
572	11.39138	-29.29212	-40.6835	5.69569	26.85111	-27.66478	-17.90074	57.77057	100.89508	86.24902	44.75185	14.64606	0
573	4.06835	-30.91946	-35.80148	9.76404	20.34175	-28.47845	-17.90074	57.77057	100.89508	85.43535	43.93818	14.64606	0
574	2.44101	-27.66478	-32.5468	9.76404	17.90074	-26.85111	-17.08707	57.77057	102.52242	86.24902	44.75185	14.64606	0
575	5.69569	-20.34175	-30.10579	5.69569	18.71441	-23.59643	-15.45973	59.39791	104.96343	87.06269	45.56552	17.08707	0
576	11.39138	-12.20505	-28.47845	0	21.15542	-21.15542	-13.83239	61.83892	106.59077	88.69003	45.56552	20.34175	0
577	17.90074	-7.32303	-27.66478	-4.88202	23.59643	-20.34175	-13.01872	63.46626	108.21811	90.31737	46.37919	21.96909	0
578	20.34175	-8.1367	-26.85111	-7.32303	25.22377	-20.34175	-12.20505	64.27993	109.84545	90.31737	45.56552	21.96909	0
579	17.08707	-12.20505	-25.22377	-4.88202	24.4101	-21.15542	-13.01872	64.27993	110.65912	88.69003	43.93818	21.15542	0
580	14.64606	-13.01872	-23.59643	-3.25468	22.78276	-19.52808	-12.20505	65.0936	111.47279	89.5037	43.93818	21.96909	0
581	15.45973	-6.50936	-21.15542	-5.69569	20.34175	-15.45973	-9.76404	65.0936	111.47279	91.13104	45.56552	25.22377	0
582	17.08707	3.25468	-19.52808	-11.39138	16.2734	-10.57771	-7.32303	65.90727	112.28646	94.38572	47.19286	28.47845	0
583	21.15542	13.83239	-16.2734	-18.71441	15.45973	-6.50936	-5.69569	67.53461	113.9138	96.82673	48.00653	31.73313	0
584	26.85111	17.08707	-10.57771	-22.78276	18.71441	-4.06835	-4.06835	68.34828	113.9138	97.6404	48.8202	33.36047	0
585	25.22377	14.64606	-8.1367	-19.52808	18.71441	-5.69569	-4.88202	67.53461	112.28646	96.82673	49.63387	32.5468	0
586	10.57771	8.1367	-4.06835	-6.50936	10.57771	-7.32303	-4.88202	68.34828	110.65912	95.19939	48.8202	30.91946	0
587	-5.69569	0.81367	0	6.50936	-0.81367	-7.32303	-4.88202	69.97562	110.65912	94.38572	49.63387	31.73313	0
588	-8.1367	0	0.81367	8.1367	-3.25468	-4.88202	-2.44101	73.2303	111.47279	95.19939	50.44754	33.36047	0
589	3.25468	2.44101	-4.06835	-2.44101	4.06835	-5.69569	-0.81367	74.04397	111.47279	94.38572	52.07488	34.98781	0
590	13.01872	4.06835	-9.76404	-12.20505	11.39138	-8.95037	-2.44101	71.60296	108.21811	91.94471	52.88855	36.61515	0
591	16.2734	2.44101	-12.20505	-15.45973	14.64606	-11.39138	-3.25468	68.34828	104.96343	88.69003	52.07488	36.61515	0
592	14.64606	0	-13.01872	-13.01872	13.83239	-12.20505	-2.44101	65.0936	102.52242	87.06269	51.26121	35.80148	0
593	13.01872	-3.25468	-15.45973	-8.95037	13.83239	-13.01872	-2.44101	62.65259	100.89508	85.43535	49.63387	34.98781	0
594	15.45973	-5.69569	-21.15542	-7.32303	17.90074	-14.64606	-3.25468	61.02525	100.08141	83.80801	47.19286	32.5468	0
595	21.15542	-7.32303	-28.47845	-8.1367	24.4101	-17.08707	-3.25468	59.39791	99.26774	82.99434	43.93818	30.10579	0
596	29.29212	-6.50936	-37.42882	-12.20505	32.5468	-18.71441	-4.06835	59.39791	97.6404	81.367	40.6835	27.66478	0
597	38.24249	-4.06835	-42.31084	-17.08707	39.86983	-18.71441	-2.44101	60.21158	97.6404	80.55333	39.86983	26.85111	0
598	37.42882	-0.81367	-40.6835	-17.90074	39.05616	-17.90074	-0.81367	62.65259	99.26774	81.367	39.86983	26.03744	0
599	27.66478	1.62734	-30.91946	-13.01872	30.10579	-14.64606	1.62734	66.72094	102.52242	83.80801	42.31084	27.66478	0
600	17.08707	3.25468	-20.34175	-8.1367	20.34175	-10.57771	4.88202	71.60296	106.59077	87.06269	44.75185	30.10579	0
601	11.39138	6.50936	-11.39138	-7.32303	13.01872	-4.06835	8.1367	75.67131	110.65912	90.31737	48.8202	33.36047	0
602	11.39138	9.76404	-4.06835	-9.76404	8.1367	0	11.39138	78.92599	113.9138	93.57205	52.07488	36.61515	0
603	12.20505	11.39138	0	-13.83239	4.88202	3.25468	13.83239	81.367	115.54114	95.19939	54.51589	39.86983	0
604	14.64606	13.83239	1.62734	-17.08707	4.06835	5.69569	15.45973	82.99434	116.35481	96.01306	56.14323	42.31084	0
605	17.90074	15.45973	0	-20.34175	4.88202	6.50936	17.08707	82.99434	116.35481	96.82673	56.9569	44.75185	0
606	21.96909	17.08707	-3.25468	-22.78276	8.1367	6.50936	18.71441	82.18067	115.54114	96.82673	56.9569	45.56552	0
607	23.59643	15.45973	-8.1367	-21.15542	11.39138	7.32303	19.52808	82.99434	116.35481	96.82673	56.9569	47.19286	0
608	19.52808	8.1367	-13.83239	-15.45973	13.01872	8.1367	21.15542	83.80801	116.35481	96.82673	55.32956	48.00653	0
609	13.01872	0	-13.83239	-6.50936	10.57771	8.95037	22.78276	84.62168	116.35481	96.82673	52.88855	48.8202	0
610	4.06835	-3.25468	-8.1367	0.81367	1.62734	8.95037	23.59643	85.43535	116.35481	95.19939	50.44754	49.63387	0
611	-3.25468	-4.06835	-3.25468	5.69569	-6.50936	6.50936	23.59643	82.99434	113.9138	92.75838	48.8202	50.44754	0
612	-7.32303	-2.44101	-0.81367	6.50936	-10.57771	3.25468	22.78276	80.55333	111.47279	89.5037	47.19286	50.44754	0
613	-4.06835	-0.81367	-3.25468	3.25468	-5.69569	-0.81367	20.34175	76.48498	108.21811	85.43535	45.56552	49.63387	0
614	1.62734	0	-8.1367	0	0.81367	-4.88202	17.08707	73.2303	104.14976	81.367	43.12451	47.19286	0
615	8.1367	1.62734	-13.01872	-4.88202	8.1367	-7.32303	14.64606	70.78929	101.70875	78.92599	40.6835	44.75185	0
616	16.2734	2.44101	-17.90074	-9.76404	15.45973	-7.32303	13.83239	70.78929	100.08141	77.29865	39.86983	43.12451	0
617	24.4101	3.25468	-22.78276	-14.64606	23.59643	-7.32303	14.64606	71.60296	100.08141	75.67131	39.05616	42.31084	0
618	30.91946	5.69569	-26.85111	-19.52808	29.29212	-7.32303	17.08707	74.85764	100.89508	76.48498	40.6835	42.31084	0
619	34.98781	8.1367	-27.66478	-22.78276	30.10579	-6.50936	18.71441	77.29865	102.52242	76.48498	41.49717	42.31084	0
620	34.98781	7.32303	-26.85111	-21.96909	26.03744	-7.32303	19.52808	76.48498	100.89508	74.04397	39.86983	40.6835	0
621	27.66478	1.62734	-24.4101	-15.45973	19.52808	-9.76404	17.90074	73.2303	97.6404	70.78929	36.61515	38.24249	0
622	16.2734	-4.88202	-21.96909	-6.50936	13.83239	-13.01872	16.2734	69.97562	93.57205	66.72094	34.17414	34.98781	0
623	8.1367	-10.57771	-20.34175	0.81367	9.76404	-16.2734	13.83239	65.90727	90.31737	63.46626	32.5468	32.5468	0
624	2.44101	-13.83239	-18.71441	4.88202	8.1367	-17.08707	13.01872	64.27993	89.5037	63.46626	32.5468	31.73313	0
625	-2.44101	-13.83239	-13.01872	8.1367	3.25468	-15.45973	14.64606	65.0936	90.31737	66.72094	35.80148	32.5468	0
626	-8.1367	-12.20505	-4.88202	9.76404	-1.62734	-13.01872	19.52808	67.53461	91.94471	71.60296	39.86983	33.36047	0
627	-12.20505	-10.57771	0	9.76404	-4.88202	-9.76404	23.59643	70.78929	94.38572	74.85764	43.12451	34.98781	0
628	-14.64606	-10.57771	2.44101	11.39138	-6.50936	-8.1367	25.22377	74.04397	96.82673	76.48498	43.93818	35.80148	0
629	-17.90074	-15.45973	1.62734	15.45973	-8.1367	-8.1367	25.22377	74.04397	96.01306	74.85764	42.31084	34.98781	0
630	-19.52808	-21.96909	-0.81367	19.52808	-7.32303	-9.76404	23.59643	70.78929	93.57205	72.41663	39.86983	33.36047	0
631	-13.83239	-23.59643	-4.06835	17.90074	-1.62734	-11.39138	20.34175	66.72094	90.31737	69.16195	35.80148	30.91946	0
632	-0.81367	-19.52808	-7.32303	11.39138	6.50936	-10.57771	19.52808	65.90727	89.5037	67.53461	34.98781	30.91946	0
633	14.64606	-13.83239	-8.95037	3.25468	13.83239	-3.25468	23.59643	69.97562	93.57205	70.78929	38.24249	34.98781	0
634	24.4101	-7.32303	-4.88202	-4.06835	15.45973	5.69569	30.10579	76.48498	100.08141	76.48498	44.75185	41.49717	0
635	19.52808	-0.81367	0	-7.32303	8.1367	13.01872	34.98781	80.55333	104.14976	80.55333	50.44754	47.19286	0
636	4.88202	2.44101	5.69569	-3.25468	-4.06835	17.08707	38.24249	84.62168	106.59077	83.80801	54.51589	51.26121	0
637	-8.1367	4.88202	10.57771	0.81367	-14.64606	17.90074	40.6835	85.43535	108.21811	83.80801	55.32956	52.07488	0
638	-9.76404	6.50936	8.95037	0.81367	-13.83239	13.01872	39.05616	83.80801	104.96343	80.55333	51.26121	49.63387	0
639	3.25468	8.1367	-4.06835	-5.69569	0.81367	4.88202	34.17414	79.73966	100.08141	74.04397	44.75185	43.93818	0
640	26.03744	7.32303	-25.22377	-17.08707	24.4101	-2.44101	29.29212	74.85764	94.38572	67.53461	38.24249	38.24249	0
641	43.93818	6.50936	-41.49717	-25.22377	42.31084	-8.95037	24.4101	69.97562	88.69003	61.83892	32.5468	34.17414	0
642	51.26121	8.1367	-44.75185	-30.10579	48.00653	-12.20505	22.78276	66.72094	86.24902	58.58424	30.10579	32.5468	0
643	51.26121	13.01872	-39.05616	-33.36047	45.56552	-8.1367	26.03744	66.72094	87.87636	60.21158	31.73313	34.17414	0
644	50.44754	20.34175	-30.10579	-36.61515	39.86983	-1.62734	30.91946	69.97562	91.13104	64.27993	35.80148	38.24249	0
645	50.44754	28.47845	-21.96909	-40.6835	35.80148	4.06835	35.80148	74.04397	96.01306	68.34828	39.05616	41.49717	0
646	47.19286	30.91946	-17.08707	-40.6835	31.73313	7.32303	38.24249	78.11232	98.45407	71.60296	41.49717	43.93818	0
647	35.80148	22.78276	-13.83239	-30.91946	23.59643	5.69569	37.42882	78.92599	99.26774	70.78929	41.49717	44.75185	0
648	17.08707	8.95037	-11.39138	-14.64606	11.39138	0	34.98781	78.11232	96.01306	67.53461	38.24249	41.49717	0
649	2.44101	-3.25468	-8.1367	-0.81367	0	-6.50936	31.73313	75.67131	91.94471	64.27993	34.17414	38.24249	0
650	-3.25468	-10.57771	-7.32303	5.69569	-5.69569	-11.39138	30.10579	73.2303	88.69003	61.02525	31.73313	34.98781	0
651	-5.69569	-15.45973	-8.1367	9.76404	-4.88202	-13.83239	28.47845	70.78929	85.43535	57.77057	29.29212	32.5468	0
652	-6.50936	-16.2734	-8.95037	12.20505	-2.44101	-13.83239	29.29212	69.16195	83.80801	56.9569	28.47845	31.73313	0
653	-4.06835	-11.39138	-8.1367	13.01872	0.81367	-10.57771	30.91946	69.16195	84.62168	58.58424	30.91946	34.17414	0
654	-4.06835	-3.25468	-6.50936	13.01872	3.25468	-4.88202	34.98781	70.78929	87.06269	61.83892	34.98781	37.42882	0
655	-5.69569	1.62734	-2.44101	11.39138	2.44101	0	38.24249	73.2303	89.5037	65.0936	39.86983	41.49717	0
656	-4.88202	4.06835	0	9.76404	1.62734	4.88202	40.6835	76.48498	91.94471	67.53461	42.31084	43.93818	0
657	-2.44101	3.25468	0	7.32303	1.62734	6.50936	40.6835	78.11232	91.94471	67.53461	42.31084	42.31084	0
658	0.81367	1.62734	-3.25468	2.44101	3.25468	4.88202	38.24249	78.11232	90.31737	64.27993	39.05616	39.05616	0
659	6.50936	-0.81367	-8.95037	-0.81367	8.95037	0.81367	34.98781	76.48498	87.87636	61.02525	34.17414	34.17414	0
660	14.64606	-2.44101	-13.01872	-5.69569	15.45973	-2.44101	31.73313	74.04397	84.62168	56.14323	30.10579	30.10579	0
661	23.59643	0.81367	-14.64606	-13.01872	20.34175	-4.06835	29.29212	71.60296	82.18067	53.70222	28.47845	27.66478	0
662	30.10579	8.1367	-14.64606	-21.15542	21.96909	-2.44101	29.29212	71.60296	81.367	53.70222	29.29212	27.66478	0
663	32.5468	14.64606	-12.20505	-26.03744	21.15542	1.62734	30.91946	71.60296	82.18067	55.32956	31.73313	29.29212	0
664	29.29212	18.71441	-7.32303	-26.85111	17.08707	6.50936	34.17414	71.60296	82.99434	57.77057	34.17414	30.91946	0
665	24.4101	19.52808	-2.44101	-24.4101	12.20505	9.76404	37.42882	72.41663	83.80801	58.58424	35.80148	32.5468	0
666	16.2734	15.45973	0	-17.90074	7.32303	10.57771	39.05616	72.41663	82.99434	59.39791	35.80148	31.73313	0
667	7.32303	8.1367	1.62734	-8.95037	1.62734	8.95037	39.86983	73.2303	82.18067	60.21158	34.17414	29.29212	0
668	0	3.25468	4.88202	-0.81367	-5.69569	8.1367	43.12451	75.67131	82.99434	60.21158	33.36047	29.29212	0
669	-8.1367	3.25468	9.76404	3.25468	-14.64606	11.39138	47.19286	80.55333	85.43535	61.83892	34.98781	30.10579	0
670	-10.57771	6.50936	13.83239	1.62734	-18.71441	16.2734	51.26121	84.62168	88.69003	61.83892	37.42882	32.5468	0
671	-4.88202	9.76404	17.90074	-4.88202	-17.08707	21.15542	53.70222	87.06269	90.31737	62.65259	39.05616	34.17414	0
672	0	11.39138	20.34175	-12.20505	-13.01872	23.59643	53.70222	86.24902	91.13104	63.46626	39.86983	35.80148	0
673	2.44101	13.01872	19.52808	-14.64606	-10.57771	22.78276	51.26121	82.18067	89.5037	62.65259	39.86983	35.80148	0
674	4.88202	14.64606	17.08707	-14.64606	-8.95037	20.34175	48.8202	77.29865	87.87636	61.83892	39.86983	34.98781	0
675	7.32303	17.90074	13.01872	-13.83239	-6.50936	18.71441	46.37919	74.04397	85.43535	61.02525	39.05616	34.17414	0
676	8.95037	18.71441	8.95037	-12.20505	-3.25468	16.2734	43.93818	72.41663	83.80801	58.58424	37.42882	32.5468	0
677	10.57771	17.90074	4.88202	-12.20505	0	13.01872	41.49717	70.78929	81.367	55.32956	34.98781	29.29212	0
678	11.39138	14.64606	0.81367	-12.20505	2.44101	8.95037	39.86983	69.97562	78.92599	50.44754	31.73313	24.4101	0
679	11.39138	11.39138	-1.62734	-12.20505	4.88202	4.88202	38.24249	68.34828	75.67131	45.56552	27.66478	20.34175	0
680	13.01872	8.1367	-4.88202	-12.20505	8.1367	1.62734	35.80148	66.72094	71.60296	40.6835	23.59643	16.2734	0
681	16.2734	7.32303	-8.95037	-13.01872	12.20505	-0.81367	33.36047	64.27993	68.34828	36.61515	19.52808	13.01872	0
682	20.34175	7.32303	-13.01872	-13.01872	16.2734	-2.44101	30.91946	61.83892	65.0936	32.5468	17.08707	10.57771	0
683	21.96909	5.69569	-16.2734	-13.01872	19.52808	-4.88202	28.47845	57.77057	61.83892	30.10579	16.2734	9.76404	0
684	22.78276	2.44101	-20.34175	-11.39138	21.15542	-8.1367	26.03744	53.70222	57.77057	27.66478	15.45973	9.76404	0
685	20.34175	0	-21.96909	-9.76404	21.15542	-10.57771	24.4101	50.44754	54.51589	26.03744	14.64606	9.76404	0
686	14.64606	-4.88202	-21.15542	-4.88202	17.90074	-12.20505	23.59643	48.8202	53.70222	25.22377	14.64606	10.57771	0
687	6.50936	-14.64606	-19.52808	4.88202	13.01872	-16.2734	22.78276	48.00653	51.26121	21.96909	11.39138	8.95037	0
688	-1.62734	-31.73313	-17.90074	21.15542	8.95037	-24.4101	19.52808	44.75185	48.00653	17.08707	5.69569	5.69569	0
689	-12.20505	-46.37919	-15.45973	35.80148	4.06835	-33.36047	16.2734	42.31084	43.93818	12.20505	0	3.25468	0
690	-16.2734	-48.8202	-13.83239	37.42882	1.62734	-34.17414	16.2734	43.12451	43.93818	13.01872	0	1.62734	0
691	-11.39138	-35.80148	-10.57771	26.03744	1.62734	-26.03744	22.78276	48.8202	49.63387	19.52808	5.69569	2.44101	0
692	-0.81367	-15.45973	-6.50936	8.95037	3.25468	-12.20505	32.5468	56.9569	59.39791	29.29212	16.2734	6.50936	0
693	8.1367	2.44101	-2.44101	-6.50936	4.88202	0	40.6835	64.27993	66.72094	37.42882	26.03744	10.57771	0
694	14.64606	16.2734	1.62734	-17.08707	5.69569	8.95037	48.00653	69.16195	72.41663	44.75185	34.17414	14.64606	0
695	17.90074	26.03744	8.95037	-25.22377	3.25468	19.52808	56.14323	73.2303	78.11232	50.44754	42.31084	20.34175	0
696	20.34175	32.5468	18.71441	-32.5468	0	30.91946	65.0936	78.11232	85.43535	54.51589	49.63387	26.85111	0
697	20.34175	39.05616	28.47845	-37.42882	-1.62734	40.6835	71.60296	82.99434	91.94471	57.77057	55.32956	31.73313	0
698	14.64606	40.6835	34.17414	-34.98781	-3.25468	43.12451	73.2303	87.06269	93.57205	58.58424	55.32956	32.5468	0
699	9.76404	38.24249	33.36047	-29.29212	-3.25468	39.05616	69.97562	87.06269	91.13104	56.14323	52.07488	29.29212	0
700	7.32303	33.36047	28.47845	-23.59643	-3.25468	32.5468	64.27993	82.99434	84.62168	51.26121	46.37919	23.59643	0
701	8.95037	26.85111	22.78276	-19.52808	-0.81367	25.22377	57.77057	75.67131	75.67131	46.37919	40.6835	15.45973	0
702	13.01872	19.52808	18.71441	-17.90074	4.88202	19.52808	52.07488	69.16195	69.16195	43.12451	36.61515	9.76404	0
703	14.64606	14.64606	11.39138	-15.45973	7.32303	13.83239	46.37919	63.46626	64.27993	38.24249	32.5468	7.32303	0
704	10.57771	11.39138	1.62734	-12.20505	4.06835	6.50936	40.6835	56.9569	59.39791	33.36047	27.66478	6.50936	0
705	5.69569	8.1367	-3.25468	-8.1367	-0.81367	0	36.61515	52.07488	55.32956	29.29212	22.78276	4.88202	0
706	5.69569	3.25468	-2.44101	-5.69569	-5.69569	-5.69569	33.36047	48.8202	51.26121	24.4101	17.08707	0	0
707	4.06835	-1.62734	-4.88202	-2.44101	-9.76404	-11.39138	30.91946	47.19286	48.00653	19.52808	11.39138	-7.32303	0
708	0	-7.32303	-10.57771	2.44101	-11.39138	-14.64606	29.29212	48.00653	47.19286	17.08707	7.32303	-13.83239	0
709	-4.88202	-12.20505	-17.08707	7.32303	-9.76404	-14.64606	30.10579	50.44754	48.00653	17.08707	6.50936	-17.90074	0
710	-8.95037	-14.64606	-21.96909	10.57771	-7.32303	-11.39138	30.91946	53.70222	49.63387	17.90074	7.32303	-19.52808	0
711	-9.76404	-15.45973	-21.15542	11.39138	-4.88202	-8.95037	30.91946	55.32956	51.26121	20.34175	7.32303	-19.52808	0
712	-13.01872	-18.71441	-16.2734	14.64606	-4.88202	-8.95037	29.29212	54.51589	51.26121	21.15542	8.1367	-18.71441	0
713	-19.52808	-23.59643	-8.95037	19.52808	-8.1367	-9.76404	26.85111	52.88855	49.63387	21.96909	8.95037	-16.2734	0
714	-23.59643	-26.85111	-0.81367	20.34175	-11.39138	-7.32303	27.66478	51.26121	47.19286	22.78276	11.39138	-13.01872	0
715	-28.47845	-24.4101	5.69569	21.15542	-16.2734	-4.06835	30.10579	49.63387	45.56552	23.59643	14.64606	-9.76404	0
716	-35.80148	-17.90074	13.01872	24.4101	-21.96909	-1.62734	32.5468	50.44754	46.37919	23.59643	16.2734	-8.1367	0
717	-40.6835	-12.20505	19.52808	26.03744	-28.47845	1.62734	36.61515	52.88855	48.00653	23.59643	17.08707	-5.69569	0
718	-41.49717	-4.88202	27.66478	23.59643	-33.36047	8.95037	40.6835	57.77057	52.07488	25.22377	17.90074	-1.62734	0
719	-34.17414	4.06835	32.5468	14.64606	-33.36047	16.2734	44.75185	63.46626	56.14323	27.66478	19.52808	2.44101	0
720	-19.52808	13.83239	30.91946	2.44101	-25.22377	20.34175	47.19286	68.34828	59.39791	30.10579	21.15542	3.25468	0
721	-3.25468	21.15542	24.4101	-8.95037	-13.83239	21.96909	48.8202	69.97562	61.83892	30.91946	21.15542	0.81367	0
722	11.39138	26.85111	15.45973	-19.52808	-2.44101	21.15542	48.00653	69.16195	61.83892	30.91946	21.15542	-0.81367	0
723	16.2734	27.66478	11.39138	-22.78276	1.62734	19.52808	46.37919	66.72094	61.02525	30.91946	21.15542	-0.81367	0
724	9.76404	23.59643	13.83239	-17.90074	-2.44101	19.52808	46.37919	63.46626	60.21158	31.73313	22.78276	0	0
725	4.06835	20.34175	14.64606	-13.01872	-5.69569	18.71441	46.37919	61.02525	59.39791	32.5468	24.4101	1.62734	0
726	4.06835	17.90074	12.20505	-12.20505	-4.06835	16.2734	46.37919	61.02525	59.39791	33.36047	25.22377	3.25468	0
727	8.1367	17.08707	6.50936	-13.83239	0.81367	13.01872	45.56552	62.65259	60.21158	33.36047	24.4101	2.44101	0
728	14.64606	17.90074	0	-17.90074	8.1367	9.76404	45.56552	65.90727	62.65259	33.36047	23.59643	0.81367	0
729	18.71441	18.71441	-5.69569	-20.34175	14.64606	7.32303	45.56552	70.78929	65.90727	33.36047	22.78276	0	0
730	19.52808	17.90074	-8.1367	-20.34175	17.90074	4.88202	45.56552	74.04397	67.53461	33.36047	21.96909	-0.81367	0
731	16.2734	17.08707	-4.06835	-17.90074	13.01872	4.06835	45.56552	76.48498	68.34828	33.36047	21.96909	-0.81367	0
732	8.1367	13.83239	1.62734	-12.20505	4.88202	3.25468	43.93818	75.67131	67.53461	33.36047	22.78276	0	0
733	1.62734	9.76404	5.69569	-7.32303	-0.81367	3.25468	41.49717	72.41663	65.90727	32.5468	22.78276	0	0
734	-0.81367	5.69569	6.50936	-3.25468	-3.25468	2.44101	39.05616	68.34828	63.46626	30.91946	22.78276	0	0
735	-2.44101	0.81367	4.06835	0	-2.44101	0	37.42882	64.27993	61.02525	29.29212	21.15542	-2.44101	0
736	-5.69569	-4.88202	0	3.25468	-1.62734	-4.06835	34.98781	61.83892	57.77057	26.03744	17.08707	-5.69569	0
737	-11.39138	-8.95037	-1.62734	6.50936	-1.62734	-8.95037	34.98781	61.83892	55.32956	23.59643	13.01872	-9.76404	0
738	-15.45973	-11.39138	-1.62734	8.1367	-2.44101	-9.76404	36.61515	65.0936	56.14323	22.78276	9.76404	-12.20505	0
739	-15.45973	-7.32303	0.81367	6.50936	-3.25468	-5.69569	40.6835	72.41663	61.02525	26.03744	12.20505	-10.57771	0
740	-9.76404	0	5.69569	0.81367	-4.88202	1.62734	46.37919	79.73966	68.34828	32.5468	17.08707	-5.69569	0
741	-4.88202	7.32303	10.57771	-3.25468	-6.50936	8.95037	51.26121	85.43535	74.85764	38.24249	22.78276	-0.81367	0
742	-2.44101	12.20505	13.83239	-6.50936	-7.32303	13.01872	53.70222	87.06269	78.11232	43.12451	26.85111	1.62734	0
743	-7.32303	10.57771	17.90074	-2.44101	-13.01872	14.64606	54.51589	86.24902	78.92599	48.8202	29.29212	4.06835	0
744	-20.34175	3.25468	25.22377	6.50936	-23.59643	15.45973	56.14323	85.43535	79.73966	53.70222	32.5468	6.50936	0
745	-30.10579	-3.25468	29.29212	13.83239	-30.91946	15.45973	57.77057	87.06269	80.55333	56.9569	36.61515	9.76404	0
746	-34.17414	-7.32303	29.29212	17.08707	-31.73313	14.64606	60.21158	89.5037	82.99434	58.58424	38.24249	11.39138	0
747	-30.10579	-6.50936	25.22377	15.45973	-27.66478	12.20505	60.21158	91.94471	83.80801	56.9569	36.61515	9.76404	0
748	-17.08707	-4.88202	12.20505	8.1367	-14.64606	4.88202	57.77057	91.94471	82.99434	52.88855	30.91946	5.69569	0
749	0	-1.62734	-4.06835	0	1.62734	-4.06835	51.26121	89.5037	78.92599	45.56552	22.78276	0	0
750	11.39138	0.81367	-16.2734	-4.88202	13.01872	-13.83239	45.56552	85.43535	73.2303	39.05616	15.45973	-5.69569	0
751	14.64606	4.06835	-21.96909	-4.88202	17.90074	-18.71441	40.6835	80.55333	69.16195	34.98781	11.39138	-9.76404	0
752	10.57771	4.88202	-23.59643	-0.81367	15.45973	-21.15542	38.24249	76.48498	66.72094	33.36047	11.39138	-12.20505	0
753	5.69569	4.88202	-23.59643	0.81367	9.76404	-20.34175	35.80148	73.2303	66.72094	34.98781	15.45973	-12.20505	0
754	4.06835	5.69569	-20.34175	0	5.69569	-17.08707	34.98781	72.41663	68.34828	39.05616	19.52808	-10.57771	0
755	4.06835	4.88202	-15.45973	-2.44101	4.88202	-12.20505	35.80148	74.85764	71.60296	43.12451	22.78276	-7.32303	0
756	5.69569	4.06835	-12.20505	-4.06835	5.69569	-8.1367	38.24249	81.367	74.85764	46.37919	26.03744	-5.69569	0
757	6.50936	2.44101	-11.39138	-5.69569	8.1367	-6.50936	41.49717	87.87636	78.92599	48.8202	26.85111	-4.88202	0
758	7.32303	2.44101	-11.39138	-8.1367	9.76404	-4.88202	45.56552	93.57205	82.18067	49.63387	26.03744	-4.06835	0
759	6.50936	4.06835	-9.76404	-8.95037	9.76404	-4.06835	48.8202	99.26774	85.43535	50.44754	26.03744	-3.25468	0
760	9.76404	6.50936	-8.1367	-9.76404	10.57771	-2.44101	50.44754	103.33609	87.87636	51.26121	26.03744	-2.44101	0
761	15.45973	7.32303	-6.50936	-12.20505	15.45973	-0.81367	50.44754	104.96343	90.31737	53.70222	27.66478	-1.62734	0
762	21.15542	5.69569	-5.69569	-15.45973	18.71441	0.81367	49.63387	104.14976	91.94471	56.14323	30.10579	0	0
763	20.34175	4.06835	-4.06835	-15.45973	16.2734	2.44101	46.37919	101.70875	92.75838	58.58424	33.36047	0.81367	0
764	8.95037	1.62734	0.81367	-8.1367	5.69569	4.88202	43.93818	99.26774	92.75838	61.83892	35.80148	2.44101	0
765	-7.32303	-5.69569	8.1367	6.50936	-8.95037	5.69569	42.31084	97.6404	92.75838	64.27993	37.42882	2.44101	0
766	-23.59643	-16.2734	17.08707	23.59643	-25.22377	4.88202	41.49717	96.82673	92.75838	65.0936	37.42882	2.44101	0
767	-35.80148	-21.15542	25.22377	33.36047	-36.61515	3.25468	41.49717	101.70875	96.01306	67.53461	39.86983	4.88202	0
768	-34.98781	-13.83239	29.29212	28.47845	-38.24249	4.06835	40.6835	110.65912	103.33609	72.41663	44.75185	9.76404	0
769	-21.96909	0	26.85111	12.20505	-28.47845	6.50936	39.86983	120.42316	109.03178	77.29865	48.00653	14.64606	0
770	0	13.83239	16.2734	-4.88202	-10.57771	8.1367	37.42882	126.11885	112.28646	79.73966	49.63387	17.90074	0
771	22.78276	23.59643	-2.44101	-21.15542	9.76404	5.69569	31.73313	124.49151	112.28646	79.73966	49.63387	19.52808	0
772	36.61515	26.85111	-23.59643	-33.36047	25.22377	-0.81367	23.59643	117.16848	109.03178	78.11232	48.00653	17.90074	0
773	40.6835	23.59643	-39.86983	-37.42882	38.24249	-7.32303	16.2734	106.59077	103.33609	75.67131	46.37919	17.08707	0
774	39.86983	13.83239	-52.88855	-32.5468	48.8202	-13.83239	8.1367	93.57205	94.38572	69.97562	43.93818	16.2734	0
775	39.86983	2.44101	-62.65259	-25.22377	51.26121	-21.96909	2.44101	78.92599	82.99434	61.02525	40.6835	17.08707	0
776	40.6835	-8.1367	-67.53461	-18.71441	47.19286	-30.91946	0	67.53461	71.60296	52.07488	36.61515	15.45973	0
777	38.24249	-17.90074	-67.53461	-12.20505	45.56552	-37.42882	-1.62734	63.46626	66.72094	46.37919	32.5468	11.39138	0
778	31.73313	-29.29212	-66.72094	-4.06835	48.8202	-44.75185	-1.62734	65.0936	68.34828	43.12451	27.66478	4.88202	0
779	24.4101	-43.12451	-71.60296	1.62734	54.51589	-56.14323	-0.81367	69.97562	72.41663	43.93818	24.4101	0	0
780	20.34175	-53.70222	-80.55333	5.69569	60.21158	-66.72094	0.81367	74.04397	76.48498	47.19286	21.96909	-1.62734	0
781	18.71441	-57.77057	-83.80801	8.95037	61.02525	-71.60296	3.25468	77.29865	78.92599	51.26121	21.15542	-1.62734	0
782	16.2734	-58.58424	-80.55333	13.01872	56.9569	-69.97562	4.06835	78.11232	79.73966	53.70222	23.59643	0.81367	0
783	17.08707	-50.44754	-72.41663	11.39138	53.70222	-61.83892	4.06835	78.92599	81.367	58.58424	30.10579	5.69569	0
784	29.29212	-28.47845	-61.02525	-2.44101	52.88855	-44.75185	6.50936	82.18067	87.06269	67.53461	41.49717	15.45973	0
785	50.44754	3.25468	-49.63387	-27.66478	55.32956	-21.96909	10.57771	90.31737	97.6404	79.73966	55.32956	28.47845	0
786	74.85764	35.80148	-41.49717	-56.14323	61.83892	-1.62734	16.2734	100.89508	109.84545	91.94471	65.90727	39.05616	0
787	98.45407	62.65259	-38.24249	-81.367	69.97562	13.01872	20.34175	112.28646	118.79582	100.89508	72.41663	45.56552	0
788	115.54114	79.73966	-37.42882	-98.45407	76.48498	21.96909	23.59643	122.86417	127.74619	107.40444	76.48498	49.63387	0
789	123.67784	84.62168	-38.24249	-106.59077	80.55333	23.59643	25.22377	133.44188	135.06922	113.10013	79.73966	52.88855	0
790	125.30518	81.367	-38.24249	-107.40444	81.367	20.34175	25.22377	140.76491	140.76491	117.98215	82.99434	56.14323	0
791	124.49151	76.48498	-39.05616	-105.7771	82.18067	17.08707	23.59643	144.83326	145.64693	122.86417	87.06269	60.21158	0
792	120.42316	72.41663	-38.24249	-100.08141	79.73966	13.83239	21.15542	148.08794	148.90161	128.55986	92.75838	63.46626	0
793	109.84545	65.90727	-36.61515	-91.13104	73.2303	13.01872	21.15542	149.71528	151.34262	134.25555	98.45407	65.90727	0
794	94.38572	58.58424	-32.5468	-78.11232	63.46626	12.20505	21.96909	149.71528	152.96996	139.13757	103.33609	68.34828	0
795	76.48498	50.44754	-26.85111	-64.27993	50.44754	11.39138	22.78276	148.90161	153.78363	141.57858	106.59077	69.97562	0
796	60.21158	43.12451	-19.52808	-52.07488	39.05616	11.39138	25.22377	149.71528	154.5973	143.20592	107.40444	69.97562	0
797	52.07488	39.86983	-13.83239	-46.37919	32.5468	11.39138	28.47845	152.15629	155.41097	141.57858	104.96343	66.72094	0
798	51.26121	39.86983	-10.57771	-46.37919	29.29212	12.20505	31.73313	154.5973	154.5973	138.3239	100.08141	60.21158	0
799	52.88855	40.6835	-8.1367	-48.8202	28.47845	13.01872	34.98781	155.41097	153.78363	133.44188	93.57205	52.07488	0
800	52.88855	40.6835	-6.50936	-49.63387	28.47845	14.64606	38.24249	155.41097	152.15629	129.37353	88.69003	46.37919	0
801	47.19286	37.42882	-4.88202	-46.37919	28.47845	16.2734	41.49717	153.78363	149.71528	125.30518	83.80801	39.86983	0
802	40.6835	33.36047	-4.06835	-40.6835	26.85111	16.2734	42.31084	148.08794	144.01959	118.79582	77.29865	31.73313	0
803	34.98781	28.47845	-5.69569	-34.17414	23.59643	13.83239	42.31084	139.13757	135.06922	110.65912	67.53461	20.34175	0
804	29.29212	19.52808	-9.76404	-26.03744	21.15542	7.32303	41.49717	129.37353	126.11885	101.70875	56.9569	8.1367	0
805	21.15542	7.32303	-12.20505	-16.2734	14.64606	0	42.31084	120.42316	118.79582	95.19939	48.8202	-1.62734	0
806	12.20505	-4.88202	-9.76404	-8.1367	5.69569	-5.69569	43.12451	116.35481	114.72747	91.13104	43.12451	-8.95037	0
807	5.69569	-12.20505	-5.69569	-3.25468	-0.81367	-7.32303	45.56552	118.79582	115.54114	91.13104	40.6835	-11.39138	0
808	6.50936	-5.69569	-2.44101	-6.50936	-0.81367	-3.25468	49.63387	126.93252	120.42316	95.19939	43.12451	-8.95037	0
809	17.90074	10.57771	0	-19.52808	4.06835	4.88202	52.88855	138.3239	129.37353	101.70875	49.63387	-1.62734	0
810	29.29212	27.66478	1.62734	-31.73313	10.57771	14.64606	54.51589	148.08794	136.69656	109.03178	56.14323	4.88202	0
811	30.10579	33.36047	4.06835	-34.17414	11.39138	18.71441	52.88855	151.34262	140.76491	112.28646	60.21158	8.1367	0
812	16.2734	29.29212	8.95037	-26.03744	2.44101	17.08707	48.00653	148.08794	139.95124	112.28646	60.21158	7.32303	0
813	-6.50936	21.15542	14.64606	-13.83239	-8.95037	12.20505	42.31084	141.57858	136.69656	109.84545	58.58424	3.25468	0
814	-25.22377	13.83239	21.15542	-2.44101	-20.34175	9.76404	39.86983	137.51023	135.88289	111.47279	60.21158	3.25468	0
815	-30.91946	12.20505	27.66478	1.62734	-26.85111	13.01872	40.6835	138.3239	139.13757	116.35481	65.0936	7.32303	0
816	-26.03744	17.08707	31.73313	0	-28.47845	16.2734	43.93818	141.57858	143.20592	121.23683	69.16195	13.01872	0
817	-18.71441	21.15542	32.5468	-4.06835	-26.03744	21.15542	47.19286	148.08794	147.27427	126.11885	72.41663	17.08707	0
818	-12.20505	22.78276	30.91946	-7.32303	-22.78276	26.03744	50.44754	155.41097	151.34262	131.00087	75.67131	19.52808	0
819	-7.32303	23.59643	31.73313	-8.95037	-24.4101	30.91946	52.88855	162.734	157.03831	135.88289	78.11232	21.96909	0
820	-5.69569	26.03744	37.42882	-8.1367	-28.47845	35.80148	53.70222	166.80235	161.92033	138.3239	80.55333	24.4101	0
821	-5.69569	30.10579	44.75185	-8.95037	-32.5468	40.6835	52.88855	164.36134	162.734	139.95124	82.18067	26.85111	0
822	-5.69569	36.61515	49.63387	-13.01872	-33.36047	44.75185	47.19286	152.96996	159.47932	140.76491	85.43535	30.10579	0
823	1.62734	43.93818	50.44754	-21.96909	-29.29212	45.56552	32.5468	130.1872	150.52895	139.95124	90.31737	33.36047	0
824	21.15542	53.70222	48.8202	-37.42882	-21.15542	43.93818	7.32303	94.38572	135.88289	140.76491	100.08141	38.24249	0
825	43.12451	69.97562	45.56552	-56.9569	-9.76404	48.00653	-24.4101	45.56552	117.98215	145.64693	118.79582	50.44754	0
826	55.32956	91.13104	48.8202	-74.04397	-2.44101	56.9569	-59.39791	-9.76404	101.70875	156.22464	149.71528	72.41663	0
827	55.32956	109.03178	61.02525	-82.99434	-2.44101	64.27993	-96.01306	-73.2303	83.80801	165.98868	183.07575	100.89508	0
828	40.6835	109.84545	71.60296	-76.48498	-4.88202	68.34828	-131.81454	-142.39225	59.39791	174.93905	207.48585	122.86417	0
829	19.52808	91.13104	69.16195	-58.58424	-8.1367	61.83892	-161.92033	-209.92686	29.29212	180.63474	218.06356	132.62821	0
830	2.44101	58.58424	48.8202	-35.80148	-7.32303	43.12451	-184.70309	-265.25642	4.06835	183.88942	219.6909	130.1872	0
831	-8.95037	21.15542	17.90074	-13.01872	0	13.83239	-200.16282	-310.00827	-13.83239	183.88942	213.99521	122.0505	0
832	-16.2734	-16.2734	-13.01872	6.50936	8.1367	-16.2734	-215.62255	-353.94645	-35.80148	175.75272	202.60383	112.28646	0
833	-20.34175	-48.00653	-39.86983	21.96909	15.45973	-44.75185	-239.21898	-410.90335	-67.53461	157.03831	189.58511	104.96343	0
834	-17.90074	-67.53461	-63.46626	32.5468	24.4101	-66.72094	-283.97083	-494.71136	-113.10013	134.25555	183.07575	104.96343	0
835	-5.69569	-76.48498	-85.43535	35.80148	38.24249	-82.99434	-357.20113	-612.69351	-169.24336	117.98215	190.39878	121.23683	0
836	18.71441	-74.85764	-105.7771	25.22377	61.02525	-91.94471	-458.90988	-769.73182	-231.89595	109.03178	216.43622	156.22464	0
837	59.39791	-61.83892	-129.37353	0	93.57205	-96.01306	-582.58772	-956.87592	-299.43056	108.21811	256.30605	204.23117	0
838	113.9138	-38.24249	-157.85198	-38.24249	135.06922	-97.6404	-710.33391	-1144.02002	-362.89682	111.47279	301.0579	259.56073	0
839	175.75272	-13.01872	-191.21245	-82.18067	182.26208	-101.70875	-828.31606	-1297.80365	-416.59904	110.65912	335.23204	309.1946	0
840	236.77797	6.50936	-230.26861	-123.67784	232.70962	-110.65912	-931.65215	-1401.13974	-461.35089	91.94471	346.62342	344.99608	0
841	293.73487	22.78276	-270.13844	-154.5973	280.71615	-122.86417	-1028.47888	-1456.4693	-501.22072	45.56552	326.28167	364.52416	0
842	340.92773	30.91946	-308.38093	-170.8707	323.84066	-138.3239	-1122.05093	-1478.43839	-544.34523	-34.98781	266.88376	363.71049	0
843	371.03352	21.15542	-349.8781	-175.75272	359.64214	-163.54767	-1209.11362	-1476.81105	-597.23378	-155.41097	159.47932	327.09534	0
844	386.49325	-9.76404	-389.74793	-171.68437	391.37527	-202.60383	-1288.03961	-1463.79233	-663.95472	-309.1946	9.76404	251.42403	0
845	392.18894	-50.44754	-419.04005	-159.47932	417.41271	-246.54201	-1360.45624	-1455.65563	-749.39007	-477.62429	-155.41097	153.78363	0
846	380.79756	-87.87636	-436.94079	-140.76491	425.54941	-279.08881	-1421.48149	-1465.41967	-853.53983	-641.17196	-306.75359	59.39791	0
847	344.99608	-117.16848	-436.94079	-112.28646	405.20766	-290.48019	-1459.72398	-1502.03482	-978.03134	-791.70091	-429.61776	-20.34175	0
848	288.85285	-138.3239	-410.90335	-76.48498	358.82847	-283.15716	-1472.7427	-1567.94209	-1121.23726	-929.21114	-524.00348	-86.24902	0
849	218.06356	-152.15629	-362.89682	-35.80148	293.73487	-261.18807	-1462.97866	-1650.93643	-1253.86547	-1044.75228	-590.72442	-139.95124	0
850	141.57858	-158.66565	-298.61689	4.88202	220.50457	-230.26861	-1430.43186	-1718.47104	-1344.18284	-1124.49194	-631.40792	-180.63474	0
851	70.78929	-157.85198	-229.45494	40.6835	148.90161	-193.65346	-1370.22028	-1737.18545	-1391.3757	-1157.03874	-643.61297	-206.67218	0
852	13.01872	-147.27427	-161.92033	64.27993	86.24902	-153.78363	-1278.27557	-1686.73791	-1386.49368	-1135.06965	-626.5259	-213.99521	0
853	-24.4101	-126.11885	-103.33609	74.04397	37.42882	-113.9138	-1154.59773	-1569.56943	-1320.58641	-1065.09403	-582.58772	-204.23117	0
854	-43.93818	-101.70875	-59.39791	71.60296	5.69569	-78.92599	-1009.76447	-1401.13974	-1204.2316	-960.94427	-522.37614	-184.70309	0
855	-51.26121	-76.48498	-30.91946	61.83892	-9.76404	-52.07488	-853.53983	-1204.2316	-1053.70265	-838.0801	-456.46887	-162.734	0
856	-50.44754	-48.8202	-8.95037	45.56552	-17.08707	-27.66478	-695.68785	-996.74575	-885.27296	-706.26556	-387.30692	-139.13757	0
857	-42.31084	-21.96909	9.76404	27.66478	-22.78276	-4.06835	-545.1589	-790.88724	-712.77492	-572.82368	-318.14497	-114.72747	0
858	-30.91946	0.81367	27.66478	12.20505	-28.47845	15.45973	-406.835	-598.04745	-547.59991	-445.07749	-250.61036	-91.13104	0
859	-20.34175	18.71441	39.05616	0	-30.91946	29.29212	-286.41184	-424.73574	-397.07096	-327.90901	-187.95777	-69.97562	0
860	-13.83239	27.66478	42.31084	-7.32303	-30.10579	34.98781	-185.51676	-275.83413	-266.88376	-225.38659	-133.44188	-52.07488	0
861	-12.20505	24.4101	39.05616	-6.50936	-26.85111	31.73313	-102.52242	-152.96996	-158.66565	-139.13757	-87.87636	-39.05616	0
862	-15.45973	13.01872	31.73313	0	-23.59643	21.96909	-39.86983	-56.9569	-73.2303	-69.97562	-52.07488	-30.10579	0
863	-20.34175	0	24.4101	8.1367	-21.96909	10.57771	1.62734	10.57771	-11.39138	-18.71441	-26.03744	-25.22377	0
864	-26.03744	-10.57771	18.71441	15.45973	-21.15542	2.44101	27.66478	56.9569	29.29212	15.45973	-7.32303	-22.78276	0
865	-33.36047	-18.71441	16.2734	21.96909	-25.22377	-1.62734	43.12451	87.06269	56.9569	39.86983	4.88202	-21.96909	0
866	-37.42882	-23.59643	19.52808	26.85111	-31.73313	-0.81367	54.51589	111.47279	78.92599	58.58424	14.64606	-20.34175	0
867	-37.42882	-21.96909	26.85111	30.10579	-36.61515	4.88202	65.0936	135.88289	100.08141	75.67131	24.4101	-15.45973	0
868	-37.42882	-17.90074	34.98781	31.73313	-41.49717	16.2734	77.29865	161.92033	122.0505	92.75838	36.61515	-8.1367	0
869	-43.12451	-8.1367	41.49717	33.36047	-51.26121	24.4101	88.69003	185.51676	141.57858	108.21811	47.19286	-2.44101	0
870	-51.26121	4.88202	47.19286	33.36047	-58.58424	27.66478	96.82673	203.4175	155.41097	117.98215	53.70222	0	0
871	-44.75185	12.20505	43.93818	24.4101	-51.26121	26.03744	100.89508	213.99521	164.36134	123.67784	54.51589	0	0
872	-18.71441	12.20505	26.03744	4.88202	-26.85111	19.52808	101.70875	218.87723	168.42969	126.93252	53.70222	-1.62734	0
873	10.57771	8.95037	1.62734	-13.83239	2.44101	8.95037	100.08141	219.6909	170.05703	127.74619	52.07488	-5.69569	0
874	32.5468	5.69569	-20.34175	-25.22377	26.03744	-0.81367	97.6404	219.6909	171.68437	129.37353	51.26121	-9.76404	0
875	45.56552	4.06835	-36.61515	-30.10579	42.31084	-8.95037	97.6404	222.94558	174.93905	132.62821	52.07488	-11.39138	0
876	48.00653	2.44101	-43.93818	-29.29212	48.00653	-13.83239	100.89508	231.08228	181.44841	138.3239	52.88855	-13.01872	0
877	38.24249	-0.81367	-39.86983	-21.15542	40.6835	-15.45973	107.40444	244.91467	191.21245	145.64693	55.32956	-12.20505	0
878	17.90074	-7.32303	-26.85111	-7.32303	22.78276	-14.64606	116.35481	261.18807	203.4175	154.5973	58.58424	-11.39138	0
879	-3.25468	-14.64606	-12.20505	7.32303	3.25468	-11.39138	123.67784	275.83413	213.99521	161.10666	61.02525	-9.76404	0
880	-21.96909	-21.15542	0	19.52808	-12.20505	-7.32303	128.55986	287.22551	221.31824	166.80235	62.65259	-7.32303	0
881	-31.73313	-22.78276	8.1367	25.22377	-21.15542	-4.88202	133.44188	296.17588	228.64127	172.49804	65.90727	-4.06835	0
882	-27.66478	-17.90074	9.76404	21.15542	-19.52808	-4.06835	136.69656	302.68524	235.15063	179.0074	70.78929	0	0
883	-13.83239	-8.95037	4.88202	10.57771	-8.95037	-4.06835	137.51023	305.93992	239.21898	185.51676	75.67131	3.25468	0
884	0	-2.44101	0	0	1.62734	-4.88202	138.3239	307.56726	242.47366	190.39878	80.55333	5.69569	0
885	8.1367	0	-4.88202	-4.06835	6.50936	-5.69569	139.13757	309.1946	244.101	194.46713	84.62168	7.32303	0
886	11.39138	0	-8.95037	-5.69569	6.50936	-7.32303	142.39225	311.63561	246.54201	196.90814	86.24902	7.32303	-1250	T-0
887	13.01872	-2.44101	-12.20505	-5.69569	7.32303	-9.76404	144.83326	316.51763	249.79669	198.53548	86.24902	5.69569	0
888	14.64606	-5.69569	-16.2734	-4.06835	10.57771	-12.20505	146.4606	323.02699	254.67871	200.16282	85.43535	4.06835	0
889	16.2734	-9.76404	-19.52808	0	13.83239	-13.83239	147.27427	328.72268	258.74706	201.79016	84.62168	2.44101	0
890	17.90074	-10.57771	-19.52808	1.62734	13.01872	-13.01872	147.27427	335.23204	263.62908	203.4175	84.62168	3.25468	0
891	20.34175	-4.88202	-17.90074	-0.81367	9.76404	-9.76404	149.71528	341.7414	268.5111	207.48585	87.06269	6.50936	0
892	22.78276	6.50936	-11.39138	-4.06835	5.69569	-0.81367	154.5973	347.43709	275.02046	213.18154	93.57205	13.01872	0
893	23.59643	20.34175	3.25468	-8.1367	-0.81367	13.01872	163.54767	355.57379	283.97083	222.94558	103.33609	23.59643	0
894	23.59643	30.91946	21.15542	-13.01872	-13.01872	26.85111	171.68437	362.08315	292.10753	233.52329	114.72747	34.17414	0
895	21.96909	32.5468	27.66478	-16.2734	-17.08707	31.73313	174.93905	363.71049	295.36221	238.40531	120.42316	39.05616	0
896	23.59643	27.66478	15.45973	-18.71441	-5.69569	21.96909	171.68437	359.64214	291.29386	234.33696	115.54114	34.17414	0
897	30.10579	21.96909	-6.50936	-21.15542	12.20505	5.69569	168.42969	354.76012	283.97083	225.38659	105.7771	24.4101	0
898	39.05616	18.71441	-25.22377	-24.4101	29.29212	-6.50936	165.17501	353.94645	279.90248	218.87723	96.82673	16.2734	0
899	45.56552	18.71441	-34.17414	-26.85111	39.05616	-10.57771	164.36134	358.0148	281.52982	216.43622	93.57205	13.83239	0
900	48.00653	20.34175	-34.98781	-29.29212	39.86983	-8.1367	164.36134	364.52416	285.59817	218.06356	95.19939	16.2734	0
901	43.12451	21.96909	-30.91946	-29.29212	34.17414	-2.44101	165.17501	369.40618	290.48019	222.13191	99.26774	20.34175	0
902	37.42882	21.15542	-24.4101	-27.66478	27.66478	1.62734	165.17501	371.03352	293.73487	225.38659	103.33609	23.59643	0
903	31.73313	17.90074	-15.45973	-25.22377	23.59643	5.69569	163.54767	368.59251	296.17588	227.8276	106.59077	25.22377	0
904	25.22377	14.64606	-7.32303	-20.34175	17.90074	7.32303	162.734	366.96517	296.98955	230.26861	109.84545	26.03744	0
905	16.2734	12.20505	-1.62734	-15.45973	10.57771	8.95037	165.98868	366.96517	297.80322	231.89595	111.47279	25.22377	0
906	8.1367	8.95037	0.81367	-9.76404	4.06835	7.32303	170.05703	368.59251	298.61689	232.70962	111.47279	24.4101	0
907	1.62734	4.06835	1.62734	-4.06835	0.81367	4.06835	173.31171	372.66086	299.43056	232.70962	108.21811	21.96909	0
908	-1.62734	0	0	0	-0.81367	0.81367	174.12538	375.91554	299.43056	231.08228	104.96343	19.52808	0
909	-5.69569	-4.06835	0	2.44101	-3.25468	-1.62734	174.12538	378.35655	298.61689	227.8276	100.89508	17.08707	0
910	-8.95037	-6.50936	0	5.69569	-6.50936	-2.44101	172.49804	379.17022	296.98955	225.38659	97.6404	15.45973	0
911	-13.83239	-9.76404	2.44101	9.76404	-10.57771	-2.44101	171.68437	379.17022	296.17588	224.57292	96.82673	15.45973	0
912	-17.08707	-8.95037	5.69569	11.39138	-13.01872	-0.81367	171.68437	378.35655	295.36221	224.57292	96.82673	16.2734	0
913	-10.57771	0	8.1367	4.06835	-10.57771	4.88202	175.75272	379.17022	296.98955	226.20026	99.26774	19.52808	0
914	4.06835	18.71441	11.39138	-11.39138	-4.88202	15.45973	183.07575	383.23857	300.24423	230.26861	105.7771	26.03744	0
915	16.2734	36.61515	16.2734	-26.85111	-1.62734	27.66478	190.39878	388.12059	305.12625	235.9643	113.10013	33.36047	0
916	21.96909	48.8202	22.78276	-35.80148	-0.81367	36.61515	197.72181	394.62995	310.00827	240.84632	118.79582	39.05616	0
917	22.78276	53.70222	26.85111	-39.05616	-2.44101	41.49717	201.79016	400.32564	313.26295	244.101	121.23683	41.49717	0
918	21.15542	52.07488	31.73313	-35.80148	-4.06835	42.31084	203.4175	405.20766	315.70396	244.101	120.42316	41.49717	0
919	15.45973	43.12451	38.24249	-26.03744	-8.1367	39.86983	201.79016	407.64867	316.51763	243.28733	117.16848	39.05616	0
920	4.88202	35.80148	42.31084	-20.34175	-14.64606	35.80148	198.53548	408.46234	314.89029	240.84632	112.28646	34.98781	0
921	0.81367	32.5468	38.24249	-19.52808	-15.45973	30.10579	194.46713	406.02133	311.63561	237.59164	108.21811	31.73313	0
922	8.95037	30.10579	24.4101	-24.4101	-5.69569	23.59643	190.39878	401.13931	307.56726	233.52329	104.96343	27.66478	0
923	26.03744	27.66478	7.32303	-32.5468	11.39138	15.45973	186.33043	393.81628	301.0579	228.64127	101.70875	23.59643	0
924	44.75185	26.03744	-5.69569	-40.6835	30.10579	7.32303	183.88942	384.86591	293.73487	222.94558	100.08141	21.96909	0
925	52.88855	23.59643	-15.45973	-41.49717	39.86983	1.62734	182.26208	377.54288	287.22551	218.87723	98.45407	21.96909	0
926	48.8202	17.90074	-17.90074	-36.61515	36.61515	0	182.26208	375.10187	284.7845	217.24989	97.6404	21.96909	0
927	41.49717	13.01872	-15.45973	-30.91946	27.66478	0	183.07575	376.72921	284.7845	216.43622	96.82673	21.15542	0
928	35.80148	9.76404	-13.83239	-24.4101	21.15542	0	183.88942	379.98389	287.22551	217.24989	95.19939	21.15542	0
929	32.5468	8.1367	-13.83239	-18.71441	19.52808	0	184.70309	385.67958	289.66652	216.43622	93.57205	20.34175	0
930	27.66478	6.50936	-12.20505	-13.83239	17.08707	0.81367	184.70309	388.93426	289.66652	213.99521	90.31737	18.71441	0
931	19.52808	6.50936	-7.32303	-9.76404	11.39138	2.44101	185.51676	389.74793	288.85285	211.5542	87.87636	18.71441	0
932	9.76404	6.50936	0	-6.50936	3.25468	4.88202	188.77144	388.12059	287.22551	209.11319	87.06269	18.71441	0
933	-0.81367	6.50936	7.32303	-1.62734	-4.06835	8.1367	191.21245	384.86591	285.59817	208.29952	87.87636	19.52808	0
934	-10.57771	4.88202	13.83239	2.44101	-9.76404	10.57771	192.83979	381.61123	283.15716	208.29952	90.31737	20.34175	0
935	-17.08707	1.62734	17.08707	6.50936	-13.83239	9.76404	193.65346	376.72921	280.71615	206.67218	91.13104	20.34175	0
936	-21.96909	-4.06835	18.71441	12.20505	-16.2734	5.69569	192.02612	372.66086	276.6478	203.4175	88.69003	17.08707	0
937	-26.03744	-12.20505	17.08707	17.90074	-17.08707	0	188.77144	369.40618	272.57945	197.72181	83.80801	13.83239	0
938	-30.10579	-19.52808	13.01872	22.78276	-18.71441	-4.88202	186.33043	368.59251	267.69743	191.21245	78.11232	9.76404	0
939	-34.98781	-26.85111	8.95037	28.47845	-19.52808	-9.76404	183.07575	366.96517	263.62908	184.70309	70.78929	4.88202	0
940	-41.49717	-33.36047	8.1367	35.80148	-21.96909	-13.01872	178.19373	366.1515	259.56073	179.82107	64.27993	1.62734	0
941	-46.37919	-33.36047	12.20505	38.24249	-25.22377	-10.57771	175.75272	365.33783	257.93339	178.19373	62.65259	0.81367	0
942	-43.12451	-22.78276	18.71441	31.73313	-27.66478	-0.81367	178.19373	364.52416	257.11972	179.0074	66.72094	5.69569	0
943	-32.5468	-4.06835	24.4101	17.08707	-28.47845	10.57771	183.07575	363.71049	258.74706	182.26208	73.2303	12.20505	0
944	-15.45973	18.71441	28.47845	-1.62734	-23.59643	22.78276	188.77144	363.71049	261.18807	186.33043	81.367	19.52808	0
945	4.06835	41.49717	28.47845	-22.78276	-13.01872	32.5468	192.83979	363.71049	262.00174	188.77144	87.06269	26.85111	0
946	21.96909	56.9569	20.34175	-38.24249	0	36.61515	195.2808	361.26948	257.93339	185.51676	88.69003	29.29212	0
947	38.24249	61.83892	7.32303	-48.8202	9.76404	33.36047	196.09447	356.38746	250.61036	177.38006	83.80801	26.85111	0
948	46.37919	57.77057	-1.62734	-51.26121	15.45973	27.66478	193.65346	349.8781	240.84632	166.80235	75.67131	20.34175	0
949	45.56552	46.37919	-7.32303	-46.37919	17.90074	21.15542	191.21245	342.55507	229.45494	155.41097	67.53461	13.83239	0
950	39.05616	33.36047	-8.95037	-37.42882	17.90074	14.64606	187.95777	334.41837	218.87723	144.01959	61.02525	9.76404	0
951	26.03744	23.59643	-2.44101	-26.03744	10.57771	12.20505	186.33043	327.09534	209.92686	136.69656	57.77057	7.32303	0
952	7.32303	17.08707	8.95037	-13.83239	-2.44101	14.64606	185.51676	321.39965	206.67218	132.62821	56.9569	8.1367	0
953	-8.95037	13.01872	21.96909	-2.44101	-16.2734	17.90074	185.51676	317.3313	204.23117	131.00087	57.77057	10.57771	0
954	-22.78276	8.95037	31.73313	5.69569	-27.66478	21.15542	186.33043	312.44928	200.16282	129.37353	58.58424	13.01872	0
955	-26.85111	6.50936	34.17414	11.39138	-30.91946	23.59643	187.1441	306.75359	194.46713	125.30518	56.9569	14.64606	0
956	-18.71441	3.25468	30.10579	14.64606	-25.22377	22.78276	188.77144	301.87157	187.1441	120.42316	54.51589	14.64606	0
957	-12.20505	0.81367	23.59643	15.45973	-18.71441	19.52808	187.95777	296.17588	179.0074	113.10013	48.8202	13.01872	0
958	-12.20505	-2.44101	17.90074	14.64606	-15.45973	14.64606	185.51676	289.66652	169.24336	103.33609	41.49717	8.95037	0
959	-16.2734	-7.32303	14.64606	16.2734	-16.2734	10.57771	182.26208	282.34349	157.85198	91.13104	33.36047	4.06835	0
960	-21.96909	-8.95037	15.45973	16.2734	-20.34175	9.76404	179.82107	275.02046	148.08794	80.55333	28.47845	0.81367	0
961	-28.47845	-7.32303	21.96909	17.08707	-26.85111	10.57771	179.0074	268.5111	139.95124	73.2303	26.03744	0	0
962	-37.42882	-4.06835	32.5468	19.52808	-35.80148	12.20505	178.19373	261.18807	132.62821	66.72094	25.22377	0	0
963	-48.00653	-4.06835	42.31084	24.4101	-45.56552	13.83239	176.56639	249.79669	122.86417	59.39791	21.96909	0.81367	0
964	-57.77057	-8.95037	47.19286	31.73313	-52.88855	14.64606	171.68437	235.9643	109.03178	48.00653	16.2734	0	0
965	-65.90727	-16.2734	50.44754	40.6835	-56.9569	12.20505	166.80235	220.50457	93.57205	34.98781	8.1367	-1.62734	0
966	-69.97562	-20.34175	52.88855	47.19286	-58.58424	12.20505	163.54767	209.11319	80.55333	23.59643	0	-4.06835	0
967	-66.72094	-14.64606	54.51589	50.44754	-57.77057	17.08707	164.36134	201.79016	70.78929	14.64606	-6.50936	-6.50936	0
968	-61.83892	-7.32303	60.21158	49.63387	-55.32956	24.4101	165.98868	197.72181	63.46626	6.50936	-10.57771	-8.95037	0
969	-55.32956	-3.25468	65.90727	45.56552	-52.07488	30.91946	166.80235	192.02612	55.32956	-0.81367	-13.01872	-9.76404	0
970	-49.63387	-0.81367	65.90727	39.86983	-48.8202	32.5468	165.98868	183.07575	43.12451	-13.01872	-17.90074	-11.39138	0
971	-46.37919	0	60.21158	32.5468	-46.37919	29.29212	161.92033	167.61602	26.03744	-29.29212	-25.22377	-13.83239	0
972	-45.56552	0.81367	55.32956	26.03744	-47.19286	24.4101	158.66565	149.71528	6.50936	-47.19286	-33.36047	-17.08707	0
973	-43.93818	2.44101	51.26121	21.96909	-47.19286	21.96909	155.41097	131.00087	-11.39138	-62.65259	-39.05616	-17.90074	0
974	-40.6835	4.06835	45.56552	18.71441	-44.75185	21.15542	152.15629	113.10013	-29.29212	-75.67131	-43.93818	-18.71441	0
975	-39.86983	3.25468	43.93818	17.08707	-44.75185	21.15542	147.27427	95.19939	-47.19286	-89.5037	-49.63387	-19.52808	0
976	-43.93818	0.81367	46.37919	17.08707	-48.8202	22.78276	141.57858	76.48498	-66.72094	-105.7771	-58.58424	-23.59643	0
977	-48.8202	0	48.8202	18.71441	-51.26121	24.4101	136.69656	58.58424	-86.24902	-123.67784	-69.97562	-28.47845	0
978	-50.44754	0	50.44754	19.52808	-52.07488	25.22377	134.25555	43.93818	-104.96343	-141.57858	-80.55333	-31.73313	0
979	-50.44754	2.44101	52.88855	19.52808	-53.70222	25.22377	131.00087	28.47845	-122.86417	-158.66565	-90.31737	-34.17414	0
980	-56.9569	0	56.9569	24.4101	-58.58424	26.03744	126.11885	11.39138	-144.01959	-177.38006	-100.89508	-36.61515	0
981	-71.60296	-6.50936	63.46626	36.61515	-68.34828	25.22377	118.79582	-9.76404	-167.61602	-198.53548	-112.28646	-41.49717	0
982	-90.31737	-17.90074	69.16195	52.07488	-81.367	24.4101	110.65912	-34.98781	-193.65346	-221.31824	-124.49151	-47.19286	0
983	-108.21811	-27.66478	73.2303	65.0936	-92.75838	22.78276	102.52242	-61.83892	-221.31824	-244.91467	-135.88289	-52.07488	0
984	-121.23683	-36.61515	74.85764	75.67131	-100.89508	20.34175	96.82673	-88.69003	-247.35568	-266.88376	-145.64693	-54.51589	0
985	-126.93252	-39.86983	75.67131	79.73966	-104.14976	19.52808	93.57205	-111.47279	-270.95211	-286.41184	-154.5973	-56.14323	0
986	-128.55986	-35.80148	78.11232	76.48498	-104.14976	21.96909	91.94471	-130.1872	-292.9212	-304.31258	-161.92033	-56.9569	0
987	-128.55986	-30.10579	82.18067	71.60296	-103.33609	26.85111	91.13104	-148.90161	-314.07662	-322.21332	-170.8707	-57.77057	0
988	-126.11885	-24.4101	88.69003	69.16195	-104.96343	31.73313	89.5037	-167.61602	-335.23204	-340.92773	-179.82107	-59.39791	0
989	-122.86417	-21.15542	93.57205	66.72094	-106.59077	35.80148	85.43535	-187.95777	-358.0148	-361.26948	-189.58511	-61.83892	0
990	-117.98215	-19.52808	92.75838	64.27993	-104.14976	36.61515	78.11232	-212.36787	-384.05224	-383.23857	-201.79016	-66.72094	0
991	-112.28646	-20.34175	87.06269	60.21158	-94.38572	33.36047	67.53461	-241.65999	-415.78537	-410.90335	-217.24989	-75.67131	0
992	-104.14976	-25.22377	82.99434	58.58424	-82.99434	28.47845	53.70222	-275.83413	-450.77318	-441.82281	-235.15063	-86.24902	0
993	-99.26774	-33.36047	80.55333	60.21158	-76.48498	23.59643	41.49717	-310.00827	-485.76099	-471.11493	-252.2377	-95.19939	0
994	-97.6404	-38.24249	82.99434	61.83892	-74.04397	23.59643	33.36047	-340.11406	-515.05311	-494.71136	-263.62908	-101.70875	0
995	-99.26774	-36.61515	87.87636	62.65259	-76.48498	26.85111	29.29212	-364.52416	-539.46321	-513.42577	-270.95211	-105.7771	0
996	-102.52242	-31.73313	88.69003	62.65259	-79.73966	29.29212	25.22377	-388.12059	-563.05964	-532.14018	-279.08881	-109.03178	0
997	-107.40444	-27.66478	86.24902	63.46626	-84.62168	28.47845	20.34175	-412.53069	-588.28341	-552.48193	-288.03918	-110.65912	0
998	-112.28646	-26.85111	84.62168	65.0936	-91.13104	26.03744	13.01872	-436.94079	-613.50718	-574.45102	-299.43056	-113.10013	0
999	-118.79582	-29.29212	84.62168	69.97562	-98.45407	24.4101	3.25468	-462.97823	-640.35829	-597.23378	-311.63561	-116.35481	0
1000	-132.62821	-38.24249	89.5037	82.18067	-110.65912	21.96909	-5.69569	-489.82934	-668.83674	-620.83021	-325.468	-122.0505	0
1001	-152.96996	-52.88855	96.82673	100.89508	-126.11885	19.52808	-17.08707	-518.30779	-696.50152	-644.42664	-338.48672	-128.55986	0
1002	-175.75272	-69.16195	103.33609	120.42316	-140.76491	15.45973	-28.47845	-547.59991	-724.1663	-667.2094	-351.50544	-135.06922	0
1003	-192.83979	-84.62168	105.7771	137.51023	-151.34262	10.57771	-39.05616	-576.07836	-751.01741	-688.36482	-362.89682	-139.95124	0
1004	-202.60383	-91.94471	107.40444	146.4606	-156.22464	8.1367	-45.56552	-602.92947	-774.61384	-706.26556	-372.66086	-144.01959	0
1005	-205.04484	-89.5037	110.65912	148.08794	-158.66565	12.20505	-48.8202	-624.08489	-794.14192	-720.91162	-378.35655	-146.4606	0
1006	-204.23117	-79.73966	117.16848	146.4606	-159.47932	19.52808	-50.44754	-640.35829	-809.60165	-732.303	-380.79756	-148.90161	0
1007	-201.79016	-72.41663	120.42316	142.39225	-158.66565	24.4101	-53.70222	-656.63169	-825.06138	-744.50805	-385.67958	-149.71528	0
1008	-198.53548	-71.60296	120.42316	139.13757	-157.03831	23.59643	-59.39791	-672.90509	-841.33478	-759.15411	-393.00261	-151.34262	0
1009	-195.2808	-75.67131	118.79582	137.51023	-154.5973	19.52808	-66.72094	-689.99216	-859.23552	-774.61384	-402.76665	-153.78363	0
1010	-194.46713	-80.55333	114.72747	137.51023	-153.78363	15.45973	-74.04397	-705.45189	-873.88158	-787.63256	-411.71702	-156.22464	0
1011	-193.65346	-81.367	110.65912	135.88289	-152.96996	13.83239	-80.55333	-718.47061	-884.45929	-796.58293	-416.59904	-157.03831	0
1012	-187.95777	-78.11232	109.03178	131.00087	-149.71528	15.45973	-85.43535	-729.04832	-891.78232	-801.46495	-419.04005	-157.03831	0
1013	-183.88942	-74.85764	109.84545	127.74619	-146.4606	15.45973	-91.13104	-739.62603	-899.10535	-804.71963	-420.66739	-158.66565	0
1014	-189.58511	-80.55333	111.47279	133.44188	-149.71528	14.64606	-96.82673	-749.39007	-908.05572	-807.16064	-423.92207	-161.10666	0
1015	-204.23117	-92.75838	113.9138	147.27427	-158.66565	13.01872	-100.89508	-755.08576	-915.37875	-810.41532	-427.17675	-162.734	0
1016	-218.87723	-102.52242	117.16848	159.47932	-167.61602	12.20505	-104.14976	-756.7131	-916.19242	-810.41532	-427.17675	-163.54767	0
1017	-228.64127	-104.96343	123.67784	165.98868	-174.93905	13.83239	-104.14976	-753.45842	-909.68306	-803.90596	-422.29473	-161.92033	0
1018	-231.89595	-97.6404	132.62821	163.54767	-179.0074	18.71441	-100.08141	-743.69438	-896.66434	-792.51458	-413.34436	-157.03831	0
1019	-226.20026	-82.99434	141.57858	152.96996	-179.82107	23.59643	-96.01306	-729.86199	-880.39094	-777.86852	-401.13931	-148.90161	0
1020	-213.18154	-68.34828	143.20592	138.3239	-174.93905	29.29212	-91.13104	-716.0296	-864.11754	-761.59512	-388.93426	-140.76491	0
1021	-192.83979	-56.14323	134.25555	122.86417	-161.92033	30.10579	-89.5037	-706.26556	-850.28515	-748.5764	-380.79756	-135.06922	0
1022	-169.24336	-49.63387	116.35481	108.21811	-142.39225	26.85111	-90.31737	-698.12886	-838.0801	-736.37135	-375.91554	-131.81454	0
1023	-146.4606	-47.19286	98.45407	94.38572	-122.86417	23.59643	-92.75838	-687.55115	-823.43404	-722.53896	-370.21985	-130.1872	0
1024	-129.37353	-48.00653	82.99434	85.43535	-107.40444	18.71441	-93.57205	-675.3461	-807.16064	-707.07923	-363.71049	-129.37353	0
1025	-119.60949	-50.44754	70.78929	82.99434	-96.01306	12.20505	-92.75838	-662.32738	-790.88724	-690.80583	-356.38746	-129.37353	0
1026	-117.98215	-56.9569	61.83892	85.43535	-91.13104	4.06835	-91.94471	-646.86765	-773.80017	-674.53243	-348.25076	-129.37353	0
1027	-125.30518	-68.34828	56.9569	95.19939	-91.94471	-4.06835	-91.13104	-630.59425	-755.89943	-659.0727	-340.11406	-130.1872	0
1028	-136.69656	-82.18067	54.51589	107.40444	-96.82673	-13.01872	-90.31737	-611.87984	-735.55768	-641.17196	-331.97736	-130.1872	0
1029	-144.01959	-91.94471	52.88855	116.35481	-100.89508	-20.34175	-89.5037	-590.72442	-712.77492	-621.64388	-321.39965	-128.55986	0
1030	-147.27427	-96.01306	52.88855	119.60949	-103.33609	-22.78276	-87.87636	-567.12799	-686.73748	-598.86112	-309.1946	-124.49151	0
