samplenr	I	II	III	aVR	aVL	aVF	V1	V2	V3	V4	V5	V6	measurement
0	0	-5.69569	-6.50936	2.44101	3.25468	-5.69569	1.62734	2.44101	3.25468	6.50936	0.81367	-3.25468	0
1	4.06835	-25.22377	-27.66478	11.39138	14.64606	-26.03744	8.1367	9.76404	13.01872	26.85111	2.44101	-15.45973	0
2	12.20505	-51.26121	-54.51589	22.78276	30.10579	-56.14323	15.45973	18.71441	25.22377	53.70222	2.44101	-30.10579	0
3	18.71441	-71.60296	-74.04397	30.91946	43.93818	-83.80801	17.08707	21.96909	33.36047	74.04397	0	-42.31084	0
4	21.15542	-85.43535	-90.31737	35.80148	55.32956	-103.33609	13.83239	19.52808	34.98781	84.62168	-1.62734	-48.00653	0
5	22.78276	-94.38572	-104.96343	37.42882	64.27993	-112.28646	6.50936	13.01872	32.5468	87.06269	-4.88202	-49.63387	0
6	25.22377	-98.45407	-116.35481	35.80148	71.60296	-115.54114	0	5.69569	30.10579	85.43535	-6.50936	-46.37919	0
7	29.29212	-98.45407	-122.0505	34.17414	77.29865	-113.9138	-1.62734	1.62734	30.10579	83.80801	-7.32303	-41.49717	0
8	31.73313	-97.6404	-123.67784	31.73313	81.367	-109.84545	-4.06835	3.25468	31.73313	83.80801	-6.50936	-36.61515	0
9	34.17414	-97.6404	-125.30518	30.10579	84.62168	-107.40444	-8.1367	7.32303	33.36047	85.43535	-3.25468	-32.5468	0
10	37.42882	-98.45407	-131.81454	30.10579	88.69003	-111.47279	-13.83239	9.76404	33.36047	87.06269	0.81367	-28.47845	0
11	40.6835	-103.33609	-142.39225	30.91946	94.38572	-119.60949	-18.71441	10.57771	30.10579	88.69003	4.88202	-22.78276	0
12	41.49717	-109.84545	-156.22464	33.36047	99.26774	-131.00087	-23.59643	8.95037	27.66478	87.06269	6.50936	-17.08707	0
13	39.05616	-117.16848	-170.05703	38.24249	100.08141	-142.39225	-27.66478	4.06835	24.4101	83.80801	2.44101	-13.83239	0
14	34.98781	-124.49151	-176.56639	43.93818	98.45407	-150.52895	-30.91946	-2.44101	19.52808	80.55333	-4.06835	-14.64606	0
15	31.73313	-127.74619	-174.12538	46.37919	96.82673	-151.34262	-31.73313	-6.50936	13.83239	76.48498	-11.39138	-17.08707	0
16	26.85111	-127.74619	-168.42969	46.37919	95.19939	-148.08794	-26.85111	-5.69569	11.39138	73.2303	-16.2734	-17.90074	0
17	18.71441	-125.30518	-165.98868	44.75185	95.19939	-142.39225	-21.15542	-1.62734	14.64606	73.2303	-16.2734	-17.90074	0
18	11.39138	-122.86417	-167.61602	46.37919	92.75838	-135.06922	-13.83239	4.88202	20.34175	74.85764	-13.01872	-17.08707	0
19	6.50936	-120.42316	-165.17501	51.26121	87.87636	-131.81454	-4.88202	13.83239	26.85111	78.92599	-8.95037	-14.64606	0
20	2.44101	-125.30518	-159.47932	59.39791	81.367	-135.06922	3.25468	21.15542	30.91946	80.55333	-8.95037	-14.64606	0
21	-0.81367	-138.3239	-157.85198	67.53461	78.11232	-144.01959	8.95037	26.03744	32.5468	80.55333	-13.01872	-19.52808	0
22	-4.88202	-155.41097	-157.85198	74.85764	77.29865	-156.22464	11.39138	27.66478	30.91946	77.29865	-21.96909	-29.29212	0
23	-7.32303	-173.31171	-156.22464	82.18067	78.11232	-169.24336	9.76404	25.22377	26.85111	73.2303	-32.5468	-39.86983	0
24	-8.1367	-185.51676	-157.03831	87.87636	78.11232	-178.19373	8.1367	21.15542	21.15542	69.16195	-41.49717	-46.37919	0
25	-10.57771	-189.58511	-160.29299	92.75838	78.11232	-181.44841	5.69569	17.08707	16.2734	65.0936	-48.00653	-48.00653	0
26	-16.2734	-191.21245	-163.54767	96.82673	76.48498	-181.44841	4.88202	16.2734	12.20505	61.02525	-52.07488	-46.37919	0
27	-26.03744	-191.21245	-163.54767	101.70875	74.85764	-183.07575	4.88202	18.71441	8.95037	56.9569	-56.14323	-44.75185	0
28	-32.5468	-193.65346	-162.734	105.7771	74.04397	-187.95777	7.32303	21.15542	7.32303	53.70222	-61.83892	-47.19286	0
29	-34.17414	-196.90814	-164.36134	109.84545	74.04397	-192.83979	9.76404	21.96909	6.50936	52.07488	-66.72094	-52.88855	0
30	-31.73313	-200.97649	-170.05703	113.10013	75.67131	-195.2808	11.39138	20.34175	4.88202	51.26121	-70.78929	-59.39791	0
31	-27.66478	-205.85851	-178.19373	115.54114	78.92599	-198.53548	12.20505	17.08707	2.44101	49.63387	-74.04397	-63.46626	0
32	-26.03744	-209.11319	-189.58511	117.16848	81.367	-202.60383	13.01872	14.64606	0	48.8202	-74.85764	-65.90727	0
33	-25.22377	-210.74053	-200.97649	117.98215	82.99434	-207.48585	12.20505	11.39138	-1.62734	47.19286	-73.2303	-62.65259	0
34	-23.59643	-210.74053	-206.67218	118.79582	82.99434	-209.92686	11.39138	8.1367	-1.62734	45.56552	-71.60296	-57.77057	0
35	-22.78276	-210.74053	-203.4175	119.60949	82.99434	-207.48585	8.95037	4.06835	-2.44101	43.12451	-73.2303	-56.14323	0
36	-22.78276	-209.92686	-196.90814	120.42316	82.18067	-204.23117	7.32303	0	-4.06835	41.49717	-77.29865	-60.21158	0
37	-22.78276	-209.92686	-187.95777	120.42316	80.55333	-197.72181	6.50936	-0.81367	-3.25468	40.6835	-80.55333	-65.0936	0
38	-23.59643	-209.92686	-178.19373	118.79582	79.73966	-191.21245	8.1367	0	-1.62734	42.31084	-82.18067	-65.90727	0
39	-25.22377	-209.92686	-173.31171	117.98215	79.73966	-187.1441	10.57771	1.62734	-0.81367	45.56552	-82.18067	-61.02525	0
40	-26.85111	-209.92686	-173.31171	118.79582	78.11232	-187.95777	15.45973	5.69569	0	48.8202	-78.11232	-55.32956	0
41	-28.47845	-211.5542	-177.38006	120.42316	78.11232	-192.02612	20.34175	9.76404	3.25468	51.26121	-74.04397	-54.51589	0
42	-30.91946	-213.18154	-185.51676	122.0505	77.29865	-198.53548	26.03744	13.01872	5.69569	52.88855	-73.2303	-55.32956	0
43	-32.5468	-213.99521	-196.09447	122.86417	77.29865	-205.85851	27.66478	13.01872	5.69569	53.70222	-76.48498	-57.77057	0
44	-30.91946	-214.80888	-202.60383	123.67784	77.29865	-209.92686	26.85111	8.95037	2.44101	52.88855	-82.18067	-63.46626	0
45	-29.29212	-214.80888	-201.79016	125.30518	78.92599	-209.92686	24.4101	3.25468	-1.62734	50.44754	-87.87636	-69.97562	0
46	-31.73313	-214.80888	-196.09447	126.11885	78.11232	-206.67218	21.96909	0	-5.69569	48.00653	-91.13104	-73.2303	0
47	-39.05616	-214.80888	-191.21245	126.93252	74.85764	-200.16282	21.96909	-0.81367	-6.50936	47.19286	-91.13104	-68.34828	0
48	-45.56552	-214.80888	-190.39878	127.74619	70.78929	-192.83979	26.03744	2.44101	-3.25468	48.8202	-87.87636	-59.39791	0
49	-48.8202	-215.62255	-187.95777	128.55986	67.53461	-187.95777	30.91946	8.95037	3.25468	51.26121	-85.43535	-51.26121	0
50	-47.19286	-216.43622	-184.70309	129.37353	66.72094	-188.77144	35.80148	15.45973	9.76404	54.51589	-84.62168	-47.19286	0
51	-44.75185	-218.87723	-183.88942	130.1872	68.34828	-193.65346	40.6835	21.15542	14.64606	57.77057	-84.62168	-46.37919	0
52	-43.12451	-220.50457	-187.95777	131.00087	69.97562	-200.97649	43.93818	24.4101	17.90074	60.21158	-87.06269	-50.44754	0
53	-42.31084	-221.31824	-196.09447	131.00087	70.78929	-208.29952	44.75185	24.4101	19.52808	61.83892	-91.13104	-55.32956	0
54	-41.49717	-220.50457	-198.53548	131.00087	70.78929	-210.74053	43.93818	21.96909	20.34175	62.65259	-94.38572	-58.58424	0
55	-39.86983	-219.6909	-195.2808	128.55986	70.78929	-209.11319	40.6835	17.90074	20.34175	61.02525	-96.82673	-57.77057	0
56	-35.80148	-218.87723	-192.02612	126.11885	73.2303	-206.67218	37.42882	16.2734	21.15542	57.77057	-99.26774	-55.32956	0
57	-27.66478	-218.06356	-189.58511	122.0505	79.73966	-204.23117	37.42882	17.90074	23.59643	55.32956	-100.89508	-54.51589	0
58	-21.15542	-218.06356	-187.1441	118.79582	86.24902	-200.16282	36.61515	21.96909	26.85111	54.51589	-100.08141	-56.9569	0
59	-17.90074	-218.87723	-186.33043	117.98215	90.31737	-198.53548	34.98781	25.22377	29.29212	55.32956	-99.26774	-59.39791	0
60	-17.08707	-219.6909	-189.58511	118.79582	91.94471	-200.97649	34.17414	28.47845	31.73313	56.9569	-101.70875	-62.65259	0
61	-18.71441	-221.31824	-196.09447	120.42316	92.75838	-205.85851	34.17414	30.91946	33.36047	60.21158	-106.59077	-63.46626	0
62	-20.34175	-222.94558	-205.04484	121.23683	92.75838	-213.18154	34.98781	33.36047	34.17414	63.46626	-109.03178	-61.83892	0
63	-22.78276	-223.75925	-214.80888	122.86417	91.94471	-219.6909	34.17414	32.5468	35.80148	65.0936	-109.84545	-60.21158	0
64	-23.59643	-223.75925	-218.87723	124.49151	90.31737	-222.13191	31.73313	30.10579	39.86983	65.0936	-109.03178	-56.14323	0
65	-25.22377	-223.75925	-213.99521	126.11885	87.87636	-220.50457	28.47845	26.85111	43.12451	64.27993	-110.65912	-52.07488	0
66	-26.03744	-222.94558	-206.67218	126.93252	86.24902	-215.62255	26.03744	25.22377	45.56552	64.27993	-113.9138	-48.00653	0
67	-24.4101	-222.13191	-197.72181	126.11885	85.43535	-209.92686	25.22377	27.66478	50.44754	64.27993	-117.16848	-46.37919	0
68	-24.4101	-222.13191	-187.95777	124.49151	85.43535	-202.60383	25.22377	30.10579	54.51589	65.90727	-116.35481	-47.19286	0
69	-25.22377	-222.13191	-183.07575	124.49151	84.62168	-198.53548	22.78276	32.5468	57.77057	67.53461	-114.72747	-48.00653	0
70	-27.66478	-222.94558	-183.88942	125.30518	83.80801	-200.16282	20.34175	34.98781	61.83892	70.78929	-115.54114	-44.75185	0
71	-29.29212	-224.57292	-188.77144	126.93252	83.80801	-204.23117	20.34175	38.24249	67.53461	74.04397	-117.98215	-37.42882	0
72	-31.73313	-226.20026	-197.72181	128.55986	84.62168	-210.74053	20.34175	39.05616	72.41663	76.48498	-117.98215	-30.91946	0
73	-32.5468	-226.20026	-209.11319	128.55986	84.62168	-218.06356	19.52808	38.24249	75.67131	77.29865	-117.16848	-28.47845	0
74	-32.5468	-227.01393	-214.80888	128.55986	83.80801	-221.31824	16.2734	34.17414	75.67131	77.29865	-116.35481	-28.47845	0
75	-32.5468	-227.01393	-211.5542	128.55986	82.99434	-220.50457	11.39138	28.47845	74.04397	75.67131	-116.35481	-30.91946	0
76	-31.73313	-227.01393	-205.04484	127.74619	81.367	-216.43622	6.50936	25.22377	73.2303	73.2303	-116.35481	-33.36047	0
77	-30.10579	-226.20026	-196.09447	127.74619	81.367	-210.74053	2.44101	25.22377	74.85764	72.41663	-114.72747	-30.91946	0
78	-28.47845	-225.38659	-187.1441	126.93252	82.18067	-204.23117	0.81367	27.66478	78.92599	74.04397	-112.28646	-24.4101	0
79	-28.47845	-225.38659	-182.26208	126.11885	82.18067	-200.16282	0	29.29212	82.18067	76.48498	-106.59077	-16.2734	0
80	-28.47845	-224.57292	-183.07575	126.93252	82.18067	-200.97649	0.81367	31.73313	85.43535	79.73966	-101.70875	-9.76404	0
81	-30.10579	-225.38659	-187.95777	127.74619	82.18067	-204.23117	2.44101	33.36047	87.87636	82.99434	-99.26774	-6.50936	0
82	-32.5468	-226.20026	-196.90814	128.55986	82.99434	-209.92686	3.25468	34.17414	88.69003	84.62168	-98.45407	-8.95037	0
83	-33.36047	-226.20026	-207.48585	129.37353	82.99434	-216.43622	2.44101	30.91946	87.06269	84.62168	-96.01306	-13.01872	0
84	-33.36047	-226.20026	-213.18154	129.37353	82.18067	-219.6909	0	26.03744	83.80801	82.99434	-93.57205	-17.08707	0
85	-33.36047	-225.38659	-209.11319	127.74619	81.367	-218.06356	-1.62734	20.34175	79.73966	80.55333	-91.94471	-19.52808	0
86	-31.73313	-223.75925	-202.60383	126.11885	80.55333	-213.99521	-4.06835	17.08707	74.85764	78.92599	-91.94471	-21.15542	0
87	-29.29212	-221.31824	-192.83979	124.49151	80.55333	-206.67218	-6.50936	17.90074	69.97562	78.92599	-91.94471	-22.78276	0
88	-26.85111	-219.6909	-183.07575	122.86417	81.367	-199.34915	-6.50936	20.34175	68.34828	81.367	-93.57205	-23.59643	0
89	-26.03744	-218.87723	-178.19373	122.0505	82.18067	-195.2808	-5.69569	22.78276	69.97562	84.62168	-91.94471	-25.22377	0
90	-27.66478	-218.87723	-179.0074	122.86417	81.367	-195.2808	-3.25468	25.22377	73.2303	87.87636	-90.31737	-23.59643	0
91	-30.91946	-219.6909	-182.26208	125.30518	79.73966	-198.53548	0	28.47845	78.11232	91.94471	-89.5037	-20.34175	0
92	-34.17414	-221.31824	-183.88942	127.74619	78.92599	-204.23117	0.81367	30.10579	81.367	93.57205	-87.87636	-17.90074	0
93	-36.61515	-221.31824	-182.26208	128.55986	78.11232	-211.5542	0.81367	29.29212	82.99434	94.38572	-85.43535	-18.71441	0
94	-37.42882	-221.31824	-181.44841	128.55986	77.29865	-213.99521	-0.81367	25.22377	80.55333	93.57205	-83.80801	-21.96909	0
95	-35.80148	-220.50457	-182.26208	127.74619	76.48498	-212.36787	-3.25468	20.34175	76.48498	91.94471	-82.99434	-27.66478	0
96	-34.17414	-218.87723	-182.26208	125.30518	76.48498	-208.29952	-4.88202	17.08707	74.04397	91.13104	-82.18067	-31.73313	0
97	-30.91946	-216.43622	-179.82107	122.86417	76.48498	-200.97649	-4.06835	17.08707	75.67131	92.75838	-78.92599	-30.91946	0
98	-26.85111	-214.80888	-174.93905	120.42316	78.11232	-193.65346	-1.62734	20.34175	79.73966	95.19939	-74.04397	-26.03744	0
99	-24.4101	-213.18154	-174.93905	117.16848	80.55333	-191.21245	0.81367	26.03744	82.99434	98.45407	-71.60296	-19.52808	0
100	-22.78276	-213.18154	-179.0074	114.72747	82.99434	-192.83979	4.06835	31.73313	86.24902	101.70875	-71.60296	-17.08707	1000	P+0
101	-22.78276	-213.99521	-185.51676	113.9138	84.62168	-196.90814	6.50936	36.61515	89.5037	104.96343	-72.41663	-18.71441	0
102	-22.78276	-214.80888	-190.39878	114.72747	87.87636	-204.23117	6.50936	39.05616	92.75838	107.40444	-75.67131	-21.15542	0
103	-21.15542	-214.80888	-192.02612	116.35481	90.31737	-210.74053	5.69569	39.05616	94.38572	108.21811	-80.55333	-21.96909	0
104	-19.52808	-213.99521	-192.02612	119.60949	91.13104	-214.80888	8.1367	36.61515	93.57205	105.7771	-85.43535	-21.15542	0
105	-21.96909	-216.43622	-192.83979	123.67784	88.69003	-213.99521	10.57771	30.91946	88.69003	98.45407	-93.57205	-22.78276	0
106	-24.4101	-222.94558	-196.09447	127.74619	87.87636	-216.43622	9.76404	19.52808	71.60296	79.73966	-109.03178	-30.10579	0
107	-24.4101	-236.77797	-202.60383	133.44188	86.24902	-221.31824	3.25468	-4.06835	34.98781	43.12451	-139.13757	-46.37919	0
108	-22.78276	-253.86504	-208.29952	139.95124	82.18067	-226.20026	-12.20505	-51.26121	-27.66478	-17.08707	-183.88942	-69.97562	0
109	-22.78276	-267.69743	-217.24989	145.64693	82.99434	-234.33696	-40.6835	-123.67784	-122.0505	-103.33609	-241.65999	-97.6404	0
110	-24.4101	-274.20679	-227.01393	149.71528	89.5037	-243.28733	-80.55333	-220.50457	-248.16935	-215.62255	-310.00827	-128.55986	0
111	-26.03744	-275.83413	-231.89595	152.96996	93.57205	-248.98302	-126.11885	-336.04571	-404.39399	-353.13278	-392.18894	-162.734	0
112	-23.59643	-274.20679	-231.08228	155.41097	94.38572	-252.2377	-167.61602	-457.28254	-584.21506	-513.42577	-488.202	-204.23117	0
113	-22.78276	-271.76578	-227.8276	156.22464	96.01306	-255.49238	-194.46713	-562.24597	-771.35916	-683.4828	-593.9791	-251.42403	0
114	-21.96909	-267.69743	-227.8276	152.15629	100.08141	-256.30605	-198.53548	-640.35829	-950.36656	-849.47148	-695.68785	-290.48019	0
115	-13.83239	-253.05137	-227.01393	137.51023	98.45407	-248.16935	-191.21245	-714.40226	-1124.49194	-1000.8141	-781.1232	-311.63561	0
116	2.44101	-216.43622	-213.18154	108.21811	84.62168	-219.6909	-195.2808	-832.38441	-1314.89072	-1144.02002	-849.47148	-318.14497	0
117	21.96909	-150.52895	-170.8707	64.27993	64.27993	-164.36134	-223.75925	-1024.41053	-1542.71832	-1296.17631	-913.75141	-316.51763	0
118	33.36047	-52.07488	-91.94471	8.1367	33.36047	-75.67131	-272.57945	-1279.08924	-1804.72006	-1465.41967	-987.79538	-314.89029	0
119	38.24249	79.73966	30.91946	-60.21158	-17.90074	52.88855	-335.23204	-1561.43273	-2078.11318	-1644.42707	-1072.41706	-317.3313	0
120	34.17414	248.16935	204.23117	-141.57858	-96.82673	223.75925	-405.20766	-1841.33521	-2339.30125	-1812.04309	-1149.71571	-317.3313	0
121	14.64606	441.00914	418.22638	-228.64127	-206.67218	428.80409	-468.67392	-2076.48584	-2550.04178	-1946.29864	-1205.04527	-305.93992	0
122	-26.03744	614.32085	649.30866	-301.87157	-336.04571	639.54462	-501.22072	-2226.20112	-2680.22898	-2026.0383	-1228.6417	-286.41184	0
123	-86.24902	726.60731	854.3535	-343.36874	-464.60557	816.92468	-496.3387	-2295.36307	-2736.37221	-2042.3117	-1223.75968	-266.07009	0
124	-152.15629	782.75054	995.11841	-345.80975	-566.31432	924.32912	-475.18328	-2304.31344	-2727.42184	-1999.18719	-1196.90857	-251.42403	0
125	-215.62255	786.81889	1053.70265	-310.82194	-628.96691	949.55289	-449.95951	-2262.81627	-2656.63255	-1914.56551	-1155.4114	-255.49238	0
126	-273.39312	735.55768	1043.93861	-248.16935	-655.00435	908.86939	-427.99042	-2181.44927	-2532.14104	-1806.3474	-1114.7279	-289.66652	0
127	-324.65433	640.35829	982.91336	-165.98868	-653.37701	820.17936	-414.9717	-2065.09446	-2364.52502	-1684.2969	-1086.24945	-345.80975	0
128	-362.89682	517.49412	885.27296	-78.11232	-629.78058	702.19721	-404.39399	-1916.19285	-2162.73486	-1552.48236	-1063.46669	-402.76665	0
129	-379.98389	387.30692	768.10448	-3.25468	-585.02873	574.45102	-387.30692	-1730.67609	-1930.83891	-1403.58075	-1026.03787	-454.02786	0
130	-372.66086	270.13844	646.05398	43.12451	-520.7488	454.02786	-360.45581	-1508.54418	-1672.09185	-1231.89638	-956.87592	-484.13365	0
131	-343.36874	183.07575	528.07183	65.90727	-444.26382	352.31911	-323.84066	-1264.44318	-1399.5124	-1043.12494	-855.16717	-476.81062	0
132	-294.54854	131.00087	425.54941	67.53461	-362.89682	277.46147	-280.71615	-1019.52851	-1131.0013	-848.65781	-731.48933	-433.68611	0
133	-234.33696	110.65912	344.18241	52.07488	-287.22551	231.08228	-236.77797	-789.2599	-877.94993	-658.25903	-598.04745	-365.33783	0
134	-170.8707	109.03178	280.71615	24.4101	-220.50457	200.16282	-192.02612	-580.14671	-647.68132	-477.62429	-461.35089	-279.90248	0
135	-111.47279	115.54114	227.8276	-4.88202	-165.17501	176.56639	-144.83326	-392.18894	-441.00914	-308.38093	-327.90901	-190.39878	0
136	-60.21158	122.0505	183.88942	-31.73313	-118.79582	156.22464	-96.82673	-226.20026	-260.3744	-156.22464	-203.4175	-104.96343	0
137	-21.96909	126.93252	152.96996	-52.07488	-87.06269	142.39225	-51.26121	-88.69003	-112.28646	-27.66478	-97.6404	-30.10579	0
138	-0.81367	130.1872	136.69656	-67.53461	-72.41663	136.69656	-11.39138	18.71441	0.81367	71.60296	-13.83239	29.29212	0
139	12.20505	133.44188	126.11885	-78.11232	-61.83892	133.44188	19.52808	96.82673	84.62168	144.01959	48.00653	73.2303	0
140	22.78276	135.06922	115.54114	-84.62168	-50.44754	128.55986	41.49717	149.71528	142.39225	192.02612	91.13104	102.52242	0
141	32.5468	132.62821	104.96343	-87.06269	-39.86983	120.42316	54.51589	183.88942	181.44841	221.31824	121.23683	120.42316	0
142	41.49717	126.93252	95.19939	-84.62168	-31.73313	113.9138	58.58424	203.4175	208.29952	238.40531	139.95124	128.55986	0
143	47.19286	120.42316	87.06269	-79.73966	-23.59643	108.21811	60.21158	213.18154	227.01393	248.98302	149.71528	131.00087	0
144	48.00653	111.47279	75.67131	-74.04397	-14.64606	98.45407	61.83892	218.87723	241.65999	255.49238	154.5973	128.55986	0
145	48.8202	100.89508	61.02525	-69.16195	-5.69569	85.43535	62.65259	225.38659	253.05137	259.56073	156.22464	126.11885	0
146	50.44754	91.94471	47.19286	-65.90727	1.62734	72.41663	62.65259	232.70962	263.62908	263.62908	157.85198	125.30518	0
147	52.88855	84.62168	39.05616	-64.27993	8.1367	59.39791	63.46626	243.28733	274.20679	269.32477	161.10666	125.30518	0
148	53.70222	77.29865	34.98781	-62.65259	13.01872	46.37919	65.90727	257.11972	286.41184	277.46147	165.98868	123.67784	0
149	54.51589	70.78929	30.10579	-61.83892	17.90074	36.61515	70.78929	272.57945	298.61689	286.41184	173.31171	122.0505	0
150	54.51589	65.0936	20.34175	-60.21158	21.96909	30.91946	77.29865	287.22551	310.00827	294.54854	182.26208	122.0505	0
151	51.26121	58.58424	11.39138	-58.58424	22.78276	27.66478	82.18067	298.61689	317.3313	301.87157	194.46713	123.67784	0
152	43.93818	49.63387	8.1367	-53.70222	21.15542	23.59643	85.43535	305.12625	321.39965	308.38093	205.04484	125.30518	0
153	38.24249	39.86983	8.1367	-48.00653	19.52808	17.90074	87.87636	309.1946	323.02699	313.26295	212.36787	126.11885	0
154	37.42882	34.17414	7.32303	-44.75185	20.34175	13.83239	91.13104	311.63561	324.65433	315.70396	216.43622	125.30518	0
155	37.42882	32.5468	4.88202	-43.12451	20.34175	13.83239	94.38572	312.44928	325.468	315.70396	217.24989	124.49151	0
156	39.05616	34.98781	2.44101	-41.49717	19.52808	15.45973	97.6404	312.44928	326.28167	315.70396	218.06356	122.86417	0
157	42.31084	37.42882	4.88202	-42.31084	21.15542	20.34175	100.89508	313.26295	327.09534	316.51763	218.87723	123.67784	0
158	46.37919	39.05616	9.76404	-43.12451	23.59643	26.03744	104.96343	315.70396	327.90901	318.14497	220.50457	126.11885	0
159	47.19286	39.05616	11.39138	-43.12451	26.03744	28.47845	109.84545	319.77231	327.09534	320.58598	224.57292	129.37353	0
160	44.75185	38.24249	8.95037	-40.6835	24.4101	26.03744	115.54114	324.65433	327.90901	324.65433	228.64127	131.00087	0
161	39.05616	34.98781	4.06835	-36.61515	21.96909	21.96909	121.23683	329.53635	330.35002	328.72268	232.70962	128.55986	0
162	34.17414	33.36047	0	-34.17414	21.15542	15.45973	125.30518	332.79103	331.97736	331.16369	236.77797	125.30518	0
163	32.5468	32.5468	-1.62734	-32.5468	22.78276	7.32303	125.30518	331.97736	331.16369	331.97736	241.65999	122.0505	0
164	32.5468	31.73313	-2.44101	-32.5468	22.78276	4.06835	122.0505	328.72268	328.72268	331.16369	245.72834	117.98215	0
165	33.36047	31.73313	-2.44101	-33.36047	21.96909	5.69569	117.16848	323.02699	325.468	328.72268	248.16935	114.72747	0
166	35.80148	32.5468	-3.25468	-35.80148	21.96909	8.95037	113.9138	317.3313	323.02699	325.468	248.98302	113.10013	0
167	41.49717	34.17414	-0.81367	-38.24249	23.59643	13.83239	113.10013	314.07662	324.65433	322.21332	249.79669	111.47279	0
168	47.19286	34.98781	3.25468	-41.49717	26.85111	20.34175	111.47279	314.89029	327.09534	322.21332	251.42403	108.21811	0
169	51.26121	35.80148	3.25468	-43.93818	30.91946	22.78276	109.03178	318.14497	329.53635	323.02699	255.49238	104.96343	0
170	52.07488	36.61515	0	-45.56552	32.5468	21.15542	107.40444	323.02699	332.79103	324.65433	261.18807	104.14976	0
171	49.63387	35.80148	-4.88202	-45.56552	31.73313	17.08707	107.40444	327.09534	336.04571	327.09534	269.32477	104.96343	0
172	42.31084	34.98781	-12.20505	-43.93818	28.47845	12.20505	109.03178	327.90901	336.85938	329.53635	276.6478	106.59077	0
173	35.80148	35.80148	-21.96909	-40.6835	24.4101	6.50936	109.03178	327.90901	338.48672	331.16369	280.71615	106.59077	0
174	32.5468	37.42882	-24.4101	-38.24249	20.34175	5.69569	108.21811	328.72268	340.11406	331.16369	282.34349	106.59077	0
175	31.73313	37.42882	-17.08707	-36.61515	17.08707	8.95037	105.7771	327.09534	340.92773	328.72268	283.15716	106.59077	0
176	29.29212	38.24249	-7.32303	-36.61515	14.64606	14.64606	102.52242	326.28167	341.7414	326.28167	283.15716	106.59077	0
177	25.22377	39.05616	-0.81367	-37.42882	13.01872	21.96909	101.70875	327.09534	344.18241	323.84066	283.97083	109.03178	0
178	23.59643	39.86983	0	-37.42882	12.20505	30.91946	102.52242	331.97736	347.43709	323.84066	286.41184	113.9138	0
179	24.4101	40.6835	0.81367	-38.24249	12.20505	35.80148	105.7771	341.7414	349.8781	324.65433	291.29386	119.60949	0
180	26.85111	41.49717	4.88202	-37.42882	10.57771	35.80148	109.84545	353.13278	352.31911	325.468	294.54854	122.0505	0
181	30.10579	41.49717	8.1367	-35.80148	8.95037	33.36047	113.9138	363.71049	354.76012	327.09534	295.36221	122.0505	0
182	36.61515	42.31084	12.20505	-34.98781	7.32303	28.47845	116.35481	370.21985	354.76012	327.90901	294.54854	121.23683	0
183	41.49717	44.75185	15.45973	-35.80148	8.95037	21.96909	116.35481	375.10187	354.76012	327.90901	293.73487	121.23683	0
184	43.93818	47.19286	14.64606	-39.05616	12.20505	17.90074	114.72747	379.17022	356.38746	327.09534	292.10753	119.60949	0
185	42.31084	48.8202	14.64606	-42.31084	13.01872	20.34175	111.47279	384.05224	358.0148	323.84066	289.66652	116.35481	0
186	36.61515	52.07488	17.08707	-43.93818	10.57771	26.85111	109.03178	391.37527	358.82847	319.77231	288.03918	113.9138	0
187	27.66478	57.77057	21.15542	-44.75185	5.69569	33.36047	108.21811	398.6983	360.45581	318.14497	288.03918	114.72747	0
188	21.15542	66.72094	22.78276	-45.56552	0.81367	35.80148	108.21811	406.835	364.52416	318.14497	289.66652	117.98215	0
189	17.08707	72.41663	27.66478	-44.75185	-4.06835	40.6835	109.84545	414.9717	370.21985	319.77231	288.03918	122.86417	0
190	13.83239	73.2303	36.61515	-42.31084	-11.39138	48.00653	112.28646	424.73574	377.54288	322.21332	284.7845	127.74619	0
191	12.20505	71.60296	48.00653	-38.24249	-20.34175	55.32956	117.16848	434.49978	386.49325	324.65433	282.34349	130.1872	0
192	16.2734	69.97562	58.58424	-34.98781	-27.66478	63.46626	121.23683	441.82281	393.00261	326.28167	279.08881	133.44188	0
193	21.96909	70.78929	63.46626	-35.80148	-26.85111	69.97562	122.0505	443.45015	395.44362	323.84066	272.57945	136.69656	0
194	26.85111	72.41663	60.21158	-41.49717	-20.34175	71.60296	118.79582	440.19547	393.00261	318.14497	264.44275	138.3239	0
195	31.73313	74.85764	53.70222	-48.8202	-12.20505	69.16195	113.9138	433.68611	388.93426	310.82194	257.11972	138.3239	0
196	31.73313	78.92599	50.44754	-55.32956	-8.1367	67.53461	110.65912	428.80409	384.05224	304.31258	252.2377	139.13757	0
197	26.85111	86.24902	49.63387	-59.39791	-7.32303	66.72094	109.84545	427.99042	381.61123	301.0579	249.79669	143.20592	0
198	21.15542	96.01306	49.63387	-61.83892	-10.57771	65.90727	113.9138	427.99042	382.4249	301.0579	249.79669	149.71528	0
199	17.08707	102.52242	56.14323	-61.02525	-17.08707	69.97562	121.23683	427.99042	386.49325	304.31258	253.05137	158.66565	0
200	16.2734	104.14976	65.0936	-60.21158	-23.59643	76.48498	129.37353	427.17675	392.18894	306.75359	256.30605	165.17501	0
201	17.08707	103.33609	69.97562	-59.39791	-26.03744	81.367	137.51023	426.36308	396.25729	308.38093	257.11972	167.61602	0
202	16.2734	103.33609	69.16195	-60.21158	-26.85111	82.99434	143.20592	424.73574	399.51197	307.56726	257.93339	167.61602	0
203	14.64606	104.96343	62.65259	-61.02525	-29.29212	82.18067	146.4606	423.1084	400.32564	306.75359	258.74706	169.24336	0
204	14.64606	108.21811	63.46626	-61.83892	-32.5468	84.62168	148.90161	420.66739	398.6983	305.12625	258.74706	170.8707	0
205	14.64606	111.47279	74.04397	-64.27993	-36.61515	91.94471	152.96996	417.41271	396.25729	301.87157	257.93339	172.49804	0
206	14.64606	116.35481	88.69003	-66.72094	-41.49717	101.70875	158.66565	414.9717	393.00261	298.61689	255.49238	174.12538	0
207	17.08707	124.49151	100.08141	-69.97562	-45.56552	109.84545	162.734	414.9717	389.74793	295.36221	253.86504	174.12538	0
208	17.90074	135.88289	105.7771	-73.2303	-48.00653	113.9138	166.80235	418.22638	388.12059	293.73487	253.86504	171.68437	0
209	17.90074	144.01959	111.47279	-76.48498	-51.26121	118.79582	171.68437	424.73574	388.93426	293.73487	251.42403	168.42969	0
210	16.2734	147.27427	119.60949	-80.55333	-54.51589	126.11885	178.19373	431.2451	391.37527	294.54854	245.72834	165.17501	0
211	13.83239	148.90161	126.11885	-82.99434	-56.9569	132.62821	184.70309	436.94079	393.81628	294.54854	240.03265	161.92033	0
212	9.76404	150.52895	126.93252	-83.80801	-59.39791	140.76491	187.1441	439.3818	395.44362	293.73487	232.70962	156.22464	0
213	6.50936	155.41097	123.67784	-84.62168	-62.65259	151.34262	189.58511	441.00914	394.62995	292.10753	223.75925	148.08794	0
214	4.88202	161.10666	127.74619	-84.62168	-67.53461	161.10666	192.83979	442.63648	392.18894	289.66652	214.80888	139.95124	0
215	2.44101	166.80235	142.39225	-85.43535	-74.85764	168.42969	196.90814	443.45015	387.30692	286.41184	205.85851	131.81454	0
216	2.44101	174.12538	160.29299	-87.06269	-82.18067	176.56639	199.34915	445.07749	381.61123	282.34349	197.72181	123.67784	0
217	4.88202	185.51676	174.12538	-91.13104	-87.87636	182.26208	200.97649	447.5185	375.10187	278.27514	191.21245	117.16848	0
218	7.32303	200.97649	182.26208	-96.82673	-91.13104	185.51676	202.60383	449.95951	371.03352	275.02046	189.58511	112.28646	0
219	6.50936	213.99521	192.83979	-104.14976	-96.82673	192.83979	206.67218	451.58685	369.40618	274.20679	187.1441	109.03178	0
220	2.44101	221.31824	207.48585	-109.84545	-104.96343	205.04484	212.36787	454.02786	367.77884	274.20679	185.51676	108.21811	0
221	-1.62734	226.20026	222.94558	-112.28646	-114.72747	218.06356	218.87723	457.28254	364.52416	274.20679	183.07575	109.03178	0
222	-0.81367	231.89595	235.15063	-113.9138	-122.0505	227.01393	222.94558	458.09621	362.08315	271.76578	177.38006	106.59077	0
223	0	239.21898	245.72834	-116.35481	-125.30518	231.08228	222.94558	454.02786	358.82847	266.07009	167.61602	100.08141	0
224	1.62734	247.35568	252.2377	-121.23683	-126.11885	235.9643	218.87723	446.70483	352.31911	257.93339	156.22464	91.13104	0
225	3.25468	255.49238	256.30605	-127.74619	-126.11885	244.91467	213.18154	436.12712	343.36874	247.35568	144.01959	84.62168	0
226	5.69569	264.44275	262.81541	-134.25555	-127.74619	256.30605	207.48585	425.54941	331.97736	236.77797	132.62821	79.73966	0
227	9.76404	274.20679	267.69743	-141.57858	-130.1872	266.88376	203.4175	416.59904	322.21332	227.8276	122.86417	76.48498	0
228	13.83239	283.97083	270.95211	-148.90161	-131.81454	273.39312	199.34915	410.90335	314.07662	219.6909	113.9138	71.60296	0
229	16.2734	293.73487	275.83413	-156.22464	-133.44188	281.52982	192.83979	404.39399	307.56726	212.36787	105.7771	68.34828	0
230	14.64606	304.31258	287.22551	-161.92033	-139.13757	293.73487	184.70309	396.25729	299.43056	206.67218	100.89508	65.0936	0
231	13.01872	314.07662	301.87157	-163.54767	-148.08794	306.75359	176.56639	388.12059	292.10753	200.97649	97.6404	62.65259	0
232	13.83239	323.02699	317.3313	-165.17501	-157.03831	316.51763	170.05703	378.35655	283.15716	192.83979	92.75838	62.65259	0
233	16.2734	333.6047	328.72268	-167.61602	-161.92033	321.39965	165.98868	363.71049	270.95211	181.44841	84.62168	64.27993	0
234	16.2734	343.36874	336.04571	-173.31171	-163.54767	326.28167	158.66565	344.18241	253.86504	166.80235	74.04397	64.27993	0
235	16.2734	350.69177	340.11406	-179.0074	-163.54767	334.41837	148.08794	319.77231	233.52329	148.90161	61.02525	65.0936	0
236	18.71441	358.0148	342.55507	-183.88942	-161.92033	342.55507	135.06922	293.73487	210.74053	130.1872	48.00653	66.72094	0
237	24.4101	366.96517	342.55507	-189.58511	-160.29299	349.06443	121.23683	267.69743	186.33043	111.47279	36.61515	65.90727	0
238	28.47845	378.35655	341.7414	-196.09447	-158.66565	351.50544	109.03178	242.47366	163.54767	93.57205	29.29212	64.27993	0
239	30.10579	386.49325	343.36874	-201.79016	-159.47932	355.57379	95.19939	219.6909	143.20592	76.48498	23.59643	64.27993	0
240	30.10579	389.74793	347.43709	-204.23117	-161.10666	362.08315	77.29865	197.72181	123.67784	61.02525	17.90074	63.46626	0
241	31.73313	389.74793	350.69177	-205.85851	-162.734	366.1515	59.39791	174.93905	104.14976	44.75185	11.39138	62.65259	0
242	35.80148	385.67958	353.13278	-207.48585	-161.92033	365.33783	43.12451	150.52895	83.80801	27.66478	3.25468	61.83892	0
243	38.24249	378.35655	353.94645	-208.29952	-160.29299	360.45581	25.22377	122.86417	60.21158	8.95037	-7.32303	62.65259	0
244	37.42882	374.2882	353.94645	-207.48585	-158.66565	356.38746	6.50936	91.13104	34.98781	-10.57771	-18.71441	64.27993	0
245	36.61515	373.47453	351.50544	-205.85851	-157.03831	356.38746	-13.01872	56.14323	7.32303	-31.73313	-30.91946	65.90727	0
246	36.61515	373.47453	347.43709	-205.04484	-154.5973	356.38746	-33.36047	21.15542	-19.52808	-52.88855	-43.12451	66.72094	0
247	40.6835	372.66086	344.18241	-205.85851	-149.71528	353.13278	-52.07488	-11.39138	-48.00653	-74.04397	-54.51589	69.16195	0
248	43.93818	371.03352	344.99608	-205.85851	-144.01959	344.18241	-68.34828	-41.49717	-73.2303	-92.75838	-64.27993	74.04397	0
249	45.56552	369.40618	339.30039	-204.23117	-138.3239	336.04571	-81.367	-67.53461	-96.01306	-109.03178	-72.41663	78.92599	0
250	46.37919	363.71049	324.65433	-200.16282	-131.81454	327.90901	-92.75838	-91.13104	-115.54114	-124.49151	-78.11232	81.367	0
251	48.8202	351.50544	305.12625	-195.2808	-124.49151	316.51763	-103.33609	-113.10013	-133.44188	-139.13757	-82.99434	80.55333	0
252	53.70222	335.23204	283.97083	-188.77144	-114.72747	304.31258	-113.10013	-133.44188	-149.71528	-152.96996	-88.69003	78.92599	0
253	56.9569	319.77231	265.25642	-182.26208	-104.96343	292.9212	-122.86417	-153.78363	-165.98868	-166.80235	-96.01306	77.29865	0
254	56.14323	302.68524	247.35568	-174.93905	-96.82673	279.08881	-131.81454	-172.49804	-182.26208	-179.0074	-103.33609	75.67131	0
255	52.88855	283.97083	231.08228	-166.80235	-88.69003	261.18807	-139.95124	-189.58511	-196.90814	-189.58511	-109.84545	73.2303	0
256	52.88855	265.25642	213.18154	-159.47932	-79.73966	242.47366	-146.4606	-205.04484	-211.5542	-199.34915	-115.54114	68.34828	0
257	56.14323	246.54201	193.65346	-151.34262	-74.04397	221.31824	-148.90161	-218.06356	-223.75925	-209.11319	-120.42316	62.65259	0
258	57.77057	227.8276	171.68437	-143.20592	-73.2303	197.72181	-151.34262	-225.38659	-231.89595	-216.43622	-124.49151	57.77057	0
259	56.9569	209.11319	152.15629	-134.25555	-68.34828	177.38006	-155.41097	-228.64127	-235.9643	-220.50457	-126.11885	53.70222	0
260	55.32956	191.21245	135.88289	-124.49151	-56.9569	161.10666	-158.66565	-229.45494	-236.77797	-221.31824	-126.11885	51.26121	0
261	51.26121	173.31171	119.60949	-113.10013	-44.75185	144.83326	-161.10666	-228.64127	-235.9643	-219.6909	-126.93252	49.63387	0
262	44.75185	156.22464	104.96343	-102.52242	-33.36047	130.1872	-163.54767	-227.8276	-234.33696	-216.43622	-126.93252	47.19286	0
263	39.05616	139.95124	92.75838	-91.13104	-24.4101	118.79582	-162.734	-225.38659	-231.89595	-213.18154	-123.67784	42.31084	0
264	34.98781	123.67784	81.367	-80.55333	-18.71441	106.59077	-159.47932	-220.50457	-227.01393	-209.92686	-121.23683	36.61515	0
265	30.91946	106.59077	70.78929	-69.97562	-15.45973	91.94471	-153.78363	-215.62255	-222.13191	-206.67218	-119.60949	31.73313	0
266	27.66478	91.13104	62.65259	-60.21158	-14.64606	78.92599	-146.4606	-208.29952	-218.06356	-203.4175	-119.60949	30.10579	0
267	26.85111	77.29865	59.39791	-52.07488	-17.08707	65.0936	-140.76491	-202.60383	-213.99521	-199.34915	-119.60949	26.85111	0
268	26.85111	66.72094	57.77057	-45.56552	-21.96909	49.63387	-137.51023	-196.90814	-210.74053	-194.46713	-118.79582	21.96909	0
269	26.85111	61.02525	50.44754	-39.86983	-19.52808	34.98781	-133.44188	-190.39878	-205.04484	-187.95777	-117.16848	16.2734	0
270	28.47845	52.88855	33.36047	-34.98781	-9.76404	24.4101	-129.37353	-182.26208	-199.34915	-180.63474	-114.72747	10.57771	0
271	27.66478	40.6835	14.64606	-30.10579	2.44101	13.83239	-125.30518	-174.12538	-193.65346	-173.31171	-113.9138	6.50936	0
272	23.59643	27.66478	-1.62734	-24.4101	12.20505	6.50936	-123.67784	-169.24336	-189.58511	-165.17501	-110.65912	0.81367	0
273	19.52808	16.2734	-13.01872	-17.90074	19.52808	0.81367	-120.42316	-163.54767	-183.07575	-158.66565	-106.59077	-5.69569	0
274	19.52808	5.69569	-22.78276	-11.39138	25.22377	-4.88202	-117.16848	-157.85198	-176.56639	-152.15629	-103.33609	-13.83239	0
275	21.15542	-4.06835	-32.5468	-5.69569	30.10579	-14.64606	-114.72747	-152.96996	-170.05703	-147.27427	-101.70875	-21.15542	0
276	21.96909	-13.01872	-40.6835	-1.62734	34.17414	-24.4101	-114.72747	-147.27427	-164.36134	-142.39225	-102.52242	-24.4101	0
277	18.71441	-20.34175	-47.19286	0	36.61515	-28.47845	-113.10013	-143.20592	-159.47932	-137.51023	-103.33609	-28.47845	0
278	16.2734	-27.66478	-52.88855	1.62734	37.42882	-27.66478	-110.65912	-139.13757	-152.96996	-131.00087	-102.52242	-32.5468	0
279	14.64606	-32.5468	-55.32956	4.06835	36.61515	-28.47845	-105.7771	-133.44188	-143.20592	-122.0505	-99.26774	-34.17414	0
280	14.64606	-35.80148	-56.14323	6.50936	35.80148	-33.36047	-100.89508	-126.11885	-131.81454	-112.28646	-95.19939	-34.17414	0
281	14.64606	-39.05616	-58.58424	8.95037	37.42882	-40.6835	-96.01306	-120.42316	-122.0505	-103.33609	-93.57205	-33.36047	0
282	13.01872	-44.75185	-62.65259	11.39138	39.86983	-47.19286	-91.94471	-117.16848	-114.72747	-96.01306	-91.94471	-34.17414	0
283	12.20505	-53.70222	-65.90727	13.83239	42.31084	-51.26121	-90.31737	-114.72747	-108.21811	-89.5037	-90.31737	-36.61515	0
284	12.20505	-59.39791	-68.34828	17.08707	43.93818	-54.51589	-90.31737	-111.47279	-100.89508	-83.80801	-87.87636	-39.86983	0
285	12.20505	-62.65259	-69.97562	20.34175	44.75185	-59.39791	-91.94471	-109.84545	-95.19939	-79.73966	-87.87636	-41.49717	0
286	11.39138	-63.46626	-72.41663	21.96909	44.75185	-64.27993	-96.01306	-110.65912	-91.94471	-76.48498	-89.5037	-40.6835	0
287	8.1367	-63.46626	-75.67131	22.78276	46.37919	-64.27993	-101.70875	-110.65912	-90.31737	-73.2303	-93.57205	-40.6835	0
288	6.50936	-64.27993	-80.55333	21.96909	47.19286	-61.02525	-105.7771	-108.21811	-86.24902	-68.34828	-96.01306	-41.49717	0
289	7.32303	-65.0936	-82.18067	22.78276	47.19286	-59.39791	-107.40444	-103.33609	-81.367	-62.65259	-95.19939	-40.6835	0
290	8.1367	-65.90727	-81.367	23.59643	45.56552	-61.83892	-106.59077	-96.01306	-74.04397	-56.14323	-94.38572	-40.6835	0
291	7.32303	-67.53461	-81.367	24.4101	44.75185	-66.72094	-102.52242	-89.5037	-67.53461	-49.63387	-95.19939	-40.6835	0
292	4.06835	-72.41663	-81.367	26.03744	44.75185	-70.78929	-97.6404	-86.24902	-64.27993	-43.12451	-95.19939	-39.05616	0
293	0.81367	-78.92599	-81.367	29.29212	44.75185	-71.60296	-93.57205	-83.80801	-61.02525	-38.24249	-94.38572	-36.61515	0
294	0.81367	-84.62168	-82.18067	32.5468	44.75185	-74.04397	-91.94471	-80.55333	-56.9569	-34.98781	-95.19939	-33.36047	0
295	1.62734	-85.43535	-83.80801	34.17414	44.75185	-77.29865	-90.31737	-79.73966	-54.51589	-33.36047	-98.45407	-31.73313	0
296	1.62734	-84.62168	-85.43535	34.98781	46.37919	-81.367	-87.06269	-79.73966	-54.51589	-33.36047	-103.33609	-31.73313	0
297	-0.81367	-84.62168	-87.87636	34.98781	48.00653	-80.55333	-84.62168	-78.92599	-56.14323	-32.5468	-109.03178	-30.91946	0
298	-4.06835	-85.43535	-91.13104	35.80148	48.00653	-76.48498	-82.18067	-76.48498	-55.32956	-30.91946	-112.28646	-26.85111	0
299	-4.88202	-86.24902	-90.31737	38.24249	45.56552	-73.2303	-78.11232	-69.97562	-52.07488	-27.66478	-113.10013	-21.96909	0
300	-6.50936	-86.24902	-86.24902	41.49717	41.49717	-74.04397	-71.60296	-62.65259	-46.37919	-22.78276	-111.47279	-17.90074	0
301	-5.69569	-86.24902	-80.55333	45.56552	42.31084	-75.67131	-65.0936	-52.88855	-39.86983	-17.08707	-107.40444	-16.2734	0
302	0	-88.69003	-75.67131	49.63387	52.07488	-76.48498	-58.58424	-43.93818	-33.36047	-12.20505	-105.7771	-13.01872	0
303	4.88202	-94.38572	-78.11232	49.63387	61.02525	-78.11232	-56.9569	-39.05616	-30.10579	-8.95037	-108.21811	-11.39138	0
304	11.39138	-98.45407	-87.87636	46.37919	66.72094	-84.62168	-61.02525	-39.86983	-32.5468	-8.1367	-114.72747	-12.20505	0
305	18.71441	-100.08141	-101.70875	40.6835	71.60296	-94.38572	-69.16195	-44.75185	-38.24249	-10.57771	-123.67784	-15.45973	0
306	21.96909	-99.26774	-112.28646	35.80148	74.04397	-101.70875	-78.92599	-50.44754	-44.75185	-14.64606	-131.81454	-20.34175	0
307	19.52808	-98.45407	-117.98215	34.17414	72.41663	-103.33609	-86.24902	-54.51589	-49.63387	-17.08707	-139.13757	-21.96909	0
308	15.45973	-98.45407	-119.60949	34.98781	69.97562	-98.45407	-88.69003	-54.51589	-52.07488	-17.08707	-143.20592	-20.34175	0
309	13.01872	-98.45407	-117.98215	36.61515	65.90727	-94.38572	-87.06269	-52.07488	-50.44754	-14.64606	-144.01959	-17.08707	0
310	10.57771	-97.6404	-113.9138	39.05616	61.83892	-94.38572	-83.80801	-47.19286	-47.19286	-11.39138	-143.20592	-13.83239	0
311	8.1367	-98.45407	-111.47279	42.31084	59.39791	-97.6404	-80.55333	-41.49717	-43.12451	-7.32303	-143.20592	-13.01872	0
312	4.06835	-101.70875	-111.47279	44.75185	59.39791	-104.96343	-76.48498	-36.61515	-38.24249	-3.25468	-142.39225	-12.20505	0
313	2.44101	-108.21811	-112.28646	47.19286	60.21158	-115.54114	-74.04397	-33.36047	-35.80148	0	-139.95124	-10.57771	0
314	2.44101	-113.10013	-113.10013	48.8202	61.02525	-121.23683	-74.04397	-32.5468	-34.98781	0.81367	-137.51023	-9.76404	0
315	2.44101	-114.72747	-113.10013	52.07488	60.21158	-122.0505	-72.41663	-33.36047	-34.98781	1.62734	-135.88289	-8.95037	0
316	0.81367	-113.10013	-111.47279	53.70222	58.58424	-117.98215	-69.97562	-34.98781	-35.80148	1.62734	-131.81454	-8.1367	0
317	-2.44101	-107.40444	-109.03178	53.70222	56.14323	-113.9138	-67.53461	-35.80148	-36.61515	3.25468	-124.49151	-5.69569	0
318	-4.06835	-99.26774	-107.40444	52.07488	53.70222	-111.47279	-65.90727	-33.36047	-34.98781	6.50936	-119.60949	-0.81367	0
319	-4.06835	-92.75838	-104.96343	48.8202	51.26121	-108.21811	-62.65259	-29.29212	-31.73313	10.57771	-117.16848	3.25468	0
320	-2.44101	-89.5037	-100.08141	44.75185	48.8202	-101.70875	-56.9569	-21.96909	-26.03744	15.45973	-115.54114	8.1367	0
321	0	-87.87636	-95.19939	41.49717	46.37919	-96.01306	-52.07488	-14.64606	-21.15542	21.15542	-115.54114	9.76404	0
322	5.69569	-84.62168	-92.75838	39.05616	46.37919	-93.57205	-49.63387	-7.32303	-17.90074	26.85111	-114.72747	11.39138	0
323	11.39138	-80.55333	-91.94471	37.42882	48.00653	-96.82673	-46.37919	-2.44101	-14.64606	30.91946	-111.47279	13.01872	0
324	13.01872	-78.11232	-91.13104	36.61515	49.63387	-98.45407	-40.6835	-1.62734	-10.57771	34.17414	-109.03178	13.83239	0
325	11.39138	-78.11232	-89.5037	37.42882	49.63387	-95.19939	-34.17414	-2.44101	-7.32303	37.42882	-106.59077	13.83239	0
326	6.50936	-77.29865	-85.43535	37.42882	47.19286	-88.69003	-26.85111	-5.69569	-4.88202	38.24249	-104.96343	14.64606	0
327	0	-77.29865	-82.18067	37.42882	44.75185	-79.73966	-21.96909	-9.76404	-2.44101	39.05616	-105.7771	13.83239	0
328	-3.25468	-77.29865	-80.55333	35.80148	42.31084	-69.16195	-18.71441	-11.39138	-1.62734	39.86983	-105.7771	11.39138	0
329	-4.06835	-77.29865	-78.11232	34.98781	39.05616	-61.83892	-16.2734	-9.76404	-1.62734	42.31084	-103.33609	8.95037	0
330	-3.25468	-74.85764	-74.85764	34.17414	37.42882	-61.02525	-13.01872	-4.88202	0	45.56552	-100.89508	6.50936	0
331	0	-72.41663	-73.2303	34.17414	36.61515	-63.46626	-9.76404	1.62734	2.44101	49.63387	-99.26774	4.88202	0
332	5.69569	-69.97562	-72.41663	34.17414	36.61515	-69.97562	-6.50936	8.1367	7.32303	55.32956	-96.01306	4.06835	0
333	8.95037	-65.90727	-72.41663	33.36047	37.42882	-78.92599	-4.88202	13.83239	12.20505	60.21158	-91.13104	5.69569	0
334	9.76404	-64.27993	-72.41663	32.5468	38.24249	-83.80801	-5.69569	14.64606	14.64606	64.27993	-87.06269	8.1367	0
335	8.95037	-63.46626	-72.41663	29.29212	39.05616	-81.367	-8.95037	13.01872	16.2734	68.34828	-83.80801	8.95037	0
336	10.57771	-61.83892	-70.78929	26.03744	39.86983	-75.67131	-13.01872	8.95037	16.2734	71.60296	-82.18067	8.95037	0
337	15.45973	-61.02525	-65.90727	23.59643	41.49717	-67.53461	-16.2734	4.88202	15.45973	74.04397	-80.55333	9.76404	0
338	18.71441	-61.83892	-56.9569	21.15542	43.93818	-60.21158	-21.15542	2.44101	15.45973	76.48498	-78.92599	11.39138	0
339	18.71441	-65.0936	-56.14323	21.96909	46.37919	-58.58424	-28.47845	0.81367	15.45973	78.92599	-77.29865	13.01872	0
340	17.08707	-69.97562	-63.46626	23.59643	48.00653	-64.27993	-35.80148	0.81367	17.08707	80.55333	-76.48498	15.45973	0
341	16.2734	-74.85764	-74.85764	26.03744	49.63387	-73.2303	-41.49717	1.62734	18.71441	80.55333	-77.29865	17.08707	0
342	17.08707	-82.18067	-84.62168	28.47845	50.44754	-79.73966	-44.75185	2.44101	21.15542	81.367	-76.48498	17.08707	0
343	17.90074	-90.31737	-92.75838	32.5468	52.07488	-82.99434	-47.19286	2.44101	24.4101	82.18067	-75.67131	15.45973	0
344	17.90074	-96.01306	-100.08141	34.17414	55.32956	-87.87636	-52.07488	0	24.4101	82.18067	-74.04397	12.20505	0
345	19.52808	-98.45407	-108.21811	34.17414	61.83892	-95.19939	-59.39791	-6.50936	21.15542	80.55333	-74.04397	8.95037	0
346	24.4101	-98.45407	-115.54114	33.36047	68.34828	-102.52242	-68.34828	-14.64606	17.90074	77.29865	-74.85764	5.69569	0
347	30.91946	-99.26774	-122.86417	32.5468	74.04397	-104.96343	-75.67131	-22.78276	16.2734	74.04397	-77.29865	3.25468	0
348	34.98781	-100.08141	-128.55986	31.73313	78.92599	-102.52242	-79.73966	-27.66478	13.83239	70.78929	-78.92599	3.25468	0
349	36.61515	-99.26774	-131.81454	30.10579	81.367	-100.08141	-78.92599	-27.66478	12.20505	69.97562	-78.11232	5.69569	0
350	38.24249	-97.6404	-133.44188	28.47845	83.80801	-102.52242	-76.48498	-27.66478	10.57771	72.41663	-75.67131	11.39138	0
351	39.05616	-96.82673	-136.69656	27.66478	87.06269	-108.21811	-73.2303	-30.10579	7.32303	76.48498	-73.2303	17.90074	0
352	36.61515	-98.45407	-142.39225	29.29212	91.13104	-116.35481	-69.97562	-31.73313	5.69569	78.11232	-72.41663	20.34175	0
353	35.80148	-104.14976	-151.34262	32.5468	96.82673	-124.49151	-67.53461	-34.98781	4.88202	76.48498	-76.48498	17.90074	0
354	35.80148	-113.9138	-161.10666	38.24249	101.70875	-135.06922	-67.53461	-40.6835	0.81367	71.60296	-84.62168	12.20505	0
355	35.80148	-126.11885	-170.05703	43.12451	105.7771	-147.27427	-69.16195	-47.19286	-4.88202	65.0936	-93.57205	4.88202	0
356	36.61515	-135.06922	-173.31171	47.19286	101.70875	-153.78363	-70.78929	-50.44754	-11.39138	59.39791	-99.26774	0	0
357	34.98781	-138.3239	-169.24336	51.26121	88.69003	-154.5973	-68.34828	-51.26121	-14.64606	57.77057	-99.26774	-1.62734	0
358	28.47845	-138.3239	-160.29299	54.51589	74.85764	-151.34262	-58.58424	-50.44754	-14.64606	58.58424	-97.6404	0	0
359	17.08707	-136.69656	-148.08794	58.58424	65.90727	-145.64693	-45.56552	-45.56552	-10.57771	61.02525	-98.45407	2.44101	0
360	5.69569	-135.88289	-136.69656	64.27993	60.21158	-139.13757	-31.73313	-39.05616	-8.1367	64.27993	-100.89508	4.06835	0
361	-1.62734	-139.13757	-132.62821	70.78929	57.77057	-137.51023	-20.34175	-32.5468	-8.1367	66.72094	-104.14976	3.25468	0
362	-3.25468	-145.64693	-135.88289	78.11232	60.21158	-140.76491	-12.20505	-27.66478	-8.1367	66.72094	-111.47279	-1.62734	1500	QRS+0
363	-3.25468	-152.15629	-144.83326	83.80801	65.90727	-146.4606	-8.95037	-26.85111	-8.95037	65.90727	-122.0505	-10.57771	0
364	-4.88202	-161.10666	-154.5973	87.87636	72.41663	-155.41097	-8.95037	-28.47845	-10.57771	63.46626	-133.44188	-18.71441	0
365	-8.1367	-171.68437	-161.92033	91.94471	75.67131	-165.17501	-12.20505	-32.5468	-14.64606	61.02525	-144.83326	-26.03744	0
366	-12.20505	-181.44841	-166.80235	97.6404	76.48498	-173.31171	-15.45973	-35.80148	-18.71441	56.9569	-156.22464	-31.73313	0
367	-13.83239	-190.39878	-170.05703	102.52242	76.48498	-175.75272	-18.71441	-39.05616	-24.4101	51.26121	-166.80235	-34.98781	0
368	-14.64606	-196.90814	-174.12538	106.59077	76.48498	-174.12538	-20.34175	-40.6835	-30.91946	44.75185	-176.56639	-37.42882	0
369	-17.08707	-201.79016	-177.38006	108.21811	77.29865	-174.12538	-20.34175	-40.6835	-36.61515	39.86983	-183.88942	-38.24249	0
370	-20.34175	-203.4175	-178.19373	109.03178	77.29865	-177.38006	-17.90074	-39.05616	-39.86983	37.42882	-187.1441	-39.86983	0
371	-26.03744	-204.23117	-177.38006	109.84545	74.85764	-182.26208	-14.64606	-34.98781	-40.6835	36.61515	-187.1441	-42.31084	0
372	-34.17414	-208.29952	-176.56639	112.28646	72.41663	-186.33043	-10.57771	-30.91946	-39.05616	36.61515	-187.95777	-43.12451	0
373	-39.05616	-214.80888	-176.56639	116.35481	71.60296	-187.95777	-8.1367	-27.66478	-38.24249	36.61515	-191.21245	-43.12451	0
374	-39.86983	-220.50457	-179.0074	120.42316	72.41663	-191.21245	-8.95037	-26.03744	-38.24249	37.42882	-195.2808	-41.49717	0
375	-38.24249	-222.94558	-181.44841	125.30518	74.04397	-196.09447	-13.01872	-26.85111	-39.05616	37.42882	-200.16282	-41.49717	0
376	-37.42882	-223.75925	-183.88942	127.74619	74.85764	-200.16282	-18.71441	-30.10579	-39.86983	36.61515	-206.67218	-42.31084	0
377	-39.05616	-223.75925	-186.33043	128.55986	76.48498	-199.34915	-24.4101	-33.36047	-40.6835	34.98781	-214.80888	-43.12451	0
378	-40.6835	-224.57292	-187.95777	127.74619	76.48498	-194.46713	-28.47845	-35.80148	-43.12451	31.73313	-222.94558	-43.12451	0
379	-39.86983	-224.57292	-187.95777	126.93252	75.67131	-190.39878	-31.73313	-34.17414	-46.37919	30.10579	-227.8276	-42.31084	0
380	-38.24249	-222.13191	-185.51676	126.93252	74.04397	-190.39878	-33.36047	-30.10579	-48.8202	29.29212	-230.26861	-40.6835	0
381	-38.24249	-220.50457	-184.70309	126.11885	74.04397	-193.65346	-34.17414	-26.03744	-48.8202	30.91946	-230.26861	-39.86983	0
382	-39.05616	-221.31824	-185.51676	126.11885	74.85764	-196.90814	-34.98781	-21.96909	-48.00653	33.36047	-231.08228	-39.05616	0
383	-40.6835	-225.38659	-186.33043	126.93252	74.85764	-197.72181	-37.42882	-18.71441	-46.37919	36.61515	-234.33696	-37.42882	0
384	-41.49717	-230.26861	-186.33043	129.37353	74.85764	-199.34915	-41.49717	-17.90074	-44.75185	39.05616	-238.40531	-35.80148	0
385	-41.49717	-231.89595	-187.1441	133.44188	74.85764	-203.4175	-47.19286	-19.52808	-44.75185	40.6835	-242.47366	-35.80148	0
386	-42.31084	-231.89595	-186.33043	135.88289	73.2303	-205.85851	-54.51589	-23.59643	-47.19286	39.86983	-247.35568	-37.42882	0
387	-46.37919	-232.70962	-184.70309	137.51023	70.78929	-204.23117	-58.58424	-28.47845	-50.44754	38.24249	-252.2377	-39.05616	0
388	-50.44754	-233.52329	-183.07575	139.13757	67.53461	-198.53548	-60.21158	-31.73313	-52.88855	36.61515	-257.11972	-39.05616	0
389	-50.44754	-233.52329	-183.07575	138.3239	66.72094	-195.2808	-60.21158	-31.73313	-53.70222	34.98781	-261.18807	-38.24249	0
390	-47.19286	-231.08228	-183.88942	135.88289	68.34828	-196.90814	-60.21158	-30.10579	-52.88855	35.80148	-262.81541	-36.61515	0
391	-41.49717	-228.64127	-184.70309	134.25555	69.97562	-199.34915	-58.58424	-26.03744	-50.44754	38.24249	-263.62908	-34.17414	0
392	-34.98781	-228.64127	-184.70309	134.25555	69.97562	-205.85851	-56.9569	-21.96909	-47.19286	41.49717	-265.25642	-34.17414	0
393	-33.36047	-232.70962	-184.70309	134.25555	70.78929	-215.62255	-55.32956	-18.71441	-43.12451	44.75185	-268.5111	-36.61515	0
394	-34.98781	-236.77797	-187.1441	135.06922	71.60296	-222.13191	-56.9569	-17.90074	-41.49717	46.37919	-273.39312	-40.6835	0
395	-36.61515	-237.59164	-188.77144	135.06922	73.2303	-222.94558	-61.83892	-20.34175	-40.6835	47.19286	-279.08881	-43.12451	0
396	-39.05616	-237.59164	-192.02612	133.44188	76.48498	-221.31824	-68.34828	-26.03744	-42.31084	46.37919	-285.59817	-44.75185	0
397	-42.31084	-233.52329	-197.72181	131.81454	81.367	-220.50457	-74.85764	-33.36047	-45.56552	43.12451	-292.9212	-47.19286	0
398	-43.12451	-226.20026	-200.97649	130.1872	84.62168	-221.31824	-79.73966	-38.24249	-48.00653	40.6835	-298.61689	-51.26121	0
399	-41.49717	-221.31824	-199.34915	129.37353	82.99434	-218.87723	-80.55333	-39.86983	-47.19286	40.6835	-301.87157	-53.70222	0
400	-40.6835	-219.6909	-193.65346	129.37353	78.92599	-213.18154	-79.73966	-36.61515	-42.31084	43.12451	-302.68524	-53.70222	0
401	-39.05616	-220.50457	-188.77144	131.00087	74.85764	-208.29952	-79.73966	-31.73313	-35.80148	47.19286	-304.31258	-54.51589	0
402	-34.98781	-223.75925	-187.1441	131.00087	73.2303	-205.04484	-78.92599	-25.22377	-29.29212	50.44754	-305.12625	-54.51589	0
403	-32.5468	-229.45494	-188.77144	131.81454	74.85764	-203.4175	-79.73966	-20.34175	-22.78276	52.88855	-304.31258	-52.88855	0
404	-31.73313	-233.52329	-191.21245	131.00087	76.48498	-204.23117	-80.55333	-17.90074	-18.71441	55.32956	-304.31258	-51.26121	0
405	-30.91946	-235.15063	-193.65346	129.37353	79.73966	-207.48585	-83.80801	-18.71441	-17.08707	55.32956	-306.75359	-50.44754	0
406	-30.91946	-233.52329	-196.90814	127.74619	82.99434	-210.74053	-88.69003	-22.78276	-17.90074	54.51589	-312.44928	-52.07488	0
407	-33.36047	-228.64127	-199.34915	125.30518	86.24902	-213.99521	-93.57205	-26.85111	-21.15542	52.07488	-318.95864	-53.70222	0
408	-34.98781	-220.50457	-200.16282	124.49151	86.24902	-215.62255	-95.19939	-29.29212	-23.59643	49.63387	-326.28167	-53.70222	0
409	-35.80148	-214.80888	-196.09447	124.49151	82.99434	-213.99521	-94.38572	-26.85111	-23.59643	48.00653	-330.35002	-52.07488	0
410	-36.61515	-212.36787	-189.58511	124.49151	78.11232	-208.29952	-91.94471	-21.96909	-20.34175	49.63387	-331.16369	-47.19286	0
411	-34.98781	-212.36787	-183.88942	125.30518	74.04397	-203.4175	-89.5037	-16.2734	-14.64606	53.70222	-328.72268	-42.31084	0
412	-30.91946	-215.62255	-181.44841	125.30518	71.60296	-198.53548	-87.06269	-9.76404	-8.95037	57.77057	-327.90901	-39.86983	0
413	-27.66478	-220.50457	-181.44841	125.30518	72.41663	-195.2808	-86.24902	-4.88202	-4.88202	61.02525	-329.53635	-40.6835	0
414	-26.03744	-225.38659	-185.51676	124.49151	75.67131	-196.09447	-87.87636	-3.25468	-2.44101	61.83892	-332.79103	-43.12451	0
415	-25.22377	-226.20026	-189.58511	122.86417	79.73966	-200.97649	-91.13104	-4.88202	-2.44101	61.83892	-336.04571	-47.19286	0
416	-26.03744	-225.38659	-192.02612	121.23683	82.99434	-204.23117	-91.94471	-8.95037	-4.06835	61.02525	-340.11406	-50.44754	0
417	-28.47845	-220.50457	-193.65346	120.42316	83.80801	-206.67218	-92.75838	-13.83239	-5.69569	59.39791	-344.18241	-52.07488	0
418	-30.91946	-213.18154	-193.65346	119.60949	83.80801	-209.11319	-94.38572	-16.2734	-6.50936	57.77057	-346.62342	-51.26121	0
419	-30.91946	-206.67218	-190.39878	118.79582	82.18067	-207.48585	-94.38572	-15.45973	-4.88202	56.14323	-347.43709	-48.00653	0
420	-30.10579	-204.23117	-186.33043	117.98215	78.92599	-202.60383	-92.75838	-11.39138	-0.81367	57.77057	-347.43709	-43.93818	0
421	-30.91946	-203.4175	-181.44841	117.16848	76.48498	-196.90814	-91.13104	-5.69569	3.25468	60.21158	-349.06443	-39.86983	0
422	-34.98781	-205.04484	-177.38006	117.98215	72.41663	-196.09447	-87.87636	0	8.1367	63.46626	-349.06443	-38.24249	0
423	-39.86983	-209.92686	-173.31171	119.60949	69.16195	-200.97649	-85.43535	3.25468	12.20505	65.90727	-349.06443	-39.86983	0
424	-40.6835	-213.99521	-171.68437	122.0505	67.53461	-205.04484	-84.62168	4.88202	13.83239	67.53461	-349.8781	-42.31084	0
425	-39.05616	-215.62255	-172.49804	125.30518	68.34828	-203.4175	-87.87636	1.62734	13.01872	69.16195	-351.50544	-45.56552	0
426	-36.61515	-214.80888	-172.49804	127.74619	67.53461	-199.34915	-92.75838	-2.44101	10.57771	69.16195	-354.76012	-49.63387	0
427	-32.5468	-210.74053	-171.68437	126.93252	66.72094	-192.02612	-96.82673	-8.1367	8.95037	68.34828	-358.82847	-52.88855	0
428	-27.66478	-203.4175	-174.12538	123.67784	69.16195	-182.26208	-100.08141	-12.20505	5.69569	66.72094	-363.71049	-54.51589	0
429	-21.96909	-197.72181	-179.0074	117.16848	74.85764	-178.19373	-103.33609	-14.64606	1.62734	64.27993	-368.59251	-56.14323	0
430	-16.2734	-195.2808	-182.26208	111.47279	79.73966	-179.82107	-105.7771	-13.83239	0	63.46626	-372.66086	-55.32956	0
431	-16.2734	-193.65346	-182.26208	107.40444	81.367	-182.26208	-104.96343	-8.95037	0.81367	65.90727	-375.91554	-52.07488	0
432	-21.15542	-195.2808	-179.0074	105.7771	79.73966	-186.33043	-101.70875	-3.25468	3.25468	68.34828	-377.54288	-51.26121	0
433	-26.03744	-200.16282	-175.75272	106.59077	77.29865	-194.46713	-97.6404	1.62734	5.69569	69.97562	-376.72921	-52.88855	0
434	-28.47845	-203.4175	-172.49804	107.40444	74.04397	-197.72181	-96.01306	4.88202	6.50936	71.60296	-375.91554	-56.14323	0
435	-28.47845	-204.23117	-170.8707	108.21811	73.2303	-196.90814	-97.6404	6.50936	6.50936	72.41663	-375.91554	-59.39791	0
436	-28.47845	-203.4175	-171.68437	109.03178	73.2303	-193.65346	-102.52242	8.1367	5.69569	72.41663	-374.2882	-61.83892	0
437	-30.10579	-199.34915	-173.31171	109.03178	74.85764	-187.1441	-107.40444	7.32303	4.06835	72.41663	-369.40618	-61.02525	0
438	-30.10579	-192.83979	-174.93905	109.03178	75.67131	-178.19373	-111.47279	6.50936	4.88202	74.04397	-365.33783	-56.9569	0
439	-28.47845	-188.77144	-174.93905	108.21811	75.67131	-172.49804	-114.72747	6.50936	8.95037	78.92599	-363.71049	-50.44754	0
440	-26.03744	-187.95777	-173.31171	107.40444	74.85764	-171.68437	-115.54114	8.95037	15.45973	84.62168	-362.89682	-43.12451	0
441	-21.96909	-188.77144	-171.68437	107.40444	74.04397	-174.12538	-114.72747	13.01872	23.59643	90.31737	-364.52416	-39.05616	0
442	-17.08707	-192.02612	-170.8707	106.59077	73.2303	-176.56639	-112.28646	17.90074	31.73313	94.38572	-365.33783	-35.80148	0
443	-15.45973	-197.72181	-172.49804	107.40444	74.04397	-178.19373	-111.47279	21.15542	37.42882	97.6404	-365.33783	-31.73313	0
444	-16.2734	-202.60383	-174.93905	109.03178	75.67131	-181.44841	-113.10013	22.78276	41.49717	98.45407	-366.96517	-29.29212	-1500	QRS-0
445	-18.71441	-205.04484	-175.75272	112.28646	76.48498	-185.51676	-117.16848	22.78276	42.31084	97.6404	-371.03352	-30.10579	0
446	-22.78276	-205.85851	-177.38006	114.72747	77.29865	-188.77144	-122.86417	21.15542	39.86983	92.75838	-377.54288	-33.36047	0
447	-26.85111	-209.11319	-175.75272	116.35481	74.85764	-193.65346	-128.55986	17.08707	32.5468	82.18067	-390.5616	-39.05616	0
448	-28.47845	-213.99521	-174.93905	119.60949	70.78929	-205.04484	-135.06922	6.50936	13.01872	61.02525	-410.90335	-49.63387	0
449	-26.85111	-219.6909	-184.70309	124.49151	74.85764	-220.50457	-148.08794	-20.34175	-24.4101	21.15542	-443.45015	-65.90727	0
450	-24.4101	-229.45494	-203.4175	131.81454	85.43535	-235.15063	-170.8707	-72.41663	-91.94471	-41.49717	-489.01567	-87.87636	0
451	-26.03744	-241.65999	-219.6909	137.51023	94.38572	-244.101	-203.4175	-153.78363	-191.21245	-131.00087	-547.59991	-113.9138	0
452	-32.5468	-252.2377	-231.89595	141.57858	96.01306	-249.79669	-244.91467	-260.3744	-323.84066	-248.16935	-621.64388	-147.27427	0
453	-39.86983	-261.18807	-244.101	144.83326	92.75838	-254.67871	-292.10753	-388.12059	-487.38833	-392.18894	-710.33391	-187.95777	0
454	-45.56552	-266.07009	-244.91467	147.27427	87.87636	-254.67871	-331.97736	-519.93513	-672.90509	-554.10927	-807.97431	-232.70962	0
455	-48.8202	-261.18807	-235.9643	148.90161	82.99434	-248.98302	-351.50544	-632.22159	-861.67653	-721.72529	-907.24205	-278.27514	0
456	-43.12451	-244.91467	-226.20026	146.4606	83.80801	-241.65999	-351.50544	-714.40226	-1034.98824	-877.94993	-995.93208	-314.89029	0
457	-23.59643	-222.13191	-217.24989	131.81454	90.31737	-229.45494	-345.80975	-789.2599	-1198.53591	-1017.0875	-1066.72137	-333.6047	0
458	4.06835	-185.51676	-199.34915	98.45407	97.6404	-201.79016	-350.69177	-908.05572	-1375.91597	-1148.90204	-1121.23726	-332.79103	0
459	32.5468	-119.60949	-155.41097	48.00653	91.13104	-144.01959	-375.91554	-1099.26817	-1589.09751	-1291.29429	-1174.93948	-323.02699	0
460	53.70222	-19.52808	-72.41663	-13.83239	61.02525	-49.63387	-418.22638	-1351.50587	-1834.01218	-1452.40095	-1240.84675	-314.89029	0
461	59.39791	113.9138	54.51589	-86.24902	1.62734	82.99434	-468.67392	-1626.52633	-2086.24988	-1617.57596	-1313.26338	-310.00827	0
462	44.75185	283.97083	235.15063	-166.80235	-93.57205	259.56073	-523.18981	-1895.8511	-2321.40051	-1755.08619	-1373.47496	-299.43056	0
463	13.01872	479.25163	457.28254	-240.03265	-219.6909	469.48759	-571.19634	-2117.98301	-2506.1036	-1843.77622	-1407.6491	-277.46147	0
464	-34.17414	663.14105	675.3461	-289.66652	-358.82847	677.78711	-586.65607	-2252.23856	-2608.62602	-1888.52807	-1412.53112	-245.72834	0
465	-97.6404	795.76926	847.03047	-316.51763	-490.64301	842.96212	-558.17762	-2308.38179	-2639.54548	-1890.15541	-1389.74836	-214.80888	0
466	-165.98868	857.60818	969.08097	-318.14497	-593.9791	940.60252	-510.17109	-2309.19546	-2614.32171	-1847.0309	-1348.25119	-195.2808	0
467	-229.45494	842.14845	1033.3609	-287.22551	-655.81802	960.1306	-468.67392	-2264.44361	-2536.20939	-1773.8006	-1305.12668	-201.79016	0
468	-289.66652	764.03613	1034.98824	-227.01393	-680.22812	912.93774	-445.07749	-2180.6356	-2409.27687	-1683.48323	-1275.02089	-244.91467	0
469	-344.99608	644.42664	985.35437	-147.27427	-676.15977	820.99303	-440.19547	-2062.65345	-2243.28819	-1582.58815	-1260.37483	-321.39965	0
470	-387.30692	506.91641	897.47801	-60.21158	-647.68132	703.82455	-445.07749	-1913.75184	-2048.00739	-1471.92903	-1248.16978	-406.835	0
471	-410.90335	369.40618	783.56421	17.08707	-598.04745	575.26469	-444.26382	-1727.42141	-1823.43447	-1342.5555	-1216.43665	-471.9286	0
472	-408.46234	253.05137	659.88637	73.2303	-532.14018	454.84153	-428.80409	-1504.47583	-1572.01044	-1186.33086	-1152.15672	-498.77971	0
473	-378.35655	172.49804	544.34523	99.26774	-458.09621	358.0148	-398.6983	-1258.74749	-1305.12668	-1009.76447	-1056.14366	-481.69264	0
474	-326.28167	127.74619	445.07749	96.82673	-382.4249	286.41184	-359.64214	-1008.13713	-1039.87026	-822.62037	-937.34784	-427.99042	0
475	-260.3744	109.84545	363.71049	72.41663	-309.1946	236.77797	-319.77231	-770.54549	-787.63256	-635.47627	-806.34697	-349.8781	0
476	-186.33043	109.84545	295.36221	36.61515	-240.03265	202.60383	-279.90248	-551.66826	-555.73661	-456.46887	-672.90509	-257.93339	0
477	-111.47279	120.42316	234.33696	-1.62734	-174.93905	175.75272	-237.59164	-353.94645	-345.80975	-288.85285	-541.90422	-162.734	0
478	-51.26121	134.25555	184.70309	-34.98781	-121.23683	152.96996	-192.83979	-179.0074	-161.92033	-138.3239	-420.66739	-72.41663	0
479	-9.76404	144.01959	149.71528	-60.21158	-82.99434	139.13757	-148.90161	-33.36047	-8.95037	-12.20505	-314.89029	4.88202	0
480	14.64606	148.90161	129.37353	-76.48498	-59.39791	132.62821	-111.47279	78.11232	108.21811	83.80801	-231.08228	65.90727	0
481	30.10579	150.52895	117.98215	-86.24902	-45.56552	130.1872	-85.43535	158.66565	196.09447	152.15629	-169.24336	108.21811	0
482	37.42882	151.34262	113.9138	-90.31737	-41.49717	130.1872	-69.97562	215.62255	259.56073	196.90814	-126.93252	134.25555	0
483	36.61515	149.71528	111.47279	-88.69003	-40.6835	131.00087	-58.58424	253.86504	304.31258	224.57292	-100.08141	148.08794	0
484	32.5468	142.39225	107.40444	-83.80801	-39.86983	126.11885	-49.63387	277.46147	336.85938	241.65999	-82.99434	154.5973	0
485	28.47845	130.1872	100.08141	-78.11232	-36.61515	116.35481	-42.31084	292.10753	362.08315	254.67871	-69.97562	155.41097	0
486	29.29212	117.16848	88.69003	-73.2303	-30.10579	103.33609	-35.80148	301.0579	382.4249	262.81541	-59.39791	153.78363	0
487	37.42882	103.33609	79.73966	-69.97562	-25.22377	93.57205	-31.73313	308.38093	399.51197	268.5111	-50.44754	151.34262	0
488	48.00653	91.13104	74.85764	-69.16195	-22.78276	87.87636	-30.91946	316.51763	414.15803	272.57945	-41.49717	148.90161	0
489	56.14323	82.18067	64.27993	-69.97562	-15.45973	78.92599	-30.91946	326.28167	427.99042	275.83413	-30.91946	148.08794	0
490	60.21158	78.11232	48.8202	-70.78929	-2.44101	67.53461	-29.29212	340.11406	441.82281	280.71615	-18.71441	148.90161	0
491	57.77057	75.67131	35.80148	-70.78929	4.88202	58.58424	-27.66478	356.38746	454.84153	286.41184	-4.88202	150.52895	0
492	50.44754	72.41663	28.47845	-69.16195	8.95037	53.70222	-26.03744	372.66086	468.67392	292.10753	8.1367	152.15629	0
493	43.93818	65.90727	23.59643	-64.27993	10.57771	50.44754	-21.96909	387.30692	480.87897	297.80322	20.34175	153.78363	0
494	41.49717	57.77057	17.90074	-58.58424	13.01872	45.56552	-15.45973	397.07096	490.64301	303.49891	32.5468	155.41097	0
495	42.31084	52.88855	10.57771	-55.32956	17.90074	37.42882	-8.95037	402.76665	500.40705	308.38093	43.93818	157.85198	0
496	45.56552	49.63387	3.25468	-53.70222	23.59643	30.10579	-3.25468	403.58032	508.54375	311.63561	54.51589	158.66565	0
497	47.19286	48.00653	-2.44101	-53.70222	28.47845	23.59643	-0.81367	401.95298	513.42577	312.44928	64.27993	160.29299	0
498	48.00653	45.56552	-6.50936	-53.70222	30.91946	19.52808	-1.62734	400.32564	515.05311	313.26295	74.04397	162.734	0
499	48.8202	45.56552	-5.69569	-53.70222	30.10579	18.71441	-1.62734	401.13931	519.12146	314.89029	86.24902	165.98868	0
500	49.63387	47.19286	-4.06835	-52.07488	28.47845	20.34175	-0.81367	405.20766	525.63082	318.95864	101.70875	171.68437	0
501	51.26121	48.00653	-2.44101	-51.26121	26.03744	21.96909	0	410.90335	534.58119	323.84066	115.54114	177.38006	0
502	53.70222	45.56552	-1.62734	-49.63387	24.4101	22.78276	0	418.22638	544.34523	327.90901	126.93252	180.63474	0
503	54.51589	40.6835	-3.25468	-47.19286	24.4101	22.78276	2.44101	423.1084	551.66826	331.16369	138.3239	180.63474	0
504	52.07488	36.61515	-4.88202	-45.56552	25.22377	21.96909	6.50936	423.92207	554.92294	332.79103	152.96996	177.38006	0
505	50.44754	34.98781	-5.69569	-45.56552	26.03744	19.52808	11.39138	420.66739	554.92294	331.16369	165.98868	172.49804	0
506	47.19286	37.42882	-5.69569	-46.37919	26.85111	18.71441	15.45973	414.15803	551.66826	327.09534	176.56639	169.24336	0
507	44.75185	42.31084	-5.69569	-48.00653	28.47845	17.90074	17.08707	408.46234	548.41358	322.21332	184.70309	165.17501	0
508	43.12451	49.63387	-5.69569	-49.63387	28.47845	17.90074	16.2734	404.39399	547.59991	318.14497	193.65346	158.66565	0
509	43.12451	55.32956	-2.44101	-49.63387	26.03744	19.52808	16.2734	403.58032	551.66826	317.3313	205.04484	154.5973	0
510	43.93818	56.9569	0.81367	-49.63387	22.78276	23.59643	17.90074	406.835	558.99129	318.95864	219.6909	154.5973	0
511	41.49717	56.14323	4.88202	-48.8202	19.52808	26.85111	19.52808	411.71702	567.94166	323.02699	237.59164	156.22464	0
512	37.42882	52.88855	8.1367	-47.19286	15.45973	30.10579	19.52808	417.41271	576.07836	326.28167	253.05137	157.85198	0
513	33.36047	46.37919	8.95037	-45.56552	13.83239	31.73313	21.96909	421.48106	582.58772	327.90901	265.25642	157.03831	0
514	31.73313	40.6835	8.95037	-42.31084	12.20505	30.91946	26.85111	423.92207	586.65607	328.72268	275.83413	155.41097	0
515	31.73313	38.24249	8.95037	-40.6835	12.20505	28.47845	30.10579	425.54941	589.91075	328.72268	283.97083	152.96996	0
516	31.73313	39.05616	8.1367	-41.49717	13.83239	26.85111	30.10579	427.17675	590.72442	327.90901	290.48019	150.52895	0
517	31.73313	43.12451	5.69569	-43.12451	16.2734	25.22377	29.29212	426.36308	589.91075	326.28167	295.36221	148.90161	0
518	32.5468	51.26121	4.88202	-45.56552	17.90074	23.59643	28.47845	424.73574	589.09708	324.65433	302.68524	149.71528	0
519	34.98781	56.14323	5.69569	-48.00653	17.90074	24.4101	30.10579	425.54941	589.91075	323.84066	314.89029	152.96996	0
520	38.24249	58.58424	8.95037	-51.26121	16.2734	28.47845	33.36047	430.43143	592.35176	325.468	327.90901	157.85198	0
521	42.31084	59.39791	10.57771	-53.70222	14.64606	31.73313	37.42882	436.12712	595.60644	327.90901	337.67305	163.54767	0
522	47.19286	57.77057	12.20505	-54.51589	13.83239	34.17414	39.86983	441.82281	598.04745	329.53635	348.25076	165.98868	0
523	49.63387	52.88855	12.20505	-54.51589	13.83239	37.42882	40.6835	445.89116	598.86112	329.53635	355.57379	164.36134	0
524	48.00653	50.44754	13.01872	-52.88855	13.83239	38.24249	39.86983	448.33217	598.86112	328.72268	359.64214	160.29299	0
525	44.75185	49.63387	14.64606	-51.26121	13.01872	37.42882	35.80148	449.95951	598.04745	327.09534	358.82847	154.5973	0
526	39.05616	52.07488	17.08707	-50.44754	11.39138	38.24249	29.29212	450.77318	595.60644	323.84066	358.0148	148.90161	0
527	34.98781	58.58424	17.90074	-52.07488	12.20505	38.24249	23.59643	450.77318	592.35176	320.58598	358.82847	143.20592	0
528	32.5468	67.53461	19.52808	-54.51589	11.39138	39.05616	20.34175	449.95951	590.72442	316.51763	358.0148	139.13757	0
529	32.5468	74.04397	25.22377	-56.14323	7.32303	43.12451	20.34175	452.40052	591.53809	314.07662	356.38746	138.3239	0
530	32.5468	78.11232	32.5468	-59.39791	1.62734	49.63387	21.15542	457.28254	596.42011	314.07662	358.82847	140.76491	0
531	34.17414	80.55333	39.86983	-61.83892	-2.44101	56.9569	22.78276	465.41924	602.1158	316.51763	363.71049	144.83326	0
532	37.42882	81.367	45.56552	-61.83892	-7.32303	59.39791	24.4101	472.74227	607.81149	318.14497	369.40618	145.64693	0
533	37.42882	78.92599	49.63387	-61.02525	-9.76404	55.32956	23.59643	479.25163	612.69351	318.95864	375.10187	145.64693	0
534	34.98781	76.48498	51.26121	-59.39791	-11.39138	53.70222	20.34175	483.31998	617.57553	318.95864	381.61123	147.27427	0
535	32.5468	78.11232	53.70222	-58.58424	-12.20505	56.9569	13.01872	483.31998	620.01654	318.14497	389.74793	151.34262	0
536	30.10579	81.367	56.14323	-59.39791	-13.01872	63.46626	4.88202	479.25163	620.83021	317.3313	397.88463	154.5973	0
537	27.66478	87.87636	58.58424	-61.02525	-13.01872	69.16195	-0.81367	474.36961	619.20287	314.89029	406.02133	156.22464	0
538	26.03744	96.82673	61.02525	-63.46626	-14.64606	74.04397	-1.62734	471.11493	619.20287	312.44928	415.78537	158.66565	0
539	27.66478	104.14976	64.27993	-65.90727	-16.2734	78.92599	0	471.11493	620.83021	310.82194	430.43143	164.36134	0
540	30.10579	107.40444	67.53461	-67.53461	-17.90074	83.80801	5.69569	475.18328	625.71223	312.44928	448.33217	169.24336	0
541	29.29212	109.03178	71.60296	-69.16195	-20.34175	87.87636	12.20505	480.87897	631.40792	315.70396	466.23291	172.49804	0
542	24.4101	111.47279	78.11232	-69.16195	-25.22377	89.5037	17.08707	488.202	637.10361	319.77231	480.0653	176.56639	0
543	19.52808	115.54114	84.62168	-68.34828	-30.91946	86.24902	23.59643	494.71136	641.17196	321.39965	494.71136	180.63474	0
544	16.2734	118.79582	91.13104	-67.53461	-35.80148	87.06269	31.73313	497.96604	641.98563	320.58598	510.98476	181.44841	0
545	15.45973	120.42316	96.82673	-65.0936	-39.05616	94.38572	39.05616	497.96604	639.54462	318.95864	526.44449	179.82107	0
546	17.08707	122.0505	109.84545	-65.0936	-47.19286	103.33609	46.37919	494.71136	637.10361	314.89029	537.0222	175.75272	0
547	18.71441	126.11885	129.37353	-65.90727	-62.65259	112.28646	50.44754	490.64301	636.28994	311.63561	544.34523	172.49804	0
548	15.45973	133.44188	145.64693	-65.90727	-75.67131	121.23683	52.88855	489.01567	634.6626	310.00827	550.85459	170.8707	0
549	6.50936	140.76491	154.5973	-65.90727	-82.99434	131.81454	54.51589	491.45668	631.40792	310.82194	558.17762	170.05703	0
550	0	145.64693	157.85198	-67.53461	-84.62168	140.76491	56.14323	494.71136	629.78058	311.63561	564.68698	166.80235	0
551	-0.81367	151.34262	156.22464	-72.41663	-78.11232	148.08794	56.14323	495.52503	626.5259	310.82194	569.569	164.36134	0
552	0.81367	157.03831	151.34262	-80.55333	-63.46626	148.90161	55.32956	496.3387	623.27122	307.56726	568.75533	161.10666	0
553	8.1367	165.17501	144.83326	-87.87636	-51.26121	143.20592	54.51589	497.96604	618.3892	303.49891	563.87331	155.41097	0
554	17.08707	170.05703	140.76491	-95.19939	-47.19286	139.95124	54.51589	497.96604	614.32085	301.0579	554.92294	148.90161	0
555	22.78276	171.68437	140.76491	-99.26774	-48.8202	144.01959	55.32956	497.15237	610.2525	299.43056	545.97257	142.39225	0
556	24.4101	174.93905	144.83326	-102.52242	-53.70222	152.15629	59.39791	494.71136	606.18415	296.17588	536.20853	135.88289	0
557	21.96909	178.19373	152.96996	-104.14976	-61.02525	162.734	61.83892	491.45668	600.48846	291.29386	525.63082	131.00087	0
558	17.90074	182.26208	162.734	-105.7771	-69.16195	172.49804	62.65259	490.64301	593.9791	286.41184	516.68045	126.93252	0
559	16.2734	188.77144	173.31171	-109.03178	-76.48498	182.26208	64.27993	492.27035	589.09708	283.97083	511.79843	125.30518	0
560	16.2734	198.53548	183.88942	-112.28646	-82.99434	192.83979	67.53461	497.15237	585.8424	283.97083	510.17109	126.11885	0
561	17.08707	207.48585	193.65346	-115.54114	-90.31737	201.79016	72.41663	503.66173	585.02873	284.7845	510.17109	128.55986	0
562	18.71441	216.43622	205.04484	-116.35481	-98.45407	207.48585	77.29865	510.98476	583.40139	285.59817	510.17109	131.00087	0
563	17.90074	226.20026	213.99521	-117.16848	-104.96343	207.48585	81.367	515.86678	580.96038	284.7845	506.10274	131.00087	0
564	15.45973	234.33696	221.31824	-119.60949	-108.21811	210.74053	83.80801	516.68045	575.26469	281.52982	499.59338	128.55986	0
565	13.83239	240.84632	227.8276	-122.86417	-109.84545	220.50457	84.62168	511.79843	567.12799	276.6478	490.64301	126.11885	0
566	12.20505	249.79669	241.65999	-126.11885	-116.35481	233.52329	86.24902	504.4754	554.92294	268.5111	479.25163	123.67784	0
567	8.1367	258.74706	264.44275	-130.1872	-130.1872	249.79669	86.24902	497.15237	540.27688	258.74706	466.23291	117.98215	0
568	2.44101	268.5111	286.41184	-135.88289	-144.83326	266.88376	85.43535	488.202	526.44449	248.16935	455.6552	110.65912	0
569	0.81367	280.71615	297.80322	-145.64693	-151.34262	282.34349	83.80801	478.43796	514.23944	239.21898	447.5185	103.33609	0
570	5.69569	295.36221	301.87157	-156.22464	-149.71528	294.54854	80.55333	468.67392	503.66173	230.26861	443.45015	98.45407	0
571	13.01872	309.1946	305.12625	-164.36134	-148.90161	305.93992	78.92599	460.53722	493.89769	222.13191	441.00914	94.38572	0
572	21.15542	323.84066	312.44928	-170.8707	-151.34262	313.26295	78.11232	453.21419	484.94732	214.80888	437.75446	91.13104	0
573	25.22377	337.67305	318.95864	-175.75272	-153.78363	314.07662	77.29865	443.45015	473.55594	206.67218	431.2451	87.06269	0
574	25.22377	348.25076	325.468	-180.63474	-155.41097	318.14497	75.67131	430.43143	459.72355	197.72181	422.29473	82.18067	0
575	24.4101	353.13278	330.35002	-185.51676	-156.22464	326.28167	71.60296	414.15803	443.45015	187.1441	412.53069	78.11232	0
576	21.96909	357.20113	333.6047	-189.58511	-156.22464	336.04571	66.72094	392.18894	423.92207	174.12538	401.95298	73.2303	0
577	20.34175	359.64214	336.04571	-193.65346	-154.5973	344.18241	61.83892	367.77884	400.32564	157.85198	389.74793	69.97562	0
578	20.34175	362.89682	339.30039	-197.72181	-155.41097	350.69177	58.58424	343.36874	375.91554	140.76491	378.35655	67.53461	0
579	21.96909	368.59251	344.99608	-202.60383	-157.85198	358.0148	56.9569	320.58598	353.13278	124.49151	371.03352	69.16195	0
580	24.4101	377.54288	352.31911	-208.29952	-161.92033	366.96517	54.51589	300.24423	332.79103	110.65912	369.40618	71.60296	0
581	27.66478	385.67958	360.45581	-211.5542	-166.80235	374.2882	48.8202	281.52982	313.26295	98.45407	370.21985	73.2303	0
582	31.73313	389.74793	366.1515	-212.36787	-170.8707	379.98389	44.75185	262.00174	294.54854	85.43535	371.03352	75.67131	0
583	34.98781	387.30692	366.1515	-212.36787	-171.68437	381.61123	42.31084	240.03265	273.39312	69.97562	368.59251	80.55333	0
584	37.42882	384.86591	361.26948	-210.74053	-166.80235	378.35655	37.42882	214.80888	250.61036	53.70222	363.71049	82.99434	0
585	40.6835	383.23857	352.31911	-209.11319	-158.66565	372.66086	29.29212	185.51676	224.57292	34.98781	357.20113	84.62168	0
586	43.12451	381.61123	344.18241	-209.11319	-150.52895	366.1515	18.71441	152.96996	196.09447	13.83239	346.62342	85.43535	0
587	43.12451	379.17022	336.85938	-209.92686	-144.01959	363.71049	7.32303	118.79582	164.36134	-8.1367	334.41837	81.367	0
588	43.12451	374.2882	331.16369	-210.74053	-140.76491	367.77884	0	87.87636	133.44188	-31.73313	322.21332	74.85764	0
589	43.93818	371.84719	327.90901	-211.5542	-139.95124	368.59251	-1.62734	60.21158	104.96343	-53.70222	312.44928	68.34828	0
590	44.75185	371.03352	326.28167	-210.74053	-139.13757	363.71049	0.81367	35.80148	80.55333	-73.2303	305.93992	64.27993	0
591	47.19286	368.59251	318.14497	-209.11319	-134.25555	351.50544	6.50936	13.01872	59.39791	-89.5037	302.68524	61.83892	0
592	50.44754	363.71049	299.43056	-205.04484	-123.67784	331.16369	10.57771	-7.32303	40.6835	-104.14976	300.24423	59.39791	0
593	52.07488	355.57379	282.34349	-199.34915	-113.9138	314.07662	17.90074	-27.66478	23.59643	-117.16848	298.61689	57.77057	0
594	52.07488	340.92773	269.32477	-192.02612	-108.21811	299.43056	26.03744	-47.19286	7.32303	-126.93252	296.98955	56.9569	0
595	49.63387	320.58598	257.11972	-183.88942	-102.52242	284.7845	30.10579	-69.16195	-8.1367	-136.69656	293.73487	54.51589	0
596	46.37919	297.80322	243.28733	-173.31171	-96.82673	268.5111	30.10579	-93.57205	-24.4101	-147.27427	287.22551	52.07488	0
597	42.31084	275.02046	232.70962	-162.734	-88.69003	250.61036	27.66478	-117.16848	-41.49717	-158.66565	278.27514	49.63387	0
598	40.6835	253.86504	227.01393	-152.15629	-80.55333	231.89595	23.59643	-137.51023	-56.14323	-167.61602	268.5111	46.37919	0
599	39.86983	239.21898	216.43622	-142.39225	-73.2303	213.99521	20.34175	-151.34262	-66.72094	-174.93905	261.18807	41.49717	0
600	40.6835	225.38659	196.09447	-132.62821	-65.90727	197.72181	18.71441	-158.66565	-72.41663	-179.0074	257.11972	34.17414	0
601	41.49717	206.67218	167.61602	-123.67784	-58.58424	177.38006	20.34175	-162.734	-74.04397	-180.63474	253.86504	27.66478	0
602	40.6835	184.70309	131.00087	-116.35481	-49.63387	152.15629	21.96909	-165.17501	-75.67131	-181.44841	248.16935	21.96909	0
603	43.93818	165.98868	98.45407	-109.84545	-37.42882	129.37353	21.15542	-167.61602	-77.29865	-183.88942	241.65999	14.64606	0
604	49.63387	148.90161	75.67131	-103.33609	-21.96909	111.47279	15.45973	-170.05703	-78.92599	-185.51676	234.33696	5.69569	0
605	54.51589	131.00087	61.02525	-96.01306	-8.95037	96.01306	8.1367	-171.68437	-81.367	-185.51676	229.45494	-4.06835	0
606	56.14323	113.10013	50.44754	-87.06269	-0.81367	82.99434	0	-172.49804	-82.99434	-183.88942	226.20026	-13.01872	0
607	55.32956	95.19939	48.00653	-74.85764	2.44101	74.85764	-6.50936	-173.31171	-82.99434	-180.63474	226.20026	-17.90074	0
608	51.26121	77.29865	52.07488	-63.46626	3.25468	72.41663	-12.20505	-174.93905	-82.18067	-175.75272	231.89595	-21.15542	0
609	44.75185	63.46626	50.44754	-54.51589	4.88202	65.90727	-16.2734	-173.31171	-78.11232	-170.05703	241.65999	-21.15542	0
610	40.6835	53.70222	39.05616	-48.00653	7.32303	53.70222	-18.71441	-167.61602	-72.41663	-162.734	252.2377	-21.15542	0
611	39.05616	45.56552	24.4101	-41.49717	9.76404	39.86983	-19.52808	-160.29299	-63.46626	-153.78363	259.56073	-20.34175	0
612	39.05616	37.42882	11.39138	-35.80148	11.39138	26.03744	-17.90074	-152.15629	-54.51589	-144.83326	267.69743	-21.96909	0
613	37.42882	29.29212	-0.81367	-27.66478	13.01872	13.83239	-17.08707	-144.01959	-45.56552	-135.88289	275.83413	-25.22377	0
614	32.5468	17.90074	-13.01872	-19.52808	17.90074	0.81367	-17.90074	-137.51023	-39.05616	-128.55986	281.52982	-30.10579	0
615	27.66478	4.88202	-24.4101	-12.20505	21.96909	-10.57771	-20.34175	-132.62821	-33.36047	-122.0505	285.59817	-35.80148	0
616	22.78276	-6.50936	-32.5468	-6.50936	26.85111	-19.52808	-26.03744	-128.55986	-30.10579	-116.35481	288.85285	-39.86983	0
617	17.90074	-17.08707	-39.86983	-2.44101	31.73313	-23.59643	-33.36047	-126.93252	-29.29212	-111.47279	291.29386	-43.93818	0
618	14.64606	-28.47845	-45.56552	0.81367	34.17414	-21.96909	-38.24249	-126.93252	-26.85111	-107.40444	291.29386	-47.19286	0
619	13.01872	-36.61515	-49.63387	4.88202	34.17414	-22.78276	-41.49717	-123.67784	-21.96909	-102.52242	288.85285	-48.8202	0
620	12.20505	-40.6835	-52.88855	8.95037	34.17414	-30.10579	-43.12451	-116.35481	-13.01872	-94.38572	287.22551	-48.8202	0
621	13.83239	-43.93818	-53.70222	13.01872	32.5468	-38.24249	-43.12451	-107.40444	-3.25468	-86.24902	286.41184	-49.63387	0
622	15.45973	-48.00653	-53.70222	17.08707	28.47845	-43.93818	-43.12451	-98.45407	4.88202	-77.29865	285.59817	-51.26121	0
623	14.64606	-54.51589	-54.51589	20.34175	26.85111	-48.8202	-44.75185	-91.13104	13.83239	-69.97562	282.34349	-55.32956	0
624	13.01872	-60.21158	-57.77057	22.78276	29.29212	-53.70222	-47.19286	-86.24902	24.4101	-62.65259	279.08881	-61.02525	0
625	11.39138	-63.46626	-62.65259	26.03744	32.5468	-59.39791	-52.88855	-84.62168	34.17414	-56.14323	275.83413	-66.72094	0
626	8.95037	-65.0936	-68.34828	28.47845	37.42882	-63.46626	-60.21158	-83.80801	39.86983	-52.07488	273.39312	-71.60296	0
627	7.32303	-64.27993	-72.41663	28.47845	42.31084	-67.53461	-67.53461	-86.24902	41.49717	-50.44754	272.57945	-74.85764	0
628	5.69569	-61.02525	-75.67131	27.66478	43.93818	-69.97562	-72.41663	-89.5037	41.49717	-48.8202	270.95211	-74.85764	0
629	6.50936	-58.58424	-76.48498	26.85111	43.93818	-70.78929	-74.85764	-89.5037	43.12451	-47.19286	268.5111	-71.60296	0
630	8.1367	-59.39791	-77.29865	26.03744	44.75185	-71.60296	-75.67131	-85.43535	48.00653	-43.12451	266.88376	-67.53461	0
631	12.20505	-62.65259	-78.11232	26.85111	43.93818	-72.41663	-74.04397	-78.92599	54.51589	-36.61515	265.25642	-64.27993	0
632	15.45973	-69.16195	-78.92599	29.29212	41.49717	-74.85764	-71.60296	-72.41663	62.65259	-29.29212	266.88376	-60.21158	0
633	14.64606	-78.11232	-80.55333	33.36047	40.6835	-77.29865	-69.16195	-65.0936	70.78929	-21.96909	270.95211	-53.70222	0
634	11.39138	-85.43535	-84.62168	35.80148	42.31084	-80.55333	-68.34828	-56.14323	76.48498	-15.45973	274.20679	-49.63387	0
635	8.95037	-89.5037	-88.69003	37.42882	44.75185	-84.62168	-66.72094	-49.63387	78.92599	-11.39138	275.02046	-49.63387	0
636	5.69569	-91.13104	-92.75838	38.24249	48.8202	-87.87636	-65.90727	-46.37919	78.92599	-8.95037	275.02046	-51.26121	0
637	3.25468	-88.69003	-96.01306	37.42882	52.88855	-90.31737	-64.27993	-46.37919	76.48498	-9.76404	275.83413	-53.70222	0
638	1.62734	-82.99434	-96.01306	36.61515	53.70222	-90.31737	-61.83892	-48.00653	73.2303	-10.57771	274.20679	-54.51589	0
639	0.81367	-78.11232	-91.94471	36.61515	50.44754	-87.87636	-57.77057	-48.00653	72.41663	-9.76404	271.76578	-51.26121	0
640	-0.81367	-76.48498	-85.43535	38.24249	43.93818	-82.99434	-49.63387	-43.93818	74.85764	-6.50936	269.32477	-43.93818	0
641	-4.06835	-77.29865	-85.43535	39.86983	42.31084	-80.55333	-37.42882	-37.42882	80.55333	-1.62734	267.69743	-36.61515	0
642	-5.69569	-79.73966	-96.82673	41.49717	49.63387	-82.18067	-22.78276	-30.10579	85.43535	3.25468	268.5111	-30.91946	0
643	-2.44101	-82.99434	-111.47279	41.49717	59.39791	-88.69003	-9.76404	-24.4101	89.5037	8.1367	270.95211	-28.47845	0
644	3.25468	-88.69003	-119.60949	41.49717	65.90727	-96.82673	1.62734	-21.96909	91.94471	13.01872	272.57945	-28.47845	0
645	8.1367	-95.19939	-122.0505	42.31084	68.34828	-104.14976	10.57771	-21.96909	91.94471	14.64606	267.69743	-31.73313	0
646	9.76404	-100.08141	-120.42316	43.12451	67.53461	-107.40444	18.71441	-26.03744	91.13104	14.64606	255.49238	-34.98781	0
647	8.1367	-100.89508	-117.16848	43.93818	65.90727	-108.21811	26.03744	-30.91946	91.13104	12.20505	239.21898	-38.24249	0
648	6.50936	-96.82673	-113.10013	43.93818	63.46626	-107.40444	34.17414	-33.36047	88.69003	9.76404	224.57292	-40.6835	0
649	5.69569	-93.57205	-109.03178	43.93818	59.39791	-104.96343	41.49717	-34.17414	85.43535	8.1367	211.5542	-41.49717	0
650	4.88202	-91.94471	-104.14976	44.75185	55.32956	-100.89508	47.19286	-30.91946	85.43535	10.57771	200.97649	-40.6835	0
651	5.69569	-91.13104	-99.26774	44.75185	55.32956	-97.6404	52.88855	-26.85111	87.06269	15.45973	195.2808	-39.05616	0
652	9.76404	-94.38572	-96.01306	45.56552	61.83892	-95.19939	56.9569	-21.96909	91.13104	22.78276	191.21245	-35.80148	0
653	13.01872	-101.70875	-97.6404	45.56552	67.53461	-96.01306	57.77057	-18.71441	94.38572	28.47845	187.95777	-30.10579	0
654	15.45973	-107.40444	-105.7771	44.75185	70.78929	-100.89508	54.51589	-17.08707	96.01306	32.5468	183.88942	-25.22377	0
655	15.45973	-111.47279	-113.9138	44.75185	71.60296	-107.40444	48.8202	-19.52808	95.19939	34.17414	178.19373	-22.78276	0
656	12.20505	-113.9138	-117.98215	46.37919	69.16195	-111.47279	42.31084	-23.59643	93.57205	34.17414	170.8707	-21.15542	0
657	7.32303	-113.9138	-117.16848	48.8202	65.0936	-111.47279	35.80148	-28.47845	89.5037	33.36047	161.10666	-20.34175	0
658	3.25468	-113.10013	-113.10013	49.63387	60.21158	-109.84545	30.10579	-31.73313	87.06269	32.5468	152.15629	-19.52808	0
659	0.81367	-109.03178	-107.40444	48.8202	54.51589	-104.96343	25.22377	-30.91946	86.24902	34.17414	145.64693	-18.71441	0
660	0	-100.89508	-98.45407	47.19286	48.8202	-97.6404	18.71441	-25.22377	90.31737	37.42882	142.39225	-16.2734	0
661	-0.81367	-90.31737	-84.62168	45.56552	44.75185	-86.24902	10.57771	-17.08707	97.6404	44.75185	141.57858	-13.01872	0
662	0.81367	-82.99434	-69.16195	44.75185	46.37919	-74.85764	4.88202	-9.76404	105.7771	52.88855	139.95124	-10.57771	0
663	4.06835	-79.73966	-63.46626	41.49717	48.8202	-68.34828	0.81367	-2.44101	112.28646	59.39791	135.06922	-10.57771	0
664	6.50936	-78.92599	-65.90727	38.24249	48.8202	-67.53461	-4.06835	5.69569	114.72747	63.46626	128.55986	-13.01872	0
665	7.32303	-77.29865	-70.78929	37.42882	47.19286	-69.16195	-13.83239	12.20505	116.35481	65.0936	119.60949	-15.45973	0
666	6.50936	-75.67131	-75.67131	36.61515	45.56552	-71.60296	-26.03744	16.2734	115.54114	64.27993	110.65912	-17.90074	0
667	5.69569	-73.2303	-81.367	34.98781	48.00653	-75.67131	-39.05616	17.90074	112.28646	62.65259	100.08141	-17.90074	0
668	8.1367	-68.34828	-87.06269	30.91946	50.44754	-78.92599	-49.63387	17.08707	109.03178	61.02525	91.13104	-17.08707	0
669	11.39138	-62.65259	-87.87636	26.85111	51.26121	-78.11232	-56.14323	17.90074	109.03178	61.02525	83.80801	-13.83239	0
670	13.01872	-59.39791	-83.80801	25.22377	48.8202	-74.85764	-61.02525	21.15542	111.47279	64.27993	76.48498	-8.95037	0
671	13.83239	-58.58424	-77.29865	24.4101	43.12451	-70.78929	-66.72094	28.47845	118.79582	69.16195	71.60296	-4.88202	0
672	15.45973	-61.02525	-70.78929	26.03744	35.80148	-66.72094	-69.97562	37.42882	126.93252	75.67131	67.53461	-0.81367	0
673	14.64606	-65.90727	-66.72094	27.66478	31.73313	-64.27993	-73.2303	44.75185	134.25555	82.18067	64.27993	2.44101	0
674	12.20505	-69.16195	-66.72094	27.66478	31.73313	-63.46626	-79.73966	49.63387	140.76491	87.87636	60.21158	6.50936	0
675	10.57771	-69.16195	-68.34828	26.85111	34.98781	-64.27993	-89.5037	50.44754	144.01959	91.94471	56.14323	8.95037	0
676	10.57771	-65.90727	-70.78929	23.59643	39.05616	-64.27993	-100.89508	48.8202	146.4606	94.38572	50.44754	10.57771	0
677	9.76404	-63.46626	-74.04397	20.34175	45.56552	-61.02525	-111.47279	44.75185	147.27427	95.19939	43.12451	9.76404	0
678	10.57771	-63.46626	-78.92599	18.71441	50.44754	-53.70222	-125.30518	40.6835	144.83326	94.38572	35.80148	8.1367	0
679	12.20505	-65.90727	-80.55333	19.52808	50.44754	-52.07488	-141.57858	38.24249	140.76491	93.57205	30.91946	7.32303	0
680	8.95037	-67.53461	-78.11232	24.4101	46.37919	-56.14323	-160.29299	36.61515	136.69656	96.01306	30.10579	6.50936	0
681	0	-69.97562	-79.73966	31.73313	43.12451	-60.21158	-177.38006	36.61515	135.06922	100.08141	32.5468	6.50936	0
682	-9.76404	-70.78929	-90.31737	37.42882	48.00653	-63.46626	-188.77144	40.6835	138.3239	104.14976	34.98781	9.76404	0
683	-9.76404	-70.78929	-103.33609	39.05616	56.9569	-69.97562	-196.90814	44.75185	142.39225	106.59077	33.36047	14.64606	0
684	0	-74.04397	-111.47279	36.61515	64.27993	-81.367	-209.11319	44.75185	144.01959	104.96343	28.47845	20.34175	0
685	9.76404	-81.367	-116.35481	34.98781	68.34828	-91.94471	-224.57292	39.86983	144.01959	103.33609	21.96909	27.66478	0
686	17.08707	-88.69003	-117.98215	34.98781	69.97562	-99.26774	-240.03265	32.5468	142.39225	101.70875	18.71441	33.36047	0
687	26.85111	-91.13104	-119.60949	34.17414	73.2303	-104.14976	-253.05137	24.4101	139.13757	100.89508	17.08707	35.80148	0
688	34.98781	-88.69003	-122.86417	30.91946	77.29865	-108.21811	-267.69743	18.71441	134.25555	98.45407	13.83239	34.98781	0
689	39.86983	-84.62168	-123.67784	26.03744	79.73966	-108.21811	-283.15716	17.08707	132.62821	97.6404	7.32303	31.73313	0
690	40.6835	-82.18067	-122.86417	20.34175	79.73966	-105.7771	-299.43056	17.90074	133.44188	97.6404	0.81367	26.03744	0
691	40.6835	-81.367	-127.74619	17.08707	82.99434	-109.03178	-314.89029	18.71441	135.06922	98.45407	-2.44101	21.15542	0
692	39.05616	-83.80801	-143.20592	17.08707	91.94471	-120.42316	-327.09534	19.52808	136.69656	98.45407	-5.69569	16.2734	0
693	39.05616	-90.31737	-157.85198	21.15542	100.89508	-133.44188	-333.6047	21.15542	135.06922	96.82673	-10.57771	10.57771	0
694	39.86983	-101.70875	-167.61602	28.47845	104.96343	-142.39225	-338.48672	21.96909	131.00087	95.19939	-18.71441	5.69569	0
695	38.24249	-114.72747	-171.68437	36.61515	105.7771	-148.08794	-343.36874	20.34175	124.49151	92.75838	-26.03744	5.69569	0
696	36.61515	-125.30518	-170.8707	43.12451	100.08141	-149.71528	-347.43709	17.90074	117.98215	89.5037	-30.10579	7.32303	0
697	34.98781	-132.62821	-165.98868	48.8202	86.24902	-148.08794	-347.43709	14.64606	112.28646	87.06269	-30.91946	8.1367	0
698	28.47845	-138.3239	-157.85198	55.32956	73.2303	-144.83326	-342.55507	10.57771	109.84545	85.43535	-30.10579	8.95037	0
699	16.2734	-142.39225	-147.27427	62.65259	64.27993	-140.76491	-334.41837	8.95037	109.84545	86.24902	-32.5468	8.1367	0
700	0.81367	-144.01959	-136.69656	69.16195	56.9569	-137.51023	-325.468	8.95037	111.47279	87.06269	-38.24249	3.25468	0
701	-13.01872	-147.27427	-134.25555	74.04397	55.32956	-135.88289	-318.14497	10.57771	113.9138	87.06269	-42.31084	0	0
702	-24.4101	-151.34262	-145.64693	78.92599	62.65259	-139.95124	-312.44928	11.39138	114.72747	84.62168	-47.19286	-4.88202	0
703	-26.85111	-155.41097	-159.47932	83.80801	72.41663	-147.27427	-310.82194	8.95037	112.28646	79.73966	-55.32956	-10.57771	0
704	-21.15542	-161.92033	-170.05703	87.87636	79.73966	-158.66565	-312.44928	4.06835	107.40444	76.48498	-65.0936	-18.71441	0
705	-15.45973	-171.68437	-176.56639	90.31737	84.62168	-169.24336	-316.51763	-1.62734	102.52242	74.04397	-74.85764	-26.03744	0
706	-11.39138	-180.63474	-179.0074	94.38572	82.18067	-176.56639	-323.02699	-10.57771	97.6404	70.78929	-85.43535	-31.73313	0
707	-8.95037	-186.33043	-177.38006	100.08141	73.2303	-180.63474	-328.72268	-18.71441	93.57205	65.90727	-95.19939	-34.98781	0
708	-11.39138	-187.1441	-174.12538	104.14976	65.0936	-183.07575	-333.6047	-23.59643	88.69003	61.02525	-104.14976	-37.42882	0
709	-17.90074	-188.77144	-170.8707	108.21811	61.83892	-183.07575	-335.23204	-24.4101	82.99434	56.9569	-110.65912	-38.24249	0
710	-23.59643	-192.02612	-167.61602	112.28646	61.83892	-183.07575	-335.23204	-19.52808	78.11232	54.51589	-113.9138	-38.24249	0
711	-26.85111	-194.46713	-165.98868	114.72747	61.83892	-182.26208	-333.6047	-12.20505	74.85764	52.88855	-113.9138	-39.05616	0
712	-26.85111	-199.34915	-162.734	116.35481	59.39791	-181.44841	-330.35002	-3.25468	74.04397	53.70222	-113.10013	-40.6835	0
713	-27.66478	-205.85851	-161.92033	117.16848	57.77057	-181.44841	-327.09534	4.06835	75.67131	55.32956	-111.47279	-43.12451	0
714	-30.10579	-210.74053	-164.36134	117.98215	61.02525	-183.07575	-323.84066	11.39138	78.11232	56.14323	-111.47279	-47.19286	0
715	-31.73313	-213.99521	-170.05703	118.79582	65.0936	-187.1441	-322.21332	17.08707	79.73966	56.14323	-113.10013	-52.07488	0
716	-34.98781	-217.24989	-176.56639	121.23683	69.97562	-192.83979	-321.39965	20.34175	80.55333	54.51589	-115.54114	-57.77057	0
717	-39.05616	-218.06356	-183.07575	124.49151	75.67131	-198.53548	-318.95864	21.96909	78.92599	50.44754	-115.54114	-61.83892	0
718	-41.49717	-216.43622	-187.95777	126.93252	78.11232	-203.4175	-314.07662	23.59643	74.85764	47.19286	-115.54114	-63.46626	0
719	-42.31084	-216.43622	-188.77144	128.55986	77.29865	-205.85851	-307.56726	26.03744	69.97562	45.56552	-116.35481	-61.02525	0
720	-40.6835	-217.24989	-187.95777	127.74619	75.67131	-205.85851	-301.0579	30.91946	65.90727	47.19286	-115.54114	-55.32956	0
721	-36.61515	-218.06356	-185.51676	126.11885	77.29865	-204.23117	-295.36221	36.61515	62.65259	51.26121	-116.35481	-48.8202	0
722	-31.73313	-220.50457	-182.26208	126.11885	82.18067	-202.60383	-292.9212	43.12451	62.65259	55.32956	-113.9138	-43.93818	-1250	T-0
723	-29.29212	-225.38659	-181.44841	126.11885	85.43535	-201.79016	-288.85285	48.8202	65.90727	59.39791	-109.03178	-39.86983	0
724	-28.47845	-230.26861	-185.51676	126.93252	86.24902	-204.23117	-281.52982	52.88855	68.34828	62.65259	-105.7771	-38.24249	0
725	-29.29212	-232.70962	-190.39878	127.74619	85.43535	-207.48585	-275.02046	52.88855	69.97562	62.65259	-104.96343	-39.05616	0
726	-31.73313	-233.52329	-195.2808	128.55986	80.55333	-209.92686	-269.32477	48.8202	69.16195	60.21158	-108.21811	-42.31084	0
727	-35.80148	-230.26861	-197.72181	129.37353	72.41663	-211.5542	-263.62908	42.31084	68.34828	54.51589	-114.72747	-46.37919	0
728	-38.24249	-223.75925	-196.90814	129.37353	65.90727	-210.74053	-256.30605	36.61515	64.27993	48.8202	-121.23683	-51.26121	0
729	-39.05616	-218.06356	-192.83979	127.74619	65.0936	-208.29952	-248.16935	34.17414	60.21158	44.75185	-126.11885	-54.51589	0
730	-38.24249	-215.62255	-187.1441	124.49151	65.90727	-204.23117	-241.65999	34.17414	58.58424	44.75185	-126.11885	-55.32956	0
731	-35.80148	-213.99521	-182.26208	122.86417	65.90727	-200.16282	-235.9643	38.24249	60.21158	47.19286	-124.49151	-55.32956	0
732	-33.36047	-215.62255	-176.56639	123.67784	62.65259	-196.90814	-231.89595	43.93818	65.0936	51.26121	-122.0505	-54.51589	0
733	-33.36047	-220.50457	-173.31171	125.30518	61.02525	-195.2808	-228.64127	49.63387	69.97562	56.14323	-121.23683	-55.32956	0
734	-35.80148	-223.75925	-173.31171	127.74619	61.02525	-195.2808	-225.38659	52.88855	73.2303	58.58424	-122.86417	-58.58424	0
735	-39.05616	-224.57292	-174.12538	128.55986	63.46626	-195.2808	-222.94558	52.07488	75.67131	60.21158	-125.30518	-62.65259	0
736	-41.49717	-223.75925	-176.56639	128.55986	66.72094	-196.09447	-219.6909	47.19286	75.67131	60.21158	-125.30518	-66.72094	0
737	-45.56552	-220.50457	-179.0074	129.37353	70.78929	-197.72181	-217.24989	40.6835	74.04397	58.58424	-123.67784	-68.34828	0
738	-48.00653	-215.62255	-179.82107	129.37353	71.60296	-198.53548	-214.80888	35.80148	72.41663	57.77057	-123.67784	-66.72094	0
739	-47.19286	-212.36787	-179.0074	129.37353	69.97562	-198.53548	-213.18154	34.17414	72.41663	57.77057	-125.30518	-62.65259	0
740	-43.93818	-212.36787	-179.0074	127.74619	69.16195	-198.53548	-210.74053	36.61515	74.85764	59.39791	-125.30518	-57.77057	0
741	-39.05616	-213.99521	-179.0074	126.11885	72.41663	-198.53548	-204.23117	43.12451	80.55333	64.27993	-123.67784	-52.88855	0
742	-33.36047	-216.43622	-179.0074	126.93252	78.92599	-200.16282	-195.2808	52.07488	87.87636	69.16195	-123.67784	-50.44754	0
743	-30.91946	-217.24989	-181.44841	128.55986	82.99434	-202.60383	-183.88942	59.39791	95.19939	73.2303	-124.49151	-49.63387	0
744	-30.91946	-220.50457	-187.1441	131.81454	84.62168	-207.48585	-174.12538	63.46626	98.45407	76.48498	-128.55986	-52.07488	0
745	-31.73313	-225.38659	-192.83979	134.25555	83.80801	-210.74053	-167.61602	61.02525	98.45407	75.67131	-134.25555	-56.14323	0
746	-33.36047	-228.64127	-196.09447	135.06922	79.73966	-212.36787	-165.98868	53.70222	95.19939	71.60296	-139.13757	-61.02525	0
747	-37.42882	-228.64127	-198.53548	134.25555	72.41663	-213.18154	-168.42969	45.56552	90.31737	65.90727	-140.76491	-64.27993	0
748	-39.86983	-223.75925	-197.72181	132.62821	66.72094	-212.36787	-172.49804	39.86983	86.24902	61.83892	-141.57858	-65.0936	0
749	-39.86983	-220.50457	-193.65346	129.37353	65.90727	-209.92686	-177.38006	37.42882	85.43535	59.39791	-142.39225	-61.83892	0
750	-39.86983	-218.87723	-188.77144	126.11885	66.72094	-205.85851	-180.63474	39.86983	87.06269	61.83892	-140.76491	-55.32956	0
751	-38.24249	-218.87723	-184.70309	124.49151	66.72094	-203.4175	-182.26208	45.56552	88.69003	65.90727	-138.3239	-48.00653	0
752	-35.80148	-222.13191	-183.07575	124.49151	66.72094	-203.4175	-183.88942	52.07488	93.57205	70.78929	-135.88289	-42.31084	0
753	-34.17414	-227.8276	-184.70309	126.11885	68.34828	-205.04484	-186.33043	57.77057	100.89508	75.67131	-134.25555	-38.24249	0
754	-34.98781	-233.52329	-187.1441	129.37353	70.78929	-206.67218	-187.95777	61.02525	106.59077	79.73966	-132.62821	-34.17414	0
755	-37.42882	-235.9643	-189.58511	131.81454	72.41663	-209.11319	-188.77144	61.02525	111.47279	83.80801	-129.37353	-31.73313	0
756	-39.05616	-236.77797	-195.2808	132.62821	78.11232	-212.36787	-188.77144	56.9569	113.9138	84.62168	-125.30518	-30.91946	0
757	-40.6835	-235.15063	-201.79016	132.62821	86.24902	-216.43622	-187.1441	50.44754	114.72747	82.99434	-120.42316	-31.73313	0
758	-40.6835	-229.45494	-206.67218	131.81454	90.31737	-218.87723	-183.07575	44.75185	113.10013	79.73966	-117.98215	-33.36047	0
759	-37.42882	-224.57292	-206.67218	130.1872	90.31737	-218.87723	-178.19373	40.6835	109.84545	76.48498	-116.35481	-34.98781	0
760	-30.91946	-222.13191	-205.04484	127.74619	90.31737	-216.43622	-173.31171	37.42882	105.7771	74.04397	-116.35481	-34.98781	0
761	-23.59643	-218.87723	-200.16282	123.67784	87.06269	-212.36787	-170.05703	35.80148	104.14976	74.04397	-117.16848	-34.98781	0
762	-17.90074	-217.24989	-191.21245	122.0505	78.92599	-205.85851	-169.24336	38.24249	106.59077	76.48498	-113.9138	-36.61515	0
763	-17.90074	-220.50457	-185.51676	122.0505	72.41663	-202.60383	-166.80235	43.12451	111.47279	80.55333	-106.59077	-39.05616	0
764	-21.96909	-224.57292	-184.70309	123.67784	71.60296	-201.79016	-161.10666	48.8202	116.35481	83.80801	-100.08141	-39.86983	0
765	-26.85111	-225.38659	-184.70309	124.49151	71.60296	-201.79016	-153.78363	52.88855	118.79582	85.43535	-94.38572	-36.61515	0
766	-32.5468	-225.38659	-186.33043	126.11885	74.04397	-201.79016	-146.4606	56.14323	118.79582	85.43535	-89.5037	-34.17414	0
767	-38.24249	-222.94558	-190.39878	126.93252	79.73966	-204.23117	-142.39225	56.14323	116.35481	83.80801	-85.43535	-31.73313	0
768	-39.05616	-218.06356	-193.65346	126.93252	82.99434	-207.48585	-140.76491	54.51589	113.9138	82.18067	-83.80801	-29.29212	0
769	-37.42882	-214.80888	-193.65346	126.11885	82.99434	-207.48585	-136.69656	54.51589	112.28646	80.55333	-84.62168	-26.85111	0
770	-34.98781	-213.18154	-191.21245	122.86417	81.367	-205.85851	-127.74619	57.77057	112.28646	81.367	-83.80801	-23.59643	0
771	-30.91946	-213.18154	-186.33043	121.23683	80.55333	-202.60383	-114.72747	64.27993	112.28646	84.62168	-80.55333	-22.78276	0
772	-26.85111	-214.80888	-181.44841	121.23683	82.99434	-200.16282	-100.08141	71.60296	115.54114	88.69003	-76.48498	-22.78276	0
773	-25.22377	-218.87723	-179.0074	122.86417	84.62168	-198.53548	-85.43535	78.11232	120.42316	91.94471	-72.41663	-25.22377	0
774	-26.03744	-222.13191	-180.63474	123.67784	82.99434	-198.53548	-69.16195	82.18067	125.30518	94.38572	-69.16195	-28.47845	0
775	-27.66478	-222.13191	-182.26208	125.30518	80.55333	-198.53548	-54.51589	83.80801	126.93252	94.38572	-65.90727	-33.36047	0
776	-30.10579	-219.6909	-183.88942	126.11885	79.73966	-198.53548	-42.31084	82.99434	125.30518	93.57205	-64.27993	-36.61515	0
777	-34.17414	-215.62255	-184.70309	124.49151	79.73966	-196.90814	-33.36047	80.55333	122.0505	91.94471	-61.83892	-37.42882	0
778	-36.61515	-208.29952	-183.07575	122.86417	78.92599	-195.2808	-23.59643	76.48498	120.42316	91.94471	-56.9569	-36.61515	0
779	-33.36047	-204.23117	-182.26208	119.60949	77.29865	-194.46713	-11.39138	74.85764	121.23683	94.38572	-48.8202	-34.98781	0
780	-29.29212	-202.60383	-182.26208	115.54114	78.11232	-194.46713	3.25468	74.85764	126.11885	100.08141	-38.24249	-34.98781	0
781	-23.59643	-201.79016	-180.63474	113.10013	75.67131	-193.65346	20.34175	75.67131	131.81454	105.7771	-26.85111	-34.17414	0
782	-17.90074	-204.23117	-175.75272	113.10013	69.16195	-191.21245	34.98781	78.92599	135.88289	109.84545	-19.52808	-33.36047	0
783	-17.08707	-208.29952	-172.49804	114.72747	65.0936	-189.58511	43.12451	84.62168	137.51023	110.65912	-16.2734	-34.17414	0
784	-19.52808	-211.5542	-173.31171	114.72747	66.72094	-189.58511	42.31084	87.87636	136.69656	110.65912	-14.64606	-35.80148	0
785	-22.78276	-210.74053	-174.12538	114.72747	68.34828	-188.77144	33.36047	87.06269	134.25555	111.47279	-13.83239	-39.05616	0
786	-27.66478	-209.11319	-174.93905	114.72747	71.60296	-187.95777	18.71441	81.367	131.00087	109.03178	-16.2734	-42.31084	0
787	-31.73313	-210.74053	-174.12538	117.16848	76.48498	-191.21245	2.44101	70.78929	121.23683	99.26774	-24.4101	-46.37919	0
788	-32.5468	-216.43622	-173.31171	120.42316	83.80801	-200.97649	-14.64606	51.26121	97.6404	76.48498	-40.6835	-54.51589	0
789	-28.47845	-223.75925	-184.70309	126.11885	92.75838	-216.43622	-35.80148	16.2734	52.88855	32.5468	-69.97562	-69.97562	0
790	-25.22377	-233.52329	-205.04484	131.81454	101.70875	-232.70962	-62.65259	-41.49717	-21.15542	-36.61515	-113.9138	-94.38572	0
791	-26.85111	-245.72834	-218.87723	136.69656	101.70875	-243.28733	-99.26774	-128.55986	-130.1872	-135.06922	-174.12538	-131.00087	0
792	-36.61515	-253.86504	-221.31824	142.39225	92.75838	-245.72834	-144.83326	-244.101	-276.6478	-262.00174	-253.05137	-176.56639	0
793	-48.00653	-257.11972	-217.24989	150.52895	81.367	-244.101	-199.34915	-383.23857	-457.28254	-418.22638	-348.25076	-228.64127	0
794	-56.14323	-262.00174	-214.80888	157.03831	75.67131	-242.47366	-257.93339	-528.8855	-660.70004	-592.35176	-453.21419	-282.34349	0
795	-56.14323	-263.62908	-220.50457	161.10666	78.92599	-246.54201	-308.38093	-656.63169	-864.93121	-770.54549	-558.99129	-331.97736	0
796	-43.93818	-255.49238	-234.33696	157.85198	84.62168	-253.05137	-340.92773	-749.39007	-1048.00696	-934.09316	-650.936	-368.59251	0
797	-23.59643	-239.21898	-247.35568	140.76491	88.69003	-253.05137	-357.20113	-819.36569	-1209.92729	-1071.60339	-720.09795	-382.4249	0
798	-3.25468	-206.67218	-240.03265	104.96343	93.57205	-230.26861	-366.96517	-909.68306	-1371.84762	-1192.84022	-767.29081	-373.47453	0
799	16.2734	-143.20592	-192.83979	56.14323	88.69003	-170.8707	-379.98389	-1057.771	-1563.06007	-1323.84109	-814.48367	-358.82847	0
800	32.5468	-45.56552	-101.70875	-1.62734	59.39791	-74.04397	-398.6983	-1265.25685	-1788.44666	-1475.99738	-876.32259	-349.06443	0
801	35.80148	83.80801	34.17414	-66.72094	-2.44101	59.39791	-417.41271	-1506.10317	-2027.66564	-1635.4767	-947.92555	-344.99608	0
802	22.78276	248.98302	218.87723	-140.76491	-100.08141	232.70962	-440.19547	-1753.45885	-2257.93425	-1770.54592	-1011.39181	-340.11406	0
803	-8.1367	441.00914	442.63648	-218.06356	-227.8276	439.3818	-464.60557	-1983.72746	-2444.26468	-1859.23595	-1052.88898	-328.72268	0
804	-56.9569	628.15324	679.41445	-285.59817	-370.21985	638.73095	-468.67392	-2156.2255	-2553.29646	-1906.42881	-1062.65302	-309.1946	0
805	-121.23683	772.9865	890.96865	-326.28167	-505.28907	793.32825	-433.68611	-2239.21984	-2593.97996	-1908.86982	-1040.68393	-288.03918	0
806	-188.77144	853.53983	1040.68393	-332.79103	-607.81149	898.29168	-372.66086	-2241.66085	-2579.3339	-1864.93164	-1000.00043	-275.02046	0
807	-251.42403	860.04919	1113.10056	-303.49891	-671.27775	947.92555	-315.70396	-2187.95863	-2507.73094	-1786.81932	-956.06225	-284.7845	0
808	-308.38093	797.3966	1111.47322	-244.101	-700.56987	931.65215	-279.90248	-2091.94557	-2382.42576	-1685.11057	-922.70178	-325.468	0
809	-358.0148	685.11014	1050.44797	-164.36134	-698.12886	858.42185	-269.32477	-1970.70874	-2217.25075	-1573.63778	-903.1737	-394.62995	0
810	-393.81628	545.97257	946.29821	-76.48498	-667.2094	744.50805	-279.08881	-1836.45319	-2034.98867	-1462.16499	-891.78232	-467.04658	0
811	-412.53069	400.32564	816.11101	0	-614.32085	610.2525	-291.29386	-1685.92424	-1839.70787	-1347.43752	-872.25424	-519.93513	0
812	-407.64867	269.32477	676.97344	52.07488	-545.97257	474.36961	-292.10753	-1507.73051	-1625.71266	-1216.43665	-826.68872	-545.1589	0
813	-375.91554	170.05703	541.09055	81.367	-463.7919	354.76012	-276.6478	-1303.49934	-1393.81671	-1061.83935	-746.13539	-537.0222	0
814	-320.58598	109.03178	422.29473	87.87636	-375.91554	263.62908	-247.35568	-1083.80844	-1151.34305	-889.34131	-637.10361	-493.89769	0
815	-253.05137	80.55333	327.90901	73.2303	-293.73487	203.4175	-209.92686	-864.93121	-908.86939	-707.8929	-507.73008	-421.48106	0
816	-182.26208	78.11232	257.11972	44.75185	-220.50457	168.42969	-165.98868	-655.00435	-674.53243	-523.18981	-369.40618	-329.53635	0
817	-115.54114	88.69003	210.74053	10.57771	-158.66565	152.96996	-114.72747	-458.09621	-454.02786	-344.99608	-231.89595	-229.45494	0
818	-58.58424	102.52242	186.33043	-21.96909	-110.65912	152.96996	-59.39791	-281.52982	-260.3744	-184.70309	-104.96343	-132.62821	0
819	-14.64606	118.79582	166.80235	-52.07488	-76.48498	152.96996	-6.50936	-131.81454	-99.26774	-48.8202	4.06835	-49.63387	0
820	16.2734	134.25555	144.83326	-74.85764	-52.07488	148.08794	39.05616	-13.01872	26.85111	56.9569	92.75838	17.08707	0
821	37.42882	145.64693	120.42316	-91.13104	-33.36047	135.88289	78.92599	75.67131	121.23683	135.06922	156.22464	65.0936	0
822	47.19286	151.34262	93.57205	-100.08141	-17.90074	118.79582	109.84545	135.88289	184.70309	187.1441	195.2808	95.19939	0
823	52.07488	152.15629	74.04397	-100.89508	-8.1367	103.33609	131.81454	174.12538	226.20026	217.24989	221.31824	113.10013	0
824	55.32956	144.83326	62.65259	-96.82673	-2.44101	94.38572	146.4606	196.90814	252.2377	235.15063	242.47366	123.67784	0
825	57.77057	132.62821	54.51589	-91.94471	0.81367	87.06269	155.41097	209.11319	270.13844	245.72834	260.3744	130.1872	0
826	57.77057	118.79582	46.37919	-87.87636	6.50936	80.55333	162.734	215.62255	283.97083	253.05137	274.20679	132.62821	0
827	55.32956	106.59077	37.42882	-83.80801	14.64606	73.2303	165.98868	220.50457	295.36221	256.30605	283.15716	131.00087	0
828	56.14323	95.19939	28.47845	-81.367	21.96909	65.0936	164.36134	227.8276	306.75359	259.56073	291.29386	128.55986	0
829	58.58424	87.06269	23.59643	-78.92599	23.59643	59.39791	161.92033	238.40531	321.39965	265.25642	301.87157	128.55986	0
830	59.39791	83.80801	22.78276	-75.67131	21.96909	56.14323	163.54767	253.86504	339.30039	273.39312	312.44928	132.62821	0
831	57.77057	81.367	18.71441	-72.41663	21.15542	54.51589	169.24336	270.13844	358.0148	282.34349	320.58598	137.51023	0
832	54.51589	80.55333	7.32303	-69.16195	25.22377	51.26121	179.0074	283.15716	374.2882	292.10753	330.35002	142.39225	0
833	54.51589	78.11232	-3.25468	-65.0936	30.91946	44.75185	190.39878	296.17588	386.49325	299.43056	340.92773	144.01959	0
834	56.14323	72.41663	-8.95037	-60.21158	34.17414	36.61515	203.4175	308.38093	393.81628	305.93992	350.69177	144.01959	0
835	55.32956	63.46626	-8.95037	-54.51589	32.5468	30.91946	218.87723	318.14497	397.88463	312.44928	359.64214	143.20592	0
836	49.63387	54.51589	-7.32303	-49.63387	30.91946	26.03744	235.9643	324.65433	400.32564	316.51763	365.33783	142.39225	0
837	43.12451	49.63387	-8.1367	-46.37919	31.73313	21.96909	254.67871	326.28167	400.32564	318.95864	368.59251	141.57858	0
838	40.6835	49.63387	-8.95037	-45.56552	32.5468	18.71441	274.20679	324.65433	397.07096	318.95864	371.84719	141.57858	0
839	41.49717	50.44754	-8.95037	-44.75185	30.91946	17.90074	293.73487	323.84066	392.18894	318.95864	376.72921	144.01959	0
840	45.56552	49.63387	-7.32303	-46.37919	30.10579	17.90074	313.26295	323.02699	388.93426	319.77231	383.23857	147.27427	0
841	49.63387	49.63387	-6.50936	-48.8202	31.73313	18.71441	332.79103	323.02699	387.30692	321.39965	388.93426	148.90161	0
842	51.26121	48.00653	-4.06835	-51.26121	36.61515	19.52808	352.31911	324.65433	387.30692	323.84066	394.62995	148.90161	0
843	52.88855	43.12451	-4.88202	-52.88855	39.86983	19.52808	370.21985	328.72268	388.12059	326.28167	397.88463	148.08794	0
844	54.51589	39.05616	-7.32303	-52.88855	39.86983	17.90074	385.67958	331.97736	388.12059	327.90901	399.51197	144.83326	0
845	56.9569	38.24249	-11.39138	-52.07488	39.86983	16.2734	397.07096	331.16369	387.30692	327.09534	399.51197	139.13757	0
846	61.83892	39.05616	-17.90074	-52.88855	43.12451	13.83239	405.20766	324.65433	384.86591	324.65433	395.44362	133.44188	0
847	70.78929	42.31084	-27.66478	-55.32956	52.07488	9.76404	410.90335	317.3313	380.79756	321.39965	388.93426	127.74619	0
848	79.73966	48.00653	-37.42882	-59.39791	61.02525	4.88202	414.9717	310.00827	376.72921	317.3313	383.23857	122.86417	0
849	86.24902	50.44754	-43.93818	-63.46626	65.90727	0.81367	418.22638	305.12625	375.91554	314.07662	379.98389	119.60949	0
850	87.87636	50.44754	-43.93818	-64.27993	65.90727	0.81367	422.29473	305.93992	381.61123	313.26295	380.79756	120.42316	0
851	86.24902	49.63387	-37.42882	-63.46626	58.58424	3.25468	425.54941	310.82194	391.37527	316.51763	384.86591	122.86417	0
852	84.62168	47.19286	-27.66478	-61.02525	47.19286	7.32303	426.36308	317.3313	402.76665	320.58598	387.30692	123.67784	0
853	82.18067	43.12451	-21.15542	-60.21158	39.86983	10.57771	423.92207	323.02699	411.71702	323.02699	386.49325	123.67784	0
854	78.92599	40.6835	-19.52808	-58.58424	39.05616	11.39138	419.04005	326.28167	417.41271	323.84066	382.4249	121.23683	0
855	74.85764	42.31084	-19.52808	-57.77057	40.6835	13.83239	410.90335	327.90901	418.22638	323.02699	375.91554	117.98215	0
856	73.2303	45.56552	-20.34175	-57.77057	39.86983	15.45973	401.13931	328.72268	415.78537	319.77231	366.1515	115.54114	0
857	74.04397	52.07488	-21.96909	-60.21158	34.17414	17.08707	390.5616	327.09534	410.90335	315.70396	356.38746	114.72747	0
858	74.04397	60.21158	-20.34175	-61.83892	30.10579	20.34175	383.23857	324.65433	406.02133	311.63561	348.25076	116.35481	0
859	71.60296	65.90727	-13.83239	-64.27993	28.47845	23.59643	379.17022	325.468	402.76665	309.1946	344.18241	119.60949	0
860	69.97562	68.34828	-8.1367	-66.72094	29.29212	27.66478	379.17022	329.53635	401.95298	310.00827	342.55507	123.67784	0
861	70.78929	69.16195	-2.44101	-68.34828	33.36047	30.91946	380.79756	336.85938	402.76665	313.26295	342.55507	128.55986	0
862	74.04397	66.72094	4.06835	-67.53461	39.05616	34.17414	380.79756	345.80975	404.39399	317.3313	342.55507	132.62821	0
863	74.04397	61.83892	8.1367	-65.90727	40.6835	34.98781	384.05224	353.13278	404.39399	320.58598	340.11406	135.06922	0
864	71.60296	58.58424	6.50936	-64.27993	39.05616	34.17414	389.74793	358.0148	402.76665	321.39965	336.04571	134.25555	0
865	69.16195	59.39791	4.06835	-62.65259	37.42882	34.17414	395.44362	360.45581	399.51197	320.58598	328.72268	131.81454	0
866	68.34828	61.83892	0.81367	-62.65259	32.5468	34.98781	400.32564	361.26948	397.07096	318.95864	319.77231	129.37353	0
867	68.34828	64.27993	0	-63.46626	24.4101	35.80148	400.32564	359.64214	394.62995	316.51763	309.1946	126.93252	0
868	66.72094	65.90727	0.81367	-65.0936	17.90074	39.05616	397.88463	357.20113	390.5616	313.26295	300.24423	125.30518	0
869	63.46626	69.97562	7.32303	-66.72094	14.64606	43.12451	396.25729	357.20113	386.49325	310.82194	294.54854	125.30518	0
870	61.83892	74.85764	14.64606	-69.16195	14.64606	48.00653	395.44362	360.45581	383.23857	310.82194	289.66652	127.74619	0
871	60.21158	80.55333	21.15542	-70.78929	17.08707	52.07488	395.44362	366.96517	380.79756	311.63561	283.97083	130.1872	0
872	58.58424	82.18067	26.85111	-73.2303	22.78276	54.51589	394.62995	373.47453	382.4249	313.26295	275.02046	132.62821	0
873	58.58424	80.55333	27.66478	-74.04397	26.85111	54.51589	394.62995	379.17022	387.30692	314.89029	264.44275	135.06922	0
874	60.21158	77.29865	24.4101	-74.04397	28.47845	52.88855	396.25729	383.23857	392.18894	316.51763	253.05137	139.13757	0
875	63.46626	78.11232	20.34175	-73.2303	27.66478	52.07488	398.6983	385.67958	396.25729	316.51763	242.47366	145.64693	0
876	65.90727	80.55333	23.59643	-73.2303	23.59643	52.07488	403.58032	385.67958	397.88463	314.89029	231.08228	149.71528	0
877	68.34828	82.99434	34.17414	-74.04397	15.45973	53.70222	409.27601	383.23857	396.25729	310.82194	218.87723	151.34262	0
878	67.53461	86.24902	43.93818	-75.67131	7.32303	57.77057	415.78537	379.17022	393.81628	307.56726	208.29952	152.96996	0
879	63.46626	90.31737	49.63387	-77.29865	2.44101	64.27993	423.1084	378.35655	393.81628	305.12625	200.97649	155.41097	0
880	59.39791	96.82673	52.88855	-78.11232	0	71.60296	431.2451	381.61123	394.62995	304.31258	198.53548	160.29299	0
881	55.32956	103.33609	56.14323	-79.73966	0	78.11232	436.94079	387.30692	395.44362	305.93992	197.72181	165.17501	0
882	51.26121	106.59077	60.21158	-81.367	2.44101	82.18067	439.3818	393.81628	398.6983	308.38093	198.53548	169.24336	0
883	50.44754	105.7771	61.83892	-82.99434	4.88202	84.62168	442.63648	399.51197	403.58032	310.00827	197.72181	173.31171	0
884	51.26121	104.96343	61.02525	-83.80801	4.06835	85.43535	449.14584	404.39399	406.835	310.82194	196.09447	178.19373	0
885	52.88855	106.59077	59.39791	-82.99434	3.25468	86.24902	457.28254	406.835	408.46234	311.63561	194.46713	183.07575	0
886	55.32956	110.65912	63.46626	-83.80801	-0.81367	87.87636	464.60557	407.64867	407.64867	310.00827	193.65346	185.51676	0
887	57.77057	113.9138	74.85764	-85.43535	-8.95037	89.5037	472.74227	406.02133	406.02133	306.75359	194.46713	184.70309	0
888	58.58424	117.98215	84.62168	-87.87636	-15.45973	94.38572	480.87897	401.13931	401.13931	301.87157	194.46713	183.88942	0
889	56.9569	124.49151	89.5037	-91.13104	-19.52808	100.89508	489.01567	398.6983	396.25729	298.61689	192.83979	183.07575	0
890	53.70222	133.44188	94.38572	-94.38572	-22.78276	110.65912	497.15237	397.07096	393.00261	297.80322	193.65346	184.70309	0
891	50.44754	144.83326	102.52242	-98.45407	-28.47845	121.23683	506.10274	397.07096	392.18894	299.43056	195.2808	186.33043	0
892	47.19286	152.96996	112.28646	-102.52242	-36.61515	131.00087	513.42577	400.32564	392.18894	300.24423	196.90814	186.33043	0
893	45.56552	157.03831	119.60949	-105.7771	-42.31084	139.13757	515.86678	406.835	392.18894	301.0579	196.90814	185.51676	0
894	46.37919	160.29299	122.0505	-109.84545	-42.31084	144.01959	515.86678	412.53069	389.74793	299.43056	196.09447	182.26208	0
895	48.8202	165.98868	122.86417	-113.9138	-39.86983	148.08794	511.79843	414.9717	386.49325	296.98955	193.65346	177.38006	0
896	52.88855	173.31171	129.37353	-117.98215	-39.86983	157.03831	502.84806	412.53069	379.98389	292.9212	187.95777	170.8707	0
897	56.14323	180.63474	144.01959	-121.23683	-47.19286	171.68437	493.08402	409.27601	371.03352	288.03918	181.44841	165.17501	0
898	54.51589	187.1441	157.85198	-122.86417	-55.32956	183.88942	483.31998	406.02133	362.89682	282.34349	174.12538	160.29299	0
899	49.63387	195.2808	169.24336	-124.49151	-62.65259	192.02612	476.81062	406.02133	356.38746	278.27514	170.05703	154.5973	0
900	43.12451	206.67218	179.0074	-125.30518	-69.97562	198.53548	474.36961	409.27601	353.13278	275.02046	169.24336	148.90161	0
901	39.86983	218.06356	190.39878	-127.74619	-78.92599	206.67218	474.36961	414.9717	352.31911	274.20679	170.05703	144.83326	0
902	38.24249	226.20026	203.4175	-129.37353	-91.94471	215.62255	475.99695	422.29473	352.31911	274.20679	172.49804	144.01959	0
903	35.80148	230.26861	214.80888	-131.00087	-100.89508	222.94558	475.99695	428.80409	352.31911	274.20679	173.31171	144.83326	0
904	31.73313	234.33696	221.31824	-134.25555	-104.14976	229.45494	472.74227	434.49978	349.8781	273.39312	172.49804	144.01959	0
905	30.10579	241.65999	224.57292	-138.3239	-103.33609	235.15063	464.60557	434.49978	344.18241	270.95211	167.61602	141.57858	0
906	29.29212	249.79669	229.45494	-144.01959	-102.52242	239.21898	452.40052	428.80409	332.79103	263.62908	158.66565	138.3239	0
907	28.47845	257.93339	238.40531	-152.15629	-102.52242	242.47366	437.75446	419.85372	318.14497	253.05137	145.64693	132.62821	0
908	33.36047	266.88376	243.28733	-161.10666	-100.89508	246.54201	425.54941	411.71702	302.68524	240.84632	133.44188	123.67784	0
909	40.6835	277.46147	246.54201	-168.42969	-99.26774	255.49238	415.78537	405.20766	289.66652	228.64127	122.86417	113.9138	0
910	43.93818	291.29386	253.86504	-173.31171	-102.52242	268.5111	405.20766	402.76665	279.90248	219.6909	112.28646	104.14976	0
911	43.93818	305.93992	265.25642	-178.19373	-109.84545	283.15716	392.18894	402.76665	272.57945	211.5542	106.59077	98.45407	0
912	43.12451	320.58598	279.08881	-183.07575	-120.42316	296.98955	380.79756	401.95298	265.25642	204.23117	103.33609	96.01306	0
913	42.31084	334.41837	290.48019	-187.95777	-128.55986	308.38093	372.66086	398.6983	256.30605	196.09447	100.08141	94.38572	0
914	43.93818	344.18241	296.98955	-193.65346	-130.1872	316.51763	365.33783	391.37527	244.101	186.33043	94.38572	91.13104	0
915	47.19286	349.8781	299.43056	-199.34915	-128.55986	323.02699	353.13278	378.35655	227.01393	173.31171	83.80801	84.62168	0
916	52.88855	355.57379	305.12625	-205.04484	-123.67784	331.97736	338.48672	358.0148	205.85851	157.85198	69.97562	75.67131	0
917	56.14323	360.45581	318.14497	-209.11319	-118.79582	346.62342	325.468	336.85938	181.44841	140.76491	54.51589	69.16195	0
918	55.32956	365.33783	331.97736	-213.18154	-122.0505	358.82847	317.3313	315.70396	157.85198	123.67784	41.49717	64.27993	0
919	50.44754	371.84719	342.55507	-217.24989	-131.81454	366.1515	313.26295	295.36221	134.25555	107.40444	31.73313	61.02525	0
920	46.37919	381.61123	349.06443	-221.31824	-141.57858	371.03352	309.1946	275.83413	113.10013	91.13104	23.59643	56.9569	0
921	46.37919	391.37527	347.43709	-224.57292	-145.64693	375.10187	302.68524	257.11972	91.94471	74.85764	15.45973	54.51589	0
922	48.00653	399.51197	338.48672	-227.8276	-143.20592	376.72921	293.73487	237.59164	70.78929	57.77057	6.50936	54.51589	0
923	52.07488	405.20766	329.53635	-230.26861	-138.3239	375.10187	279.90248	216.43622	47.19286	39.86983	-3.25468	54.51589	0
924	56.9569	406.02133	326.28167	-231.89595	-135.06922	371.03352	263.62908	192.02612	21.96909	20.34175	-13.83239	53.70222	0
925	59.39791	402.76665	327.09534	-231.89595	-134.25555	368.59251	243.28733	164.36134	-4.06835	0.81367	-26.03744	51.26121	0
926	59.39791	397.88463	327.90901	-230.26861	-133.44188	366.1515	219.6909	131.81454	-33.36047	-20.34175	-39.05616	47.19286	0
927	60.21158	393.00261	325.468	-227.01393	-129.37353	362.89682	194.46713	97.6404	-64.27993	-42.31084	-54.51589	43.12451	0
928	58.58424	385.67958	323.84066	-223.75925	-127.74619	359.64214	169.24336	64.27993	-94.38572	-65.0936	-67.53461	39.05616	0
929	56.9569	379.98389	323.84066	-219.6909	-130.1872	356.38746	147.27427	34.17414	-122.0505	-86.24902	-78.92599	36.61515	0
930	54.51589	375.10187	322.21332	-215.62255	-131.81454	351.50544	130.1872	8.1367	-146.4606	-104.14976	-87.06269	36.61515	0
931	52.88855	366.1515	318.14497	-211.5542	-132.62821	344.99608	118.79582	-13.83239	-167.61602	-120.42316	-92.75838	36.61515	0
932	52.88855	352.31911	310.82194	-208.29952	-132.62821	334.41837	113.10013	-34.98781	-187.1441	-135.06922	-97.6404	35.80148	0
933	56.14323	338.48672	294.54854	-204.23117	-124.49151	318.95864	109.03178	-54.51589	-205.85851	-149.71528	-104.14976	34.17414	0
934	63.46626	325.468	270.13844	-200.16282	-107.40444	298.61689	104.14976	-74.04397	-225.38659	-164.36134	-111.47279	30.10579	0
935	71.60296	309.1946	241.65999	-194.46713	-87.87636	276.6478	95.19939	-95.19939	-244.101	-179.0074	-120.42316	23.59643	0
936	77.29865	290.48019	213.18154	-187.1441	-67.53461	253.05137	83.80801	-117.16848	-262.81541	-192.02612	-128.55986	16.2734	0
937	80.55333	269.32477	185.51676	-176.56639	-48.8202	235.15063	73.2303	-136.69656	-279.90248	-205.04484	-133.44188	10.57771	0
938	79.73966	249.79669	164.36134	-165.17501	-37.42882	223.75925	65.0936	-152.96996	-294.54854	-214.80888	-138.3239	5.69569	0
939	75.67131	234.33696	150.52895	-152.96996	-33.36047	210.74053	61.02525	-165.98868	-305.12625	-222.94558	-144.01959	1.62734	0
940	69.97562	219.6909	139.95124	-140.76491	-32.5468	192.83979	61.83892	-173.31171	-311.63561	-227.8276	-147.27427	-2.44101	0
941	65.90727	202.60383	126.93252	-129.37353	-30.10579	174.12538	66.72094	-175.75272	-313.26295	-229.45494	-148.08794	-4.88202	0
942	65.0936	184.70309	108.21811	-118.79582	-25.22377	155.41097	70.78929	-176.56639	-311.63561	-228.64127	-147.27427	-4.88202	0
943	63.46626	166.80235	90.31737	-108.21811	-18.71441	136.69656	74.04397	-175.75272	-309.1946	-226.20026	-145.64693	-4.06835	0
944	57.77057	147.27427	77.29865	-97.6404	-13.83239	117.16848	76.48498	-174.93905	-305.93992	-222.13191	-143.20592	-4.88202	0
945	52.07488	125.30518	65.90727	-86.24902	-9.76404	98.45407	78.11232	-173.31171	-302.68524	-217.24989	-140.76491	-7.32303	0
946	48.00653	104.14976	51.26121	-76.48498	-1.62734	79.73966	79.73966	-172.49804	-301.87157	-213.99521	-138.3239	-11.39138	0
947	48.00653	84.62168	31.73313	-67.53461	10.57771	66.72094	81.367	-174.12538	-303.49891	-211.5542	-135.06922	-16.2734	0
948	48.00653	66.72094	15.45973	-59.39791	20.34175	59.39791	86.24902	-177.38006	-304.31258	-209.92686	-134.25555	-20.34175	0
949	45.56552	52.07488	5.69569	-51.26121	23.59643	51.26121	92.75838	-179.0074	-303.49891	-207.48585	-135.06922	-22.78276	0
950	42.31084	40.6835	0	-43.93818	23.59643	38.24249	102.52242	-177.38006	-298.61689	-201.79016	-135.06922	-23.59643	0
951	39.86983	28.47845	-8.95037	-38.24249	24.4101	20.34175	112.28646	-170.8707	-290.48019	-193.65346	-132.62821	-23.59643	0
952	40.6835	15.45973	-21.96909	-31.73313	27.66478	0	118.79582	-161.92033	-279.90248	-184.70309	-128.55986	-23.59643	0
953	39.86983	4.06835	-34.17414	-22.78276	31.73313	-16.2734	126.11885	-152.96996	-270.13844	-175.75272	-124.49151	-24.4101	0
954	36.61515	-3.25468	-41.49717	-13.83239	34.17414	-26.03744	135.06922	-145.64693	-262.00174	-167.61602	-122.0505	-26.85111	0
955	32.5468	-13.01872	-47.19286	-6.50936	35.80148	-32.5468	142.39225	-140.76491	-253.86504	-159.47932	-121.23683	-31.73313	0
956	29.29212	-22.78276	-54.51589	-1.62734	35.80148	-39.05616	148.90161	-139.95124	-247.35568	-153.78363	-120.42316	-35.80148	0
957	28.47845	-28.47845	-65.0936	2.44101	34.17414	-45.56552	150.52895	-140.76491	-242.47366	-148.90161	-118.79582	-39.05616	0
958	26.03744	-30.91946	-71.60296	6.50936	32.5468	-51.26121	148.90161	-139.95124	-236.77797	-144.01959	-118.79582	-42.31084	0
959	22.78276	-34.17414	-72.41663	9.76404	34.17414	-55.32956	148.90161	-137.51023	-229.45494	-139.13757	-120.42316	-43.93818	0
960	21.96909	-39.86983	-73.2303	9.76404	39.05616	-58.58424	152.15629	-133.44188	-219.6909	-132.62821	-121.23683	-44.75185	0
961	21.96909	-45.56552	-78.92599	9.76404	46.37919	-61.83892	157.03831	-126.93252	-208.29952	-126.11885	-120.42316	-45.56552	0
962	21.15542	-48.8202	-89.5037	10.57771	54.51589	-64.27993	161.92033	-118.79582	-196.09447	-117.98215	-118.79582	-46.37919	0
963	21.96909	-52.07488	-96.82673	13.83239	60.21158	-67.53461	165.98868	-111.47279	-183.88942	-110.65912	-115.54114	-46.37919	0
964	22.78276	-56.9569	-100.08141	17.90074	62.65259	-72.41663	170.05703	-104.14976	-174.12538	-103.33609	-113.9138	-47.19286	0
965	24.4101	-63.46626	-100.89508	21.96909	63.46626	-78.11232	175.75272	-100.08141	-163.54767	-96.01306	-112.28646	-49.63387	0
966	24.4101	-70.78929	-103.33609	24.4101	61.83892	-83.80801	183.88942	-97.6404	-153.78363	-89.5037	-111.47279	-51.26121	0
967	22.78276	-74.04397	-106.59077	27.66478	56.9569	-87.06269	187.95777	-96.01306	-146.4606	-83.80801	-112.28646	-51.26121	0
968	21.15542	-73.2303	-107.40444	30.10579	53.70222	-89.5037	189.58511	-94.38572	-143.20592	-78.92599	-111.47279	-50.44754	0
969	19.52808	-73.2303	-104.96343	30.10579	52.88855	-90.31737	187.95777	-91.13104	-140.76491	-75.67131	-109.03178	-48.00653	0
970	18.71441	-75.67131	-103.33609	29.29212	54.51589	-91.13104	182.26208	-87.06269	-137.51023	-71.60296	-104.96343	-44.75185	0
971	19.52808	-78.92599	-99.26774	30.10579	57.77057	-91.13104	173.31171	-80.55333	-131.00087	-66.72094	-100.08141	-40.6835	0
972	23.59643	-81.367	-95.19939	30.91946	61.83892	-91.13104	165.17501	-72.41663	-123.67784	-60.21158	-93.57205	-36.61515	0
973	26.03744	-82.99434	-95.19939	32.5468	65.90727	-93.57205	161.10666	-65.0936	-116.35481	-53.70222	-88.69003	-34.17414	0
