samplenr	I	II	III	aVR	aVL	aVF	V1	V2	V3	V4	V5	V6	measurement
0	1.62734	0.81367	-0.81367	-1.62734	0.81367	0	5.69569	3.25468	7.32303	2.44101	7.32303	-13.01872	0
1	7.32303	1.62734	-8.1367	-4.88202	6.50936	-5.69569	21.15542	14.64606	32.5468	13.01872	34.17414	-50.44754	0
2	12.20505	-2.44101	-19.52808	-6.50936	14.64606	-18.71441	35.80148	30.10579	69.16195	30.10579	77.29865	-91.94471	0
3	12.20505	-11.39138	-28.47845	-2.44101	18.71441	-30.10579	42.31084	43.93818	101.70875	48.00653	119.60949	-118.79582	0
4	6.50936	-21.15542	-29.29212	6.50936	16.2734	-33.36047	43.12451	52.88855	125.30518	61.83892	148.90161	-131.00087	0
5	-2.44101	-27.66478	-25.22377	14.64606	11.39138	-32.5468	39.86983	54.51589	138.3239	70.78929	163.54767	-138.3239	0
6	-7.32303	-30.91946	-17.90074	17.90074	10.57771	-30.10579	35.80148	51.26121	142.39225	73.2303	168.42969	-142.39225	0
7	-4.06835	-26.03744	-13.01872	14.64606	12.20505	-25.22377	34.17414	49.63387	141.57858	69.16195	164.36134	-141.57858	0
8	4.06835	-17.90074	-13.83239	6.50936	16.2734	-19.52808	34.98781	50.44754	135.06922	61.02525	152.96996	-137.51023	0
9	8.95037	-13.01872	-18.71441	0	18.71441	-17.08707	37.42882	51.26121	125.30518	53.70222	139.13757	-135.06922	0
10	8.95037	-10.57771	-15.45973	-5.69569	17.90074	-13.83239	40.6835	51.26121	117.16848	48.8202	130.1872	-132.62821	0
11	8.1367	-8.95037	-1.62734	-8.1367	13.83239	-8.1367	46.37919	47.19286	114.72747	49.63387	127.74619	-126.93252	0
12	5.69569	-7.32303	13.01872	-9.76404	7.32303	-5.69569	51.26121	36.61515	116.35481	57.77057	126.93252	-122.0505	0
13	4.06835	-0.81367	18.71441	-11.39138	1.62734	-4.88202	48.8202	22.78276	117.98215	64.27993	122.86417	-122.0505	0
14	4.88202	8.1367	13.01872	-8.95037	1.62734	-4.06835	35.80148	11.39138	113.10013	65.90727	117.16848	-128.55986	0
15	12.20505	17.08707	2.44101	-10.57771	4.88202	-3.25468	16.2734	2.44101	104.14976	68.34828	118.79582	-135.06922	0
16	32.5468	26.85111	-10.57771	-19.52808	10.57771	-0.81367	-2.44101	-5.69569	94.38572	69.97562	123.67784	-136.69656	0
17	55.32956	38.24249	-18.71441	-30.10579	20.34175	6.50936	-17.90074	-15.45973	86.24902	72.41663	131.00087	-129.37353	0
18	65.0936	45.56552	-15.45973	-39.05616	26.03744	17.90074	-27.66478	-20.34175	82.99434	78.11232	144.01959	-113.9138	0
19	54.51589	48.8202	0	-39.05616	17.90074	29.29212	-30.91946	-22.78276	86.24902	86.24902	156.22464	-97.6404	0
20	22.78276	49.63387	15.45973	-26.03744	3.25468	38.24249	-33.36047	-21.15542	94.38572	91.94471	163.54767	-85.43535	0
21	-13.01872	47.19286	26.85111	-8.95037	-6.50936	46.37919	-38.24249	-18.71441	100.89508	94.38572	163.54767	-82.18067	0
22	-30.91946	44.75185	32.5468	-4.06835	-11.39138	51.26121	-46.37919	-20.34175	103.33609	91.94471	158.66565	-85.43535	0
23	-18.71441	51.26121	33.36047	-17.08707	-8.1367	52.07488	-52.88855	-24.4101	104.96343	87.06269	151.34262	-90.31737	0
24	13.83239	64.27993	25.22377	-40.6835	1.62734	50.44754	-56.9569	-26.85111	108.21811	82.18067	144.01959	-95.19939	0
25	54.51589	75.67131	8.95037	-65.90727	14.64606	48.00653	-56.9569	-26.03744	113.9138	75.67131	135.88289	-99.26774	0
26	91.13104	79.73966	-6.50936	-88.69003	28.47845	46.37919	-50.44754	-16.2734	122.86417	69.16195	128.55986	-104.14976	0
27	108.21811	74.85764	-9.76404	-103.33609	32.5468	44.75185	-39.86983	-0.81367	128.55986	63.46626	122.86417	-109.84545	0
28	107.40444	64.27993	0	-106.59077	27.66478	40.6835	-30.10579	11.39138	128.55986	61.02525	122.0505	-108.21811	0
29	91.94471	48.8202	12.20505	-100.89508	19.52808	35.80148	-26.03744	13.83239	119.60949	63.46626	124.49151	-99.26774	0
30	69.97562	30.10579	18.71441	-75.67131	2.44101	30.10579	-26.03744	0	100.89508	64.27993	122.86417	-92.75838	0
31	54.51589	13.01872	19.52808	-39.86983	-13.83239	21.15542	-26.03744	-19.52808	77.29865	59.39791	117.98215	-91.94471	0
32	44.75185	0.81367	9.76404	-9.76404	-14.64606	8.95037	-25.22377	-33.36047	64.27993	51.26121	115.54114	-92.75838	0
33	38.24249	-3.25468	-13.83239	5.69569	6.50936	-7.32303	-21.96909	-36.61515	65.90727	45.56552	116.35481	-91.94471	0
34	29.29212	-8.95037	-45.56552	8.95037	37.42882	-26.85111	-13.83239	-32.5468	75.67131	47.19286	120.42316	-87.06269	0
35	18.71441	-23.59643	-69.16195	12.20505	56.9569	-46.37919	0.81367	-26.03744	86.24902	54.51589	124.49151	-82.99434	0
36	7.32303	-50.44754	-85.43535	25.22377	62.65259	-64.27993	15.45973	-21.96909	93.57205	61.02525	122.0505	-80.55333	0
37	-3.25468	-82.18067	-97.6404	43.12451	60.21158	-76.48498	21.96909	-20.34175	93.57205	63.46626	112.28646	-78.92599	0
38	-13.01872	-105.7771	-104.14976	58.58424	53.70222	-86.24902	21.15542	-14.64606	87.87636	59.39791	100.89508	-82.18067	0
39	-18.71441	-114.72747	-102.52242	66.72094	45.56552	-92.75838	17.08707	-5.69569	78.11232	48.8202	92.75838	-91.13104	0
40	-21.15542	-113.10013	-91.13104	65.0936	34.98781	-90.31737	15.45973	0.81367	69.97562	38.24249	87.06269	-102.52242	0
41	-16.2734	-104.14976	-78.92599	58.58424	29.29212	-81.367	17.90074	8.95037	71.60296	34.17414	84.62168	-110.65912	0
42	-1.62734	-91.94471	-78.92599	53.70222	35.80148	-76.48498	21.15542	16.2734	82.18067	35.80148	83.80801	-115.54114	0
43	10.57771	-89.5037	-92.75838	51.26121	50.44754	-85.43535	21.96909	17.08707	94.38572	36.61515	75.67131	-124.49151	0
44	13.83239	-102.52242	-112.28646	56.14323	62.65259	-104.96343	19.52808	12.20505	103.33609	34.17414	61.83892	-137.51023	0
45	9.76404	-122.0505	-129.37353	65.90727	70.78929	-123.67784	14.64606	4.88202	104.96343	25.22377	48.8202	-151.34262	0
46	3.25468	-138.3239	-139.95124	74.04397	74.85764	-135.88289	8.1367	-3.25468	95.19939	10.57771	39.05616	-162.734	0
47	-2.44101	-148.08794	-143.20592	79.73966	73.2303	-141.57858	2.44101	-13.83239	78.11232	-6.50936	28.47845	-168.42969	0
48	-17.90074	-155.41097	-136.69656	84.62168	61.02525	-141.57858	2.44101	-21.96909	61.02525	-20.34175	17.90074	-173.31171	0
49	-43.12451	-163.54767	-125.30518	91.13104	44.75185	-139.13757	8.1367	-25.22377	48.8202	-26.03744	12.20505	-178.19373	0
50	-64.27993	-169.24336	-122.0505	99.26774	39.05616	-136.69656	14.64606	-24.4101	43.93818	-21.96909	13.01872	-183.88942	0
51	-65.0936	-169.24336	-127.74619	101.70875	43.93818	-136.69656	22.78276	-22.78276	44.75185	-13.01872	16.2734	-187.1441	0
52	-50.44754	-161.10666	-133.44188	93.57205	52.07488	-137.51023	30.91946	-23.59643	52.07488	-2.44101	18.71441	-189.58511	0
53	-33.36047	-147.27427	-131.00087	82.18067	55.32956	-135.88289	37.42882	-26.03744	63.46626	4.88202	18.71441	-192.83979	0
54	-21.96909	-133.44188	-120.42316	74.04397	52.88855	-129.37353	41.49717	-28.47845	74.04397	7.32303	13.01872	-200.16282	0
55	-17.08707	-126.93252	-113.10013	72.41663	50.44754	-124.49151	42.31084	-25.22377	81.367	6.50936	4.88202	-209.92686	0
56	-15.45973	-126.93252	-116.35481	74.04397	52.88855	-128.55986	39.05616	-15.45973	85.43535	2.44101	-2.44101	-217.24989	0
57	-16.2734	-128.55986	-130.1872	76.48498	58.58424	-141.57858	34.98781	-4.06835	86.24902	-4.88202	-8.95037	-222.94558	0
58	-17.90074	-130.1872	-137.51023	78.11232	61.02525	-148.90161	32.5468	2.44101	81.367	-13.01872	-13.83239	-229.45494	0
59	-17.90074	-127.74619	-132.62821	76.48498	57.77057	-141.57858	29.29212	0.81367	72.41663	-17.08707	-16.2734	-235.15063	0
60	-10.57771	-117.98215	-124.49151	69.16195	56.9569	-127.74619	26.85111	-4.88202	62.65259	-16.2734	-13.83239	-235.15063	0
61	4.06835	-105.7771	-122.86417	59.39791	60.21158	-117.98215	27.66478	-11.39138	61.02525	-8.95037	-6.50936	-227.01393	0
62	18.71441	-101.70875	-129.37353	50.44754	63.46626	-117.16848	30.10579	-13.83239	69.16195	3.25468	0	-220.50457	0
63	17.90074	-110.65912	-135.88289	52.07488	66.72094	-123.67784	33.36047	-11.39138	78.92599	15.45973	0	-220.50457	0
64	4.06835	-130.1872	-135.06922	68.34828	66.72094	-132.62821	38.24249	-0.81367	87.87636	23.59643	-2.44101	-222.13191	0
65	-8.95037	-148.90161	-129.37353	88.69003	61.83892	-139.13757	45.56552	12.20505	94.38572	28.47845	-2.44101	-218.87723	0
66	-18.71441	-161.92033	-125.30518	105.7771	55.32956	-142.39225	53.70222	20.34175	94.38572	30.91946	0	-214.80888	0
67	-27.66478	-169.24336	-126.93252	114.72747	51.26121	-147.27427	56.9569	16.2734	82.99434	26.03744	0.81367	-214.80888	0
68	-32.5468	-172.49804	-136.69656	117.98215	52.88855	-157.03831	52.07488	0	58.58424	12.20505	-4.88202	-219.6909	0
69	-33.36047	-173.31171	-147.27427	117.16848	56.9569	-165.17501	41.49717	-28.47845	24.4101	-5.69569	-17.90074	-227.8276	0
70	-34.98781	-172.49804	-148.08794	113.10013	56.14323	-165.17501	26.85111	-64.27993	-19.52808	-27.66478	-31.73313	-238.40531	0
71	-40.6835	-168.42969	-139.13757	108.21811	48.00653	-157.03831	8.95037	-110.65912	-81.367	-56.14323	-45.56552	-246.54201	0
72	-47.19286	-156.22464	-118.79582	101.70875	34.17414	-139.95124	-14.64606	-178.19373	-169.24336	-94.38572	-61.83892	-249.79669	0
73	-51.26121	-129.37353	-86.24902	87.06269	17.08707	-109.03178	-47.19286	-270.95211	-286.41184	-142.39225	-71.60296	-244.101	0
74	-45.56552	-82.99434	-41.49717	61.02525	-0.81367	-62.65259	-86.24902	-378.35655	-421.48106	-198.53548	-69.16195	-225.38659	0
75	-33.36047	-22.78276	8.95037	26.85111	-17.08707	-6.50936	-123.67784	-481.69264	-558.17762	-256.30605	-59.39791	-190.39878	0
76	-19.52808	36.61515	55.32956	-8.95037	-30.10579	46.37919	-154.5973	-571.19634	-689.99216	-304.31258	-40.6835	-142.39225	0
77	-8.1367	103.33609	97.6404	-53.70222	-38.24249	100.89508	-181.44841	-647.68132	-811.22899	-338.48672	-5.69569	-86.24902	0
78	0	183.88942	147.27427	-109.03178	-50.44754	166.80235	-207.48585	-724.97997	-923.51545	-362.08315	43.93818	-21.96909	0
79	8.1367	270.13844	216.43622	-159.47932	-79.73966	244.101	-240.03265	-820.99303	-1033.3609	-377.54288	104.96343	47.19286	0
80	17.90074	367.77884	305.93992	-212.36787	-122.0505	337.67305	-281.52982	-949.55289	-1148.90204	-384.86591	173.31171	122.0505	0
81	28.47845	491.45668	413.34436	-282.34349	-170.05703	452.40052	-330.35002	-1106.5912	-1273.39355	-386.49325	244.91467	197.72181	0
82	44.75185	620.83021	533.76752	-352.31911	-227.8276	576.89203	-387.30692	-1274.20722	-1405.20809	-380.79756	314.89029	264.44275	0
83	69.97562	728.23465	646.86765	-414.15803	-288.85285	686.73748	-458.09621	-1432.0592	-1535.39529	-364.52416	379.98389	321.39965	0
84	90.31737	812.04266	736.37135	-473.55594	-338.48672	773.80017	-530.51284	-1563.87374	-1651.7501	-338.48672	429.61776	373.47453	0
85	91.94471	877.94993	800.65128	-515.86678	-369.40618	838.89377	-585.8424	-1655.00478	-1737.99912	-315.70396	442.63648	405.20766	0
86	82.18067	890.96865	814.48367	-515.05311	-372.66086	852.72616	-623.27122	-1686.73791	-1772.98693	-304.31258	405.20766	394.62995	0
87	67.53461	808.78798	742.06704	-458.09621	-338.48672	776.24118	-630.59425	-1646.86808	-1734.74444	-301.0579	322.21332	335.23204	0
88	50.44754	628.15324	576.07836	-349.8781	-261.18807	603.74314	-600.48846	-1545.973	-1633.84936	-314.07662	193.65346	231.08228	0
89	26.85111	377.54288	347.43709	-205.04484	-157.85198	363.71049	-547.59991	-1410.90378	-1507.73051	-365.33783	21.15542	93.57205	0
90	-9.76404	104.14976	109.84545	-45.56552	-58.58424	106.59077	-498.77971	-1267.69786	-1399.5124	-471.9286	-177.38006	-55.32956	0
91	-56.14323	-140.76491	-90.31737	100.08141	17.08707	-116.35481	-473.55594	-1135.88332	-1334.4188	-631.40792	-372.66086	-191.21245	0
92	-94.38572	-328.72268	-240.84632	211.5542	72.41663	-285.59817	-469.48759	-1015.46016	-1301.05833	-812.85633	-535.39486	-299.43056	0
93	-110.65912	-454.84153	-349.8781	280.71615	119.60949	-403.58032	-472.74227	-897.47801	-1268.51153	-969.08097	-645.24031	-374.2882	0
94	-108.21811	-528.07183	-423.1084	316.51763	157.85198	-480.0653	-475.99695	-772.17283	-1209.11362	-1063.46669	-698.12886	-417.41271	0
95	-96.82673	-558.99129	-458.90988	326.28167	182.26208	-522.37614	-467.04658	-631.40792	-1105.77753	-1074.0444	-695.68785	-430.43143	0
96	-82.18067	-559.80496	-470.30126	316.51763	196.09447	-532.14018	-433.68611	-477.62429	-961.75794	-1008.13713	-650.12233	-422.29473	0
97	-67.53461	-544.34523	-466.23291	297.80322	199.34915	-518.30779	-377.54288	-332.79103	-798.21027	-893.40966	-580.96038	-408.46234	0
98	-55.32956	-521.56247	-453.21419	279.90248	196.90814	-495.52503	-307.56726	-218.06356	-641.17196	-763.22246	-506.10274	-394.62995	0
99	-45.56552	-496.3387	-444.26382	266.07009	197.72181	-473.55594	-236.77797	-137.51023	-502.84806	-641.17196	-438.56813	-382.4249	0
100	-35.80148	-471.9286	-437.75446	256.30605	200.97649	-456.46887	-174.12538	-79.73966	-384.05224	-532.95385	-382.4249	-370.21985	1000	P+0
101	-28.47845	-454.02786	-426.36308	251.42403	196.09447	-441.00914	-124.49151	-32.5468	-281.52982	-441.82281	-337.67305	-358.82847	0
102	-30.91946	-444.26382	-410.08968	251.42403	179.0074	-424.73574	-87.87636	4.06835	-195.2808	-365.33783	-298.61689	-348.25076	0
103	-41.49717	-432.05877	-391.37527	250.61036	156.22464	-403.58032	-59.39791	26.85111	-123.67784	-299.43056	-258.74706	-331.16369	0
104	-42.31084	-407.64867	-371.03352	235.15063	138.3239	-379.17022	-34.17414	37.42882	-65.90727	-240.84632	-219.6909	-308.38093	0
105	-22.78276	-368.59251	-351.50544	203.4175	127.74619	-351.50544	-13.01872	41.49717	-21.96909	-190.39878	-185.51676	-282.34349	0
106	0	-323.02699	-327.09534	166.80235	125.30518	-318.95864	3.25468	47.19286	9.76404	-148.08794	-157.85198	-257.11972	0
107	13.83239	-275.83413	-291.29386	133.44188	124.49151	-279.90248	15.45973	63.46626	42.31084	-108.21811	-131.81454	-239.21898	0
108	18.71441	-227.8276	-247.35568	105.7771	116.35481	-235.9643	26.85111	91.13104	82.18067	-67.53461	-104.14976	-224.57292	0
109	13.01872	-183.88942	-198.53548	86.24902	98.45407	-190.39878	39.05616	124.49151	128.55986	-27.66478	-78.11232	-209.92686	0
110	2.44101	-149.71528	-155.41097	73.2303	76.48498	-152.96996	52.07488	155.41097	170.05703	4.88202	-57.77057	-198.53548	0
111	-2.44101	-127.74619	-128.55986	65.90727	62.65259	-129.37353	65.0936	179.0074	200.16282	27.66478	-43.93818	-192.02612	0
112	-2.44101	-113.10013	-116.35481	61.83892	57.77057	-115.54114	77.29865	193.65346	218.06356	44.75185	-40.6835	-192.83979	0
113	-1.62734	-106.59077	-110.65912	59.39791	55.32956	-109.03178	88.69003	199.34915	226.20026	55.32956	-46.37919	-199.34915	0
114	-3.25468	-113.10013	-108.21811	60.21158	51.26121	-111.47279	99.26774	199.34915	228.64127	58.58424	-58.58424	-207.48585	0
115	-7.32303	-132.62821	-111.47279	66.72094	46.37919	-122.86417	106.59077	191.21245	223.75925	56.9569	-71.60296	-218.87723	0
116	-11.39138	-152.96996	-117.16848	77.29865	44.75185	-135.06922	109.03178	175.75272	218.06356	56.14323	-81.367	-227.8276	0
117	-13.83239	-160.29299	-124.49151	82.99434	48.00653	-141.57858	106.59077	158.66565	209.92686	55.32956	-82.99434	-227.01393	0
118	-13.01872	-158.66565	-130.1872	81.367	54.51589	-142.39225	100.89508	144.83326	202.60383	52.07488	-77.29865	-218.06356	0
119	-8.95037	-152.96996	-132.62821	74.85764	61.02525	-138.3239	96.01306	139.95124	200.97649	50.44754	-69.16195	-207.48585	0
120	-8.1367	-144.83326	-129.37353	69.97562	60.21158	-132.62821	93.57205	144.01959	205.85851	55.32956	-61.02525	-198.53548	0
121	-15.45973	-135.88289	-118.79582	69.97562	51.26121	-129.37353	97.6404	156.22464	218.06356	67.53461	-51.26121	-192.02612	0
122	-22.78276	-126.93252	-106.59077	69.97562	41.49717	-128.55986	109.03178	171.68437	232.70962	81.367	-41.49717	-184.70309	0
123	-25.22377	-120.42316	-100.08141	68.34828	37.42882	-125.30518	122.86417	185.51676	245.72834	92.75838	-36.61515	-181.44841	0
124	-22.78276	-114.72747	-100.89508	63.46626	42.31084	-121.23683	133.44188	198.53548	257.11972	99.26774	-37.42882	-181.44841	0
125	-18.71441	-107.40444	-104.96343	54.51589	51.26121	-117.16848	138.3239	205.85851	263.62908	99.26774	-39.86983	-185.51676	0
126	-11.39138	-108.21811	-108.21811	42.31084	55.32956	-118.79582	135.88289	201.79016	262.00174	89.5037	-45.56552	-190.39878	0
127	-9.76404	-120.42316	-113.10013	30.10579	53.70222	-125.30518	127.74619	186.33043	249.79669	73.2303	-56.14323	-192.83979	0
128	-11.39138	-125.30518	-112.28646	27.66478	50.44754	-124.49151	117.16848	169.24336	231.08228	61.02525	-66.72094	-194.46713	0
129	-8.95037	-113.9138	-105.7771	35.80148	48.00653	-113.10013	110.65912	155.41097	213.99521	60.21158	-69.16195	-196.09447	0
130	-3.25468	-103.33609	-98.45407	43.93818	50.44754	-102.52242	109.84545	150.52895	205.04484	67.53461	-63.46626	-194.46713	0
131	0	-100.89508	-91.94471	50.44754	56.9569	-96.82673	111.47279	152.96996	203.4175	79.73966	-52.88855	-188.77144	0
132	-2.44101	-100.89508	-94.38572	56.9569	62.65259	-99.26774	116.35481	161.10666	209.92686	92.75838	-43.12451	-183.07575	0
133	-7.32303	-101.70875	-102.52242	61.83892	62.65259	-109.03178	122.0505	170.05703	221.31824	103.33609	-39.05616	-181.44841	0
134	-5.69569	-104.96343	-106.59077	61.83892	56.9569	-116.35481	126.93252	179.0074	232.70962	107.40444	-39.86983	-185.51676	0
135	-1.62734	-111.47279	-106.59077	55.32956	51.26121	-117.98215	129.37353	183.88942	240.84632	106.59077	-41.49717	-191.21245	0
136	-8.95037	-111.47279	-101.70875	48.00653	40.6835	-114.72747	129.37353	182.26208	244.101	104.14976	-43.93818	-196.90814	0
137	-24.4101	-101.70875	-92.75838	43.12451	26.85111	-107.40444	125.30518	175.75272	240.84632	101.70875	-49.63387	-203.4175	0
138	-33.36047	-91.94471	-82.18067	41.49717	18.71441	-98.45407	117.98215	170.05703	234.33696	99.26774	-55.32956	-205.85851	0
139	-27.66478	-81.367	-75.67131	39.05616	19.52808	-87.06269	111.47279	163.54767	227.01393	99.26774	-54.51589	-203.4175	0
140	-15.45973	-69.97562	-71.60296	33.36047	25.22377	-76.48498	107.40444	159.47932	223.75925	102.52242	-48.8202	-196.90814	0
141	-4.88202	-61.83892	-69.16195	28.47845	29.29212	-67.53461	105.7771	161.10666	231.89595	111.47279	-41.49717	-187.95777	0
142	0	-55.32956	-67.53461	24.4101	30.91946	-61.02525	106.59077	171.68437	253.86504	125.30518	-34.98781	-179.82107	0
143	0	-56.9569	-61.83892	24.4101	25.22377	-56.9569	108.21811	188.77144	279.90248	135.88289	-33.36047	-177.38006	0
144	-0.81367	-63.46626	-54.51589	27.66478	17.90074	-56.9569	109.84545	208.29952	300.24423	138.3239	-38.24249	-180.63474	0
145	1.62734	-66.72094	-51.26121	31.73313	17.08707	-58.58424	111.47279	228.64127	311.63561	136.69656	-45.56552	-183.88942	0
146	4.88202	-62.65259	-52.88855	31.73313	22.78276	-60.21158	113.9138	244.91467	315.70396	133.44188	-52.07488	-183.07575	0
147	7.32303	-55.32956	-58.58424	28.47845	30.10579	-63.46626	116.35481	249.79669	310.82194	130.1872	-56.9569	-181.44841	0
148	8.95037	-50.44754	-65.0936	24.4101	36.61515	-65.0936	116.35481	243.28733	301.0579	126.93252	-61.02525	-182.26208	0
149	13.01872	-49.63387	-68.34828	21.96909	39.86983	-65.0936	115.54114	233.52329	290.48019	122.86417	-66.72094	-184.70309	0
150	18.71441	-51.26121	-69.97562	21.15542	39.86983	-65.0936	113.9138	225.38659	282.34349	120.42316	-71.60296	-186.33043	0
151	23.59643	-49.63387	-70.78929	17.90074	40.6835	-62.65259	109.84545	221.31824	280.71615	119.60949	-73.2303	-185.51676	0
152	25.22377	-44.75185	-68.34828	12.20505	41.49717	-56.9569	105.7771	226.20026	287.22551	122.0505	-69.97562	-179.82107	0
153	21.96909	-38.24249	-60.21158	8.1367	37.42882	-48.8202	104.96343	238.40531	297.80322	129.37353	-62.65259	-171.68437	0
154	13.83239	-30.10579	-44.75185	7.32303	26.85111	-37.42882	104.14976	250.61036	307.56726	138.3239	-54.51589	-162.734	0
155	4.06835	-28.47845	-33.36047	12.20505	12.20505	-30.91946	101.70875	257.11972	313.26295	145.64693	-49.63387	-152.15629	0
156	-4.06835	-34.98781	-27.66478	21.15542	-0.81367	-30.91946	97.6404	261.18807	312.44928	151.34262	-49.63387	-140.76491	0
157	-9.76404	-31.73313	-18.71441	22.78276	-8.95037	-25.22377	90.31737	267.69743	310.82194	152.96996	-48.00653	-134.25555	0
158	-8.95037	-5.69569	0.81367	7.32303	-13.83239	-1.62734	84.62168	276.6478	313.26295	152.96996	-39.86983	-127.74619	0
159	-4.06835	33.36047	26.03744	-19.52808	-16.2734	29.29212	82.99434	282.34349	317.3313	152.96996	-27.66478	-116.35481	0
160	2.44101	61.02525	43.12451	-40.6835	-15.45973	48.8202	84.62168	288.03918	322.21332	154.5973	-17.90074	-105.7771	0
161	8.95037	69.16195	46.37919	-48.8202	-13.83239	53.70222	90.31737	296.17588	325.468	156.22464	-13.01872	-100.89508	0
162	18.71441	65.0936	35.80148	-48.00653	-4.88202	47.19286	99.26774	305.12625	327.90901	157.03831	-9.76404	-100.08141	0
163	30.10579	56.14323	18.71441	-42.31084	7.32303	35.80148	109.03178	314.89029	330.35002	153.78363	-13.83239	-104.14976	0
164	33.36047	49.63387	12.20505	-34.98781	11.39138	29.29212	118.79582	323.84066	334.41837	145.64693	-23.59643	-111.47279	0
165	26.85111	45.56552	17.90074	-28.47845	6.50936	30.91946	126.93252	331.97736	338.48672	139.95124	-30.10579	-115.54114	0
166	19.52808	44.75185	32.5468	-21.96909	-7.32303	38.24249	130.1872	336.85938	340.11406	137.51023	-29.29212	-112.28646	0
167	12.20505	46.37919	51.26121	-15.45973	-27.66478	51.26121	127.74619	336.04571	337.67305	134.25555	-27.66478	-108.21811	0
168	6.50936	56.9569	64.27993	-16.2734	-43.93818	66.72094	117.98215	331.97736	328.72268	128.55986	-30.10579	-108.21811	0
169	4.88202	74.04397	66.72094	-26.85111	-48.8202	78.11232	104.96343	326.28167	311.63561	122.0505	-31.73313	-109.84545	0
170	6.50936	91.13104	60.21158	-39.05616	-45.56552	81.367	94.38572	323.84066	292.10753	120.42316	-30.10579	-109.03178	0
171	15.45973	98.45407	54.51589	-47.19286	-39.86983	79.73966	87.87636	326.28167	280.71615	118.79582	-28.47845	-108.21811	0
172	29.29212	102.52242	56.9569	-52.88855	-38.24249	79.73966	87.87636	331.97736	276.6478	117.98215	-29.29212	-108.21811	0
173	32.5468	109.03178	66.72094	-57.77057	-41.49717	85.43535	91.13104	340.92773	279.90248	122.86417	-27.66478	-106.59077	0
174	24.4101	113.9138	80.55333	-58.58424	-42.31084	99.26774	97.6404	349.8781	292.9212	133.44188	-21.96909	-100.08141	0
175	16.2734	122.0505	95.19939	-63.46626	-42.31084	116.35481	104.14976	356.38746	308.38093	140.76491	-13.01872	-96.01306	0
176	9.76404	139.13757	108.21811	-74.85764	-44.75185	135.06922	105.7771	358.82847	316.51763	135.88289	-5.69569	-96.82673	0
177	9.76404	157.85198	122.0505	-87.87636	-50.44754	152.96996	101.70875	358.0148	315.70396	125.30518	-3.25468	-97.6404	0
178	19.52808	185.51676	143.20592	-99.26774	-56.9569	174.12538	96.82673	353.94645	309.1946	117.98215	-2.44101	-88.69003	0
179	41.49717	219.6909	170.05703	-113.10013	-61.02525	204.23117	93.57205	349.8781	302.68524	117.98215	5.69569	-67.53461	0
180	61.02525	240.03265	193.65346	-131.81454	-65.0936	231.08228	91.13104	349.06443	296.17588	122.86417	19.52808	-43.12451	0
181	65.90727	240.84632	211.5542	-147.27427	-70.78929	242.47366	86.24902	348.25076	285.59817	126.11885	30.91946	-25.22377	0
182	61.02525	233.52329	226.20026	-154.5973	-76.48498	243.28733	79.73966	350.69177	270.95211	124.49151	34.98781	-17.90074	0
183	50.44754	229.45494	235.15063	-154.5973	-83.80801	240.84632	74.85764	353.13278	255.49238	119.60949	34.17414	-16.2734	0
184	40.6835	233.52329	238.40531	-151.34262	-91.13104	241.65999	70.78929	351.50544	238.40531	111.47279	29.29212	-17.90074	0
185	36.61515	241.65999	242.47366	-152.96996	-96.82673	248.98302	61.83892	343.36874	219.6909	98.45407	26.03744	-20.34175	0
186	29.29212	256.30605	253.05137	-151.34262	-106.59077	259.56073	49.63387	331.97736	204.23117	82.18067	26.03744	-24.4101	0
187	15.45973	271.76578	268.5111	-140.76491	-126.11885	270.13844	37.42882	316.51763	187.95777	69.16195	25.22377	-25.22377	0
188	8.95037	278.27514	281.52982	-127.74619	-144.01959	275.83413	25.22377	299.43056	170.05703	59.39791	21.96909	-20.34175	0
189	13.83239	284.7845	284.7845	-129.37353	-148.08794	279.90248	16.2734	286.41184	153.78363	49.63387	15.45973	-14.64606	0
190	22.78276	302.68524	288.85285	-147.27427	-144.83326	291.29386	11.39138	279.08881	142.39225	40.6835	11.39138	-11.39138	0
191	30.10579	327.90901	303.49891	-168.42969	-146.4606	312.44928	12.20505	270.95211	131.81454	34.98781	12.20505	-9.76404	0
192	31.73313	349.8781	326.28167	-183.07575	-157.03831	336.85938	13.01872	261.18807	122.0505	30.10579	14.64606	-3.25468	0
193	25.22377	366.1515	352.31911	-192.02612	-171.68437	361.26948	11.39138	249.79669	109.84545	23.59643	16.2734	4.06835	0
194	15.45973	381.61123	375.10187	-196.09447	-185.51676	383.23857	6.50936	241.65999	93.57205	13.83239	14.64606	9.76404	0
195	4.88202	398.6983	387.30692	-195.2808	-196.90814	398.6983	0	235.15063	72.41663	0	7.32303	8.1367	0
196	-1.62734	406.02133	390.5616	-191.21245	-200.97649	403.58032	-8.95037	227.01393	46.37919	-18.71441	-5.69569	0	0
197	-6.50936	397.88463	388.93426	-184.70309	-194.46713	397.07096	-21.96909	213.99521	17.08707	-36.61515	-18.71441	-8.1367	0
198	-8.1367	384.05224	380.79756	-179.82107	-181.44841	384.86591	-34.17414	197.72181	-10.57771	-51.26121	-26.85111	-10.57771	0
199	3.25468	379.17022	367.77884	-186.33043	-166.80235	374.2882	-43.12451	180.63474	-32.5468	-63.46626	-27.66478	-4.88202	0
200	28.47845	392.18894	358.0148	-209.11319	-152.96996	374.2882	-44.75185	163.54767	-46.37919	-70.78929	-21.15542	1.62734	0
201	57.77057	417.41271	354.76012	-238.40531	-141.57858	385.67958	-42.31084	148.08794	-57.77057	-71.60296	-12.20505	7.32303	0
202	76.48498	441.00914	358.82847	-261.18807	-135.06922	399.51197	-43.12451	130.1872	-74.04397	-73.2303	-7.32303	13.83239	0
203	81.367	449.14584	363.71049	-268.5111	-135.88289	406.835	-45.56552	112.28646	-99.26774	-80.55333	-10.57771	19.52808	0
204	72.41663	441.82281	366.1515	-261.18807	-143.20592	403.58032	-48.8202	95.19939	-126.11885	-94.38572	-21.96909	21.15542	0
205	58.58424	426.36308	367.77884	-251.42403	-151.34262	397.07096	-53.70222	78.92599	-145.64693	-110.65912	-34.98781	19.52808	0
206	50.44754	417.41271	369.40618	-244.101	-157.03831	393.00261	-55.32956	63.46626	-155.41097	-123.67784	-43.12451	20.34175	0
207	48.00653	418.22638	374.2882	-240.84632	-161.10666	396.25729	-55.32956	51.26121	-160.29299	-129.37353	-42.31084	26.03744	0
208	36.61515	414.9717	377.54288	-229.45494	-170.8707	398.6983	-63.46626	34.98781	-168.42969	-132.62821	-40.6835	31.73313	0
209	11.39138	394.62995	374.2882	-204.23117	-185.51676	389.74793	-82.18067	12.20505	-186.33043	-139.95124	-44.75185	31.73313	0
210	-13.01872	364.52416	362.89682	-175.75272	-195.2808	369.40618	-101.70875	-9.76404	-208.29952	-152.15629	-54.51589	25.22377	0
211	-26.03744	332.79103	344.18241	-153.78363	-192.02612	343.36874	-111.47279	-23.59643	-227.8276	-165.98868	-66.72094	16.2734	0
212	-27.66478	305.93992	317.3313	-142.39225	-175.75272	315.70396	-107.40444	-30.91946	-247.35568	-177.38006	-76.48498	11.39138	0
213	-22.78276	286.41184	286.41184	-140.76491	-155.41097	288.85285	-95.19939	-39.05616	-265.25642	-183.88942	-78.92599	12.20505	0
214	-13.01872	272.57945	262.00174	-139.95124	-144.01959	267.69743	-82.18067	-57.77057	-282.34349	-189.58511	-82.18067	11.39138	0
215	-13.83239	257.93339	253.05137	-129.37353	-136.69656	256.30605	-74.85764	-87.87636	-296.98955	-196.90814	-86.24902	4.06835	0
216	-24.4101	241.65999	254.67871	-111.47279	-132.62821	249.79669	-74.85764	-117.16848	-302.68524	-205.85851	-87.06269	-5.69569	0
217	-30.91946	229.45494	258.74706	-99.26774	-133.44188	244.91467	-77.29865	-128.55986	-299.43056	-209.92686	-89.5037	-12.20505	0
218	-29.29212	224.57292	259.56073	-96.01306	-134.25555	240.84632	-78.92599	-122.86417	-289.66652	-205.85851	-93.57205	-18.71441	0
219	-26.03744	220.50457	253.05137	-95.19939	-133.44188	235.15063	-76.48498	-112.28646	-277.46147	-197.72181	-96.82673	-25.22377	0
220	-22.78276	216.43622	238.40531	-97.6404	-126.11885	225.38659	-69.16195	-107.40444	-264.44275	-187.1441	-98.45407	-31.73313	0
221	-21.96909	208.29952	215.62255	-100.08141	-111.47279	210.74053	-56.9569	-107.40444	-248.98302	-171.68437	-98.45407	-39.05616	0
222	-26.03744	192.83979	196.90814	-94.38572	-100.08141	193.65346	-40.6835	-103.33609	-227.01393	-150.52895	-96.01306	-43.12451	0
223	-32.5468	174.93905	184.70309	-82.18067	-91.13104	179.82107	-22.78276	-91.94471	-201.79016	-126.11885	-89.5037	-39.86983	0
224	-39.05616	159.47932	175.75272	-70.78929	-85.43535	167.61602	-11.39138	-82.18067	-179.82107	-107.40444	-82.99434	-35.80148	0
225	-43.12451	140.76491	165.17501	-57.77057	-83.80801	152.96996	-9.76404	-76.48498	-165.98868	-97.6404	-85.43535	-38.24249	0
226	-43.12451	117.98215	156.22464	-42.31084	-85.43535	138.3239	-13.83239	-78.11232	-160.29299	-91.13104	-96.82673	-45.56552	0
227	-39.05616	97.6404	146.4606	-29.29212	-85.43535	126.93252	-19.52808	-82.99434	-157.03831	-88.69003	-107.40444	-51.26121	0
228	-34.98781	82.18067	134.25555	-21.15542	-82.18067	114.72747	-24.4101	-84.62168	-146.4606	-88.69003	-111.47279	-56.9569	1500	QRS+0
229	-30.10579	71.60296	122.0505	-17.90074	-75.67131	103.33609	-24.4101	-77.29865	-130.1872	-86.24902	-109.03178	-63.46626	0
230	-26.85111	65.0936	114.72747	-13.83239	-67.53461	94.38572	-19.52808	-64.27993	-113.10013	-78.92599	-104.14976	-69.16195	0
231	-26.85111	65.0936	105.7771	-8.1367	-61.83892	85.43535	-11.39138	-48.8202	-97.6404	-65.90727	-99.26774	-73.2303	0
232	-29.29212	66.72094	94.38572	-5.69569	-56.14323	78.11232	-4.06835	-33.36047	-84.62168	-52.07488	-95.19939	-77.29865	0
233	-34.17414	64.27993	82.99434	-6.50936	-49.63387	70.78929	-1.62734	-20.34175	-74.85764	-41.49717	-96.01306	-84.62168	0
234	-38.24249	48.8202	68.34828	-0.81367	-44.75185	56.14323	-8.1367	-16.2734	-68.34828	-34.98781	-102.52242	-96.01306	0
235	-39.05616	23.59643	51.26121	12.20505	-41.49717	33.36047	-19.52808	-22.78276	-65.0936	-31.73313	-110.65912	-104.96343	0
236	-38.24249	1.62734	32.5468	22.78276	-35.80148	8.95037	-26.03744	-32.5468	-65.90727	-31.73313	-113.9138	-102.52242	0
237	-34.17414	-14.64606	14.64606	29.29212	-26.03744	-6.50936	-21.96909	-42.31084	-67.53461	-30.91946	-107.40444	-95.19939	0
238	-22.78276	-30.10579	4.88202	29.29212	-15.45973	-15.45973	-11.39138	-50.44754	-62.65259	-23.59643	-92.75838	-91.13104	0
239	-8.1367	-43.93818	0	19.52808	-5.69569	-23.59643	-1.62734	-55.32956	-46.37919	-13.01872	-80.55333	-94.38572	0
240	-5.69569	-56.14323	-6.50936	17.90074	1.62734	-34.17414	0	-54.51589	-26.03744	-5.69569	-79.73966	-103.33609	0
241	-17.08707	-65.90727	-15.45973	28.47845	7.32303	-43.12451	-2.44101	-49.63387	-5.69569	-0.81367	-87.06269	-114.72747	0
242	-28.47845	-74.04397	-24.4101	39.86983	8.1367	-48.8202	-4.06835	-43.12451	9.76404	3.25468	-93.57205	-122.86417	0
243	-34.17414	-79.73966	-30.10579	46.37919	7.32303	-51.26121	-2.44101	-34.17414	21.96909	9.76404	-97.6404	-127.74619	0
244	-33.36047	-82.18067	-36.61515	49.63387	7.32303	-54.51589	1.62734	-26.03744	29.29212	15.45973	-98.45407	-129.37353	0
245	-24.4101	-79.73966	-41.49717	48.00653	9.76404	-56.9569	6.50936	-17.08707	32.5468	19.52808	-99.26774	-130.1872	0
246	-8.95037	-74.04397	-41.49717	40.6835	11.39138	-53.70222	9.76404	-9.76404	32.5468	21.96909	-100.08141	-130.1872	0
247	0.81367	-64.27993	-38.24249	31.73313	12.20505	-48.00653	9.76404	-8.95037	29.29212	24.4101	-98.45407	-128.55986	0
248	8.1367	-54.51589	-38.24249	25.22377	16.2734	-41.49717	4.88202	-13.83239	24.4101	27.66478	-93.57205	-125.30518	0
249	17.08707	-50.44754	-41.49717	21.96909	25.22377	-37.42882	-1.62734	-18.71441	21.96909	28.47845	-87.06269	-120.42316	0
250	20.34175	-52.07488	-50.44754	20.34175	32.5468	-40.6835	-8.1367	-21.96909	22.78276	28.47845	-81.367	-117.16848	0
251	15.45973	-56.9569	-61.02525	22.78276	37.42882	-50.44754	-10.57771	-20.34175	29.29212	29.29212	-77.29865	-115.54114	0
252	8.1367	-65.0936	-68.34828	26.85111	37.42882	-60.21158	-7.32303	-15.45973	40.6835	31.73313	-74.85764	-115.54114	0
253	-0.81367	-72.41663	-69.16195	33.36047	33.36047	-65.0936	-0.81367	-6.50936	52.88855	34.17414	-74.04397	-117.98215	0
254	-11.39138	-74.04397	-61.02525	39.05616	25.22377	-64.27993	8.95037	6.50936	63.46626	39.86983	-68.34828	-117.98215	0
255	-17.90074	-70.78929	-48.8202	42.31084	16.2734	-58.58424	21.15542	20.34175	69.16195	48.00653	-58.58424	-111.47279	0
256	-19.52808	-66.72094	-39.05616	39.86983	11.39138	-56.14323	30.10579	26.85111	69.97562	55.32956	-51.26121	-106.59077	0
257	-16.2734	-65.0936	-36.61515	32.5468	11.39138	-61.83892	29.29212	24.4101	66.72094	58.58424	-50.44754	-106.59077	0
258	-10.57771	-65.90727	-43.93818	28.47845	17.90074	-69.16195	21.96909	15.45973	61.83892	54.51589	-53.70222	-112.28646	0
259	-8.1367	-72.41663	-56.14323	31.73313	24.4101	-77.29865	10.57771	3.25468	56.9569	45.56552	-62.65259	-119.60949	0
260	-11.39138	-82.18067	-69.97562	40.6835	27.66478	-83.80801	0	-3.25468	54.51589	35.80148	-74.85764	-127.74619	0
261	-17.08707	-91.94471	-81.367	51.26121	27.66478	-88.69003	-4.88202	-4.06835	52.88855	28.47845	-82.99434	-136.69656	0
262	-19.52808	-100.08141	-88.69003	59.39791	28.47845	-89.5037	-3.25468	0	57.77057	26.03744	-85.43535	-143.20592	0
263	-13.01872	-104.96343	-88.69003	63.46626	32.5468	-85.43535	5.69569	8.1367	68.34828	27.66478	-82.99434	-142.39225	0
264	-6.50936	-103.33609	-84.62168	63.46626	35.80148	-82.18067	18.71441	17.08707	78.92599	30.10579	-79.73966	-137.51023	0
265	-8.1367	-102.52242	-80.55333	63.46626	34.98781	-78.92599	26.85111	23.59643	87.06269	30.10579	-80.55333	-135.06922	0
266	-15.45973	-104.14976	-78.11232	67.53461	31.73313	-76.48498	28.47845	24.4101	92.75838	29.29212	-80.55333	-135.06922	0
267	-27.66478	-101.70875	-74.85764	74.85764	25.22377	-77.29865	25.22377	22.78276	95.19939	33.36047	-73.2303	-131.81454	0
268	-41.49717	-98.45407	-65.0936	80.55333	16.2734	-75.67131	17.90074	26.03744	93.57205	40.6835	-61.02525	-126.11885	0
269	-49.63387	-94.38572	-55.32956	82.18067	12.20505	-73.2303	11.39138	32.5468	91.94471	47.19286	-52.88855	-123.67784	0
270	-46.37919	-91.13104	-53.70222	81.367	14.64606	-73.2303	8.1367	39.86983	91.94471	50.44754	-51.26121	-126.93252	0
271	-34.17414	-91.94471	-65.0936	79.73966	23.59643	-79.73966	9.76404	43.93818	92.75838	48.00653	-56.9569	-131.00087	0
272	-25.22377	-94.38572	-82.18067	78.92599	32.5468	-92.75838	13.83239	43.93818	91.13104	40.6835	-66.72094	-137.51023	0
273	-21.15542	-100.89508	-91.13104	74.85764	35.80148	-100.89508	19.52808	44.75185	90.31737	34.98781	-76.48498	-141.57858	0
274	-18.71441	-108.21811	-95.19939	69.16195	40.6835	-101.70875	24.4101	47.19286	90.31737	30.10579	-82.18067	-144.01959	0
275	-17.90074	-109.03178	-104.14976	65.90727	52.07488	-100.08141	25.22377	48.00653	90.31737	28.47845	-87.87636	-145.64693	0
276	-15.45973	-104.14976	-112.28646	61.83892	61.02525	-94.38572	24.4101	43.12451	91.13104	28.47845	-92.75838	-147.27427	0
277	-11.39138	-100.08141	-109.84545	53.70222	58.58424	-87.87636	24.4101	32.5468	90.31737	28.47845	-94.38572	-148.08794	0
278	-5.69569	-92.75838	-95.19939	47.19286	46.37919	-79.73966	25.22377	25.22377	87.87636	27.66478	-90.31737	-144.01959	0
279	0	-80.55333	-78.92599	39.05616	34.98781	-71.60296	21.96909	26.03744	85.43535	27.66478	-86.24902	-139.95124	0
280	6.50936	-69.97562	-72.41663	31.73313	30.10579	-67.53461	14.64606	30.91946	85.43535	28.47845	-84.62168	-138.3239	0
281	10.57771	-65.0936	-74.04397	26.85111	32.5468	-68.34828	8.1367	36.61515	89.5037	28.47845	-86.24902	-137.51023	0
282	12.20505	-61.02525	-74.04397	26.03744	35.80148	-67.53461	4.88202	38.24249	99.26774	28.47845	-89.5037	-136.69656	0
283	10.57771	-56.14323	-69.16195	29.29212	34.98781	-63.46626	4.88202	33.36047	107.40444	26.85111	-94.38572	-137.51023	0
284	2.44101	-57.77057	-62.65259	36.61515	30.10579	-61.02525	4.88202	21.15542	108.21811	21.96909	-101.70875	-141.57858	0
285	-7.32303	-65.0936	-61.02525	43.12451	28.47845	-64.27993	4.88202	9.76404	97.6404	13.01872	-110.65912	-145.64693	0
286	-15.45973	-74.85764	-65.90727	46.37919	29.29212	-71.60296	3.25468	4.06835	80.55333	1.62734	-117.16848	-151.34262	0
287	-15.45973	-86.24902	-74.04397	49.63387	30.91946	-79.73966	0.81367	4.88202	64.27993	-8.1367	-118.79582	-157.03831	0
288	-8.1367	-100.08141	-86.24902	56.14323	34.17414	-92.75838	1.62734	12.20505	58.58424	-12.20505	-115.54114	-157.85198	0
289	2.44101	-102.52242	-95.19939	60.21158	40.6835	-98.45407	7.32303	27.66478	69.97562	-6.50936	-105.7771	-150.52895	0
290	9.76404	-89.5037	-91.94471	63.46626	43.12451	-94.38572	13.83239	48.00653	93.57205	4.06835	-94.38572	-139.13757	0
291	11.39138	-77.29865	-79.73966	65.0936	36.61515	-90.31737	20.34175	64.27993	113.9138	13.83239	-84.62168	-131.81454	0
292	7.32303	-78.92599	-68.34828	65.0936	23.59643	-88.69003	26.03744	72.41663	125.30518	18.71441	-81.367	-131.81454	0
293	-0.81367	-88.69003	-64.27993	66.72094	16.2734	-89.5037	28.47845	71.60296	131.00087	22.78276	-82.18067	-133.44188	0
294	-6.50936	-97.6404	-71.60296	69.16195	20.34175	-92.75838	25.22377	63.46626	132.62821	24.4101	-82.99434	-135.88289	0
295	-9.76404	-101.70875	-80.55333	71.60296	28.47845	-98.45407	15.45973	51.26121	131.81454	26.03744	-82.18067	-138.3239	0
296	-15.45973	-102.52242	-87.06269	74.04397	33.36047	-102.52242	3.25468	42.31084	129.37353	29.29212	-79.73966	-142.39225	0
297	-21.96909	-102.52242	-85.43535	75.67131	31.73313	-101.70875	-2.44101	41.49717	126.93252	30.91946	-78.11232	-144.83326	0
298	-30.91946	-104.96343	-77.29865	75.67131	21.96909	-96.01306	0.81367	48.8202	124.49151	31.73313	-80.55333	-144.01959	0
299	-41.49717	-109.84545	-69.97562	74.04397	12.20505	-92.75838	13.83239	60.21158	123.67784	33.36047	-82.18067	-139.95124	0
300	-45.56552	-113.10013	-68.34828	71.60296	8.95037	-94.38572	30.91946	67.53461	125.30518	35.80148	-84.62168	-131.00087	0
301	-42.31084	-112.28646	-68.34828	66.72094	10.57771	-100.08141	45.56552	70.78929	128.55986	38.24249	-85.43535	-118.79582	0
302	-31.73313	-109.03178	-69.97562	58.58424	16.2734	-104.14976	52.88855	72.41663	134.25555	42.31084	-80.55333	-106.59077	0
303	-17.08707	-101.70875	-75.67131	48.8202	26.85111	-104.96343	54.51589	74.04397	139.13757	45.56552	-73.2303	-99.26774	0
304	-5.69569	-85.43535	-80.55333	40.6835	37.42882	-98.45407	52.88855	75.67131	141.57858	43.12451	-68.34828	-96.82673	0
305	0	-67.53461	-81.367	28.47845	46.37919	-86.24902	51.26121	78.11232	139.95124	35.80148	-65.0936	-98.45407	0
306	2.44101	-58.58424	-81.367	18.71441	56.9569	-74.85764	49.63387	76.48498	131.00087	26.85111	-65.0936	-99.26774	0
307	4.88202	-61.83892	-82.18067	20.34175	65.90727	-69.16195	46.37919	66.72094	117.98215	17.08707	-70.78929	-99.26774	0
308	7.32303	-65.90727	-87.87636	29.29212	69.16195	-74.04397	43.12451	51.26121	105.7771	13.83239	-78.11232	-103.33609	0
309	7.32303	-73.2303	-92.75838	36.61515	65.0936	-81.367	42.31084	36.61515	99.26774	21.96909	-78.92599	-107.40444	0
310	1.62734	-90.31737	-91.94471	39.86983	54.51589	-86.24902	40.6835	27.66478	100.08141	37.42882	-74.04397	-109.84545	0
311	-9.76404	-106.59077	-89.5037	41.49717	41.49717	-90.31737	34.17414	27.66478	112.28646	51.26121	-71.60296	-114.72747	0
312	-17.90074	-110.65912	-84.62168	42.31084	31.73313	-93.57205	27.66478	34.98781	132.62821	60.21158	-73.2303	-117.98215	-1500	QRS-0
313	-21.15542	-101.70875	-74.85764	43.12451	23.59643	-92.75838	25.22377	45.56552	152.96996	65.0936	-74.85764	-117.16848	0
314	-21.96909	-87.87636	-63.46626	43.93818	17.90074	-86.24902	23.59643	56.9569	162.734	63.46626	-75.67131	-116.35481	0
315	-20.34175	-75.67131	-57.77057	39.86983	15.45973	-77.29865	20.34175	64.27993	157.85198	52.07488	-75.67131	-121.23683	0
316	-13.83239	-61.83892	-59.39791	27.66478	16.2734	-69.97562	19.52808	68.34828	145.64693	39.05616	-73.2303	-127.74619	0
317	-3.25468	-46.37919	-61.83892	15.45973	21.15542	-64.27993	24.4101	69.16195	134.25555	31.73313	-71.60296	-129.37353	0
318	0	-40.6835	-63.46626	17.08707	26.03744	-62.65259	30.91946	68.34828	127.74619	30.91946	-73.2303	-127.74619	0
319	-2.44101	-52.88855	-68.34828	27.66478	28.47845	-66.72094	36.61515	67.53461	127.74619	37.42882	-74.04397	-123.67784	0
320	0	-70.78929	-76.48498	34.17414	34.17414	-74.85764	43.12451	68.34828	131.81454	49.63387	-69.97562	-117.16848	0
321	4.88202	-86.24902	-86.24902	39.05616	39.05616	-85.43535	50.44754	67.53461	133.44188	59.39791	-66.72094	-112.28646	0
322	10.57771	-103.33609	-95.19939	50.44754	39.05616	-96.82673	55.32956	63.46626	128.55986	61.02525	-67.53461	-113.10013	0
323	11.39138	-122.0505	-103.33609	65.90727	39.05616	-110.65912	56.14323	61.02525	122.0505	58.58424	-71.60296	-116.35481	0
324	7.32303	-133.44188	-110.65912	75.67131	41.49717	-119.60949	53.70222	59.39791	122.86417	59.39791	-72.41663	-116.35481	0
325	0.81367	-140.76491	-113.9138	80.55333	46.37919	-123.67784	48.8202	57.77057	126.93252	59.39791	-72.41663	-115.54114	0
326	-5.69569	-143.20592	-109.03178	82.18067	50.44754	-124.49151	40.6835	52.88855	131.00087	57.77057	-74.85764	-113.10013	0
327	-8.1367	-135.88289	-102.52242	78.11232	51.26121	-119.60949	35.80148	45.56552	135.88289	59.39791	-72.41663	-106.59077	0
328	-5.69569	-122.0505	-98.45407	69.16195	52.07488	-110.65912	36.61515	40.6835	140.76491	63.46626	-66.72094	-100.89508	0
329	-2.44101	-111.47279	-100.08141	60.21158	52.07488	-106.59077	36.61515	39.86983	136.69656	62.65259	-66.72094	-102.52242	0
330	4.88202	-105.7771	-102.52242	54.51589	55.32956	-100.89508	35.80148	43.93818	125.30518	54.51589	-69.97562	-110.65912	0
331	18.71441	-101.70875	-102.52242	51.26121	60.21158	-88.69003	36.61515	51.26121	113.10013	46.37919	-73.2303	-122.0505	0
332	24.4101	-89.5037	-100.89508	42.31084	61.02525	-74.85764	39.05616	55.32956	104.96343	41.49717	-77.29865	-127.74619	0
333	17.08707	-69.16195	-92.75838	27.66478	52.88855	-67.53461	42.31084	51.26121	98.45407	41.49717	-85.43535	-126.93252	0
334	4.88202	-54.51589	-79.73966	19.52808	39.86983	-60.21158	49.63387	40.6835	92.75838	43.93818	-89.5037	-119.60949	0
335	-6.50936	-48.00653	-63.46626	21.15542	24.4101	-49.63387	60.21158	30.91946	89.5037	49.63387	-87.87636	-107.40444	0
336	-15.45973	-45.56552	-47.19286	25.22377	11.39138	-38.24249	69.16195	26.03744	89.5037	53.70222	-84.62168	-100.08141	0
337	-20.34175	-45.56552	-37.42882	28.47845	3.25468	-32.5468	69.16195	26.85111	91.13104	53.70222	-82.18067	-100.08141	0
338	-22.78276	-48.00653	-36.61515	28.47845	4.06835	-34.98781	63.46626	34.17414	92.75838	52.07488	-80.55333	-103.33609	0
339	-21.15542	-49.63387	-43.93818	26.03744	13.01872	-42.31084	55.32956	43.93818	94.38572	52.07488	-79.73966	-106.59077	0
340	-13.83239	-50.44754	-54.51589	25.22377	25.22377	-50.44754	49.63387	53.70222	97.6404	56.9569	-82.99434	-112.28646	0
341	-4.06835	-52.88855	-64.27993	26.85111	34.17414	-59.39791	49.63387	61.83892	103.33609	65.0936	-85.43535	-116.35481	0
342	-0.81367	-54.51589	-65.90727	28.47845	34.98781	-65.90727	53.70222	66.72094	111.47279	71.60296	-82.99434	-114.72747	0
343	1.62734	-52.88855	-62.65259	26.85111	32.5468	-65.90727	59.39791	67.53461	121.23683	75.67131	-75.67131	-106.59077	0
344	10.57771	-42.31084	-56.9569	16.2734	34.17414	-58.58424	63.46626	64.27993	126.93252	79.73966	-63.46626	-95.19939	0
345	24.4101	-22.78276	-46.37919	0	34.98781	-46.37919	65.0936	61.02525	125.30518	85.43535	-52.07488	-83.80801	0
346	35.80148	-5.69569	-34.17414	-18.71441	35.80148	-34.98781	64.27993	61.02525	119.60949	89.5037	-47.19286	-78.92599	0
347	43.93818	4.88202	-29.29212	-31.73313	37.42882	-24.4101	62.65259	63.46626	111.47279	88.69003	-44.75185	-77.29865	0
348	48.8202	13.83239	-26.03744	-39.05616	38.24249	-13.83239	62.65259	65.90727	107.40444	87.87636	-40.6835	-73.2303	0
349	49.63387	25.22377	-19.52808	-43.12451	39.05616	-0.81367	61.83892	68.34828	110.65912	93.57205	-32.5468	-64.27993	0
350	48.8202	36.61515	-12.20505	-45.56552	43.93818	9.76404	57.77057	66.72094	118.79582	104.96343	-23.59643	-55.32956	0
351	52.88855	43.12451	-13.01872	-49.63387	50.44754	14.64606	48.8202	53.70222	125.30518	113.10013	-19.52808	-48.8202	0
352	62.65259	47.19286	-19.52808	-56.14323	54.51589	14.64606	31.73313	34.17414	122.86417	111.47279	-21.96909	-51.26121	0
353	69.16195	50.44754	-22.78276	-60.21158	53.70222	14.64606	9.76404	18.71441	113.9138	102.52242	-29.29212	-56.9569	0
354	69.16195	53.70222	-18.71441	-61.83892	47.19286	17.90074	-9.76404	7.32303	104.96343	94.38572	-34.98781	-61.02525	0
355	65.90727	58.58424	-6.50936	-61.83892	37.42882	25.22377	-24.4101	-1.62734	98.45407	89.5037	-38.24249	-56.14323	0
356	58.58424	63.46626	9.76404	-60.21158	23.59643	35.80148	-32.5468	-10.57771	94.38572	87.06269	-39.05616	-45.56552	0
357	48.8202	72.41663	30.10579	-60.21158	8.95037	51.26121	-36.61515	-16.2734	96.82673	88.69003	-36.61515	-35.80148	0
358	41.49717	86.24902	49.63387	-63.46626	-3.25468	68.34828	-37.42882	-17.08707	102.52242	95.19939	-28.47845	-30.10579	0
359	29.29212	95.19939	68.34828	-61.02525	-19.52808	82.18067	-35.80148	-7.32303	109.03178	101.70875	-17.08707	-25.22377	0
360	8.1367	99.26774	90.31737	-52.07488	-40.6835	94.38572	-32.5468	7.32303	112.28646	104.96343	-4.88202	-20.34175	0
361	-8.95037	98.45407	104.96343	-43.12451	-57.77057	101.70875	-26.85111	20.34175	109.03178	106.59077	4.06835	-17.90074	0
362	-14.64606	89.5037	100.08141	-37.42882	-58.58424	96.01306	-21.15542	20.34175	99.26774	104.14976	5.69569	-20.34175	0
363	-0.81367	75.67131	72.41663	-37.42882	-38.24249	80.55333	-17.90074	10.57771	85.43535	95.19939	-0.81367	-27.66478	0
364	24.4101	65.0936	39.05616	-45.56552	-7.32303	69.16195	-17.90074	-0.81367	72.41663	84.62168	-9.76404	-34.17414	0
365	46.37919	65.0936	17.90074	-56.14323	13.01872	59.39791	-16.2734	-13.01872	63.46626	79.73966	-13.83239	-34.17414	0
366	51.26121	74.04397	12.20505	-66.72094	13.83239	48.8202	-12.20505	-23.59643	55.32956	78.92599	-12.20505	-28.47845	0
367	39.86983	84.62168	13.83239	-75.67131	4.88202	37.42882	-12.20505	-30.10579	51.26121	77.29865	-10.57771	-24.4101	0
368	31.73313	86.24902	10.57771	-74.85764	3.25468	26.85111	-17.08707	-32.5468	55.32956	72.41663	-12.20505	-25.22377	0
369	43.12451	74.04397	-2.44101	-65.90727	17.90074	14.64606	-21.15542	-31.73313	63.46626	69.97562	-12.20505	-25.22377	0
370	60.21158	54.51589	-21.15542	-55.32956	37.42882	1.62734	-20.34175	-26.85111	75.67131	73.2303	-9.76404	-22.78276	0
371	60.21158	27.66478	-39.05616	-39.05616	54.51589	-10.57771	-17.08707	-18.71441	88.69003	76.48498	-8.1367	-19.52808	0
372	42.31084	0	-44.75185	-16.2734	61.02525	-19.52808	-12.20505	-10.57771	100.89508	78.11232	-6.50936	-16.2734	0
373	25.22377	-16.2734	-42.31084	-1.62734	57.77057	-23.59643	-5.69569	-2.44101	108.21811	79.73966	-2.44101	-13.01872	0
374	16.2734	-23.59643	-46.37919	1.62734	47.19286	-30.10579	-0.81367	4.88202	104.96343	77.29865	-1.62734	-14.64606	0
375	10.57771	-28.47845	-56.9569	0	34.17414	-39.86983	2.44101	12.20505	87.87636	67.53461	-6.50936	-25.22377	0
376	6.50936	-30.91946	-58.58424	-0.81367	22.78276	-43.93818	7.32303	13.01872	69.16195	55.32956	-12.20505	-39.86983	0
377	4.88202	-38.24249	-52.88855	-2.44101	17.90074	-42.31084	14.64606	8.95037	59.39791	46.37919	-18.71441	-52.88855	0
378	7.32303	-48.8202	-49.63387	-4.06835	19.52808	-40.6835	25.22377	2.44101	61.83892	44.75185	-27.66478	-61.02525	0
379	16.2734	-57.77057	-54.51589	-2.44101	27.66478	-45.56552	35.80148	-2.44101	70.78929	46.37919	-34.17414	-64.27993	0
380	21.15542	-67.53461	-67.53461	0	34.98781	-61.83892	41.49717	-8.95037	77.29865	48.00653	-39.86983	-69.16195	0
381	16.2734	-76.48498	-85.43535	2.44101	40.6835	-83.80801	41.49717	-11.39138	79.73966	48.00653	-43.12451	-73.2303	0
382	18.71441	-84.62168	-106.59077	4.06835	54.51589	-101.70875	38.24249	-10.57771	79.73966	46.37919	-44.75185	-71.60296	0
383	31.73313	-96.01306	-126.93252	6.50936	74.04397	-113.10013	34.17414	-5.69569	78.11232	41.49717	-47.19286	-66.72094	0
384	43.12451	-104.14976	-139.95124	11.39138	88.69003	-119.60949	30.10579	0	74.85764	34.98781	-52.07488	-64.27993	0
385	48.8202	-106.59077	-147.27427	16.2734	98.45407	-123.67784	24.4101	3.25468	68.34828	26.03744	-58.58424	-67.53461	0
386	47.19286	-110.65912	-152.15629	22.78276	103.33609	-124.49151	18.71441	0.81367	56.9569	15.45973	-66.72094	-72.41663	0
387	40.6835	-121.23683	-157.85198	34.98781	104.14976	-122.86417	15.45973	-5.69569	43.93818	5.69569	-78.92599	-74.85764	0
388	32.5468	-130.1872	-160.29299	46.37919	100.08141	-124.49151	16.2734	-13.83239	37.42882	2.44101	-88.69003	-77.29865	0
389	19.52808	-131.81454	-152.15629	56.9569	88.69003	-125.30518	22.78276	-19.52808	43.12451	8.1367	-87.06269	-79.73966	0
390	4.88202	-128.55986	-135.88289	64.27993	71.60296	-125.30518	34.98781	-20.34175	61.02525	22.78276	-73.2303	-77.29865	0
391	-7.32303	-122.0505	-117.98215	67.53461	55.32956	-126.11885	47.19286	-13.83239	83.80801	39.86983	-55.32956	-70.78929	0
392	-17.90074	-120.42316	-106.59077	67.53461	43.12451	-126.93252	51.26121	-3.25468	96.82673	48.00653	-46.37919	-69.16195	0
393	-28.47845	-126.93252	-102.52242	69.16195	35.80148	-127.74619	42.31084	3.25468	94.38572	43.93818	-49.63387	-75.67131	0
394	-33.36047	-133.44188	-102.52242	71.60296	33.36047	-127.74619	25.22377	4.06835	79.73966	32.5468	-59.39791	-86.24902	0
395	-32.5468	-132.62821	-104.14976	73.2303	33.36047	-124.49151	8.1367	0	62.65259	19.52808	-71.60296	-93.57205	0
396	-28.47845	-129.37353	-109.84545	74.04397	35.80148	-122.0505	-0.81367	-9.76404	48.8202	8.1367	-88.69003	-96.01306	0
397	-24.4101	-128.55986	-116.35481	74.04397	39.86983	-122.86417	0	-18.71441	39.86983	1.62734	-102.52242	-100.08141	0
398	-20.34175	-130.1872	-119.60949	74.04397	44.75185	-122.86417	13.83239	-21.15542	36.61515	4.06835	-104.96343	-100.08141	0
399	-17.08707	-131.00087	-116.35481	73.2303	46.37919	-120.42316	31.73313	-16.2734	38.24249	13.83239	-97.6404	-97.6404	0
400	-14.64606	-133.44188	-111.47279	70.78929	48.00653	-115.54114	46.37919	-9.76404	43.93818	23.59643	-87.87636	-96.82673	0
401	-17.08707	-137.51023	-109.03178	69.16195	52.07488	-113.9138	54.51589	-2.44101	52.88855	29.29212	-78.11232	-97.6404	0
402	-21.96909	-144.01959	-113.10013	67.53461	53.70222	-121.23683	56.9569	1.62734	61.83892	30.10579	-70.78929	-98.45407	0
403	-21.15542	-152.15629	-126.11885	65.90727	59.39791	-134.25555	52.88855	1.62734	68.34828	26.85111	-67.53461	-98.45407	0
404	-7.32303	-157.85198	-148.90161	64.27993	74.85764	-151.34262	39.05616	-4.88202	65.90727	19.52808	-67.53461	-95.19939	0
405	11.39138	-162.734	-170.8707	63.46626	92.75838	-166.80235	20.34175	-20.34175	51.26121	6.50936	-69.97562	-93.57205	0
406	26.85111	-165.98868	-179.82107	62.65259	102.52242	-171.68437	1.62734	-39.05616	26.03744	-5.69569	-74.85764	-95.19939	0
407	36.61515	-162.734	-177.38006	57.77057	104.96343	-165.17501	-12.20505	-63.46626	-9.76404	-18.71441	-82.99434	-96.82673	0
408	35.80148	-156.22464	-168.42969	50.44754	100.08141	-156.22464	-23.59643	-104.14976	-63.46626	-37.42882	-98.45407	-96.01306	0
409	17.08707	-152.15629	-152.15629	48.00653	82.99434	-146.4606	-31.73313	-166.80235	-141.57858	-66.72094	-117.98215	-95.19939	0
410	-10.57771	-140.76491	-120.42316	52.88855	52.88855	-126.93252	-40.6835	-247.35568	-241.65999	-101.70875	-128.55986	-83.80801	0
411	-31.73313	-104.96343	-70.78929	50.44754	21.96909	-85.43535	-52.88855	-336.04571	-357.20113	-135.06922	-117.98215	-54.51589	0
412	-37.42882	-45.56552	-11.39138	30.10579	-3.25468	-26.85111	-72.41663	-427.17675	-486.57466	-168.42969	-90.31737	-8.95037	0
413	-26.85111	22.78276	45.56552	-4.06835	-22.78276	34.98781	-100.08141	-520.7488	-623.27122	-202.60383	-54.51589	43.93818	0
414	-7.32303	92.75838	96.82673	-44.75185	-40.6835	94.38572	-133.44188	-620.83021	-759.96778	-236.77797	-17.90074	97.6404	0
415	9.76404	162.734	151.34262	-86.24902	-62.65259	156.22464	-168.42969	-724.97997	-888.52764	-265.25642	17.90074	148.08794	0
416	30.10579	244.101	218.06356	-136.69656	-89.5037	231.08228	-197.72181	-832.38441	-1005.69612	-279.90248	62.65259	204.23117	0
417	52.07488	346.62342	301.0579	-199.34915	-122.0505	323.84066	-228.64127	-950.36656	-1121.23726	-281.52982	125.30518	274.20679	0
418	68.34828	466.23291	403.58032	-266.07009	-166.80235	436.12712	-271.76578	-1096.82716	-1250.61079	-277.46147	200.16282	353.13278	0
419	75.67131	597.23378	525.63082	-334.41837	-224.57292	562.24597	-334.41837	-1278.27557	-1399.5124	-271.76578	278.27514	433.68611	0
420	78.11232	733.11667	655.81802	-402.76665	-289.66652	695.68785	-419.04005	-1480.06573	-1556.55071	-261.18807	348.25076	509.35742	0
421	82.99434	862.4902	776.24118	-470.30126	-347.43709	820.17936	-526.44449	-1658.25946	-1699.75663	-239.21898	404.39399	578.51937	0
422	96.82673	960.1306	858.42185	-528.07183	-381.61123	910.49673	-633.84893	-1772.98693	-1805.53373	-206.67218	450.77318	630.59425	0
423	109.03178	986.16804	871.44057	-547.59991	-382.4249	929.21114	-707.8929	-1827.50282	-1849.47191	-180.63474	468.67392	647.68132	0
424	112.28646	909.68306	793.32825	-510.98476	-340.92773	851.91249	-731.48933	-1818.55245	-1809.60208	-161.92033	435.31345	617.57553	0
425	110.65912	732.303	620.83021	-421.48106	-255.49238	676.15977	-711.14758	-1739.62646	-1689.17892	-156.22464	342.55507	539.46321	0
426	100.89508	478.43796	381.61123	-290.48019	-139.95124	429.61776	-673.71876	-1605.37091	-1527.25859	-184.70309	188.77144	417.41271	0
427	72.41663	192.02612	126.11885	-132.62821	-26.03744	159.47932	-644.42664	-1441.82324	-1377.54331	-275.83413	-9.76404	267.69743	0
428	30.10579	-75.67131	-99.26774	22.78276	65.0936	-87.06269	-628.96691	-1285.5986	-1285.5986	-440.19547	-225.38659	115.54114	0
429	-9.76404	-289.66652	-275.83413	151.34262	132.62821	-281.52982	-627.33957	-1150.52938	-1251.42446	-650.12233	-414.15803	-14.64606	0
430	-34.17414	-438.56813	-402.76665	239.21898	179.82107	-419.85372	-633.84893	-1029.29255	-1244.10143	-848.65781	-541.90422	-110.65912	0
431	-43.12451	-529.69917	-490.64301	290.48019	210.74053	-510.17109	-630.59425	-906.42838	-1222.94601	-985.35437	-606.18415	-167.61602	0
432	-44.75185	-572.01001	-542.71789	313.26295	229.45494	-558.17762	-603.74314	-768.91815	-1157.03874	-1034.17457	-614.32085	-188.77144	0
433	-46.37919	-579.33304	-558.99129	318.14497	235.15063	-568.75533	-548.41358	-611.06617	-1034.98824	-995.93208	-579.33304	-184.70309	0
434	-49.63387	-567.12799	-545.1589	312.44928	228.64127	-554.92294	-468.67392	-444.26382	-873.88158	-898.29168	-520.7488	-169.24336	0
435	-57.77057	-550.04092	-511.79843	306.75359	213.99521	-529.69917	-377.54288	-292.9212	-705.45189	-774.61384	-462.16456	-153.78363	0
436	-60.21158	-537.83587	-475.18328	304.31258	196.90814	-504.4754	-289.66652	-174.93905	-553.2956	-652.56334	-415.78537	-148.90161	0
437	-47.19286	-522.37614	-445.07749	298.61689	182.26208	-481.69264	-214.80888	-95.19939	-427.99042	-542.71789	-381.61123	-154.5973	0
438	-34.17414	-487.38833	-417.41271	276.6478	176.56639	-450.77318	-158.66565	-44.75185	-324.65433	-445.07749	-351.50544	-159.47932	0
439	-31.73313	-439.3818	-393.00261	241.65999	176.56639	-414.15803	-121.23683	-15.45973	-237.59164	-358.0148	-317.3313	-157.85198	0
440	-26.85111	-398.6983	-371.84719	214.80888	174.12538	-384.05224	-99.26774	-1.62734	-165.98868	-284.7845	-274.20679	-148.08794	0
441	-17.08707	-371.03352	-348.25076	200.16282	166.80235	-358.82847	-83.80801	3.25468	-105.7771	-222.13191	-226.20026	-134.25555	0
442	-10.57771	-344.99608	-323.02699	186.33043	161.92033	-333.6047	-68.34828	6.50936	-57.77057	-169.24336	-183.07575	-118.79582	0
443	-3.25468	-318.14497	-301.0579	167.61602	158.66565	-310.00827	-50.44754	13.01872	-21.96909	-127.74619	-151.34262	-108.21811	0
444	2.44101	-290.48019	-275.02046	148.90161	152.15629	-288.03918	-26.85111	30.91946	6.50936	-95.19939	-132.62821	-99.26774	0
445	8.95037	-259.56073	-245.72834	133.44188	138.3239	-259.56073	2.44101	63.46626	38.24249	-63.46626	-120.42316	-84.62168	0
446	16.2734	-222.13191	-214.80888	122.0505	122.0505	-224.57292	32.5468	101.70875	74.85764	-30.10579	-106.59077	-71.60296	0
447	13.83239	-186.33043	-181.44841	111.47279	100.89508	-187.1441	52.07488	131.00087	111.47279	0	-93.57205	-66.72094	0
448	0	-164.36134	-152.15629	98.45407	77.29865	-159.47932	62.65259	146.4606	139.95124	18.71441	-89.5037	-71.60296	0
449	-12.20505	-152.96996	-134.25555	88.69003	60.21158	-143.20592	73.2303	155.41097	161.10666	31.73313	-90.31737	-81.367	0
450	-15.45973	-140.76491	-123.67784	78.92599	55.32956	-131.00087	82.99434	165.98868	179.82107	48.00653	-86.24902	-84.62168	0
451	-12.20505	-126.11885	-117.98215	67.53461	59.39791	-119.60949	96.01306	177.38006	193.65346	69.16195	-73.2303	-74.85764	0
452	-5.69569	-114.72747	-117.98215	58.58424	65.0936	-113.10013	110.65912	187.1441	204.23117	85.43535	-52.88855	-59.39791	0
453	0	-107.40444	-120.42316	52.07488	67.53461	-110.65912	122.86417	188.77144	208.29952	94.38572	-30.91946	-44.75185	0
454	7.32303	-100.08141	-122.86417	49.63387	69.97562	-110.65912	127.74619	180.63474	206.67218	95.19939	-16.2734	-34.98781	0
455	19.52808	-91.94471	-131.00087	48.8202	74.85764	-113.10013	125.30518	165.98868	198.53548	89.5037	-17.08707	-32.5468	0
456	26.03744	-87.87636	-145.64693	48.8202	76.48498	-118.79582	118.79582	147.27427	191.21245	80.55333	-31.73313	-35.80148	0
457	26.03744	-89.5037	-154.5973	49.63387	77.29865	-124.49151	111.47279	134.25555	191.21245	76.48498	-49.63387	-42.31084	0
458	18.71441	-94.38572	-149.71528	55.32956	72.41663	-126.93252	105.7771	135.06922	199.34915	78.92599	-61.83892	-50.44754	0
459	6.50936	-100.89508	-133.44188	64.27993	60.21158	-123.67784	102.52242	152.15629	210.74053	87.87636	-63.46626	-58.58424	0
460	-0.81367	-108.21811	-117.16848	70.78929	48.8202	-117.16848	101.70875	174.93905	225.38659	98.45407	-54.51589	-62.65259	0
461	-5.69569	-115.54114	-109.03178	74.04397	41.49717	-114.72747	104.14976	195.2808	240.84632	110.65912	-34.17414	-56.14323	0
462	-11.39138	-118.79582	-103.33609	73.2303	38.24249	-111.47279	109.03178	209.11319	253.86504	122.86417	-5.69569	-39.86983	0
463	-16.2734	-114.72747	-95.19939	69.16195	34.98781	-104.14976	115.54114	216.43622	260.3744	129.37353	18.71441	-20.34175	0
464	-21.96909	-106.59077	-82.18067	65.0936	29.29212	-92.75838	119.60949	216.43622	262.81541	124.49151	26.03744	-10.57771	0
465	-28.47845	-93.57205	-68.34828	56.9569	20.34175	-80.55333	119.60949	208.29952	259.56073	111.47279	15.45973	-12.20505	0
466	-33.36047	-77.29865	-59.39791	43.93818	11.39138	-67.53461	115.54114	195.2808	252.2377	98.45407	-7.32303	-21.96909	0
467	-32.5468	-63.46626	-54.51589	32.5468	6.50936	-62.65259	107.40444	183.07575	243.28733	90.31737	-34.17414	-35.80148	0
468	-21.15542	-54.51589	-56.9569	26.03744	6.50936	-68.34828	100.89508	177.38006	239.21898	90.31737	-51.26121	-46.37919	0
469	-11.39138	-51.26121	-64.27993	23.59643	13.83239	-74.04397	103.33609	183.07575	243.28733	100.89508	-51.26121	-48.8202	0
470	-7.32303	-55.32956	-69.16195	21.15542	25.22377	-77.29865	117.98215	199.34915	253.86504	118.79582	-29.29212	-39.05616	0
471	-4.88202	-64.27993	-68.34828	19.52808	35.80148	-79.73966	136.69656	219.6909	269.32477	134.25555	5.69569	-21.96909	0
472	-3.25468	-74.85764	-65.0936	24.4101	41.49717	-81.367	149.71528	235.9643	281.52982	144.83326	37.42882	-6.50936	0
473	-4.06835	-86.24902	-65.90727	34.98781	41.49717	-82.99434	150.52895	240.84632	280.71615	148.90161	52.88855	0	0
474	-5.69569	-94.38572	-69.16195	42.31084	36.61515	-85.43535	144.01959	233.52329	270.13844	142.39225	48.8202	0	0
475	-8.95037	-91.94471	-65.0936	43.12451	30.10579	-81.367	135.06922	218.06356	253.86504	128.55986	26.85111	-0.81367	0
476	-8.95037	-82.18067	-56.9569	39.86983	24.4101	-70.78929	123.67784	198.53548	239.21898	112.28646	-7.32303	-4.88202	0
477	-4.06835	-68.34828	-50.44754	33.36047	22.78276	-60.21158	113.9138	183.07575	231.89595	101.70875	-39.05616	-13.01872	0
478	3.25468	-52.88855	-48.00653	23.59643	25.22377	-49.63387	110.65912	183.07575	240.84632	104.96343	-52.07488	-17.90074	0
479	17.90074	-34.17414	-48.00653	9.76404	32.5468	-44.75185	114.72747	199.34915	259.56073	118.79582	-46.37919	-13.83239	0
480	35.80148	-17.90074	-53.70222	-4.88202	43.93818	-48.8202	118.79582	221.31824	274.20679	133.44188	-30.91946	-4.88202	0
481	39.86983	-21.15542	-64.27993	-5.69569	56.9569	-60.21158	120.42316	240.03265	279.08881	139.95124	-7.32303	0.81367	0
482	21.96909	-42.31084	-74.04397	12.20505	64.27993	-70.78929	124.49151	253.86504	282.34349	137.51023	19.52808	7.32303	0
483	-1.62734	-61.02525	-77.29865	31.73313	63.46626	-72.41663	131.81454	264.44275	286.41184	133.44188	43.12451	19.52808	0
484	-13.01872	-65.0936	-73.2303	39.05616	54.51589	-63.46626	139.13757	268.5111	288.85285	129.37353	58.58424	34.98781	0
485	-11.39138	-61.02525	-63.46626	35.80148	43.93818	-48.8202	144.01959	263.62908	286.41184	126.11885	56.9569	39.86983	0
486	-2.44101	-44.75185	-56.14323	25.22377	34.98781	-35.80148	142.39225	250.61036	275.83413	120.42316	39.86983	31.73313	0
487	8.1367	-20.34175	-55.32956	13.01872	30.10579	-26.03744	135.88289	240.03265	264.44275	112.28646	12.20505	19.52808	0
488	18.71441	-3.25468	-55.32956	3.25468	30.10579	-21.15542	124.49151	236.77797	255.49238	106.59077	-15.45973	5.69569	0
489	21.15542	-1.62734	-51.26121	1.62734	28.47845	-21.96909	112.28646	242.47366	253.86504	105.7771	-29.29212	-4.88202	0
490	8.1367	-11.39138	-45.56552	11.39138	17.08707	-22.78276	105.7771	254.67871	262.00174	112.28646	-23.59643	-9.76404	0
491	-12.20505	-21.15542	-41.49717	25.22377	0.81367	-20.34175	108.21811	271.76578	279.90248	124.49151	-0.81367	-4.06835	0
492	-29.29212	-31.73313	-37.42882	39.86983	-10.57771	-20.34175	116.35481	288.85285	299.43056	139.13757	32.5468	16.2734	0
493	-39.05616	-46.37919	-34.98781	51.26121	-14.64606	-29.29212	125.30518	301.87157	315.70396	150.52895	61.02525	40.6835	0
494	-35.80148	-52.07488	-33.36047	49.63387	-13.83239	-35.80148	130.1872	308.38093	322.21332	152.96996	69.97562	57.77057	0
495	-18.71441	-37.42882	-31.73313	33.36047	-10.57771	-30.91946	129.37353	309.1946	316.51763	147.27427	56.9569	62.65259	0
496	-8.95037	-12.20505	-24.4101	17.08707	-4.88202	-16.2734	123.67784	309.1946	303.49891	135.06922	27.66478	55.32956	0
497	-10.57771	5.69569	-5.69569	4.06835	-4.88202	0	118.79582	308.38093	287.22551	122.0505	-6.50936	39.05616	0
498	-16.2734	17.90074	19.52808	-9.76404	-17.08707	18.71441	118.79582	306.75359	273.39312	111.47279	-32.5468	25.22377	0
499	-17.90074	32.5468	44.75185	-21.96909	-30.10579	39.05616	127.74619	306.75359	265.25642	107.40444	-32.5468	21.15542	0
500	-17.08707	51.26121	61.02525	-31.73313	-34.98781	56.9569	144.01959	312.44928	266.88376	107.40444	-5.69569	29.29212	0
501	-9.76404	63.46626	65.90727	-39.86983	-33.36047	65.90727	155.41097	321.39965	279.90248	113.10013	34.98781	43.12451	0
502	0.81367	65.90727	64.27993	-46.37919	-31.73313	65.90727	154.5973	328.72268	296.98955	122.0505	74.04397	58.58424	0
503	10.57771	65.90727	61.83892	-50.44754	-29.29212	65.90727	143.20592	340.92773	312.44928	133.44188	102.52242	74.85764	0
504	13.83239	64.27993	62.65259	-49.63387	-28.47845	69.97562	125.30518	356.38746	321.39965	144.01959	113.10013	87.06269	0
505	8.95037	60.21158	65.90727	-43.12451	-30.91946	78.92599	103.33609	363.71049	323.84066	150.52895	96.82673	92.75838	0
506	9.76404	63.46626	69.97562	-42.31084	-30.91946	89.5037	86.24902	365.33783	323.02699	150.52895	61.02525	91.94471	0
507	19.52808	82.18067	71.60296	-57.77057	-20.34175	97.6404	82.99434	364.52416	319.77231	145.64693	24.4101	85.43535	0
508	29.29212	107.40444	65.90727	-83.80801	-2.44101	100.89508	91.13104	365.33783	317.3313	139.13757	0.81367	74.85764	0
509	37.42882	124.49151	61.83892	-101.70875	7.32303	101.70875	105.7771	367.77884	320.58598	136.69656	-4.06835	65.0936	0
510	43.12451	131.00087	68.34828	-108.21811	3.25468	106.59077	121.23683	375.10187	332.79103	138.3239	13.83239	58.58424	0
511	42.31084	129.37353	84.62168	-105.7771	-8.1367	116.35481	135.88289	386.49325	348.25076	144.01959	56.9569	62.65259	0
512	32.5468	131.00087	101.70875	-96.82673	-22.78276	125.30518	141.57858	398.6983	355.57379	152.96996	104.96343	81.367	0
513	18.71441	136.69656	113.9138	-82.99434	-37.42882	127.74619	138.3239	406.835	351.50544	155.41097	133.44188	103.33609	0
514	13.01872	142.39225	123.67784	-75.67131	-46.37919	127.74619	131.00087	406.835	340.92773	149.71528	135.06922	114.72747	0
515	18.71441	161.10666	131.81454	-81.367	-48.8202	136.69656	120.42316	403.58032	324.65433	144.01959	120.42316	117.98215	0
516	29.29212	196.90814	138.3239	-96.01306	-51.26121	157.03831	111.47279	402.76665	306.75359	139.13757	90.31737	117.98215	0
517	40.6835	229.45494	148.90161	-114.72747	-55.32956	181.44841	106.59077	402.76665	287.22551	132.62821	52.88855	114.72747	0
518	42.31084	241.65999	165.98868	-131.00087	-65.0936	199.34915	100.89508	401.13931	270.13844	123.67784	21.15542	109.03178	0
519	32.5468	244.101	190.39878	-144.83326	-82.18067	215.62255	96.82673	403.58032	262.81541	117.16848	13.01872	106.59077	0
520	21.15542	257.93339	222.13191	-157.85198	-100.89508	240.84632	98.45407	412.53069	267.69743	113.9138	33.36047	117.98215	0
521	12.20505	280.71615	253.05137	-167.61602	-117.16848	268.5111	106.59077	421.48106	275.83413	117.98215	74.85764	142.39225	0
522	7.32303	301.87157	278.27514	-172.49804	-130.1872	291.29386	114.72747	419.04005	275.83413	126.11885	124.49151	171.68437	0
523	0.81367	312.44928	298.61689	-169.24336	-144.01959	306.75359	115.54114	404.39399	264.44275	131.00087	164.36134	196.90814	0
524	-4.88202	317.3313	310.82194	-160.29299	-154.5973	312.44928	107.40444	382.4249	240.03265	124.49151	174.12538	209.11319	0
525	-6.50936	317.3313	315.70396	-151.34262	-156.22464	307.56726	90.31737	358.82847	209.11319	105.7771	147.27427	200.97649	0
526	-2.44101	314.07662	320.58598	-149.71528	-148.90161	299.43056	69.97562	334.41837	179.0074	82.99434	94.38572	176.56639	0
527	2.44101	319.77231	324.65433	-160.29299	-140.76491	302.68524	55.32956	315.70396	152.96996	60.21158	39.05616	148.08794	0
528	7.32303	338.48672	331.16369	-177.38006	-139.95124	319.77231	48.8202	307.56726	135.06922	44.75185	5.69569	128.55986	0
529	13.83239	362.89682	338.48672	-192.83979	-147.27427	341.7414	50.44754	309.1946	128.55986	39.86983	0	123.67784	0
530	21.15542	379.98389	339.30039	-201.79016	-156.22464	353.94645	55.32956	318.95864	127.74619	43.12451	19.52808	131.81454	0
531	30.91946	384.86591	334.41837	-205.04484	-162.734	355.57379	57.77057	331.16369	121.23683	48.8202	61.02525	148.90161	0
532	42.31084	384.05224	326.28167	-209.11319	-167.61602	353.13278	56.14323	332.79103	103.33609	51.26121	113.10013	174.93905	0
533	44.75185	379.17022	323.84066	-208.29952	-168.42969	350.69177	47.19286	317.3313	76.48498	48.00653	154.5973	204.23117	0
534	29.29212	372.66086	331.97736	-200.97649	-165.98868	352.31911	26.03744	283.15716	39.86983	31.73313	164.36134	220.50457	0
535	8.95037	368.59251	345.80975	-196.09447	-165.17501	355.57379	0	238.40531	0	2.44101	137.51023	217.24989	0
536	1.62734	365.33783	360.45581	-195.2808	-165.17501	356.38746	-24.4101	195.2808	-34.98781	-31.73313	87.06269	196.90814	0
537	10.57771	372.66086	371.03352	-196.90814	-161.92033	362.89682	-37.42882	160.29299	-61.02525	-64.27993	27.66478	168.42969	0
538	27.66478	391.37527	375.10187	-198.53548	-158.66565	375.91554	-39.05616	137.51023	-79.73966	-87.06269	-20.34175	142.39225	0
539	37.42882	408.46234	377.54288	-200.16282	-161.10666	388.12059	-34.17414	126.11885	-95.19939	-98.45407	-38.24249	126.11885	0
540	30.91946	417.41271	383.23857	-199.34915	-171.68437	395.44362	-26.85111	122.86417	-103.33609	-97.6404	-20.34175	129.37353	0
541	15.45973	418.22638	395.44362	-196.90814	-187.95777	402.76665	-20.34175	120.42316	-102.52242	-87.06269	24.4101	155.41097	0
542	2.44101	415.78537	405.20766	-197.72181	-201.79016	409.27601	-17.08707	113.10013	-98.45407	-73.2303	82.99434	192.83979	0
543	-2.44101	411.71702	407.64867	-200.16282	-206.67218	410.08968	-17.90074	100.89508	-99.26774	-63.46626	131.81454	228.64127	0
544	-3.25468	404.39399	403.58032	-199.34915	-205.04484	405.20766	-25.22377	86.24902	-109.84545	-67.53461	146.4606	246.54201	0
545	-3.25468	393.81628	401.13931	-196.09447	-203.4175	399.51197	-35.80148	66.72094	-132.62821	-87.06269	121.23683	240.84632	0
546	-4.06835	379.17022	400.32564	-189.58511	-205.04484	396.25729	-42.31084	43.12451	-162.734	-116.35481	69.16195	214.80888	0
547	-11.39138	364.52416	399.51197	-178.19373	-209.11319	393.81628	-43.93818	17.08707	-194.46713	-144.83326	6.50936	180.63474	0
548	-24.4101	353.13278	398.6983	-165.17501	-211.5542	388.93426	-43.93818	-8.1367	-222.13191	-163.54767	-43.93818	151.34262	0
549	-37.42882	346.62342	396.25729	-153.78363	-208.29952	382.4249	-42.31084	-32.5468	-244.101	-171.68437	-65.0936	135.06922	0
550	-39.86983	347.43709	389.74793	-152.96996	-203.4175	375.91554	-38.24249	-52.88855	-258.74706	-170.8707	-49.63387	135.06922	0
551	-30.91946	351.50544	376.72921	-159.47932	-200.16282	367.77884	-34.17414	-69.97562	-266.07009	-161.10666	-3.25468	151.34262	0
552	-19.52808	336.04571	358.0148	-151.34262	-198.53548	348.25076	-35.80148	-85.43535	-267.69743	-151.34262	48.00653	171.68437	0
553	-13.01872	296.17588	336.04571	-127.74619	-198.53548	315.70396	-43.93818	-98.45407	-265.25642	-148.08794	80.55333	186.33043	0
554	-12.20505	259.56073	313.26295	-113.9138	-192.02612	285.59817	-52.88855	-105.7771	-262.00174	-150.52895	85.43535	190.39878	0
555	-8.1367	244.91467	291.29386	-112.28646	-172.49804	267.69743	-60.21158	-109.84545	-260.3744	-156.22464	60.21158	179.82107	0
556	2.44101	244.91467	270.13844	-112.28646	-147.27427	257.93339	-61.83892	-111.47279	-253.86504	-163.54767	7.32303	156.22464	0
557	10.57771	242.47366	249.79669	-110.65912	-126.11885	246.54201	-58.58424	-109.84545	-240.03265	-165.98868	-55.32956	124.49151	0
558	7.32303	226.20026	227.8276	-102.52242	-110.65912	227.8276	-54.51589	-107.40444	-224.57292	-163.54767	-106.59077	91.94471	0
559	-4.06835	196.09447	203.4175	-84.62168	-100.08141	200.97649	-50.44754	-104.96343	-209.92686	-156.22464	-129.37353	62.65259	0
560	-17.90074	161.92033	179.0074	-63.46626	-94.38572	171.68437	-40.6835	-98.45407	-196.09447	-142.39225	-116.35481	46.37919	0
561	-20.34175	142.39225	158.66565	-48.00653	-87.87636	151.34262	-31.73313	-89.5037	-181.44841	-122.86417	-65.90727	54.51589	0
562	-13.83239	136.69656	144.83326	-36.61515	-81.367	140.76491	-23.59643	-82.18067	-169.24336	-104.14976	2.44101	83.80801	0
563	-10.57771	125.30518	133.44188	-26.03744	-76.48498	129.37353	-17.90074	-77.29865	-159.47932	-84.62168	56.14323	114.72747	0
564	-9.76404	100.89508	117.98215	-17.90074	-71.60296	109.03178	-14.64606	-72.41663	-153.78363	-66.72094	73.2303	132.62821	0
565	-14.64606	72.41663	97.6404	-14.64606	-66.72094	85.43535	-12.20505	-65.90727	-146.4606	-57.77057	52.88855	131.81454	0
566	-23.59643	50.44754	78.11232	-13.83239	-62.65259	65.0936	-7.32303	-59.39791	-131.81454	-56.9569	4.06835	113.10013	0
567	-29.29212	36.61515	64.27993	-6.50936	-56.9569	50.44754	-2.44101	-58.58424	-114.72747	-61.02525	-56.14323	78.92599	0
568	-33.36047	25.22377	59.39791	1.62734	-55.32956	43.12451	-2.44101	-62.65259	-102.52242	-64.27993	-108.21811	40.6835	0
569	-32.5468	15.45973	61.02525	5.69569	-56.9569	40.6835	-3.25468	-62.65259	-95.19939	-57.77057	-127.74619	11.39138	0
570	-28.47845	8.95037	61.02525	4.88202	-54.51589	40.6835	-0.81367	-50.44754	-88.69003	-43.12451	-102.52242	4.06835	0
571	-21.96909	7.32303	52.88855	2.44101	-43.93818	36.61515	2.44101	-29.29212	-79.73966	-22.78276	-40.6835	18.71441	0
572	-11.39138	8.95037	34.98781	-2.44101	-27.66478	27.66478	6.50936	-11.39138	-69.97562	-2.44101	27.66478	45.56552	0
573	-0.81367	13.01872	20.34175	-8.95037	-13.01872	20.34175	8.95037	-7.32303	-61.83892	11.39138	78.11232	72.41663	0
574	-1.62734	6.50936	10.57771	-4.06835	-6.50936	10.57771	8.95037	-19.52808	-55.32956	16.2734	90.31737	86.24902	0
575	-11.39138	-11.39138	-0.81367	11.39138	-4.88202	-5.69569	8.95037	-41.49717	-47.19286	11.39138	59.39791	80.55333	0
576	-17.90074	-25.22377	-13.01872	23.59643	-1.62734	-22.78276	9.76404	-63.46626	-33.36047	0	-4.88202	53.70222	0
577	-19.52808	-30.10579	-20.34175	27.66478	-0.81367	-34.98781	8.95037	-71.60296	-17.90074	-13.01872	-79.73966	15.45973	0
578	-17.08707	-33.36047	-26.03744	28.47845	0.81367	-41.49717	8.1367	-63.46626	-1.62734	-22.78276	-138.3239	-20.34175	0
579	-20.34175	-39.05616	-31.73313	30.91946	2.44101	-45.56552	6.50936	-48.00653	11.39138	-22.78276	-161.92033	-47.19286	0
580	-30.91946	-48.00653	-34.98781	35.80148	-0.81367	-50.44754	6.50936	-30.91946	25.22377	-10.57771	-138.3239	-51.26121	-1250	T-0
581	-36.61515	-56.9569	-35.80148	42.31084	-4.88202	-55.32956	6.50936	-13.83239	39.86983	10.57771	-70.78929	-24.4101	0
582	-33.36047	-62.65259	-34.17414	43.93818	-5.69569	-52.88855	8.1367	0	53.70222	34.17414	17.08707	23.59643	0
583	-27.66478	-61.83892	-28.47845	35.80148	-3.25468	-42.31084	8.95037	11.39138	62.65259	52.88855	88.69003	72.41663	0
584	-21.96909	-55.32956	-23.59643	25.22377	0	-31.73313	6.50936	16.2734	65.90727	63.46626	115.54114	102.52242	0
585	-16.2734	-51.26121	-26.03744	16.2734	7.32303	-30.91946	4.06835	11.39138	63.46626	62.65259	91.13104	104.14976	0
586	-10.57771	-55.32956	-36.61515	10.57771	15.45973	-39.86983	2.44101	-3.25468	58.58424	51.26121	25.22377	82.18067	0
587	-2.44101	-60.21158	-50.44754	8.95037	26.85111	-52.07488	0	-21.15542	57.77057	34.98781	-53.70222	47.19286	0
588	8.1367	-65.0936	-66.72094	12.20505	39.05616	-64.27993	0	-30.10579	63.46626	26.03744	-114.72747	11.39138	0
589	18.71441	-78.11232	-82.18067	17.08707	51.26121	-74.85764	5.69569	-23.59643	73.2303	30.91946	-131.81454	-13.01872	0
590	26.85111	-96.01306	-91.13104	22.78276	58.58424	-87.87636	15.45973	-4.06835	89.5037	43.12451	-112.28646	-21.96909	0
591	27.66478	-111.47279	-91.94471	32.5468	57.77057	-104.14976	24.4101	12.20505	101.70875	52.88855	-90.31737	-24.4101	0
592	17.08707	-117.16848	-94.38572	43.12451	53.70222	-117.16848	27.66478	21.96909	106.59077	51.26121	-77.29865	-33.36047	0
593	3.25468	-110.65912	-100.89508	49.63387	47.19286	-122.86417	23.59643	26.03744	106.59077	40.6835	-57.77057	-47.19286	0
594	-7.32303	-105.7771	-102.52242	55.32956	39.05616	-122.0505	15.45973	22.78276	102.52242	31.73313	-42.31084	-56.14323	0
595	-16.2734	-107.40444	-98.45407	64.27993	31.73313	-114.72747	5.69569	18.71441	99.26774	32.5468	-25.22377	-48.8202	0
596	-22.78276	-110.65912	-90.31737	70.78929	26.03744	-104.14976	-0.81367	20.34175	103.33609	44.75185	14.64606	-19.52808	0
597	-27.66478	-114.72747	-80.55333	71.60296	21.96909	-93.57205	0	26.03744	113.10013	61.02525	69.16195	25.22377	0
598	-31.73313	-118.79582	-70.78929	71.60296	16.2734	-86.24902	5.69569	29.29212	120.42316	70.78929	112.28646	69.97562	0
599	-29.29212	-123.67784	-62.65259	68.34828	9.76404	-82.18067	15.45973	31.73313	127.74619	75.67131	118.79582	93.57205	0
600	-21.96909	-126.11885	-59.39791	60.21158	9.76404	-78.92599	23.59643	33.36047	132.62821	73.2303	80.55333	89.5037	0
601	-16.2734	-124.49151	-59.39791	58.58424	16.2734	-77.29865	24.4101	26.85111	126.93252	56.9569	7.32303	58.58424	0
602	-14.64606	-119.60949	-57.77057	65.90727	21.96909	-78.11232	18.71441	12.20505	110.65912	30.91946	-75.67131	11.39138	0
603	-17.08707	-113.10013	-56.14323	70.78929	24.4101	-78.11232	15.45973	2.44101	96.82673	10.57771	-137.51023	-30.91946	0
604	-22.78276	-104.96343	-61.02525	69.16195	27.66478	-80.55333	21.15542	7.32303	99.26774	9.76404	-148.08794	-49.63387	0
605	-30.10579	-97.6404	-68.34828	62.65259	30.91946	-82.18067	32.5468	26.85111	117.16848	28.47845	-106.59077	-39.86983	0
606	-38.24249	-97.6404	-69.97562	61.02525	28.47845	-82.99434	43.12451	49.63387	135.06922	50.44754	-36.61515	-12.20505	0
607	-39.86983	-98.45407	-69.97562	61.83892	25.22377	-84.62168	48.00653	69.16195	145.64693	66.72094	32.5468	13.01872	0
608	-23.59643	-88.69003	-73.2303	51.26121	30.10579	-84.62168	48.00653	83.80801	151.34262	77.29865	82.99434	31.73313	0
609	4.06835	-70.78929	-80.55333	31.73313	44.75185	-87.87636	41.49717	88.69003	152.96996	80.55333	92.75838	43.93818	0
610	29.29212	-61.83892	-94.38572	17.90074	62.65259	-93.57205	27.66478	76.48498	146.4606	69.16195	57.77057	41.49717	0
611	41.49717	-69.97562	-113.9138	17.90074	77.29865	-102.52242	8.1367	53.70222	135.06922	43.93818	-13.83239	13.83239	0
612	34.98781	-87.06269	-131.00087	30.91946	82.18067	-110.65912	-7.32303	34.98781	126.11885	13.01872	-101.70875	-29.29212	0
613	14.64606	-100.89508	-134.25555	50.44754	73.2303	-116.35481	-11.39138	21.96909	120.42316	-8.1367	-167.61602	-68.34828	0
614	-8.1367	-105.7771	-117.98215	65.90727	54.51589	-116.35481	1.62734	19.52808	121.23683	-8.1367	-182.26208	-85.43535	0
615	-30.10579	-105.7771	-90.31737	74.85764	30.10579	-110.65912	28.47845	27.66478	129.37353	9.76404	-143.20592	-76.48498	0
616	-47.19286	-102.52242	-72.41663	74.04397	8.95037	-104.14976	54.51589	37.42882	137.51023	34.98781	-71.60296	-49.63387	0
617	-51.26121	-96.82673	-72.41663	59.39791	-4.06835	-100.89508	74.04397	43.93818	143.20592	57.77057	8.1367	-21.96909	0
618	-41.49717	-96.01306	-78.92599	48.8202	-9.76404	-102.52242	81.367	50.44754	148.90161	73.2303	68.34828	-10.57771	0
619	-39.05616	-111.47279	-85.43535	59.39791	-7.32303	-111.47279	70.78929	48.8202	147.27427	69.97562	78.92599	-13.01872	0
620	-48.8202	-138.3239	-93.57205	85.43535	-1.62734	-124.49151	48.8202	37.42882	133.44188	48.8202	34.98781	-27.66478	0
621	-59.39791	-156.22464	-97.6404	105.7771	4.88202	-131.00087	27.66478	26.85111	117.16848	25.22377	-35.80148	-51.26121	0
622	-61.83892	-155.41097	-95.19939	109.84545	8.95037	-128.55986	14.64606	21.15542	107.40444	7.32303	-108.21811	-77.29865	0
623	-50.44754	-141.57858	-87.87636	95.19939	16.2734	-117.98215	14.64606	17.08707	109.03178	2.44101	-154.5973	-95.19939	0
624	-29.29212	-125.30518	-79.73966	69.97562	25.22377	-100.89508	26.85111	19.52808	123.67784	14.64606	-156.22464	-98.45407	0
625	-12.20505	-110.65912	-74.85764	51.26121	32.5468	-87.06269	44.75185	31.73313	146.4606	40.6835	-113.10013	-83.80801	0
626	-5.69569	-100.08141	-72.41663	43.12451	34.98781	-79.73966	63.46626	56.9569	174.12538	71.60296	-40.6835	-56.14323	0
627	-8.1367	-93.57205	-70.78929	44.75185	33.36047	-78.11232	75.67131	88.69003	199.34915	100.08141	32.5468	-26.85111	0
628	-12.20505	-91.94471	-75.67131	51.26121	30.10579	-82.99434	76.48498	110.65912	213.99521	116.35481	84.62168	-8.1367	0
629	-5.69569	-95.19939	-91.94471	53.70222	30.10579	-95.19939	66.72094	114.72747	214.80888	116.35481	96.82673	2.44101	0
630	7.32303	-101.70875	-110.65912	51.26121	35.80148	-105.7771	49.63387	104.96343	205.85851	103.33609	67.53461	3.25468	0
631	17.90074	-109.84545	-118.79582	43.93818	43.12451	-107.40444	34.17414	87.87636	191.21245	81.367	9.76404	-13.01872	0
632	16.2734	-117.16848	-112.28646	39.86983	45.56552	-101.70875	23.59643	73.2303	178.19373	61.02525	-56.9569	-43.12451	0
633	0	-120.42316	-96.82673	46.37919	37.42882	-94.38572	17.90074	65.0936	169.24336	47.19286	-110.65912	-76.48498	0
634	-21.96909	-119.60949	-82.18067	61.83892	24.4101	-91.13104	17.08707	59.39791	161.92033	39.05616	-129.37353	-100.08141	0
635	-39.86983	-117.16848	-74.04397	76.48498	15.45973	-92.75838	22.78276	57.77057	160.29299	39.05616	-107.40444	-104.96343	0
636	-49.63387	-114.72747	-69.97562	84.62168	10.57771	-95.19939	37.42882	65.0936	164.36134	52.88855	-53.70222	-87.06269	0
637	-45.56552	-111.47279	-71.60296	82.18067	14.64606	-95.19939	57.77057	82.99434	170.8707	74.04397	11.39138	-60.21158	0
638	-30.10579	-107.40444	-81.367	72.41663	26.85111	-96.82673	76.48498	100.89508	179.82107	92.75838	61.83892	-40.6835	0
639	-14.64606	-108.21811	-96.01306	65.0936	41.49717	-102.52242	85.43535	109.84545	184.70309	99.26774	76.48498	-28.47845	0
640	-11.39138	-113.9138	-107.40444	68.34828	48.00653	-111.47279	84.62168	106.59077	180.63474	89.5037	48.8202	-26.85111	0
641	-19.52808	-123.67784	-112.28646	78.92599	46.37919	-119.60949	78.92599	94.38572	170.8707	69.16195	-7.32303	-41.49717	0
642	-27.66478	-133.44188	-112.28646	85.43535	41.49717	-122.86417	74.04397	74.85764	161.92033	47.19286	-70.78929	-66.72094	0
643	-31.73313	-135.06922	-105.7771	83.80801	35.80148	-122.0505	70.78929	57.77057	156.22464	31.73313	-115.54114	-89.5037	0
644	-32.5468	-128.55986	-97.6404	78.11232	33.36047	-116.35481	66.72094	52.07488	151.34262	26.85111	-126.11885	-103.33609	0
645	-32.5468	-119.60949	-91.94471	70.78929	33.36047	-109.03178	60.21158	58.58424	145.64693	30.91946	-103.33609	-104.14976	0
646	-31.73313	-113.9138	-90.31737	64.27993	36.61515	-103.33609	51.26121	67.53461	136.69656	37.42882	-60.21158	-95.19939	0
647	-31.73313	-117.16848	-91.94471	60.21158	39.86983	-104.96343	43.93818	68.34828	127.74619	43.93818	-12.20505	-78.11232	0
648	-26.85111	-131.00087	-99.26774	57.77057	43.12451	-114.72747	43.12451	65.0936	126.11885	49.63387	27.66478	-54.51589	0
649	-22.78276	-139.95124	-109.03178	57.77057	48.00653	-122.86417	50.44754	62.65259	136.69656	52.88855	46.37919	-35.80148	0
650	-21.96909	-134.25555	-114.72747	56.14323	54.51589	-123.67784	61.83892	63.46626	154.5973	59.39791	33.36047	-31.73313	0
651	-17.90074	-123.67784	-116.35481	53.70222	60.21158	-120.42316	72.41663	63.46626	168.42969	65.90727	-4.88202	-42.31084	0
652	-7.32303	-113.9138	-114.72747	50.44754	64.27993	-117.16848	78.11232	63.46626	176.56639	65.90727	-54.51589	-64.27993	0
653	2.44101	-104.96343	-111.47279	45.56552	65.90727	-112.28646	79.73966	65.0936	180.63474	59.39791	-95.19939	-87.06269	0
654	9.76404	-96.82673	-108.21811	41.49717	65.0936	-105.7771	76.48498	65.90727	179.82107	52.07488	-109.84545	-104.14976	0
655	15.45973	-90.31737	-104.14976	37.42882	63.46626	-98.45407	69.97562	62.65259	175.75272	49.63387	-93.57205	-108.21811	0
656	17.90074	-86.24902	-100.08141	34.17414	61.02525	-93.57205	62.65259	61.83892	170.05703	53.70222	-51.26121	-96.01306	0
657	14.64606	-86.24902	-94.38572	35.80148	56.9569	-91.13104	60.21158	68.34828	163.54767	67.53461	3.25468	-65.90727	0
658	8.95037	-88.69003	-90.31737	39.86983	52.07488	-91.94471	61.02525	78.11232	159.47932	82.99434	49.63387	-29.29212	0
659	5.69569	-88.69003	-95.19939	43.12451	49.63387	-97.6404	60.21158	82.18067	152.15629	87.87636	65.90727	-4.88202	0
660	5.69569	-89.5037	-110.65912	45.56552	52.07488	-106.59077	53.70222	73.2303	134.25555	77.29865	43.93818	-6.50936	0
661	7.32303	-92.75838	-124.49151	47.19286	56.9569	-117.16848	43.93818	51.26121	109.03178	52.88855	-6.50936	-31.73313	0
662	7.32303	-95.19939	-125.30518	46.37919	58.58424	-123.67784	35.80148	26.03744	91.13104	26.03744	-64.27993	-65.0936	0
663	4.06835	-95.19939	-117.16848	45.56552	55.32956	-124.49151	33.36047	8.1367	80.55333	8.95037	-105.7771	-93.57205	0
664	-5.69569	-99.26774	-104.14976	52.07488	46.37919	-118.79582	34.98781	3.25468	80.55333	10.57771	-113.9138	-109.03178	0
665	-26.85111	-110.65912	-87.06269	68.34828	31.73313	-110.65912	42.31084	8.95037	96.82673	30.10579	-85.43535	-104.96343	0
666	-52.07488	-126.93252	-69.97562	88.69003	17.08707	-103.33609	56.14323	22.78276	121.23683	61.02525	-32.5468	-83.80801	0
667	-73.2303	-144.01959	-59.39791	107.40444	7.32303	-100.08141	69.97562	40.6835	139.95124	92.75838	25.22377	-51.26121	0
668	-84.62168	-157.03831	-57.77057	120.42316	0.81367	-101.70875	78.92599	56.9569	152.96996	115.54114	65.90727	-19.52808	0
669	-85.43535	-161.10666	-64.27993	124.49151	0	-106.59077	81.367	65.90727	157.03831	123.67784	73.2303	-2.44101	0
670	-67.53461	-148.90161	-74.04397	110.65912	8.1367	-106.59077	81.367	64.27993	157.03831	120.42316	52.88855	-3.25468	0
671	-36.61515	-123.67784	-83.80801	83.80801	23.59643	-100.89508	80.55333	59.39791	157.85198	110.65912	14.64606	-17.08707	0
672	-13.01872	-102.52242	-88.69003	61.83892	33.36047	-94.38572	78.92599	55.32956	159.47932	100.08141	-33.36047	-43.93818	0
673	-4.06835	-90.31737	-87.06269	49.63387	38.24249	-88.69003	77.29865	48.8202	157.03831	96.01306	-74.04397	-72.41663	0
674	-5.69569	-83.80801	-78.11232	44.75185	37.42882	-80.55333	75.67131	48.00653	157.03831	94.38572	-85.43535	-87.06269	0
675	-11.39138	-80.55333	-65.90727	43.93818	30.10579	-70.78929	75.67131	59.39791	165.98868	99.26774	-64.27993	-82.18067	0
676	-17.08707	-78.11232	-53.70222	44.75185	19.52808	-62.65259	78.11232	71.60296	178.19373	113.9138	-21.15542	-60.21158	0
677	-22.78276	-74.04397	-40.6835	46.37919	11.39138	-54.51589	82.18067	78.11232	187.1441	133.44188	30.10579	-34.98781	0
678	-26.03744	-67.53461	-30.10579	47.19286	6.50936	-46.37919	88.69003	80.55333	192.83979	149.71528	72.41663	-21.15542	0
679	-25.22377	-60.21158	-26.85111	45.56552	6.50936	-42.31084	91.13104	75.67131	192.02612	152.15629	83.80801	-14.64606	0
680	-17.08707	-52.07488	-30.10579	39.05616	9.76404	-43.12451	87.06269	60.21158	180.63474	139.13757	58.58424	-13.01872	0
681	-8.95037	-43.93818	-37.42882	30.91946	13.83239	-46.37919	82.99434	43.93818	165.17501	116.35481	9.76404	-22.78276	0
682	-4.88202	-39.05616	-43.12451	25.22377	16.2734	-48.8202	80.55333	37.42882	153.78363	91.13104	-41.49717	-40.6835	0
683	-3.25468	-33.36047	-41.49717	17.08707	16.2734	-44.75185	78.92599	37.42882	144.01959	74.85764	-76.48498	-55.32956	0
684	-0.81367	-18.71441	-35.80148	2.44101	13.83239	-36.61515	78.92599	39.86983	138.3239	74.04397	-77.29865	-57.77057	0
685	1.62734	-0.81367	-29.29212	-9.76404	12.20505	-25.22377	78.92599	39.86983	138.3239	85.43535	-52.07488	-48.8202	0
686	0	10.57771	-21.96909	-11.39138	12.20505	-12.20505	75.67131	37.42882	140.76491	100.08141	-13.83239	-34.17414	0
687	-5.69569	14.64606	-10.57771	-3.25468	10.57771	-1.62734	70.78929	36.61515	142.39225	113.10013	24.4101	-16.2734	0
688	-6.50936	11.39138	0.81367	4.06835	9.76404	0.81367	65.90727	39.86983	144.01959	124.49151	54.51589	4.88202	0
689	-0.81367	8.1367	6.50936	4.88202	9.76404	1.62734	61.83892	43.12451	148.90161	132.62821	66.72094	20.34175	0
690	8.1367	15.45973	10.57771	-3.25468	9.76404	8.1367	54.51589	37.42882	151.34262	135.88289	53.70222	22.78276	0
691	19.52808	29.29212	17.90074	-17.08707	6.50936	22.78276	41.49717	20.34175	143.20592	129.37353	21.15542	10.57771	0
692	30.91946	43.12451	25.22377	-33.36047	4.88202	39.05616	23.59643	0	124.49151	120.42316	-17.90074	-8.1367	0
693	43.93818	56.14323	26.85111	-48.8202	8.95037	48.8202	8.1367	-13.83239	105.7771	113.10013	-48.00653	-26.03744	0
694	56.9569	65.90727	22.78276	-61.02525	15.45973	50.44754	-4.06835	-23.59643	96.01306	107.40444	-55.32956	-38.24249	0
695	69.16195	73.2303	20.34175	-69.16195	19.52808	51.26121	-16.2734	-29.29212	100.08141	104.14976	-36.61515	-39.05616	0
696	73.2303	78.92599	21.15542	-73.2303	20.34175	51.26121	-26.03744	-25.22377	114.72747	108.21811	0	-24.4101	0
697	60.21158	76.48498	23.59643	-66.72094	17.90074	50.44754	-30.10579	-15.45973	135.06922	115.54114	46.37919	1.62734	0
698	29.29212	62.65259	23.59643	-40.6835	13.01872	48.00653	-31.73313	-8.1367	151.34262	117.98215	82.99434	29.29212	0
699	0	45.56552	23.59643	-9.76404	8.1367	39.86983	-30.91946	-3.25468	157.03831	117.98215	94.38572	44.75185	0
700	-10.57771	30.91946	25.22377	6.50936	5.69569	28.47845	-26.03744	0.81367	154.5973	118.79582	79.73966	43.93818	0
701	-6.50936	19.52808	25.22377	4.88202	5.69569	15.45973	-17.08707	1.62734	145.64693	117.98215	47.19286	31.73313	0
702	10.57771	13.83239	23.59643	-13.83239	7.32303	6.50936	-5.69569	0	132.62821	109.03178	7.32303	13.01872	0
703	32.5468	13.83239	16.2734	-36.61515	15.45973	4.88202	2.44101	-1.62734	117.98215	95.19939	-26.85111	-6.50936	0
704	54.51589	17.90074	-0.81367	-52.88855	26.03744	3.25468	6.50936	-5.69569	104.96343	82.99434	-43.93818	-23.59643	0
705	73.2303	21.96909	-23.59643	-60.21158	34.98781	-1.62734	4.06835	-9.76404	92.75838	82.18067	-37.42882	-30.91946	0
706	77.29865	17.08707	-42.31084	-55.32956	40.6835	-11.39138	-2.44101	-8.1367	82.99434	89.5037	-13.01872	-24.4101	0
707	65.0936	0	-56.14323	-36.61515	44.75185	-22.78276	-7.32303	-2.44101	78.11232	96.82673	18.71441	-7.32303	0
708	50.44754	-22.78276	-68.34828	-14.64606	50.44754	-34.98781	-9.76404	0	82.99434	101.70875	48.00653	13.01872	0
709	39.05616	-43.12451	-79.73966	3.25468	58.58424	-48.00653	-8.1367	0.81367	95.19939	106.59077	61.02525	27.66478	0
710	26.85111	-57.77057	-89.5037	15.45973	65.0936	-60.21158	-4.06835	-3.25468	106.59077	109.03178	52.07488	26.85111	0
711	17.90074	-68.34828	-96.01306	19.52808	66.72094	-70.78929	4.88202	-9.76404	109.03178	100.89508	21.96909	10.57771	0
712	18.71441	-68.34828	-99.26774	15.45973	67.53461	-76.48498	19.52808	-11.39138	105.7771	90.31737	-14.64606	-9.76404	0
713	17.08707	-65.0936	-98.45407	15.45973	59.39791	-74.85764	33.36047	-11.39138	105.7771	84.62168	-43.93818	-29.29212	0
714	-1.62734	-71.60296	-92.75838	30.10579	43.12451	-71.60296	43.12451	-5.69569	109.03178	82.99434	-54.51589	-42.31084	0
715	-28.47845	-90.31737	-84.62168	56.14323	28.47845	-75.67131	51.26121	4.88202	112.28646	82.18067	-47.19286	-48.00653	0
716	-48.00653	-112.28646	-80.55333	78.92599	21.96909	-87.06269	52.88855	11.39138	110.65912	81.367	-29.29212	-48.00653	0
717	-56.14323	-131.00087	-83.80801	93.57205	19.52808	-100.89508	52.07488	11.39138	106.59077	82.99434	-6.50936	-48.8202	0
718	-55.32956	-143.20592	-91.94471	100.08141	22.78276	-112.28646	51.26121	9.76404	101.70875	83.80801	11.39138	-57.77057	0
719	-47.19286	-148.90161	-102.52242	100.89508	30.10579	-121.23683	48.00653	5.69569	93.57205	78.92599	11.39138	-65.90727	0
720	-35.80148	-149.71528	-110.65912	100.08141	38.24249	-126.11885	39.05616	-2.44101	78.92599	65.0936	-6.50936	-71.60296	0
721	-30.91946	-148.90161	-111.47279	98.45407	40.6835	-126.11885	27.66478	-9.76404	61.83892	48.00653	-35.80148	-78.11232	0
722	-30.91946	-146.4606	-109.03178	95.19939	38.24249	-122.86417	18.71441	-12.20505	51.26121	35.80148	-65.90727	-85.43535	0
723	-25.22377	-137.51023	-107.40444	90.31737	40.6835	-118.79582	14.64606	-12.20505	43.93818	32.5468	-87.06269	-91.94471	0
724	-8.1367	-123.67784	-113.10013	84.62168	52.07488	-116.35481	12.20505	-11.39138	39.86983	34.17414	-91.94471	-97.6404	0
725	6.50936	-119.60949	-125.30518	78.92599	66.72094	-120.42316	10.57771	-8.95037	41.49717	36.61515	-82.18067	-100.08141	0
726	13.83239	-126.11885	-139.13757	74.04397	77.29865	-131.00087	13.01872	-2.44101	45.56552	43.12451	-61.02525	-96.82673	0
727	15.45973	-132.62821	-148.08794	69.16195	82.99434	-139.95124	21.15542	6.50936	50.44754	50.44754	-29.29212	-82.18067	0
728	15.45973	-136.69656	-152.96996	65.90727	85.43535	-144.01959	28.47845	13.83239	57.77057	49.63387	-1.62734	-64.27993	0
729	15.45973	-139.13757	-155.41097	64.27993	85.43535	-146.4606	34.98781	11.39138	60.21158	43.93818	5.69569	-56.14323	0
730	13.01872	-140.76491	-151.34262	64.27993	82.18067	-144.01959	41.49717	1.62734	54.51589	38.24249	-4.88202	-60.21158	0
731	8.95037	-143.20592	-141.57858	62.65259	76.48498	-136.69656	45.56552	-10.57771	45.56552	32.5468	-26.85111	-69.97562	0
732	0.81367	-145.64693	-128.55986	65.0936	69.16195	-130.1872	49.63387	-21.15542	39.86983	26.85111	-53.70222	-84.62168	0
733	-12.20505	-144.83326	-115.54114	70.78929	61.83892	-123.67784	52.07488	-25.22377	42.31084	22.78276	-75.67131	-97.6404	0
734	-22.78276	-140.76491	-104.96343	75.67131	54.51589	-118.79582	52.88855	-22.78276	52.88855	26.03744	-79.73966	-105.7771	0
735	-26.85111	-134.25555	-99.26774	77.29865	47.19286	-113.9138	50.44754	-15.45973	62.65259	35.80148	-64.27993	-106.59077	0
736	-27.66478	-131.00087	-98.45407	77.29865	43.12451	-113.10013	46.37919	-3.25468	68.34828	47.19286	-39.05616	-99.26774	0
737	-26.03744	-135.06922	-107.40444	79.73966	44.75185	-120.42316	41.49717	10.57771	68.34828	54.51589	-10.57771	-86.24902	0
738	-21.15542	-144.83326	-123.67784	85.43535	52.88855	-134.25555	39.05616	24.4101	63.46626	55.32956	11.39138	-71.60296	0
739	-12.20505	-154.5973	-134.25555	87.06269	61.02525	-146.4606	39.05616	31.73313	53.70222	55.32956	19.52808	-62.65259	0
740	-8.1367	-161.10666	-132.62821	82.18067	58.58424	-152.96996	40.6835	26.85111	40.6835	54.51589	9.76404	-62.65259	0
741	-15.45973	-164.36134	-131.81454	82.99434	48.8202	-151.34262	40.6835	4.88202	21.96909	47.19286	-13.01872	-72.41663	0
742	-34.17414	-171.68437	-133.44188	95.19939	37.42882	-151.34262	36.61515	-32.5468	-1.62734	30.91946	-44.75185	-88.69003	0
743	-54.51589	-183.07575	-131.81454	113.10013	28.47845	-154.5973	30.91946	-78.92599	-32.5468	10.57771	-74.04397	-104.14976	0
744	-73.2303	-190.39878	-122.0505	128.55986	18.71441	-153.78363	24.4101	-126.11885	-70.78929	-8.1367	-87.87636	-113.10013	0
745	-83.80801	-190.39878	-109.84545	135.88289	9.76404	-147.27427	12.20505	-174.12538	-122.0505	-28.47845	-87.06269	-113.10013	0
746	-77.29865	-174.93905	-99.26774	126.11885	5.69569	-135.06922	-10.57771	-231.89595	-198.53548	-56.9569	-78.92599	-104.96343	0
747	-55.32956	-138.3239	-82.99434	96.82673	1.62734	-109.84545	-42.31084	-306.75359	-301.87157	-93.57205	-80.55333	-87.06269	0
748	-28.47845	-79.73966	-52.07488	54.51589	-4.06835	-65.0936	-77.29865	-394.62995	-425.54941	-134.25555	-92.75838	-55.32956	0
749	0	-12.20505	-13.01872	8.1367	-7.32303	-12.20505	-111.47279	-489.01567	-554.92294	-175.75272	-89.5037	-16.2734	0
750	26.85111	49.63387	18.71441	-36.61515	-3.25468	34.98781	-147.27427	-581.77405	-680.22812	-216.43622	-63.46626	26.03744	0
751	46.37919	104.14976	47.19286	-75.67131	0	75.67131	-186.33043	-673.71876	-795.76926	-252.2377	-7.32303	80.55333	0
752	61.02525	160.29299	87.06269	-111.47279	-10.57771	123.67784	-227.01393	-770.54549	-903.98737	-277.46147	76.48498	147.27427	0
753	74.04397	235.15063	156.22464	-152.96996	-40.6835	195.2808	-261.18807	-876.32259	-1011.39181	-288.03918	154.5973	215.62255	0
754	84.62168	341.7414	259.56073	-209.92686	-88.69003	301.0579	-289.66652	-998.37309	-1130.18763	-288.85285	223.75925	285.59817	0
755	91.94471	475.99695	388.93426	-280.71615	-149.71528	432.87244	-320.58598	-1144.83369	-1272.57988	-288.03918	296.17588	360.45581	0
756	96.82673	618.3892	527.25816	-355.57379	-216.43622	573.63735	-368.59251	-1311.63604	-1436.94122	-284.7845	369.40618	436.94079	0
757	101.70875	742.06704	659.88637	-419.04005	-278.27514	695.68785	-445.07749	-1484.13408	-1599.67522	-270.95211	444.26382	495.52503	0
758	115.54114	835.63909	772.9865	-467.86025	-327.90901	786.81889	-541.90422	-1637.10404	-1728.23508	-247.35568	515.86678	530.51284	0
759	128.55986	903.1737	842.14845	-504.4754	-356.38746	849.47148	-633.03526	-1743.69481	-1800.65171	-229.45494	550.85459	557.36395	0
760	122.86417	903.1737	836.45276	-502.03439	-356.38746	851.09882	-692.43317	-1781.9373	-1807.16107	-217.24989	519.93513	559.80496	0
761	98.45407	797.3966	733.93034	-439.3818	-316.51763	753.45842	-711.14758	-1742.06747	-1743.69481	-208.29952	423.1084	512.6121	0
762	74.85764	601.30213	541.90422	-332.79103	-233.52329	565.50065	-698.12886	-1641.17239	-1633.84936	-220.50457	272.57945	418.22638	0
763	59.39791	354.76012	297.80322	-204.23117	-118.79582	323.84066	-670.46408	-1506.91684	-1515.86721	-279.08881	84.62168	290.48019	0
764	37.42882	94.38572	52.88855	-65.90727	-7.32303	74.04397	-645.24031	-1365.33826	-1424.73617	-402.76665	-116.35481	158.66565	0
765	8.95037	-146.4606	-152.96996	71.60296	77.29865	-148.08794	-627.33957	-1231.08271	-1377.54331	-583.40139	-306.75359	48.00653	0
766	-10.57771	-339.30039	-309.1946	185.51676	138.3239	-322.21332	-616.76186	-1102.52285	-1351.50587	-780.30953	-455.6552	-43.93818	0
767	-26.03744	-466.23291	-419.04005	256.30605	179.82107	-441.00914	-612.69351	-969.08097	-1315.70439	-940.60252	-557.36395	-124.49151	0
768	-41.49717	-536.20853	-493.08402	289.66652	205.04484	-510.98476	-606.18415	-828.31606	-1249.79712	-1029.29255	-614.32085	-185.51676	0
769	-52.07488	-571.19634	-532.95385	305.93992	219.6909	-541.90422	-580.96038	-680.22812	-1147.2747	-1038.24292	-617.57553	-218.06356	0
770	-59.39791	-585.02873	-541.90422	316.51763	226.20026	-550.85459	-533.76752	-532.95385	-1014.64649	-979.65868	-575.26469	-230.26861	0
771	-61.83892	-575.26469	-527.25816	315.70396	223.75925	-541.09055	-465.41924	-397.88463	-868.18589	-877.13626	-514.23944	-233.52329	0
772	-56.9569	-545.1589	-498.77971	299.43056	217.24989	-515.05311	-384.86591	-284.7845	-720.91162	-755.89943	-450.77318	-228.64127	0
773	-46.37919	-506.91641	-467.04658	275.83413	209.11319	-483.31998	-305.12625	-196.09447	-580.96038	-633.84893	-391.37527	-219.6909	0
774	-34.98781	-467.86025	-442.63648	247.35568	202.60383	-453.21419	-235.9643	-126.11885	-452.40052	-521.56247	-331.97736	-210.74053	0
775	-24.4101	-427.17675	-425.54941	217.24989	196.09447	-425.54941	-183.88942	-69.16195	-336.85938	-418.22638	-273.39312	-198.53548	0
776	-7.32303	-393.81628	-408.46234	198.53548	191.21245	-401.13931	-148.90161	-26.85111	-238.40531	-327.09534	-218.87723	-183.07575	0
777	8.95037	-375.91554	-388.93426	193.65346	184.70309	-382.4249	-127.74619	-2.44101	-159.47932	-251.42403	-184.70309	-166.80235	0
778	12.20505	-364.52416	-371.84719	188.77144	179.82107	-367.77884	-113.9138	8.95037	-98.45407	-191.21245	-174.12538	-152.96996	0
779	4.88202	-342.55507	-353.13278	174.12538	176.56639	-347.43709	-96.01306	19.52808	-47.19286	-141.57858	-158.66565	-142.39225	0
780	-2.44101	-310.82194	-323.02699	155.41097	165.17501	-316.51763	-70.78929	38.24249	-0.81367	-99.26774	-127.74619	-135.88289	0
781	-13.83239	-273.39312	-274.20679	140.76491	144.01959	-273.39312	-40.6835	65.90727	39.86983	-62.65259	-93.57205	-129.37353	0
782	-26.85111	-230.26861	-219.6909	126.11885	121.23683	-222.94558	-12.20505	94.38572	74.85764	-32.5468	-66.72094	-122.0505	0
783	-28.47845	-183.88942	-178.19373	104.14976	99.26774	-174.93905	8.95037	117.16848	102.52242	-8.95037	-48.8202	-114.72747	0
784	-16.2734	-140.76491	-152.15629	78.11232	82.18067	-140.76491	27.66478	135.88289	128.55986	12.20505	-30.10579	-107.40444	0
785	-4.88202	-112.28646	-137.51023	60.21158	69.97562	-122.0505	43.93818	151.34262	152.15629	35.80148	-8.1367	-100.08141	0
786	0	-100.89508	-127.74619	53.70222	61.02525	-113.9138	57.77057	163.54767	173.31171	55.32956	10.57771	-93.57205	0
787	-3.25468	-101.70875	-120.42316	55.32956	52.88855	-109.84545	68.34828	172.49804	188.77144	70.78929	28.47845	-87.06269	0
788	-12.20505	-108.21811	-117.16848	62.65259	44.75185	-107.40444	78.92599	174.93905	196.90814	84.62168	45.56552	-78.92599	0
789	-23.59643	-117.98215	-116.35481	73.2303	41.49717	-106.59077	87.06269	177.38006	203.4175	93.57205	53.70222	-71.60296	0
790	-27.66478	-127.74619	-116.35481	80.55333	42.31084	-108.21811	91.13104	181.44841	209.11319	96.82673	50.44754	-68.34828	0
791	-26.03744	-133.44188	-118.79582	82.99434	46.37919	-113.10013	88.69003	184.70309	210.74053	92.75838	39.05616	-69.97562	0
792	-27.66478	-138.3239	-120.42316	85.43535	45.56552	-118.79582	81.367	187.1441	205.85851	87.87636	19.52808	-78.11232	0
793	-34.17414	-141.57858	-118.79582	88.69003	38.24249	-121.23683	72.41663	189.58511	195.2808	86.24902	-0.81367	-87.87636	0
794	-32.5468	-134.25555	-112.28646	82.99434	34.98781	-115.54114	66.72094	187.1441	186.33043	85.43535	-6.50936	-96.01306	0
795	-15.45973	-116.35481	-104.96343	64.27993	40.6835	-104.14976	65.90727	181.44841	185.51676	84.62168	2.44101	-97.6404	0
796	5.69569	-100.89508	-101.70875	42.31084	52.07488	-91.13104	66.72094	176.56639	192.02612	84.62168	17.08707	-95.19939	0
797	23.59643	-89.5037	-105.7771	27.66478	65.0936	-82.18067	67.53461	170.8707	200.16282	80.55333	30.91946	-92.75838	0
798	32.5468	-80.55333	-110.65912	22.78276	72.41663	-81.367	69.16195	165.98868	206.67218	73.2303	41.49717	-92.75838	0
799	26.85111	-78.11232	-105.7771	27.66478	66.72094	-81.367	71.60296	166.80235	213.99521	69.97562	44.75185	-93.57205	0
800	8.95037	-86.24902	-92.75838	40.6835	53.70222	-81.367	77.29865	174.93905	219.6909	70.78929	40.6835	-95.19939	0
801	-13.01872	-100.08141	-82.99434	56.9569	41.49717	-85.43535	85.43535	183.88942	220.50457	74.04397	33.36047	-96.82673	0
802	-29.29212	-110.65912	-78.92599	67.53461	33.36047	-91.13104	94.38572	192.83979	217.24989	79.73966	24.4101	-98.45407	0
803	-33.36047	-115.54114	-80.55333	69.97562	30.10579	-94.38572	101.70875	200.16282	213.18154	85.43535	17.08707	-96.82673	0
804	-26.85111	-112.28646	-83.80801	65.90727	33.36047	-93.57205	108.21811	203.4175	209.92686	93.57205	19.52808	-91.94471	0
805	-11.39138	-104.14976	-84.62168	54.51589	41.49717	-91.13104	113.9138	200.16282	212.36787	104.14976	32.5468	-84.62168	0
806	1.62734	-94.38572	-82.99434	41.49717	47.19286	-88.69003	119.60949	192.83979	221.31824	114.72747	47.19286	-75.67131	0
807	7.32303	-87.87636	-82.18067	34.98781	48.00653	-86.24902	123.67784	183.88942	235.9643	124.49151	61.83892	-67.53461	0
808	8.95037	-91.13104	-86.24902	34.17414	48.00653	-89.5037	122.0505	174.93905	247.35568	130.1872	73.2303	-63.46626	0
809	7.32303	-108.21811	-97.6404	38.24249	48.00653	-103.33609	111.47279	172.49804	247.35568	126.11885	71.60296	-67.53461	0
810	3.25468	-121.23683	-107.40444	44.75185	48.00653	-113.9138	100.08141	179.0074	242.47366	117.98215	62.65259	-74.04397	0
811	0	-110.65912	-104.14976	42.31084	48.00653	-106.59077	96.01306	192.83979	240.84632	113.9138	57.77057	-75.67131	0
812	-0.81367	-82.99434	-91.13104	28.47845	48.00653	-86.24902	100.08141	207.48585	244.101	117.16848	52.07488	-74.04397	0
813	2.44101	-53.70222	-74.85764	12.20505	43.93818	-66.72094	103.33609	214.80888	247.35568	122.86417	40.6835	-73.2303	0
814	15.45973	-31.73313	-60.21158	-1.62734	35.80148	-53.70222	103.33609	209.11319	245.72834	124.49151	33.36047	-74.04397	0
815	30.91946	-17.08707	-49.63387	-11.39138	27.66478	-46.37919	101.70875	201.79016	243.28733	125.30518	35.80148	-72.41663	0
816	42.31084	-8.1367	-43.93818	-18.71441	20.34175	-38.24249	100.89508	208.29952	249.79669	130.1872	45.56552	-64.27993	0
817	47.19286	-0.81367	-40.6835	-22.78276	19.52808	-30.10579	98.45407	226.20026	264.44275	136.69656	59.39791	-53.70222	0
818	41.49717	0.81367	-42.31084	-24.4101	23.59643	-25.22377	95.19939	241.65999	275.83413	135.88289	71.60296	-48.8202	0
819	25.22377	-0.81367	-50.44754	-23.59643	26.85111	-26.85111	94.38572	248.98302	279.90248	128.55986	71.60296	-49.63387	0
820	10.57771	-5.69569	-61.83892	-21.96909	29.29212	-32.5468	97.6404	248.98302	279.08881	117.16848	63.46626	-51.26121	0
821	0	-10.57771	-71.60296	-21.15542	30.10579	-39.05616	99.26774	245.72834	273.39312	107.40444	52.88855	-51.26121	0
822	-4.88202	-16.2734	-71.60296	-15.45973	27.66478	-42.31084	96.01306	239.21898	263.62908	101.70875	39.05616	-48.8202	0
823	-10.57771	-25.22377	-59.39791	-1.62734	20.34175	-41.49717	91.13104	232.70962	253.86504	98.45407	26.03744	-44.75185	0
824	-16.2734	-33.36047	-41.49717	12.20505	10.57771	-35.80148	87.87636	230.26861	251.42403	100.08141	23.59643	-42.31084	0
825	-20.34175	-37.42882	-22.78276	21.15542	0	-26.85111	90.31737	237.59164	261.18807	108.21811	36.61515	-36.61515	0
826	-24.4101	-37.42882	-7.32303	26.85111	-7.32303	-17.08707	102.52242	256.30605	281.52982	122.0505	56.14323	-26.03744	0
827	-26.85111	-34.17414	0.81367	26.85111	-13.01872	-11.39138	118.79582	277.46147	301.87157	135.06922	78.11232	-15.45973	0
828	-26.85111	-28.47845	4.06835	19.52808	-12.20505	-11.39138	131.00087	288.85285	313.26295	142.39225	97.6404	-7.32303	0
829	-22.78276	-21.15542	0	9.76404	-5.69569	-13.83239	135.88289	290.48019	314.07662	143.20592	104.14976	-4.06835	0
830	-14.64606	-10.57771	0	2.44101	-1.62734	-8.95037	131.00087	288.03918	310.00827	139.13757	97.6404	-5.69569	0
831	0.81367	6.50936	4.88202	-6.50936	0	2.44101	118.79582	287.22551	305.12625	131.81454	86.24902	-8.95037	0
832	21.96909	30.91946	11.39138	-24.4101	2.44101	19.52808	105.7771	288.03918	301.87157	124.49151	69.16195	-9.76404	0
833	41.49717	52.88855	15.45973	-44.75185	9.76404	33.36047	96.01306	290.48019	301.0579	122.86417	50.44754	-8.95037	0
834	58.58424	69.97562	12.20505	-61.83892	20.34175	39.86983	91.13104	292.9212	299.43056	122.0505	43.12451	-10.57771	0
835	60.21158	80.55333	6.50936	-72.41663	24.4101	36.61515	89.5037	295.36221	297.80322	119.60949	46.37919	-13.01872	0
836	45.56552	86.24902	6.50936	-75.67131	18.71441	27.66478	92.75838	304.31258	301.87157	117.98215	53.70222	-15.45973	0
837	29.29212	87.87636	13.83239	-74.04397	9.76404	25.22377	100.89508	323.02699	315.70396	122.86417	69.16195	-21.96909	0
838	13.83239	83.80801	24.4101	-69.16195	0.81367	31.73313	111.47279	341.7414	329.53635	129.37353	90.31737	-39.05616	0
839	1.62734	67.53461	29.29212	-62.65259	-4.88202	33.36047	115.54114	344.99608	331.16369	126.93252	94.38572	-52.07488	0
840	-4.06835	51.26121	32.5468	-56.9569	-11.39138	34.17414	115.54114	334.41837	320.58598	113.9138	79.73966	-52.88855	0
841	-4.88202	50.44754	43.12451	-52.07488	-19.52808	44.75185	117.16848	323.84066	310.00827	103.33609	65.90727	-43.12451	0
842	-1.62734	65.0936	62.65259	-51.26121	-30.91946	65.0936	120.42316	323.84066	306.75359	100.89508	57.77057	-24.4101	0
843	0.81367	84.62168	82.18067	-53.70222	-39.86983	85.43535	124.49151	336.85938	306.75359	101.70875	52.07488	-6.50936	0
844	2.44101	100.89508	99.26774	-56.9569	-48.8202	102.52242	127.74619	359.64214	310.00827	109.03178	57.77057	6.50936	0
845	3.25468	113.10013	111.47279	-58.58424	-53.70222	113.10013	130.1872	384.86591	317.3313	122.0505	74.85764	18.71441	0
846	8.1367	121.23683	118.79582	-61.83892	-52.88855	118.79582	132.62821	401.13931	321.39965	131.00087	90.31737	27.66478	0
847	15.45973	126.93252	118.79582	-64.27993	-48.00653	120.42316	135.88289	404.39399	318.95864	134.25555	100.89508	30.91946	0
848	17.90074	132.62821	119.60949	-65.90727	-47.19286	124.49151	140.76491	400.32564	314.89029	134.25555	109.84545	30.91946	0
849	13.01872	136.69656	126.93252	-65.90727	-54.51589	131.00087	146.4606	393.81628	309.1946	131.00087	112.28646	29.29212	0
850	7.32303	139.13757	135.88289	-66.72094	-61.83892	136.69656	145.64693	386.49325	299.43056	122.86417	104.96343	26.03744	0
851	9.76404	144.01959	140.76491	-71.60296	-61.02525	139.13757	138.3239	379.98389	288.03918	109.03178	96.01306	24.4101	0
852	20.34175	156.22464	143.20592	-87.06269	-53.70222	144.01959	129.37353	376.72921	275.83413	98.45407	82.18067	25.22377	0
853	31.73313	176.56639	145.64693	-108.21811	-45.56552	155.41097	122.0505	375.10187	263.62908	92.75838	62.65259	25.22377	0
854	42.31084	197.72181	152.15629	-126.11885	-44.75185	170.8707	115.54114	375.10187	252.2377	89.5037	51.26121	26.03744	0
855	49.63387	217.24989	167.61602	-136.69656	-54.51589	190.39878	111.47279	376.72921	243.28733	88.69003	59.39791	33.36047	0
856	49.63387	235.9643	188.77144	-142.39225	-68.34828	211.5542	109.84545	379.98389	239.21898	92.75838	78.92599	48.00653	0
857	43.93818	252.2377	208.29952	-148.08794	-79.73966	229.45494	109.03178	386.49325	240.03265	98.45407	105.7771	63.46626	0
858	37.42882	265.25642	224.57292	-152.15629	-87.87636	244.91467	110.65912	392.18894	242.47366	101.70875	131.00087	74.04397	0
859	37.42882	276.6478	235.9643	-153.78363	-92.75838	257.11972	109.84545	390.5616	239.21898	97.6404	139.13757	75.67131	0
860	43.93818	289.66652	243.28733	-155.41097	-95.19939	268.5111	103.33609	380.79756	227.8276	87.06269	131.81454	73.2303	0
861	51.26121	302.68524	253.05137	-158.66565	-100.08141	279.08881	91.94471	364.52416	208.29952	73.2303	120.42316	71.60296	0
862	56.14323	312.44928	266.07009	-165.17501	-109.84545	290.48019	81.367	348.25076	179.0074	54.51589	103.33609	71.60296	0
863	57.77057	323.84066	283.15716	-174.93905	-118.79582	302.68524	74.04397	337.67305	148.90161	33.36047	82.18067	71.60296	0
864	56.14323	333.6047	299.43056	-182.26208	-126.11885	313.26295	69.16195	330.35002	126.93252	18.71441	73.2303	73.2303	0
865	51.26121	339.30039	311.63561	-186.33043	-132.62821	325.468	66.72094	320.58598	114.72747	13.01872	78.92599	78.11232	0
866	42.31084	340.11406	315.70396	-185.51676	-137.51023	336.85938	65.90727	306.75359	108.21811	8.95037	86.24902	82.99434	0
867	27.66478	336.85938	320.58598	-179.82107	-145.64693	343.36874	66.72094	291.29386	100.89508	3.25468	95.19939	87.06269	0
868	12.20505	344.99608	337.67305	-177.38006	-161.10666	353.94645	69.97562	279.08881	91.94471	0	110.65912	95.19939	0
869	0	362.08315	364.52416	-179.82107	-180.63474	370.21985	73.2303	269.32477	78.11232	-6.50936	118.79582	101.70875	0
870	-10.57771	376.72921	388.12059	-183.07575	-199.34915	380.79756	69.16195	255.49238	56.9569	-20.34175	111.47279	102.52242	0
871	-20.34175	384.86591	402.76665	-185.51676	-210.74053	385.67958	61.02525	238.40531	30.91946	-39.05616	96.82673	99.26774	0
872	-25.22377	389.74793	408.46234	-187.95777	-216.43622	388.93426	49.63387	221.31824	0	-59.39791	75.67131	96.01306	0
873	-21.96909	392.18894	410.08968	-193.65346	-218.87723	389.74793	39.05616	204.23117	-31.73313	-80.55333	50.44754	92.75838	0
874	-11.39138	391.37527	408.46234	-200.97649	-216.43622	391.37527	30.10579	186.33043	-56.14323	-97.6404	36.61515	87.87636	0
875	-3.25468	392.18894	401.95298	-203.4175	-207.48585	394.62995	21.96909	165.17501	-78.92599	-107.40444	37.42882	86.24902	0
876	4.88202	397.07096	395.44362	-206.67218	-198.53548	397.88463	13.01872	138.3239	-100.89508	-112.28646	44.75185	89.5037	0
877	16.2734	404.39399	388.93426	-213.18154	-194.46713	399.51197	1.62734	111.47279	-117.98215	-115.54114	57.77057	95.19939	0
878	25.22377	408.46234	384.05224	-217.24989	-190.39878	399.51197	-10.57771	91.13104	-134.25555	-119.60949	74.04397	99.26774	0
879	26.85111	414.9717	388.12059	-219.6909	-189.58511	404.39399	-20.34175	79.73966	-152.15629	-125.30518	81.367	102.52242	0
880	26.85111	423.92207	397.88463	-223.75925	-192.02612	414.15803	-22.78276	70.78929	-168.42969	-131.00087	77.29865	104.96343	0
881	29.29212	432.87244	405.20766	-230.26861	-192.83979	422.29473	-18.71441	57.77057	-182.26208	-137.51023	68.34828	106.59077	0
882	32.5468	441.00914	410.08968	-236.77797	-192.83979	428.80409	-13.83239	38.24249	-196.09447	-148.08794	65.0936	106.59077	0
883	26.03744	437.75446	413.34436	-232.70962	-193.65346	427.99042	-17.08707	15.45973	-209.92686	-164.36134	71.60296	109.03178	0
884	8.95037	415.78537	406.835	-218.87723	-195.2808	412.53069	-29.29212	-5.69569	-222.94558	-181.44841	65.0936	113.10013	0
885	-9.76404	382.4249	392.18894	-202.60383	-196.90814	388.12059	-43.93818	-29.29212	-239.21898	-192.83979	43.93818	105.7771	0
886	-21.15542	358.0148	379.98389	-187.95777	-196.90814	365.33783	-53.70222	-50.44754	-256.30605	-197.72181	23.59643	90.31737	0
887	-21.15542	348.25076	370.21985	-179.82107	-192.83979	348.25076	-58.58424	-62.65259	-269.32477	-195.2808	16.2734	78.11232	0
888	-13.83239	338.48672	359.64214	-169.24336	-187.95777	335.23204	-61.02525	-70.78929	-278.27514	-189.58511	21.96909	69.16195	0
889	-4.06835	323.02699	347.43709	-152.96996	-185.51676	323.84066	-58.58424	-80.55333	-283.15716	-183.07575	24.4101	63.46626	0
890	4.06835	308.38093	329.53635	-143.20592	-177.38006	313.26295	-49.63387	-95.19939	-282.34349	-175.75272	19.52808	61.83892	0
891	7.32303	293.73487	306.75359	-137.51023	-163.54767	297.80322	-43.12451	-115.54114	-276.6478	-170.05703	12.20505	59.39791	0
892	3.25468	271.76578	283.15716	-126.93252	-150.52895	277.46147	-39.86983	-135.88289	-266.07009	-171.68437	13.01872	52.07488	0
893	0	242.47366	257.93339	-112.28646	-139.13757	251.42403	-39.86983	-147.27427	-257.11972	-178.19373	26.03744	39.05616	0
894	-2.44101	219.6909	235.9643	-103.33609	-127.74619	228.64127	-42.31084	-143.20592	-246.54201	-177.38006	30.10579	26.85111	0
895	-2.44101	207.48585	218.87723	-100.89508	-116.35481	213.99521	-44.75185	-129.37353	-231.89595	-166.80235	21.15542	22.78276	0
896	0	191.21245	201.79016	-92.75838	-105.7771	196.90814	-48.00653	-117.98215	-221.31824	-156.22464	6.50936	22.78276	0
897	-1.62734	164.36134	183.07575	-74.85764	-99.26774	173.31171	-53.70222	-114.72747	-218.06356	-152.15629	-17.90074	17.90074	0
898	-8.95037	145.64693	168.42969	-61.83892	-93.57205	157.03831	-56.14323	-110.65912	-214.80888	-150.52895	-46.37919	13.01872	0
899	-13.01872	138.3239	154.5973	-58.58424	-86.24902	148.90161	-46.37919	-100.08141	-201.79016	-145.64693	-55.32956	13.01872	0
900	-12.20505	136.69656	141.57858	-58.58424	-82.18067	145.64693	-29.29212	-87.87636	-181.44841	-130.1872	-43.12451	16.2734	0
901	-8.95037	137.51023	135.06922	-59.39791	-82.18067	144.01959	-17.90074	-84.62168	-161.10666	-109.84545	-26.03744	17.08707	0
902	-3.25468	132.62821	128.55986	-59.39791	-80.55333	137.51023	-22.78276	-91.13104	-149.71528	-99.26774	-8.1367	9.76404	0
903	0	116.35481	117.16848	-52.88855	-74.85764	121.23683	-39.05616	-100.08141	-143.20592	-100.89508	9.76404	2.44101	0
904	0.81367	91.13104	104.14976	-36.61515	-70.78929	100.08141	-55.32956	-103.33609	-136.69656	-105.7771	12.20505	0.81367	0
905	-6.50936	69.16195	91.13104	-22.78276	-64.27993	80.55333	-64.27993	-102.52242	-128.55986	-106.59077	-1.62734	-5.69569	0
906	-22.78276	55.32956	79.73966	-15.45973	-56.9569	66.72094	-61.83892	-98.45407	-117.98215	-102.52242	-16.2734	-20.34175	0
907	-35.80148	41.49717	72.41663	-10.57771	-53.70222	56.14323	-48.8202	-92.75838	-108.21811	-90.31737	-34.98781	-32.5468	0
908	-36.61515	21.96909	65.0936	-5.69569	-53.70222	43.12451	-29.29212	-86.24902	-100.89508	-71.60296	-57.77057	-39.05616	0
909	-31.73313	3.25468	52.07488	0	-48.8202	27.66478	-13.01872	-74.04397	-90.31737	-54.51589	-65.0936	-43.12451	0
910	-24.4101	-5.69569	33.36047	4.88202	-35.80148	14.64606	-2.44101	-60.21158	-72.41663	-41.49717	-54.51589	-45.56552	0
911	-14.64606	-8.1367	15.45973	6.50936	-20.34175	4.88202	5.69569	-45.56552	-49.63387	-26.03744	-34.17414	-43.12451	0
912	-4.88202	-7.32303	1.62734	4.06835	-5.69569	-0.81367	13.01872	-30.91946	-25.22377	-7.32303	-4.88202	-37.42882	0
913	-4.06835	-8.95037	-3.25468	5.69569	2.44101	-5.69569	13.83239	-21.15542	-0.81367	8.1367	26.03744	-28.47845	0
914	-17.90074	-18.71441	-1.62734	17.90074	5.69569	-9.76404	7.32303	-16.2734	17.90074	17.90074	40.6835	-19.52808	0
915	-32.5468	-33.36047	-2.44101	33.36047	4.88202	-17.90074	-3.25468	-14.64606	27.66478	17.90074	32.5468	-21.96909	0
916	-33.36047	-49.63387	-16.2734	42.31084	8.1367	-33.36047	-13.83239	-18.71441	26.03744	11.39138	14.64606	-37.42882	0
917	-22.78276	-59.39791	-40.6835	39.86983	17.90074	-50.44754	-17.90074	-26.85111	17.08707	0	-12.20505	-56.14323	0
918	-10.57771	-61.02525	-63.46626	30.10579	26.03744	-62.65259	-17.90074	-35.80148	6.50936	-13.83239	-43.93818	-69.97562	0
919	-2.44101	-59.39791	-74.85764	22.78276	29.29212	-66.72094	-13.83239	-40.6835	0	-21.96909	-60.21158	-78.11232	0
920	3.25468	-55.32956	-68.34828	22.78276	30.91946	-61.02525	-7.32303	-37.42882	3.25468	-19.52808	-55.32956	-78.92599	0
921	4.06835	-50.44754	-50.44754	29.29212	28.47845	-47.19286	-1.62734	-27.66478	12.20505	-11.39138	-41.49717	-75.67131	0
922	0	-43.12451	-35.80148	37.42882	19.52808	-32.5468	-0.81367	-17.90074	23.59643	-0.81367	-37.42882	-71.60296	0
923	-3.25468	-35.80148	-29.29212	44.75185	12.20505	-23.59643	-4.88202	-13.01872	32.5468	9.76404	-46.37919	-68.34828	0
924	-6.50936	-39.05616	-27.66478	51.26121	6.50936	-26.03744	-10.57771	-11.39138	33.36047	16.2734	-50.44754	-70.78929	0
925	-9.76404	-49.63387	-29.29212	55.32956	2.44101	-34.98781	-15.45973	-8.1367	30.91946	21.15542	-40.6835	-70.78929	0
926	-12.20505	-56.9569	-30.91946	54.51589	-0.81367	-42.31084	-15.45973	-4.88202	31.73313	26.85111	-24.4101	-62.65259	0
927	-14.64606	-58.58424	-31.73313	48.8202	-4.06835	-44.75185	-12.20505	-8.95037	35.80148	34.98781	0	-52.07488	0
928	-16.2734	-54.51589	-29.29212	41.49717	-4.06835	-42.31084	-10.57771	-16.2734	41.49717	39.86983	27.66478	-43.93818	0
929	-15.45973	-43.93818	-26.03744	30.10579	1.62734	-34.17414	-8.1367	-25.22377	46.37919	39.05616	39.05616	-41.49717	0
930	-13.83239	-29.29212	-26.85111	15.45973	8.1367	-26.85111	-5.69569	-37.42882	48.8202	30.91946	27.66478	-44.75185	0
931	-8.1367	-19.52808	-31.73313	4.88202	12.20505	-24.4101	-5.69569	-41.49717	51.26121	21.15542	10.57771	-50.44754	0
932	0	-20.34175	-35.80148	4.06835	13.83239	-26.85111	-5.69569	-33.36047	54.51589	13.83239	3.25468	-54.51589	0
933	6.50936	-27.66478	-39.05616	7.32303	17.08707	-32.5468	-4.88202	-19.52808	56.14323	10.57771	8.1367	-51.26121	0
934	8.95037	-33.36047	-48.8202	8.1367	26.03744	-40.6835	-4.88202	-11.39138	51.26121	6.50936	7.32303	-43.12451	0
935	8.1367	-35.80148	-61.02525	7.32303	40.6835	-48.00653	-4.06835	-10.57771	43.93818	2.44101	-3.25468	-43.12451	0
936	4.06835	-39.86983	-65.90727	13.01872	48.8202	-52.88855	-4.06835	-10.57771	41.49717	0	-15.45973	-53.70222	0
937	0	-49.63387	-65.90727	22.78276	47.19286	-56.9569	-4.88202	-10.57771	43.12451	2.44101	-31.73313	-61.83892	0
938	-3.25468	-63.46626	-62.65259	30.10579	40.6835	-58.58424	-6.50936	-9.76404	48.00653	12.20505	-52.07488	-65.90727	0
939	-7.32303	-77.29865	-62.65259	39.05616	34.98781	-62.65259	-10.57771	-3.25468	56.9569	21.15542	-60.21158	-69.16195	0
940	-8.1367	-86.24902	-69.16195	44.75185	34.17414	-70.78929	-17.90074	5.69569	66.72094	26.85111	-52.07488	-74.04397	0
941	-4.88202	-89.5037	-78.11232	46.37919	36.61515	-78.92599	-21.15542	8.95037	67.53461	26.85111	-43.12451	-81.367	0
942	-6.50936	-91.94471	-88.69003	47.19286	34.17414	-87.06269	-18.71441	0	59.39791	25.22377	-48.8202	-89.5037	0
943	-16.2734	-91.94471	-92.75838	48.00653	28.47845	-94.38572	-14.64606	-9.76404	52.88855	28.47845	-66.72094	-94.38572	0
944	-25.22377	-91.94471	-88.69003	49.63387	22.78276	-95.19939	-6.50936	-9.76404	56.14323	34.98781	-70.78929	-93.57205	0
945	-29.29212	-90.31737	-78.92599	52.88855	17.90074	-89.5037	8.1367	0.81367	69.97562	40.6835	-55.32956	-84.62168	0
946	-23.59643	-84.62168	-68.34828	50.44754	19.52808	-81.367	23.59643	18.71441	87.87636	43.93818	-33.36047	-72.41663	0
947	-8.1367	-73.2303	-60.21158	39.86983	29.29212	-74.04397	35.80148	35.80148	104.96343	41.49717	-4.88202	-61.83892	0
948	8.95037	-59.39791	-57.77057	25.22377	39.86983	-65.90727	39.86983	48.00653	115.54114	34.17414	23.59643	-56.9569	0
949	24.4101	-48.8202	-56.14323	10.57771	46.37919	-59.39791	39.86983	55.32956	118.79582	28.47845	36.61515	-55.32956	0
950	34.98781	-43.12451	-50.44754	-2.44101	43.93818	-56.14323	35.80148	55.32956	116.35481	26.85111	29.29212	-56.9569	0
951	35.80148	-43.12451	-46.37919	-5.69569	34.98781	-56.9569	26.03744	50.44754	109.84545	23.59643	10.57771	-65.0936	0
952	28.47845	-46.37919	-47.19286	0.81367	28.47845	-58.58424	14.64606	44.75185	101.70875	18.71441	-2.44101	-74.85764	0
953	18.71441	-52.07488	-52.07488	8.95037	26.85111	-61.02525	9.76404	44.75185	98.45407	15.45973	-4.06835	-82.18067	0
954	10.57771	-57.77057	-58.58424	16.2734	27.66478	-65.0936	9.76404	51.26121	100.08141	17.90074	-5.69569	-89.5037	0
955	4.88202	-61.02525	-65.0936	21.96909	30.10579	-68.34828	12.20505	56.14323	103.33609	23.59643	-14.64606	-92.75838	0
956	0	-67.53461	-70.78929	30.91946	30.91946	-70.78929	12.20505	54.51589	106.59077	26.85111	-24.4101	-90.31737	0
957	-10.57771	-78.11232	-74.04397	43.12451	30.10579	-74.85764	15.45973	45.56552	105.7771	27.66478	-37.42882	-80.55333	0
958	-19.52808	-91.94471	-77.29865	56.14323	29.29212	-82.18067	20.34175	35.80148	101.70875	25.22377	-52.07488	-65.0936	0
959	-23.59643	-105.7771	-82.18067	65.0936	30.91946	-94.38572	20.34175	33.36047	100.89508	28.47845	-53.70222	-53.70222	0
960	-22.78276	-121.23683	-89.5037	69.97562	34.98781	-112.28646	13.01872	37.42882	102.52242	34.98781	-43.12451	-53.70222	0
961	-19.52808	-131.00087	-98.45407	70.78929	39.86983	-124.49151	4.06835	43.93818	108.21811	39.86983	-34.17414	-61.02525	0
962	-17.08707	-126.11885	-99.26774	67.53461	40.6835	-121.23683	1.62734	50.44754	120.42316	45.56552	-21.96909	-69.16195	0
963	-15.45973	-110.65912	-88.69003	59.39791	35.80148	-106.59077	8.1367	56.9569	133.44188	52.07488	-5.69569	-76.48498	0
964	-15.45973	-94.38572	-74.85764	52.07488	28.47845	-90.31737	21.15542	65.0936	144.01959	56.9569	1.62734	-82.18067	0
965	-14.64606	-80.55333	-65.90727	44.75185	27.66478	-75.67131	36.61515	71.60296	148.90161	56.9569	-0.81367	-82.99434	0
966	-10.57771	-70.78929	-65.90727	39.05616	35.80148	-65.0936	47.19286	70.78929	143.20592	52.88855	-9.76404	-78.92599	0
967	-4.06835	-62.65259	-68.34828	33.36047	39.86983	-57.77057	51.26121	65.90727	128.55986	46.37919	-8.95037	-72.41663	0
968	-0.81367	-59.39791	-69.16195	31.73313	39.86983	-56.14323	48.8202	61.83892	114.72747	43.12451	4.88202	-65.0936	0
969	-5.69569	-61.02525	-69.97562	39.05616	34.17414	-61.02525	38.24249	56.9569	109.84545	39.86983	8.95037	-61.83892	0
970	-17.90074	-68.34828	-65.90727	51.26121	24.4101	-69.97562	26.85111	51.26121	112.28646	34.98781	-3.25468	-63.46626	0
971	-33.36047	-81.367	-60.21158	63.46626	13.01872	-80.55333	21.96909	52.88855	112.28646	32.5468	-18.71441	-64.27993	0
972	-53.70222	-96.82673	-59.39791	82.99434	1.62734	-89.5037	24.4101	61.02525	111.47279	34.17414	-23.59643	-65.0936	0
973	-68.34828	-103.33609	-61.83892	98.45407	-4.06835	-96.01306	31.73313	68.34828	114.72747	40.6835	-14.64606	-68.34828	0
974	-60.21158	-97.6404	-69.16195	93.57205	3.25468	-97.6404	40.6835	74.04397	120.42316	48.00653	-5.69569	-70.78929	0
975	-33.36047	-87.06269	-80.55333	70.78929	22.78276	-94.38572	44.75185	78.11232	125.30518	51.26121	-4.88202	-69.16195	0
976	-7.32303	-79.73966	-87.87636	51.26121	43.12451	-91.13104	43.93818	76.48498	132.62821	51.26121	-7.32303	-62.65259	0
977	8.95037	-78.92599	-87.06269	43.12451	55.32956	-86.24902	36.61515	69.16195	139.95124	44.75185	-16.2734	-56.14323	0
978	14.64606	-80.55333	-81.367	39.86983	56.9569	-83.80801	27.66478	60.21158	144.83326	34.17414	-32.5468	-49.63387	0
979	9.76404	-83.80801	-78.11232	38.24249	51.26121	-85.43535	22.78276	57.77057	143.20592	26.85111	-42.31084	-45.56552	0
980	3.25468	-87.06269	-78.92599	39.05616	45.56552	-87.87636	23.59643	62.65259	138.3239	24.4101	-41.49717	-43.12451	0
981	0	-88.69003	-82.18067	39.86983	43.12451	-87.87636	30.10579	69.97562	132.62821	22.78276	-40.6835	-43.12451	0
982	0	-91.13104	-84.62168	39.86983	42.31084	-87.06269	39.05616	78.11232	128.55986	23.59643	-35.80148	-44.75185	0
983	-0.81367	-95.19939	-79.73966	41.49717	41.49717	-83.80801	47.19286	85.43535	126.93252	24.4101	-24.4101	-42.31084	0
984	-6.50936	-98.45407	-66.72094	47.19286	38.24249	-78.92599	50.44754	86.24902	126.93252	25.22377	-17.08707	-37.42882	0
985	-14.64606	-101.70875	-56.9569	55.32956	32.5468	-77.29865	44.75185	78.92599	126.11885	25.22377	-22.78276	-42.31084	0
986	-15.45973	-104.14976	-62.65259	59.39791	32.5468	-82.99434	34.17414	69.16195	125.30518	24.4101	-34.17414	-54.51589	0
987	-10.57771	-104.96343	-77.29865	57.77057	39.05616	-91.13104	28.47845	65.90727	125.30518	21.96909	-49.63387	-63.46626	0
988	-1.62734	-100.89508	-89.5037	50.44754	47.19286	-95.19939	27.66478	65.0936	125.30518	15.45973	-68.34828	-65.0936	0
