samplenr	I	II	III	aVR	aVL	aVF	V1	V2	V3	V4	V5	V6	measurement
0	0	-0.81367	0	1.62734	-0.81367	0	0	-1.62734	0	0	0	0	0
1	-3.25468	-6.50936	1.62734	7.32303	-4.88202	-2.44101	-2.44101	-8.95037	-3.25468	2.44101	2.44101	0.81367	0
2	-9.76404	-17.08707	0.81367	17.08707	-8.95037	-8.1367	-6.50936	-20.34175	-6.50936	5.69569	4.88202	1.62734	0
3	-16.2734	-30.10579	-4.06835	27.66478	-9.76404	-17.08707	-11.39138	-33.36047	-10.57771	8.1367	6.50936	1.62734	0
4	-21.15542	-43.12451	-10.57771	35.80148	-7.32303	-26.85111	-16.2734	-45.56552	-14.64606	9.76404	6.50936	0.81367	0
5	-23.59643	-52.88855	-17.90074	39.86983	-2.44101	-35.80148	-20.34175	-55.32956	-16.2734	11.39138	5.69569	0.81367	0
6	-26.03744	-61.02525	-26.85111	40.6835	0	-43.93818	-23.59643	-61.83892	-14.64606	13.01872	6.50936	2.44101	0
7	-28.47845	-66.72094	-36.61515	40.6835	1.62734	-51.26121	-25.22377	-63.46626	-12.20505	16.2734	9.76404	5.69569	0
8	-30.10579	-69.97562	-42.31084	39.05616	3.25468	-56.14323	-24.4101	-61.83892	-8.95037	20.34175	14.64606	10.57771	0
9	-29.29212	-69.16195	-43.12451	36.61515	3.25468	-55.32956	-22.78276	-59.39791	-4.88202	26.03744	20.34175	15.45973	0
10	-26.85111	-63.46626	-39.05616	33.36047	3.25468	-48.8202	-20.34175	-55.32956	-1.62734	30.91946	26.03744	20.34175	0
11	-22.78276	-54.51589	-33.36047	30.10579	3.25468	-39.05616	-17.08707	-51.26121	0.81367	36.61515	31.73313	26.03744	0
12	-18.71441	-43.12451	-26.03744	25.22377	2.44101	-26.85111	-10.57771	-46.37919	4.88202	43.93818	38.24249	33.36047	0
13	-15.45973	-30.10579	-16.2734	20.34175	0	-15.45973	-3.25468	-39.86983	11.39138	51.26121	47.19286	40.6835	0
14	-15.45973	-17.90074	-4.88202	17.08707	-5.69569	-4.06835	3.25468	-34.17414	17.90074	56.9569	56.9569	45.56552	0
15	-17.90074	-7.32303	8.1367	17.08707	-16.2734	4.88202	8.95037	-28.47845	21.15542	60.21158	62.65259	49.63387	0
16	-23.59643	0	20.34175	19.52808	-26.85111	12.20505	14.64606	-23.59643	21.15542	62.65259	65.90727	52.88855	0
17	-31.73313	0.81367	29.29212	22.78276	-35.80148	16.2734	17.90074	-20.34175	18.71441	65.0936	66.72094	55.32956	0
18	-38.24249	-1.62734	32.5468	26.85111	-40.6835	15.45973	19.52808	-21.15542	17.08707	65.0936	65.0936	55.32956	0
19	-42.31084	-8.1367	29.29212	30.91946	-39.86983	9.76404	17.90074	-23.59643	15.45973	63.46626	61.02525	52.88855	0
20	-43.93818	-15.45973	20.34175	33.36047	-34.17414	0	17.08707	-27.66478	16.2734	61.02525	56.14323	49.63387	0
21	-42.31084	-21.96909	8.95037	34.98781	-26.03744	-8.95037	15.45973	-30.10579	18.71441	58.58424	52.07488	46.37919	0
22	-36.61515	-25.22377	0.81367	33.36047	-19.52808	-15.45973	13.83239	-32.5468	20.34175	56.9569	48.00653	43.12451	0
23	-32.5468	-25.22377	-1.62734	30.91946	-15.45973	-16.2734	12.20505	-34.98781	21.15542	54.51589	46.37919	39.05616	0
24	-33.36047	-23.59643	0.81367	29.29212	-17.90074	-13.83239	10.57771	-37.42882	21.15542	51.26121	46.37919	34.17414	0
25	-39.05616	-19.52808	6.50936	28.47845	-26.03744	-8.95037	7.32303	-39.05616	21.15542	48.00653	45.56552	30.10579	0
26	-45.56552	-17.08707	11.39138	30.10579	-37.42882	-5.69569	4.88202	-39.05616	22.78276	45.56552	43.93818	26.85111	0
27	-49.63387	-17.90074	15.45973	32.5468	-48.00653	-4.06835	3.25468	-36.61515	26.85111	45.56552	43.93818	26.03744	0
28	-49.63387	-18.71441	18.71441	34.98781	-52.88855	-2.44101	3.25468	-32.5468	31.73313	48.00653	45.56552	27.66478	0
29	-44.75185	-17.08707	18.71441	32.5468	-50.44754	-1.62734	5.69569	-28.47845	35.80148	51.26121	48.00653	30.10579	0
30	-36.61515	-10.57771	17.90074	25.22377	-43.12451	-3.25468	8.1367	-24.4101	41.49717	55.32956	51.26121	33.36047	0
31	-28.47845	-0.81367	18.71441	14.64606	-36.61515	-4.88202	10.57771	-21.15542	48.00653	59.39791	54.51589	36.61515	0
32	-21.96909	7.32303	22.78276	2.44101	-31.73313	-3.25468	13.83239	-17.90074	55.32956	63.46626	56.9569	39.86983	0
33	-17.90074	14.64606	26.85111	-9.76404	-28.47845	1.62734	17.90074	-14.64606	62.65259	67.53461	58.58424	41.49717	0
34	-10.57771	21.15542	30.91946	-21.15542	-22.78276	8.95037	21.96909	-10.57771	68.34828	71.60296	58.58424	41.49717	0
35	-2.44101	27.66478	36.61515	-30.10579	-14.64606	18.71441	26.85111	-6.50936	70.78929	74.04397	58.58424	41.49717	0
36	4.06835	34.17414	39.86983	-37.42882	-5.69569	27.66478	30.91946	-4.06835	70.78929	76.48498	58.58424	41.49717	0
37	8.95037	40.6835	41.49717	-42.31084	-0.81367	34.98781	33.36047	-1.62734	67.53461	78.11232	58.58424	40.6835	0
38	11.39138	43.93818	40.6835	-43.93818	0	39.05616	34.98781	0	64.27993	78.11232	58.58424	39.05616	0
39	11.39138	43.93818	39.86983	-40.6835	0	39.05616	34.17414	1.62734	61.02525	74.85764	56.14323	34.98781	0
40	8.1367	39.86983	43.12451	-34.17414	-4.88202	36.61515	30.10579	2.44101	57.77057	69.97562	52.07488	29.29212	0
41	4.88202	34.17414	48.00653	-27.66478	-8.95037	34.17414	23.59643	2.44101	56.9569	64.27993	48.00653	25.22377	0
42	1.62734	32.5468	53.70222	-21.96909	-13.83239	35.80148	17.90074	3.25468	56.14323	61.02525	45.56552	23.59643	0
43	0	35.80148	58.58424	-16.2734	-18.71441	40.6835	9.76404	4.88202	53.70222	61.02525	48.00653	26.03744	0
44	0	43.12451	64.27993	-12.20505	-25.22377	48.00653	0.81367	3.25468	49.63387	65.0936	61.83892	31.73313	0
45	-3.25468	51.26121	71.60296	-9.76404	-34.98781	56.14323	-8.1367	-3.25468	44.75185	74.85764	87.06269	34.98781	0
46	-8.95037	56.14323	78.11232	-7.32303	-46.37919	61.83892	-17.90074	-13.83239	39.05616	80.55333	105.7771	33.36047	0
47	-13.01872	56.9569	83.80801	-6.50936	-55.32956	66.72094	-27.66478	-26.03744	34.17414	78.11232	106.59077	30.10579	0
48	-15.45973	58.58424	87.06269	-7.32303	-61.02525	69.97562	-35.80148	-37.42882	30.10579	71.60296	97.6404	25.22377	0
49	-13.83239	60.21158	90.31737	-11.39138	-61.83892	71.60296	-40.6835	-46.37919	27.66478	64.27993	85.43535	22.78276	0
50	-8.1367	60.21158	93.57205	-17.08707	-59.39791	69.97562	-41.49717	-52.88855	26.03744	59.39791	74.04397	22.78276	0
51	0	61.02525	94.38572	-26.03744	-53.70222	68.34828	-39.86983	-56.14323	24.4101	55.32956	62.65259	23.59643	0
52	8.1367	64.27993	89.5037	-38.24249	-44.75185	67.53461	-38.24249	-56.9569	21.15542	51.26121	52.07488	23.59643	0
53	19.52808	69.97562	79.73966	-50.44754	-32.5468	65.90727	-38.24249	-58.58424	18.71441	45.56552	42.31084	23.59643	0
54	31.73313	76.48498	69.16195	-59.39791	-20.34175	65.90727	-39.05616	-61.02525	15.45973	39.05616	34.17414	24.4101	0
55	38.24249	80.55333	61.02525	-65.90727	-13.01872	67.53461	-40.6835	-64.27993	11.39138	31.73313	26.03744	23.59643	0
56	39.05616	82.18067	53.70222	-69.16195	-9.76404	70.78929	-43.12451	-67.53461	6.50936	24.4101	16.2734	19.52808	0
57	37.42882	78.92599	47.19286	-70.78929	-7.32303	70.78929	-45.56552	-69.97562	0.81367	17.90074	8.1367	13.83239	0
58	35.80148	74.85764	41.49717	-68.34828	-4.88202	67.53461	-48.00653	-70.78929	-2.44101	13.01872	0.81367	8.95037	0
59	36.61515	71.60296	35.80148	-62.65259	-0.81367	61.02525	-48.8202	-69.97562	-4.88202	10.57771	-2.44101	5.69569	0
60	37.42882	69.97562	34.17414	-57.77057	0	53.70222	-49.63387	-69.97562	-5.69569	12.20505	-3.25468	4.88202	0
61	33.36047	65.0936	35.80148	-49.63387	-0.81367	46.37919	-48.00653	-68.34828	-4.88202	14.64606	-2.44101	5.69569	0
62	22.78276	57.77057	39.86983	-40.6835	-7.32303	41.49717	-46.37919	-66.72094	-4.06835	17.90074	-1.62734	6.50936	0
63	8.1367	48.00653	43.93818	-31.73313	-16.2734	37.42882	-44.75185	-65.90727	-4.88202	20.34175	0	5.69569	0
64	-4.06835	39.86983	43.93818	-23.59643	-23.59643	34.98781	-42.31084	-65.90727	-4.88202	21.96909	1.62734	4.06835	0
65	-13.01872	32.5468	39.05616	-17.90074	-26.85111	34.17414	-40.6835	-66.72094	-6.50936	22.78276	3.25468	2.44101	0
66	-18.71441	27.66478	34.17414	-14.64606	-28.47845	32.5468	-39.86983	-67.53461	-8.95037	23.59643	3.25468	2.44101	0
67	-22.78276	23.59643	30.91946	-13.01872	-29.29212	29.29212	-39.86983	-69.16195	-11.39138	21.96909	0.81367	1.62734	0
68	-24.4101	17.08707	26.85111	-8.95037	-27.66478	24.4101	-39.05616	-69.16195	-13.83239	19.52808	-1.62734	0.81367	0
69	-27.66478	9.76404	21.15542	-2.44101	-25.22377	17.90074	-37.42882	-68.34828	-14.64606	17.08707	-4.06835	0.81367	0
70	-31.73313	0.81367	14.64606	5.69569	-21.15542	8.95037	-34.17414	-67.53461	-13.01872	15.45973	-5.69569	1.62734	0
71	-34.98781	-8.1367	8.95037	16.2734	-18.71441	0	-31.73313	-66.72094	-8.95037	15.45973	-5.69569	4.06835	0
72	-35.80148	-17.90074	4.88202	25.22377	-17.08707	-8.1367	-27.66478	-63.46626	-5.69569	17.08707	-4.88202	7.32303	0
73	-36.61515	-25.22377	1.62734	32.5468	-16.2734	-13.01872	-23.59643	-60.21158	-3.25468	19.52808	-0.81367	11.39138	0
74	-39.05616	-31.73313	0	37.42882	-16.2734	-15.45973	-18.71441	-57.77057	-1.62734	21.96909	3.25468	14.64606	0
75	-39.05616	-38.24249	-4.88202	41.49717	-14.64606	-14.64606	-15.45973	-56.14323	0.81367	22.78276	7.32303	17.08707	0
76	-34.17414	-41.49717	-8.95037	42.31084	-8.95037	-11.39138	-13.83239	-55.32956	1.62734	21.96909	8.1367	18.71441	0
77	-25.22377	-41.49717	-13.01872	42.31084	-0.81367	-11.39138	-14.64606	-56.14323	0	19.52808	7.32303	18.71441	0
78	-16.2734	-41.49717	-19.52808	40.6835	6.50936	-14.64606	-16.2734	-56.14323	-1.62734	17.08707	4.88202	17.90074	0
79	-12.20505	-41.49717	-26.03744	39.05616	9.76404	-21.15542	-17.90074	-56.9569	-4.06835	15.45973	0.81367	18.71441	0
80	-13.01872	-39.86983	-34.98781	38.24249	5.69569	-29.29212	-18.71441	-57.77057	-5.69569	15.45973	0	21.15542	0
81	-17.90074	-38.24249	-43.12451	38.24249	0	-34.17414	-18.71441	-58.58424	-7.32303	17.08707	1.62734	23.59643	0
82	-25.22377	-40.6835	-46.37919	40.6835	-6.50936	-37.42882	-19.52808	-61.02525	-9.76404	17.90074	4.88202	24.4101	0
83	-37.42882	-47.19286	-45.56552	49.63387	-13.83239	-42.31084	-21.15542	-64.27993	-12.20505	16.2734	5.69569	21.96909	0
84	-52.07488	-53.70222	-39.05616	61.83892	-22.78276	-48.00653	-21.96909	-68.34828	-14.64606	13.83239	4.88202	17.90074	0
85	-64.27993	-58.58424	-30.10579	70.78929	-28.47845	-53.70222	-22.78276	-69.16195	-14.64606	12.20505	4.88202	14.64606	0
86	-67.53461	-59.39791	-21.96909	72.41663	-30.10579	-54.51589	-22.78276	-67.53461	-12.20505	13.01872	7.32303	13.83239	0
87	-63.46626	-56.14323	-16.2734	66.72094	-27.66478	-50.44754	-21.96909	-64.27993	-8.95037	14.64606	11.39138	14.64606	0
88	-54.51589	-48.8202	-11.39138	58.58424	-22.78276	-43.93818	-18.71441	-59.39791	-5.69569	16.2734	16.2734	16.2734	0
89	-43.93818	-40.6835	-10.57771	48.8202	-17.08707	-35.80148	-15.45973	-55.32956	-3.25468	17.90074	21.96909	19.52808	0
90	-35.80148	-36.61515	-12.20505	41.49717	-13.83239	-28.47845	-13.83239	-52.07488	-3.25468	19.52808	26.03744	21.96909	0
91	-33.36047	-39.05616	-15.45973	41.49717	-13.01872	-25.22377	-13.83239	-49.63387	-4.88202	19.52808	29.29212	22.78276	0
92	-35.80148	-48.00653	-17.08707	47.19286	-15.45973	-27.66478	-13.83239	-48.8202	-7.32303	18.71441	30.91946	23.59643	0
93	-42.31084	-59.39791	-17.08707	56.9569	-19.52808	-32.5468	-13.01872	-48.8202	-8.1367	17.08707	31.73313	23.59643	0
94	-48.8202	-68.34828	-18.71441	64.27993	-21.96909	-35.80148	-10.57771	-49.63387	-8.1367	16.2734	30.91946	23.59643	0
95	-48.8202	-74.04397	-23.59643	65.90727	-19.52808	-37.42882	-7.32303	-50.44754	-7.32303	17.08707	30.91946	25.22377	0
96	-43.12451	-74.04397	-26.85111	61.83892	-10.57771	-39.05616	-2.44101	-52.88855	-6.50936	17.90074	32.5468	27.66478	0
97	-30.91946	-70.78929	-31.73313	52.07488	0	-41.49717	0	-54.51589	-4.88202	17.90074	34.17414	30.10579	0
98	-18.71441	-63.46626	-36.61515	40.6835	10.57771	-43.12451	0.81367	-54.51589	-1.62734	18.71441	36.61515	32.5468	0
99	-8.95037	-53.70222	-39.86983	30.91946	16.2734	-43.93818	0.81367	-52.88855	1.62734	18.71441	39.05616	34.98781	0
100	-6.50936	-43.12451	-42.31084	23.59643	13.01872	-44.75185	0.81367	-51.26121	4.88202	21.15542	42.31084	37.42882	1000	P+0
101	-10.57771	-36.61515	-41.49717	21.96909	5.69569	-45.56552	0	-51.26121	5.69569	21.96909	43.93818	39.86983	0
102	-18.71441	-36.61515	-36.61515	25.22377	-0.81367	-45.56552	-1.62734	-53.70222	4.06835	20.34175	43.12451	39.05616	0
103	-30.10579	-43.93818	-32.5468	30.10579	-8.1367	-46.37919	-4.88202	-57.77057	2.44101	17.90074	39.05616	37.42882	0
104	-43.93818	-53.70222	-27.66478	36.61515	-17.08707	-48.8202	-8.1367	-61.83892	0.81367	14.64606	34.17414	33.36047	0
105	-58.58424	-62.65259	-22.78276	46.37919	-26.03744	-49.63387	-10.57771	-66.72094	0	11.39138	27.66478	30.10579	0
106	-70.78929	-70.78929	-18.71441	59.39791	-33.36047	-50.44754	-12.20505	-72.41663	-0.81367	8.1367	23.59643	28.47845	0
107	-80.55333	-80.55333	-17.08707	71.60296	-38.24249	-52.88855	-13.83239	-77.29865	0	5.69569	21.96909	27.66478	0
108	-91.94471	-92.75838	-15.45973	81.367	-43.12451	-56.9569	-15.45973	-78.92599	0	4.06835	19.52808	28.47845	0
109	-100.08141	-102.52242	-15.45973	89.5037	-47.19286	-59.39791	-17.08707	-78.11232	0	2.44101	17.08707	29.29212	0
110	-101.70875	-104.14976	-18.71441	91.94471	-48.8202	-56.14323	-16.2734	-74.85764	0	3.25468	17.90074	33.36047	0
111	-94.38572	-96.01306	-23.59643	87.06269	-47.19286	-47.19286	-13.83239	-69.16195	0.81367	7.32303	22.78276	39.05616	0
112	-78.92599	-79.73966	-25.22377	76.48498	-39.86983	-37.42882	-8.1367	-61.83892	5.69569	13.83239	30.91946	47.19286	0
113	-61.02525	-61.83892	-22.78276	64.27993	-31.73313	-26.85111	-0.81367	-52.88855	13.01872	20.34175	40.6835	55.32956	0
114	-46.37919	-48.00653	-17.08707	52.88855	-26.85111	-20.34175	7.32303	-43.12451	21.15542	26.85111	50.44754	64.27993	0
115	-37.42882	-40.6835	-10.57771	44.75185	-27.66478	-21.15542	16.2734	-32.5468	29.29212	31.73313	56.9569	70.78929	0
116	-34.98781	-40.6835	-5.69569	43.12451	-31.73313	-25.22377	23.59643	-21.15542	37.42882	34.98781	61.02525	72.41663	0
117	-37.42882	-48.00653	-5.69569	47.19286	-34.17414	-32.5468	30.91946	-8.1367	44.75185	38.24249	61.83892	70.78929	0
118	-43.12451	-61.83892	-10.57771	54.51589	-34.17414	-43.12451	39.05616	4.88202	50.44754	39.86983	61.02525	67.53461	0
119	-49.63387	-80.55333	-17.90074	64.27993	-31.73313	-56.9569	47.19286	19.52808	53.70222	40.6835	58.58424	61.83892	0
120	-55.32956	-100.89508	-27.66478	73.2303	-27.66478	-70.78929	56.14323	35.80148	54.51589	39.86983	54.51589	56.14323	0
121	-54.51589	-122.86417	-46.37919	81.367	-14.64606	-89.5037	62.65259	52.07488	49.63387	34.17414	46.37919	46.37919	0
122	-40.6835	-144.01959	-82.18067	84.62168	13.01872	-116.35481	63.46626	68.34828	37.42882	21.96909	31.73313	30.91946	0
123	-11.39138	-163.54767	-133.44188	80.55333	56.14323	-151.34262	57.77057	88.69003	19.52808	2.44101	9.76404	8.95037	0
124	29.29212	-180.63474	-196.90814	69.16195	109.84545	-189.58511	48.8202	114.72747	-2.44101	-17.90074	-8.95037	-7.32303	0
125	78.92599	-190.39878	-263.62908	50.44754	168.42969	-228.64127	35.80148	148.08794	-27.66478	-36.61515	-17.08707	-10.57771	0
126	131.00087	-191.21245	-323.84066	26.03744	225.38659	-258.74706	20.34175	183.07575	-53.70222	-58.58424	-30.91946	-20.34175	0
127	184.70309	-179.0074	-369.40618	-5.69569	277.46147	-275.02046	0	212.36787	-78.92599	-87.06269	-57.77057	-46.37919	0
128	242.47366	-148.08794	-398.6983	-49.63387	322.21332	-274.20679	-23.59643	223.75925	-104.14976	-118.79582	-93.57205	-81.367	0
129	305.12625	-97.6404	-410.08968	-104.96343	359.64214	-253.86504	-54.51589	213.99521	-127.74619	-150.52895	-131.81454	-120.42316	0
130	367.77884	-28.47845	-401.95298	-171.68437	390.5616	-214.80888	-89.5037	181.44841	-148.90161	-179.82107	-169.24336	-158.66565	0
131	423.92207	52.07488	-379.98389	-243.28733	413.34436	-163.54767	-124.49151	128.55986	-165.17501	-203.4175	-203.4175	-192.83979	0
132	469.48759	132.62821	-351.50544	-310.00827	427.17675	-108.21811	-157.85198	61.83892	-174.93905	-221.31824	-231.08228	-220.50457	0
133	503.66173	200.16282	-321.39965	-362.89682	431.2451	-59.39791	-188.77144	-15.45973	-178.19373	-231.08228	-251.42403	-240.84632	0
134	523.18981	247.35568	-294.54854	-396.25729	426.36308	-22.78276	-215.62255	-104.14976	-178.19373	-233.52329	-264.44275	-252.2377	0
135	525.63082	274.20679	-272.57945	-410.08968	412.53069	0	-237.59164	-201.79016	-175.75272	-227.8276	-267.69743	-253.05137	0
136	502.84806	284.7845	-240.03265	-402.76665	381.61123	21.96909	-253.86504	-305.93992	-167.61602	-213.18154	-257.11972	-240.84632	0
137	449.95951	285.59817	-184.70309	-375.10187	323.84066	49.63387	-266.07009	-414.9717	-154.5973	-187.95777	-232.70962	-213.18154	0
138	371.84719	279.90248	-109.84545	-331.97736	244.101	84.62168	-275.02046	-522.37614	-141.57858	-157.03831	-197.72181	-178.19373	0
139	281.52982	268.5111	-28.47845	-279.90248	155.41097	120.42316	-282.34349	-618.3892	-129.37353	-124.49151	-159.47932	-142.39225	0
140	191.21245	252.2377	44.75185	-225.38659	69.16195	153.78363	-288.03918	-694.87418	-122.0505	-95.19939	-121.23683	-106.59077	0
141	109.03178	233.52329	109.03178	-173.31171	-6.50936	179.0074	-292.10753	-748.5764	-118.79582	-69.16195	-86.24902	-69.97562	0
142	37.42882	211.5542	161.10666	-125.30518	-69.16195	195.2808	-293.73487	-778.68219	-117.98215	-48.00653	-54.51589	-34.98781	0
143	-20.34175	187.1441	198.53548	-83.80801	-117.16848	200.97649	-292.10753	-788.44623	-117.16848	-30.10579	-27.66478	-3.25468	0
144	-62.65259	161.92033	217.24989	-51.26121	-147.27427	196.09447	-285.59817	-778.68219	-116.35481	-16.2734	-6.50936	21.15542	0
145	-90.31737	135.06922	213.99521	-25.22377	-157.85198	179.82107	-271.76578	-750.20374	-111.47279	-5.69569	8.95037	41.49717	0
146	-106.59077	109.03178	195.2808	-4.06835	-152.96996	155.41097	-251.42403	-705.45189	-104.14976	0.81367	20.34175	55.32956	0
147	-114.72747	82.99434	171.68437	11.39138	-141.57858	129.37353	-226.20026	-650.12233	-93.57205	6.50936	28.47845	63.46626	0
148	-117.16848	57.77057	148.08794	25.22377	-129.37353	104.14976	-199.34915	-587.46974	-82.99434	8.95037	33.36047	65.90727	0
149	-117.16848	34.17414	126.11885	35.80148	-119.60949	80.55333	-171.68437	-519.12146	-71.60296	11.39138	36.61515	65.90727	0
150	-114.72747	12.20505	104.14976	43.93818	-111.47279	58.58424	-143.20592	-447.5185	-57.77057	13.83239	38.24249	64.27993	0
151	-108.21811	-3.25468	85.43535	49.63387	-102.52242	40.6835	-115.54114	-375.91554	-43.93818	16.2734	39.86983	61.83892	0
152	-98.45407	-13.01872	69.97562	50.44754	-91.94471	28.47845	-90.31737	-308.38093	-28.47845	19.52808	40.6835	58.58424	0
153	-86.24902	-16.2734	59.39791	48.00653	-80.55333	21.15542	-66.72094	-247.35568	-12.20505	23.59643	41.49717	54.51589	0
154	-75.67131	-14.64606	52.88855	42.31084	-71.60296	20.34175	-46.37919	-194.46713	3.25468	27.66478	42.31084	51.26121	0
155	-67.53461	-10.57771	49.63387	37.42882	-65.0936	25.22377	-28.47845	-151.34262	16.2734	31.73313	42.31084	48.8202	0
156	-61.02525	-5.69569	49.63387	31.73313	-58.58424	32.5468	-13.83239	-117.16848	24.4101	33.36047	40.6835	45.56552	0
157	-55.32956	0	48.8202	24.4101	-51.26121	37.42882	-4.06835	-91.94471	27.66478	34.17414	37.42882	42.31084	0
158	-48.8202	3.25468	46.37919	17.08707	-43.93818	38.24249	1.62734	-74.85764	28.47845	33.36047	32.5468	39.05616	0
159	-42.31084	6.50936	44.75185	12.20505	-38.24249	34.98781	4.06835	-64.27993	26.85111	30.91946	27.66478	35.80148	0
160	-38.24249	7.32303	46.37919	10.57771	-35.80148	29.29212	4.06835	-57.77057	26.03744	28.47845	22.78276	32.5468	0
161	-38.24249	6.50936	48.8202	11.39138	-36.61515	24.4101	4.06835	-52.07488	25.22377	27.66478	20.34175	32.5468	0
162	-41.49717	4.88202	52.88855	13.83239	-41.49717	21.96909	5.69569	-46.37919	26.03744	29.29212	21.15542	34.98781	0
163	-48.8202	1.62734	58.58424	17.90074	-48.8202	21.96909	8.95037	-39.86983	26.85111	30.91946	23.59643	39.86983	0
164	-56.9569	-1.62734	60.21158	21.96909	-54.51589	23.59643	12.20505	-34.98781	28.47845	31.73313	27.66478	46.37919	0
165	-60.21158	-6.50936	56.14323	26.03744	-56.14323	28.47845	14.64606	-31.73313	29.29212	31.73313	30.91946	49.63387	0
166	-58.58424	-10.57771	52.88855	27.66478	-52.07488	33.36047	17.08707	-30.91946	29.29212	30.10579	31.73313	50.44754	0
167	-56.14323	-13.01872	49.63387	27.66478	-47.19286	34.98781	17.90074	-30.91946	28.47845	27.66478	33.36047	48.8202	0
168	-51.26121	-15.45973	43.93818	26.85111	-42.31084	31.73313	17.08707	-31.73313	28.47845	24.4101	34.17414	45.56552	0
169	-46.37919	-17.90074	35.80148	26.03744	-34.98781	26.03744	15.45973	-30.91946	26.85111	20.34175	34.98781	41.49717	0
170	-42.31084	-21.15542	25.22377	26.03744	-26.03744	21.15542	13.83239	-30.91946	26.03744	17.08707	36.61515	37.42882	0
171	-40.6835	-24.4101	16.2734	28.47845	-20.34175	14.64606	12.20505	-29.29212	26.85111	14.64606	39.05616	33.36047	0
172	-40.6835	-27.66478	11.39138	30.91946	-17.90074	8.1367	11.39138	-27.66478	27.66478	13.83239	42.31084	30.91946	0
173	-42.31084	-28.47845	12.20505	34.17414	-20.34175	4.88202	10.57771	-26.85111	27.66478	13.83239	45.56552	28.47845	0
174	-48.00653	-29.29212	18.71441	38.24249	-26.85111	3.25468	8.95037	-26.03744	26.85111	13.83239	47.19286	25.22377	0
175	-56.14323	-30.91946	31.73313	43.12451	-34.98781	0	6.50936	-24.4101	26.85111	13.83239	48.00653	22.78276	0
176	-60.21158	-29.29212	46.37919	44.75185	-39.86983	0	3.25468	-21.15542	27.66478	15.45973	50.44754	22.78276	0
177	-57.77057	-20.34175	58.58424	40.6835	-43.12451	4.06835	0	-19.52808	26.85111	19.52808	56.14323	26.85111	0
178	-52.07488	-8.95037	64.27993	35.80148	-43.93818	12.20505	0	-17.08707	26.03744	21.96909	60.21158	30.10579	0
179	-46.37919	-0.81367	62.65259	32.5468	-43.12451	18.71441	0	-13.83239	25.22377	22.78276	62.65259	31.73313	0
180	-43.12451	0	56.14323	30.91946	-42.31084	22.78276	0.81367	-10.57771	25.22377	21.96909	61.83892	32.5468	0
181	-43.93818	-1.62734	48.8202	32.5468	-43.93818	22.78276	3.25468	-7.32303	24.4101	19.52808	59.39791	31.73313	0
182	-48.8202	-8.95037	42.31084	37.42882	-45.56552	19.52808	4.88202	-5.69569	21.96909	14.64606	53.70222	28.47845	0
183	-55.32956	-18.71441	36.61515	44.75185	-48.00653	13.01872	4.88202	-5.69569	19.52808	8.95037	46.37919	24.4101	0
184	-61.02525	-28.47845	32.5468	51.26121	-48.00653	4.06835	4.06835	-7.32303	17.08707	1.62734	36.61515	17.90074	0
185	-65.0936	-36.61515	30.91946	55.32956	-43.93818	-6.50936	3.25468	-8.1367	16.2734	-2.44101	28.47845	13.01872	0
186	-67.53461	-39.86983	29.29212	56.14323	-39.05616	-14.64606	3.25468	-6.50936	20.34175	-4.88202	24.4101	11.39138	0
187	-67.53461	-36.61515	29.29212	57.77057	-35.80148	-14.64606	4.06835	-0.81367	26.85111	-3.25468	24.4101	13.01872	0
188	-69.16195	-30.10579	33.36047	56.14323	-37.42882	-9.76404	4.88202	4.06835	33.36047	-0.81367	26.85111	16.2734	0
189	-74.04397	-24.4101	41.49717	53.70222	-44.75185	-4.06835	7.32303	8.95037	37.42882	0	29.29212	19.52808	0
190	-79.73966	-21.96909	49.63387	51.26121	-53.70222	1.62734	10.57771	13.01872	39.86983	0.81367	30.91946	20.34175	0
191	-77.29865	-18.71441	53.70222	46.37919	-55.32956	6.50936	12.20505	16.2734	43.12451	0.81367	30.91946	20.34175	0
192	-63.46626	-10.57771	50.44754	34.17414	-49.63387	11.39138	14.64606	20.34175	46.37919	1.62734	31.73313	20.34175	0
193	-41.49717	2.44101	43.93818	17.08707	-37.42882	17.08707	17.90074	25.22377	48.8202	2.44101	32.5468	21.15542	0
194	-17.90074	18.71441	37.42882	0	-23.59643	23.59643	21.15542	29.29212	50.44754	3.25468	31.73313	19.52808	0
195	0	34.17414	33.36047	-13.83239	-10.57771	30.91946	24.4101	32.5468	50.44754	3.25468	30.91946	18.71441	0
196	12.20505	47.19286	31.73313	-22.78276	-1.62734	37.42882	27.66478	34.17414	48.8202	4.06835	31.73313	18.71441	0
197	17.08707	52.07488	30.10579	-27.66478	0	39.86983	30.10579	34.98781	48.00653	4.06835	33.36047	20.34175	0
198	15.45973	49.63387	29.29212	-28.47845	0	39.05616	30.10579	34.98781	46.37919	3.25468	34.98781	21.15542	0
199	13.01872	43.12451	27.66478	-26.85111	-1.62734	35.80148	29.29212	35.80148	44.75185	1.62734	35.80148	21.15542	0
200	13.01872	36.61515	25.22377	-25.22377	-1.62734	31.73313	28.47845	36.61515	43.12451	-0.81367	35.80148	20.34175	0
201	13.83239	30.10579	20.34175	-23.59643	0	26.03744	26.03744	37.42882	42.31084	-4.06835	34.98781	19.52808	0
202	12.20505	23.59643	16.2734	-18.71441	0	21.15542	25.22377	39.86983	42.31084	-6.50936	34.98781	19.52808	0
203	8.1367	17.08707	14.64606	-13.01872	-3.25468	17.90074	25.22377	43.12451	39.86983	-7.32303	35.80148	20.34175	0
204	1.62734	10.57771	17.08707	-6.50936	-8.95037	16.2734	25.22377	47.19286	37.42882	-8.95037	36.61515	19.52808	0
205	-3.25468	4.06835	21.96909	0	-18.71441	18.71441	24.4101	52.07488	35.80148	-10.57771	35.80148	18.71441	0
206	-10.57771	-0.81367	26.85111	4.88202	-30.10579	20.34175	24.4101	56.9569	34.98781	-11.39138	34.17414	19.52808	0
207	-16.2734	-2.44101	30.10579	8.1367	-37.42882	21.96909	24.4101	64.27993	36.61515	-9.76404	33.36047	22.78276	0
208	-17.90074	-0.81367	30.91946	7.32303	-39.05616	23.59643	26.03744	73.2303	39.86983	-7.32303	33.36047	28.47845	0
209	-17.08707	0.81367	28.47845	5.69569	-34.17414	23.59643	29.29212	82.18067	42.31084	-4.06835	34.17414	34.98781	0
210	-16.2734	3.25468	21.96909	4.06835	-26.03744	23.59643	30.91946	89.5037	43.93818	-1.62734	33.36047	40.6835	0
211	-16.2734	4.06835	13.01872	4.06835	-19.52808	22.78276	32.5468	95.19939	46.37919	-0.81367	31.73313	45.56552	0
212	-16.2734	4.88202	8.1367	4.88202	-15.45973	21.96909	34.17414	101.70875	48.8202	-0.81367	30.10579	49.63387	0
213	-14.64606	8.1367	6.50936	4.06835	-13.01872	21.96909	37.42882	109.03178	50.44754	0	30.10579	54.51589	0
214	-12.20505	13.01872	9.76404	3.25468	-13.01872	21.15542	41.49717	117.16848	52.07488	0.81367	30.91946	58.58424	0
215	-13.01872	17.90074	17.08707	1.62734	-15.45973	20.34175	44.75185	125.30518	52.88855	0.81367	30.91946	61.02525	0
216	-13.83239	22.78276	25.22377	0	-17.08707	19.52808	46.37919	131.81454	52.07488	0	30.10579	63.46626	0
217	-16.2734	23.59643	30.10579	0	-16.2734	19.52808	47.19286	138.3239	51.26121	0	29.29212	64.27993	0
218	-17.90074	21.96909	32.5468	0	-17.08707	18.71441	49.63387	144.83326	49.63387	0	30.10579	66.72094	0
219	-17.90074	19.52808	31.73313	-0.81367	-17.08707	17.08707	53.70222	152.15629	48.8202	0	33.36047	69.97562	0
220	-15.45973	17.08707	27.66478	-4.88202	-17.90074	15.45973	58.58424	159.47932	48.00653	1.62734	35.80148	73.2303	0
221	-9.76404	17.90074	24.4101	-10.57771	-17.08707	14.64606	65.0936	167.61602	45.56552	2.44101	37.42882	74.85764	0
222	0	21.15542	19.52808	-17.90074	-13.01872	15.45973	70.78929	175.75272	43.12451	4.06835	39.05616	75.67131	0
223	9.76404	24.4101	13.83239	-25.22377	-5.69569	15.45973	74.04397	184.70309	39.86983	4.88202	39.05616	76.48498	0
224	17.90074	26.03744	3.25468	-30.91946	2.44101	13.83239	74.85764	192.83979	35.80148	4.06835	34.98781	76.48498	0
225	26.03744	29.29212	-8.95037	-34.17414	10.57771	12.20505	74.04397	200.97649	32.5468	2.44101	28.47845	73.2303	0
226	35.80148	30.91946	-20.34175	-34.98781	18.71441	7.32303	73.2303	210.74053	31.73313	0	22.78276	66.72094	0
227	46.37919	30.91946	-30.10579	-32.5468	26.85111	0.81367	74.04397	222.13191	32.5468	0	17.90074	60.21158	0
228	53.70222	27.66478	-38.24249	-29.29212	34.98781	-4.88202	74.85764	234.33696	33.36047	0	14.64606	53.70222	0
229	52.88855	20.34175	-43.93818	-23.59643	37.42882	-9.76404	75.67131	246.54201	33.36047	0	11.39138	46.37919	0
230	43.93818	10.57771	-48.00653	-14.64606	34.17414	-13.01872	74.85764	257.11972	33.36047	0	6.50936	38.24249	0
231	30.91946	-2.44101	-51.26121	-4.06835	30.91946	-17.08707	71.60296	264.44275	35.80148	-3.25468	-0.81367	28.47845	0
232	17.08707	-16.2734	-50.44754	3.25468	27.66478	-22.78276	69.97562	271.76578	39.05616	-5.69569	-8.95037	17.90074	0
233	7.32303	-26.03744	-48.00653	8.1367	24.4101	-26.85111	71.60296	280.71615	43.12451	-6.50936	-17.08707	8.95037	0
234	4.88202	-28.47845	-43.12451	8.1367	23.59643	-29.29212	76.48498	292.10753	45.56552	-4.88202	-22.78276	0.81367	0
235	8.95037	-25.22377	-36.61515	2.44101	25.22377	-30.91946	82.99434	304.31258	47.19286	-2.44101	-27.66478	-4.88202	0
236	20.34175	-16.2734	-29.29212	-7.32303	26.85111	-30.10579	90.31737	317.3313	44.75185	0	-33.36047	-9.76404	0
237	34.98781	-5.69569	-25.22377	-20.34175	30.91946	-27.66478	96.82673	329.53635	40.6835	0.81367	-39.86983	-15.45973	0
238	52.07488	3.25468	-27.66478	-31.73313	38.24249	-25.22377	100.89508	339.30039	35.80148	0.81367	-47.19286	-21.15542	0
239	68.34828	11.39138	-34.98781	-43.12451	48.8202	-23.59643	103.33609	348.25076	31.73313	0	-55.32956	-27.66478	0
240	83.80801	18.71441	-43.12451	-53.70222	61.83892	-22.78276	104.96343	355.57379	29.29212	-0.81367	-63.46626	-34.17414	0
241	95.19939	24.4101	-52.07488	-62.65259	74.85764	-22.78276	105.7771	362.08315	26.03744	-2.44101	-71.60296	-41.49717	0
242	103.33609	24.4101	-62.65259	-65.90727	84.62168	-26.03744	104.96343	366.96517	21.96909	-6.50936	-81.367	-50.44754	0
243	104.96343	18.71441	-73.2303	-64.27993	91.13104	-31.73313	102.52242	371.03352	18.71441	-11.39138	-90.31737	-59.39791	0
244	104.14976	10.57771	-80.55333	-61.02525	92.75838	-36.61515	99.26774	372.66086	15.45973	-16.2734	-98.45407	-66.72094	0
245	104.14976	0	-87.06269	-56.9569	89.5037	-40.6835	97.6404	374.2882	13.83239	-20.34175	-104.96343	-74.04397	0
246	104.14976	-8.1367	-94.38572	-52.88855	83.80801	-44.75185	97.6404	377.54288	13.83239	-22.78276	-110.65912	-81.367	0
247	103.33609	-12.20505	-99.26774	-51.26121	80.55333	-48.00653	100.89508	384.05224	17.08707	-21.96909	-113.10013	-86.24902	0
248	104.14976	-10.57771	-101.70875	-51.26121	81.367	-48.8202	105.7771	393.00261	21.96909	-18.71441	-111.47279	-88.69003	0
249	108.21811	-4.88202	-100.89508	-52.88855	87.06269	-46.37919	111.47279	401.95298	27.66478	-13.83239	-107.40444	-88.69003	0
250	114.72747	0.81367	-96.82673	-54.51589	96.01306	-42.31084	117.98215	411.71702	31.73313	-8.95037	-102.52242	-89.5037	0
251	121.23683	7.32303	-92.75838	-58.58424	104.96343	-39.05616	123.67784	420.66739	34.17414	-4.88202	-98.45407	-89.5037	0
252	126.93252	12.20505	-94.38572	-61.83892	113.10013	-39.05616	128.55986	427.17675	34.17414	-2.44101	-94.38572	-89.5037	0
253	131.00087	13.01872	-100.08141	-65.0936	120.42316	-42.31084	130.1872	430.43143	34.17414	-2.44101	-91.13104	-90.31737	0
254	133.44188	12.20505	-107.40444	-64.27993	127.74619	-47.19286	128.55986	430.43143	31.73313	-4.06835	-87.87636	-90.31737	0
255	134.25555	10.57771	-113.10013	-61.83892	134.25555	-52.07488	124.49151	427.99042	28.47845	-8.1367	-87.06269	-91.13104	0
256	135.06922	8.1367	-117.16848	-59.39791	137.51023	-58.58424	118.79582	423.1084	26.03744	-12.20505	-87.87636	-94.38572	0
257	135.88289	3.25468	-122.86417	-58.58424	139.95124	-65.90727	113.10013	416.59904	23.59643	-15.45973	-87.87636	-97.6404	0
258	135.88289	0	-128.55986	-58.58424	140.76491	-71.60296	110.65912	410.08968	22.78276	-17.90074	-89.5037	-100.89508	0
259	131.81454	-4.88202	-133.44188	-56.9569	137.51023	-74.04397	109.84545	404.39399	21.96909	-17.90074	-91.94471	-101.70875	0
260	122.0505	-11.39138	-139.13757	-50.44754	129.37353	-74.04397	111.47279	398.6983	21.15542	-17.90074	-92.75838	-101.70875	0
261	111.47279	-20.34175	-143.20592	-42.31084	120.42316	-75.67131	113.10013	392.18894	18.71441	-18.71441	-91.13104	-101.70875	0
262	100.89508	-29.29212	-144.83326	-33.36047	113.9138	-78.92599	113.10013	384.05224	14.64606	-20.34175	-88.69003	-101.70875	0
263	92.75838	-37.42882	-144.01959	-26.03744	108.21811	-81.367	111.47279	374.2882	12.20505	-21.15542	-84.62168	-100.89508	0
264	87.87636	-42.31084	-139.95124	-21.96909	106.59077	-84.62168	109.84545	366.1515	10.57771	-21.15542	-80.55333	-100.08141	0
265	87.06269	-42.31084	-133.44188	-23.59643	107.40444	-88.69003	108.21811	360.45581	11.39138	-19.52808	-74.04397	-96.01306	0
266	87.06269	-37.42882	-128.55986	-28.47845	106.59077	-89.5037	107.40444	356.38746	14.64606	-14.64606	-64.27993	-88.69003	0
267	87.87636	-29.29212	-124.49151	-34.17414	104.96343	-85.43535	106.59077	351.50544	19.52808	-9.76404	-53.70222	-79.73966	0
268	88.69003	-23.59643	-120.42316	-37.42882	103.33609	-81.367	105.7771	344.99608	23.59643	-4.88202	-43.93818	-71.60296	0
269	89.5037	-18.71441	-117.98215	-39.05616	103.33609	-78.11232	104.96343	335.23204	25.22377	-1.62734	-34.98781	-63.46626	0
270	89.5037	-14.64606	-117.16848	-40.6835	106.59077	-78.11232	102.52242	322.21332	23.59643	-0.81367	-29.29212	-57.77057	0
271	90.31737	-10.57771	-116.35481	-42.31084	110.65912	-76.48498	98.45407	305.12625	18.71441	-1.62734	-26.85111	-53.70222	0
272	90.31737	-8.95037	-114.72747	-42.31084	113.10013	-74.04397	93.57205	284.7845	13.01872	-4.88202	-27.66478	-52.07488	0
273	89.5037	-10.57771	-113.9138	-39.86983	112.28646	-72.41663	87.06269	265.25642	8.95037	-6.50936	-28.47845	-49.63387	0
274	86.24902	-14.64606	-113.10013	-36.61515	109.03178	-72.41663	81.367	248.16935	6.50936	-7.32303	-29.29212	-47.19286	0
275	78.11232	-21.96909	-113.9138	-30.91946	102.52242	-74.04397	77.29865	234.33696	4.88202	-5.69569	-28.47845	-42.31084	0
276	65.0936	-30.10579	-112.28646	-22.78276	92.75838	-75.67131	75.67131	222.94558	2.44101	-2.44101	-25.22377	-34.98781	0
277	50.44754	-35.80148	-104.14976	-13.83239	78.92599	-72.41663	75.67131	212.36787	-1.62734	0.81367	-20.34175	-26.03744	0
278	38.24249	-39.86983	-95.19939	-5.69569	65.90727	-68.34828	73.2303	199.34915	-6.50936	3.25468	-17.08707	-19.52808	0
279	30.91946	-43.93818	-87.06269	0	57.77057	-65.90727	66.72094	183.07575	-11.39138	3.25468	-17.08707	-16.2734	0
280	30.10579	-46.37919	-81.367	4.06835	55.32956	-65.90727	58.58424	165.17501	-14.64606	0.81367	-18.71441	-14.64606	0
281	33.36047	-45.56552	-79.73966	4.06835	56.9569	-67.53461	50.44754	146.4606	-16.2734	0	-20.34175	-13.01872	0
282	36.61515	-43.12451	-80.55333	2.44101	59.39791	-69.97562	43.93818	130.1872	-15.45973	0	-21.15542	-10.57771	0
283	39.05616	-43.12451	-80.55333	3.25468	59.39791	-69.97562	39.05616	114.72747	-14.64606	0.81367	-21.15542	-7.32303	0
284	36.61515	-44.75185	-78.92599	7.32303	55.32956	-69.97562	34.98781	100.08141	-13.83239	0.81367	-20.34175	-3.25468	0
285	27.66478	-47.19286	-75.67131	13.01872	46.37919	-69.16195	30.10579	86.24902	-14.64606	0.81367	-20.34175	-1.62734	0
286	16.2734	-52.88855	-75.67131	21.15542	36.61515	-69.97562	25.22377	72.41663	-15.45973	0	-21.96909	-1.62734	0
287	6.50936	-60.21158	-76.48498	28.47845	29.29212	-72.41663	21.96909	61.02525	-16.2734	0	-22.78276	-2.44101	0
288	0	-64.27993	-74.85764	32.5468	25.22377	-72.41663	21.15542	51.26121	-16.2734	0	-21.15542	-3.25468	0
289	0	-64.27993	-71.60296	31.73313	24.4101	-69.97562	22.78276	46.37919	-13.83239	3.25468	-13.83239	-3.25468	0
290	4.06835	-61.02525	-69.16195	26.85111	28.47845	-65.90727	27.66478	45.56552	-8.1367	9.76404	-4.06835	0	0
291	13.01872	-52.07488	-64.27993	18.71441	33.36047	-59.39791	32.5468	44.75185	-3.25468	17.90074	4.88202	5.69569	0
292	21.96909	-40.6835	-58.58424	8.1367	37.42882	-50.44754	36.61515	41.49717	0	25.22377	12.20505	12.20505	0
293	28.47845	-29.29212	-52.88855	0	39.86983	-42.31084	38.24249	37.42882	0.81367	30.10579	16.2734	17.08707	0
294	32.5468	-21.15542	-46.37919	-5.69569	40.6835	-34.17414	38.24249	31.73313	1.62734	34.17414	17.90074	21.15542	0
295	31.73313	-15.45973	-39.86983	-7.32303	39.86983	-25.22377	34.98781	24.4101	0.81367	36.61515	17.08707	23.59643	0
296	25.22377	-13.83239	-35.80148	-2.44101	36.61515	-17.08707	30.10579	16.2734	-1.62734	35.80148	14.64606	23.59643	0
297	13.01872	-17.08707	-33.36047	5.69569	30.10579	-13.83239	23.59643	7.32303	-8.1367	34.17414	11.39138	20.34175	0
298	-1.62734	-26.03744	-30.10579	17.08707	20.34175	-16.2734	16.2734	-1.62734	-15.45973	30.91946	7.32303	16.2734	0
299	-16.2734	-36.61515	-26.03744	29.29212	10.57771	-20.34175	8.95037	-11.39138	-21.15542	26.85111	1.62734	11.39138	0
300	-28.47845	-47.19286	-18.71441	39.05616	0.81367	-25.22377	4.06835	-19.52808	-26.03744	24.4101	-1.62734	7.32303	1500	QRS+0
301	-36.61515	-56.14323	-8.95037	43.12451	-8.1367	-30.10579	0.81367	-25.22377	-27.66478	24.4101	-2.44101	4.88202	0
302	-43.93818	-60.21158	0	45.56552	-16.2734	-31.73313	0	-28.47845	-26.03744	26.03744	-0.81367	4.88202	0
303	-51.26121	-60.21158	8.1367	48.00653	-25.22377	-29.29212	-0.81367	-30.91946	-23.59643	27.66478	0.81367	5.69569	0
304	-57.77057	-56.9569	15.45973	49.63387	-33.36047	-23.59643	0	-31.73313	-19.52808	29.29212	4.88202	8.1367	0
305	-61.02525	-52.88855	18.71441	49.63387	-37.42882	-17.08707	0	-32.5468	-15.45973	30.91946	8.1367	11.39138	0
306	-58.58424	-48.8202	21.15542	47.19286	-34.98781	-13.01872	0	-32.5468	-12.20505	32.5468	9.76404	13.01872	0
307	-51.26121	-42.31084	21.96909	40.6835	-28.47845	-11.39138	0	-31.73313	-8.95037	34.17414	11.39138	13.83239	0
308	-41.49717	-33.36047	19.52808	32.5468	-21.96909	-8.95037	0.81367	-30.91946	-6.50936	35.80148	13.01872	14.64606	0
309	-29.29212	-23.59643	17.08707	21.96909	-14.64606	-5.69569	3.25468	-30.10579	-5.69569	37.42882	15.45973	14.64606	0
310	-15.45973	-14.64606	13.83239	12.20505	-7.32303	-3.25468	4.06835	-28.47845	-4.06835	39.05616	16.2734	14.64606	0
311	-3.25468	-8.95037	9.76404	4.88202	-1.62734	-2.44101	2.44101	-26.03744	-1.62734	38.24249	15.45973	13.01872	0
312	4.06835	-5.69569	4.06835	-0.81367	0	-3.25468	1.62734	-22.78276	2.44101	38.24249	13.83239	9.76404	0
313	7.32303	-2.44101	1.62734	-5.69569	-0.81367	-2.44101	1.62734	-20.34175	5.69569	39.05616	13.83239	8.1367	0
314	4.06835	0	4.06835	-7.32303	-6.50936	0	4.06835	-19.52808	8.1367	41.49717	14.64606	7.32303	0
315	-4.88202	4.06835	11.39138	-7.32303	-16.2734	5.69569	6.50936	-19.52808	8.1367	43.93818	14.64606	6.50936	0
316	-17.90074	5.69569	19.52808	-6.50936	-27.66478	12.20505	8.1367	-20.34175	7.32303	45.56552	14.64606	5.69569	0
317	-30.91946	3.25468	26.03744	-1.62734	-36.61515	15.45973	8.95037	-21.96909	4.88202	46.37919	13.83239	4.06835	0
318	-43.93818	-3.25468	30.91946	7.32303	-43.93818	14.64606	8.95037	-23.59643	2.44101	46.37919	13.01872	3.25468	0
319	-56.9569	-13.83239	34.17414	18.71441	-52.88855	11.39138	8.1367	-23.59643	0	46.37919	13.01872	3.25468	0
320	-69.97562	-25.22377	37.42882	30.10579	-63.46626	6.50936	7.32303	-23.59643	-2.44101	46.37919	13.83239	3.25468	0
321	-81.367	-34.98781	42.31084	40.6835	-73.2303	4.06835	7.32303	-24.4101	-6.50936	46.37919	13.83239	3.25468	0
322	-88.69003	-39.86983	47.19286	48.8202	-78.92599	2.44101	5.69569	-26.85111	-10.57771	45.56552	13.01872	2.44101	0
323	-90.31737	-43.12451	47.19286	54.51589	-78.92599	0.81367	3.25468	-30.10579	-13.83239	43.93818	9.76404	1.62734	0
324	-87.87636	-45.56552	44.75185	57.77057	-73.2303	0	0	-35.80148	-17.08707	39.86983	4.06835	0.81367	0
325	-79.73966	-48.00653	43.12451	56.9569	-64.27993	-0.81367	-3.25468	-42.31084	-20.34175	34.17414	-2.44101	-1.62734	0
326	-66.72094	-46.37919	42.31084	51.26121	-56.14323	-2.44101	-7.32303	-47.19286	-22.78276	28.47845	-8.95037	-5.69569	0
327	-52.07488	-41.49717	39.05616	43.12451	-47.19286	-4.88202	-10.57771	-50.44754	-24.4101	24.4101	-13.83239	-9.76404	0
328	-40.6835	-34.17414	35.80148	34.17414	-39.86983	-4.06835	-11.39138	-51.26121	-23.59643	22.78276	-16.2734	-11.39138	0
329	-31.73313	-24.4101	31.73313	26.03744	-32.5468	0	-11.39138	-50.44754	-21.96909	22.78276	-18.71441	-11.39138	0
330	-21.96909	-13.01872	25.22377	17.08707	-23.59643	7.32303	-11.39138	-48.00653	-19.52808	24.4101	-17.90074	-9.76404	0
331	-14.64606	-1.62734	18.71441	8.95037	-14.64606	13.83239	-9.76404	-45.56552	-16.2734	27.66478	-14.64606	-7.32303	0
332	-10.57771	4.06835	12.20505	2.44101	-7.32303	16.2734	-7.32303	-43.93818	-13.83239	30.10579	-10.57771	-4.88202	0
333	-8.1367	6.50936	7.32303	0	-3.25468	15.45973	-4.88202	-43.12451	-12.20505	31.73313	-5.69569	-3.25468	0
334	-10.57771	7.32303	6.50936	0.81367	-4.06835	13.83239	-3.25468	-42.31084	-10.57771	32.5468	0	-0.81367	0
335	-16.2734	8.1367	8.1367	3.25468	-10.57771	13.83239	-1.62734	-42.31084	-8.95037	32.5468	3.25468	0	0
336	-23.59643	8.1367	10.57771	7.32303	-21.15542	13.83239	0	-43.12451	-7.32303	32.5468	6.50936	0	0
337	-30.10579	5.69569	13.83239	13.01872	-30.10579	13.01872	0	-43.12451	-4.06835	30.91946	9.76404	-0.81367	0
338	-36.61515	3.25468	18.71441	18.71441	-37.42882	13.01872	0	-42.31084	-1.62734	30.10579	11.39138	-2.44101	0
339	-42.31084	0	22.78276	25.22377	-43.12451	14.64606	0.81367	-40.6835	0	28.47845	11.39138	-2.44101	0
340	-48.8202	-3.25468	26.03744	31.73313	-49.63387	17.08707	0.81367	-38.24249	1.62734	28.47845	13.01872	-3.25468	0
341	-52.88855	-8.95037	29.29212	39.05616	-51.26121	18.71441	0	-35.80148	3.25468	27.66478	15.45973	-3.25468	0
342	-55.32956	-14.64606	32.5468	44.75185	-51.26121	17.90074	0	-33.36047	4.06835	27.66478	17.90074	-4.06835	0
343	-53.70222	-17.90074	33.36047	46.37919	-48.00653	15.45973	0	-29.29212	3.25468	26.85111	21.96909	-4.88202	0
344	-47.19286	-17.90074	32.5468	41.49717	-43.93818	12.20505	0	-26.85111	2.44101	26.85111	25.22377	-5.69569	0
345	-39.05616	-15.45973	33.36047	33.36047	-41.49717	5.69569	0	-25.22377	2.44101	26.85111	27.66478	-6.50936	0
346	-31.73313	-9.76404	33.36047	23.59643	-38.24249	3.25468	1.62734	-24.4101	3.25468	26.03744	30.10579	-6.50936	0
347	-26.85111	0	34.98781	13.83239	-35.80148	6.50936	4.88202	-24.4101	7.32303	27.66478	33.36047	-3.25468	0
348	-22.78276	9.76404	39.05616	6.50936	-34.98781	13.83239	7.32303	-23.59643	11.39138	30.10579	38.24249	0	0
349	-19.52808	17.08707	43.12451	1.62734	-32.5468	20.34175	8.95037	-21.96909	14.64606	31.73313	42.31084	4.06835	0
350	-18.71441	21.15542	46.37919	0	-29.29212	24.4101	9.76404	-21.15542	16.2734	32.5468	45.56552	6.50936	0
351	-18.71441	21.15542	48.8202	0	-26.03744	25.22377	8.95037	-20.34175	18.71441	32.5468	48.00653	8.95037	0
352	-21.15542	19.52808	49.63387	0.81367	-26.03744	24.4101	8.1367	-18.71441	18.71441	33.36047	49.63387	9.76404	0
353	-24.4101	17.90074	50.44754	4.06835	-28.47845	26.03744	8.1367	-17.90074	17.90074	33.36047	51.26121	11.39138	0
354	-26.85111	18.71441	48.8202	4.88202	-30.10579	26.03744	8.1367	-17.08707	17.08707	33.36047	52.88855	13.01872	0
355	-26.85111	21.15542	43.93818	5.69569	-29.29212	24.4101	8.1367	-17.08707	17.90074	31.73313	53.70222	14.64606	0
356	-26.03744	22.78276	39.05616	6.50936	-26.03744	24.4101	6.50936	-17.08707	17.90074	30.10579	52.88855	16.2734	0
357	-23.59643	21.15542	34.17414	6.50936	-21.96909	24.4101	4.88202	-18.71441	17.08707	26.85111	51.26121	18.71441	0
358	-19.52808	17.90074	29.29212	7.32303	-17.90074	22.78276	3.25468	-20.34175	15.45973	24.4101	50.44754	21.96909	0
359	-15.45973	13.01872	22.78276	7.32303	-12.20505	21.15542	2.44101	-20.34175	14.64606	23.59643	50.44754	26.85111	0
360	-14.64606	6.50936	15.45973	8.95037	-4.88202	19.52808	3.25468	-21.15542	13.01872	21.96909	49.63387	30.91946	0
361	-16.2734	0	8.95037	11.39138	2.44101	16.2734	4.06835	-23.59643	8.95037	19.52808	47.19286	32.5468	0
362	-16.2734	-4.88202	4.06835	13.01872	7.32303	12.20505	4.06835	-26.85111	4.88202	17.08707	43.12451	34.17414	0
363	-16.2734	-8.95037	1.62734	13.83239	8.1367	8.1367	2.44101	-31.73313	0	14.64606	38.24249	34.98781	0
364	-17.90074	-10.57771	1.62734	15.45973	5.69569	4.88202	0	-36.61515	-2.44101	12.20505	30.91946	36.61515	0
365	-21.96909	-11.39138	5.69569	17.90074	0.81367	1.62734	-3.25468	-39.86983	-4.88202	8.95037	22.78276	36.61515	0
366	-26.03744	-13.83239	11.39138	21.15542	-5.69569	-1.62734	-8.1367	-42.31084	-5.69569	6.50936	16.2734	34.98781	0
367	-30.10579	-18.71441	14.64606	24.4101	-13.01872	-6.50936	-11.39138	-42.31084	-4.06835	5.69569	10.57771	34.17414	0
368	-34.17414	-22.78276	16.2734	27.66478	-18.71441	-9.76404	-13.83239	-42.31084	-1.62734	4.88202	5.69569	31.73313	0
369	-35.80148	-26.85111	15.45973	29.29212	-22.78276	-13.01872	-15.45973	-40.6835	0	4.06835	3.25468	30.91946	0
370	-35.80148	-32.5468	12.20505	27.66478	-26.85111	-17.08707	-15.45973	-39.05616	0.81367	4.06835	1.62734	30.10579	0
371	-33.36047	-35.80148	8.1367	24.4101	-29.29212	-20.34175	-15.45973	-38.24249	1.62734	4.88202	1.62734	30.91946	0
372	-30.91946	-34.98781	7.32303	21.15542	-32.5468	-19.52808	-14.64606	-36.61515	1.62734	5.69569	2.44101	30.91946	0
373	-28.47845	-29.29212	10.57771	18.71441	-33.36047	-13.83239	-13.83239	-35.80148	2.44101	7.32303	2.44101	30.91946	0
374	-26.85111	-23.59643	15.45973	16.2734	-35.80148	-5.69569	-13.83239	-35.80148	2.44101	8.1367	0.81367	28.47845	0
375	-29.29212	-18.71441	23.59643	17.08707	-40.6835	3.25468	-13.83239	-37.42882	1.62734	7.32303	-2.44101	24.4101	0
376	-34.98781	-15.45973	33.36047	20.34175	-44.75185	12.20505	-15.45973	-39.86983	0.81367	7.32303	-5.69569	21.15542	0
377	-43.93818	-14.64606	40.6835	26.03744	-48.00653	17.90074	-15.45973	-43.12451	1.62734	7.32303	-7.32303	18.71441	0
378	-53.70222	-17.08707	44.75185	32.5468	-51.26121	18.71441	-15.45973	-46.37919	3.25468	7.32303	-8.95037	17.08707	-1500	QRS-0
379	-59.39791	-20.34175	46.37919	37.42882	-52.88855	15.45973	-14.64606	-47.19286	3.25468	7.32303	-10.57771	16.2734	0
380	-60.21158	-21.15542	48.00653	39.05616	-52.07488	8.95037	-13.01872	-46.37919	3.25468	8.1367	-11.39138	16.2734	0
381	-56.9569	-20.34175	46.37919	36.61515	-48.00653	4.06835	-11.39138	-43.93818	2.44101	8.1367	-9.76404	16.2734	0
382	-52.07488	-17.08707	41.49717	31.73313	-40.6835	0.81367	-10.57771	-43.12451	1.62734	8.1367	-8.1367	15.45973	0
383	-46.37919	-13.83239	34.17414	26.03744	-32.5468	-0.81367	-11.39138	-42.31084	0.81367	7.32303	-5.69569	13.83239	0
384	-42.31084	-12.20505	27.66478	23.59643	-26.03744	-2.44101	-13.01872	-42.31084	0	5.69569	-4.06835	10.57771	0
385	-37.42882	-9.76404	24.4101	23.59643	-17.90074	-3.25468	-14.64606	-43.93818	0	2.44101	-4.06835	7.32303	0
386	-32.5468	-9.76404	24.4101	24.4101	-9.76404	-5.69569	-15.45973	-44.75185	-0.81367	0	-2.44101	4.06835	0
387	-26.85111	-9.76404	23.59643	22.78276	-3.25468	-7.32303	-17.08707	-44.75185	0	0	0	3.25468	0
388	-18.71441	-6.50936	21.15542	17.90074	0.81367	-6.50936	-16.2734	-43.12451	0.81367	0.81367	4.06835	4.88202	0
389	-6.50936	0	14.64606	12.20505	6.50936	-4.88202	-14.64606	-39.86983	3.25468	4.06835	7.32303	8.1367	0
390	4.88202	8.95037	6.50936	4.88202	9.76404	-4.88202	-13.83239	-36.61515	6.50936	6.50936	10.57771	11.39138	0
391	11.39138	16.2734	-1.62734	-1.62734	8.95037	-2.44101	-13.01872	-32.5468	8.95037	8.95037	14.64606	13.83239	0
392	13.01872	19.52808	-6.50936	-4.88202	5.69569	0	-12.20505	-30.91946	11.39138	11.39138	17.90074	15.45973	0
393	10.57771	18.71441	-6.50936	-4.88202	0.81367	2.44101	-10.57771	-29.29212	10.57771	13.01872	20.34175	16.2734	0
394	3.25468	17.08707	-3.25468	-3.25468	-4.88202	4.88202	-10.57771	-29.29212	8.95037	13.83239	21.15542	17.90074	0
395	-6.50936	13.83239	1.62734	1.62734	-14.64606	7.32303	-10.57771	-29.29212	8.1367	13.83239	20.34175	17.08707	0
396	-20.34175	6.50936	8.1367	10.57771	-26.03744	8.1367	-9.76404	-30.91946	8.95037	13.83239	19.52808	15.45973	0
397	-34.98781	-1.62734	15.45973	21.15542	-36.61515	7.32303	-7.32303	-35.80148	11.39138	13.83239	20.34175	14.64606	0
398	-47.19286	-8.95037	21.15542	29.29212	-43.12451	6.50936	-4.88202	-40.6835	13.83239	14.64606	21.96909	13.83239	0
399	-55.32956	-13.83239	26.03744	33.36047	-46.37919	5.69569	-4.06835	-45.56552	13.83239	13.83239	23.59643	12.20505	0
400	-55.32956	-14.64606	30.91946	34.98781	-45.56552	7.32303	-4.06835	-48.8202	13.01872	12.20505	24.4101	9.76404	0
401	-49.63387	-13.83239	33.36047	34.17414	-41.49717	8.95037	-4.06835	-50.44754	9.76404	8.95037	24.4101	6.50936	0
402	-39.05616	-13.83239	29.29212	30.10579	-34.17414	6.50936	-6.50936	-51.26121	4.88202	4.88202	21.96909	2.44101	0
403	-26.85111	-14.64606	19.52808	22.78276	-22.78276	0.81367	-8.95037	-52.07488	1.62734	0.81367	20.34175	-1.62734	0
404	-14.64606	-15.45973	8.1367	14.64606	-12.20505	-4.06835	-11.39138	-52.88855	0	-0.81367	18.71441	-4.88202	0
405	-4.06835	-15.45973	-0.81367	6.50936	-6.50936	-8.1367	-12.20505	-52.88855	0.81367	-2.44101	17.90074	-5.69569	0
406	1.62734	-14.64606	-11.39138	0.81367	-4.06835	-12.20505	-13.83239	-52.07488	3.25468	-2.44101	17.90074	-5.69569	0
407	4.06835	-13.83239	-18.71441	-2.44101	-2.44101	-15.45973	-14.64606	-52.07488	6.50936	-1.62734	18.71441	-4.06835	0
408	3.25468	-13.83239	-19.52808	-3.25468	-2.44101	-14.64606	-14.64606	-51.26121	11.39138	-0.81367	18.71441	-1.62734	0
409	-0.81367	-14.64606	-17.08707	-1.62734	-7.32303	-10.57771	-13.83239	-49.63387	15.45973	0	18.71441	0.81367	0
410	-9.76404	-16.2734	-13.01872	3.25468	-14.64606	-2.44101	-11.39138	-48.8202	17.90074	1.62734	18.71441	3.25468	0
411	-17.08707	-21.15542	-7.32303	13.83239	-19.52808	1.62734	-9.76404	-49.63387	17.08707	2.44101	18.71441	4.88202	0
412	-23.59643	-27.66478	-2.44101	25.22377	-21.15542	1.62734	-8.95037	-52.07488	14.64606	0.81367	17.90074	3.25468	0
413	-27.66478	-33.36047	-1.62734	32.5468	-19.52808	-1.62734	-10.57771	-55.32956	10.57771	0	17.90074	0.81367	0
414	-29.29212	-38.24249	-0.81367	36.61515	-16.2734	-4.88202	-12.20505	-58.58424	8.1367	-1.62734	17.90074	-0.81367	0
415	-28.47845	-43.12451	0	37.42882	-11.39138	-7.32303	-13.83239	-61.02525	5.69569	-2.44101	17.08707	-3.25468	0
416	-27.66478	-43.93818	4.06835	37.42882	-6.50936	-8.95037	-13.83239	-63.46626	2.44101	-2.44101	17.90074	-4.88202	0
417	-26.03744	-42.31084	5.69569	34.17414	-2.44101	-10.57771	-13.83239	-66.72094	-0.81367	-1.62734	18.71441	-5.69569	0
418	-21.96909	-39.05616	4.88202	29.29212	0	-12.20505	-15.45973	-69.97562	-4.06835	-2.44101	19.52808	-6.50936	0
419	-15.45973	-36.61515	1.62734	21.96909	4.06835	-13.01872	-17.90074	-70.78929	-6.50936	-4.06835	20.34175	-7.32303	0
420	-9.76404	-34.98781	0	17.08707	6.50936	-14.64606	-21.15542	-71.60296	-6.50936	-5.69569	20.34175	-8.95037	0
421	-8.95037	-36.61515	-1.62734	17.08707	5.69569	-17.08707	-25.22377	-70.78929	-5.69569	-8.1367	19.52808	-11.39138	0
422	-15.45973	-40.6835	-1.62734	22.78276	0.81367	-19.52808	-27.66478	-69.16195	-4.06835	-10.57771	18.71441	-13.01872	0
423	-26.03744	-43.93818	0.81367	30.10579	-7.32303	-20.34175	-28.47845	-65.90727	-2.44101	-11.39138	18.71441	-14.64606	0
424	-36.61515	-45.56552	3.25468	37.42882	-16.2734	-17.90074	-27.66478	-62.65259	-0.81367	-11.39138	18.71441	-16.2734	0
425	-44.75185	-48.8202	3.25468	43.93818	-20.34175	-11.39138	-25.22377	-60.21158	0	-11.39138	17.90074	-17.08707	0
426	-48.00653	-53.70222	4.06835	48.00653	-19.52808	-3.25468	-23.59643	-58.58424	1.62734	-11.39138	17.08707	-18.71441	0
427	-47.19286	-55.32956	5.69569	48.8202	-16.2734	0.81367	-22.78276	-57.77057	2.44101	-11.39138	17.90074	-18.71441	0
428	-43.93818	-52.07488	5.69569	44.75185	-13.01872	2.44101	-21.96909	-56.14323	3.25468	-9.76404	20.34175	-19.52808	0
429	-38.24249	-45.56552	6.50936	39.05616	-11.39138	1.62734	-19.52808	-55.32956	4.06835	-7.32303	24.4101	-18.71441	0
430	-34.98781	-38.24249	12.20505	34.17414	-13.83239	-2.44101	-16.2734	-54.51589	6.50936	-2.44101	30.91946	-16.2734	0
431	-36.61515	-30.91946	21.15542	29.29212	-20.34175	-8.1367	-13.01872	-51.26121	9.76404	2.44101	38.24249	-11.39138	0
432	-41.49717	-25.22377	30.91946	26.03744	-28.47845	-9.76404	-8.95037	-47.19286	12.20505	8.1367	44.75185	-4.88202	0
433	-45.56552	-19.52808	38.24249	22.78276	-36.61515	-7.32303	-5.69569	-41.49717	13.01872	13.01872	50.44754	0	0
434	-46.37919	-14.64606	39.86983	19.52808	-39.05616	-4.06835	-1.62734	-36.61515	15.45973	17.08707	53.70222	4.06835	0
435	-41.49717	-9.76404	35.80148	15.45973	-38.24249	-2.44101	0.81367	-32.5468	18.71441	20.34175	55.32956	7.32303	0
436	-33.36047	-7.32303	30.91946	10.57771	-35.80148	0	3.25468	-30.91946	20.34175	21.15542	55.32956	8.95037	0
437	-24.4101	-4.06835	26.85111	6.50936	-31.73313	4.06835	3.25468	-30.91946	17.90074	19.52808	54.51589	9.76404	0
438	-19.52808	-3.25468	21.96909	4.88202	-27.66478	4.88202	1.62734	-33.36047	13.83239	17.08707	52.88855	9.76404	0
439	-20.34175	-4.88202	17.08707	8.1367	-26.03744	4.88202	-0.81367	-36.61515	8.95037	14.64606	48.8202	9.76404	0
440	-26.03744	-8.1367	13.01872	14.64606	-27.66478	5.69569	-4.06835	-39.86983	3.25468	12.20505	45.56552	9.76404	0
441	-34.98781	-13.83239	12.20505	23.59643	-26.85111	5.69569	-6.50936	-43.12451	-2.44101	8.95037	43.12451	8.95037	0
442	-43.12451	-21.96909	11.39138	32.5468	-26.03744	2.44101	-9.76404	-47.19286	-8.1367	5.69569	40.6835	8.1367	0
443	-48.8202	-30.91946	7.32303	40.6835	-23.59643	-3.25468	-13.01872	-52.88855	-12.20505	2.44101	37.42882	5.69569	0
444	-51.26121	-42.31084	1.62734	47.19286	-18.71441	-12.20505	-17.08707	-58.58424	-15.45973	0	32.5468	2.44101	0
445	-50.44754	-53.70222	-3.25468	52.07488	-13.01872	-19.52808	-19.52808	-62.65259	-19.52808	-4.06835	26.03744	-0.81367	0
446	-48.8202	-61.02525	-10.57771	54.51589	-6.50936	-26.03744	-21.96909	-65.0936	-21.15542	-6.50936	20.34175	-3.25468	0
447	-44.75185	-62.65259	-17.08707	51.26121	0	-30.91946	-24.4101	-65.90727	-21.96909	-8.1367	16.2734	-4.88202	0
448	-37.42882	-57.77057	-21.15542	44.75185	4.06835	-31.73313	-26.85111	-65.0936	-21.15542	-8.1367	14.64606	-6.50936	0
449	-30.91946	-51.26121	-19.52808	36.61515	4.88202	-31.73313	-26.03744	-64.27993	-18.71441	-6.50936	16.2734	-5.69569	0
450	-26.85111	-43.12451	-13.01872	30.91946	1.62734	-33.36047	-24.4101	-61.83892	-14.64606	-2.44101	20.34175	-3.25468	0
451	-22.78276	-36.61515	-7.32303	26.85111	0	-34.17414	-21.15542	-59.39791	-8.1367	0.81367	24.4101	1.62734	0
452	-17.90074	-29.29212	-3.25468	22.78276	-0.81367	-31.73313	-16.2734	-55.32956	-2.44101	5.69569	29.29212	8.95037	0
453	-14.64606	-21.15542	0.81367	18.71441	-3.25468	-25.22377	-9.76404	-49.63387	0	11.39138	34.17414	16.2734	0
454	-13.83239	-13.83239	8.1367	14.64606	-6.50936	-15.45973	-3.25468	-42.31084	3.25468	16.2734	36.61515	23.59643	0
455	-12.20505	-8.1367	17.08707	10.57771	-7.32303	-4.88202	2.44101	-36.61515	5.69569	20.34175	37.42882	28.47845	0
456	-8.1367	-1.62734	26.85111	4.88202	-4.88202	3.25468	7.32303	-31.73313	6.50936	22.78276	38.24249	32.5468	0
457	-3.25468	4.88202	33.36047	0	-2.44101	10.57771	10.57771	-27.66478	4.88202	24.4101	38.24249	35.80148	0
458	1.62734	11.39138	33.36047	-4.88202	0	14.64606	11.39138	-26.03744	2.44101	24.4101	37.42882	36.61515	0
459	8.1367	14.64606	26.03744	-8.1367	4.06835	15.45973	8.1367	-28.47845	0	22.78276	35.80148	35.80148	0
460	12.20505	13.83239	13.01872	-8.95037	7.32303	13.01872	2.44101	-34.98781	-2.44101	19.52808	32.5468	32.5468	0
461	9.76404	7.32303	-1.62734	-5.69569	6.50936	8.1367	-3.25468	-43.93818	-8.1367	14.64606	27.66478	26.85111	0
462	3.25468	-2.44101	-13.83239	1.62734	4.06835	0.81367	-9.76404	-54.51589	-13.83239	8.1367	21.96909	19.52808	0
463	-5.69569	-16.2734	-21.96909	13.01872	0.81367	-7.32303	-17.08707	-65.0936	-19.52808	0.81367	16.2734	12.20505	0
464	-15.45973	-29.29212	-26.03744	23.59643	-0.81367	-16.2734	-24.4101	-74.04397	-24.4101	-4.88202	11.39138	5.69569	0
465	-26.85111	-41.49717	-25.22377	33.36047	-5.69569	-21.96909	-30.10579	-79.73966	-27.66478	-9.76404	7.32303	0.81367	0
466	-37.42882	-48.8202	-24.4101	40.6835	-11.39138	-26.03744	-34.98781	-82.18067	-27.66478	-13.01872	4.06835	-3.25468	0
467	-46.37919	-52.07488	-22.78276	48.8202	-17.08707	-28.47845	-38.24249	-82.18067	-26.03744	-13.83239	3.25468	-6.50936	0
468	-55.32956	-55.32956	-17.08707	54.51589	-23.59643	-29.29212	-38.24249	-80.55333	-23.59643	-13.01872	4.06835	-9.76404	0
469	-64.27993	-58.58424	-8.95037	57.77057	-30.91946	-26.85111	-34.98781	-76.48498	-21.15542	-8.95037	8.95037	-12.20505	0
470	-68.34828	-57.77057	-1.62734	57.77057	-34.98781	-20.34175	-28.47845	-69.16195	-18.71441	-3.25468	15.45973	-11.39138	0
471	-65.0936	-51.26121	4.06835	53.70222	-34.98781	-12.20505	-21.96909	-60.21158	-14.64606	4.06835	23.59643	-8.1367	0
472	-57.77057	-40.6835	11.39138	45.56552	-33.36047	-3.25468	-13.83239	-50.44754	-8.1367	13.01872	31.73313	-2.44101	0
473	-47.19286	-26.03744	17.90074	33.36047	-30.91946	4.88202	-5.69569	-41.49717	0	20.34175	39.05616	1.62734	0
474	-38.24249	-8.1367	26.03744	21.15542	-30.91946	15.45973	0	-33.36047	8.1367	27.66478	43.93818	7.32303	0
475	-32.5468	8.1367	37.42882	10.57771	-34.98781	27.66478	6.50936	-27.66478	15.45973	32.5468	46.37919	12.20505	0
476	-28.47845	23.59643	50.44754	2.44101	-42.31084	40.6835	11.39138	-21.96909	18.71441	38.24249	48.8202	15.45973	0
477	-25.22377	32.5468	60.21158	-1.62734	-48.00653	49.63387	13.83239	-19.52808	19.52808	40.6835	51.26121	17.08707	0
478	-22.78276	36.61515	64.27993	-4.06835	-50.44754	52.88855	13.01872	-20.34175	17.90074	41.49717	51.26121	16.2734	0
479	-20.34175	35.80148	63.46626	-5.69569	-48.8202	51.26121	9.76404	-23.59643	17.08707	39.05616	50.44754	13.01872	0
480	-20.34175	32.5468	64.27993	-5.69569	-48.00653	49.63387	4.88202	-27.66478	16.2734	35.80148	48.8202	8.95037	0
481	-22.78276	30.91946	68.34828	-4.88202	-48.8202	49.63387	2.44101	-30.10579	17.08707	34.98781	49.63387	7.32303	0
482	-23.59643	33.36047	71.60296	-6.50936	-49.63387	52.07488	3.25468	-27.66478	21.96909	37.42882	53.70222	8.1367	0
483	-22.78276	38.24249	74.85764	-9.76404	-48.8202	56.14323	8.1367	-21.96909	30.10579	42.31084	59.39791	11.39138	0
484	-21.96909	44.75185	76.48498	-13.83239	-48.8202	59.39791	13.01872	-16.2734	40.6835	51.26121	73.2303	15.45973	0
485	-22.78276	51.26121	77.29865	-15.45973	-48.8202	61.83892	17.90074	-9.76404	50.44754	65.90727	98.45407	17.90074	0
486	-25.22377	56.9569	78.11232	-14.64606	-49.63387	65.0936	21.96909	-5.69569	57.77057	76.48498	117.16848	18.71441	0
487	-27.66478	59.39791	78.11232	-12.20505	-48.8202	65.90727	22.78276	-4.06835	60.21158	78.11232	121.23683	17.08707	0
488	-27.66478	58.58424	74.85764	-10.57771	-46.37919	64.27993	21.15542	-3.25468	58.58424	74.04397	113.9138	13.83239	0
489	-23.59643	58.58424	69.16195	-9.76404	-42.31084	60.21158	17.90074	-3.25468	55.32956	65.90727	100.08141	9.76404	0
490	-17.08707	60.21158	60.21158	-11.39138	-39.86983	53.70222	15.45973	-3.25468	52.07488	57.77057	86.24902	6.50936	0
491	-13.83239	61.02525	49.63387	-13.01872	-39.86983	49.63387	13.83239	-3.25468	48.8202	49.63387	72.41663	4.06835	0
492	-15.45973	56.9569	42.31084	-11.39138	-40.6835	46.37919	11.39138	-2.44101	44.75185	41.49717	60.21158	0	0
493	-17.08707	51.26121	38.24249	-8.95037	-41.49717	43.12451	8.1367	-2.44101	41.49717	33.36047	48.00653	-3.25468	0
494	-17.08707	47.19286	39.05616	-9.76404	-39.05616	41.49717	4.88202	-1.62734	37.42882	26.03744	37.42882	-6.50936	0
495	-10.57771	48.00653	45.56552	-15.45973	-36.61515	39.05616	0	-1.62734	34.17414	20.34175	27.66478	-8.1367	0
496	0	54.51589	55.32956	-25.22377	-34.98781	40.6835	-3.25468	-3.25468	29.29212	17.08707	21.96909	-8.95037	0
497	11.39138	64.27993	64.27993	-38.24249	-33.36047	45.56552	-7.32303	-6.50936	23.59643	15.45973	20.34175	-7.32303	0
498	20.34175	74.85764	70.78929	-48.8202	-30.91946	53.70222	-13.83239	-13.01872	18.71441	15.45973	20.34175	-4.06835	0
499	26.85111	83.80801	73.2303	-56.9569	-27.66478	62.65259	-21.96909	-21.15542	13.83239	13.83239	21.15542	-1.62734	0
500	32.5468	88.69003	71.60296	-61.83892	-21.96909	69.16195	-32.5468	-30.91946	9.76404	10.57771	20.34175	0	0
501	38.24249	92.75838	68.34828	-65.0936	-17.08707	72.41663	-42.31084	-40.6835	8.95037	6.50936	17.90074	-0.81367	0
502	40.6835	94.38572	65.90727	-66.72094	-17.08707	74.04397	-48.8202	-48.8202	11.39138	4.06835	15.45973	-0.81367	0
503	39.86983	95.19939	66.72094	-64.27993	-21.96909	75.67131	-50.44754	-52.07488	14.64606	4.06835	14.64606	0	0
504	36.61515	94.38572	69.16195	-60.21158	-28.47845	78.11232	-48.8202	-52.88855	18.71441	9.76404	22.78276	0.81367	0
505	32.5468	94.38572	69.97562	-55.32956	-33.36047	78.92599	-44.75185	-52.07488	21.96909	21.96909	43.93818	1.62734	0
506	27.66478	92.75838	66.72094	-50.44754	-34.17414	81.367	-41.49717	-51.26121	21.96909	30.10579	59.39791	0.81367	0
507	22.78276	89.5037	62.65259	-48.00653	-31.73313	81.367	-40.6835	-52.88855	17.08707	30.91946	60.21158	0	0
508	23.59643	87.06269	56.9569	-48.8202	-25.22377	79.73966	-43.12451	-55.32956	9.76404	26.03744	52.88855	-3.25468	0
509	27.66478	87.06269	49.63387	-52.88855	-15.45973	74.85764	-46.37919	-59.39791	2.44101	19.52808	41.49717	-4.88202	0
510	32.5468	89.5037	39.05616	-57.77057	-4.06835	68.34828	-49.63387	-63.46626	-3.25468	13.01872	30.10579	-4.88202	0
511	36.61515	91.13104	27.66478	-62.65259	3.25468	63.46626	-52.07488	-65.90727	-8.95037	8.1367	19.52808	-4.06835	0
512	39.05616	90.31737	19.52808	-64.27993	8.1367	59.39791	-55.32956	-66.72094	-14.64606	2.44101	9.76404	-4.88202	0
513	38.24249	83.80801	15.45973	-61.02525	8.95037	54.51589	-57.77057	-68.34828	-19.52808	-2.44101	0	-7.32303	0
514	35.80148	73.2303	16.2734	-52.88855	6.50936	49.63387	-57.77057	-69.16195	-21.96909	-7.32303	-8.1367	-9.76404	0
515	29.29212	61.02525	21.15542	-42.31084	0	46.37919	-57.77057	-69.97562	-22.78276	-10.57771	-15.45973	-11.39138	0
516	20.34175	49.63387	25.22377	-32.5468	-8.1367	43.12451	-56.9569	-71.60296	-22.78276	-13.01872	-21.15542	-13.83239	0
517	11.39138	40.6835	29.29212	-23.59643	-17.08707	39.86983	-55.32956	-72.41663	-21.15542	-13.01872	-23.59643	-13.83239	0
518	2.44101	35.80148	34.17414	-17.08707	-24.4101	39.05616	-52.07488	-70.78929	-17.90074	-10.57771	-21.96909	-13.83239	0
519	-0.81367	34.17414	39.86983	-13.01872	-28.47845	40.6835	-47.19286	-66.72094	-13.01872	-6.50936	-17.08707	-13.01872	0
520	-0.81367	35.80148	45.56552	-10.57771	-27.66478	43.12451	-41.49717	-61.02525	-8.1367	-1.62734	-10.57771	-10.57771	0
521	0.81367	38.24249	48.00653	-10.57771	-21.96909	44.75185	-35.80148	-56.14323	-4.88202	2.44101	-4.06835	-6.50936	0
522	5.69569	39.05616	45.56552	-13.01872	-13.01872	42.31084	-30.91946	-52.07488	-2.44101	6.50936	0.81367	-3.25468	0
523	11.39138	37.42882	39.05616	-14.64606	-4.88202	38.24249	-26.03744	-49.63387	-1.62734	9.76404	5.69569	0	0
524	14.64606	34.17414	32.5468	-14.64606	-2.44101	32.5468	-21.96909	-48.8202	0	12.20505	8.1367	2.44101	0
525	12.20505	31.73313	30.91946	-12.20505	-5.69569	29.29212	-17.90074	-48.00653	1.62734	13.83239	8.1367	4.88202	0
526	3.25468	26.03744	31.73313	-8.1367	-13.01872	27.66478	-14.64606	-48.8202	3.25468	15.45973	8.95037	6.50936	0
527	-8.1367	14.64606	30.91946	-1.62734	-20.34175	23.59643	-13.01872	-50.44754	1.62734	16.2734	8.95037	8.1367	0
528	-21.15542	0	28.47845	8.1367	-26.03744	15.45973	-14.64606	-54.51589	-1.62734	14.64606	8.95037	7.32303	0
529	-35.80148	-14.64606	25.22377	21.96909	-31.73313	4.88202	-19.52808	-60.21158	-6.50936	10.57771	7.32303	5.69569	0
530	-49.63387	-30.91946	23.59643	37.42882	-37.42882	-8.95037	-25.22377	-68.34828	-11.39138	4.88202	4.88202	4.06835	0
531	-61.83892	-47.19286	24.4101	49.63387	-42.31084	-21.96909	-31.73313	-75.67131	-14.64606	0	3.25468	1.62734	0
532	-71.60296	-58.58424	25.22377	57.77057	-46.37919	-30.91946	-36.61515	-81.367	-17.08707	-4.06835	1.62734	0	0
533	-77.29865	-65.0936	25.22377	61.83892	-48.8202	-34.98781	-39.05616	-84.62168	-18.71441	-6.50936	1.62734	0	0
534	-76.48498	-68.34828	23.59643	63.46626	-45.56552	-34.17414	-39.05616	-85.43535	-19.52808	-8.1367	0.81367	0	0
535	-69.16195	-70.78929	20.34175	61.83892	-38.24249	-32.5468	-37.42882	-84.62168	-18.71441	-8.1367	0	0	0
536	-58.58424	-72.41663	13.01872	58.58424	-33.36047	-32.5468	-34.17414	-82.99434	-17.08707	-6.50936	0.81367	0.81367	0
537	-51.26121	-69.16195	6.50936	53.70222	-31.73313	-31.73313	-28.47845	-78.92599	-13.01872	-3.25468	4.06835	4.06835	0
538	-45.56552	-60.21158	5.69569	48.00653	-30.91946	-26.03744	-21.15542	-72.41663	-7.32303	2.44101	10.57771	8.95037	0
539	-40.6835	-49.63387	6.50936	41.49717	-30.91946	-17.90074	-13.83239	-65.0936	-1.62734	8.95037	18.71441	13.83239	0
540	-38.24249	-41.49717	4.88202	36.61515	-31.73313	-10.57771	-7.32303	-57.77057	2.44101	15.45973	26.03744	18.71441	0
541	-39.05616	-35.80148	1.62734	34.98781	-32.5468	-5.69569	-1.62734	-52.88855	4.88202	20.34175	32.5468	22.78276	0
542	-40.6835	-33.36047	0	35.80148	-33.36047	-3.25468	1.62734	-50.44754	5.69569	23.59643	36.61515	26.03744	0
543	-44.75185	-34.17414	0	39.05616	-34.17414	-4.88202	1.62734	-48.8202	5.69569	25.22377	38.24249	27.66478	0
544	-47.19286	-39.05616	-3.25468	43.12451	-31.73313	-7.32303	0	-48.8202	4.88202	25.22377	34.98781	25.22377	0
545	-44.75185	-45.56552	-10.57771	44.75185	-27.66478	-11.39138	-4.06835	-50.44754	1.62734	21.96909	28.47845	21.15542	0
546	-35.80148	-48.8202	-15.45973	43.93818	-21.96909	-17.08707	-7.32303	-52.07488	0	18.71441	21.96909	16.2734	0
547	-22.78276	-47.19286	-19.52808	43.12451	-14.64606	-22.78276	-8.95037	-56.14323	0	15.45973	17.90074	13.83239	0
548	-13.83239	-43.12451	-21.15542	40.6835	-8.95037	-25.22377	-8.95037	-58.58424	0	14.64606	17.08707	13.01872	0
549	-13.83239	-40.6835	-15.45973	40.6835	-8.95037	-26.03744	-8.1367	-60.21158	2.44101	16.2734	20.34175	15.45973	0
550	-21.15542	-39.05616	-5.69569	42.31084	-14.64606	-26.85111	-4.88202	-60.21158	4.88202	18.71441	25.22377	19.52808	0
551	-32.5468	-38.24249	1.62734	44.75185	-18.71441	-25.22377	-1.62734	-58.58424	7.32303	22.78276	30.91946	25.22377	0
552	-42.31084	-37.42882	7.32303	47.19286	-22.78276	-21.96909	1.62734	-56.9569	9.76404	26.03744	36.61515	29.29212	0
553	-49.63387	-38.24249	10.57771	46.37919	-26.03744	-20.34175	2.44101	-56.14323	10.57771	28.47845	39.86983	30.91946	0
554	-54.51589	-38.24249	12.20505	45.56552	-28.47845	-18.71441	1.62734	-56.9569	9.76404	29.29212	38.24249	30.10579	0
555	-59.39791	-36.61515	13.01872	45.56552	-32.5468	-17.90074	0	-58.58424	8.1367	27.66478	34.17414	27.66478	0
556	-64.27993	-34.98781	11.39138	48.00653	-34.98781	-18.71441	-3.25468	-61.83892	6.50936	24.4101	30.10579	25.22377	0
557	-70.78929	-38.24249	9.76404	53.70222	-38.24249	-21.96909	-5.69569	-64.27993	4.88202	21.96909	28.47845	23.59643	0
558	-79.73966	-44.75185	11.39138	61.83892	-43.93818	-24.4101	-7.32303	-66.72094	4.06835	20.34175	27.66478	22.78276	0
559	-86.24902	-52.88855	12.20505	69.16195	-48.8202	-27.66478	-8.1367	-68.34828	3.25468	17.90074	26.85111	21.96909	0
560	-87.87636	-60.21158	9.76404	73.2303	-49.63387	-31.73313	-8.95037	-69.97562	1.62734	16.2734	26.85111	21.96909	0
561	-84.62168	-63.46626	5.69569	73.2303	-48.00653	-34.17414	-10.57771	-70.78929	1.62734	14.64606	26.85111	23.59643	0
562	-77.29865	-62.65259	2.44101	69.16195	-43.12451	-34.17414	-10.57771	-70.78929	0.81367	13.83239	29.29212	25.22377	0
563	-68.34828	-56.9569	0.81367	62.65259	-37.42882	-30.91946	-9.76404	-70.78929	-0.81367	14.64606	30.91946	28.47845	0
564	-60.21158	-52.88855	-1.62734	55.32956	-31.73313	-29.29212	-8.95037	-71.60296	-3.25468	15.45973	31.73313	30.91946	0
565	-56.14323	-51.26121	-6.50936	52.88855	-26.03744	-31.73313	-7.32303	-71.60296	-5.69569	15.45973	30.10579	30.91946	0
566	-55.32956	-51.26121	-9.76404	55.32956	-24.4101	-32.5468	-4.88202	-69.16195	-5.69569	15.45973	27.66478	31.73313	0
567	-57.77057	-52.07488	-8.95037	59.39791	-24.4101	-33.36047	-0.81367	-64.27993	-3.25468	17.08707	27.66478	32.5468	0
568	-61.02525	-54.51589	-7.32303	63.46626	-26.85111	-33.36047	5.69569	-55.32956	1.62734	20.34175	30.10579	34.17414	0
569	-67.53461	-58.58424	-6.50936	67.53461	-28.47845	-31.73313	14.64606	-43.12451	8.95037	26.03744	34.98781	36.61515	0
570	-77.29865	-65.0936	-6.50936	76.48498	-29.29212	-27.66478	25.22377	-27.66478	16.2734	31.73313	40.6835	39.05616	0
571	-84.62168	-74.04397	-5.69569	87.06269	-31.73313	-26.85111	35.80148	-10.57771	21.96909	37.42882	45.56552	42.31084	0
572	-87.87636	-87.06269	-9.76404	96.01306	-32.5468	-33.36047	45.56552	6.50936	26.85111	40.6835	47.19286	43.12451	0
573	-86.24902	-104.14976	-22.78276	102.52242	-25.22377	-48.8202	52.88855	26.03744	27.66478	40.6835	45.56552	40.6835	0
574	-74.85764	-121.23683	-52.07488	105.7771	-6.50936	-76.48498	56.14323	46.37919	23.59643	34.17414	46.37919	42.31084	0
575	-48.00653	-137.51023	-101.70875	101.70875	28.47845	-116.35481	56.14323	69.16195	11.39138	18.71441	56.14323	53.70222	0
576	-6.50936	-153.78363	-167.61602	89.5037	80.55333	-162.734	50.44754	96.01306	-7.32303	-3.25468	59.39791	52.88855	0
577	42.31084	-168.42969	-235.15063	71.60296	138.3239	-207.48585	40.6835	127.74619	-30.91946	-31.73313	43.12451	30.91946	0
578	98.45407	-174.12538	-296.98955	44.75185	196.90814	-242.47366	27.66478	159.47932	-56.9569	-62.65259	10.57771	-1.62734	0
579	160.29299	-165.98868	-346.62342	8.1367	252.2377	-262.81541	11.39138	187.95777	-82.99434	-93.57205	-28.47845	-41.49717	0
580	227.8276	-141.57858	-380.79756	-39.05616	304.31258	-266.88376	-8.95037	208.29952	-108.21811	-123.67784	-72.41663	-82.99434	0
581	296.98955	-102.52242	-401.95298	-95.19939	351.50544	-257.93339	-38.24249	208.29952	-135.06922	-154.5973	-118.79582	-126.93252	0
582	366.1515	-50.44754	-410.08968	-156.22464	393.00261	-236.77797	-73.2303	183.88942	-161.10666	-184.70309	-165.17501	-170.05703	0
583	432.05877	11.39138	-407.64867	-221.31824	427.17675	-205.04484	-111.47279	136.69656	-183.88942	-212.36787	-207.48585	-209.92686	0
584	490.64301	81.367	-397.88463	-288.03918	454.02786	-165.17501	-149.71528	69.97562	-202.60383	-233.52329	-241.65999	-244.101	0
585	537.83587	151.34262	-385.67958	-352.31911	474.36961	-123.67784	-186.33043	-12.20505	-216.43622	-248.98302	-269.32477	-268.5111	0
586	573.63735	212.36787	-367.77884	-408.46234	484.94732	-79.73966	-218.06356	-104.96343	-224.57292	-253.86504	-284.7845	-279.90248	0
587	592.35176	257.11972	-338.48672	-446.70483	480.0653	-36.61515	-245.72834	-203.4175	-227.01393	-248.16935	-285.59817	-278.27514	0
588	584.21506	284.7845	-297.80322	-459.72355	454.02786	0.81367	-270.13844	-308.38093	-225.38659	-235.15063	-274.20679	-262.81541	0
589	547.59991	299.43056	-242.47366	-447.5185	405.20766	37.42882	-292.10753	-421.48106	-222.94558	-218.06356	-260.3744	-246.54201	0
590	484.94732	306.75359	-168.42969	-416.59904	335.23204	78.92599	-308.38093	-533.76752	-218.87723	-200.97649	-253.05137	-236.77797	0
591	401.13931	307.56726	-81.367	-371.03352	247.35568	122.86417	-319.77231	-633.03526	-213.18154	-176.56639	-240.03265	-219.6909	0
592	307.56726	300.24423	3.25468	-314.89029	153.78363	161.92033	-327.09534	-712.77492	-205.04484	-144.01959	-208.29952	-183.88942	0
593	218.06356	283.97083	80.55333	-253.86504	63.46626	192.83979	-330.35002	-772.9865	-196.90814	-110.65912	-166.80235	-135.06922	0
594	138.3239	261.18807	139.95124	-195.2808	-11.39138	209.11319	-333.6047	-812.85633	-191.21245	-82.99434	-124.49151	-86.24902	0
595	69.16195	231.89595	176.56639	-144.01959	-66.72094	209.92686	-335.23204	-834.01175	-190.39878	-62.65259	-88.69003	-43.93818	0
596	11.39138	198.53548	192.02612	-98.45407	-101.70875	198.53548	-331.97736	-835.63909	-190.39878	-47.19286	-59.39791	-8.1367	0
597	-34.17414	163.54767	194.46713	-60.21158	-122.86417	180.63474	-321.39965	-816.11101	-187.95777	-35.80148	-34.17414	19.52808	0
598	-69.16195	128.55986	189.58511	-26.85111	-135.88289	159.47932	-301.87157	-776.24118	-180.63474	-26.03744	-13.83239	39.86983	0
599	-93.57205	96.82673	179.0074	1.62734	-139.95124	138.3239	-274.20679	-718.47061	-168.42969	-17.08707	4.06835	53.70222	0
600	-107.40444	69.16195	164.36134	24.4101	-136.69656	120.42316	-241.65999	-648.49499	-151.34262	-7.32303	18.71441	62.65259	0
601	-111.47279	46.37919	148.08794	40.6835	-128.55986	104.14976	-207.48585	-572.01001	-134.25555	0.81367	29.29212	66.72094	0
602	-109.03178	30.10579	131.81454	47.19286	-117.16848	88.69003	-172.49804	-492.27035	-116.35481	8.95037	34.98781	66.72094	0
603	-103.33609	18.71441	117.98215	48.8202	-106.59077	75.67131	-137.51023	-411.71702	-96.82673	16.2734	38.24249	65.0936	0
604	-96.82673	10.57771	104.14976	48.00653	-96.01306	65.90727	-104.96343	-336.04571	-78.11232	22.78276	38.24249	60.21158	0
605	-87.87636	4.88202	91.94471	43.93818	-88.69003	59.39791	-77.29865	-268.5111	-61.83892	26.85111	34.17414	53.70222	0
606	-75.67131	3.25468	83.80801	37.42882	-82.99434	54.51589	-56.14323	-210.74053	-48.00653	29.29212	29.29212	47.19286	0
607	-64.27993	5.69569	79.73966	29.29212	-78.11232	50.44754	-39.86983	-164.36134	-34.98781	30.91946	26.03744	40.6835	0
608	-56.14323	8.95037	76.48498	21.96909	-74.04397	47.19286	-27.66478	-127.74619	-26.03744	32.5468	23.59643	35.80148	0
609	-51.26121	12.20505	73.2303	17.90074	-71.60296	47.19286	-17.90074	-101.70875	-19.52808	34.17414	21.15542	32.5468	0
610	-52.07488	13.83239	67.53461	17.08707	-69.97562	49.63387	-10.57771	-84.62168	-17.08707	33.36047	18.71441	29.29212	0
611	-57.77057	12.20505	60.21158	21.15542	-65.90727	50.44754	-4.88202	-75.67131	-18.71441	30.91946	17.08707	24.4101	0
612	-64.27993	7.32303	53.70222	26.85111	-62.65259	48.8202	-2.44101	-71.60296	-22.78276	27.66478	14.64606	18.71441	0
613	-69.16195	1.62734	49.63387	33.36047	-60.21158	43.12451	-1.62734	-69.97562	-26.03744	23.59643	12.20505	13.83239	0
614	-72.41663	-2.44101	46.37919	39.05616	-58.58424	35.80148	-0.81367	-66.72094	-28.47845	21.96909	11.39138	9.76404	0
615	-74.85764	-5.69569	43.93818	43.93818	-56.9569	26.85111	-0.81367	-64.27993	-29.29212	21.15542	9.76404	7.32303	0
616	-74.85764	-9.76404	42.31084	48.00653	-52.07488	21.15542	-0.81367	-60.21158	-30.10579	21.96909	10.57771	5.69569	0
617	-74.85764	-14.64606	40.6835	48.8202	-46.37919	16.2734	-0.81367	-56.9569	-30.10579	22.78276	12.20505	5.69569	0
618	-73.2303	-19.52808	38.24249	48.00653	-42.31084	10.57771	-0.81367	-53.70222	-30.10579	22.78276	14.64606	4.06835	0
619	-71.60296	-22.78276	37.42882	47.19286	-40.6835	5.69569	-1.62734	-51.26121	-30.10579	21.15542	17.08707	3.25468	0
620	-70.78929	-25.22377	39.05616	48.00653	-43.93818	0	-1.62734	-48.8202	-30.10579	19.52808	20.34175	1.62734	0
621	-72.41663	-27.66478	40.6835	48.8202	-48.00653	-7.32303	-2.44101	-46.37919	-27.66478	17.90074	23.59643	1.62734	0
622	-74.85764	-30.10579	41.49717	52.07488	-53.70222	-12.20505	-1.62734	-43.12451	-24.4101	16.2734	27.66478	1.62734	0
623	-79.73966	-31.73313	44.75185	55.32956	-58.58424	-11.39138	0	-38.24249	-22.78276	16.2734	32.5468	1.62734	0
624	-83.80801	-33.36047	47.19286	58.58424	-64.27993	-6.50936	2.44101	-33.36047	-21.96909	16.2734	35.80148	2.44101	0
625	-85.43535	-34.17414	46.37919	59.39791	-66.72094	0	4.88202	-27.66478	-21.96909	17.08707	37.42882	1.62734	0
626	-78.11232	-29.29212	40.6835	53.70222	-63.46626	7.32303	5.69569	-21.15542	-20.34175	17.90074	39.86983	2.44101	0
627	-61.02525	-17.90074	33.36047	39.05616	-56.9569	13.83239	6.50936	-14.64606	-17.08707	20.34175	43.93818	4.06835	0
628	-41.49717	-4.06835	27.66478	21.96909	-48.8202	20.34175	7.32303	-9.76404	-14.64606	22.78276	48.8202	6.50936	0
629	-26.03744	8.1367	23.59643	7.32303	-38.24249	24.4101	8.95037	-5.69569	-13.83239	25.22377	52.88855	8.1367	0
630	-14.64606	19.52808	17.90074	-3.25468	-26.85111	24.4101	9.76404	-3.25468	-13.01872	25.22377	56.14323	8.1367	0
631	-4.88202	27.66478	12.20505	-12.20505	-17.08707	23.59643	8.95037	-0.81367	-12.20505	23.59643	56.14323	5.69569	0
632	1.62734	31.73313	8.95037	-17.08707	-14.64606	22.78276	8.1367	0	-9.76404	21.96909	55.32956	3.25468	0
633	2.44101	32.5468	8.1367	-17.90074	-15.45973	22.78276	8.95037	1.62734	-8.1367	20.34175	54.51589	1.62734	0
634	-4.88202	30.10579	13.01872	-12.20505	-19.52808	24.4101	12.20505	4.06835	-6.50936	21.15542	53.70222	2.44101	0
635	-18.71441	26.03744	23.59643	-2.44101	-28.47845	27.66478	17.90074	8.1367	-6.50936	23.59643	53.70222	4.88202	0
636	-34.98781	21.15542	34.98781	6.50936	-39.86983	34.17414	23.59643	11.39138	-8.95037	26.03744	54.51589	8.95037	0
637	-47.19286	17.90074	42.31084	13.83239	-49.63387	40.6835	28.47845	13.01872	-13.83239	27.66478	55.32956	12.20505	0
638	-53.70222	16.2734	44.75185	16.2734	-55.32956	43.12451	30.10579	14.64606	-19.52808	26.03744	55.32956	13.83239	0
639	-53.70222	15.45973	40.6835	14.64606	-56.9569	41.49717	28.47845	13.01872	-25.22377	22.78276	52.88855	13.01872	0
640	-48.00653	14.64606	34.17414	9.76404	-52.88855	36.61515	23.59643	11.39138	-29.29212	17.08707	49.63387	10.57771	0
641	-39.86983	14.64606	28.47845	4.88202	-46.37919	29.29212	18.71441	9.76404	-30.10579	12.20505	47.19286	8.95037	0
642	-30.91946	13.83239	25.22377	1.62734	-39.05616	21.15542	15.45973	9.76404	-26.85111	8.95037	44.75185	7.32303	0
643	-25.22377	12.20505	22.78276	0	-32.5468	16.2734	14.64606	12.20505	-22.78276	6.50936	44.75185	7.32303	0
644	-21.15542	11.39138	25.22377	0	-30.91946	15.45973	16.2734	16.2734	-19.52808	6.50936	44.75185	8.95037	0
645	-19.52808	9.76404	33.36047	0	-34.98781	17.08707	20.34175	20.34175	-16.2734	7.32303	44.75185	10.57771	0
646	-20.34175	8.95037	44.75185	1.62734	-42.31084	19.52808	24.4101	23.59643	-16.2734	8.95037	44.75185	13.83239	0
647	-24.4101	7.32303	53.70222	4.88202	-48.8202	21.96909	27.66478	25.22377	-18.71441	10.57771	46.37919	16.2734	0
648	-30.10579	5.69569	59.39791	10.57771	-53.70222	23.59643	29.29212	25.22377	-21.15542	9.76404	47.19286	17.08707	0
649	-35.80148	3.25468	60.21158	16.2734	-54.51589	23.59643	26.85111	26.03744	-24.4101	8.1367	46.37919	17.08707	0
650	-40.6835	-0.81367	56.9569	21.96909	-51.26121	20.34175	22.78276	26.85111	-26.85111	3.25468	45.56552	15.45973	0
651	-42.31084	-4.06835	52.88855	24.4101	-44.75185	15.45973	17.90074	27.66478	-27.66478	0	44.75185	13.01872	0
652	-37.42882	-3.25468	48.00653	22.78276	-36.61515	12.20505	14.64606	30.10579	-28.47845	-3.25468	44.75185	11.39138	0
653	-28.47845	0	40.6835	18.71441	-26.85111	11.39138	13.83239	34.17414	-29.29212	-4.06835	45.56552	10.57771	0
654	-20.34175	4.88202	33.36047	13.83239	-20.34175	10.57771	13.83239	39.86983	-30.10579	-4.88202	46.37919	9.76404	0
655	-16.2734	8.95037	30.10579	9.76404	-17.90074	12.20505	14.64606	45.56552	-29.29212	-4.88202	45.56552	9.76404	0
656	-16.2734	11.39138	26.85111	9.76404	-18.71441	13.01872	14.64606	52.07488	-26.85111	-4.88202	45.56552	10.57771	0
657	-21.15542	10.57771	26.85111	11.39138	-21.15542	13.83239	14.64606	58.58424	-23.59643	-4.06835	45.56552	12.20505	0
658	-27.66478	8.95037	29.29212	13.83239	-26.85111	15.45973	16.2734	64.27993	-21.96909	-3.25468	46.37919	13.01872	0
659	-31.73313	6.50936	32.5468	13.83239	-33.36047	17.90074	19.52808	70.78929	-19.52808	-0.81367	48.00653	16.2734	0
660	-33.36047	3.25468	34.17414	11.39138	-39.05616	17.08707	25.22377	78.92599	-17.08707	2.44101	52.07488	20.34175	0
661	-34.98781	2.44101	34.98781	8.1367	-44.75185	14.64606	32.5468	88.69003	-14.64606	7.32303	56.9569	26.03744	0
662	-37.42882	3.25468	37.42882	8.1367	-49.63387	14.64606	39.05616	98.45407	-13.01872	11.39138	60.21158	30.10579	0
663	-42.31084	4.06835	42.31084	8.95037	-54.51589	17.08707	43.93818	107.40444	-12.20505	13.83239	60.21158	31.73313	0
664	-48.00653	4.06835	44.75185	11.39138	-57.77057	20.34175	45.56552	113.10013	-13.83239	13.01872	57.77057	30.91946	0
665	-54.51589	4.06835	43.93818	15.45973	-59.39791	26.03744	45.56552	116.35481	-16.2734	11.39138	51.26121	28.47845	0
666	-61.83892	1.62734	44.75185	20.34175	-61.83892	32.5468	43.93818	119.60949	-19.52808	8.1367	44.75185	25.22377	0
667	-65.90727	-1.62734	47.19286	25.22377	-64.27993	34.98781	43.12451	123.67784	-21.15542	5.69569	40.6835	22.78276	0
668	-63.46626	-7.32303	48.00653	30.10579	-65.0936	34.17414	43.12451	128.55986	-22.78276	4.88202	38.24249	21.96909	0
669	-54.51589	-9.76404	47.19286	30.91946	-61.02525	30.10579	43.12451	134.25555	-24.4101	4.06835	37.42882	21.96909	0
670	-39.05616	-8.95037	43.93818	23.59643	-50.44754	23.59643	42.31084	139.95124	-26.85111	2.44101	36.61515	22.78276	0
671	-15.45973	-5.69569	36.61515	8.1367	-32.5468	18.71441	41.49717	147.27427	-27.66478	1.62734	36.61515	23.59643	0
672	9.76404	0	25.22377	-8.95037	-10.57771	15.45973	43.12451	156.22464	-25.22377	2.44101	37.42882	26.03744	0
673	34.98781	9.76404	9.76404	-26.85111	11.39138	11.39138	47.19286	166.80235	-20.34175	4.88202	39.05616	28.47845	0
674	56.14323	17.90074	-5.69569	-41.49717	30.91946	6.50936	52.88855	179.0074	-15.45973	7.32303	39.86983	31.73313	0
675	70.78929	25.22377	-20.34175	-52.07488	45.56552	0.81367	57.77057	192.02612	-10.57771	9.76404	39.86983	34.17414	0
676	75.67131	31.73313	-28.47845	-56.14323	52.07488	0	62.65259	206.67218	-4.88202	13.83239	40.6835	38.24249	0
677	72.41663	37.42882	-28.47845	-55.32956	50.44754	2.44101	65.90727	221.31824	1.62734	17.90074	42.31084	42.31084	0
678	65.0936	39.86983	-23.59643	-50.44754	43.93818	5.69569	70.78929	235.9643	6.50936	21.15542	43.93818	44.75185	0
679	54.51589	36.61515	-19.52808	-43.93818	37.42882	6.50936	76.48498	249.79669	9.76404	21.96909	44.75185	46.37919	0
680	43.12451	30.10579	-15.45973	-36.61515	31.73313	4.88202	82.18067	263.62908	11.39138	21.96909	43.93818	46.37919	-1250	T-0
681	34.17414	23.59643	-8.95037	-31.73313	26.85111	0.81367	88.69003	275.83413	13.01872	21.96909	43.12451	45.56552	0
682	31.73313	21.15542	-3.25468	-30.91946	23.59643	0	95.19939	289.66652	14.64606	21.96909	43.12451	44.75185	0
683	35.80148	25.22377	-2.44101	-34.98781	26.03744	0.81367	100.89508	302.68524	13.83239	22.78276	42.31084	42.31084	0
684	43.93818	31.73313	-3.25468	-41.49717	29.29212	4.06835	105.7771	315.70396	13.83239	21.96909	48.8202	38.24249	0
685	49.63387	41.49717	-2.44101	-48.8202	30.10579	9.76404	109.03178	327.09534	13.01872	20.34175	66.72094	31.73313	0
686	52.88855	50.44754	-1.62734	-53.70222	29.29212	15.45973	111.47279	337.67305	13.83239	17.90074	80.55333	23.59643	0
687	55.32956	54.51589	-4.06835	-56.14323	30.10579	18.71441	112.28646	345.80975	14.64606	15.45973	79.73966	15.45973	0
688	57.77057	52.88855	-9.76404	-56.14323	34.17414	17.08707	112.28646	351.50544	15.45973	12.20505	69.97562	6.50936	0
689	61.02525	48.8202	-18.71441	-55.32956	38.24249	13.01872	113.10013	357.20113	16.2734	9.76404	56.14323	0	0
690	65.90727	45.56552	-30.91946	-55.32956	43.93818	10.57771	113.10013	362.89682	17.08707	7.32303	41.49717	-6.50936	0
691	69.97562	40.6835	-40.6835	-55.32956	49.63387	6.50936	112.28646	368.59251	16.2734	4.88202	26.03744	-13.01872	0
692	72.41663	32.5468	-49.63387	-51.26121	55.32956	0	109.84545	371.03352	12.20505	0	8.95037	-22.78276	0
693	69.97562	18.71441	-59.39791	-43.12451	59.39791	-12.20505	105.7771	372.66086	7.32303	-7.32303	-7.32303	-34.17414	0
694	62.65259	0	-66.72094	-30.10579	61.83892	-24.4101	101.70875	374.2882	2.44101	-14.64606	-24.4101	-46.37919	0
695	52.88855	-18.71441	-68.34828	-15.45973	62.65259	-34.98781	98.45407	376.72921	-0.81367	-21.96909	-40.6835	-58.58424	0
696	45.56552	-34.98781	-68.34828	-4.06835	63.46626	-44.75185	99.26774	380.79756	-3.25468	-27.66478	-53.70222	-67.53461	0
697	43.93818	-42.31084	-69.16195	0	67.53461	-51.26121	101.70875	387.30692	-2.44101	-30.10579	-61.83892	-74.04397	0
698	49.63387	-39.86983	-73.2303	-4.88202	74.04397	-54.51589	105.7771	397.07096	0	-30.10579	-65.0936	-76.48498	0
699	61.02525	-33.36047	-82.18067	-16.2734	83.80801	-56.14323	111.47279	408.46234	3.25468	-26.85111	-65.90727	-76.48498	0
700	77.29865	-25.22377	-94.38572	-29.29212	94.38572	-57.77057	118.79582	420.66739	8.1367	-22.78276	-63.46626	-74.85764	0
701	96.01306	-14.64606	-109.03178	-43.93818	104.14976	-56.9569	126.11885	431.2451	12.20505	-17.90074	-61.83892	-72.41663	0
702	113.10013	-3.25468	-121.23683	-57.77057	114.72747	-55.32956	131.00087	439.3818	13.01872	-15.45973	-61.83892	-73.2303	0
703	126.11885	2.44101	-130.1872	-67.53461	122.86417	-56.14323	132.62821	444.26382	13.83239	-15.45973	-64.27993	-75.67131	0
704	133.44188	4.88202	-134.25555	-75.67131	128.55986	-56.9569	131.81454	446.70483	13.01872	-17.08707	-69.16195	-80.55333	0
705	135.88289	4.06835	-133.44188	-78.92599	131.00087	-56.9569	131.00087	448.33217	12.20505	-18.71441	-74.85764	-86.24902	0
706	132.62821	4.06835	-134.25555	-78.11232	129.37353	-56.9569	130.1872	449.14584	12.20505	-20.34175	-79.73966	-91.13104	0
707	127.74619	4.06835	-134.25555	-74.85764	125.30518	-56.9569	130.1872	449.14584	13.83239	-21.96909	-82.99434	-96.01306	0
708	118.79582	0.81367	-130.1872	-68.34828	119.60949	-57.77057	129.37353	448.33217	14.64606	-22.78276	-83.80801	-99.26774	0
709	106.59077	-4.88202	-122.86417	-56.9569	111.47279	-58.58424	130.1872	447.5185	16.2734	-23.59643	-83.80801	-103.33609	0
710	94.38572	-13.83239	-114.72747	-45.56552	107.40444	-60.21158	131.00087	444.26382	15.45973	-24.4101	-83.80801	-106.59077	0
711	86.24902	-23.59643	-110.65912	-34.98781	106.59077	-64.27993	131.00087	438.56813	13.83239	-28.47845	-84.62168	-110.65912	0
712	82.18067	-33.36047	-112.28646	-28.47845	109.03178	-71.60296	129.37353	432.05877	12.20505	-33.36047	-87.06269	-114.72747	0
713	83.80801	-40.6835	-118.79582	-26.03744	113.10013	-78.92599	126.11885	424.73574	12.20505	-37.42882	-87.87636	-117.16848	0
714	89.5037	-43.93818	-125.30518	-26.85111	119.60949	-84.62168	122.86417	417.41271	12.20505	-38.24249	-86.24902	-116.35481	0
715	97.6404	-46.37919	-126.93252	-28.47845	124.49151	-88.69003	121.23683	410.08968	10.57771	-37.42882	-83.80801	-114.72747	0
716	105.7771	-48.00653	-126.93252	-30.91946	126.93252	-92.75838	118.79582	401.13931	8.95037	-36.61515	-81.367	-113.10013	0
717	110.65912	-48.8202	-128.55986	-32.5468	127.74619	-96.82673	116.35481	391.37527	6.50936	-35.80148	-77.29865	-110.65912	0
718	114.72747	-47.19286	-131.00087	-34.98781	127.74619	-98.45407	113.10013	380.79756	4.06835	-34.17414	-70.78929	-106.59077	0
719	118.79582	-44.75185	-131.00087	-39.86983	127.74619	-97.6404	110.65912	371.03352	3.25468	-30.91946	-63.46626	-100.08141	0
720	122.86417	-42.31084	-129.37353	-46.37919	126.93252	-95.19939	108.21811	360.45581	2.44101	-26.03744	-53.70222	-91.94471	0
721	124.49151	-37.42882	-129.37353	-52.88855	123.67784	-91.13104	107.40444	349.06443	0.81367	-21.96909	-43.93818	-83.80801	0
722	122.86417	-33.36047	-129.37353	-54.51589	120.42316	-85.43535	107.40444	335.23204	0	-18.71441	-35.80148	-76.48498	0
723	117.98215	-30.10579	-129.37353	-52.07488	117.16848	-81.367	104.96343	320.58598	-2.44101	-17.08707	-29.29212	-70.78929	0
724	112.28646	-27.66478	-126.93252	-46.37919	113.9138	-78.11232	100.89508	305.12625	-5.69569	-17.08707	-26.03744	-66.72094	0
725	100.89508	-26.03744	-122.0505	-36.61515	109.84545	-74.04397	95.19939	288.85285	-8.95037	-17.08707	-24.4101	-64.27993	0
726	86.24902	-26.85111	-116.35481	-23.59643	102.52242	-71.60296	89.5037	273.39312	-9.76404	-16.2734	-23.59643	-61.02525	0
727	72.41663	-26.85111	-112.28646	-16.2734	97.6404	-69.97562	85.43535	259.56073	-9.76404	-14.64606	-20.34175	-56.14323	0
728	62.65259	-21.96909	-109.03178	-16.2734	96.01306	-65.0936	82.18067	246.54201	-8.95037	-11.39138	-16.2734	-50.44754	0
729	60.21158	-13.83239	-104.14976	-18.71441	96.01306	-60.21158	78.92599	232.70962	-8.1367	-8.1367	-12.20505	-43.93818	0
730	60.21158	-4.88202	-96.01306	-21.15542	91.13104	-55.32956	76.48498	219.6909	-8.1367	-3.25468	-6.50936	-35.80148	0
731	58.58424	1.62734	-87.87636	-22.78276	82.18067	-48.8202	74.04397	207.48585	-8.1367	0.81367	-0.81367	-27.66478	0
732	57.77057	4.88202	-80.55333	-23.59643	71.60296	-41.49717	71.60296	194.46713	-9.76404	4.88202	3.25468	-20.34175	0
733	56.9569	5.69569	-73.2303	-25.22377	63.46626	-35.80148	68.34828	180.63474	-11.39138	6.50936	5.69569	-14.64606	0
734	54.51589	5.69569	-68.34828	-27.66478	56.14323	-33.36047	65.0936	166.80235	-12.20505	7.32303	7.32303	-10.57771	0
735	50.44754	2.44101	-66.72094	-29.29212	45.56552	-33.36047	61.83892	152.96996	-13.01872	7.32303	6.50936	-7.32303	0
736	45.56552	-3.25468	-64.27993	-27.66478	34.98781	-33.36047	56.14323	137.51023	-15.45973	4.88202	3.25468	-6.50936	0
737	37.42882	-14.64606	-61.83892	-20.34175	26.85111	-35.80148	48.00653	119.60949	-20.34175	0.81367	-0.81367	-8.1367	0
738	28.47845	-28.47845	-61.02525	-8.95037	21.96909	-40.6835	39.05616	100.89508	-27.66478	-3.25468	-5.69569	-10.57771	0
739	17.90074	-42.31084	-59.39791	3.25468	18.71441	-47.19286	29.29212	82.18067	-34.98781	-8.1367	-10.57771	-12.20505	0
740	8.1367	-54.51589	-54.51589	15.45973	14.64606	-50.44754	21.96909	65.0936	-42.31084	-11.39138	-14.64606	-13.83239	0
741	1.62734	-61.83892	-44.75185	26.03744	8.95037	-49.63387	16.2734	52.07488	-48.00653	-13.01872	-15.45973	-13.01872	0
742	-0.81367	-59.39791	-32.5468	31.73313	3.25468	-43.93818	12.20505	41.49717	-49.63387	-11.39138	-13.83239	-9.76404	0
743	-1.62734	-48.8202	-19.52808	34.17414	0	-33.36047	12.20505	33.36047	-47.19286	-6.50936	-8.95037	-4.06835	0
744	-3.25468	-37.42882	-8.95037	33.36047	-3.25468	-22.78276	13.83239	28.47845	-41.49717	-1.62734	-2.44101	2.44101	0
745	-6.50936	-27.66478	-1.62734	33.36047	-5.69569	-16.2734	15.45973	23.59643	-34.98781	2.44101	2.44101	8.95037	0
746	-12.20505	-20.34175	2.44101	35.80148	-6.50936	-10.57771	14.64606	17.90074	-30.91946	5.69569	4.88202	12.20505	0
747	-19.52808	-17.90074	4.06835	39.86983	-6.50936	-8.95037	12.20505	10.57771	-27.66478	6.50936	5.69569	12.20505	0
748	-22.78276	-18.71441	2.44101	39.86983	-4.88202	-9.76404	8.95037	3.25468	-26.03744	7.32303	5.69569	12.20505	0
749	-21.15542	-17.08707	-1.62734	34.98781	-3.25468	-12.20505	6.50936	-1.62734	-23.59643	8.95037	6.50936	13.01872	0
750	-18.71441	-13.83239	-8.95037	28.47845	-3.25468	-14.64606	5.69569	-4.88202	-21.15542	12.20505	10.57771	16.2734	0
751	-17.90074	-11.39138	-17.90074	24.4101	-6.50936	-15.45973	4.06835	-8.1367	-18.71441	16.2734	14.64606	19.52808	0
752	-19.52808	-12.20505	-23.59643	21.15542	-8.95037	-17.08707	1.62734	-12.20505	-20.34175	18.71441	17.08707	20.34175	0
753	-21.15542	-17.08707	-28.47845	19.52808	-8.95037	-20.34175	-1.62734	-17.90074	-23.59643	17.90074	16.2734	18.71441	0
754	-21.15542	-21.96909	-30.10579	17.90074	-6.50936	-26.85111	-6.50936	-24.4101	-26.85111	17.08707	14.64606	16.2734	0
755	-16.2734	-26.03744	-29.29212	16.2734	-2.44101	-34.98781	-8.95037	-29.29212	-28.47845	17.08707	13.83239	14.64606	0
756	-7.32303	-26.03744	-30.10579	12.20505	0	-39.86983	-8.95037	-33.36047	-27.66478	18.71441	14.64606	15.45973	0
757	0	-23.59643	-30.10579	8.1367	0	-39.05616	-6.50936	-37.42882	-24.4101	21.15542	17.08707	17.08707	0
758	3.25468	-19.52808	-26.85111	4.06835	0	-34.98781	-4.88202	-39.86983	-21.15542	24.4101	20.34175	18.71441	0
759	4.88202	-15.45973	-21.15542	2.44101	0	-29.29212	-4.88202	-42.31084	-19.52808	25.22377	21.96909	18.71441	0
760	3.25468	-12.20505	-13.83239	2.44101	-2.44101	-26.03744	-6.50936	-43.93818	-18.71441	26.03744	22.78276	18.71441	0
761	0.81367	-10.57771	-8.1367	4.06835	-6.50936	-25.22377	-8.95037	-44.75185	-18.71441	27.66478	23.59643	18.71441	0
762	-1.62734	-9.76404	-2.44101	6.50936	-10.57771	-22.78276	-8.95037	-44.75185	-19.52808	29.29212	26.03744	20.34175	0
763	-5.69569	-9.76404	2.44101	7.32303	-15.45973	-19.52808	-8.1367	-43.93818	-19.52808	31.73313	27.66478	21.15542	0
764	-12.20505	-10.57771	8.95037	8.1367	-20.34175	-13.83239	-7.32303	-43.93818	-19.52808	33.36047	28.47845	21.15542	0
765	-19.52808	-9.76404	17.08707	9.76404	-26.85111	-6.50936	-6.50936	-44.75185	-18.71441	34.17414	26.85111	20.34175	0
766	-27.66478	-8.95037	21.96909	13.01872	-32.5468	0	-5.69569	-45.56552	-16.2734	34.17414	25.22377	19.52808	0
767	-38.24249	-9.76404	28.47845	18.71441	-39.86983	4.88202	-5.69569	-45.56552	-13.83239	34.17414	23.59643	17.90074	0
768	-52.07488	-13.01872	36.61515	26.85111	-48.8202	9.76404	-4.06835	-43.93818	-9.76404	34.17414	23.59643	17.08707	0
769	-63.46626	-17.08707	44.75185	33.36047	-56.9569	12.20505	-3.25468	-42.31084	-6.50936	36.61515	23.59643	17.90074	0
770	-67.53461	-21.15542	52.07488	33.36047	-59.39791	13.83239	-2.44101	-39.86983	-2.44101	39.05616	25.22377	19.52808	0
771	-65.90727	-20.34175	53.70222	29.29212	-56.9569	16.2734	-0.81367	-38.24249	0	42.31084	26.85111	21.15542	0
772	-60.21158	-16.2734	50.44754	25.22377	-51.26121	18.71441	0	-39.05616	0	43.93818	26.03744	21.15542	0
773	-52.88855	-13.01872	44.75185	22.78276	-43.93818	18.71441	-0.81367	-41.49717	0	43.93818	23.59643	18.71441	0
774	-43.93818	-8.95037	38.24249	18.71441	-36.61515	17.08707	-0.81367	-42.31084	0	44.75185	20.34175	17.08707	0
775	-32.5468	-1.62734	31.73313	9.76404	-29.29212	13.83239	-0.81367	-42.31084	4.06835	46.37919	17.90074	16.2734	0
776	-22.78276	8.1367	27.66478	-1.62734	-24.4101	12.20505	0	-39.86983	8.95037	48.8202	17.08707	16.2734	0
777	-15.45973	18.71441	26.03744	-12.20505	-21.15542	13.01872	0	-39.86983	14.64606	51.26121	15.45973	16.2734	0
778	-10.57771	25.22377	26.85111	-17.90074	-19.52808	14.64606	1.62734	-39.86983	18.71441	52.07488	13.01872	14.64606	0
779	-12.20505	28.47845	27.66478	-16.2734	-22.78276	16.2734	1.62734	-39.86983	20.34175	51.26121	10.57771	12.20505	0
780	-17.90074	28.47845	28.47845	-10.57771	-29.29212	16.2734	0	-41.49717	20.34175	48.8202	6.50936	8.95037	0
781	-26.85111	26.03744	27.66478	-2.44101	-39.05616	17.90074	-2.44101	-43.93818	17.08707	44.75185	2.44101	4.88202	0
782	-36.61515	19.52808	29.29212	7.32303	-48.00653	18.71441	-7.32303	-47.19286	13.01872	39.86983	-0.81367	0	0
783	-48.8202	8.95037	32.5468	21.15542	-56.14323	17.90074	-12.20505	-49.63387	8.1367	34.98781	-4.88202	-4.88202	0
784	-61.83892	-4.06835	38.24249	35.80148	-63.46626	13.83239	-16.2734	-52.07488	4.88202	30.10579	-8.95037	-10.57771	0
785	-70.78929	-16.2734	47.19286	46.37919	-66.72094	8.1367	-17.90074	-52.88855	3.25468	26.85111	-12.20505	-14.64606	0
786	-74.04397	-22.78276	56.14323	51.26121	-64.27993	3.25468	-17.90074	-52.07488	4.88202	25.22377	-12.20505	-17.90074	0
787	-71.60296	-22.78276	61.83892	50.44754	-60.21158	3.25468	-14.64606	-50.44754	8.95037	25.22377	-10.57771	-19.52808	0
788	-64.27993	-18.71441	63.46626	43.93818	-55.32956	6.50936	-11.39138	-47.19286	13.01872	26.03744	-7.32303	-19.52808	0
789	-53.70222	-11.39138	61.83892	34.17414	-48.00653	11.39138	-7.32303	-43.12451	19.52808	28.47845	-1.62734	-17.90074	0
790	-41.49717	-4.06835	54.51589	24.4101	-39.86983	14.64606	-1.62734	-39.05616	25.22377	31.73313	4.06835	-15.45973	0
791	-30.10579	2.44101	46.37919	14.64606	-32.5468	18.71441	2.44101	-34.98781	29.29212	34.98781	10.57771	-13.01872	0
792	-21.15542	10.57771	39.05616	4.88202	-26.03744	23.59643	7.32303	-32.5468	32.5468	37.42882	15.45973	-11.39138	0
793	-14.64606	17.90074	34.17414	-3.25468	-21.15542	26.85111	9.76404	-30.10579	34.98781	39.05616	19.52808	-10.57771	0
794	-10.57771	23.59643	30.10579	-9.76404	-17.90074	30.10579	8.95037	-30.10579	36.61515	39.05616	20.34175	-12.20505	0
795	-7.32303	28.47845	26.03744	-13.01872	-15.45973	32.5468	7.32303	-30.91946	35.80148	37.42882	20.34175	-14.64606	0
796	-4.88202	32.5468	24.4101	-14.64606	-12.20505	33.36047	5.69569	-33.36047	32.5468	34.98781	20.34175	-17.08707	0
797	-3.25468	33.36047	24.4101	-14.64606	-9.76404	32.5468	4.06835	-37.42882	26.85111	32.5468	21.15542	-18.71441	0
798	-1.62734	32.5468	23.59643	-14.64606	-8.1367	30.91946	0	-43.12451	21.15542	28.47845	21.96909	-21.15542	0
799	0	30.10579	22.78276	-13.83239	-7.32303	26.03744	-4.06835	-48.00653	16.2734	22.78276	21.96909	-24.4101	0
800	1.62734	27.66478	24.4101	-13.01872	-7.32303	19.52808	-9.76404	-52.07488	13.01872	17.08707	22.78276	-26.85111	0
801	0	24.4101	28.47845	-10.57771	-10.57771	11.39138	-14.64606	-54.51589	12.20505	12.20505	24.4101	-28.47845	0
802	-8.1367	17.90074	34.98781	-5.69569	-17.90074	5.69569	-17.90074	-55.32956	13.83239	9.76404	28.47845	-27.66478	0
803	-22.78276	10.57771	43.12451	-1.62734	-29.29212	4.88202	-18.71441	-53.70222	17.08707	8.95037	34.98781	-23.59643	0
804	-34.98781	4.88202	49.63387	0.81367	-39.05616	8.95037	-16.2734	-49.63387	20.34175	10.57771	42.31084	-18.71441	0
805	-39.86983	2.44101	52.88855	3.25468	-43.12451	15.45973	-14.64606	-45.56552	23.59643	13.01872	48.8202	-13.83239	0
806	-38.24249	0.81367	55.32956	4.06835	-40.6835	19.52808	-12.20505	-42.31084	28.47845	15.45973	55.32956	-7.32303	0
807	-34.17414	4.06835	57.77057	4.06835	-36.61515	24.4101	-8.1367	-40.6835	34.17414	18.71441	62.65259	-0.81367	0
808	-29.29212	9.76404	58.58424	5.69569	-33.36047	28.47845	-4.06835	-39.86983	39.05616	21.96909	68.34828	4.88202	0
809	-26.85111	13.83239	59.39791	8.95037	-34.17414	33.36047	-2.44101	-39.05616	41.49717	23.59643	72.41663	10.57771	0
810	-29.29212	14.64606	60.21158	13.83239	-37.42882	36.61515	-4.06835	-38.24249	42.31084	22.78276	73.2303	13.83239	0
811	-35.80148	12.20505	60.21158	18.71441	-43.93818	38.24249	-6.50936	-37.42882	41.49717	21.15542	72.41663	15.45973	0
812	-43.93818	8.1367	59.39791	21.96909	-50.44754	38.24249	-8.95037	-34.98781	39.05616	19.52808	70.78929	17.08707	0
813	-50.44754	6.50936	60.21158	23.59643	-55.32956	38.24249	-10.57771	-33.36047	34.98781	17.08707	68.34828	18.71441	0
814	-52.07488	5.69569	58.58424	23.59643	-56.9569	39.05616	-11.39138	-33.36047	30.91946	15.45973	65.0936	20.34175	0
815	-49.63387	4.88202	55.32956	21.96909	-53.70222	38.24249	-12.20505	-34.17414	28.47845	13.83239	61.02525	21.15542	0
816	-43.93818	4.06835	53.70222	19.52808	-47.19286	35.80148	-13.01872	-34.98781	26.85111	12.20505	56.9569	21.96909	0
817	-36.61515	5.69569	51.26121	14.64606	-39.05616	33.36047	-13.01872	-35.80148	26.85111	11.39138	53.70222	23.59643	0
818	-26.85111	12.20505	49.63387	6.50936	-31.73313	33.36047	-12.20505	-34.98781	27.66478	10.57771	51.26121	26.85111	0
819	-17.90074	21.15542	48.00653	-1.62734	-26.03744	36.61515	-9.76404	-33.36047	30.10579	12.20505	52.07488	31.73313	0
820	-13.01872	29.29212	44.75185	-7.32303	-21.15542	42.31084	-6.50936	-31.73313	31.73313	14.64606	52.88855	38.24249	0
821	-10.57771	32.5468	41.49717	-10.57771	-17.08707	44.75185	-1.62734	-32.5468	31.73313	14.64606	52.88855	42.31084	0
822	-10.57771	30.10579	38.24249	-10.57771	-15.45973	42.31084	0.81367	-34.98781	28.47845	13.83239	49.63387	44.75185	0
823	-12.20505	24.4101	34.17414	-10.57771	-15.45973	36.61515	1.62734	-38.24249	25.22377	12.20505	44.75185	44.75185	0
824	-13.83239	17.90074	31.73313	-8.95037	-14.64606	30.10579	0	-41.49717	20.34175	8.95037	38.24249	42.31084	0
825	-13.83239	11.39138	30.10579	-8.1367	-14.64606	25.22377	-3.25468	-43.93818	16.2734	5.69569	30.10579	39.86983	0
826	-16.2734	6.50936	25.22377	-7.32303	-17.08707	19.52808	-8.95037	-45.56552	13.01872	2.44101	22.78276	36.61515	0
827	-21.15542	3.25468	19.52808	-4.88202	-21.96909	14.64606	-13.83239	-45.56552	11.39138	0.81367	17.08707	35.80148	0
828	-25.22377	3.25468	21.15542	-1.62734	-27.66478	14.64606	-17.08707	-43.93818	11.39138	0.81367	14.64606	36.61515	0
829	-28.47845	4.88202	26.03744	0	-32.5468	17.90074	-17.90074	-40.6835	14.64606	3.25468	15.45973	41.49717	0
830	-28.47845	7.32303	32.5468	1.62734	-34.98781	21.96909	-15.45973	-36.61515	18.71441	8.1367	18.71441	48.00653	0
831	-27.66478	11.39138	39.86983	1.62734	-33.36047	26.85111	-12.20505	-34.17414	21.96909	13.83239	23.59643	54.51589	0
832	-25.22377	16.2734	45.56552	0	-31.73313	31.73313	-8.95037	-32.5468	24.4101	18.71441	26.85111	60.21158	0
833	-23.59643	19.52808	48.8202	0	-30.10579	34.17414	-7.32303	-33.36047	24.4101	21.15542	28.47845	62.65259	0
834	-23.59643	20.34175	47.19286	-0.81367	-29.29212	34.98781	-7.32303	-34.98781	24.4101	21.15542	26.85111	61.83892	0
835	-21.96909	21.96909	40.6835	0	-27.66478	33.36047	-8.95037	-37.42882	25.22377	17.90074	21.96909	57.77057	0
836	-17.90074	21.96909	34.98781	0.81367	-28.47845	29.29212	-12.20505	-40.6835	23.59643	13.01872	15.45973	51.26121	0
837	-13.83239	19.52808	31.73313	0.81367	-30.10579	24.4101	-16.2734	-43.93818	20.34175	8.95037	8.95037	45.56552	0
838	-12.20505	16.2734	28.47845	2.44101	-30.10579	19.52808	-19.52808	-47.19286	16.2734	4.88202	4.88202	40.6835	0
839	-12.20505	13.01872	26.85111	4.06835	-29.29212	17.08707	-21.96909	-49.63387	10.57771	0.81367	0.81367	35.80148	0
840	-12.20505	9.76404	27.66478	4.88202	-26.85111	16.2734	-23.59643	-53.70222	4.06835	-2.44101	-2.44101	30.91946	0
841	-13.83239	5.69569	29.29212	4.88202	-21.15542	14.64606	-24.4101	-59.39791	-0.81367	-7.32303	-6.50936	25.22377	0
842	-16.2734	0.81367	26.85111	4.06835	-15.45973	10.57771	-26.03744	-64.27993	-3.25468	-11.39138	-10.57771	18.71441	0
843	-17.08707	0.81367	21.96909	3.25468	-10.57771	4.88202	-26.85111	-67.53461	-4.88202	-13.01872	-12.20505	13.83239	0
844	-16.2734	4.88202	15.45973	0.81367	-8.1367	1.62734	-25.22377	-67.53461	-3.25468	-11.39138	-11.39138	12.20505	0
845	-17.90074	11.39138	10.57771	-4.06835	-9.76404	0	-21.96909	-63.46626	-1.62734	-5.69569	-6.50936	13.83239	0
846	-21.96909	17.08707	6.50936	-7.32303	-14.64606	1.62734	-16.2734	-57.77057	0	0.81367	-1.62734	17.08707	0
847	-26.03744	19.52808	7.32303	-7.32303	-19.52808	4.88202	-11.39138	-53.70222	0.81367	5.69569	2.44101	18.71441	0
848	-28.47845	17.90074	9.76404	-4.06835	-23.59643	7.32303	-10.57771	-51.26121	0	8.1367	4.06835	18.71441	0
849	-29.29212	11.39138	10.57771	0.81367	-25.22377	7.32303	-13.01872	-53.70222	-2.44101	7.32303	2.44101	14.64606	0
850	-29.29212	3.25468	10.57771	5.69569	-25.22377	4.88202	-17.08707	-56.14323	-6.50936	5.69569	0	9.76404	0
851	-27.66478	-6.50936	9.76404	8.95037	-26.03744	0	-20.34175	-58.58424	-8.1367	4.88202	0	6.50936	0
852	-27.66478	-13.83239	10.57771	13.01872	-26.85111	-1.62734	-21.96909	-59.39791	-7.32303	5.69569	0	4.06835	0
853	-30.10579	-17.90074	14.64606	17.08707	-29.29212	-1.62734	-21.15542	-59.39791	-4.88202	7.32303	0	3.25468	0
854	-34.98781	-20.34175	19.52808	23.59643	-34.17414	0.81367	-20.34175	-59.39791	-2.44101	8.1367	0	1.62734	0
855	-43.93818	-25.22377	26.03744	31.73313	-39.86983	6.50936	-20.34175	-59.39791	-0.81367	8.1367	-0.81367	0	0
856	-52.07488	-29.29212	33.36047	39.05616	-42.31084	15.45973	-19.52808	-61.83892	-1.62734	8.1367	-1.62734	0	0
857	-55.32956	-30.91946	38.24249	43.12451	-43.12451	21.96909	-18.71441	-64.27993	-4.06835	8.95037	-1.62734	-0.81367	0
858	-55.32956	-30.10579	39.86983	43.12451	-42.31084	23.59643	-17.90074	-66.72094	-7.32303	8.95037	-1.62734	-1.62734	0
859	-52.88855	-28.47845	36.61515	41.49717	-38.24249	21.96909	-18.71441	-68.34828	-8.95037	8.95037	-2.44101	-3.25468	0
860	-48.8202	-26.03744	28.47845	38.24249	-30.91946	20.34175	-20.34175	-69.16195	-9.76404	8.95037	-4.06835	-5.69569	0
861	-44.75185	-21.96909	17.90074	34.98781	-21.96909	18.71441	-22.78276	-69.16195	-8.1367	8.95037	-4.88202	-8.1367	0
862	-39.05616	-17.90074	8.1367	30.10579	-13.01872	16.2734	-23.59643	-66.72094	-4.06835	10.57771	-4.06835	-9.76404	0
863	-31.73313	-14.64606	1.62734	25.22377	-6.50936	12.20505	-22.78276	-63.46626	0	13.83239	-2.44101	-9.76404	0
864	-26.03744	-11.39138	0	21.15542	-4.06835	8.95037	-21.15542	-61.02525	4.06835	17.90074	0	-9.76404	0
865	-26.03744	-8.95037	3.25468	19.52808	-8.1367	8.1367	-18.71441	-59.39791	6.50936	21.96909	2.44101	-8.1367	0
866	-30.10579	-9.76404	9.76404	20.34175	-17.08707	8.95037	-15.45973	-57.77057	8.95037	26.03744	4.88202	-7.32303	0
867	-36.61515	-13.83239	14.64606	24.4101	-25.22377	9.76404	-13.01872	-56.14323	10.57771	28.47845	8.1367	-6.50936	0
868	-41.49717	-17.90074	17.08707	27.66478	-30.10579	7.32303	-11.39138	-55.32956	11.39138	30.91946	10.57771	-5.69569	0
869	-43.93818	-21.15542	16.2734	28.47845	-29.29212	4.06835	-9.76404	-53.70222	11.39138	33.36047	13.83239	-4.06835	0
870	-42.31084	-23.59643	9.76404	26.85111	-23.59643	0	-8.95037	-52.07488	11.39138	35.80148	17.08707	-1.62734	0
871	-35.80148	-22.78276	1.62734	24.4101	-15.45973	-1.62734	-7.32303	-50.44754	10.57771	39.05616	21.15542	0.81367	0
872	-29.29212	-20.34175	-6.50936	21.15542	-6.50936	-2.44101	-6.50936	-49.63387	8.95037	40.6835	24.4101	3.25468	0
873	-23.59643	-20.34175	-11.39138	20.34175	-0.81367	-5.69569	-7.32303	-50.44754	5.69569	40.6835	25.22377	4.88202	0
874	-21.96909	-21.96909	-13.83239	21.96909	0	-7.32303	-8.95037	-52.88855	3.25468	39.05616	24.4101	4.88202	0
875	-23.59643	-26.03744	-12.20505	26.03744	-0.81367	-8.95037	-12.20505	-55.32956	0.81367	36.61515	22.78276	3.25468	0
876	-23.59643	-30.91946	-8.95037	28.47845	0	-11.39138	-16.2734	-56.9569	0	34.17414	19.52808	2.44101	0
877	-21.15542	-31.73313	-4.88202	28.47845	0.81367	-13.83239	-19.52808	-56.9569	0	34.17414	17.08707	3.25468	0
878	-16.2734	-27.66478	-0.81367	23.59643	1.62734	-13.01872	-20.34175	-55.32956	0.81367	34.98781	15.45973	4.88202	0
879	-12.20505	-21.15542	0	17.90074	0.81367	-8.95037	-20.34175	-54.51589	0.81367	35.80148	13.83239	5.69569	0
880	-9.76404	-15.45973	0.81367	14.64606	0.81367	-4.06835	-20.34175	-53.70222	0.81367	36.61515	11.39138	6.50936	0
881	-11.39138	-13.01872	2.44101	12.20505	2.44101	-0.81367	-21.96909	-55.32956	-0.81367	36.61515	8.1367	4.88202	0
882	-13.01872	-13.83239	2.44101	10.57771	5.69569	-0.81367	-23.59643	-58.58424	-4.88202	34.17414	3.25468	2.44101	0
883	-11.39138	-15.45973	-1.62734	8.1367	9.76404	-4.88202	-26.85111	-62.65259	-9.76404	30.91946	-1.62734	-0.81367	0
884	-7.32303	-15.45973	-6.50936	5.69569	13.01872	-8.95037	-28.47845	-66.72094	-12.20505	28.47845	-5.69569	-3.25468	0
885	-5.69569	-13.01872	-8.95037	4.88202	12.20505	-14.64606	-29.29212	-68.34828	-13.83239	27.66478	-8.95037	-4.06835	0
886	-6.50936	-12.20505	-13.83239	6.50936	9.76404	-19.52808	-27.66478	-66.72094	-11.39138	28.47845	-9.76404	-2.44101	0
887	-12.20505	-14.64606	-14.64606	9.76404	4.06835	-21.96909	-26.03744	-62.65259	-7.32303	30.91946	-8.1367	0.81367	0
888	-23.59643	-17.90074	-7.32303	15.45973	-7.32303	-19.52808	-23.59643	-57.77057	-0.81367	34.17414	-4.88202	6.50936	0
889	-36.61515	-20.34175	4.88202	23.59643	-21.96909	-13.83239	-19.52808	-52.88855	4.06835	38.24249	-1.62734	12.20505	0
890	-46.37919	-20.34175	18.71441	31.73313	-34.17414	-4.88202	-14.64606	-48.00653	8.95037	42.31084	0.81367	17.08707	0
891	-51.26121	-19.52808	30.10579	37.42882	-42.31084	0.81367	-10.57771	-43.93818	13.01872	43.93818	2.44101	20.34175	0
892	-52.07488	-19.52808	35.80148	38.24249	-44.75185	4.88202	-8.1367	-39.05616	17.90074	44.75185	2.44101	21.96909	0
893	-48.8202	-17.90074	36.61515	34.98781	-43.12451	6.50936	-6.50936	-34.98781	21.15542	44.75185	1.62734	22.78276	0
894	-43.12451	-13.01872	35.80148	32.5468	-39.86983	8.95037	-4.88202	-33.36047	24.4101	46.37919	2.44101	24.4101	0
895	-40.6835	-6.50936	37.42882	30.10579	-39.86983	12.20505	-3.25468	-32.5468	25.22377	48.00653	2.44101	26.03744	0
896	-39.86983	0	39.86983	27.66478	-43.12451	17.08707	-1.62734	-32.5468	25.22377	48.00653	1.62734	26.85111	0
897	-39.05616	0.81367	40.6835	28.47845	-45.56552	18.71441	-1.62734	-34.17414	21.15542	46.37919	0	25.22377	0
898	-39.05616	-2.44101	36.61515	30.10579	-44.75185	15.45973	-3.25468	-37.42882	16.2734	43.12451	-3.25468	22.78276	0
899	-39.86983	-6.50936	30.91946	29.29212	-40.6835	9.76404	-5.69569	-40.6835	12.20505	39.86983	-6.50936	19.52808	0
900	-38.24249	-8.1367	25.22377	26.85111	-35.80148	2.44101	-7.32303	-42.31084	9.76404	36.61515	-8.95037	17.08707	0
901	-36.61515	-8.95037	18.71441	24.4101	-33.36047	-1.62734	-9.76404	-43.12451	8.95037	34.17414	-11.39138	15.45973	0
902	-38.24249	-12.20505	13.83239	26.03744	-32.5468	-4.88202	-12.20505	-42.31084	9.76404	31.73313	-13.01872	13.83239	0
903	-43.93818	-18.71441	13.01872	32.5468	-34.17414	-7.32303	-13.01872	-40.6835	12.20505	29.29212	-13.83239	13.83239	0
904	-49.63387	-25.22377	13.01872	38.24249	-36.61515	-8.1367	-12.20505	-39.86983	13.01872	26.85111	-13.83239	13.83239	0
905	-51.26121	-30.91946	12.20505	42.31084	-34.98781	-8.1367	-11.39138	-39.86983	13.01872	24.4101	-14.64606	13.01872	0
906	-48.8202	-35.80148	13.01872	43.93818	-29.29212	-9.76404	-9.76404	-41.49717	9.76404	22.78276	-16.2734	12.20505	0
907	-43.93818	-36.61515	13.83239	41.49717	-22.78276	-10.57771	-8.1367	-43.93818	4.88202	21.96909	-16.2734	11.39138	0
908	-36.61515	-33.36047	13.01872	37.42882	-17.08707	-10.57771	-7.32303	-47.19286	0	21.96909	-17.08707	9.76404	0
909	-25.22377	-26.85111	10.57771	32.5468	-10.57771	-8.95037	-8.95037	-49.63387	-4.88202	19.52808	-19.52808	7.32303	0
910	-15.45973	-21.15542	8.1367	27.66478	-4.06835	-7.32303	-12.20505	-52.07488	-8.1367	16.2734	-22.78276	3.25468	0
911	-9.76404	-18.71441	7.32303	25.22377	-1.62734	-7.32303	-17.08707	-55.32956	-8.95037	11.39138	-26.03744	0	0
912	-12.20505	-20.34175	8.1367	26.85111	-1.62734	-7.32303	-20.34175	-56.9569	-6.50936	8.1367	-28.47845	-2.44101	0
913	-19.52808	-22.78276	10.57771	30.91946	-4.88202	-7.32303	-21.15542	-55.32956	-3.25468	5.69569	-27.66478	-1.62734	0
914	-22.78276	-22.78276	11.39138	31.73313	-7.32303	-7.32303	-20.34175	-52.07488	0	4.88202	-25.22377	0	0
915	-22.78276	-21.96909	9.76404	28.47845	-8.95037	-8.1367	-17.08707	-49.63387	3.25468	4.88202	-21.96909	2.44101	0
916	-23.59643	-21.96909	7.32303	23.59643	-10.57771	-7.32303	-13.83239	-48.00653	4.88202	4.88202	-20.34175	4.06835	0
917	-26.03744	-25.22377	4.88202	21.96909	-13.01872	-7.32303	-11.39138	-47.19286	4.88202	3.25468	-20.34175	4.06835	0
918	-29.29212	-29.29212	3.25468	22.78276	-16.2734	-8.1367	-8.95037	-47.19286	4.06835	2.44101	-20.34175	3.25468	0
919	-34.98781	-33.36047	4.88202	25.22377	-21.15542	-8.1367	-6.50936	-46.37919	4.06835	3.25468	-19.52808	3.25468	0
920	-39.05616	-38.24249	9.76404	28.47845	-26.03744	-7.32303	-4.88202	-43.93818	4.88202	3.25468	-18.71441	2.44101	0
921	-41.49717	-42.31084	13.83239	30.91946	-29.29212	-6.50936	-1.62734	-39.86983	8.1367	4.06835	-17.08707	2.44101	0
922	-41.49717	-40.6835	17.90074	31.73313	-30.10579	-4.88202	0	-35.80148	12.20505	6.50936	-14.64606	4.06835	0
923	-39.05616	-34.98781	21.15542	30.10579	-30.10579	-1.62734	1.62734	-33.36047	14.64606	8.95037	-10.57771	6.50936	0
924	-34.17414	-26.03744	21.15542	26.03744	-27.66478	0	3.25468	-32.5468	15.45973	11.39138	-5.69569	8.95037	0
925	-30.10579	-15.45973	19.52808	22.78276	-25.22377	0	4.06835	-33.36047	15.45973	13.01872	-2.44101	11.39138	0
926	-29.29212	-5.69569	17.90074	20.34175	-25.22377	1.62734	4.88202	-34.17414	13.83239	14.64606	0	13.01872	0
927	-30.91946	-1.62734	17.08707	21.15542	-26.85111	2.44101	4.88202	-35.80148	8.95037	14.64606	0.81367	13.01872	0
928	-32.5468	-4.06835	13.01872	22.78276	-26.03744	0	3.25468	-39.05616	3.25468	13.01872	0.81367	12.20505	0
929	-32.5468	-11.39138	8.1367	26.03744	-23.59643	-4.06835	0	-43.93818	-2.44101	9.76404	0	8.95037	0
930	-32.5468	-20.34175	6.50936	29.29212	-21.96909	-9.76404	-4.06835	-49.63387	-7.32303	6.50936	-1.62734	4.88202	0
931	-36.61515	-28.47845	9.76404	33.36047	-24.4101	-16.2734	-7.32303	-53.70222	-9.76404	4.06835	-1.62734	3.25468	0
932	-41.49717	-32.5468	15.45973	36.61515	-29.29212	-19.52808	-8.1367	-55.32956	-9.76404	4.88202	0	4.06835	0
933	-48.8202	-36.61515	21.15542	39.05616	-34.98781	-19.52808	-8.1367	-56.9569	-8.1367	7.32303	3.25468	5.69569	0
934	-54.51589	-42.31084	21.15542	41.49717	-37.42882	-18.71441	-8.1367	-57.77057	-6.50936	8.1367	5.69569	5.69569	0
935	-53.70222	-48.00653	16.2734	43.12451	-33.36047	-18.71441	-9.76404	-59.39791	-6.50936	7.32303	4.88202	4.06835	0
936	-48.8202	-52.07488	11.39138	43.93818	-23.59643	-20.34175	-13.83239	-59.39791	-5.69569	4.88202	3.25468	0.81367	0
937	-41.49717	-52.07488	8.1367	41.49717	-14.64606	-22.78276	-17.08707	-57.77057	-4.06835	4.06835	2.44101	-0.81367	0
938	-33.36047	-46.37919	5.69569	35.80148	-8.95037	-21.15542	-19.52808	-54.51589	-2.44101	4.06835	2.44101	-2.44101	0
939	-23.59643	-35.80148	4.06835	26.85111	-4.88202	-15.45973	-18.71441	-50.44754	0	4.88202	4.06835	-2.44101	0
940	-16.2734	-23.59643	0.81367	18.71441	-4.88202	-7.32303	-17.08707	-46.37919	2.44101	7.32303	5.69569	-0.81367	0
941	-10.57771	-13.01872	-1.62734	12.20505	-7.32303	0.81367	-14.64606	-41.49717	7.32303	9.76404	8.1367	0.81367	0
942	-8.1367	-6.50936	-1.62734	8.1367	-12.20505	6.50936	-10.57771	-37.42882	13.83239	13.83239	10.57771	4.06835	0
943	-8.1367	-3.25468	0.81367	4.06835	-16.2734	10.57771	-5.69569	-32.5468	21.15542	18.71441	13.83239	7.32303	0
944	-7.32303	-1.62734	8.1367	0	-18.71441	13.01872	0	-27.66478	27.66478	24.4101	17.08707	12.20505	0
945	-7.32303	0	21.15542	-4.06835	-20.34175	12.20505	5.69569	-22.78276	33.36047	30.91946	20.34175	16.2734	0
946	-10.57771	3.25468	34.98781	-7.32303	-23.59643	10.57771	10.57771	-17.08707	38.24249	37.42882	23.59643	21.15542	0
947	-15.45973	6.50936	45.56552	-8.1367	-29.29212	11.39138	14.64606	-11.39138	43.12451	42.31084	26.03744	25.22377	0
948	-21.96909	9.76404	53.70222	-5.69569	-35.80148	14.64606	17.90074	-6.50936	45.56552	46.37919	27.66478	29.29212	0
949	-31.73313	11.39138	59.39791	0	-44.75185	18.71441	23.59643	-0.81367	48.8202	51.26121	30.10579	33.36047	0
950	-43.12451	15.45973	61.83892	5.69569	-55.32956	22.78276	28.47845	3.25468	51.26121	56.14323	32.5468	38.24249	0
951	-54.51589	19.52808	61.83892	10.57771	-62.65259	29.29212	32.5468	8.1367	52.07488	59.39791	34.17414	41.49717	0
952	-62.65259	22.78276	61.83892	13.83239	-66.72094	36.61515	34.17414	12.20505	49.63387	60.21158	32.5468	41.49717	0
953	-65.90727	23.59643	63.46626	15.45973	-68.34828	42.31084	34.17414	14.64606	46.37919	59.39791	29.29212	39.86983	0
954	-62.65259	26.03744	64.27993	13.01872	-65.90727	47.19286	34.17414	16.2734	43.93818	57.77057	25.22377	37.42882	0
955	-51.26121	30.91946	63.46626	5.69569	-56.9569	52.88855	34.98781	17.08707	42.31084	56.9569	21.96909	35.80148	0
956	-31.73313	37.42882	60.21158	-5.69569	-40.6835	59.39791	35.80148	18.71441	40.6835	55.32956	17.90074	33.36047	0
957	-11.39138	44.75185	52.88855	-20.34175	-20.34175	61.83892	36.61515	21.15542	38.24249	53.70222	14.64606	30.91946	0
958	7.32303	52.07488	43.93818	-34.17414	-3.25468	61.02525	36.61515	23.59643	34.17414	50.44754	9.76404	26.85111	0
959	22.78276	57.77057	34.17414	-44.75185	7.32303	59.39791	34.98781	25.22377	31.73313	45.56552	4.88202	22.78276	0
960	31.73313	60.21158	24.4101	-50.44754	12.20505	56.14323	30.91946	25.22377	27.66478	39.86983	0	17.90074	0
961	34.98781	57.77057	14.64606	-49.63387	11.39138	51.26121	23.59643	22.78276	21.96909	32.5468	-6.50936	12.20505	0
962	34.98781	52.88855	8.1367	-46.37919	7.32303	45.56552	14.64606	17.90074	14.64606	26.85111	-11.39138	8.1367	0
963	32.5468	50.44754	8.1367	-41.49717	0.81367	41.49717	3.25468	12.20505	9.76404	21.96909	-14.64606	7.32303	0
964	25.22377	48.8202	14.64606	-35.80148	-6.50936	43.12451	-6.50936	4.88202	4.88202	17.90074	-17.08707	7.32303	0
965	17.90074	47.19286	23.59643	-30.91946	-12.20505	45.56552	-16.2734	-0.81367	0	13.83239	-20.34175	7.32303	0
966	13.01872	47.19286	33.36047	-29.29212	-13.01872	48.00653	-25.22377	-7.32303	-4.88202	11.39138	-22.78276	7.32303	0
967	8.95037	51.26121	40.6835	-31.73313	-10.57771	49.63387	-33.36047	-14.64606	-8.95037	9.76404	-25.22377	8.1367	0
968	7.32303	56.9569	45.56552	-36.61515	-8.95037	52.07488	-39.05616	-21.15542	-12.20505	9.76404	-26.85111	8.95037	0
969	4.06835	61.83892	50.44754	-38.24249	-8.95037	54.51589	-41.49717	-26.03744	-14.64606	10.57771	-26.85111	9.76404	0
970	-0.81367	65.0936	52.88855	-36.61515	-8.1367	56.14323	-39.86983	-29.29212	-16.2734	13.01872	-25.22377	11.39138	0
971	-4.06835	67.53461	56.9569	-33.36047	-6.50936	56.9569	-36.61515	-30.91946	-17.90074	16.2734	-23.59643	13.01872	0
972	-2.44101	67.53461	60.21158	-31.73313	-4.88202	58.58424	-32.5468	-32.5468	-21.15542	17.90074	-22.78276	13.01872	0
973	0	67.53461	60.21158	-32.5468	-4.88202	58.58424	-30.10579	-35.80148	-25.22377	17.08707	-22.78276	12.20505	0
974	1.62734	67.53461	60.21158	-32.5468	-7.32303	58.58424	-30.10579	-39.05616	-29.29212	15.45973	-23.59643	10.57771	0
975	2.44101	67.53461	57.77057	-32.5468	-11.39138	57.77057	-31.73313	-42.31084	-32.5468	13.83239	-25.22377	8.1367	0
976	1.62734	65.90727	51.26121	-30.91946	-13.83239	58.58424	-34.98781	-46.37919	-38.24249	11.39138	-28.47845	5.69569	0
977	2.44101	61.02525	43.93818	-26.85111	-13.83239	56.9569	-39.05616	-52.07488	-43.93818	8.1367	-32.5468	1.62734	0
978	4.88202	54.51589	34.98781	-21.96909	-12.20505	52.07488	-43.12451	-57.77057	-50.44754	4.06835	-36.61515	-1.62734	0
979	9.76404	47.19286	25.22377	-18.71441	-7.32303	43.93818	-47.19286	-62.65259	-55.32956	0.81367	-41.49717	-6.50936	0
980	15.45973	39.05616	13.83239	-17.08707	0.81367	33.36047	-49.63387	-67.53461	-57.77057	-1.62734	-46.37919	-10.57771	0
981	20.34175	33.36047	1.62734	-16.2734	12.20505	22.78276	-50.44754	-71.60296	-57.77057	-3.25468	-50.44754	-14.64606	0
982	27.66478	32.5468	-6.50936	-17.90074	22.78276	16.2734	-49.63387	-73.2303	-53.70222	-2.44101	-52.07488	-16.2734	0
983	37.42882	35.80148	-12.20505	-22.78276	31.73313	13.83239	-47.19286	-72.41663	-49.63387	0	-51.26121	-16.2734	0
984	45.56552	39.86983	-15.45973	-28.47845	37.42882	12.20505	-42.31084	-69.97562	-46.37919	4.06835	-49.63387	-14.64606	0
985	50.44754	42.31084	-17.08707	-35.80148	39.86983	10.57771	-38.24249	-65.90727	-43.12451	8.95037	-48.00653	-13.83239	0
986	49.63387	44.75185	-17.90074	-43.93818	37.42882	10.57771	-34.98781	-62.65259	-39.86983	13.01872	-45.56552	-12.20505	0
987	47.19286	43.12451	-17.90074	-48.00653	34.98781	9.76404	-30.91946	-59.39791	-36.61515	15.45973	-44.75185	-10.57771	0
988	43.93818	37.42882	-19.52808	-46.37919	32.5468	6.50936	-26.85111	-56.9569	-34.98781	17.08707	-43.93818	-10.57771	0
989	37.42882	28.47845	-19.52808	-39.86983	28.47845	0	-24.4101	-55.32956	-34.17414	17.08707	-44.75185	-11.39138	0
990	25.22377	19.52808	-11.39138	-29.29212	17.08707	-7.32303	-22.78276	-53.70222	-34.17414	17.90074	-44.75185	-12.20505	0
991	8.1367	12.20505	3.25468	-15.45973	0.81367	-16.2734	-21.15542	-50.44754	-33.36047	18.71441	-44.75185	-12.20505	0
992	-9.76404	3.25468	17.90074	0	-14.64606	-20.34175	-19.52808	-48.00653	-33.36047	20.34175	-43.12451	-11.39138	0
993	-30.10579	-6.50936	29.29212	16.2734	-30.10579	-21.15542	-17.08707	-47.19286	-33.36047	21.96909	-42.31084	-8.95037	0
994	-48.8202	-19.52808	34.98781	33.36047	-41.49717	-20.34175	-16.2734	-47.19286	-33.36047	22.78276	-41.49717	-8.1367	0
995	-62.65259	-30.91946	34.98781	44.75185	-48.8202	-16.2734	-16.2734	-48.8202	-34.17414	22.78276	-41.49717	-7.32303	0
996	-74.85764	-39.86983	33.36047	51.26121	-54.51589	-10.57771	-17.90074	-52.07488	-34.17414	21.15542	-43.12451	-7.32303	0
997	-82.99434	-45.56552	30.10579	54.51589	-57.77057	-7.32303	-19.52808	-56.14323	-33.36047	20.34175	-43.12451	-7.32303	0
998	-87.06269	-52.88855	26.03744	55.32956	-58.58424	-8.95037	-21.15542	-60.21158	-32.5468	19.52808	-42.31084	-6.50936	0
999	-88.69003	-61.02525	19.52808	53.70222	-56.9569	-13.83239	-20.34175	-61.83892	-30.91946	19.52808	-40.6835	-4.06835	0
1000	-85.43535	-69.16195	10.57771	52.07488	-52.88855	-21.96909	-18.71441	-61.83892	-27.66478	21.96909	-37.42882	-1.62734	0
1001	-78.11232	-75.67131	0	49.63387	-45.56552	-31.73313	-16.2734	-60.21158	-26.03744	23.59643	-33.36047	0.81367	0
1002	-69.16195	-76.48498	-8.1367	46.37919	-34.98781	-37.42882	-14.64606	-57.77057	-25.22377	26.03744	-29.29212	3.25468	0
1003	-58.58424	-70.78929	-13.83239	43.12451	-26.03744	-39.05616	-13.01872	-55.32956	-24.4101	26.85111	-26.03744	5.69569	0
1004	-48.8202	-63.46626	-15.45973	39.86983	-18.71441	-35.80148	-10.57771	-53.70222	-22.78276	27.66478	-22.78276	7.32303	0
1005	-40.6835	-56.9569	-15.45973	36.61515	-14.64606	-31.73313	-8.1367	-52.88855	-20.34175	27.66478	-19.52808	9.76404	0
1006	-33.36047	-50.44754	-13.01872	34.98781	-14.64606	-28.47845	-6.50936	-52.88855	-18.71441	28.47845	-17.08707	11.39138	0
1007	-26.03744	-43.93818	-8.95037	35.80148	-14.64606	-26.03744	-5.69569	-53.70222	-16.2734	29.29212	-14.64606	12.20505	0
1008	-22.78276	-39.05616	-7.32303	36.61515	-14.64606	-24.4101	-4.06835	-54.51589	-14.64606	30.10579	-12.20505	13.83239	0
1009	-23.59643	-37.42882	-6.50936	39.86983	-13.83239	-25.22377	-3.25468	-55.32956	-14.64606	30.10579	-11.39138	14.64606	0
1010	-26.85111	-39.86983	-7.32303	44.75185	-11.39138	-26.85111	-3.25468	-57.77057	-17.08707	28.47845	-10.57771	13.83239	0
1011	-30.91946	-43.93818	-10.57771	48.8202	-11.39138	-29.29212	-4.06835	-60.21158	-21.15542	26.03744	-11.39138	11.39138	0
1012	-34.17414	-50.44754	-14.64606	52.88855	-13.83239	-32.5468	-4.88202	-61.02525	-26.03744	24.4101	-11.39138	9.76404	0
1013	-37.42882	-57.77057	-15.45973	57.77057	-18.71441	-35.80148	-6.50936	-62.65259	-29.29212	22.78276	-11.39138	8.1367	0
1014	-45.56552	-67.53461	-14.64606	62.65259	-25.22377	-37.42882	-8.1367	-64.27993	-32.5468	21.96909	-10.57771	6.50936	0
1015	-56.14323	-77.29865	-12.20505	69.16195	-30.10579	-39.05616	-9.76404	-65.90727	-33.36047	21.96909	-10.57771	5.69569	0
1016	-62.65259	-85.43535	-7.32303	74.04397	-29.29212	-41.49717	-9.76404	-64.27993	-31.73313	23.59643	-8.1367	7.32303	0
1017	-65.0936	-87.87636	-3.25468	74.85764	-27.66478	-43.12451	-8.95037	-59.39791	-26.85111	28.47845	-2.44101	12.20505	0
1018	-63.46626	-85.43535	0	71.60296	-25.22377	-41.49717	-6.50936	-52.88855	-20.34175	34.17414	3.25468	18.71441	0
1019	-60.21158	-81.367	0	65.90727	-23.59643	-38.24249	-4.06835	-48.00653	-16.2734	39.05616	8.95037	23.59643	0
1020	-58.58424	-78.11232	-2.44101	63.46626	-24.4101	-34.98781	-2.44101	-46.37919	-14.64606	39.86983	10.57771	26.03744	0
1021	-59.39791	-77.29865	-7.32303	64.27993	-26.85111	-34.17414	-0.81367	-46.37919	-13.01872	39.05616	9.76404	26.03744	0
1022	-62.65259	-78.11232	-10.57771	66.72094	-30.10579	-34.17414	0.81367	-48.00653	-12.20505	37.42882	8.95037	26.03744	0
1023	-65.0936	-76.48498	-11.39138	68.34828	-32.5468	-33.36047	2.44101	-50.44754	-13.01872	36.61515	8.95037	26.03744	0
1024	-65.90727	-74.04397	-7.32303	69.16195	-33.36047	-30.91946	3.25468	-52.88855	-14.64606	34.98781	8.1367	26.85111	0
1025	-65.0936	-72.41663	0.81367	68.34828	-33.36047	-28.47845	3.25468	-55.32956	-16.2734	34.17414	6.50936	26.85111	0
1026	-63.46626	-70.78929	10.57771	67.53461	-35.80148	-27.66478	3.25468	-58.58424	-17.90074	33.36047	4.06835	26.85111	0
1027	-61.83892	-68.34828	17.90074	65.90727	-38.24249	-27.66478	2.44101	-61.02525	-17.90074	33.36047	2.44101	26.85111	0
1028	-58.58424	-64.27993	19.52808	62.65259	-37.42882	-26.85111	1.62734	-63.46626	-17.90074	34.17414	0	26.85111	0
1029	-53.70222	-60.21158	17.08707	59.39791	-34.17414	-26.85111	0	-64.27993	-18.71441	34.98781	-2.44101	26.03744	0
1030	-46.37919	-55.32956	10.57771	56.14323	-27.66478	-26.03744	-1.62734	-64.27993	-20.34175	34.17414	-5.69569	26.03744	0
1031	-35.80148	-50.44754	0	51.26121	-18.71441	-24.4101	-4.88202	-64.27993	-20.34175	34.17414	-8.95037	25.22377	0
1032	-24.4101	-45.56552	-12.20505	45.56552	-12.20505	-24.4101	-6.50936	-64.27993	-18.71441	33.36047	-12.20505	24.4101	0
1033	-15.45973	-43.12451	-21.96909	40.6835	-10.57771	-26.85111	-6.50936	-63.46626	-16.2734	33.36047	-14.64606	23.59643	0
1034	-17.08707	-43.93818	-25.22377	40.6835	-14.64606	-27.66478	-2.44101	-59.39791	-13.01872	34.98781	-16.2734	24.4101	0
1035	-30.91946	-47.19286	-19.52808	48.00653	-25.22377	-27.66478	5.69569	-50.44754	-7.32303	39.86983	-14.64606	26.85111	0
1036	-51.26121	-52.07488	-8.95037	62.65259	-37.42882	-25.22377	17.08707	-36.61515	-0.81367	46.37919	-11.39138	32.5468	0
1037	-72.41663	-59.39791	-0.81367	79.73966	-48.00653	-26.03744	30.10579	-19.52808	3.25468	52.88855	-8.1367	37.42882	0
1038	-91.13104	-72.41663	-0.81367	95.19939	-56.14323	-34.17414	42.31084	-1.62734	6.50936	56.9569	-6.50936	41.49717	0
1039	-104.14976	-91.13104	-8.95037	107.40444	-56.9569	-49.63387	52.88855	15.45973	7.32303	56.9569	-7.32303	41.49717	0
