samplenr	I	II	III	aVR	aVL	aVF	V1	V2	V3	V4	V5	V6	measurement
0	0	-2.44101	-2.44101	1.62734	0	-2.44101	0	0	-1.62734	-4.06835	-4.88202	-3.25468	0
1	-2.44101	-13.01872	-10.57771	7.32303	3.25468	-12.20505	0.81367	0	-8.95037	-19.52808	-23.59643	-17.08707	0
2	-5.69569	-28.47845	-22.78276	16.2734	7.32303	-26.03744	0	1.62734	-17.90074	-39.86983	-50.44754	-35.80148	0
3	-10.57771	-43.12451	-33.36047	26.03744	9.76404	-38.24249	-1.62734	4.88202	-22.78276	-56.9569	-73.2303	-52.07488	0
4	-13.83239	-53.70222	-41.49717	33.36047	12.20505	-46.37919	-3.25468	10.57771	-24.4101	-66.72094	-89.5037	-63.46626	0
5	-14.64606	-58.58424	-44.75185	36.61515	13.83239	-49.63387	-4.06835	15.45973	-21.96909	-70.78929	-97.6404	-69.16195	0
6	-15.45973	-58.58424	-43.93818	36.61515	13.01872	-49.63387	-2.44101	17.90074	-19.52808	-71.60296	-100.08141	-69.97562	0
7	-15.45973	-55.32956	-39.05616	34.98781	11.39138	-46.37919	0	19.52808	-17.90074	-69.16195	-97.6404	-66.72094	0
8	-17.08707	-49.63387	-32.5468	32.5468	7.32303	-40.6835	2.44101	21.15542	-17.08707	-66.72094	-91.13104	-61.02525	0
9	-19.52808	-44.75185	-25.22377	30.91946	2.44101	-35.80148	5.69569	21.96909	-17.08707	-65.0936	-84.62168	-55.32956	0
10	-21.96909	-41.49717	-19.52808	30.10579	-0.81367	-31.73313	8.95037	22.78276	-18.71441	-63.46626	-79.73966	-52.07488	0
11	-23.59643	-40.6835	-17.08707	30.10579	-2.44101	-30.91946	10.57771	22.78276	-21.15542	-63.46626	-78.11232	-52.88855	0
12	-24.4101	-42.31084	-17.90074	30.91946	-2.44101	-31.73313	10.57771	23.59643	-22.78276	-64.27993	-80.55333	-55.32956	0
13	-22.78276	-44.75185	-21.96909	31.73313	0	-33.36047	9.76404	26.03744	-21.96909	-65.0936	-83.80801	-58.58424	0
14	-20.34175	-47.19286	-27.66478	30.91946	3.25468	-36.61515	8.1367	29.29212	-19.52808	-65.90727	-87.87636	-61.83892	0
15	-17.90074	-48.00653	-32.5468	30.91946	7.32303	-39.05616	7.32303	32.5468	-16.2734	-65.0936	-91.13104	-65.0936	0
16	-17.08707	-48.8202	-34.98781	30.91946	8.1367	-40.6835	6.50936	33.36047	-14.64606	-65.0936	-92.75838	-65.90727	0
17	-17.08707	-48.8202	-33.36047	31.73313	7.32303	-40.6835	7.32303	32.5468	-15.45973	-64.27993	-91.13104	-65.0936	0
18	-17.90074	-48.8202	-30.10579	32.5468	4.06835	-40.6835	8.95037	30.91946	-17.90074	-63.46626	-87.06269	-62.65259	0
19	-19.52808	-49.63387	-26.85111	32.5468	0.81367	-39.86983	11.39138	29.29212	-20.34175	-62.65259	-82.18067	-60.21158	0
20	-22.78276	-50.44754	-24.4101	33.36047	-1.62734	-39.05616	14.64606	28.47845	-21.96909	-61.83892	-78.11232	-58.58424	0
21	-26.03744	-51.26121	-22.78276	34.17414	-2.44101	-39.05616	15.45973	26.85111	-25.22377	-62.65259	-78.11232	-60.21158	0
22	-26.03744	-52.07488	-24.4101	35.80148	-1.62734	-41.49717	13.83239	26.03744	-26.85111	-64.27993	-80.55333	-63.46626	0
23	-23.59643	-52.88855	-29.29212	35.80148	1.62734	-45.56552	10.57771	25.22377	-27.66478	-65.90727	-84.62168	-67.53461	0
24	-18.71441	-53.70222	-36.61515	34.98781	8.1367	-49.63387	4.88202	25.22377	-26.85111	-67.53461	-87.06269	-71.60296	0
25	-12.20505	-54.51589	-43.12451	32.5468	14.64606	-52.07488	0	26.85111	-24.4101	-67.53461	-88.69003	-73.2303	0
26	-7.32303	-52.88855	-47.19286	30.10579	18.71441	-52.07488	-1.62734	27.66478	-22.78276	-65.90727	-87.87636	-72.41663	0
27	-6.50936	-51.26121	-46.37919	28.47845	18.71441	-49.63387	-2.44101	26.85111	-22.78276	-64.27993	-85.43535	-69.97562	0
28	-8.95037	-48.00653	-40.6835	28.47845	14.64606	-45.56552	0	25.22377	-23.59643	-62.65259	-78.92599	-66.72094	0
29	-13.83239	-45.56552	-33.36047	29.29212	8.95037	-40.6835	3.25468	21.96909	-25.22377	-60.21158	-72.41663	-61.83892	0
30	-17.08707	-43.93818	-27.66478	30.10579	4.06835	-37.42882	6.50936	17.90074	-28.47845	-59.39791	-69.16195	-60.21158	0
31	-19.52808	-45.56552	-26.85111	31.73313	2.44101	-37.42882	7.32303	13.01872	-32.5468	-60.21158	-69.97562	-62.65259	0
32	-19.52808	-48.8202	-30.10579	33.36047	4.06835	-40.6835	7.32303	8.1367	-37.42882	-63.46626	-74.85764	-68.34828	0
33	-17.90074	-52.88855	-35.80148	34.98781	8.1367	-44.75185	5.69569	6.50936	-39.05616	-65.90727	-80.55333	-74.04397	0
34	-14.64606	-54.51589	-40.6835	34.98781	11.39138	-48.00653	6.50936	7.32303	-36.61515	-65.90727	-84.62168	-78.11232	0
35	-12.20505	-54.51589	-40.6835	34.17414	11.39138	-47.19286	10.57771	10.57771	-31.73313	-64.27993	-84.62168	-79.73966	0
36	-11.39138	-50.44754	-35.80148	31.73313	8.95037	-43.12451	17.08707	14.64606	-26.85111	-60.21158	-82.18067	-77.29865	0
37	-11.39138	-42.31084	-28.47845	27.66478	5.69569	-35.80148	26.03744	16.2734	-22.78276	-56.14323	-75.67131	-73.2303	0
38	-10.57771	-31.73313	-19.52808	21.15542	2.44101	-26.03744	37.42882	17.08707	-20.34175	-50.44754	-66.72094	-66.72094	0
39	-7.32303	-17.90074	-10.57771	13.01872	0	-14.64606	49.63387	17.08707	-17.90074	-44.75185	-56.9569	-59.39791	0
40	-3.25468	-4.88202	-1.62734	4.06835	-1.62734	-3.25468	63.46626	17.90074	-16.2734	-39.05616	-48.8202	-52.88855	0
41	-1.62734	4.06835	5.69569	-1.62734	-4.06835	4.88202	76.48498	18.71441	-14.64606	-34.17414	-43.93818	-49.63387	0
42	0	10.57771	10.57771	-5.69569	-5.69569	10.57771	87.87636	21.15542	-13.83239	-30.91946	-42.31084	-48.8202	0
43	0.81367	15.45973	13.01872	-8.95037	-6.50936	13.83239	97.6404	23.59643	-10.57771	-28.47845	-41.49717	-48.00653	0
44	3.25468	21.15542	13.83239	-13.01872	-4.88202	17.90074	105.7771	27.66478	-4.88202	-24.4101	-41.49717	-47.19286	0
45	5.69569	27.66478	17.90074	-18.71441	-4.88202	22.78276	113.9138	30.91946	1.62734	-20.34175	-41.49717	-44.75185	0
46	6.50936	34.98781	24.4101	-21.96909	-8.1367	29.29212	121.23683	33.36047	6.50936	-17.08707	-39.05616	-40.6835	0
47	4.06835	40.6835	32.5468	-22.78276	-13.83239	36.61515	131.00087	32.5468	8.95037	-13.83239	-35.80148	-34.98781	0
48	0	43.93818	40.6835	-22.78276	-20.34175	42.31084	141.57858	30.91946	8.1367	-12.20505	-31.73313	-30.10579	0
49	-1.62734	48.00653	47.19286	-23.59643	-24.4101	47.19286	151.34262	28.47845	4.88202	-12.20505	-27.66478	-25.22377	0
50	-4.06835	52.07488	51.26121	-25.22377	-26.85111	51.26121	159.47932	25.22377	0.81367	-12.20505	-25.22377	-22.78276	0
51	-5.69569	53.70222	53.70222	-26.85111	-27.66478	53.70222	164.36134	22.78276	-1.62734	-12.20505	-25.22377	-22.78276	0
52	-4.88202	53.70222	54.51589	-26.03744	-28.47845	53.70222	165.98868	21.15542	-3.25468	-13.83239	-26.85111	-24.4101	0
53	-3.25468	52.88855	54.51589	-25.22377	-26.85111	52.88855	160.29299	19.52808	-3.25468	-14.64606	-29.29212	-25.22377	0
54	0	52.88855	53.70222	-26.03744	-25.22377	52.07488	147.27427	16.2734	-1.62734	-14.64606	-30.91946	-26.03744	0
55	4.88202	55.32956	51.26121	-29.29212	-22.78276	52.07488	127.74619	11.39138	0	-14.64606	-32.5468	-25.22377	0
56	11.39138	59.39791	49.63387	-34.98781	-18.71441	54.51589	106.59077	4.88202	0.81367	-13.83239	-32.5468	-22.78276	0
57	18.71441	63.46626	48.8202	-43.12451	-15.45973	59.39791	87.06269	-3.25468	0	-12.20505	-27.66478	-17.08707	0
58	24.4101	68.34828	48.8202	-49.63387	-12.20505	62.65259	69.16195	-12.20505	-1.62734	-10.57771	-21.15542	-10.57771	0
59	28.47845	72.41663	48.8202	-53.70222	-10.57771	65.0936	52.88855	-21.15542	-6.50936	-10.57771	-14.64606	-4.88202	0
60	30.91946	76.48498	47.19286	-55.32956	-8.1367	63.46626	37.42882	-30.10579	-12.20505	-13.01872	-11.39138	-2.44101	0
61	32.5468	77.29865	43.12451	-55.32956	-5.69569	60.21158	25.22377	-37.42882	-18.71441	-16.2734	-12.20505	-3.25468	0
62	37.42882	76.48498	37.42882	-56.9569	0	55.32956	13.83239	-43.12451	-23.59643	-20.34175	-16.2734	-6.50936	0
63	44.75185	76.48498	30.10579	-61.02525	7.32303	51.26121	2.44101	-46.37919	-25.22377	-21.96909	-18.71441	-8.1367	0
64	52.88855	78.92599	24.4101	-65.90727	14.64606	50.44754	-7.32303	-48.8202	-23.59643	-21.15542	-19.52808	-5.69569	0
65	61.02525	85.43535	23.59643	-73.2303	18.71441	53.70222	-16.2734	-49.63387	-17.90074	-16.2734	-15.45973	0	0
66	66.72094	96.01306	26.85111	-82.18067	19.52808	61.02525	-23.59643	-51.26121	-13.01872	-11.39138	-8.95037	7.32303	0
67	71.60296	106.59077	33.36047	-88.69003	17.90074	68.34828	-28.47845	-55.32956	-11.39138	-7.32303	-0.81367	16.2734	0
68	74.04397	115.54114	39.86983	-93.57205	16.2734	75.67131	-31.73313	-59.39791	-12.20505	-4.88202	7.32303	24.4101	0
69	74.04397	121.23683	43.12451	-96.82673	15.45973	80.55333	-34.98781	-63.46626	-15.45973	-3.25468	14.64606	30.91946	0
70	74.04397	120.42316	43.12451	-96.82673	15.45973	80.55333	-37.42882	-68.34828	-20.34175	-4.06835	19.52808	34.98781	0
71	74.85764	116.35481	39.86983	-95.19939	16.2734	77.29865	-40.6835	-74.04397	-26.03744	-6.50936	20.34175	34.17414	0
72	76.48498	110.65912	34.98781	-92.75838	18.71441	72.41663	-44.75185	-78.92599	-30.91946	-10.57771	17.90074	30.10579	0
73	78.92599	105.7771	26.85111	-91.94471	24.4101	65.90727	-50.44754	-81.367	-34.17414	-13.01872	15.45973	25.22377	0
74	80.55333	98.45407	17.08707	-89.5037	30.10579	57.77057	-56.14323	-81.367	-33.36047	-15.45973	13.01872	22.78276	0
75	81.367	91.13104	8.95037	-87.06269	34.98781	50.44754	-61.83892	-79.73966	-30.91946	-16.2734	12.20505	23.59643	0
76	81.367	83.80801	1.62734	-85.43535	38.24249	43.12451	-65.90727	-78.92599	-28.47845	-15.45973	13.83239	27.66478	0
77	82.18067	78.11232	-5.69569	-85.43535	43.93818	35.80148	-69.16195	-80.55333	-27.66478	-14.64606	18.71441	33.36047	0
78	82.99434	74.04397	-13.83239	-85.43535	51.26121	29.29212	-69.97562	-83.80801	-28.47845	-13.01872	25.22377	39.05616	0
79	82.99434	69.16195	-18.71441	-82.18067	54.51589	24.4101	-69.97562	-88.69003	-32.5468	-13.83239	30.91946	43.93818	0
80	80.55333	63.46626	-19.52808	-76.48498	53.70222	20.34175	-69.97562	-95.19939	-38.24249	-17.08707	32.5468	43.93818	0
81	76.48498	56.9569	-20.34175	-69.16195	50.44754	16.2734	-69.16195	-100.08141	-44.75185	-21.15542	29.29212	40.6835	0
82	72.41663	49.63387	-22.78276	-62.65259	48.8202	11.39138	-69.97562	-104.96343	-51.26121	-26.85111	22.78276	34.17414	0
83	70.78929	41.49717	-27.66478	-56.9569	49.63387	4.88202	-70.78929	-108.21811	-56.9569	-34.17414	14.64606	25.22377	0
84	67.53461	33.36047	-32.5468	-50.44754	50.44754	-0.81367	-71.60296	-109.03178	-62.65259	-42.31084	4.06835	15.45973	0
85	57.77057	22.78276	-34.98781	-40.6835	45.56552	-5.69569	-67.53461	-109.03178	-67.53461	-48.8202	-5.69569	7.32303	0
86	42.31084	12.20505	-33.36047	-27.66478	36.61515	-8.1367	-58.58424	-107.40444	-69.97562	-53.70222	-13.01872	0	0
87	26.03744	1.62734	-30.10579	-14.64606	27.66478	-10.57771	-47.19286	-104.14976	-71.60296	-56.14323	-17.90074	-4.06835	0
88	13.83239	-6.50936	-25.22377	-4.06835	21.15542	-13.01872	-35.80148	-100.89508	-73.2303	-57.77057	-19.52808	-8.1367	0
89	7.32303	-13.01872	-20.34175	1.62734	17.08707	-16.2734	-28.47845	-97.6404	-74.04397	-58.58424	-19.52808	-11.39138	0
90	1.62734	-18.71441	-18.71441	7.32303	13.01872	-20.34175	-22.78276	-95.19939	-75.67131	-58.58424	-20.34175	-16.2734	0
91	-4.88202	-26.03744	-19.52808	14.64606	8.1367	-23.59643	-18.71441	-92.75838	-76.48498	-59.39791	-22.78276	-21.15542	0
92	-13.01872	-35.80148	-23.59643	23.59643	2.44101	-27.66478	-16.2734	-90.31737	-78.11232	-61.83892	-27.66478	-28.47845	0
93	-17.90074	-46.37919	-29.29212	33.36047	0	-34.98781	-14.64606	-87.06269	-78.11232	-65.0936	-34.17414	-37.42882	0
94	-19.52808	-57.77057	-38.24249	40.6835	2.44101	-44.75185	-14.64606	-82.99434	-78.11232	-69.16195	-42.31084	-46.37919	0
95	-19.52808	-67.53461	-48.00653	44.75185	8.95037	-55.32956	-14.64606	-79.73966	-77.29865	-73.2303	-49.63387	-54.51589	0
96	-18.71441	-75.67131	-56.14323	48.00653	14.64606	-64.27993	-13.83239	-78.11232	-77.29865	-76.48498	-55.32956	-61.02525	0
97	-18.71441	-80.55333	-61.02525	49.63387	17.90074	-69.97562	-12.20505	-79.73966	-78.92599	-78.92599	-57.77057	-64.27993	0
98	-19.52808	-83.80801	-64.27993	51.26121	17.90074	-73.2303	-8.95037	-82.18067	-82.18067	-82.18067	-57.77057	-66.72094	0
99	-21.96909	-85.43535	-64.27993	52.88855	16.2734	-73.2303	-6.50936	-84.62168	-86.24902	-84.62168	-56.9569	-66.72094	0
100	-26.85111	-87.87636	-61.02525	56.9569	13.01872	-73.2303	-4.06835	-87.06269	-89.5037	-86.24902	-56.9569	-67.53461	1000	P+0
101	-33.36047	-91.13104	-56.9569	62.65259	9.76404	-73.2303	-3.25468	-87.87636	-91.94471	-87.06269	-58.58424	-69.16195	0
102	-37.42882	-95.19939	-53.70222	67.53461	8.1367	-74.04397	-4.06835	-87.87636	-93.57205	-88.69003	-61.83892	-72.41663	0
103	-38.24249	-97.6404	-54.51589	69.97562	8.95037	-75.67131	-4.88202	-86.24902	-92.75838	-89.5037	-65.0936	-74.85764	0
104	-35.80148	-97.6404	-58.58424	68.34828	12.20505	-78.11232	-6.50936	-82.99434	-89.5037	-88.69003	-67.53461	-77.29865	0
105	-32.5468	-96.01306	-61.83892	65.0936	14.64606	-78.92599	-6.50936	-78.92599	-85.43535	-87.87636	-69.16195	-77.29865	0
106	-30.91946	-94.38572	-62.65259	62.65259	15.45973	-78.11232	-5.69569	-77.29865	-82.99434	-86.24902	-68.34828	-76.48498	0
107	-30.91946	-91.94471	-61.83892	61.83892	14.64606	-76.48498	-4.06835	-77.29865	-82.18067	-84.62168	-65.0936	-74.04397	0
108	-32.5468	-90.31737	-59.39791	61.83892	12.20505	-75.67131	-1.62734	-79.73966	-83.80801	-83.80801	-60.21158	-70.78929	0
109	-34.17414	-88.69003	-57.77057	61.83892	9.76404	-74.85764	0	-82.99434	-87.06269	-82.99434	-56.14323	-67.53461	0
110	-32.5468	-87.06269	-56.9569	60.21158	8.1367	-73.2303	0.81367	-86.24902	-88.69003	-82.99434	-52.88855	-66.72094	0
111	-30.10579	-84.62168	-56.14323	56.9569	8.1367	-70.78929	0	-86.24902	-84.62168	-81.367	-52.88855	-68.34828	0
112	-28.47845	-81.367	-54.51589	54.51589	8.95037	-68.34828	0.81367	-78.11232	-75.67131	-79.73966	-57.77057	-74.04397	0
113	-30.91946	-79.73966	-49.63387	54.51589	6.50936	-65.90727	7.32303	-59.39791	-65.0936	-80.55333	-69.16195	-84.62168	0
114	-37.42882	-79.73966	-41.49717	58.58424	-0.81367	-64.27993	21.96909	-38.24249	-59.39791	-89.5037	-89.5037	-100.08141	0
115	-43.93818	-82.18067	-31.73313	65.90727	-10.57771	-61.02525	41.49717	-21.15542	-62.65259	-106.59077	-115.54114	-117.16848	0
116	-50.44754	-87.06269	-27.66478	72.41663	-16.2734	-61.02525	56.9569	-19.52808	-74.85764	-130.1872	-141.57858	-134.25555	0
117	-53.70222	-96.82673	-36.61515	78.11232	-13.01872	-69.16195	61.02525	-43.93818	-102.52242	-160.29299	-167.61602	-151.34262	0
118	-52.07488	-115.54114	-59.39791	83.80801	0	-88.69003	46.37919	-96.82673	-138.3239	-192.83979	-189.58511	-166.80235	0
119	-45.56552	-139.13757	-91.13104	87.06269	20.34175	-112.28646	25.22377	-155.41097	-168.42969	-215.62255	-202.60383	-179.82107	0
120	-34.17414	-158.66565	-122.86417	88.69003	43.12451	-132.62821	8.1367	-195.2808	-189.58511	-234.33696	-209.92686	-184.70309	0
121	-20.34175	-168.42969	-147.27427	87.06269	62.65259	-146.4606	0	-225.38659	-200.97649	-250.61036	-210.74053	-179.82107	0
122	-7.32303	-167.61602	-161.10666	82.18067	77.29865	-155.41097	-8.1367	-278.27514	-220.50457	-261.18807	-204.23117	-165.17501	0
123	2.44101	-161.92033	-165.98868	76.48498	86.24902	-157.85198	-33.36047	-393.81628	-281.52982	-281.52982	-197.72181	-144.01959	0
124	11.39138	-149.71528	-163.54767	67.53461	91.13104	-153.78363	-95.19939	-601.30213	-411.71702	-331.97736	-194.46713	-115.54114	0
125	23.59643	-132.62821	-157.85198	53.70222	93.57205	-144.01959	-194.46713	-881.20461	-602.92947	-417.41271	-195.2808	-81.367	0
126	37.42882	-113.9138	-152.15629	37.42882	96.82673	-133.44188	-309.1946	-1171.6848	-820.99303	-524.00348	-200.16282	-45.56552	0
127	52.88855	-96.82673	-146.4606	21.15542	102.52242	-124.49151	-425.54941	-1434.50021	-1034.98824	-637.10361	-205.04484	-8.95037	0
128	69.97562	-77.29865	-142.39225	3.25468	109.03178	-113.9138	-547.59991	-1669.65084	-1233.52372	-741.25337	-200.97649	30.10579	0
129	91.94471	-48.8202	-135.88289	-21.15542	115.54114	-95.19939	-675.3461	-1883.64605	-1410.90378	-825.06138	-179.0074	78.11232	0
130	118.79582	-5.69569	-122.0505	-56.14323	121.23683	-65.90727	-797.3966	-2077.29951	-1560.61906	-882.01828	-139.13757	135.88289	0
131	150.52895	47.19286	-101.70875	-99.26774	126.11885	-28.47845	-899.10535	-2244.91553	-1681.04222	-915.37875	-87.87636	197.72181	0
132	187.1441	99.26774	-82.18067	-146.4606	134.25555	10.57771	-977.21767	-2379.98475	-1765.6639	-930.02481	-32.5468	262.00174	0
133	231.89595	138.3239	-77.29865	-194.46713	153.78363	38.24249	-1042.31127	-2477.62515	-1814.4841	-934.09316	28.47845	329.53635	0
134	291.29386	163.54767	-105.7771	-240.03265	197.72181	39.86983	-1113.10056	-2532.14104	-1834.82585	-925.95646	99.26774	401.95298	0
135	370.21985	172.49804	-179.82107	-282.34349	274.20679	6.50936	-1200.97692	-2540.27774	-1824.24814	-899.91902	185.51676	480.87897	0
136	467.86025	167.61602	-288.85285	-324.65433	377.54288	-53.70222	-1301.872	-2496.33956	-1771.35959	-842.96212	296.17588	570.38267	0
137	580.14671	152.15629	-422.29473	-370.21985	500.40705	-131.00087	-1406.02176	-2406.83586	-1669.65084	-746.13539	435.31345	669.65041	0
138	697.31519	125.30518	-570.38267	-413.34436	632.22159	-220.50457	-1497.1528	-2293.73573	-1537.02263	-620.01654	591.53809	769.73182	0
139	801.46495	87.06269	-715.21593	-445.07749	757.52677	-313.26295	-1558.17805	-2179.00826	-1403.58075	-490.64301	752.64475	862.4902	0
140	872.25424	50.44754	-823.43404	-461.35089	847.03047	-386.49325	-1590.72485	-2073.23116	-1291.29429	-366.96517	921.88811	955.24858	0
141	894.22333	37.42882	-857.60818	-466.23291	874.69525	-410.08968	-1589.09751	-1974.77709	-1199.34958	-242.47366	1115.54157	1063.46669	0
142	862.4902	51.26121	-812.85633	-457.28254	836.45276	-380.79756	-1540.27731	-1878.76403	-1128.56029	-119.60949	1305.12668	1183.07618	0
143	785.19155	69.16195	-716.84327	-427.17675	750.20374	-327.90901	-1438.56856	-1774.61427	-1079.74009	-19.52808	1440.1959	1274.20722	0
144	674.53243	65.0936	-610.2525	-370.21985	641.17196	-283.15716	-1284.78493	-1643.6134	-1036.61558	48.8202	1515.05354	1294.54897	0
145	550.85459	32.5468	-519.12146	-292.10753	534.58119	-257.93339	-1100.08184	-1479.25206	-976.404	93.57205	1523.19024	1227.82803	0
146	430.43143	-17.90074	-449.95951	-206.67218	440.19547	-245.72834	-912.12407	-1291.29429	-891.78232	113.10013	1435.31388	1082.99477	0
147	317.3313	-72.41663	-391.37527	-122.86417	353.94645	-240.03265	-737.99869	-1092.75881	-793.32825	94.38572	1236.7784	876.32259	0
148	213.99521	-123.67784	-338.48672	-46.37919	275.83413	-234.33696	-581.77405	-891.78232	-685.11014	37.42882	944.67087	633.03526	0
149	127.74619	-165.17501	-293.73487	17.90074	209.92686	-230.26861	-448.33217	-698.12886	-567.12799	-32.5468	619.20287	393.00261	0
150	63.46626	-194.46713	-258.74706	64.27993	160.29299	-226.20026	-340.11406	-525.63082	-446.70483	-100.08141	323.02699	194.46713	0
151	22.78276	-211.5542	-234.33696	92.75838	128.55986	-222.13191	-256.30605	-383.23857	-337.67305	-153.78363	93.57205	52.07488	0
152	0.81367	-220.50457	-222.13191	109.03178	110.65912	-220.50457	-192.02612	-270.13844	-247.35568	-187.95777	-55.32956	-36.61515	0
153	-10.57771	-227.01393	-216.43622	117.98215	102.52242	-221.31824	-141.57858	-179.82107	-172.49804	-196.09447	-130.1872	-86.24902	0
154	-17.90074	-229.45494	-212.36787	122.86417	96.01306	-220.50457	-100.08141	-105.7771	-108.21811	-178.19373	-153.78363	-110.65912	0
155	-24.4101	-225.38659	-201.79016	124.49151	87.87636	-213.18154	-63.46626	-43.93818	-50.44754	-141.57858	-148.08794	-119.60949	0
156	-29.29212	-213.18154	-183.88942	120.42316	76.48498	-198.53548	-30.91946	4.88202	0	-96.01306	-129.37353	-117.98215	0
157	-32.5468	-191.21245	-158.66565	110.65912	64.27993	-174.93905	0	47.19286	44.75185	-47.19286	-101.70875	-111.47279	0
158	-34.98781	-165.17501	-130.1872	99.26774	52.07488	-148.08794	28.47845	86.24902	87.06269	0.81367	-69.97562	-100.89508	0
159	-37.42882	-143.20592	-107.40444	89.5037	40.6835	-125.30518	56.9569	123.67784	126.93252	45.56552	-38.24249	-88.69003	0
160	-38.24249	-134.25555	-97.6404	84.62168	34.98781	-115.54114	85.43535	161.10666	165.17501	86.24902	-10.57771	-75.67131	0
161	-38.24249	-136.69656	-101.70875	85.43535	35.80148	-119.60949	111.47279	197.72181	202.60383	122.86417	12.20505	-63.46626	0
162	-38.24249	-139.13757	-103.33609	86.24902	34.17414	-121.23683	131.81454	228.64127	233.52329	151.34262	28.47845	-54.51589	0
163	-39.05616	-125.30518	-88.69003	81.367	24.4101	-107.40444	141.57858	249.79669	256.30605	170.05703	36.61515	-50.44754	0
164	-40.6835	-100.08141	-61.02525	69.16195	9.76404	-80.55333	142.39225	262.81541	271.76578	181.44841	37.42882	-49.63387	0
165	-42.31084	-73.2303	-32.5468	56.9569	-2.44101	-52.88855	142.39225	272.57945	282.34349	188.77144	36.61515	-48.8202	0
166	-43.12451	-54.51589	-12.20505	48.00653	-12.20505	-33.36047	142.39225	280.71615	290.48019	195.2808	37.42882	-46.37919	0
167	-44.75185	-44.75185	-0.81367	43.12451	-20.34175	-22.78276	145.64693	287.22551	296.17588	200.97649	39.86983	-43.12451	0
168	-47.19286	-39.05616	4.88202	41.49717	-26.03744	-17.08707	150.52895	294.54854	302.68524	207.48585	46.37919	-38.24249	0
169	-48.8202	-35.80148	10.57771	41.49717	-30.10579	-12.20505	157.03831	303.49891	309.1946	214.80888	53.70222	-32.5468	0
170	-48.8202	-34.17414	13.01872	40.6835	-31.73313	-9.76404	162.734	311.63561	315.70396	221.31824	60.21158	-29.29212	0
171	-47.19286	-32.5468	13.83239	39.05616	-33.36047	-8.95037	165.98868	319.77231	321.39965	226.20026	61.83892	-29.29212	0
172	-43.93818	-30.91946	12.20505	36.61515	-31.73313	-8.95037	166.80235	327.90901	326.28167	228.64127	61.02525	-30.91946	0
173	-41.49717	-30.10579	10.57771	35.80148	-29.29212	-9.76404	166.80235	336.04571	332.79103	231.89595	59.39791	-33.36047	0
174	-39.86983	-30.10579	8.95037	34.17414	-26.85111	-9.76404	165.98868	345.80975	340.92773	235.9643	56.9569	-34.17414	0
175	-39.05616	-28.47845	9.76404	33.36047	-25.22377	-8.1367	167.61602	354.76012	349.8781	240.84632	55.32956	-32.5468	0
176	-39.05616	-25.22377	13.01872	31.73313	-26.03744	-5.69569	169.24336	362.08315	358.0148	246.54201	56.14323	-29.29212	0
177	-39.86983	-21.96909	17.90074	30.10579	-28.47845	-1.62734	172.49804	366.96517	362.89682	251.42403	58.58424	-25.22377	0
178	-39.05616	-17.08707	21.96909	27.66478	-30.91946	2.44101	176.56639	371.03352	366.96517	257.11972	64.27993	-20.34175	0
179	-38.24249	-12.20505	25.22377	24.4101	-31.73313	5.69569	180.63474	373.47453	368.59251	262.00174	69.97562	-15.45973	0
180	-36.61515	-9.76404	27.66478	22.78276	-31.73313	8.1367	184.70309	375.10187	369.40618	266.07009	74.04397	-13.83239	0
181	-36.61515	-9.76404	26.85111	22.78276	-30.91946	8.1367	186.33043	375.10187	368.59251	267.69743	72.41663	-15.45973	0
182	-37.42882	-13.01872	23.59643	23.59643	-30.10579	4.88202	186.33043	376.72921	369.40618	267.69743	69.16195	-20.34175	0
183	-37.42882	-17.08707	18.71441	24.4101	-27.66478	0.81367	184.70309	379.98389	371.84719	268.5111	65.0936	-25.22377	0
184	-34.98781	-17.90074	15.45973	24.4101	-26.03744	0	184.70309	384.86591	378.35655	271.76578	62.65259	-27.66478	0
185	-33.36047	-17.08707	16.2734	22.78276	-25.22377	0.81367	187.1441	392.18894	386.49325	275.83413	61.83892	-26.85111	0
186	-34.17414	-13.83239	20.34175	21.96909	-27.66478	4.06835	192.02612	397.88463	393.81628	280.71615	63.46626	-23.59643	0
187	-37.42882	-10.57771	26.85111	22.78276	-31.73313	8.95037	197.72181	402.76665	400.32564	285.59817	67.53461	-18.71441	0
188	-40.6835	-6.50936	34.17414	24.4101	-37.42882	15.45973	205.04484	407.64867	406.02133	291.29386	75.67131	-12.20505	0
189	-43.12451	-1.62734	40.6835	24.4101	-42.31084	21.96909	210.74053	411.71702	409.27601	295.36221	82.99434	-6.50936	0
190	-43.12451	0.81367	44.75185	22.78276	-45.56552	26.03744	213.99521	413.34436	410.90335	297.80322	86.24902	-4.06835	0
191	-41.49717	4.06835	44.75185	18.71441	-46.37919	27.66478	214.80888	414.15803	410.90335	298.61689	85.43535	-5.69569	0
192	-38.24249	5.69569	41.49717	14.64606	-42.31084	26.03744	213.99521	417.41271	412.53069	298.61689	82.18067	-8.95037	0
193	-33.36047	6.50936	39.05616	11.39138	-37.42882	23.59643	213.18154	423.1084	415.78537	299.43056	78.92599	-12.20505	0
194	-27.66478	8.1367	38.24249	8.95037	-34.17414	23.59643	210.74053	431.2451	423.1084	301.87157	77.29865	-13.83239	0
195	-26.03744	10.57771	39.05616	7.32303	-34.17414	23.59643	209.11319	439.3818	429.61776	305.12625	75.67131	-13.83239	0
196	-26.85111	13.83239	41.49717	6.50936	-35.80148	26.03744	208.29952	446.70483	436.12712	308.38093	76.48498	-11.39138	0
197	-30.10579	17.08707	45.56552	5.69569	-39.86983	30.10579	208.29952	451.58685	440.19547	312.44928	78.92599	-7.32303	0
198	-33.36047	20.34175	51.26121	5.69569	-44.75185	34.98781	210.74053	456.46887	443.45015	317.3313	83.80801	-2.44101	0
199	-36.61515	22.78276	58.58424	6.50936	-49.63387	39.86983	214.80888	461.35089	446.70483	322.21332	89.5037	0.81367	0
200	-40.6835	25.22377	65.0936	7.32303	-54.51589	44.75185	218.87723	466.23291	449.14584	327.09534	93.57205	3.25468	0
201	-44.75185	26.03744	70.78929	8.95037	-58.58424	48.00653	222.94558	471.11493	451.58685	329.53635	93.57205	0.81367	0
202	-47.19286	25.22377	72.41663	9.76404	-60.21158	48.8202	224.57292	475.99695	454.02786	330.35002	90.31737	-3.25468	0
203	-46.37919	24.4101	70.78929	10.57771	-59.39791	47.19286	225.38659	481.69264	457.28254	330.35002	87.06269	-8.95037	0
204	-44.75185	25.22377	69.16195	8.95037	-57.77057	48.00653	227.01393	488.202	462.97823	331.16369	82.99434	-12.20505	0
205	-42.31084	28.47845	69.97562	5.69569	-56.9569	49.63387	228.64127	495.52503	469.48759	333.6047	79.73966	-13.83239	0
206	-42.31084	31.73313	73.2303	4.06835	-57.77057	52.88855	231.89595	501.22072	475.18328	336.85938	78.92599	-13.01872	0
207	-44.75185	36.61515	78.92599	2.44101	-62.65259	58.58424	236.77797	506.10274	479.25163	340.11406	80.55333	-10.57771	0
208	-49.63387	39.86983	85.43535	3.25468	-69.97562	64.27993	242.47366	510.17109	481.69264	344.18241	84.62168	-7.32303	0
209	-52.88855	43.93818	92.75838	3.25468	-74.85764	69.97562	247.35568	513.42577	482.50631	346.62342	87.06269	-4.06835	0
210	-52.07488	46.37919	97.6404	2.44101	-75.67131	72.41663	250.61036	515.86678	482.50631	347.43709	87.06269	-4.06835	0
211	-49.63387	48.00653	98.45407	2.44101	-74.04397	72.41663	252.2377	518.30779	481.69264	347.43709	84.62168	-6.50936	0
212	-48.00653	47.19286	97.6404	2.44101	-72.41663	71.60296	253.86504	522.37614	482.50631	346.62342	79.73966	-10.57771	0
213	-50.44754	46.37919	97.6404	4.06835	-74.04397	71.60296	255.49238	528.8855	485.76099	346.62342	75.67131	-14.64606	0
214	-53.70222	45.56552	100.08141	4.88202	-77.29865	72.41663	257.11972	536.20853	491.45668	348.25076	73.2303	-17.08707	0
215	-56.9569	46.37919	103.33609	4.88202	-80.55333	74.85764	258.74706	543.53156	497.15237	350.69177	71.60296	-17.90074	0
216	-59.39791	48.8202	108.21811	4.06835	-83.80801	78.92599	262.00174	549.22725	501.22072	353.13278	71.60296	-16.2734	0
217	-58.58424	52.88855	113.10013	1.62734	-85.43535	82.18067	265.25642	552.48193	502.84806	354.76012	74.04397	-13.83239	0
218	-56.14323	58.58424	118.79582	-1.62734	-86.24902	87.06269	268.5111	554.92294	503.66173	355.57379	77.29865	-9.76404	0
219	-54.51589	65.0936	124.49151	-5.69569	-87.87636	91.94471	271.76578	558.17762	503.66173	356.38746	79.73966	-6.50936	0
220	-52.88855	70.78929	128.55986	-8.95037	-89.5037	97.6404	275.83413	561.4323	503.66173	356.38746	79.73966	-4.88202	0
221	-52.88855	74.85764	130.1872	-11.39138	-91.13104	100.89508	278.27514	565.50065	503.66173	355.57379	77.29865	-5.69569	0
222	-52.07488	75.67131	130.1872	-12.20505	-91.13104	102.52242	279.90248	571.19634	504.4754	353.94645	73.2303	-8.95037	0
223	-52.88855	75.67131	129.37353	-11.39138	-91.94471	102.52242	280.71615	577.7057	506.91641	353.13278	68.34828	-13.83239	0
224	-56.14323	75.67131	131.81454	-9.76404	-94.38572	104.14976	281.52982	584.21506	511.79843	352.31911	63.46626	-16.2734	0
225	-60.21158	76.48498	135.88289	-8.95037	-98.45407	107.40444	283.15716	590.72442	515.86678	353.13278	59.39791	-17.08707	0
226	-61.83892	78.92599	139.95124	-8.95037	-100.89508	109.84545	284.7845	593.9791	519.93513	353.13278	57.77057	-15.45973	0
227	-61.02525	82.18067	142.39225	-9.76404	-102.52242	113.10013	287.22551	594.79277	520.7488	352.31911	57.77057	-13.83239	0
228	-61.02525	84.62168	145.64693	-9.76404	-104.14976	115.54114	288.85285	594.79277	519.12146	350.69177	58.58424	-11.39138	0
229	-62.65259	87.06269	149.71528	-10.57771	-106.59077	117.98215	289.66652	595.60644	515.86678	348.25076	58.58424	-10.57771	0
230	-64.27993	88.69003	152.96996	-11.39138	-109.84545	121.23683	290.48019	598.04745	512.6121	345.80975	56.9569	-12.20505	0
231	-65.0936	92.75838	157.85198	-13.01872	-112.28646	125.30518	292.10753	602.1158	510.17109	342.55507	53.70222	-14.64606	0
232	-67.53461	96.82673	164.36134	-14.64606	-116.35481	130.1872	292.9212	609.43883	510.17109	339.30039	49.63387	-17.90074	0
233	-69.97562	100.89508	170.8707	-16.2734	-121.23683	135.88289	292.9212	617.57553	511.79843	336.04571	43.12451	-20.34175	0
234	-72.41663	104.96343	176.56639	-17.90074	-125.30518	140.76491	292.9212	624.08489	512.6121	331.16369	35.80148	-21.15542	1500	QRS+0
235	-74.04397	109.03178	181.44841	-18.71441	-127.74619	145.64693	292.9212	628.96691	511.79843	325.468	27.66478	-21.96909	0
236	-75.67131	113.9138	186.33043	-18.71441	-130.1872	150.52895	293.73487	631.40792	507.73008	318.14497	20.34175	-21.96909	0
237	-78.11232	117.16848	192.02612	-18.71441	-135.06922	153.78363	295.36221	631.40792	501.22072	310.82194	15.45973	-21.96909	0
238	-82.18067	120.42316	199.34915	-17.90074	-141.57858	158.66565	297.80322	630.59425	493.08402	301.87157	11.39138	-21.15542	0
239	-87.87636	122.0505	207.48585	-16.2734	-148.08794	163.54767	300.24423	629.78058	483.31998	292.10753	5.69569	-22.78276	0
240	-93.57205	122.86417	214.80888	-13.83239	-154.5973	168.42969	301.87157	628.15324	471.9286	279.90248	-1.62734	-26.03744	0
241	-97.6404	122.0505	218.87723	-11.39138	-159.47932	170.05703	302.68524	625.71223	458.90988	265.25642	-13.83239	-33.36047	0
242	-99.26774	120.42316	220.50457	-8.95037	-161.10666	170.8707	301.0579	622.45755	445.89116	248.16935	-28.47845	-42.31084	0
243	-100.89508	120.42316	221.31824	-8.1367	-161.92033	170.8707	299.43056	619.20287	433.68611	231.89595	-43.12451	-51.26121	0
244	-103.33609	121.23683	224.57292	-7.32303	-165.17501	173.31171	298.61689	615.94819	423.1084	216.43622	-56.9569	-56.9569	0
245	-107.40444	124.49151	231.89595	-8.1367	-170.8707	178.19373	297.80322	611.87984	411.71702	202.60383	-68.34828	-60.21158	0
246	-113.10013	128.55986	241.65999	-8.1367	-177.38006	184.70309	297.80322	606.18415	398.6983	187.1441	-77.29865	-61.02525	0
247	-117.98215	132.62821	250.61036	-8.1367	-183.88942	191.21245	296.98955	598.04745	383.23857	171.68437	-85.43535	-61.02525	0
248	-121.23683	135.88289	257.11972	-8.1367	-189.58511	196.09447	296.17588	586.65607	364.52416	154.5973	-92.75838	-61.02525	0
249	-123.67784	137.51023	261.18807	-7.32303	-192.83979	199.34915	294.54854	573.63735	344.18241	135.88289	-101.70875	-62.65259	0
250	-124.49151	137.51023	261.18807	-6.50936	-193.65346	199.34915	290.48019	557.36395	321.39965	113.9138	-115.54114	-68.34828	0
251	-123.67784	134.25555	257.93339	-5.69569	-191.21245	197.72181	283.97083	540.27688	297.80322	90.31737	-132.62821	-77.29865	0
252	-123.67784	130.1872	253.05137	-3.25468	-188.77144	193.65346	276.6478	524.00348	275.02046	66.72094	-152.15629	-87.06269	0
253	-128.55986	124.49151	253.05137	0.81367	-192.02612	189.58511	270.13844	509.35742	254.67871	43.93818	-169.24336	-95.19939	0
254	-137.51023	120.42316	257.11972	7.32303	-198.53548	186.33043	265.25642	495.52503	236.77797	22.78276	-184.70309	-100.89508	0
255	-145.64693	117.98215	262.81541	12.20505	-205.04484	186.33043	259.56073	481.69264	217.24989	2.44101	-198.53548	-104.14976	0
256	-149.71528	117.16848	266.07009	14.64606	-208.29952	187.95777	253.86504	463.7919	195.2808	-17.90074	-210.74053	-106.59077	0
257	-152.96996	116.35481	266.88376	15.45973	-209.11319	189.58511	247.35568	444.26382	170.05703	-39.86983	-222.13191	-109.03178	0
258	-153.78363	116.35481	266.88376	16.2734	-209.92686	190.39878	241.65999	423.1084	143.20592	-61.02525	-231.08228	-110.65912	0
259	-154.5973	113.9138	266.07009	17.08707	-209.11319	189.58511	235.15063	401.13931	116.35481	-82.99434	-240.84632	-113.10013	0
260	-154.5973	111.47279	262.81541	18.71441	-207.48585	187.1441	227.8276	377.54288	89.5037	-105.7771	-253.05137	-118.79582	0
261	-152.96996	106.59077	257.11972	21.15542	-205.04484	181.44841	218.06356	353.94645	63.46626	-129.37353	-266.88376	-126.11885	0
262	-151.34262	102.52242	249.79669	23.59643	-200.16282	174.93905	207.48585	331.97736	39.05616	-152.15629	-281.52982	-134.25555	0
263	-145.64693	99.26774	241.65999	23.59643	-194.46713	169.24336	196.90814	310.82194	17.08707	-171.68437	-294.54854	-141.57858	0
264	-139.13757	96.82673	232.70962	21.15542	-187.1441	164.36134	185.51676	290.48019	-0.81367	-187.95777	-304.31258	-145.64693	0
265	-135.06922	92.75838	225.38659	20.34175	-180.63474	158.66565	174.12538	268.5111	-18.71441	-202.60383	-310.82194	-146.4606	0
266	-131.81454	87.06269	217.24989	21.96909	-175.75272	152.15629	164.36134	245.72834	-36.61515	-214.80888	-312.44928	-144.83326	0
267	-128.55986	80.55333	208.29952	23.59643	-168.42969	144.83326	154.5973	222.13191	-54.51589	-224.57292	-310.82194	-141.57858	0
268	-122.0505	74.85764	196.90814	25.22377	-160.29299	135.88289	145.64693	199.34915	-71.60296	-231.89595	-305.93992	-137.51023	0
269	-117.16848	67.53461	184.70309	27.66478	-151.34262	126.11885	136.69656	176.56639	-86.24902	-237.59164	-301.0579	-133.44188	0
270	-113.9138	57.77057	172.49804	30.10579	-144.01959	115.54114	126.93252	155.41097	-99.26774	-240.84632	-295.36221	-131.00087	0
271	-110.65912	47.19286	157.85198	33.36047	-135.06922	102.52242	116.35481	135.88289	-108.21811	-241.65999	-291.29386	-130.1872	0
272	-105.7771	34.98781	141.57858	35.80148	-124.49151	87.87636	104.14976	118.79582	-114.72747	-241.65999	-288.03918	-131.00087	0
273	-99.26774	22.78276	122.86417	37.42882	-112.28646	73.2303	91.94471	103.33609	-118.79582	-240.03265	-283.97083	-131.81454	0
274	-91.94471	13.83239	105.7771	38.24249	-100.08141	60.21158	80.55333	90.31737	-119.60949	-235.15063	-278.27514	-131.00087	0
275	-83.80801	6.50936	90.31737	37.42882	-87.87636	48.8202	69.97562	77.29865	-118.79582	-228.64127	-270.13844	-129.37353	0
276	-75.67131	1.62734	77.29865	34.98781	-77.29865	39.86983	60.21158	65.0936	-118.79582	-220.50457	-260.3744	-125.30518	0
277	-69.16195	-1.62734	66.72094	34.17414	-68.34828	32.5468	52.88855	52.07488	-118.79582	-210.74053	-246.54201	-119.60949	0
278	-65.0936	-5.69569	58.58424	33.36047	-62.65259	26.03744	47.19286	41.49717	-117.98215	-199.34915	-231.08228	-112.28646	0
279	-62.65259	-9.76404	52.07488	33.36047	-58.58424	20.34175	43.93818	31.73313	-117.16848	-186.33043	-215.62255	-105.7771	0
280	-60.21158	-13.83239	43.93818	34.98781	-52.88855	13.83239	40.6835	23.59643	-114.72747	-174.93905	-201.79016	-100.89508	0
281	-56.9569	-18.71441	34.98781	36.61515	-46.37919	6.50936	35.80148	17.08707	-112.28646	-165.17501	-192.02612	-100.08141	0
282	-52.88855	-23.59643	26.03744	37.42882	-39.86983	-0.81367	29.29212	11.39138	-108.21811	-157.03831	-184.70309	-100.08141	0
283	-48.00653	-27.66478	15.45973	36.61515	-34.17414	-7.32303	23.59643	7.32303	-103.33609	-148.90161	-178.19373	-99.26774	0
284	-43.93818	-30.10579	6.50936	35.80148	-29.29212	-10.57771	18.71441	4.88202	-96.82673	-139.95124	-170.05703	-96.82673	0
285	-39.86983	-30.91946	2.44101	34.98781	-26.03744	-12.20505	15.45973	1.62734	-90.31737	-131.00087	-160.29299	-91.94471	0
286	-36.61515	-31.73313	0.81367	34.17414	-23.59643	-12.20505	12.20505	-1.62734	-86.24902	-122.86417	-150.52895	-87.87636	0
287	-34.98781	-32.5468	0	34.17414	-20.34175	-14.64606	9.76404	-7.32303	-84.62168	-115.54114	-139.95124	-83.80801	0
288	-33.36047	-34.98781	-1.62734	33.36047	-17.90074	-17.90074	5.69569	-13.01872	-83.80801	-109.84545	-131.00087	-80.55333	0
289	-31.73313	-37.42882	-4.88202	34.17414	-15.45973	-21.15542	1.62734	-18.71441	-83.80801	-104.96343	-123.67784	-78.11232	0
290	-30.91946	-39.05616	-7.32303	34.17414	-13.83239	-22.78276	-2.44101	-22.78276	-82.99434	-100.89508	-118.79582	-76.48498	0
291	-29.29212	-36.61515	-7.32303	32.5468	-12.20505	-21.96909	-7.32303	-26.03744	-82.18067	-97.6404	-116.35481	-76.48498	0
292	-26.03744	-32.5468	-6.50936	28.47845	-9.76404	-19.52808	-13.01872	-27.66478	-80.55333	-96.01306	-116.35481	-78.11232	0
293	-21.96909	-29.29212	-7.32303	25.22377	-6.50936	-18.71441	-17.90074	-27.66478	-77.29865	-93.57205	-117.16848	-79.73966	0
294	-18.71441	-28.47845	-10.57771	22.78276	-3.25468	-19.52808	-21.15542	-27.66478	-72.41663	-90.31737	-116.35481	-80.55333	0
295	-15.45973	-34.98781	-19.52808	24.4101	0	-26.85111	-21.96909	-25.22377	-65.0936	-83.80801	-111.47279	-77.29865	0
296	-14.64606	-44.75185	-30.91946	29.29212	2.44101	-37.42882	-21.15542	-21.96909	-56.14323	-74.04397	-101.70875	-69.97562	0
297	-17.08707	-52.07488	-34.17414	34.17414	6.50936	-43.12451	-18.71441	-19.52808	-48.00653	-63.46626	-89.5037	-60.21158	0
298	-21.96909	-54.51589	-30.10579	37.42882	4.88202	-42.31084	-16.2734	-19.52808	-43.93818	-56.14323	-78.92599	-53.70222	0
299	-28.47845	-52.07488	-21.96909	39.86983	0	-38.24249	-16.2734	-21.15542	-44.75185	-53.70222	-73.2303	-50.44754	0
300	-30.91946	-48.00653	-16.2734	39.86983	-4.88202	-36.61515	-17.90074	-22.78276	-47.19286	-53.70222	-71.60296	-50.44754	0
301	-28.47845	-46.37919	-18.71441	37.42882	-3.25468	-37.42882	-20.34175	-23.59643	-48.8202	-54.51589	-72.41663	-52.07488	0
302	-21.15542	-47.19286	-26.85111	34.17414	2.44101	-39.05616	-23.59643	-21.15542	-48.00653	-55.32956	-75.67131	-54.51589	0
303	-13.01872	-47.19286	-35.80148	30.91946	10.57771	-39.86983	-26.03744	-17.90074	-45.56552	-54.51589	-78.92599	-56.9569	0
304	-5.69569	-45.56552	-40.6835	26.85111	16.2734	-40.6835	-26.85111	-13.83239	-40.6835	-52.88855	-81.367	-57.77057	0
305	-2.44101	-43.12451	-40.6835	24.4101	17.90074	-39.05616	-26.03744	-10.57771	-35.80148	-50.44754	-81.367	-56.9569	0
306	-4.06835	-39.86983	-37.42882	22.78276	14.64606	-34.98781	-23.59643	-8.1367	-31.73313	-47.19286	-78.92599	-55.32956	0
307	-8.1367	-37.42882	-30.10579	22.78276	8.95037	-30.91946	-21.96909	-7.32303	-30.91946	-45.56552	-75.67131	-53.70222	0
308	-13.83239	-36.61515	-22.78276	24.4101	3.25468	-28.47845	-21.96909	-8.1367	-31.73313	-44.75185	-73.2303	-52.88855	0
309	-18.71441	-36.61515	-17.90074	26.85111	-0.81367	-27.66478	-21.15542	-8.1367	-33.36047	-45.56552	-72.41663	-52.07488	0
310	-22.78276	-38.24249	-17.90074	30.10579	-2.44101	-29.29212	-20.34175	-7.32303	-33.36047	-46.37919	-72.41663	-52.88855	0
311	-24.4101	-40.6835	-19.52808	32.5468	-1.62734	-33.36047	-18.71441	-4.06835	-31.73313	-47.19286	-73.2303	-53.70222	0
312	-21.96909	-44.75185	-24.4101	32.5468	0.81367	-38.24249	-17.08707	0	-27.66478	-48.00653	-74.85764	-54.51589	0
313	-17.08707	-48.00653	-31.73313	31.73313	7.32303	-43.12451	-17.08707	4.06835	-23.59643	-46.37919	-76.48498	-56.14323	0
314	-11.39138	-50.44754	-37.42882	30.10579	13.01872	-46.37919	-17.08707	7.32303	-19.52808	-44.75185	-77.29865	-56.9569	0
315	-7.32303	-49.63387	-39.86983	27.66478	17.08707	-46.37919	-17.08707	9.76404	-17.08707	-43.12451	-75.67131	-58.58424	0
316	-6.50936	-47.19286	-36.61515	25.22377	15.45973	-42.31084	-15.45973	12.20505	-14.64606	-40.6835	-73.2303	-58.58424	0
317	-9.76404	-43.93818	-28.47845	24.4101	8.95037	-34.98781	-13.83239	14.64606	-13.83239	-39.05616	-69.97562	-56.9569	0
318	-13.83239	-40.6835	-21.15542	24.4101	3.25468	-27.66478	-12.20505	16.2734	-13.83239	-37.42882	-66.72094	-56.14323	0
319	-17.90074	-39.05616	-17.90074	24.4101	0	-25.22377	-10.57771	17.08707	-15.45973	-36.61515	-65.90727	-56.14323	0
320	-21.15542	-38.24249	-18.71441	26.03744	-2.44101	-26.03744	-10.57771	18.71441	-16.2734	-36.61515	-66.72094	-56.9569	0
321	-22.78276	-40.6835	-22.78276	28.47845	-1.62734	-30.10579	-12.20505	21.96909	-15.45973	-37.42882	-67.53461	-58.58424	0
322	-22.78276	-46.37919	-27.66478	31.73313	1.62734	-34.98781	-13.83239	26.85111	-12.20505	-37.42882	-69.16195	-60.21158	0
323	-21.96909	-51.26121	-33.36047	34.17414	5.69569	-39.86983	-14.64606	31.73313	-7.32303	-36.61515	-70.78929	-61.83892	0
324	-21.96909	-53.70222	-35.80148	34.98781	7.32303	-43.12451	-13.83239	36.61515	-2.44101	-35.80148	-69.97562	-61.83892	0
325	-23.59643	-53.70222	-34.17414	36.61515	4.88202	-44.75185	-12.20505	39.86983	0.81367	-33.36047	-68.34828	-60.21158	0
326	-25.22377	-52.07488	-30.10579	37.42882	2.44101	-43.12451	-9.76404	42.31084	2.44101	-30.91946	-64.27993	-56.9569	0
327	-23.59643	-49.63387	-26.85111	37.42882	1.62734	-39.86983	-6.50936	43.12451	3.25468	-30.10579	-60.21158	-53.70222	0
328	-20.34175	-47.19286	-23.59643	34.98781	2.44101	-36.61515	-3.25468	44.75185	3.25468	-30.10579	-56.9569	-50.44754	0
329	-19.52808	-46.37919	-21.96909	32.5468	1.62734	-34.98781	0	46.37919	3.25468	-30.91946	-55.32956	-50.44754	0
330	-20.34175	-46.37919	-21.96909	31.73313	1.62734	-34.98781	0.81367	48.00653	3.25468	-32.5468	-56.9569	-52.07488	0
331	-21.15542	-46.37919	-21.96909	32.5468	0.81367	-34.98781	2.44101	50.44754	3.25468	-34.98781	-60.21158	-56.14323	0
332	-21.96909	-47.19286	-22.78276	32.5468	0	-34.17414	3.25468	53.70222	4.88202	-36.61515	-64.27993	-60.21158	0
333	-21.15542	-47.19286	-23.59643	32.5468	0	-33.36047	4.88202	57.77057	8.1367	-37.42882	-67.53461	-61.83892	0
334	-19.52808	-45.56552	-24.4101	31.73313	0.81367	-32.5468	7.32303	61.02525	10.57771	-36.61515	-69.16195	-61.83892	0
335	-17.90074	-43.12451	-24.4101	31.73313	2.44101	-30.91946	10.57771	63.46626	13.01872	-35.80148	-68.34828	-60.21158	0
336	-16.2734	-39.86983	-22.78276	31.73313	2.44101	-29.29212	16.2734	64.27993	13.83239	-34.98781	-65.0936	-57.77057	0
337	-17.90074	-37.42882	-19.52808	30.91946	1.62734	-27.66478	21.96909	64.27993	12.20505	-34.17414	-61.83892	-55.32956	0
338	-20.34175	-35.80148	-17.08707	30.91946	0	-26.85111	27.66478	63.46626	9.76404	-34.98781	-59.39791	-56.14323	0
339	-22.78276	-36.61515	-15.45973	30.91946	-2.44101	-26.85111	31.73313	61.83892	6.50936	-37.42882	-61.83892	-61.83892	0
340	-26.03744	-37.42882	-13.01872	32.5468	-4.88202	-26.03744	33.36047	61.02525	3.25468	-40.6835	-67.53461	-69.97562	0
341	-28.47845	-38.24249	-11.39138	33.36047	-4.88202	-25.22377	33.36047	61.02525	0.81367	-44.75185	-74.04397	-78.11232	0
342	-26.85111	-38.24249	-11.39138	33.36047	-3.25468	-25.22377	33.36047	62.65259	1.62734	-48.00653	-81.367	-84.62168	-1500	QRS-0
343	-22.78276	-37.42882	-14.64606	31.73313	-0.81367	-26.03744	33.36047	65.90727	4.06835	-48.00653	-86.24902	-87.06269	0
344	-17.08707	-36.61515	-18.71441	29.29212	1.62734	-26.85111	34.98781	69.16195	6.50936	-47.19286	-86.24902	-82.99434	0
345	-14.64606	-35.80148	-21.15542	26.85111	3.25468	-27.66478	39.05616	73.2303	8.95037	-43.93818	-80.55333	-74.85764	0
346	-14.64606	-36.61515	-21.96909	26.85111	2.44101	-29.29212	43.93818	76.48498	10.57771	-40.6835	-71.60296	-64.27993	0
347	-17.08707	-39.86983	-22.78276	27.66478	0	-30.91946	48.8202	77.29865	9.76404	-37.42882	-62.65259	-56.14323	0
348	-20.34175	-43.93818	-23.59643	30.91946	-1.62734	-34.17414	51.26121	77.29865	7.32303	-36.61515	-56.14323	-51.26121	0
349	-22.78276	-48.8202	-24.4101	34.17414	-1.62734	-38.24249	52.07488	74.04397	3.25468	-37.42882	-55.32956	-52.07488	0
350	-23.59643	-52.88855	-27.66478	37.42882	0	-42.31084	50.44754	68.34828	-0.81367	-40.6835	-57.77057	-56.9569	0
351	-23.59643	-56.14323	-31.73313	39.05616	0.81367	-45.56552	47.19286	61.83892	-4.88202	-43.93818	-63.46626	-64.27993	0
352	-21.96909	-56.14323	-35.80148	37.42882	3.25468	-47.19286	44.75185	56.14323	-6.50936	-47.19286	-69.97562	-72.41663	0
353	-20.34175	-52.88855	-34.98781	34.17414	4.88202	-44.75185	43.93818	52.07488	-6.50936	-48.8202	-75.67131	-78.92599	0
354	-19.52808	-45.56552	-28.47845	30.10579	3.25468	-36.61515	48.00653	49.63387	-3.25468	-47.19286	-77.29865	-82.18067	0
355	-18.71441	-32.5468	-16.2734	23.59643	-1.62734	-23.59643	53.70222	47.19286	0.81367	-43.93818	-74.85764	-81.367	0
356	-16.2734	-16.2734	-0.81367	15.45973	-8.1367	-8.1367	62.65259	41.49717	4.88202	-39.05616	-67.53461	-77.29865	0
357	-15.45973	-0.81367	13.83239	6.50936	-14.64606	6.50936	70.78929	34.17414	8.1367	-34.17414	-57.77057	-69.97562	0
358	-15.45973	10.57771	26.03744	0.81367	-20.34175	17.90074	78.92599	25.22377	10.57771	-27.66478	-47.19286	-61.02525	0
359	-14.64606	17.90074	33.36047	-2.44101	-22.78276	24.4101	86.24902	18.71441	12.20505	-22.78276	-39.05616	-52.07488	0
360	-13.83239	21.15542	34.17414	-4.88202	-21.96909	26.03744	90.31737	15.45973	14.64606	-17.90074	-32.5468	-44.75185	0
361	-11.39138	21.96909	29.29212	-7.32303	-17.08707	24.4101	94.38572	17.08707	17.08707	-13.83239	-27.66478	-40.6835	0
362	-8.1367	23.59643	24.4101	-11.39138	-12.20505	23.59643	99.26774	24.4101	22.78276	-8.95037	-25.22377	-37.42882	0
363	-5.69569	26.85111	24.4101	-14.64606	-11.39138	25.22377	104.14976	34.17414	29.29212	-4.06835	-22.78276	-35.80148	0
364	-3.25468	30.10579	28.47845	-17.08707	-13.83239	30.10579	109.84545	41.49717	34.17414	0	-20.34175	-33.36047	0
365	-1.62734	33.36047	34.17414	-17.90074	-17.08707	34.98781	114.72747	46.37919	34.98781	0	-17.90074	-30.10579	0
366	-1.62734	36.61515	40.6835	-18.71441	-21.15542	40.6835	120.42316	48.8202	32.5468	0	-16.2734	-28.47845	0
367	-4.06835	41.49717	48.8202	-19.52808	-26.85111	46.37919	126.93252	49.63387	28.47845	-1.62734	-13.01872	-26.03744	0
368	-7.32303	48.00653	57.77057	-21.15542	-33.36047	53.70222	133.44188	48.8202	23.59643	-2.44101	-11.39138	-24.4101	0
369	-8.95037	55.32956	66.72094	-23.59643	-38.24249	61.02525	138.3239	46.37919	20.34175	-3.25468	-11.39138	-24.4101	0
370	-8.1367	62.65259	71.60296	-27.66478	-40.6835	67.53461	138.3239	44.75185	17.90074	-4.88202	-13.83239	-28.47845	0
371	-4.88202	69.16195	74.04397	-31.73313	-39.86983	70.78929	131.81454	42.31084	16.2734	-8.1367	-18.71441	-34.98781	0
372	-0.81367	73.2303	74.04397	-35.80148	-38.24249	72.41663	116.35481	38.24249	14.64606	-11.39138	-22.78276	-39.05616	0
373	3.25468	76.48498	73.2303	-39.86983	-35.80148	72.41663	95.19939	33.36047	14.64606	-13.83239	-24.4101	-39.86983	0
374	9.76404	78.92599	69.16195	-43.93818	-30.91946	72.41663	72.41663	26.85111	15.45973	-13.83239	-21.96909	-34.98781	0
375	16.2734	80.55333	64.27993	-47.19286	-24.4101	71.60296	50.44754	19.52808	15.45973	-12.20505	-16.2734	-27.66478	0
376	20.34175	80.55333	58.58424	-49.63387	-19.52808	69.16195	30.10579	10.57771	13.01872	-10.57771	-8.95037	-17.90074	0
377	21.96909	78.11232	54.51589	-50.44754	-16.2734	66.72094	12.20505	3.25468	8.95037	-10.57771	-1.62734	-8.95037	0
378	22.78276	74.85764	51.26121	-51.26121	-13.83239	63.46626	-1.62734	-2.44101	4.88202	-10.57771	4.06835	-2.44101	0
379	26.85111	71.60296	46.37919	-51.26121	-10.57771	59.39791	-15.45973	-6.50936	0.81367	-10.57771	6.50936	1.62734	0
380	32.5468	69.16195	40.6835	-52.88855	-5.69569	54.51589	-28.47845	-11.39138	-2.44101	-12.20505	6.50936	2.44101	0
381	38.24249	69.16195	35.80148	-55.32956	-0.81367	50.44754	-41.49717	-16.2734	-4.88202	-13.83239	4.88202	1.62734	0
382	44.75185	72.41663	32.5468	-59.39791	3.25468	51.26121	-53.70222	-20.34175	-5.69569	-13.83239	4.88202	2.44101	0
383	49.63387	80.55333	32.5468	-66.72094	7.32303	55.32956	-64.27993	-22.78276	-3.25468	-12.20505	6.50936	4.88202	0
384	53.70222	91.94471	34.98781	-75.67131	9.76404	63.46626	-72.41663	-25.22377	0	-9.76404	10.57771	10.57771	0
385	56.14323	103.33609	41.49717	-82.99434	8.1367	72.41663	-77.29865	-29.29212	0.81367	-6.50936	17.08707	18.71441	0
386	56.9569	113.9138	51.26121	-87.87636	4.06835	82.99434	-78.92599	-34.17414	0.81367	-4.06835	25.22377	27.66478	0
387	58.58424	121.23683	58.58424	-91.13104	0.81367	90.31737	-78.11232	-39.05616	0	-2.44101	32.5468	35.80148	0
388	61.83892	123.67784	59.39791	-92.75838	0.81367	91.94471	-78.11232	-44.75185	-4.88202	-4.06835	37.42882	40.6835	0
389	65.0936	121.23683	54.51589	-94.38572	4.88202	87.87636	-78.92599	-52.07488	-10.57771	-7.32303	38.24249	41.49717	0
390	69.16195	117.16848	47.19286	-94.38572	9.76404	82.18067	-81.367	-58.58424	-15.45973	-11.39138	35.80148	40.6835	0
391	72.41663	112.28646	39.05616	-93.57205	15.45973	75.67131	-85.43535	-61.83892	-17.90074	-14.64606	34.17414	38.24249	0
392	75.67131	106.59077	30.91946	-92.75838	21.15542	69.16195	-90.31737	-62.65259	-17.90074	-16.2734	31.73313	37.42882	0
393	80.55333	100.89508	20.34175	-92.75838	28.47845	61.02525	-96.82673	-61.83892	-16.2734	-17.08707	30.91946	36.61515	0
394	85.43535	94.38572	6.50936	-93.57205	39.05616	50.44754	-102.52242	-61.83892	-15.45973	-18.71441	30.91946	36.61515	0
395	90.31737	87.87636	-8.1367	-94.38572	49.63387	39.86983	-105.7771	-64.27993	-17.08707	-20.34175	32.5468	38.24249	0
396	93.57205	80.55333	-20.34175	-92.75838	55.32956	30.91946	-107.40444	-68.34828	-21.15542	-23.59643	34.98781	41.49717	0
397	92.75838	72.41663	-26.03744	-87.87636	56.9569	23.59643	-105.7771	-73.2303	-27.66478	-29.29212	36.61515	43.93818	0
398	87.06269	63.46626	-26.85111	-78.92599	53.70222	19.52808	-100.89508	-78.92599	-34.98781	-34.98781	35.80148	43.93818	0
399	78.11232	54.51589	-24.4101	-68.34828	48.8202	17.08707	-95.19939	-83.80801	-41.49717	-40.6835	32.5468	41.49717	0
400	69.16195	48.00653	-21.15542	-59.39791	43.93818	14.64606	-89.5037	-88.69003	-46.37919	-45.56552	27.66478	37.42882	0
401	60.21158	42.31084	-17.90074	-51.26121	38.24249	13.01872	-84.62168	-91.94471	-49.63387	-49.63387	22.78276	33.36047	0
402	51.26121	35.80148	-15.45973	-43.93818	32.5468	10.57771	-78.11232	-92.75838	-52.88855	-52.88855	17.90074	29.29212	0
403	42.31084	26.03744	-13.83239	-34.17414	28.47845	4.88202	-70.78929	-92.75838	-56.14323	-58.58424	10.57771	23.59643	0
404	32.5468	14.64606	-13.83239	-24.4101	24.4101	-0.81367	-60.21158	-92.75838	-61.02525	-65.0936	3.25468	16.2734	0
405	21.96909	3.25468	-13.01872	-13.01872	19.52808	-6.50936	-48.00653	-91.94471	-64.27993	-69.97562	-1.62734	9.76404	0
406	9.76404	-4.06835	-10.57771	-3.25468	12.20505	-8.95037	-34.98781	-88.69003	-66.72094	-72.41663	-3.25468	4.88202	0
407	-0.81367	-12.20505	-8.1367	5.69569	5.69569	-11.39138	-23.59643	-83.80801	-68.34828	-74.04397	-4.06835	0	0
408	-8.95037	-21.15542	-8.1367	14.64606	1.62734	-15.45973	-13.83239	-80.55333	-69.97562	-75.67131	-6.50936	-5.69569	0
409	-13.83239	-30.10579	-13.01872	21.15542	0	-21.96909	-5.69569	-78.11232	-72.41663	-78.92599	-13.01872	-13.83239	0
410	-14.64606	-37.42882	-21.96909	26.03744	3.25468	-30.10579	0	-77.29865	-74.04397	-83.80801	-21.15542	-25.22377	0
411	-12.20505	-43.93818	-31.73313	28.47845	8.95037	-38.24249	3.25468	-75.67131	-75.67131	-88.69003	-30.91946	-35.80148	0
412	-9.76404	-49.63387	-39.05616	30.10579	13.01872	-44.75185	7.32303	-73.2303	-75.67131	-92.75838	-39.05616	-44.75185	0
413	-12.20505	-54.51589	-41.49717	32.5468	14.64606	-48.00653	13.83239	-69.97562	-73.2303	-94.38572	-45.56552	-49.63387	0
414	-17.90074	-60.21158	-42.31084	38.24249	14.64606	-51.26121	19.52808	-67.53461	-71.60296	-95.19939	-49.63387	-51.26121	0
415	-24.4101	-67.53461	-43.12451	44.75185	13.83239	-55.32956	25.22377	-68.34828	-72.41663	-96.82673	-51.26121	-50.44754	0
416	-28.47845	-74.04397	-46.37919	50.44754	12.20505	-60.21158	29.29212	-69.97562	-75.67131	-98.45407	-50.44754	-48.00653	0
417	-30.10579	-79.73966	-49.63387	54.51589	12.20505	-64.27993	32.5468	-72.41663	-79.73966	-100.08141	-48.00653	-47.19286	0
418	-31.73313	-84.62168	-52.07488	56.9569	11.39138	-68.34828	34.17414	-75.67131	-83.80801	-101.70875	-48.00653	-47.19286	0
419	-32.5468	-88.69003	-55.32956	59.39791	11.39138	-71.60296	34.17414	-80.55333	-88.69003	-104.96343	-51.26121	-51.26121	0
420	-32.5468	-92.75838	-60.21158	61.83892	13.01872	-76.48498	30.10579	-86.24902	-93.57205	-110.65912	-59.39791	-59.39791	0
421	-33.36047	-96.82673	-64.27993	65.0936	13.83239	-80.55333	24.4101	-91.13104	-97.6404	-116.35481	-67.53461	-67.53461	0
422	-34.98781	-100.08141	-66.72094	67.53461	14.64606	-82.99434	20.34175	-92.75838	-97.6404	-119.60949	-74.04397	-74.04397	0
423	-37.42882	-99.26774	-67.53461	68.34828	14.64606	-83.80801	18.71441	-91.94471	-95.19939	-120.42316	-77.29865	-76.48498	0
424	-38.24249	-97.6404	-66.72094	66.72094	15.45973	-82.99434	19.52808	-91.94471	-92.75838	-119.60949	-76.48498	-75.67131	0
425	-35.80148	-94.38572	-64.27993	64.27993	15.45973	-80.55333	21.15542	-93.57205	-92.75838	-117.98215	-73.2303	-71.60296	0
426	-32.5468	-91.13104	-60.21158	61.02525	15.45973	-77.29865	22.78276	-97.6404	-94.38572	-116.35481	-68.34828	-66.72094	0
427	-29.29212	-86.24902	-55.32956	56.14323	15.45973	-73.2303	24.4101	-100.89508	-95.19939	-113.9138	-61.02525	-61.02525	0
428	-25.22377	-78.92599	-51.26121	51.26121	13.83239	-66.72094	25.22377	-102.52242	-92.75838	-108.21811	-53.70222	-56.14323	0
429	-21.96909	-73.2303	-48.00653	46.37919	13.01872	-61.83892	26.03744	-100.08141	-87.87636	-100.08141	-49.63387	-55.32956	0
430	-22.78276	-69.97562	-45.56552	45.56552	10.57771	-58.58424	27.66478	-89.5037	-81.367	-92.75838	-50.44754	-58.58424	0
431	-30.10579	-70.78929	-40.6835	50.44754	4.06835	-56.9569	34.17414	-73.2303	-72.41663	-92.75838	-61.02525	-68.34828	0
432	-42.31084	-74.85764	-31.73313	57.77057	-5.69569	-56.14323	48.00653	-58.58424	-67.53461	-104.96343	-82.18067	-83.80801	0
433	-55.32956	-78.92599	-24.4101	66.72094	-16.2734	-55.32956	65.0936	-48.8202	-71.60296	-126.93252	-111.47279	-102.52242	0
434	-64.27993	-87.06269	-21.96909	74.85764	-21.96909	-57.77057	78.92599	-49.63387	-87.06269	-156.22464	-142.39225	-122.86417	0
435	-66.72094	-100.08141	-32.5468	81.367	-17.90074	-67.53461	82.99434	-73.2303	-116.35481	-191.21245	-172.49804	-142.39225	0
436	-62.65259	-118.79582	-56.14323	86.24902	-3.25468	-87.87636	71.60296	-124.49151	-153.78363	-227.01393	-196.09447	-157.85198	0
437	-50.44754	-139.95124	-89.5037	89.5037	18.71441	-111.47279	52.07488	-180.63474	-181.44841	-251.42403	-210.74053	-166.80235	0
438	-33.36047	-156.22464	-122.86417	89.5037	43.93818	-130.1872	36.61515	-216.43622	-196.09447	-270.13844	-218.06356	-172.49804	0
439	-15.45973	-161.92033	-146.4606	84.62168	64.27993	-141.57858	29.29212	-237.59164	-203.4175	-284.7845	-218.06356	-172.49804	0
440	-0.81367	-157.85198	-157.03831	77.29865	77.29865	-146.4606	22.78276	-275.83413	-222.13191	-292.9212	-210.74053	-163.54767	0
441	11.39138	-147.27427	-160.29299	66.72094	85.43535	-146.4606	0	-375.10187	-283.97083	-310.00827	-203.4175	-147.27427	0
442	24.4101	-132.62821	-157.85198	53.70222	90.31737	-141.57858	-60.21158	-567.94166	-415.78537	-358.0148	-197.72181	-121.23683	0
443	36.61515	-115.54114	-152.96996	38.24249	94.38572	-132.62821	-158.66565	-835.63909	-608.62516	-441.82281	-197.72181	-87.06269	0
444	49.63387	-100.08141	-148.90161	24.4101	99.26774	-125.30518	-271.76578	-1117.98258	-827.50239	-549.22725	-200.97649	-48.8202	0
445	62.65259	-87.87636	-146.4606	11.39138	106.59077	-120.42316	-385.67958	-1375.1023	-1041.4976	-663.14105	-205.04484	-11.39138	0
446	77.29865	-73.2303	-144.83326	-2.44101	113.10013	-113.10013	-505.28907	-1607.81192	-1240.03308	-768.10448	-199.34915	30.10579	0
447	93.57205	-51.26121	-139.95124	-21.96909	116.35481	-98.45407	-632.22159	-1822.6208	-1419.04048	-852.72616	-175.75272	81.367	0
448	111.47279	-17.08707	-125.30518	-48.00653	116.35481	-73.2303	-755.08576	-2017.9016	-1572.01044	-910.49673	-133.44188	141.57858	0
449	134.25555	29.29212	-101.70875	-82.99434	115.54114	-36.61515	-859.23552	-2186.33129	-1694.06094	-943.8572	-78.11232	208.29952	0
450	165.17501	86.24902	-78.92599	-126.93252	119.60949	3.25468	-938.16151	-2321.40051	-1779.49629	-958.50326	-16.2734	278.27514	0
451	210.74053	139.95124	-71.60296	-176.56639	139.95124	34.17414	-1003.25511	-2417.41357	-1825.06181	-958.50326	52.88855	351.50544	0
452	276.6478	177.38006	-100.08141	-227.8276	187.1441	39.05616	-1073.23073	-2470.30212	-1841.33521	-942.22986	132.62821	427.99042	0
453	363.71049	192.02612	-172.49804	-278.27514	267.69743	9.76404	-1158.66608	-2477.62515	-1826.68915	-907.24205	228.64127	510.98476	0
454	468.67392	188.77144	-279.90248	-329.53635	373.47453	-44.75185	-1257.93382	-2435.31431	-1769.73225	-842.96212	348.25076	603.74314	0
455	583.40139	175.75272	-407.64867	-380.79756	494.71136	-114.72747	-1361.26991	-2346.62428	-1664.76882	-739.62603	497.15237	707.8929	0
456	699.7562	153.78363	-545.97257	-427.99042	622.45755	-195.2808	-1450.77361	-2231.08314	-1528.07226	-608.62516	663.95472	812.85633	0
457	803.09229	126.93252	-683.4828	-462.97823	743.69438	-281.52982	-1510.17152	-2112.28732	-1392.18937	-473.55594	835.63909	912.12407	0
458	875.50892	107.40444	-790.88724	-480.87897	833.19808	-353.13278	-1540.27731	-2004.06921	-1277.4619	-348.25076	1015.46016	1010.57814	0
459	899.10535	89.5037	-833.19808	-483.31998	865.74488	-383.23857	-1538.64997	-1903.9878	-1185.51719	-225.38659	1214.80931	1124.49194	0
460	868.99956	71.60296	-799.02394	-470.30126	834.01175	-364.52416	-1491.45711	-1807.16107	-1113.10056	-106.59077	1406.02176	1246.54244	0
461	790.07357	61.83892	-713.58859	-433.68611	751.01741	-320.58598	-1392.18937	-1703.01131	-1060.21201	-9.76404	1539.46364	1339.30082	0
462	677.78711	45.56552	-614.32085	-371.03352	645.24031	-283.15716	-1243.28776	-1571.19677	-1009.76447	56.9569	1611.0666	1358.8289	0
463	552.48193	9.76404	-528.8855	-288.85285	540.27688	-262.81541	-1062.65302	-1406.83543	-941.41619	104.14976	1613.50761	1288.85328	0
464	431.2451	-38.24249	-460.53722	-200.97649	445.07749	-253.86504	-877.94993	-1221.31867	-850.28515	125.30518	1517.49455	1137.51066	0
465	316.51763	-89.5037	-402.76665	-115.54114	358.0148	-248.98302	-707.8929	-1028.47888	-748.5764	106.59077	1305.94035	917.81976	0
466	209.92686	-138.3239	-347.43709	-36.61515	278.27514	-244.91467	-557.36395	-834.01175	-640.35829	50.44754	999.18676	657.44536	0
467	121.23683	-177.38006	-299.43056	26.85111	209.92686	-238.40531	-429.61776	-649.30866	-524.00348	-19.52808	659.0727	400.32564	0
468	56.9569	-203.4175	-261.18807	72.41663	158.66565	-231.89595	-327.09534	-487.38833	-410.90335	-91.13104	349.06443	188.77144	0
469	14.64606	-218.87723	-235.15063	100.89508	124.49151	-227.01393	-248.98302	-354.76012	-311.63561	-152.15629	108.21811	37.42882	0
470	-8.95037	-227.8276	-219.6909	117.98215	104.96343	-223.75925	-189.58511	-251.42403	-231.08228	-194.46713	-48.8202	-55.32956	0
471	-22.78276	-233.52329	-211.5542	128.55986	93.57205	-222.94558	-143.20592	-170.05703	-165.17501	-209.11319	-127.74619	-104.96343	0
472	-30.91946	-235.9643	-208.29952	134.25555	87.87636	-222.94558	-104.14976	-101.70875	-106.59077	-195.2808	-151.34262	-126.93252	0
473	-34.98781	-236.77797	-203.4175	137.51023	82.18067	-221.31824	-69.97562	-43.93818	-52.88855	-160.29299	-144.01959	-132.62821	0
474	-37.42882	-232.70962	-193.65346	138.3239	74.85764	-214.80888	-39.86983	2.44101	-3.25468	-113.9138	-121.23683	-129.37353	0
475	-39.05616	-222.13191	-179.0074	133.44188	65.0936	-200.97649	-12.20505	43.93818	40.6835	-63.46626	-90.31737	-120.42316	0
476	-39.05616	-203.4175	-160.29299	123.67784	56.9569	-182.26208	13.01872	82.18067	83.80801	-13.83239	-56.14323	-109.03178	0
477	-39.05616	-182.26208	-140.76491	111.47279	49.63387	-161.92033	39.05616	119.60949	123.67784	31.73313	-23.59643	-96.01306	0
478	-39.86983	-161.92033	-122.86417	98.45407	42.31084	-142.39225	64.27993	154.5973	160.29299	71.60296	1.62734	-85.43535	0
479	-40.6835	-141.57858	-104.14976	87.87636	32.5468	-122.86417	86.24902	187.1441	192.83979	104.96343	20.34175	-78.92599	0
480	-42.31084	-119.60949	-81.367	78.11232	21.15542	-100.89508	104.14976	215.62255	221.31824	131.00087	33.36047	-74.85764	0
481	-42.31084	-95.19939	-56.14323	66.72094	7.32303	-76.48498	115.54114	237.59164	244.91467	152.15629	43.12451	-72.41663	0
482	-42.31084	-71.60296	-33.36047	56.14323	-3.25468	-52.07488	121.23683	253.05137	263.62908	166.80235	48.00653	-69.97562	0
483	-42.31084	-52.88855	-16.2734	47.19286	-11.39138	-32.5468	123.67784	263.62908	277.46147	178.19373	52.07488	-65.0936	0
484	-41.49717	-40.6835	-5.69569	40.6835	-17.08707	-19.52808	125.30518	272.57945	288.03918	187.1441	56.9569	-58.58424	0
485	-39.86983	-34.17414	0	36.61515	-18.71441	-14.64606	128.55986	279.90248	297.80322	196.90814	65.0936	-48.8202	0
486	-36.61515	-32.5468	0	34.17414	-18.71441	-13.83239	134.25555	288.03918	306.75359	207.48585	75.67131	-38.24249	0
487	-34.98781	-33.36047	0	33.36047	-18.71441	-15.45973	140.76491	296.17588	314.89029	217.24989	87.87636	-27.66478	0
488	-37.42882	-38.24249	-0.81367	36.61515	-20.34175	-18.71441	145.64693	304.31258	320.58598	225.38659	96.01306	-20.34175	0
489	-40.6835	-44.75185	-3.25468	41.49717	-20.34175	-22.78276	148.90161	310.00827	325.468	230.26861	98.45407	-18.71441	0
490	-43.12451	-51.26121	-7.32303	45.56552	-18.71441	-26.85111	148.90161	314.89029	329.53635	231.89595	96.82673	-21.96909	0
491	-43.93818	-54.51589	-10.57771	48.8202	-17.90074	-30.91946	146.4606	318.95864	333.6047	232.70962	92.75838	-27.66478	0
492	-44.75185	-54.51589	-8.95037	48.8202	-17.90074	-30.91946	144.83326	325.468	340.92773	235.15063	87.87636	-30.91946	0
493	-45.56552	-49.63387	-3.25468	47.19286	-21.15542	-26.03744	143.20592	332.79103	349.06443	238.40531	84.62168	-31.73313	0
494	-44.75185	-39.86983	4.06835	41.49717	-26.03744	-17.08707	143.20592	339.30039	356.38746	244.101	84.62168	-30.10579	0
495	-40.6835	-27.66478	13.01872	33.36047	-30.10579	-6.50936	144.83326	342.55507	360.45581	248.98302	86.24902	-28.47845	0
496	-37.42882	-15.45973	21.15542	25.22377	-34.17414	2.44101	147.27427	343.36874	361.26948	253.05137	89.5037	-28.47845	0
497	-34.98781	-4.06835	30.10579	18.71441	-37.42882	13.01872	149.71528	344.18241	362.08315	257.11972	92.75838	-30.10579	0
498	-34.17414	3.25468	39.05616	14.64606	-39.86983	21.15542	151.34262	344.99608	362.08315	259.56073	95.19939	-33.36047	0
499	-34.17414	7.32303	43.93818	13.01872	-39.86983	26.03744	152.15629	345.80975	362.89682	262.00174	95.19939	-35.80148	0
500	-33.36047	6.50936	42.31084	13.01872	-37.42882	24.4101	152.96996	349.06443	365.33783	262.81541	93.57205	-36.61515	0
501	-33.36047	0.81367	34.98781	16.2734	-33.36047	17.90074	155.41097	354.76012	370.21985	265.25642	91.94471	-34.98781	0
502	-34.17414	-8.1367	26.03744	21.96909	-28.47845	8.1367	157.85198	362.89682	378.35655	269.32477	91.94471	-30.10579	0
503	-34.98781	-18.71441	18.71441	27.66478	-26.03744	0	161.10666	371.03352	386.49325	275.83413	92.75838	-24.4101	0
504	-35.80148	-25.22377	13.83239	30.91946	-23.59643	-4.06835	163.54767	376.72921	393.00261	280.71615	94.38572	-20.34175	0
505	-37.42882	-26.85111	12.20505	31.73313	-23.59643	-5.69569	165.98868	379.98389	397.07096	284.7845	96.01306	-17.08707	0
506	-39.05616	-23.59643	14.64606	30.10579	-25.22377	-3.25468	168.42969	382.4249	400.32564	287.22551	99.26774	-14.64606	0
507	-40.6835	-19.52808	21.96909	29.29212	-30.91946	1.62734	170.8707	384.86591	401.13931	288.85285	102.52242	-12.20505	0
508	-41.49717	-13.83239	30.10579	26.85111	-36.61515	8.1367	171.68437	386.49325	401.13931	290.48019	104.14976	-12.20505	0
509	-42.31084	-6.50936	37.42882	23.59643	-40.6835	15.45973	170.05703	387.30692	401.95298	291.29386	104.14976	-13.83239	0
510	-41.49717	1.62734	43.93818	18.71441	-43.12451	22.78276	167.61602	388.93426	402.76665	291.29386	100.89508	-17.90074	0
511	-39.86983	11.39138	49.63387	13.01872	-44.75185	30.10579	163.54767	392.18894	406.02133	292.10753	97.6404	-22.78276	0
512	-36.61515	19.52808	54.51589	7.32303	-46.37919	36.61515	160.29299	397.07096	411.71702	293.73487	94.38572	-26.03744	0
513	-34.17414	26.85111	59.39791	4.06835	-47.19286	42.31084	159.47932	403.58032	419.04005	297.80322	92.75838	-25.22377	0
514	-32.5468	30.91946	64.27993	3.25468	-50.44754	47.19286	160.29299	410.08968	425.54941	301.0579	94.38572	-21.15542	0
515	-32.5468	32.5468	66.72094	2.44101	-52.07488	48.8202	162.734	414.15803	430.43143	305.12625	98.45407	-13.83239	0
516	-34.17414	30.10579	66.72094	3.25468	-52.88855	48.8202	167.61602	417.41271	433.68611	309.1946	104.14976	-6.50936	0
517	-38.24249	26.03744	65.90727	5.69569	-53.70222	46.37919	173.31171	422.29473	436.12712	314.07662	110.65912	0	0
518	-41.49717	21.15542	65.0936	8.95037	-54.51589	43.12451	180.63474	428.80409	440.19547	318.95864	115.54114	2.44101	0
519	-42.31084	17.08707	62.65259	11.39138	-54.51589	39.05616	185.51676	434.49978	444.26382	323.02699	117.16848	0.81367	0
520	-42.31084	14.64606	59.39791	12.20505	-52.88855	34.98781	189.58511	441.00914	448.33217	325.468	114.72747	-3.25468	0
521	-40.6835	13.83239	56.9569	12.20505	-50.44754	33.36047	191.21245	447.5185	454.02786	327.09534	111.47279	-10.57771	0
522	-39.05616	16.2734	56.9569	10.57771	-48.8202	35.80148	192.02612	454.84153	459.72355	330.35002	106.59077	-17.90074	0
523	-38.24249	21.96909	60.21158	7.32303	-50.44754	40.6835	193.65346	461.35089	466.23291	332.79103	101.70875	-22.78276	0
524	-37.42882	29.29212	66.72094	3.25468	-52.88855	48.00653	195.2808	466.23291	470.30126	335.23204	97.6404	-26.03744	0
525	-37.42882	36.61515	74.04397	0	-56.9569	56.14323	196.90814	468.67392	471.9286	336.04571	95.19939	-26.85111	0
526	-39.05616	43.93818	81.367	-3.25468	-60.21158	63.46626	199.34915	469.48759	471.9286	336.04571	96.01306	-25.22377	0
527	-40.6835	50.44754	88.69003	-6.50936	-63.46626	69.97562	200.97649	471.11493	470.30126	336.04571	97.6404	-22.78276	0
528	-43.12451	55.32956	94.38572	-8.95037	-66.72094	75.67131	203.4175	472.74227	470.30126	336.04571	99.26774	-19.52808	0
529	-43.93818	56.9569	98.45407	-8.95037	-69.16195	78.11232	205.04484	475.18328	471.9286	336.04571	99.26774	-16.2734	0
530	-42.31084	57.77057	97.6404	-8.95037	-69.16195	78.11232	205.04484	478.43796	475.18328	336.85938	97.6404	-16.2734	0
531	-40.6835	56.9569	96.01306	-8.95037	-68.34828	76.48498	204.23117	482.50631	480.0653	338.48672	96.01306	-18.71441	0
532	-39.05616	57.77057	96.82673	-8.95037	-68.34828	77.29865	203.4175	486.57466	486.57466	340.92773	93.57205	-21.96909	0
533	-38.24249	58.58424	99.26774	-8.95037	-70.78929	78.92599	204.23117	489.82934	492.27035	344.18241	91.13104	-25.22377	0
534	-39.05616	61.83892	104.14976	-9.76404	-73.2303	82.99434	205.04484	491.45668	495.52503	347.43709	89.5037	-27.66478	0
535	-41.49717	66.72094	109.84545	-11.39138	-76.48498	87.87636	207.48585	492.27035	497.96604	349.8781	89.5037	-26.85111	0
536	-46.37919	70.78929	116.35481	-12.20505	-81.367	94.38572	210.74053	493.89769	499.59338	352.31911	92.75838	-23.59643	0
537	-50.44754	73.2303	124.49151	-12.20505	-87.06269	99.26774	215.62255	497.96604	500.40705	353.94645	96.01306	-20.34175	0
538	-53.70222	74.04397	130.1872	-11.39138	-91.13104	102.52242	219.6909	503.66173	502.03439	354.76012	97.6404	-17.08707	0
539	-56.14323	73.2303	133.44188	-9.76404	-94.38572	103.33609	222.94558	510.98476	505.28907	356.38746	96.01306	-16.2734	0
540	-56.14323	72.41663	133.44188	-8.95037	-96.01306	102.52242	225.38659	520.7488	508.54375	358.0148	92.75838	-17.90074	0
541	-54.51589	71.60296	130.1872	-8.95037	-93.57205	100.89508	226.20026	529.69917	512.6121	358.0148	88.69003	-21.15542	0
542	-51.26121	74.04397	128.55986	-10.57771	-91.13104	100.89508	226.20026	539.46321	517.49412	357.20113	84.62168	-23.59643	0
543	-48.00653	78.92599	128.55986	-13.01872	-89.5037	103.33609	227.01393	548.41358	521.56247	356.38746	80.55333	-25.22377	0
544	-47.19286	83.80801	131.81454	-15.45973	-91.13104	108.21811	230.26861	554.92294	524.81715	356.38746	78.11232	-24.4101	0
545	-49.63387	88.69003	140.76491	-16.2734	-96.82673	114.72747	234.33696	558.99129	525.63082	357.20113	78.92599	-23.59643	0
546	-54.51589	94.38572	153.78363	-16.2734	-107.40444	123.67784	237.59164	562.24597	524.81715	357.20113	78.92599	-21.96909	0
547	-61.02525	100.08141	167.61602	-16.2734	-117.98215	133.44188	240.84632	565.50065	523.18981	354.76012	78.11232	-21.15542	0
548	-65.90727	107.40444	178.19373	-18.71441	-125.30518	142.39225	240.84632	568.75533	519.93513	351.50544	74.85764	-21.96909	0
549	-69.97562	113.9138	183.88942	-22.78276	-128.55986	148.90161	240.03265	573.63735	516.68045	348.25076	69.16195	-25.22377	0
550	-71.60296	117.16848	186.33043	-25.22377	-129.37353	151.34262	239.21898	579.33304	515.86678	343.36874	61.83892	-29.29212	0
551	-70.78929	117.98215	185.51676	-25.22377	-128.55986	151.34262	240.03265	585.8424	515.05311	337.67305	54.51589	-32.5468	0
552	-70.78929	117.16848	184.70309	-24.4101	-127.74619	150.52895	240.84632	593.16543	516.68045	333.6047	48.00653	-34.17414	0
553	-71.60296	117.16848	185.51676	-22.78276	-128.55986	149.71528	243.28733	600.48846	517.49412	328.72268	43.12451	-33.36047	0
554	-74.85764	117.98215	189.58511	-21.15542	-132.62821	152.15629	246.54201	605.37048	517.49412	325.468	39.05616	-31.73313	0
555	-78.92599	119.60949	196.90814	-19.52808	-138.3239	157.03831	249.79669	607.81149	514.23944	320.58598	35.80148	-30.10579	0
556	-83.80801	122.86417	205.85851	-18.71441	-145.64693	163.54767	252.2377	609.43883	507.73008	314.07662	31.73313	-30.10579	0
557	-89.5037	125.30518	214.80888	-17.90074	-152.15629	169.24336	254.67871	608.62516	499.59338	306.75359	26.85111	-31.73313	0
558	-93.57205	127.74619	221.31824	-17.08707	-157.85198	174.12538	257.93339	606.18415	491.45668	298.61689	19.52808	-34.17414	0
559	-95.19939	128.55986	225.38659	-16.2734	-161.10666	177.38006	259.56073	603.74314	481.69264	288.03918	8.95037	-40.6835	0
560	-96.01306	129.37353	226.20026	-16.2734	-161.10666	178.19373	259.56073	600.48846	471.9286	275.02046	-4.88202	-48.8202	0
561	-95.19939	128.55986	223.75925	-16.2734	-160.29299	176.56639	257.93339	597.23378	460.53722	259.56073	-21.15542	-57.77057	0
562	-95.19939	128.55986	223.75925	-17.90074	-160.29299	176.56639	255.49238	593.9791	450.77318	244.101	-36.61515	-64.27993	0
563	-100.89508	129.37353	230.26861	-19.52808	-165.98868	179.82107	254.67871	591.53809	440.19547	230.26861	-48.8202	-66.72094	0
564	-109.03178	132.62821	241.65999	-21.15542	-175.75272	187.1441	254.67871	586.65607	428.80409	217.24989	-57.77057	-68.34828	0
565	-115.54114	139.95124	253.86504	-21.96909	-186.33043	196.09447	254.67871	577.7057	414.15803	203.4175	-65.90727	-69.16195	0
566	-119.60949	149.71528	264.44275	-21.96909	-195.2808	205.04484	253.86504	565.50065	396.25729	187.95777	-72.41663	-69.97562	0
567	-122.0505	157.03831	272.57945	-21.96909	-200.97649	211.5542	253.05137	552.48193	377.54288	170.8707	-80.55333	-71.60296	0
568	-123.67784	157.03831	275.83413	-19.52808	-202.60383	213.99521	251.42403	538.64954	357.20113	152.15629	-93.57205	-74.85764	0
569	-124.49151	152.15629	275.02046	-15.45973	-201.79016	212.36787	249.79669	524.81715	337.67305	131.81454	-109.03178	-79.73966	0
570	-125.30518	145.64693	269.32477	-10.57771	-198.53548	206.67218	247.35568	512.6121	319.77231	111.47279	-126.11885	-85.43535	0
571	-126.11885	139.13757	263.62908	-7.32303	-194.46713	201.79016	244.91467	502.84806	303.49891	91.94471	-142.39225	-91.94471	0
572	-126.11885	133.44188	257.93339	-4.06835	-191.21245	197.72181	240.84632	491.45668	287.22551	72.41663	-157.85198	-97.6404	0
573	-126.93252	130.1872	255.49238	-1.62734	-190.39878	196.09447	235.9643	478.43796	268.5111	52.88855	-172.49804	-101.70875	0
574	-129.37353	128.55986	257.11972	0	-192.83979	196.09447	230.26861	461.35089	248.16935	32.5468	-183.88942	-104.96343	0
575	-133.44188	127.74619	261.18807	1.62734	-197.72181	196.90814	223.75925	441.82281	226.20026	13.01872	-192.83979	-106.59077	0
576	-138.3239	128.55986	266.07009	4.06835	-202.60383	198.53548	218.87723	419.85372	201.79016	-5.69569	-199.34915	-107.40444	0
577	-140.76491	127.74619	269.32477	5.69569	-205.04484	198.53548	213.18154	399.51197	177.38006	-25.22377	-205.85851	-108.21811	0
578	-139.95124	125.30518	266.88376	7.32303	-203.4175	196.09447	207.48585	378.35655	152.96996	-44.75185	-214.80888	-111.47279	0
579	-137.51023	119.60949	258.74706	8.1367	-199.34915	188.77144	200.16282	357.20113	129.37353	-65.0936	-226.20026	-117.98215	0
580	-135.88289	112.28646	248.16935	11.39138	-192.83979	179.82107	189.58511	335.23204	106.59077	-85.43535	-240.03265	-126.93252	0
581	-135.06922	103.33609	238.40531	14.64606	-187.95777	170.05703	178.19373	313.26295	84.62168	-104.96343	-252.2377	-135.88289	0
582	-135.06922	96.01306	231.08228	16.2734	-183.88942	163.54767	165.98868	289.66652	65.0936	-122.0505	-262.00174	-142.39225	0
583	-133.44188	92.75838	226.20026	16.2734	-179.82107	159.47932	153.78363	266.88376	45.56552	-136.69656	-266.88376	-145.64693	0
584	-128.55986	91.94471	220.50457	17.08707	-174.93905	156.22464	143.20592	243.28733	26.85111	-149.71528	-269.32477	-146.4606	0
585	-122.86417	87.87636	210.74053	17.90074	-166.80235	148.90161	134.25555	219.6909	7.32303	-161.92033	-268.5111	-145.64693	0
586	-116.35481	79.73966	196.09447	18.71441	-156.22464	137.51023	123.67784	196.09447	-9.76404	-171.68437	-264.44275	-142.39225	0
587	-110.65912	68.34828	179.0074	21.96909	-144.83326	122.86417	113.10013	172.49804	-26.03744	-179.82107	-257.93339	-136.69656	0
588	-106.59077	54.51589	162.734	25.22377	-135.06922	108.21811	101.70875	150.52895	-39.86983	-183.88942	-250.61036	-130.1872	0
589	-102.52242	41.49717	145.64693	27.66478	-124.49151	93.57205	89.5037	131.81454	-49.63387	-186.33043	-244.101	-125.30518	0
590	-95.19939	31.73313	127.74619	29.29212	-111.47279	79.73966	76.48498	113.9138	-56.9569	-187.1441	-240.03265	-125.30518	0
591	-85.43535	22.78276	109.03178	28.47845	-97.6404	65.90727	63.46626	99.26774	-61.02525	-184.70309	-235.15063	-126.11885	0
592	-75.67131	15.45973	91.13104	27.66478	-83.80801	53.70222	51.26121	86.24902	-62.65259	-179.82107	-228.64127	-126.93252	0
593	-68.34828	8.1367	77.29865	28.47845	-73.2303	42.31084	42.31084	74.04397	-63.46626	-173.31171	-219.6909	-124.49151	0
594	-63.46626	1.62734	65.0936	29.29212	-65.0936	33.36047	34.17414	61.83892	-65.0936	-166.80235	-207.48585	-118.79582	0
595	-60.21158	-4.06835	55.32956	31.73313	-58.58424	25.22377	28.47845	49.63387	-65.90727	-158.66565	-192.02612	-111.47279	0
596	-57.77057	-10.57771	47.19286	33.36047	-52.88855	17.90074	23.59643	36.61515	-68.34828	-151.34262	-177.38006	-105.7771	0
597	-53.70222	-16.2734	37.42882	35.80148	-45.56552	9.76404	17.08707	23.59643	-71.60296	-145.64693	-165.17501	-103.33609	0
598	-48.00653	-22.78276	26.03744	37.42882	-37.42882	0.81367	9.76404	12.20505	-74.85764	-141.57858	-157.85198	-103.33609	-1250	T-0
599	-42.31084	-30.10579	13.83239	39.86983	-28.47845	-8.1367	2.44101	2.44101	-77.29865	-139.13757	-154.5973	-105.7771	0
600	-37.42882	-38.24249	0.81367	41.49717	-20.34175	-17.90074	-3.25468	-3.25468	-77.29865	-136.69656	-152.15629	-109.03178	0
601	-32.5468	-45.56552	-8.95037	42.31084	-13.01872	-26.85111	-10.57771	-8.1367	-76.48498	-133.44188	-148.90161	-110.65912	0
602	-28.47845	-51.26121	-15.45973	41.49717	-5.69569	-32.5468	-17.08707	-13.01872	-74.04397	-129.37353	-144.01959	-108.21811	0
603	-26.85111	-52.88855	-18.71441	40.6835	-2.44101	-35.80148	-21.15542	-17.90074	-71.60296	-123.67784	-136.69656	-104.14976	0
604	-29.29212	-52.07488	-18.71441	40.6835	-2.44101	-34.17414	-21.96909	-21.96909	-69.16195	-116.35481	-126.93252	-96.82673	0
605	-33.36047	-48.00653	-17.08707	39.86983	-4.06835	-29.29212	-20.34175	-26.03744	-66.72094	-109.03178	-116.35481	-88.69003	0
606	-34.98781	-41.49717	-13.01872	37.42882	-6.50936	-23.59643	-20.34175	-30.91946	-65.90727	-103.33609	-105.7771	-81.367	0
607	-31.73313	-36.61515	-10.57771	34.17414	-6.50936	-20.34175	-20.34175	-35.80148	-66.72094	-100.89508	-99.26774	-76.48498	0
608	-26.03744	-34.98781	-12.20505	31.73313	-4.06835	-21.96909	-21.96909	-39.86983	-68.34828	-100.08141	-95.19939	-74.04397	0
609	-20.34175	-38.24249	-19.52808	31.73313	0	-27.66478	-24.4101	-43.12451	-69.16195	-98.45407	-93.57205	-74.85764	0
610	-16.2734	-46.37919	-29.29212	32.5468	7.32303	-38.24249	-26.85111	-43.93818	-67.53461	-96.01306	-92.75838	-77.29865	0
611	-12.20505	-56.9569	-38.24249	35.80148	14.64606	-49.63387	-28.47845	-43.12451	-64.27993	-93.57205	-91.13104	-77.29865	0
612	-12.20505	-65.90727	-45.56552	38.24249	19.52808	-56.9569	-30.10579	-40.6835	-59.39791	-88.69003	-87.06269	-74.85764	0
613	-15.45973	-70.78929	-48.8202	39.86983	19.52808	-59.39791	-29.29212	-38.24249	-53.70222	-83.80801	-80.55333	-69.97562	0
614	-18.71441	-70.78929	-47.19286	40.6835	17.90074	-57.77057	-27.66478	-36.61515	-48.8202	-78.92599	-71.60296	-64.27993	0
615	-20.34175	-66.72094	-44.75185	39.86983	15.45973	-55.32956	-26.03744	-37.42882	-47.19286	-74.85764	-65.90727	-59.39791	0
616	-17.90074	-61.83892	-43.12451	38.24249	13.01872	-52.07488	-26.85111	-40.6835	-48.8202	-74.85764	-64.27993	-60.21158	0
617	-15.45973	-57.77057	-42.31084	37.42882	11.39138	-49.63387	-28.47845	-44.75185	-52.88855	-77.29865	-68.34828	-65.90727	0
618	-15.45973	-54.51589	-38.24249	37.42882	8.95037	-46.37919	-30.10579	-48.00653	-56.14323	-81.367	-74.85764	-73.2303	0
619	-18.71441	-52.88855	-33.36047	38.24249	4.88202	-43.12451	-31.73313	-49.63387	-58.58424	-84.62168	-82.18067	-79.73966	0
620	-22.78276	-52.07488	-29.29212	39.05616	0.81367	-40.6835	-34.17414	-48.8202	-57.77057	-85.43535	-87.87636	-84.62168	0
621	-25.22377	-50.44754	-25.22377	38.24249	-0.81367	-38.24249	-34.17414	-45.56552	-54.51589	-82.99434	-87.87636	-85.43535	0
622	-25.22377	-48.8202	-23.59643	36.61515	-0.81367	-36.61515	-32.5468	-40.6835	-48.8202	-78.11232	-83.80801	-81.367	0
623	-21.96909	-47.19286	-25.22377	33.36047	1.62734	-36.61515	-28.47845	-35.80148	-43.93818	-73.2303	-78.11232	-74.04397	0
624	-19.52808	-47.19286	-30.10579	31.73313	5.69569	-39.05616	-21.96909	-33.36047	-39.86983	-69.16195	-69.97562	-65.90727	0
625	-17.08707	-51.26121	-37.42882	31.73313	10.57771	-43.93818	-14.64606	-30.91946	-36.61515	-65.90727	-61.83892	-56.9569	0
626	-15.45973	-58.58424	-43.93818	34.98781	13.83239	-51.26121	-8.1367	-29.29212	-34.17414	-63.46626	-56.14323	-48.8202	0
627	-14.64606	-66.72094	-51.26121	39.05616	17.08707	-59.39791	-4.06835	-28.47845	-33.36047	-64.27993	-53.70222	-43.93818	0
628	-13.83239	-74.04397	-58.58424	42.31084	21.15542	-67.53461	-3.25468	-28.47845	-33.36047	-65.90727	-56.14323	-44.75185	0
629	-12.20505	-78.92599	-66.72094	44.75185	26.03744	-73.2303	-4.06835	-27.66478	-33.36047	-69.16195	-61.83892	-50.44754	0
630	-10.57771	-81.367	-70.78929	44.75185	29.29212	-76.48498	-7.32303	-26.03744	-32.5468	-71.60296	-69.16195	-61.02525	0
631	-11.39138	-79.73966	-68.34828	44.75185	27.66478	-74.04397	-9.76404	-22.78276	-30.91946	-73.2303	-75.67131	-70.78929	0
632	-13.01872	-73.2303	-60.21158	43.12451	22.78276	-67.53461	-11.39138	-18.71441	-28.47845	-73.2303	-78.92599	-76.48498	0
633	-15.45973	-65.0936	-49.63387	39.86983	17.08707	-57.77057	-11.39138	-15.45973	-26.85111	-71.60296	-78.92599	-78.11232	0
634	-16.2734	-56.14323	-39.05616	34.98781	12.20505	-48.00653	-9.76404	-13.83239	-26.85111	-69.97562	-74.85764	-74.85764	0
635	-17.08707	-49.63387	-30.10579	30.91946	7.32303	-41.49717	-4.88202	-13.83239	-27.66478	-68.34828	-70.78929	-69.97562	0
636	-17.08707	-46.37919	-25.22377	29.29212	3.25468	-37.42882	0	-13.83239	-29.29212	-67.53461	-66.72094	-65.0936	0
637	-20.34175	-45.56552	-22.78276	30.10579	0	-36.61515	4.06835	-13.01872	-31.73313	-68.34828	-65.90727	-63.46626	0
638	-23.59643	-47.19286	-23.59643	32.5468	-0.81367	-38.24249	7.32303	-11.39138	-31.73313	-69.97562	-66.72094	-63.46626	0
639	-25.22377	-50.44754	-26.03744	34.17414	0	-40.6835	10.57771	-7.32303	-30.91946	-70.78929	-69.16195	-65.0936	0
640	-26.03744	-54.51589	-30.10579	35.80148	0	-43.12451	13.83239	-2.44101	-28.47845	-70.78929	-71.60296	-65.90727	0
641	-26.85111	-56.9569	-32.5468	38.24249	0	-43.93818	16.2734	1.62734	-25.22377	-68.34828	-72.41663	-65.90727	0
642	-28.47845	-59.39791	-34.17414	40.6835	0	-45.56552	17.90074	5.69569	-22.78276	-66.72094	-71.60296	-64.27993	0
643	-28.47845	-61.83892	-34.98781	43.12451	0	-47.19286	20.34175	7.32303	-21.15542	-65.90727	-69.16195	-62.65259	0
644	-28.47845	-63.46626	-35.80148	44.75185	0	-48.8202	26.03744	8.1367	-21.15542	-65.90727	-65.90727	-61.02525	0
645	-27.66478	-64.27993	-35.80148	44.75185	0.81367	-50.44754	33.36047	8.1367	-21.96909	-66.72094	-61.83892	-59.39791	0
646	-27.66478	-64.27993	-34.17414	45.56552	0.81367	-50.44754	40.6835	7.32303	-22.78276	-68.34828	-59.39791	-58.58424	0
647	-28.47845	-63.46626	-32.5468	45.56552	0.81367	-48.8202	46.37919	6.50936	-25.22377	-69.16195	-59.39791	-59.39791	0
648	-27.66478	-61.02525	-31.73313	43.12451	0.81367	-47.19286	48.00653	5.69569	-26.85111	-71.60296	-62.65259	-61.02525	0
649	-25.22377	-58.58424	-32.5468	40.6835	1.62734	-45.56552	47.19286	5.69569	-28.47845	-74.85764	-67.53461	-64.27993	0
650	-21.96909	-56.14323	-34.17414	38.24249	4.06835	-44.75185	45.56552	6.50936	-27.66478	-78.11232	-73.2303	-69.16195	0
651	-19.52808	-54.51589	-34.98781	35.80148	6.50936	-44.75185	46.37919	8.95037	-26.85111	-81.367	-78.92599	-74.04397	0
652	-17.90074	-52.88855	-36.61515	34.98781	8.95037	-45.56552	48.8202	11.39138	-26.03744	-83.80801	-82.18067	-76.48498	0
653	-17.08707	-51.26121	-37.42882	35.80148	8.95037	-45.56552	52.88855	12.20505	-26.03744	-84.62168	-82.18067	-75.67131	0
654	-17.90074	-50.44754	-35.80148	36.61515	7.32303	-45.56552	57.77057	13.01872	-26.03744	-84.62168	-79.73966	-72.41663	0
655	-19.52808	-50.44754	-33.36047	36.61515	5.69569	-43.93818	61.83892	12.20505	-26.85111	-82.99434	-75.67131	-69.16195	0
656	-21.15542	-50.44754	-30.91946	35.80148	4.06835	-42.31084	64.27993	10.57771	-28.47845	-82.99434	-72.41663	-66.72094	0
657	-21.96909	-51.26121	-29.29212	35.80148	3.25468	-40.6835	65.0936	8.95037	-30.91946	-84.62168	-72.41663	-66.72094	0
658	-21.15542	-52.88855	-29.29212	36.61515	2.44101	-41.49717	64.27993	7.32303	-34.17414	-87.87636	-76.48498	-69.16195	0
659	-20.34175	-54.51589	-30.91946	37.42882	3.25468	-42.31084	62.65259	7.32303	-34.98781	-90.31737	-81.367	-72.41663	0
660	-20.34175	-55.32956	-32.5468	37.42882	4.88202	-43.93818	61.02525	8.1367	-33.36047	-90.31737	-85.43535	-74.85764	0
661	-19.52808	-56.14323	-34.17414	37.42882	6.50936	-44.75185	60.21158	10.57771	-30.91946	-90.31737	-87.06269	-76.48498	0
662	-18.71441	-55.32956	-34.17414	36.61515	5.69569	-44.75185	60.21158	12.20505	-30.10579	-90.31737	-87.06269	-78.92599	0
663	-17.90074	-54.51589	-30.91946	35.80148	4.06835	-43.93818	60.21158	12.20505	-30.91946	-90.31737	-85.43535	-79.73966	0
664	-18.71441	-52.88855	-27.66478	34.98781	2.44101	-42.31084	62.65259	13.01872	-31.73313	-90.31737	-81.367	-78.92599	0
665	-20.34175	-51.26121	-25.22377	35.80148	2.44101	-39.86983	65.90727	12.20505	-34.17414	-90.31737	-76.48498	-78.11232	0
666	-23.59643	-49.63387	-23.59643	36.61515	2.44101	-37.42882	67.53461	10.57771	-37.42882	-91.94471	-74.04397	-78.11232	0
667	-26.85111	-47.19286	-22.78276	37.42882	2.44101	-35.80148	68.34828	7.32303	-41.49717	-94.38572	-75.67131	-79.73966	0
668	-29.29212	-47.19286	-24.4101	39.05616	2.44101	-34.98781	68.34828	4.88202	-44.75185	-97.6404	-79.73966	-82.18067	0
669	-29.29212	-48.00653	-26.03744	39.05616	3.25468	-34.17414	69.16195	5.69569	-46.37919	-97.6404	-82.18067	-84.62168	0
670	-26.85111	-48.8202	-28.47845	39.05616	4.88202	-34.17414	70.78929	9.76404	-44.75185	-96.01306	-82.99434	-84.62168	0
671	-22.78276	-50.44754	-30.91946	37.42882	6.50936	-34.98781	74.85764	14.64606	-40.6835	-92.75838	-79.73966	-81.367	0
672	-18.71441	-49.63387	-31.73313	34.17414	8.1367	-34.98781	79.73966	19.52808	-35.80148	-87.87636	-74.04397	-74.85764	0
673	-13.83239	-44.75185	-30.10579	29.29212	8.1367	-33.36047	87.06269	22.78276	-31.73313	-82.18067	-66.72094	-67.53461	0
674	-10.57771	-36.61515	-25.22377	22.78276	7.32303	-28.47845	95.19939	25.22377	-29.29212	-78.11232	-58.58424	-61.83892	0
675	-8.1367	-26.85111	-18.71441	17.08707	4.06835	-21.96909	103.33609	26.85111	-28.47845	-74.04397	-50.44754	-58.58424	0
676	-5.69569	-16.2734	-9.76404	10.57771	0.81367	-13.01872	109.84545	28.47845	-26.85111	-70.78929	-45.56552	-56.9569	0
677	-3.25468	-4.06835	-2.44101	2.44101	0	-3.25468	113.9138	29.29212	-26.85111	-67.53461	-43.93818	-56.14323	0
678	-0.81367	6.50936	2.44101	-6.50936	0	4.06835	114.72747	30.10579	-26.03744	-65.90727	-45.56552	-56.9569	0
679	1.62734	17.90074	8.95037	-14.64606	0	13.83239	115.54114	30.91946	-24.4101	-62.65259	-47.19286	-57.77057	0
680	4.06835	28.47845	20.34175	-19.52808	-5.69569	24.4101	117.16848	34.17414	-20.34175	-59.39791	-46.37919	-57.77057	0
681	5.69569	39.86983	34.98781	-23.59643	-15.45973	37.42882	120.42316	38.24249	-15.45973	-55.32956	-44.75185	-56.9569	0
682	4.88202	49.63387	47.19286	-26.03744	-22.78276	48.8202	125.30518	41.49717	-11.39138	-51.26121	-41.49717	-55.32956	0
683	1.62734	57.77057	55.32956	-27.66478	-26.85111	56.14323	131.81454	42.31084	-8.95037	-48.00653	-36.61515	-52.07488	0
684	0	62.65259	61.02525	-30.10579	-30.10579	61.83892	139.95124	43.12451	-8.1367	-44.75185	-30.10579	-47.19286	0
685	0	65.0936	67.53461	-32.5468	-34.98781	66.72094	149.71528	42.31084	-8.1367	-41.49717	-23.59643	-42.31084	0
686	-0.81367	65.90727	74.04397	-34.17414	-39.86983	70.78929	157.85198	39.86983	-9.76404	-39.86983	-18.71441	-39.05616	0
687	-1.62734	65.0936	75.67131	-34.98781	-40.6835	72.41663	161.10666	37.42882	-11.39138	-39.86983	-17.90074	-38.24249	0
688	0	63.46626	71.60296	-34.98781	-37.42882	69.16195	159.47932	35.80148	-12.20505	-41.49717	-20.34175	-39.86983	0
689	2.44101	63.46626	63.46626	-35.80148	-30.91946	64.27993	150.52895	31.73313	-13.83239	-43.12451	-24.4101	-41.49717	0
690	5.69569	65.90727	55.32956	-37.42882	-23.59643	61.02525	132.62821	26.85111	-14.64606	-43.93818	-27.66478	-40.6835	0
691	8.95037	68.34828	50.44754	-41.49717	-20.34175	60.21158	109.84545	20.34175	-15.45973	-42.31084	-27.66478	-36.61515	0
692	11.39138	71.60296	50.44754	-44.75185	-18.71441	61.83892	86.24902	12.20505	-16.2734	-40.6835	-26.03744	-31.73313	0
693	14.64606	73.2303	50.44754	-48.00653	-17.08707	62.65259	63.46626	2.44101	-20.34175	-42.31084	-23.59643	-26.03744	0
694	18.71441	74.85764	48.00653	-50.44754	-13.01872	61.83892	41.49717	-10.57771	-28.47845	-47.19286	-21.96909	-21.96909	0
695	23.59643	74.85764	47.19286	-52.07488	-10.57771	61.02525	21.96909	-23.59643	-38.24249	-52.88855	-23.59643	-21.15542	0
696	26.03744	74.04397	45.56552	-51.26121	-9.76404	60.21158	7.32303	-34.17414	-45.56552	-58.58424	-25.22377	-23.59643	0
697	26.85111	72.41663	43.93818	-50.44754	-9.76404	59.39791	-1.62734	-39.86983	-51.26121	-61.83892	-29.29212	-28.47845	0
698	27.66478	71.60296	43.12451	-49.63387	-8.95037	58.58424	-8.95037	-43.12451	-54.51589	-63.46626	-33.36047	-32.5468	0
699	30.91946	71.60296	42.31084	-52.07488	-6.50936	56.9569	-17.08707	-43.12451	-53.70222	-62.65259	-34.98781	-32.5468	0
700	37.42882	77.29865	41.49717	-57.77057	-4.06835	58.58424	-23.59643	-41.49717	-49.63387	-58.58424	-31.73313	-26.03744	0
701	43.93818	86.24902	42.31084	-65.90727	-2.44101	64.27993	-27.66478	-37.42882	-42.31084	-50.44754	-22.78276	-13.01872	0
702	49.63387	96.01306	44.75185	-74.04397	-1.62734	72.41663	-29.29212	-34.98781	-35.80148	-42.31084	-9.76404	2.44101	0
703	55.32956	104.96343	48.00653	-81.367	0	79.73966	-30.10579	-34.17414	-31.73313	-35.80148	1.62734	15.45973	0
704	61.02525	110.65912	48.8202	-86.24902	3.25468	83.80801	-30.10579	-34.17414	-31.73313	-31.73313	11.39138	22.78276	0
705	65.0936	114.72747	45.56552	-89.5037	9.76404	82.99434	-31.73313	-38.24249	-34.98781	-30.91946	17.90074	26.03744	0
706	66.72094	114.72747	43.12451	-91.94471	14.64606	80.55333	-34.98781	-43.93818	-39.05616	-32.5468	19.52808	25.22377	0
707	66.72094	111.47279	41.49717	-92.75838	16.2734	75.67131	-39.05616	-48.8202	-44.75185	-35.80148	17.90074	24.4101	0
708	67.53461	105.7771	39.05616	-92.75838	17.08707	70.78929	-43.93818	-52.88855	-49.63387	-39.05616	13.83239	23.59643	0
709	69.97562	102.52242	35.80148	-92.75838	18.71441	66.72094	-48.00653	-54.51589	-50.44754	-40.6835	9.76404	21.15542	0
710	73.2303	99.26774	29.29212	-91.13104	21.96909	62.65259	-53.70222	-55.32956	-50.44754	-42.31084	4.88202	17.08707	0
711	74.85764	93.57205	20.34175	-87.87636	26.85111	56.14323	-58.58424	-56.14323	-50.44754	-44.75185	0.81367	14.64606	0
712	75.67131	85.43535	10.57771	-82.99434	31.73313	47.19286	-62.65259	-57.77057	-50.44754	-46.37919	0	14.64606	0
713	74.85764	77.29865	1.62734	-77.29865	34.17414	39.05616	-63.46626	-58.58424	-51.26121	-47.19286	1.62734	17.08707	0
714	74.85764	69.97562	-4.88202	-73.2303	35.80148	32.5468	-62.65259	-61.02525	-53.70222	-47.19286	5.69569	19.52808	0
715	73.2303	65.0936	-8.1367	-69.97562	36.61515	28.47845	-61.02525	-63.46626	-57.77057	-49.63387	7.32303	19.52808	0
716	69.97562	61.83892	-8.1367	-66.72094	36.61515	26.85111	-58.58424	-68.34828	-63.46626	-54.51589	4.88202	16.2734	0
717	65.90727	59.39791	-5.69569	-62.65259	34.17414	26.03744	-56.14323	-74.04397	-69.97562	-60.21158	0	10.57771	0
718	59.39791	55.32956	-2.44101	-57.77057	30.10579	26.03744	-53.70222	-78.11232	-74.04397	-65.0936	-7.32303	4.06835	0
719	50.44754	50.44754	0	-51.26121	26.03744	25.22377	-49.63387	-79.73966	-76.48498	-68.34828	-13.83239	-0.81367	0
720	41.49717	41.49717	0	-42.31084	22.78276	21.15542	-43.93818	-78.92599	-77.29865	-71.60296	-19.52808	-4.88202	0
721	32.5468	27.66478	-4.06835	-30.91946	21.15542	11.39138	-34.98781	-76.48498	-77.29865	-74.85764	-26.03744	-8.1367	0
722	22.78276	8.1367	-14.64606	-17.08707	20.34175	-2.44101	-24.4101	-73.2303	-76.48498	-78.11232	-30.91946	-10.57771	0
723	14.64606	-10.57771	-26.03744	-2.44101	20.34175	-18.71441	-12.20505	-67.53461	-76.48498	-78.92599	-33.36047	-13.01872	0
724	8.95037	-26.03744	-35.80148	7.32303	20.34175	-31.73313	0	-60.21158	-74.85764	-77.29865	-32.5468	-15.45973	0
725	3.25468	-35.80148	-39.86983	14.64606	20.34175	-39.05616	11.39138	-52.88855	-73.2303	-74.85764	-31.73313	-19.52808	0
726	-0.81367	-41.49717	-40.6835	20.34175	17.90074	-43.12451	20.34175	-48.00653	-71.60296	-73.2303	-33.36047	-26.03744	0
727	-6.50936	-46.37919	-39.86983	26.03744	15.45973	-44.75185	26.85111	-43.93818	-71.60296	-74.04397	-39.05616	-36.61515	0
728	-11.39138	-51.26121	-39.05616	30.91946	13.01872	-44.75185	30.10579	-41.49717	-71.60296	-78.11232	-49.63387	-47.19286	0
729	-16.2734	-53.70222	-37.42882	34.17414	9.76404	-44.75185	30.91946	-38.24249	-71.60296	-83.80801	-61.83892	-57.77057	0
730	-19.52808	-55.32956	-35.80148	36.61515	7.32303	-44.75185	30.91946	-34.98781	-71.60296	-88.69003	-73.2303	-68.34828	0
731	-21.15542	-55.32956	-33.36047	38.24249	5.69569	-43.93818	30.91946	-33.36047	-71.60296	-93.57205	-83.80801	-78.11232	0
732	-22.78276	-54.51589	-32.5468	39.86983	4.88202	-43.12451	30.91946	-34.17414	-74.85764	-98.45407	-91.94471	-87.06269	0
733	-23.59643	-55.32956	-34.17414	39.86983	5.69569	-44.75185	32.5468	-36.61515	-79.73966	-103.33609	-96.82673	-91.94471	0
734	-25.22377	-57.77057	-35.80148	40.6835	7.32303	-46.37919	34.17414	-37.42882	-83.80801	-104.96343	-95.19939	-91.94471	0
735	-26.03744	-61.83892	-38.24249	43.12451	8.1367	-50.44754	36.61515	-39.05616	-87.87636	-104.96343	-91.13104	-89.5037	0
736	-28.47845	-68.34828	-41.49717	47.19286	8.95037	-55.32956	38.24249	-40.6835	-89.5037	-104.96343	-86.24902	-87.87636	0
737	-30.10579	-76.48498	-46.37919	52.88855	8.95037	-61.83892	38.24249	-40.6835	-91.94471	-106.59077	-86.24902	-87.06269	0
738	-31.73313	-85.43535	-52.88855	57.77057	10.57771	-69.16195	36.61515	-41.49717	-92.75838	-108.21811	-89.5037	-89.5037	0
739	-32.5468	-93.57205	-59.39791	61.83892	13.01872	-76.48498	34.17414	-39.86983	-92.75838	-109.84545	-95.19939	-94.38572	0
740	-33.36047	-97.6404	-64.27993	65.0936	14.64606	-79.73966	32.5468	-38.24249	-91.13104	-111.47279	-100.08141	-97.6404	0
741	-34.17414	-100.08141	-66.72094	66.72094	15.45973	-81.367	33.36047	-37.42882	-87.87636	-111.47279	-104.14976	-98.45407	0
742	-34.98781	-100.08141	-67.53461	66.72094	15.45973	-81.367	34.98781	-36.61515	-85.43535	-109.84545	-103.33609	-96.01306	0
743	-34.98781	-100.08141	-67.53461	66.72094	14.64606	-82.18067	37.42882	-36.61515	-83.80801	-107.40444	-99.26774	-91.94471	0
744	-35.80148	-100.08141	-65.90727	66.72094	13.01872	-82.18067	40.6835	-36.61515	-82.99434	-104.96343	-93.57205	-87.06269	0
745	-37.42882	-100.89508	-64.27993	67.53461	11.39138	-82.18067	43.93818	-39.05616	-83.80801	-101.70875	-87.87636	-82.99434	0
746	-39.86983	-100.89508	-59.39791	69.16195	7.32303	-80.55333	45.56552	-40.6835	-80.55333	-99.26774	-83.80801	-81.367	0
747	-42.31084	-98.45407	-53.70222	69.97562	3.25468	-76.48498	46.37919	-37.42882	-72.41663	-98.45407	-84.62168	-84.62168	0
748	-43.12451	-92.75838	-46.37919	69.16195	0	-69.97562	50.44754	-28.47845	-62.65259	-99.26774	-96.01306	-96.01306	0
749	-43.12451	-83.80801	-40.6835	67.53461	-3.25468	-62.65259	59.39791	-17.08707	-57.77057	-105.7771	-118.79582	-115.54114	0
750	-46.37919	-74.85764	-33.36047	65.90727	-9.76404	-55.32956	71.60296	-9.76404	-63.46626	-122.0505	-150.52895	-139.13757	0
751	-52.07488	-69.97562	-25.22377	65.0936	-17.08707	-49.63387	82.18067	-13.01872	-78.11232	-144.83326	-182.26208	-160.29299	0
752	-56.14323	-73.2303	-22.78276	66.72094	-19.52808	-50.44754	86.24902	-30.10579	-101.70875	-171.68437	-208.29952	-177.38006	0
753	-55.32956	-88.69003	-36.61515	73.2303	-11.39138	-64.27993	78.11232	-67.53461	-126.93252	-196.90814	-230.26861	-190.39878	0
754	-49.63387	-114.72747	-67.53461	81.367	7.32303	-91.94471	59.39791	-115.54114	-146.4606	-215.62255	-247.35568	-200.97649	0
755	-39.86983	-143.20592	-104.14976	91.13104	30.91946	-122.86417	41.49717	-152.15629	-165.98868	-228.64127	-257.93339	-206.67218	0
756	-29.29212	-166.80235	-136.69656	97.6404	52.88855	-146.4606	32.5468	-166.80235	-184.70309	-231.08228	-256.30605	-205.04484	0
757	-17.90074	-177.38006	-158.66565	96.82673	69.97562	-160.29299	29.29212	-179.82107	-195.2808	-226.20026	-248.98302	-194.46713	0
758	-7.32303	-177.38006	-168.42969	91.13104	80.55333	-166.80235	23.59643	-226.20026	-219.6909	-230.26861	-243.28733	-176.56639	0
759	1.62734	-168.42969	-169.24336	81.367	87.06269	-164.36134	-3.25468	-348.25076	-299.43056	-265.25642	-240.84632	-155.41097	0
760	11.39138	-152.96996	-165.17501	69.16195	90.31737	-156.22464	-67.53461	-556.55028	-451.58685	-341.7414	-242.47366	-130.1872	0
761	22.78276	-134.25555	-160.29299	53.70222	91.13104	-145.64693	-157.03831	-808.78798	-653.37701	-451.58685	-247.35568	-103.33609	0
762	36.61515	-116.35481	-155.41097	38.24249	91.13104	-135.06922	-251.42403	-1049.6343	-863.30387	-572.82368	-252.2377	-76.48498	0
763	50.44754	-96.82673	-149.71528	21.15542	91.13104	-122.86417	-350.69177	-1261.1885	-1060.21201	-687.55115	-253.86504	-45.56552	0
764	64.27993	-69.97562	-135.88289	1.62734	90.31737	-102.52242	-460.53722	-1454.02829	-1236.7784	-781.93687	-242.47366	-3.25468	0
765	82.18067	-30.10579	-113.9138	-26.03744	90.31737	-72.41663	-578.51937	-1633.03569	-1388.12102	-846.2168	-207.48585	53.70222	0
766	105.7771	22.78276	-88.69003	-64.27993	90.31737	-30.10579	-691.6195	-1794.95602	-1510.98519	-881.20461	-151.34262	123.67784	0
767	134.25555	83.80801	-65.90727	-109.03178	90.31737	15.45973	-785.19155	-1934.90726	-1606.99825	-895.037	-85.43535	200.16282	0
768	171.68437	142.39225	-48.8202	-157.85198	99.26774	56.14323	-856.79451	-2048.82106	-1678.60121	-897.47801	-12.20505	280.71615	0
769	224.57292	188.77144	-52.07488	-207.48585	129.37353	77.29865	-917.00609	-2129.37439	-1721.72572	-888.52764	69.97562	368.59251	0
770	294.54854	210.74053	-95.19939	-253.86504	189.58511	63.46626	-982.09969	-2170.87156	-1729.86242	-864.93121	169.24336	463.7919	0
771	382.4249	206.67218	-181.44841	-295.36221	279.08881	15.45973	-1061.83935	-2170.87156	-1699.75663	-822.62037	289.66652	567.12799	0
772	484.13365	187.1441	-298.61689	-336.85938	390.5616	-54.51589	-1155.4114	-2128.56072	-1628.96734	-748.5764	437.75446	682.66913	0
773	593.16543	161.92033	-430.43143	-379.17022	511.79843	-134.25555	-1255.49281	-2053.70308	-1516.68088	-634.6626	617.57553	807.97431	0
774	687.55115	136.69656	-550.04092	-413.34436	619.20287	-207.48585	-1349.06486	-1960.9447	-1381.61166	-493.08402	817.73835	934.09316	0
775	751.01741	112.28646	-637.91728	-434.49978	694.87418	-263.62908	-1416.59947	-1864.93164	-1249.79712	-344.99608	1029.29255	1057.771	0
776	784.37788	89.5037	-694.87418	-441.00914	739.62603	-302.68524	-1442.63691	-1773.8006	-1140.76534	-199.34915	1257.12015	1187.14453	0
777	785.19155	79.73966	-705.45189	-436.12712	745.32172	-313.26295	-1423.10883	-1688.36525	-1055.32999	-54.51589	1502.03482	1305.94035	0
778	746.94906	84.62168	-663.14105	-418.22638	704.63822	-295.36221	-1355.57422	-1600.48889	-991.05006	78.11232	1734.74444	1391.3757	0
779	673.71876	82.18067	-592.35176	-379.98389	632.22159	-274.20679	-1237.59207	-1493.08445	-936.53417	179.82107	1896.66477	1441.82324	0
780	576.89203	54.51589	-523.18981	-316.51763	549.22725	-259.56073	-1078.92642	-1352.31954	-872.25424	246.54201	1948.73965	1433.68654	0
781	471.11493	2.44101	-468.67392	-237.59164	468.67392	-253.86504	-903.1737	-1184.70352	-787.63256	288.03918	1882.01871	1338.48715	0
782	364.52416	-56.14323	-422.29473	-154.5973	393.00261	-253.05137	-735.55768	-1008.13713	-689.99216	293.73487	1694.87461	1159.47975	0
783	262.81541	-112.28646	-375.91554	-75.67131	318.95864	-250.61036	-585.8424	-831.57074	-590.72442	249.79669	1394.63038	913.75141	0
784	170.8707	-158.66565	-331.16369	-6.50936	250.61036	-247.35568	-457.28254	-660.70004	-493.89769	164.36134	1017.90117	636.28994	0
785	95.19939	-195.2808	-292.10753	48.8202	192.83979	-243.28733	-349.8781	-504.4754	-399.51197	61.02525	633.03526	375.91554	0
786	41.49717	-218.87723	-261.18807	87.87636	150.52895	-238.40531	-264.44275	-371.84719	-312.44928	-39.05616	299.43056	166.80235	0
787	8.1367	-230.26861	-239.21898	109.84545	123.67784	-234.33696	-197.72181	-264.44275	-238.40531	-121.23683	49.63387	21.15542	0
788	-8.95037	-236.77797	-227.8276	122.0505	108.21811	-231.89595	-147.27427	-179.0074	-176.56639	-171.68437	-107.40444	-68.34828	0
789	-21.15542	-242.47366	-221.31824	130.1872	99.26774	-231.08228	-108.21811	-110.65912	-122.0505	-186.33043	-187.95777	-120.42316	0
790	-30.91946	-245.72834	-214.80888	136.69656	91.13104	-229.45494	-76.48498	-52.88855	-71.60296	-171.68437	-214.80888	-151.34262	0
791	-39.86983	-243.28733	-204.23117	140.76491	81.367	-222.94558	-48.8202	-4.88202	-25.22377	-138.3239	-211.5542	-170.8707	0
792	-46.37919	-231.89595	-184.70309	139.13757	67.53461	-208.29952	-22.78276	35.80148	17.90074	-95.19939	-190.39878	-179.0074	0
793	-51.26121	-211.5542	-156.22464	132.62821	49.63387	-183.88942	4.06835	75.67131	61.83892	-43.93818	-156.22464	-173.31171	0
794	-56.14323	-185.51676	-124.49151	122.86417	30.91946	-155.41097	30.91946	114.72747	107.40444	8.1367	-115.54114	-156.22464	0
795	-56.9569	-161.92033	-100.89508	110.65912	17.08707	-131.81454	57.77057	152.15629	149.71528	56.9569	-76.48498	-135.88289	0
796	-53.70222	-142.39225	-86.24902	99.26774	8.1367	-114.72747	82.99434	186.33043	187.95777	98.45407	-46.37919	-118.79582	0
797	-49.63387	-126.11885	-74.85764	88.69003	3.25468	-100.89508	104.14976	216.43622	220.50457	130.1872	-26.03744	-104.96343	0
798	-48.8202	-111.47279	-62.65259	79.73966	0	-87.06269	118.79582	240.84632	247.35568	155.41097	-13.83239	-93.57205	0
799	-49.63387	-96.01306	-46.37919	71.60296	-6.50936	-70.78929	126.11885	260.3744	269.32477	174.12538	-6.50936	-85.43535	0
800	-50.44754	-78.92599	-30.10579	63.46626	-13.01872	-53.70222	129.37353	275.02046	288.03918	189.58511	-2.44101	-80.55333	0
801	-48.8202	-64.27993	-16.2734	55.32956	-17.90074	-39.05616	131.00087	285.59817	301.0579	201.79016	0	-78.11232	0
802	-46.37919	-52.07488	-6.50936	47.19286	-20.34175	-28.47845	131.00087	292.10753	310.82194	209.92686	2.44101	-77.29865	0
803	-43.12451	-43.12451	0	41.49717	-21.96909	-19.52808	132.62821	296.98955	318.14497	217.24989	8.1367	-74.04397	0
804	-42.31084	-37.42882	5.69569	37.42882	-24.4101	-13.83239	135.88289	301.87157	323.84066	224.57292	17.08707	-69.97562	0
805	-43.93818	-35.80148	10.57771	38.24249	-27.66478	-11.39138	140.76491	306.75359	328.72268	232.70962	26.85111	-65.0936	0
806	-46.37919	-37.42882	13.01872	42.31084	-32.5468	-10.57771	145.64693	310.82194	332.79103	239.21898	34.17414	-62.65259	0
807	-52.07488	-40.6835	13.01872	47.19286	-36.61515	-13.01872	149.71528	314.89029	336.04571	242.47366	35.80148	-63.46626	0
808	-57.77057	-44.75185	9.76404	51.26121	-39.05616	-17.08707	150.52895	318.14497	338.48672	242.47366	30.91946	-67.53461	0
809	-61.83892	-47.19286	6.50936	52.88855	-39.05616	-19.52808	151.34262	323.84066	343.36874	242.47366	24.4101	-73.2303	0
810	-64.27993	-48.00653	7.32303	53.70222	-39.05616	-19.52808	151.34262	331.16369	349.8781	244.91467	17.90074	-77.29865	0
811	-63.46626	-43.93818	12.20505	51.26121	-39.86983	-15.45973	152.96996	338.48672	358.0148	248.98302	14.64606	-80.55333	0
812	-60.21158	-35.80148	19.52808	46.37919	-40.6835	-8.1367	153.78363	344.18241	365.33783	253.86504	14.64606	-80.55333	0
813	-56.9569	-26.85111	27.66478	40.6835	-42.31084	0	155.41097	347.43709	371.03352	259.56073	19.52808	-78.92599	0
814	-53.70222	-18.71441	33.36047	34.98781	-43.93818	6.50936	157.85198	349.8781	374.2882	265.25642	26.85111	-74.85764	0
815	-52.07488	-13.01872	38.24249	31.73313	-45.56552	12.20505	159.47932	350.69177	375.10187	269.32477	33.36047	-71.60296	0
816	-51.26121	-8.1367	41.49717	28.47845	-46.37919	16.2734	161.92033	352.31911	375.10187	271.76578	35.80148	-69.16195	0
817	-52.07488	-7.32303	42.31084	29.29212	-47.19286	16.2734	165.17501	353.94645	375.10187	272.57945	34.17414	-68.34828	0
818	-52.88855	-13.83239	39.05616	32.5468	-45.56552	11.39138	165.98868	358.0148	375.91554	272.57945	28.47845	-68.34828	0
819	-52.07488	-20.34175	34.98781	34.98781	-41.49717	4.06835	166.80235	363.71049	379.17022	273.39312	21.15542	-70.78929	0
820	-49.63387	-22.78276	30.91946	34.98781	-38.24249	0.81367	167.61602	371.03352	385.67958	275.83413	15.45973	-72.41663	0
821	-45.56552	-18.71441	30.10579	30.91946	-35.80148	3.25468	170.05703	379.17022	393.81628	281.52982	13.01872	-72.41663	0
822	-42.31084	-12.20505	32.5468	26.03744	-35.80148	8.1367	173.31171	386.49325	401.95298	287.22551	16.2734	-69.97562	0
823	-40.6835	-4.88202	35.80148	21.96909	-37.42882	14.64606	177.38006	392.18894	407.64867	293.73487	23.59643	-65.0936	0
824	-39.86983	0	39.05616	19.52808	-39.05616	19.52808	182.26208	395.44362	411.71702	300.24423	34.17414	-57.77057	0
825	-40.6835	1.62734	42.31084	18.71441	-41.49717	21.96909	187.1441	397.88463	413.34436	305.93992	43.93818	-50.44754	0
826	-43.12451	1.62734	45.56552	20.34175	-44.75185	23.59643	193.65346	399.51197	414.15803	309.1946	49.63387	-45.56552	0
827	-45.56552	0	48.00653	23.59643	-48.00653	22.78276	198.53548	401.95298	413.34436	308.38093	48.00653	-44.75185	0
828	-47.19286	-4.88202	46.37919	27.66478	-48.8202	19.52808	201.79016	404.39399	412.53069	304.31258	41.49717	-47.19286	0
829	-47.19286	-8.95037	42.31084	29.29212	-45.56552	16.2734	202.60383	408.46234	413.34436	300.24423	31.73313	-52.07488	0
830	-45.56552	-11.39138	36.61515	30.10579	-40.6835	12.20505	202.60383	414.15803	416.59904	297.80322	22.78276	-57.77057	0
831	-44.75185	-11.39138	34.98781	28.47845	-39.05616	11.39138	200.97649	419.04005	421.48106	297.80322	16.2734	-62.65259	0
832	-45.56552	-6.50936	39.86983	26.03744	-40.6835	16.2734	200.16282	423.92207	426.36308	301.0579	15.45973	-64.27993	0
833	-48.00653	0.81367	49.63387	22.78276	-43.93818	25.22377	200.97649	427.99042	431.2451	306.75359	19.52808	-62.65259	0
834	-50.44754	9.76404	60.21158	19.52808	-48.8202	34.98781	202.60383	432.05877	435.31345	314.07662	27.66478	-58.58424	0
835	-52.88855	17.08707	68.34828	17.08707	-55.32956	42.31084	205.04484	435.31345	436.94079	319.77231	35.80148	-55.32956	0
836	-55.32956	20.34175	74.85764	16.2734	-61.83892	47.19286	205.85851	436.12712	436.94079	322.21332	40.6835	-54.51589	0
837	-58.58424	21.15542	78.92599	18.71441	-67.53461	49.63387	206.67218	437.75446	435.31345	322.21332	39.86983	-56.9569	0
838	-60.21158	18.71441	79.73966	21.15542	-70.78929	50.44754	206.67218	440.19547	435.31345	318.95864	34.17414	-61.02525	0
839	-61.02525	17.08707	77.29865	22.78276	-70.78929	49.63387	205.04484	445.07749	436.94079	315.70396	26.03744	-64.27993	0
840	-59.39791	15.45973	74.04397	22.78276	-67.53461	46.37919	202.60383	449.95951	439.3818	313.26295	17.08707	-67.53461	0
841	-57.77057	14.64606	69.16195	21.15542	-63.46626	43.12451	200.97649	455.6552	442.63648	311.63561	10.57771	-69.16195	0
842	-56.14323	15.45973	68.34828	19.52808	-61.02525	42.31084	200.97649	461.35089	446.70483	312.44928	8.95037	-68.34828	0
843	-55.32956	17.90074	70.78929	17.08707	-62.65259	44.75185	202.60383	467.04658	449.95951	315.70396	13.83239	-63.46626	0
844	-56.14323	22.78276	76.48498	15.45973	-65.90727	49.63387	205.85851	471.9286	453.21419	320.58598	22.78276	-56.9569	0
845	-56.9569	28.47845	83.80801	13.01872	-71.60296	56.14323	209.11319	475.18328	454.84153	325.468	32.5468	-52.07488	0
846	-59.39791	32.5468	91.13104	12.20505	-75.67131	61.83892	212.36787	477.62429	455.6552	328.72268	38.24249	-49.63387	0
847	-61.83892	34.98781	95.19939	11.39138	-79.73966	65.0936	213.99521	479.25163	455.6552	330.35002	39.05616	-51.26121	0
848	-64.27993	34.98781	96.01306	13.01872	-81.367	65.0936	214.80888	481.69264	455.6552	328.72268	33.36047	-55.32956	0
849	-65.0936	33.36047	93.57205	14.64606	-81.367	65.0936	214.80888	484.94732	457.28254	326.28167	24.4101	-61.83892	0
850	-64.27993	32.5468	91.94471	16.2734	-78.92599	63.46626	214.80888	489.82934	461.35089	324.65433	15.45973	-66.72094	0
851	-62.65259	32.5468	91.13104	14.64606	-76.48498	63.46626	215.62255	495.52503	466.23291	325.468	9.76404	-68.34828	0
852	-61.02525	34.17414	91.94471	12.20505	-74.04397	63.46626	216.43622	501.22072	471.11493	327.09534	8.95037	-66.72094	0
853	-58.58424	39.05616	93.57205	8.1367	-73.2303	65.90727	218.87723	506.10274	475.18328	331.16369	13.01872	-61.02525	0
854	-56.9569	44.75185	97.6404	3.25468	-74.85764	70.78929	221.31824	510.98476	478.43796	334.41837	19.52808	-53.70222	0
855	-56.9569	49.63387	102.52242	1.62734	-78.11232	75.67131	223.75925	513.42577	479.25163	337.67305	25.22377	-48.00653	0
856	-58.58424	52.88855	109.03178	0.81367	-82.99434	80.55333	226.20026	515.86678	478.43796	339.30039	28.47845	-46.37919	0
857	-61.83892	53.70222	116.35481	3.25468	-90.31737	83.80801	229.45494	517.49412	476.81062	338.48672	27.66478	-47.19286	0
858	-65.90727	52.07488	121.23683	6.50936	-96.82673	87.06269	231.89595	520.7488	475.99695	335.23204	21.96909	-50.44754	0
859	-67.53461	52.88855	123.67784	8.1367	-100.89508	88.69003	234.33696	525.63082	475.18328	331.16369	13.83239	-55.32956	0
860	-66.72094	55.32956	123.67784	6.50936	-100.08141	91.13104	235.15063	530.51284	476.81062	327.09534	4.88202	-61.02525	0
861	-62.65259	60.21158	122.86417	1.62734	-96.01306	92.75838	235.15063	534.58119	480.87897	323.84066	-3.25468	-65.0936	0
862	-59.39791	65.0936	124.49151	-0.81367	-93.57205	95.19939	235.15063	538.64954	484.13365	322.21332	-7.32303	-67.53461	0
863	-60.21158	70.78929	130.1872	-3.25468	-96.01306	100.89508	237.59164	543.53156	488.202	323.02699	-5.69569	-65.90727	0
864	-63.46626	75.67131	138.3239	-4.06835	-101.70875	107.40444	242.47366	550.04092	490.64301	326.28167	0	-61.02525	0
865	-67.53461	78.92599	144.83326	-4.88202	-106.59077	111.47279	246.54201	554.10927	490.64301	327.90901	5.69569	-56.14323	0
866	-70.78929	80.55333	150.52895	-4.06835	-110.65912	114.72747	249.79669	556.55028	488.202	326.28167	6.50936	-54.51589	0
867	-74.04397	80.55333	153.78363	-4.06835	-113.9138	117.16848	253.05137	558.99129	484.94732	322.21332	1.62734	-57.77057	0
868	-78.11232	80.55333	157.03831	-2.44101	-117.98215	117.98215	255.49238	560.61863	480.0653	314.89029	-6.50936	-62.65259	0
869	-82.18067	80.55333	160.29299	-1.62734	-122.0505	120.42316	257.93339	563.87331	476.81062	306.75359	-20.34175	-69.97562	0
870	-85.43535	82.18067	165.98868	-0.81367	-126.93252	124.49151	259.56073	567.94166	475.18328	297.80322	-34.17414	-76.48498	0
871	-88.69003	85.43535	173.31171	0	-131.81454	129.37353	261.18807	572.01001	473.55594	289.66652	-46.37919	-81.367	0
872	-89.5037	90.31737	181.44841	-0.81367	-136.69656	135.88289	262.81541	576.07836	471.11493	283.15716	-54.51589	-82.99434	0
873	-90.31737	96.82673	188.77144	-3.25468	-141.57858	143.20592	264.44275	577.7057	467.04658	276.6478	-58.58424	-80.55333	0
874	-91.13104	104.14976	196.09447	-6.50936	-144.83326	150.52895	266.88376	579.33304	461.35089	270.13844	-59.39791	-75.67131	0
875	-92.75838	110.65912	204.23117	-8.95037	-149.71528	157.85198	269.32477	579.33304	454.02786	263.62908	-58.58424	-72.41663	0
876	-96.82673	116.35481	213.99521	-9.76404	-156.22464	165.17501	270.95211	576.07836	443.45015	253.86504	-62.65259	-73.2303	0
877	-101.70875	119.60949	221.31824	-8.95037	-162.734	170.05703	272.57945	571.19634	429.61776	240.03265	-73.2303	-78.92599	0
878	-105.7771	120.42316	226.20026	-7.32303	-167.61602	173.31171	272.57945	565.50065	414.9717	222.94558	-89.5037	-87.87636	0
879	-110.65912	120.42316	229.45494	-5.69569	-170.8707	174.93905	270.95211	560.61863	401.13931	204.23117	-110.65912	-99.26774	0
880	-114.72747	119.60949	232.70962	-3.25468	-174.93905	175.75272	270.13844	556.55028	388.12059	185.51676	-131.81454	-110.65912	0
881	-117.98215	118.79582	235.15063	-0.81367	-177.38006	176.56639	267.69743	550.85459	375.91554	166.80235	-149.71528	-119.60949	0
882	-120.42316	118.79582	239.21898	0	-180.63474	178.19373	266.88376	544.34523	363.71049	151.34262	-162.734	-123.67784	0
883	-124.49151	119.60949	245.72834	0	-185.51676	180.63474	267.69743	537.0222	351.50544	137.51023	-169.24336	-122.0505	0
884	-127.74619	122.0505	252.2377	0	-190.39878	183.88942	269.32477	528.07183	336.85938	123.67784	-172.49804	-118.79582	0
885	-131.00087	123.67784	254.67871	0	-192.83979	186.33043	268.5111	515.05311	318.14497	107.40444	-177.38006	-117.98215	0
886	-135.88289	122.0505	256.30605	0.81367	-194.46713	187.95777	266.88376	499.59338	296.98955	88.69003	-184.70309	-119.60949	0
887	-139.95124	119.60949	257.11972	4.06835	-196.09447	187.1441	263.62908	484.94732	274.20679	68.34828	-196.90814	-123.67784	0
888	-142.39225	117.16848	256.30605	8.95037	-196.09447	185.51676	259.56073	469.48759	251.42403	44.75185	-213.99521	-131.00087	0
889	-143.20592	113.10013	253.05137	13.01872	-195.2808	182.26208	253.05137	454.02786	228.64127	18.71441	-235.15063	-141.57858	0
890	-143.20592	109.03178	248.98302	15.45973	-193.65346	178.19373	245.72834	438.56813	205.85851	-8.95037	-258.74706	-152.96996	0
891	-144.01959	105.7771	246.54201	17.08707	-193.65346	174.12538	237.59164	422.29473	183.88942	-35.80148	-280.71615	-164.36134	0
892	-144.01959	104.14976	244.91467	17.08707	-193.65346	172.49804	228.64127	405.20766	161.92033	-60.21158	-296.98955	-172.49804	0
893	-142.39225	103.33609	244.101	17.08707	-193.65346	172.49804	221.31824	388.12059	139.95124	-81.367	-307.56726	-175.75272	0
894	-141.57858	104.14976	244.101	17.08707	-193.65346	173.31171	215.62255	370.21985	117.98215	-100.08141	-312.44928	-174.93905	0
895	-139.95124	104.96343	242.47366	15.45973	-192.02612	173.31171	211.5542	350.69177	95.19939	-117.16848	-314.07662	-171.68437	0
896	-139.95124	104.14976	240.03265	14.64606	-188.77144	172.49804	207.48585	329.53635	70.78929	-135.06922	-318.14497	-169.24336	0
897	-140.76491	100.08141	235.15063	16.2734	-186.33043	167.61602	202.60383	307.56726	44.75185	-156.22464	-326.28167	-170.8707	0
898	-143.20592	90.31737	227.8276	22.78276	-184.70309	158.66565	196.09447	284.7845	18.71441	-180.63474	-340.11406	-175.75272	0
899	-146.4606	74.04397	217.24989	34.17414	-182.26208	145.64693	186.33043	259.56073	-7.32303	-206.67218	-358.0148	-183.88942	0
900	-147.27427	56.9569	204.23117	45.56552	-178.19373	130.1872	173.31171	233.52329	-34.17414	-233.52329	-376.72921	-194.46713	0
901	-146.4606	40.6835	188.77144	53.70222	-170.8707	114.72747	158.66565	207.48585	-59.39791	-257.11972	-391.37527	-202.60383	0
902	-143.20592	28.47845	174.12538	58.58424	-161.10666	100.89508	144.01959	181.44841	-82.18067	-275.83413	-398.6983	-206.67218	0
903	-139.13757	18.71441	160.29299	61.02525	-152.15629	89.5037	129.37353	155.41097	-102.52242	-288.85285	-396.25729	-205.85851	0
904	-133.44188	10.57771	144.83326	61.83892	-140.76491	77.29865	113.9138	130.1872	-122.0505	-299.43056	-388.93426	-201.79016	0
905	-124.49151	1.62734	126.11885	61.02525	-126.11885	63.46626	99.26774	104.14976	-140.76491	-306.75359	-379.17022	-196.90814	0
906	-115.54114	-8.95037	105.7771	61.83892	-110.65912	48.00653	85.43535	79.73966	-157.03831	-311.63561	-371.03352	-193.65346	0
907	-108.21811	-20.34175	86.24902	63.46626	-97.6404	31.73313	73.2303	56.9569	-170.8707	-315.70396	-365.33783	-192.83979	0
908	-102.52242	-31.73313	69.16195	66.72094	-87.06269	17.90074	61.02525	37.42882	-182.26208	-318.95864	-363.71049	-194.46713	0
909	-97.6404	-41.49717	52.88855	68.34828	-76.48498	4.88202	49.63387	19.52808	-190.39878	-320.58598	-362.89682	-196.90814	0
910	-92.75838	-51.26121	38.24249	70.78929	-66.72094	-5.69569	36.61515	3.25468	-194.46713	-320.58598	-360.45581	-198.53548	0
911	-87.87636	-61.02525	22.78276	73.2303	-56.14323	-18.71441	23.59643	-10.57771	-196.90814	-316.51763	-354.76012	-198.53548	0
912	-84.62168	-71.60296	8.1367	76.48498	-45.56552	-31.73313	11.39138	-25.22377	-196.90814	-309.1946	-343.36874	-196.09447	0
913	-82.99434	-82.18067	-2.44101	79.73966	-39.05616	-42.31084	3.25468	-39.05616	-196.09447	-300.24423	-326.28167	-190.39878	0
914	-81.367	-91.94471	-13.01872	84.62168	-33.36047	-52.88855	0	-52.88855	-195.2808	-289.66652	-306.75359	-181.44841	0
915	-82.18067	-101.70875	-21.96909	90.31737	-29.29212	-61.83892	0	-65.0936	-196.09447	-280.71615	-288.85285	-172.49804	0
916	-84.62168	-113.10013	-30.10579	97.6404	-26.85111	-71.60296	2.44101	-75.67131	-197.72181	-272.57945	-274.20679	-165.98868	0
917	-85.43535	-125.30518	-39.86983	104.96343	-22.78276	-82.99434	6.50936	-82.99434	-199.34915	-266.07009	-262.81541	-163.54767	0
918	-82.99434	-136.69656	-54.51589	109.03178	-15.45973	-96.01306	8.95037	-88.69003	-200.97649	-261.18807	-257.11972	-163.54767	0
919	-77.29865	-148.90161	-73.2303	112.28646	-3.25468	-110.65912	7.32303	-94.38572	-201.79016	-258.74706	-255.49238	-165.17501	0
920	-67.53461	-158.66565	-92.75838	113.9138	10.57771	-126.11885	2.44101	-99.26774	-200.97649	-255.49238	-255.49238	-166.80235	0
921	-54.51589	-165.98868	-113.10013	113.9138	27.66478	-139.13757	-5.69569	-104.14976	-197.72181	-251.42403	-253.05137	-166.80235	0
922	-41.49717	-170.8707	-130.1872	111.47279	43.12451	-150.52895	-13.83239	-109.03178	-194.46713	-246.54201	-247.35568	-164.36134	0
923	-33.36047	-174.12538	-142.39225	108.21811	53.70222	-157.85198	-19.52808	-113.10013	-191.21245	-240.03265	-237.59164	-160.29299	0
924	-28.47845	-174.93905	-147.27427	104.14976	59.39791	-161.92033	-19.52808	-116.35481	-187.95777	-232.70962	-225.38659	-153.78363	0
925	-24.4101	-174.93905	-148.08794	100.89508	63.46626	-163.54767	-15.45973	-121.23683	-186.33043	-225.38659	-211.5542	-146.4606	0
926	-22.78276	-172.49804	-144.83326	98.45407	64.27993	-161.92033	-7.32303	-125.30518	-185.51676	-218.87723	-199.34915	-140.76491	0
927	-21.15542	-165.98868	-140.76491	93.57205	64.27993	-156.22464	0.81367	-129.37353	-185.51676	-212.36787	-190.39878	-135.88289	0
928	-16.2734	-156.22464	-137.51023	85.43535	65.0936	-148.90161	2.44101	-134.25555	-185.51676	-207.48585	-184.70309	-131.00087	0
929	-8.1367	-145.64693	-137.51023	75.67131	66.72094	-142.39225	-7.32303	-140.76491	-184.70309	-205.04484	-183.88942	-127.74619	0
930	1.62734	-138.3239	-139.95124	67.53461	72.41663	-139.13757	-30.91946	-151.34262	-184.70309	-204.23117	-186.33043	-125.30518	0
931	11.39138	-134.25555	-143.20592	60.21158	80.55333	-138.3239	-61.02525	-163.54767	-186.33043	-205.04484	-188.77144	-124.49151	0
932	17.90074	-132.62821	-145.64693	56.14323	85.43535	-139.13757	-82.99434	-171.68437	-185.51676	-204.23117	-187.1441	-122.0505	0
933	17.08707	-131.81454	-145.64693	56.14323	83.80801	-139.13757	-91.13104	-174.12538	-183.07575	-200.16282	-181.44841	-117.98215	0
934	9.76404	-129.37353	-137.51023	56.9569	74.85764	-133.44188	-83.80801	-166.80235	-175.75272	-190.39878	-169.24336	-110.65912	0
935	-1.62734	-122.86417	-119.60949	58.58424	58.58424	-121.23683	-65.0936	-151.34262	-161.92033	-174.93905	-152.96996	-100.89508	0
936	-14.64606	-111.47279	-96.01306	60.21158	39.86983	-104.14976	-40.6835	-131.81454	-145.64693	-156.22464	-135.06922	-92.75838	0
937	-24.4101	-100.08141	-75.67131	60.21158	24.4101	-87.87636	-17.90074	-113.10013	-131.00087	-139.95124	-121.23683	-87.06269	0
938	-30.10579	-91.94471	-62.65259	60.21158	13.83239	-77.29865	-2.44101	-98.45407	-119.60949	-129.37353	-114.72747	-85.43535	0
939	-32.5468	-87.87636	-55.32956	59.39791	8.1367	-71.60296	4.88202	-86.24902	-109.84545	-122.0505	-113.10013	-84.62168	0
940	-31.73313	-84.62168	-52.07488	58.58424	7.32303	-68.34828	7.32303	-75.67131	-100.08141	-117.16848	-113.9138	-83.80801	0
941	-29.29212	-82.18067	-52.88855	56.9569	8.95037	-67.53461	5.69569	-67.53461	-91.13104	-112.28646	-115.54114	-81.367	0
942	-26.03744	-80.55333	-53.70222	53.70222	12.20505	-67.53461	3.25468	-61.83892	-83.80801	-107.40444	-114.72747	-77.29865	0
943	-23.59643	-78.92599	-54.51589	51.26121	13.83239	-66.72094	0.81367	-57.77057	-76.48498	-102.52242	-109.84545	-72.41663	0
944	-21.15542	-75.67131	-54.51589	48.8202	15.45973	-65.0936	0	-55.32956	-71.60296	-96.01306	-100.08141	-65.0936	0
945	-21.15542	-73.2303	-52.07488	47.19286	14.64606	-62.65259	0	-55.32956	-68.34828	-89.5037	-90.31737	-57.77057	0
946	-22.78276	-70.78929	-48.8202	47.19286	11.39138	-59.39791	-0.81367	-56.9569	-67.53461	-85.43535	-82.18067	-53.70222	0
947	-26.03744	-68.34828	-44.75185	48.00653	7.32303	-56.14323	-1.62734	-60.21158	-69.97562	-85.43535	-79.73966	-53.70222	0
948	-26.85111	-65.90727	-41.49717	46.37919	2.44101	-53.70222	-3.25468	-64.27993	-73.2303	-87.06269	-80.55333	-56.14323	0
949	-25.22377	-62.65259	-39.86983	43.12451	1.62734	-52.07488	-6.50936	-68.34828	-74.85764	-89.5037	-84.62168	-59.39791	0
950	-21.96909	-59.39791	-40.6835	39.86983	3.25468	-52.07488	-12.20505	-70.78929	-72.41663	-91.13104	-88.69003	-61.83892	0
951	-19.52808	-58.58424	-42.31084	38.24249	7.32303	-52.88855	-21.15542	-73.2303	-65.90727	-90.31737	-89.5037	-62.65259	0
952	-17.90074	-59.39791	-43.93818	37.42882	10.57771	-53.70222	-29.29212	-74.85764	-59.39791	-86.24902	-90.31737	-63.46626	0
953	-17.90074	-59.39791	-42.31084	38.24249	11.39138	-52.07488	-31.73313	-73.2303	-53.70222	-85.43535	-94.38572	-67.53461	0
954	-19.52808	-59.39791	-35.80148	40.6835	10.57771	-48.00653	-26.03744	-65.90727	-50.44754	-91.94471	-104.14976	-74.85764	0
955	-22.78276	-60.21158	-30.91946	43.93818	7.32303	-45.56552	-15.45973	-54.51589	-51.26121	-104.14976	-118.79582	-85.43535	0
956	-24.4101	-65.0936	-34.98781	47.19286	8.1367	-49.63387	-8.1367	-44.75185	-54.51589	-117.98215	-135.06922	-99.26774	0
957	-22.78276	-79.73966	-53.70222	50.44754	16.2734	-66.72094	-10.57771	-39.86983	-58.58424	-130.1872	-154.5973	-115.54114	0
958	-17.08707	-102.52242	-80.55333	54.51589	30.91946	-90.31737	-19.52808	-40.6835	-66.72094	-139.95124	-172.49804	-130.1872	0
959	-7.32303	-122.0505	-104.14976	56.9569	44.75185	-109.84545	-26.03744	-44.75185	-78.11232	-146.4606	-187.95777	-143.20592	0
960	1.62734	-131.00087	-121.23683	57.77057	57.77057	-121.23683	-27.66478	-56.14323	-87.87636	-150.52895	-199.34915	-150.52895	0
961	8.95037	-126.93252	-126.93252	54.51589	65.0936	-122.86417	-30.10579	-95.19939	-113.10013	-160.29299	-203.4175	-147.27427	0
962	14.64606	-112.28646	-121.23683	46.37919	65.90727	-114.72747	-48.00653	-196.09447	-194.46713	-198.53548	-205.04484	-132.62821	0
963	21.15542	-93.57205	-112.28646	34.17414	65.90727	-101.70875	-98.45407	-382.4249	-362.89682	-288.03918	-209.92686	-108.21811	0
964	30.10579	-72.41663	-102.52242	19.52808	65.0936	-87.06269	-183.07575	-633.84893	-605.37048	-424.73574	-218.06356	-74.04397	0
965	39.86983	-48.00653	-89.5037	2.44101	64.27993	-69.16195	-286.41184	-900.73269	-873.88158	-581.77405	-222.94558	-29.29212	0
966	51.26121	-17.90074	-70.78929	-17.08707	61.83892	-44.75185	-396.25729	-1150.52938	-1127.74662	-729.04832	-216.43622	23.59643	0
967	62.65259	19.52808	-43.93818	-41.49717	56.9569	-12.20505	-507.73008	-1378.35698	-1349.87853	-851.09882	-196.09447	83.80801	0
968	78.11232	64.27993	-15.45973	-72.41663	51.26121	23.59643	-613.50718	-1581.77448	-1537.8363	-943.04353	-161.92033	146.4606	0
969	103.33609	113.9138	8.1367	-109.84545	50.44754	60.21158	-704.63822	-1751.83151	-1685.11057	-1004.88245	-116.35481	213.99521	0
970	140.76491	166.80235	23.59643	-154.5973	60.21158	94.38572	-779.49586	-1882.83238	-1790.074	-1039.05659	-56.14323	289.66652	0
971	192.02612	217.24989	22.78276	-205.85851	85.43535	119.60949	-847.84414	-1970.70874	-1860.04962	-1054.51632	17.90074	374.2882	0
972	258.74706	257.93339	-2.44101	-258.74706	131.00087	126.93252	-923.51545	-2021.15628	-1902.36046	-1057.771	109.03178	469.48759	0
973	339.30039	283.15716	-57.77057	-311.63561	197.72181	112.28646	-1006.50979	-2048.00739	-1908.86982	-1042.31127	221.31824	576.89203	0
974	432.87244	296.98955	-136.69656	-365.33783	283.97083	79.73966	-1093.57248	-2044.75271	-1862.49063	-990.23639	361.26948	697.31519	0
975	538.64954	303.49891	-234.33696	-421.48106	385.67958	34.17414	-1190.39921	-2013.83325	-1761.59555	-887.71397	538.64954	832.38441	0
976	653.37701	301.0579	-352.31911	-477.62429	502.03439	-25.22377	-1294.54897	-1965.01305	-1620.83064	-737.18502	749.39007	978.84501	0
977	765.66347	285.59817	-467.04658	-521.56247	626.5259	-90.31737	-1388.93469	-1895.8511	-1459.72398	-562.24597	978.03134	1123.67827	0
978	851.91249	266.07009	-545.97257	-545.1589	733.11667	-139.95124	-1451.58728	-1803.90639	-1298.61732	-377.54288	1218.06399	1262.00217	0
979	885.27296	238.40531	-586.65607	-546.78624	781.1232	-169.24336	-1468.67435	-1702.19764	-1161.92076	-194.46713	1471.92903	1379.17065	0
980	847.03047	208.29952	-570.38267	-524.00348	746.13539	-168.42969	-1423.9225	-1607.81192	-1070.78972	-38.24249	1705.45232	1455.65563	0
981	745.32172	187.95777	-495.52503	-472.74227	644.42664	-136.69656	-1318.1454	-1518.30822	-1024.41053	61.83892	1852.72659	1497.1528	0
