samplenr	I	II	III	aVR	aVL	aVF	V1	V2	V3	V4	V5	V6	measurement
0	-1.62734	0.81367	3.25468	0	-2.44101	2.44101	0.81367	-1.62734	-5.69569	-5.69569	-4.06835	-2.44101	0
1	-9.76404	4.88202	15.45973	2.44101	-13.01872	9.76404	4.06835	-9.76404	-23.59643	-25.22377	-17.08707	-13.01872	0
2	-21.96909	8.95037	32.5468	4.88202	-28.47845	21.15542	8.1367	-19.52808	-48.8202	-50.44754	-34.17414	-25.22377	0
3	-35.80148	11.39138	48.00653	6.50936	-43.12451	29.29212	12.20505	-30.10579	-69.97562	-71.60296	-48.8202	-34.17414	0
4	-41.49717	11.39138	53.70222	7.32303	-48.8202	34.17414	13.01872	-37.42882	-84.62168	-85.43535	-58.58424	-40.6835	0
5	-38.24249	11.39138	50.44754	6.50936	-44.75185	33.36047	11.39138	-42.31084	-91.94471	-92.75838	-63.46626	-44.75185	0
6	-30.91946	9.76404	44.75185	6.50936	-37.42882	30.10579	8.1367	-44.75185	-94.38572	-93.57205	-64.27993	-47.19286	0
7	-25.22377	8.95037	40.6835	7.32303	-32.5468	26.85111	6.50936	-44.75185	-92.75838	-91.94471	-63.46626	-47.19286	0
8	-23.59643	11.39138	38.24249	8.95037	-29.29212	25.22377	7.32303	-43.12451	-88.69003	-88.69003	-61.83892	-46.37919	0
9	-26.03744	13.83239	37.42882	10.57771	-29.29212	26.03744	7.32303	-41.49717	-85.43535	-85.43535	-59.39791	-44.75185	0
10	-28.47845	14.64606	39.86983	10.57771	-31.73313	26.85111	7.32303	-39.86983	-82.99434	-82.18067	-56.9569	-43.93818	0
11	-30.10579	15.45973	42.31084	9.76404	-34.98781	28.47845	8.95037	-39.05616	-81.367	-79.73966	-54.51589	-42.31084	0
12	-30.91946	14.64606	43.12451	8.95037	-36.61515	28.47845	8.95037	-38.24249	-79.73966	-78.11232	-52.88855	-41.49717	0
13	-30.91946	13.83239	40.6835	8.1367	-34.98781	26.85111	8.1367	-39.05616	-79.73966	-76.48498	-52.07488	-40.6835	0
14	-29.29212	12.20505	37.42882	8.1367	-32.5468	23.59643	7.32303	-39.86983	-79.73966	-75.67131	-52.07488	-40.6835	0
15	-26.03744	10.57771	32.5468	6.50936	-28.47845	20.34175	6.50936	-40.6835	-78.11232	-73.2303	-51.26121	-40.6835	0
16	-21.15542	9.76404	27.66478	4.88202	-25.22377	17.90074	5.69569	-41.49717	-76.48498	-70.78929	-50.44754	-39.86983	0
17	-17.90074	8.95037	25.22377	3.25468	-23.59643	16.2734	4.88202	-41.49717	-74.04397	-68.34828	-49.63387	-39.86983	0
18	-17.08707	9.76404	25.22377	3.25468	-24.4101	16.2734	4.88202	-39.05616	-69.97562	-64.27993	-46.37919	-38.24249	0
19	-18.71441	10.57771	27.66478	3.25468	-26.03744	17.08707	5.69569	-36.61515	-65.0936	-60.21158	-43.12451	-36.61515	0
20	-21.15542	11.39138	30.10579	4.06835	-28.47845	18.71441	7.32303	-33.36047	-61.83892	-56.14323	-39.05616	-34.98781	0
21	-22.78276	10.57771	31.73313	4.88202	-29.29212	19.52808	8.95037	-31.73313	-59.39791	-52.88855	-35.80148	-33.36047	0
22	-22.78276	8.1367	29.29212	6.50936	-27.66478	17.90074	9.76404	-31.73313	-57.77057	-50.44754	-34.98781	-33.36047	0
23	-21.96909	5.69569	24.4101	5.69569	-22.78276	14.64606	9.76404	-32.5468	-56.9569	-49.63387	-34.17414	-33.36047	0
24	-19.52808	4.06835	18.71441	4.88202	-17.90074	11.39138	9.76404	-34.17414	-56.9569	-48.00653	-34.17414	-34.17414	0
25	-17.90074	1.62734	15.45973	5.69569	-15.45973	8.95037	9.76404	-34.17414	-54.51589	-45.56552	-33.36047	-34.17414	0
26	-18.71441	0	17.90074	8.1367	-17.90074	8.95037	10.57771	-32.5468	-49.63387	-41.49717	-30.10579	-33.36047	0
27	-21.96909	0	22.78276	11.39138	-24.4101	11.39138	12.20505	-27.66478	-43.93818	-35.80148	-25.22377	-30.91946	0
28	-26.85111	0	27.66478	14.64606	-31.73313	14.64606	15.45973	-21.96909	-37.42882	-30.10579	-20.34175	-28.47845	0
29	-30.10579	0.81367	31.73313	15.45973	-35.80148	17.90074	17.08707	-17.90074	-33.36047	-25.22377	-16.2734	-26.03744	0
30	-30.91946	2.44101	32.5468	15.45973	-34.98781	18.71441	17.08707	-15.45973	-30.91946	-22.78276	-13.83239	-23.59643	0
31	-30.10579	4.06835	31.73313	13.01872	-32.5468	18.71441	16.2734	-13.83239	-30.10579	-21.15542	-13.01872	-22.78276	0
32	-26.85111	4.06835	28.47845	10.57771	-28.47845	16.2734	14.64606	-13.01872	-28.47845	-20.34175	-13.83239	-22.78276	0
33	-22.78276	3.25468	26.03744	8.1367	-25.22377	14.64606	13.83239	-13.01872	-27.66478	-19.52808	-13.01872	-23.59643	0
34	-17.90074	1.62734	22.78276	5.69569	-21.15542	13.01872	12.20505	-13.83239	-26.85111	-18.71441	-13.01872	-24.4101	0
35	-13.01872	0.81367	17.90074	3.25468	-16.2734	10.57771	11.39138	-14.64606	-25.22377	-17.90074	-12.20505	-26.03744	0
36	-8.1367	1.62734	13.01872	1.62734	-11.39138	8.1367	11.39138	-13.83239	-22.78276	-16.2734	-11.39138	-26.03744	0
37	-4.88202	4.06835	7.32303	-1.62734	-8.1367	5.69569	12.20505	-12.20505	-19.52808	-13.83239	-10.57771	-26.03744	0
38	-1.62734	8.95037	2.44101	-8.1367	-6.50936	5.69569	14.64606	-8.95037	-16.2734	-11.39138	-8.95037	-25.22377	0
39	1.62734	16.2734	2.44101	-12.20505	-5.69569	8.95037	18.71441	-4.06835	-11.39138	-7.32303	-4.88202	-21.96909	0
40	2.44101	25.22377	12.20505	-13.83239	-9.76404	17.90074	25.22377	1.62734	-4.88202	0	0.81367	-17.08707	0
41	0	33.36047	28.47845	-15.45973	-18.71441	30.10579	34.17414	10.57771	3.25468	8.1367	9.76404	-8.95037	0
42	-2.44101	39.86983	45.56552	-17.90074	-27.66478	41.49717	42.31084	17.90074	11.39138	17.90074	18.71441	-0.81367	0
43	-2.44101	45.56552	56.9569	-21.15542	-31.73313	49.63387	47.19286	22.78276	17.08707	23.59643	25.22377	4.06835	0
44	-0.81367	50.44754	62.65259	-24.4101	-31.73313	53.70222	48.8202	24.4101	20.34175	28.47845	28.47845	8.1367	0
45	0.81367	55.32956	64.27993	-28.47845	-30.10579	56.14323	48.8202	25.22377	23.59643	31.73313	30.10579	11.39138	0
46	4.88202	60.21158	62.65259	-33.36047	-26.85111	58.58424	48.00653	26.03744	27.66478	34.17414	31.73313	13.01872	0
47	8.95037	65.90727	58.58424	-39.05616	-24.4101	61.02525	48.00653	26.85111	31.73313	35.80148	34.17414	13.83239	0
48	11.39138	71.60296	56.14323	-44.75185	-23.59643	62.65259	49.63387	28.47845	34.17414	38.24249	35.80148	13.83239	0
49	11.39138	76.48498	57.77057	-48.8202	-24.4101	65.90727	52.88855	31.73313	37.42882	40.6835	38.24249	14.64606	0
50	10.57771	79.73966	63.46626	-48.8202	-28.47845	70.78929	55.32956	36.61515	41.49717	44.75185	41.49717	16.2734	0
51	8.95037	82.99434	70.78929	-48.00653	-32.5468	74.85764	59.39791	43.12451	47.19286	50.44754	45.56552	19.52808	0
52	7.32303	86.24902	75.67131	-48.00653	-34.98781	78.92599	63.46626	51.26121	53.70222	55.32956	50.44754	22.78276	0
53	7.32303	88.69003	78.11232	-48.00653	-34.98781	81.367	65.0936	56.9569	59.39791	60.21158	53.70222	24.4101	0
54	10.57771	91.13104	77.29865	-50.44754	-33.36047	82.18067	64.27993	62.65259	64.27993	64.27993	56.9569	26.03744	0
55	14.64606	91.94471	74.85764	-53.70222	-29.29212	82.18067	62.65259	65.90727	69.16195	67.53461	58.58424	27.66478	0
56	18.71441	91.94471	70.78929	-55.32956	-25.22377	79.73966	57.77057	68.34828	72.41663	70.78929	61.02525	28.47845	0
57	21.15542	89.5037	67.53461	-56.14323	-22.78276	77.29865	52.07488	68.34828	74.85764	73.2303	61.83892	27.66478	0
58	21.96909	86.24902	65.90727	-54.51589	-21.15542	74.04397	46.37919	67.53461	75.67131	74.85764	62.65259	26.85111	0
59	21.15542	82.99434	65.90727	-52.07488	-21.96909	72.41663	41.49717	65.0936	75.67131	74.85764	62.65259	26.85111	0
60	20.34175	79.73966	65.0936	-48.8202	-23.59643	70.78929	36.61515	61.02525	73.2303	74.85764	62.65259	26.85111	0
61	20.34175	74.85764	61.02525	-46.37919	-22.78276	66.72094	29.29212	53.70222	67.53461	72.41663	61.83892	26.03744	0
62	21.15542	69.16195	52.07488	-44.75185	-17.08707	60.21158	18.71441	43.93818	61.02525	69.97562	58.58424	23.59643	0
63	23.59643	65.0936	42.31084	-45.56552	-9.76404	53.70222	7.32303	33.36047	54.51589	66.72094	56.14323	21.15542	0
64	26.85111	62.65259	33.36047	-46.37919	-2.44101	48.00653	-2.44101	23.59643	50.44754	62.65259	56.14323	21.96909	0
65	30.10579	61.02525	27.66478	-45.56552	0.81367	44.75185	-12.20505	16.2734	48.00653	61.02525	56.14323	22.78276	0
66	30.10579	61.02525	27.66478	-45.56552	0.81367	43.93818	-18.71441	10.57771	48.8202	61.83892	56.9569	26.03744	0
67	30.10579	65.0936	32.5468	-48.00653	-0.81367	48.8202	-20.34175	9.76404	52.07488	65.0936	61.02525	30.10579	0
68	33.36047	73.2303	36.61515	-53.70222	-2.44101	55.32956	-20.34175	11.39138	56.14323	70.78929	65.90727	35.80148	0
69	41.49717	82.18067	39.05616	-63.46626	0	61.83892	-19.52808	13.83239	59.39791	77.29865	72.41663	40.6835	0
70	51.26121	91.13104	40.6835	-73.2303	3.25468	67.53461	-18.71441	15.45973	61.83892	82.99434	77.29865	46.37919	0
71	59.39791	98.45407	41.49717	-81.367	7.32303	71.60296	-17.08707	18.71441	64.27993	87.87636	82.18067	49.63387	0
72	67.53461	102.52242	37.42882	-86.24902	13.01872	70.78929	-13.83239	21.96909	66.72094	92.75838	87.06269	52.07488	0
73	74.04397	100.08141	26.85111	-88.69003	22.78276	64.27993	-10.57771	24.4101	68.34828	96.01306	89.5037	52.88855	0
74	78.92599	93.57205	11.39138	-87.87636	33.36047	52.88855	-8.95037	26.03744	69.97562	97.6404	91.13104	52.07488	0
75	81.367	87.06269	-0.81367	-85.43535	42.31084	41.49717	-7.32303	27.66478	70.78929	98.45407	90.31737	51.26121	0
76	81.367	79.73966	-6.50936	-81.367	44.75185	34.98781	-6.50936	29.29212	73.2303	99.26774	91.13104	50.44754	0
77	74.85764	72.41663	-4.06835	-75.67131	39.86983	34.17414	-1.62734	32.5468	75.67131	100.08141	91.13104	49.63387	0
78	61.83892	65.90727	4.06835	-66.72094	27.66478	36.61515	4.06835	35.80148	77.29865	100.08141	90.31737	48.00653	0
79	47.19286	61.02525	13.01872	-56.9569	14.64606	39.86983	9.76404	39.05616	77.29865	98.45407	87.87636	45.56552	0
80	34.17414	56.14323	19.52808	-47.19286	4.06835	40.6835	14.64606	39.05616	74.04397	93.57205	82.18067	39.05616	0
81	22.78276	48.00653	22.78276	-36.61515	-2.44101	37.42882	17.08707	36.61515	68.34828	86.24902	74.04397	30.91946	0
82	12.20505	36.61515	22.78276	-25.22377	-7.32303	30.91946	17.08707	32.5468	60.21158	77.29865	63.46626	20.34175	0
83	1.62734	23.59643	21.15542	-13.01872	-10.57771	22.78276	16.2734	26.85111	52.88855	69.16195	53.70222	10.57771	0
84	-9.76404	11.39138	19.52808	-0.81367	-15.45973	15.45973	16.2734	22.78276	46.37919	62.65259	45.56552	1.62734	0
85	-21.96909	0	20.34175	10.57771	-21.15542	9.76404	17.08707	20.34175	42.31084	56.9569	38.24249	-5.69569	0
86	-30.91946	-8.95037	20.34175	19.52808	-26.03744	4.88202	17.08707	17.90074	39.05616	51.26121	31.73313	-14.64606	0
87	-34.98781	-15.45973	18.71441	25.22377	-26.85111	1.62734	17.08707	15.45973	34.98781	45.56552	24.4101	-22.78276	0
88	-32.5468	-20.34175	16.2734	28.47845	-24.4101	0	16.2734	13.01872	31.73313	39.86983	18.71441	-29.29212	0
89	-30.91946	-21.96909	13.01872	29.29212	-21.96909	-1.62734	16.2734	11.39138	28.47845	35.80148	15.45973	-33.36047	0
90	-32.5468	-23.59643	11.39138	30.10579	-21.15542	-0.81367	15.45973	11.39138	26.85111	33.36047	13.83239	-34.98781	0
91	-39.05616	-24.4101	12.20505	33.36047	-22.78276	0	14.64606	10.57771	26.85111	32.5468	13.83239	-34.98781	0
92	-44.75185	-23.59643	15.45973	34.98781	-26.03744	1.62734	13.01872	8.95037	25.22377	32.5468	13.83239	-34.17414	0
93	-43.12451	-22.78276	13.83239	33.36047	-25.22377	0	10.57771	5.69569	24.4101	32.5468	13.83239	-34.98781	0
94	-35.80148	-23.59643	8.1367	28.47845	-19.52808	-5.69569	7.32303	1.62734	22.78276	32.5468	13.01872	-39.05616	0
95	-28.47845	-24.4101	1.62734	23.59643	-13.83239	-13.01872	4.06835	-0.81367	22.78276	33.36047	12.20505	-43.93818	0
96	-23.59643	-26.03744	-1.62734	20.34175	-10.57771	-17.08707	2.44101	-2.44101	23.59643	34.17414	12.20505	-48.00653	0
97	-22.78276	-26.03744	-1.62734	20.34175	-9.76404	-17.90074	2.44101	-1.62734	24.4101	34.98781	11.39138	-51.26121	0
98	-25.22377	-26.03744	0.81367	21.96909	-11.39138	-15.45973	4.88202	0	26.03744	34.98781	10.57771	-53.70222	0
99	-29.29212	-25.22377	5.69569	23.59643	-14.64606	-13.01872	7.32303	0.81367	26.03744	34.98781	9.76404	-54.51589	0
100	-31.73313	-24.4101	8.1367	24.4101	-19.52808	-9.76404	8.95037	1.62734	25.22377	34.17414	8.95037	-54.51589	1000	P+0
101	-31.73313	-21.96909	8.95037	24.4101	-22.78276	-7.32303	8.95037	0.81367	23.59643	33.36047	7.32303	-53.70222	0
102	-30.91946	-21.15542	9.76404	25.22377	-24.4101	-5.69569	8.1367	-0.81367	21.96909	30.91946	5.69569	-54.51589	0
103	-30.10579	-21.96909	9.76404	26.85111	-24.4101	-6.50936	6.50936	-4.88202	19.52808	27.66478	3.25468	-55.32956	0
104	-29.29212	-26.03744	4.88202	28.47845	-21.96909	-9.76404	4.06835	-8.95037	15.45973	23.59643	0	-56.9569	0
105	-26.03744	-34.17414	-6.50936	30.91946	-13.01872	-20.34175	0.81367	-14.64606	9.76404	17.90074	-4.88202	-61.83892	0
106	-18.71441	-48.8202	-28.47845	34.17414	2.44101	-39.05616	-5.69569	-24.4101	-2.44101	6.50936	-15.45973	-72.41663	0
107	-9.76404	-68.34828	-58.58424	39.05616	23.59643	-61.02525	-16.2734	-39.86983	-23.59643	-11.39138	-31.73313	-85.43535	0
108	-1.62734	-87.87636	-86.24902	43.93818	41.49717	-78.92599	-28.47845	-61.83892	-52.07488	-35.80148	-51.26121	-96.82673	0
109	0	-99.26774	-100.89508	48.00653	51.26121	-89.5037	-39.05616	-83.80801	-80.55333	-59.39791	-65.90727	-104.14976	0
110	1.62734	-96.01306	-101.70875	43.93818	53.70222	-90.31737	-42.31084	-100.08141	-102.52242	-74.85764	-69.97562	-104.96343	0
111	1.62734	-79.73966	-90.31737	34.17414	50.44754	-79.73966	-30.10579	-100.08141	-117.16848	-82.99434	-63.46626	-96.82673	0
112	2.44101	-58.58424	-70.78929	24.4101	40.6835	-61.83892	8.1367	-72.41663	-122.86417	-83.80801	-48.00653	-81.367	0
113	3.25468	-39.05616	-49.63387	17.08707	29.29212	-43.93818	78.11232	-15.45973	-122.0505	-79.73966	-30.10579	-63.46626	0
114	5.69569	-27.66478	-34.17414	13.01872	18.71441	-30.91946	175.75272	54.51589	-123.67784	-78.11232	-15.45973	-47.19286	0
115	7.32303	-17.08707	-21.15542	8.1367	11.39138	-19.52808	283.15716	113.10013	-135.06922	-82.99434	-4.88202	-30.91946	0
116	14.64606	2.44101	-7.32303	-5.69569	8.1367	-2.44101	371.03352	125.30518	-162.734	-92.75838	7.32303	-6.50936	0
117	32.5468	41.49717	11.39138	-35.80148	8.1367	25.22377	407.64867	55.32956	-219.6909	-108.21811	26.03744	30.10579	0
118	56.14323	98.45407	43.93818	-77.29865	4.88202	69.97562	374.2882	-114.72747	-312.44928	-133.44188	49.63387	80.55333	0
119	81.367	175.75272	95.19939	-129.37353	-7.32303	134.25555	270.13844	-370.21985	-435.31345	-162.734	78.92599	143.20592	0
120	103.33609	271.76578	164.36134	-191.21245	-28.47845	217.24989	104.14976	-677.78711	-568.75533	-186.33043	117.98215	218.06356	0
121	120.42316	384.86591	249.79669	-261.18807	-56.9569	316.51763	-104.96343	-998.37309	-695.68785	-194.46713	173.31171	306.75359	0
122	133.44188	510.17109	356.38746	-332.79103	-101.70875	432.87244	-331.16369	-1295.36264	-802.27862	-184.70309	243.28733	406.835	0
123	133.44188	641.98563	490.64301	-396.25729	-170.8707	566.31432	-544.34523	-1542.71832	-877.94993	-163.54767	318.14497	508.54375	0
124	113.10013	769.73182	645.24031	-447.5185	-261.18807	707.8929	-733.11667	-1732.30343	-924.32912	-139.13757	388.12059	602.1158	0
125	78.92599	879.57727	793.32825	-482.50631	-354.76012	836.45276	-879.57727	-1856.79494	-947.11188	-110.65912	448.33217	681.04179	0
126	43.93818	946.29821	899.10535	-497.15237	-426.36308	922.70178	-969.08097	-1901.54679	-939.78885	-74.04397	493.89769	734.74401	0
127	19.52808	953.62124	933.27949	-487.38833	-457.28254	943.04353	-1010.57814	-1850.28558	-884.45929	-22.78276	523.18981	753.45842	0
128	8.1367	897.47801	889.34131	-453.21419	-441.00914	893.40966	-999.18676	-1698.12929	-776.24118	39.05616	532.14018	731.48933	0
129	8.95037	784.37788	776.24118	-397.07096	-384.05224	779.49586	-920.26077	-1457.28297	-624.89856	100.89508	510.17109	663.95472	0
130	13.01872	631.40792	620.01654	-322.21332	-303.49891	624.08489	-783.56421	-1156.22507	-451.58685	147.27427	456.46887	556.55028	0
131	15.45973	468.67392	454.84153	-242.47366	-219.6909	460.53722	-611.87984	-835.63909	-272.57945	180.63474	382.4249	429.61776	0
132	15.45973	322.21332	307.56726	-169.24336	-146.4606	314.07662	-436.94079	-534.58119	-104.96343	208.29952	310.00827	310.00827	0
133	15.45973	204.23117	188.77144	-109.84545	-87.06269	196.09447	-283.97083	-283.15716	38.24249	235.15063	253.05137	211.5542	0
134	16.2734	114.72747	99.26774	-65.0936	-42.31084	106.59077	-166.80235	-96.01306	149.71528	258.74706	214.80888	139.95124	0
135	17.08707	54.51589	39.05616	-35.80148	-11.39138	46.37919	-86.24902	29.29212	227.8276	279.08881	192.83979	92.75838	0
136	17.08707	20.34175	8.95037	-18.71441	4.88202	12.20505	-34.98781	107.40444	279.08881	296.17588	185.51676	67.53461	0
137	11.39138	5.69569	0	-8.95037	7.32303	0	-1.62734	155.41097	312.44928	310.00827	185.51676	56.9569	0
138	1.62734	0.81367	0	-1.62734	0.81367	0	19.52808	187.1441	333.6047	319.77231	188.77144	55.32956	0
139	-7.32303	0	4.88202	2.44101	-7.32303	2.44101	34.98781	210.74053	348.25076	325.468	192.02612	56.9569	0
140	-13.83239	-1.62734	9.76404	6.50936	-13.01872	4.06835	45.56552	227.01393	357.20113	327.09534	192.02612	57.77057	0
141	-17.08707	-5.69569	8.1367	10.57771	-13.83239	1.62734	52.88855	238.40531	362.08315	327.09534	189.58511	56.9569	0
142	-16.2734	-12.20505	0	11.39138	-8.1367	-4.88202	55.32956	244.91467	362.89682	324.65433	185.51676	54.51589	0
143	-13.01872	-17.90074	-9.76404	12.20505	0.81367	-13.01872	55.32956	248.16935	362.08315	323.02699	182.26208	52.07488	0
144	-7.32303	-22.78276	-19.52808	12.20505	10.57771	-20.34175	54.51589	253.05137	361.26948	322.21332	181.44841	50.44754	0
145	-2.44101	-26.85111	-28.47845	14.64606	17.90074	-28.47845	53.70222	257.11972	361.26948	320.58598	179.0074	47.19286	0
146	0.81367	-31.73313	-39.05616	17.08707	23.59643	-38.24249	53.70222	261.18807	362.89682	317.3313	174.12538	41.49717	0
147	3.25468	-35.80148	-46.37919	18.71441	26.85111	-44.75185	56.14323	265.25642	364.52416	313.26295	169.24336	35.80148	0
148	5.69569	-39.05616	-49.63387	18.71441	27.66478	-48.00653	60.21158	269.32477	366.96517	310.82194	166.80235	31.73313	0
149	6.50936	-39.86983	-48.8202	17.08707	27.66478	-48.8202	62.65259	273.39312	369.40618	310.82194	166.80235	29.29212	0
150	6.50936	-39.05616	-46.37919	15.45973	26.03744	-46.37919	65.0936	277.46147	371.03352	312.44928	169.24336	27.66478	0
151	7.32303	-36.61515	-43.12451	13.83239	24.4101	-43.12451	66.72094	280.71615	372.66086	312.44928	170.8707	26.03744	0
152	8.1367	-34.17414	-40.6835	12.20505	24.4101	-39.86983	68.34828	284.7845	373.47453	311.63561	170.05703	24.4101	0
153	8.95037	-32.5468	-39.86983	11.39138	24.4101	-37.42882	69.16195	287.22551	373.47453	310.00827	168.42969	23.59643	0
154	7.32303	-33.36047	-39.86983	12.20505	23.59643	-36.61515	68.34828	288.85285	372.66086	305.93992	165.17501	22.78276	0
155	4.06835	-37.42882	-43.12451	15.45973	23.59643	-37.42882	67.53461	288.03918	370.21985	301.0579	159.47932	22.78276	0
156	0.81367	-41.49717	-45.56552	18.71441	21.96909	-39.86983	68.34828	288.85285	367.77884	296.98955	156.22464	22.78276	0
157	-1.62734	-44.75185	-46.37919	21.96909	20.34175	-43.93818	69.97562	290.48019	366.96517	295.36221	156.22464	24.4101	0
158	-1.62734	-46.37919	-47.19286	24.4101	21.15542	-48.00653	72.41663	292.9212	367.77884	296.17588	157.03831	26.03744	0
159	0	-46.37919	-50.44754	24.4101	23.59643	-50.44754	74.85764	295.36221	367.77884	297.80322	158.66565	29.29212	0
160	1.62734	-46.37919	-54.51589	22.78276	26.03744	-52.07488	75.67131	296.17588	367.77884	298.61689	161.10666	31.73313	0
161	2.44101	-47.19286	-56.9569	21.96909	26.85111	-53.70222	75.67131	295.36221	366.96517	300.24423	162.734	33.36047	0
162	2.44101	-48.8202	-57.77057	21.96909	27.66478	-54.51589	74.04397	293.73487	364.52416	298.61689	161.10666	31.73313	0
163	3.25468	-51.26121	-58.58424	21.96909	29.29212	-55.32956	70.78929	291.29386	361.26948	293.73487	155.41097	26.03744	0
164	4.06835	-51.26121	-58.58424	21.96909	30.10579	-55.32956	67.53461	288.85285	357.20113	286.41184	147.27427	18.71441	0
165	4.06835	-50.44754	-56.9569	21.96909	30.10579	-53.70222	65.0936	287.22551	354.76012	281.52982	139.95124	11.39138	0
166	4.06835	-48.00653	-54.51589	20.34175	29.29212	-51.26121	62.65259	288.03918	354.76012	278.27514	133.44188	7.32303	0
167	3.25468	-45.56552	-52.07488	19.52808	26.85111	-48.00653	62.65259	290.48019	355.57379	275.83413	130.1872	5.69569	0
168	4.06835	-42.31084	-50.44754	17.90074	24.4101	-46.37919	64.27993	292.9212	356.38746	274.20679	126.93252	6.50936	0
169	4.88202	-40.6835	-48.00653	16.2734	22.78276	-45.56552	65.90727	294.54854	357.20113	273.39312	126.11885	9.76404	0
170	4.88202	-39.86983	-46.37919	16.2734	21.15542	-44.75185	67.53461	296.17588	357.20113	273.39312	126.93252	14.64606	0
171	1.62734	-42.31084	-43.93818	18.71441	18.71441	-43.93818	71.60296	296.17588	355.57379	273.39312	131.00087	21.15542	0
172	-1.62734	-45.56552	-42.31084	23.59643	16.2734	-43.12451	76.48498	297.80322	354.76012	274.20679	135.06922	26.85111	0
173	-5.69569	-48.8202	-40.6835	27.66478	13.83239	-43.12451	81.367	298.61689	353.13278	275.02046	139.13757	30.91946	0
174	-8.95037	-51.26121	-40.6835	30.10579	13.83239	-44.75185	84.62168	298.61689	352.31911	275.83413	140.76491	30.91946	0
175	-11.39138	-53.70222	-42.31084	31.73313	14.64606	-47.19286	85.43535	298.61689	352.31911	275.02046	141.57858	29.29212	0
176	-14.64606	-55.32956	-42.31084	33.36047	13.83239	-48.00653	84.62168	299.43056	352.31911	273.39312	140.76491	27.66478	0
177	-13.83239	-56.14323	-43.93818	33.36047	15.45973	-49.63387	83.80801	299.43056	351.50544	270.13844	138.3239	26.03744	0
178	-5.69569	-56.14323	-51.26121	29.29212	23.59643	-54.51589	80.55333	297.80322	349.06443	265.25642	134.25555	26.03744	0
179	6.50936	-56.14323	-61.83892	21.96909	34.98781	-58.58424	77.29865	295.36221	345.80975	261.18807	131.81454	26.03744	0
180	17.08707	-55.32956	-69.16195	15.45973	43.12451	-61.83892	75.67131	292.9212	342.55507	258.74706	131.81454	26.03744	0
181	19.52808	-53.70222	-70.78929	13.83239	43.93818	-61.83892	74.85764	292.10753	339.30039	257.11972	132.62821	26.03744	0
182	15.45973	-52.07488	-69.16195	16.2734	39.05616	-58.58424	74.04397	291.29386	337.67305	256.30605	133.44188	26.85111	0
183	11.39138	-49.63387	-65.0936	17.90074	34.17414	-54.51589	73.2303	288.85285	334.41837	254.67871	131.00087	25.22377	0
184	10.57771	-48.8202	-60.21158	18.71441	31.73313	-51.26121	71.60296	286.41184	331.16369	251.42403	126.93252	21.15542	0
185	11.39138	-48.8202	-57.77057	17.90074	30.91946	-50.44754	69.97562	284.7845	329.53635	248.16935	122.86417	17.08707	0
186	13.01872	-48.00653	-56.14323	17.08707	31.73313	-49.63387	69.16195	284.7845	327.90901	244.91467	118.79582	11.39138	0
187	12.20505	-46.37919	-54.51589	17.08707	30.91946	-49.63387	68.34828	284.7845	327.09534	241.65999	115.54114	6.50936	0
188	12.20505	-44.75185	-52.88855	15.45973	30.91946	-48.00653	66.72094	284.7845	324.65433	238.40531	112.28646	2.44101	0
189	13.01872	-43.12451	-54.51589	11.39138	34.17414	-48.00653	65.0936	284.7845	320.58598	234.33696	109.84545	1.62734	0
190	15.45973	-41.49717	-57.77057	6.50936	40.6835	-49.63387	63.46626	283.97083	316.51763	231.08228	108.21811	1.62734	0
191	17.08707	-42.31084	-61.83892	4.88202	45.56552	-51.26121	65.0936	281.52982	312.44928	227.8276	106.59077	3.25468	0
192	16.2734	-46.37919	-65.0936	8.95037	45.56552	-52.88855	68.34828	279.90248	308.38093	224.57292	104.14976	3.25468	0
193	8.95037	-53.70222	-63.46626	17.90074	39.86983	-54.51589	71.60296	277.46147	305.12625	222.13191	100.89508	3.25468	0
194	-3.25468	-60.21158	-58.58424	29.29212	29.29212	-54.51589	74.04397	275.83413	305.12625	220.50457	98.45407	3.25468	0
195	-11.39138	-65.0936	-54.51589	36.61515	21.96909	-54.51589	75.67131	277.46147	305.12625	218.87723	95.19939	1.62734	0
196	-14.64606	-69.16195	-54.51589	40.6835	18.71441	-56.9569	76.48498	279.08881	304.31258	213.99521	89.5037	-1.62734	0
197	-14.64606	-70.78929	-56.14323	41.49717	19.52808	-60.21158	74.85764	277.46147	300.24423	206.67218	82.99434	-8.1367	0
198	-13.01872	-71.60296	-59.39791	41.49717	21.96909	-63.46626	73.2303	275.02046	294.54854	199.34915	76.48498	-14.64606	0
199	-12.20505	-71.60296	-63.46626	40.6835	26.03744	-67.53461	72.41663	270.95211	288.03918	192.02612	70.78929	-19.52808	0
200	-11.39138	-72.41663	-67.53461	39.86983	29.29212	-70.78929	70.78929	266.88376	281.52982	185.51676	66.72094	-21.96909	0
201	-8.95037	-73.2303	-69.16195	39.86983	30.91946	-71.60296	69.16195	264.44275	276.6478	180.63474	63.46626	-24.4101	0
202	-6.50936	-74.85764	-69.97562	40.6835	31.73313	-73.2303	69.16195	261.18807	272.57945	176.56639	61.02525	-27.66478	0
203	-4.06835	-77.29865	-74.04397	41.49717	34.17414	-76.48498	68.34828	259.56073	267.69743	171.68437	57.77057	-30.91946	0
204	0	-79.73966	-80.55333	40.6835	39.86983	-82.18067	66.72094	257.11972	262.00174	164.36134	51.26121	-34.98781	0
205	7.32303	-80.55333	-87.87636	36.61515	49.63387	-87.87636	63.46626	254.67871	254.67871	156.22464	43.12451	-39.86983	0
206	13.01872	-81.367	-95.19939	33.36047	56.9569	-91.94471	59.39791	251.42403	247.35568	148.08794	33.36047	-45.56552	0
207	14.64606	-82.18067	-99.26774	31.73313	60.21158	-93.57205	56.9569	247.35568	240.03265	139.95124	26.03744	-51.26121	0
208	11.39138	-82.18067	-95.19939	32.5468	55.32956	-90.31737	56.14323	243.28733	232.70962	133.44188	21.15542	-54.51589	0
209	4.06835	-80.55333	-87.06269	36.61515	47.19286	-83.80801	59.39791	241.65999	227.01393	128.55986	19.52808	-53.70222	0
210	-2.44101	-80.55333	-78.11232	42.31084	38.24249	-77.29865	63.46626	242.47366	222.94558	125.30518	19.52808	-51.26121	0
211	-8.1367	-80.55333	-72.41663	47.19286	30.91946	-72.41663	68.34828	243.28733	218.87723	122.0505	18.71441	-47.19286	0
212	-11.39138	-81.367	-69.97562	48.8202	27.66478	-72.41663	70.78929	243.28733	213.99521	117.16848	18.71441	-44.75185	0
213	-10.57771	-83.80801	-73.2303	48.00653	30.10579	-75.67131	72.41663	240.84632	208.29952	112.28646	18.71441	-44.75185	0
214	-8.1367	-86.24902	-78.92599	47.19286	34.17414	-80.55333	71.60296	237.59164	201.79016	107.40444	17.90074	-45.56552	0
215	-4.88202	-90.31737	-87.06269	47.19286	40.6835	-85.43535	68.34828	231.89595	193.65346	101.70875	16.2734	-48.00653	0
216	-2.44101	-94.38572	-93.57205	47.19286	45.56552	-90.31737	64.27993	225.38659	184.70309	93.57205	13.01872	-51.26121	0
217	-0.81367	-97.6404	-97.6404	48.8202	48.00653	-93.57205	60.21158	218.06356	174.93905	83.80801	6.50936	-56.14323	0
218	-1.62734	-99.26774	-98.45407	50.44754	48.00653	-95.19939	59.39791	211.5542	165.17501	73.2303	0	-61.02525	0
219	-4.06835	-101.70875	-97.6404	53.70222	46.37919	-97.6404	60.21158	206.67218	155.41097	61.02525	-9.76404	-65.90727	0
220	-8.1367	-105.7771	-96.01306	56.9569	43.93818	-100.89508	60.21158	202.60383	144.83326	48.8202	-21.15542	-71.60296	0
221	-10.57771	-110.65912	-93.57205	60.21158	42.31084	-104.14976	60.21158	198.53548	132.62821	35.80148	-34.17414	-78.92599	0
222	-11.39138	-113.9138	-91.94471	62.65259	43.12451	-105.7771	58.58424	192.83979	119.60949	21.96909	-47.19286	-86.24902	1500	QRS+0
223	-14.64606	-115.54114	-91.13104	64.27993	41.49717	-105.7771	56.9569	186.33043	107.40444	8.95037	-58.58424	-92.75838	0
224	-19.52808	-117.16848	-90.31737	67.53461	38.24249	-104.96343	55.32956	179.82107	96.01306	-1.62734	-67.53461	-97.6404	0
225	-26.03744	-118.79582	-89.5037	71.60296	33.36047	-104.96343	55.32956	174.12538	85.43535	-13.01872	-75.67131	-101.70875	0
226	-31.73313	-121.23683	-88.69003	75.67131	29.29212	-105.7771	55.32956	167.61602	74.04397	-24.4101	-82.99434	-105.7771	0
227	-34.98781	-123.67784	-88.69003	78.11232	26.85111	-106.59077	53.70222	161.92033	62.65259	-36.61515	-90.31737	-108.21811	0
228	-33.36047	-123.67784	-88.69003	77.29865	28.47845	-107.40444	51.26121	154.5973	50.44754	-48.8202	-97.6404	-110.65912	0
229	-28.47845	-121.23683	-90.31737	74.04397	30.91946	-107.40444	47.19286	145.64693	37.42882	-61.02525	-104.96343	-112.28646	0
230	-26.03744	-117.98215	-91.94471	70.78929	31.73313	-105.7771	43.93818	136.69656	23.59643	-72.41663	-110.65912	-113.10013	0
231	-25.22377	-116.35481	-90.31737	69.97562	30.91946	-103.33609	39.86983	127.74619	8.95037	-83.80801	-117.16848	-113.10013	0
232	-26.85111	-116.35481	-87.06269	70.78929	29.29212	-102.52242	38.24249	118.79582	-5.69569	-96.01306	-122.86417	-114.72747	0
233	-30.10579	-117.98215	-83.80801	73.2303	25.22377	-102.52242	38.24249	110.65912	-19.52808	-108.21811	-128.55986	-116.35481	0
234	-32.5468	-121.23683	-81.367	74.85764	21.15542	-102.52242	39.86983	104.14976	-31.73313	-118.79582	-135.88289	-118.79582	0
235	-34.17414	-124.49151	-82.18067	77.29865	20.34175	-104.14976	39.86983	96.82673	-44.75185	-131.81454	-144.83326	-122.86417	0
236	-30.10579	-126.93252	-87.87636	76.48498	26.85111	-108.21811	36.61515	86.24902	-60.21158	-147.27427	-157.03831	-131.00087	0
237	-21.96909	-128.55986	-94.38572	73.2303	39.05616	-112.28646	32.5468	74.04397	-78.11232	-165.17501	-172.49804	-141.57858	0
238	-17.08707	-129.37353	-99.26774	70.78929	46.37919	-114.72747	30.10579	61.02525	-96.82673	-182.26208	-187.1441	-155.41097	0
239	-18.71441	-129.37353	-100.89508	70.78929	46.37919	-115.54114	27.66478	48.8202	-113.10013	-196.90814	-199.34915	-168.42969	0
240	-21.15542	-127.74619	-100.08141	72.41663	43.12451	-113.9138	25.22377	36.61515	-128.55986	-209.11319	-209.11319	-179.82107	0
241	-24.4101	-126.11885	-97.6404	73.2303	38.24249	-110.65912	21.96909	24.4101	-144.01959	-218.87723	-216.43622	-186.33043	0
242	-30.10579	-124.49151	-92.75838	75.67131	31.73313	-107.40444	16.2734	12.20505	-157.85198	-228.64127	-221.31824	-189.58511	0
243	-36.61515	-123.67784	-87.06269	79.73966	23.59643	-104.14976	12.20505	0.81367	-171.68437	-238.40531	-223.75925	-187.95777	0
244	-43.12451	-122.86417	-81.367	82.18067	17.90074	-100.89508	8.1367	-9.76404	-184.70309	-248.98302	-226.20026	-183.88942	0
245	-47.19286	-122.86417	-77.29865	83.80801	13.83239	-99.26774	4.88202	-20.34175	-196.90814	-259.56073	-228.64127	-179.0074	0
246	-49.63387	-122.0505	-74.85764	84.62168	12.20505	-97.6404	0.81367	-30.91946	-208.29952	-269.32477	-231.08228	-173.31171	0
247	-53.70222	-121.23683	-73.2303	86.24902	11.39138	-95.19939	-1.62734	-39.86983	-219.6909	-279.90248	-234.33696	-168.42969	0
248	-56.14323	-121.23683	-71.60296	87.06269	9.76404	-92.75838	-4.88202	-48.8202	-231.08228	-289.66652	-239.21898	-163.54767	0
249	-55.32956	-121.23683	-70.78929	87.87636	9.76404	-93.57205	-7.32303	-57.77057	-241.65999	-300.24423	-244.91467	-160.29299	0
250	-50.44754	-121.23683	-74.85764	87.06269	13.83239	-96.82673	-8.95037	-67.53461	-252.2377	-310.00827	-249.79669	-157.85198	0
251	-45.56552	-122.0505	-80.55333	85.43535	20.34175	-101.70875	-10.57771	-77.29865	-263.62908	-319.77231	-253.86504	-156.22464	0
252	-42.31084	-123.67784	-86.24902	82.99434	24.4101	-105.7771	-13.01872	-87.06269	-274.20679	-327.09534	-256.30605	-154.5973	0
253	-40.6835	-125.30518	-88.69003	82.18067	25.22377	-107.40444	-16.2734	-97.6404	-283.97083	-332.79103	-257.93339	-153.78363	0
254	-40.6835	-126.11885	-87.06269	82.99434	22.78276	-106.59077	-21.15542	-107.40444	-292.10753	-336.04571	-258.74706	-152.96996	0
255	-41.49717	-126.93252	-81.367	85.43535	17.08707	-104.14976	-27.66478	-119.60949	-301.87157	-340.11406	-260.3744	-152.15629	0
256	-43.93818	-125.30518	-74.85764	87.06269	11.39138	-100.08141	-35.80148	-132.62821	-311.63561	-344.18241	-262.81541	-152.15629	0
257	-44.75185	-118.79582	-68.34828	83.80801	8.1367	-94.38572	-43.12451	-145.64693	-321.39965	-347.43709	-264.44275	-152.15629	0
258	-44.75185	-109.84545	-63.46626	78.11232	5.69569	-86.24902	-49.63387	-157.03831	-329.53635	-350.69177	-266.07009	-154.5973	0
259	-45.56552	-100.89508	-56.9569	73.2303	2.44101	-78.11232	-52.07488	-165.98868	-335.23204	-355.57379	-270.13844	-157.03831	0
260	-46.37919	-93.57205	-50.44754	69.16195	-2.44101	-69.97562	-52.88855	-172.49804	-340.92773	-362.08315	-274.20679	-160.29299	0
261	-45.56552	-87.87636	-43.93818	65.90727	-5.69569	-65.0936	-53.70222	-177.38006	-346.62342	-371.03352	-279.90248	-163.54767	0
262	-43.12451	-85.43535	-38.24249	63.46626	-4.88202	-63.46626	-55.32956	-182.26208	-351.50544	-378.35655	-284.7845	-166.80235	0
263	-42.31084	-84.62168	-34.17414	62.65259	-5.69569	-62.65259	-57.77057	-186.33043	-353.94645	-382.4249	-286.41184	-167.61602	0
264	-42.31084	-85.43535	-33.36047	62.65259	-7.32303	-61.83892	-58.58424	-188.77144	-356.38746	-384.05224	-284.7845	-165.98868	0
265	-42.31084	-86.24902	-35.80148	63.46626	-8.1367	-63.46626	-59.39791	-193.65346	-358.0148	-382.4249	-281.52982	-161.92033	0
266	-41.49717	-87.06269	-41.49717	63.46626	-5.69569	-65.0936	-64.27993	-199.34915	-361.26948	-379.17022	-278.27514	-158.66565	0
267	-38.24249	-86.24902	-46.37919	61.02525	-2.44101	-66.72094	-69.97562	-205.85851	-362.89682	-375.91554	-275.83413	-155.41097	0
268	-34.98781	-83.80801	-48.00653	58.58424	0	-65.90727	-75.67131	-209.92686	-362.08315	-371.84719	-272.57945	-151.34262	0
269	-34.98781	-80.55333	-45.56552	56.9569	0	-63.46626	-78.92599	-213.18154	-360.45581	-367.77884	-267.69743	-146.4606	0
270	-37.42882	-77.29865	-39.86983	56.14323	-1.62734	-59.39791	-78.11232	-213.18154	-356.38746	-362.08315	-262.00174	-140.76491	0
271	-41.49717	-74.85764	-33.36047	57.77057	-5.69569	-54.51589	-74.85764	-210.74053	-349.8781	-354.76012	-255.49238	-134.25555	0
272	-47.19286	-74.04397	-26.03744	60.21158	-11.39138	-50.44754	-69.16195	-205.04484	-342.55507	-347.43709	-247.35568	-128.55986	0
273	-52.07488	-73.2303	-21.96909	62.65259	-15.45973	-47.19286	-62.65259	-199.34915	-336.04571	-340.11406	-240.03265	-123.67784	0
274	-54.51589	-73.2303	-23.59643	65.0936	-15.45973	-45.56552	-58.58424	-196.09447	-331.97736	-335.23204	-234.33696	-122.0505	0
275	-54.51589	-74.85764	-26.03744	66.72094	-12.20505	-47.19286	-56.14323	-195.2808	-328.72268	-330.35002	-231.89595	-123.67784	0
276	-55.32956	-75.67131	-25.22377	66.72094	-9.76404	-47.19286	-56.9569	-195.2808	-325.468	-325.468	-230.26861	-125.30518	0
277	-54.51589	-73.2303	-21.96909	64.27993	-8.95037	-45.56552	-60.21158	-196.09447	-322.21332	-320.58598	-230.26861	-127.74619	0
278	-48.8202	-65.90727	-18.71441	56.9569	-10.57771	-41.49717	-65.0936	-196.90814	-318.14497	-315.70396	-230.26861	-129.37353	0
279	-39.86983	-56.9569	-15.45973	47.19286	-12.20505	-37.42882	-68.34828	-195.2808	-314.89029	-311.63561	-228.64127	-131.00087	0
280	-34.17414	-49.63387	-12.20505	40.6835	-13.83239	-32.5468	-67.53461	-189.58511	-310.82194	-305.12625	-224.57292	-130.1872	0
281	-32.5468	-45.56552	-8.1367	39.05616	-16.2734	-28.47845	-60.21158	-179.82107	-305.12625	-296.17588	-217.24989	-125.30518	0
282	-32.5468	-44.75185	-4.06835	40.6835	-20.34175	-26.03744	-49.63387	-168.42969	-296.98955	-284.7845	-207.48585	-117.16848	0
283	-34.98781	-46.37919	-4.88202	42.31084	-21.15542	-26.85111	-38.24249	-158.66565	-289.66652	-275.02046	-197.72181	-111.47279	0
284	-37.42882	-48.8202	-10.57771	43.93818	-20.34175	-30.91946	-30.10579	-151.34262	-283.15716	-266.07009	-191.21245	-108.21811	0
285	-38.24249	-52.07488	-16.2734	43.93818	-17.08707	-34.98781	-25.22377	-144.01959	-276.6478	-258.74706	-187.1441	-107.40444	0
286	-37.42882	-53.70222	-19.52808	44.75185	-13.83239	-36.61515	-24.4101	-137.51023	-268.5111	-252.2377	-184.70309	-107.40444	0
287	-37.42882	-53.70222	-20.34175	43.93818	-12.20505	-36.61515	-25.22377	-131.81454	-261.18807	-245.72834	-183.07575	-106.59077	0
288	-37.42882	-51.26121	-18.71441	43.12451	-12.20505	-33.36047	-26.03744	-126.11885	-252.2377	-238.40531	-179.0074	-103.33609	0
289	-36.61515	-45.56552	-14.64606	39.86983	-13.83239	-27.66478	-27.66478	-121.23683	-243.28733	-229.45494	-172.49804	-96.82673	0
290	-33.36047	-38.24249	-9.76404	34.98781	-13.83239	-22.78276	-28.47845	-115.54114	-234.33696	-218.87723	-162.734	-88.69003	0
291	-30.10579	-31.73313	-4.06835	30.10579	-13.83239	-17.08707	-30.10579	-109.03178	-223.75925	-205.85851	-151.34262	-79.73966	0
292	-27.66478	-25.22377	0	26.03744	-15.45973	-12.20505	-32.5468	-101.70875	-213.99521	-193.65346	-139.13757	-71.60296	0
293	-27.66478	-19.52808	5.69569	23.59643	-17.90074	-8.1367	-31.73313	-93.57205	-204.23117	-183.07575	-128.55986	-65.0936	0
294	-30.91946	-14.64606	12.20505	22.78276	-21.96909	-2.44101	-29.29212	-84.62168	-195.2808	-174.93905	-119.60949	-61.02525	-1500	QRS-0
295	-34.17414	-13.01872	17.08707	23.59643	-26.03744	0	-26.03744	-75.67131	-185.51676	-167.61602	-113.9138	-59.39791	0
296	-37.42882	-13.83239	20.34175	26.03744	-29.29212	1.62734	-23.59643	-66.72094	-177.38006	-161.92033	-111.47279	-58.58424	0
297	-39.86983	-17.08707	20.34175	28.47845	-30.91946	0.81367	-21.15542	-61.02525	-171.68437	-157.03831	-109.03178	-60.21158	0
298	-37.42882	-19.52808	16.2734	27.66478	-27.66478	-1.62734	-21.96909	-58.58424	-169.24336	-152.15629	-107.40444	-63.46626	0
299	-31.73313	-21.15542	10.57771	25.22377	-21.15542	-5.69569	-23.59643	-59.39791	-167.61602	-149.71528	-105.7771	-67.53461	0
300	-28.47845	-21.15542	8.1367	23.59643	-18.71441	-7.32303	-23.59643	-59.39791	-165.17501	-146.4606	-105.7771	-70.78929	0
301	-30.91946	-20.34175	10.57771	24.4101	-21.15542	-6.50936	-17.90074	-55.32956	-159.47932	-143.20592	-105.7771	-74.04397	0
302	-34.17414	-18.71441	16.2734	26.03744	-26.03744	-3.25468	-9.76404	-48.00653	-151.34262	-137.51023	-105.7771	-74.85764	0
303	-38.24249	-17.08707	20.34175	26.85111	-30.10579	0	0	-39.86983	-143.20592	-131.81454	-103.33609	-74.04397	0
304	-40.6835	-18.71441	22.78276	28.47845	-33.36047	0.81367	9.76404	-31.73313	-134.25555	-123.67784	-97.6404	-69.16195	0
305	-42.31084	-21.96909	23.59643	30.10579	-35.80148	0	17.90074	-23.59643	-126.11885	-114.72747	-89.5037	-61.83892	0
306	-42.31084	-26.85111	21.15542	33.36047	-35.80148	-2.44101	22.78276	-17.08707	-118.79582	-108.21811	-83.80801	-53.70222	0
307	-43.12451	-31.73313	16.2734	39.05616	-32.5468	-7.32303	25.22377	-13.01872	-114.72747	-104.14976	-80.55333	-48.00653	0
308	-45.56552	-35.80148	14.64606	44.75185	-33.36047	-9.76404	26.03744	-10.57771	-111.47279	-100.89508	-78.11232	-43.93818	0
309	-48.8202	-35.80148	20.34175	48.8202	-41.49717	-6.50936	26.03744	-8.95037	-107.40444	-98.45407	-74.85764	-39.86983	0
310	-52.88855	-30.91946	26.85111	48.8202	-50.44754	0.81367	26.03744	-7.32303	-103.33609	-94.38572	-69.97562	-34.98781	0
311	-53.70222	-21.96909	32.5468	42.31084	-52.88855	9.76404	24.4101	-5.69569	-101.70875	-90.31737	-65.90727	-31.73313	0
312	-48.8202	-13.01872	32.5468	32.5468	-47.19286	13.83239	20.34175	-6.50936	-100.89508	-88.69003	-65.0936	-32.5468	0
313	-41.49717	-6.50936	24.4101	22.78276	-33.36047	13.01872	13.83239	-7.32303	-101.70875	-87.87636	-66.72094	-35.80148	0
314	-32.5468	-2.44101	17.08707	15.45973	-20.34175	12.20505	8.1367	-8.1367	-102.52242	-87.87636	-68.34828	-39.05616	0
315	-26.03744	0	13.83239	10.57771	-15.45973	11.39138	4.88202	-8.1367	-103.33609	-86.24902	-68.34828	-40.6835	0
316	-24.4101	-0.81367	16.2734	10.57771	-17.08707	11.39138	4.06835	-7.32303	-102.52242	-85.43535	-66.72094	-42.31084	0
317	-26.85111	-2.44101	19.52808	13.01872	-21.15542	10.57771	6.50936	-5.69569	-100.89508	-84.62168	-65.0936	-43.12451	0
318	-30.91946	-5.69569	22.78276	17.08707	-26.03744	8.95037	10.57771	-4.06835	-99.26774	-83.80801	-63.46626	-43.93818	0
319	-35.80148	-8.1367	25.22377	21.15542	-30.10579	8.1367	13.83239	-3.25468	-99.26774	-83.80801	-61.83892	-45.56552	0
320	-39.86983	-8.1367	27.66478	24.4101	-32.5468	8.95037	16.2734	-2.44101	-98.45407	-85.43535	-61.02525	-44.75185	0
321	-41.49717	-7.32303	29.29212	25.22377	-34.17414	9.76404	17.90074	0	-97.6404	-86.24902	-61.02525	-43.93818	0
322	-40.6835	-8.1367	30.91946	25.22377	-34.98781	9.76404	19.52808	2.44101	-96.01306	-87.06269	-61.02525	-41.49717	0
323	-38.24249	-8.95037	30.91946	24.4101	-34.17414	8.95037	21.15542	5.69569	-94.38572	-87.87636	-61.02525	-38.24249	0
324	-35.80148	-9.76404	28.47845	22.78276	-31.73313	7.32303	21.96909	8.1367	-93.57205	-88.69003	-61.83892	-35.80148	0
325	-36.61515	-10.57771	27.66478	21.96909	-31.73313	6.50936	21.96909	9.76404	-93.57205	-89.5037	-62.65259	-34.17414	0
326	-39.86983	-12.20505	28.47845	21.96909	-34.17414	7.32303	23.59643	10.57771	-93.57205	-89.5037	-63.46626	-33.36047	0
327	-43.93818	-13.83239	31.73313	24.4101	-39.05616	8.1367	26.03744	8.95037	-94.38572	-88.69003	-62.65259	-32.5468	0
328	-47.19286	-13.83239	34.17414	26.03744	-42.31084	9.76404	29.29212	7.32303	-95.19939	-87.06269	-61.83892	-32.5468	0
329	-51.26121	-11.39138	38.24249	27.66478	-45.56552	13.01872	31.73313	4.88202	-94.38572	-82.99434	-58.58424	-31.73313	0
330	-53.70222	-7.32303	43.93818	27.66478	-49.63387	17.90074	32.5468	4.06835	-94.38572	-79.73966	-56.14323	-30.91946	0
331	-50.44754	-1.62734	47.19286	25.22377	-49.63387	21.96909	30.91946	2.44101	-94.38572	-77.29865	-55.32956	-30.10579	0
332	-40.6835	2.44101	45.56552	21.96909	-45.56552	21.96909	26.03744	0	-96.01306	-77.29865	-58.58424	-30.10579	0
333	-29.29212	4.06835	43.12451	16.2734	-40.6835	18.71441	21.15542	-1.62734	-98.45407	-79.73966	-61.02525	-30.91946	0
334	-24.4101	4.06835	39.86983	13.83239	-38.24249	15.45973	21.15542	-2.44101	-100.08141	-80.55333	-61.02525	-32.5468	0
335	-27.66478	0.81367	37.42882	15.45973	-37.42882	13.83239	23.59643	-2.44101	-100.08141	-78.92599	-57.77057	-33.36047	0
336	-34.98781	-2.44101	34.98781	21.15542	-38.24249	11.39138	26.85111	-0.81367	-97.6404	-77.29865	-54.51589	-34.17414	0
337	-42.31084	-7.32303	33.36047	26.03744	-39.86983	8.95037	30.10579	0	-96.01306	-74.85764	-52.07488	-34.98781	0
338	-48.00653	-11.39138	32.5468	30.10579	-40.6835	8.1367	34.17414	2.44101	-96.01306	-73.2303	-50.44754	-35.80148	0
339	-53.70222	-13.83239	32.5468	33.36047	-41.49717	9.76404	36.61515	3.25468	-96.01306	-72.41663	-50.44754	-37.42882	0
340	-56.9569	-13.01872	34.98781	34.17414	-43.93818	13.83239	34.98781	2.44101	-95.19939	-74.85764	-50.44754	-39.86983	0
341	-54.51589	-8.95037	39.05616	30.10579	-45.56552	17.90074	29.29212	1.62734	-96.01306	-77.29865	-51.26121	-40.6835	0
342	-49.63387	-3.25468	43.12451	24.4101	-46.37919	22.78276	21.96909	0	-96.01306	-77.29865	-49.63387	-39.86983	0
343	-43.12451	1.62734	45.56552	17.90074	-44.75185	26.03744	17.08707	0	-96.82673	-76.48498	-48.00653	-36.61515	0
344	-37.42882	5.69569	44.75185	13.01872	-42.31084	26.85111	16.2734	0.81367	-96.82673	-75.67131	-45.56552	-31.73313	0
345	-31.73313	7.32303	39.86983	10.57771	-38.24249	24.4101	17.90074	4.06835	-95.19939	-74.85764	-43.93818	-26.03744	0
346	-26.03744	4.06835	32.5468	10.57771	-33.36047	18.71441	20.34175	5.69569	-94.38572	-74.04397	-43.93818	-21.15542	0
347	-22.78276	-2.44101	23.59643	14.64606	-28.47845	9.76404	23.59643	3.25468	-96.01306	-73.2303	-43.93818	-17.90074	0
348	-21.96909	-11.39138	15.45973	19.52808	-23.59643	0.81367	24.4101	0	-96.82673	-72.41663	-44.75185	-17.08707	0
349	-23.59643	-18.71441	8.95037	22.78276	-20.34175	-4.88202	25.22377	-5.69569	-98.45407	-71.60296	-46.37919	-17.90074	0
350	-25.22377	-21.96909	7.32303	25.22377	-19.52808	-7.32303	26.03744	-8.1367	-99.26774	-71.60296	-48.00653	-18.71441	0
351	-27.66478	-20.34175	10.57771	25.22377	-21.96909	-4.88202	27.66478	-7.32303	-99.26774	-72.41663	-49.63387	-20.34175	0
352	-30.10579	-13.83239	16.2734	21.15542	-24.4101	0.81367	26.85111	-4.88202	-98.45407	-74.85764	-52.07488	-21.96909	0
353	-31.73313	-6.50936	22.78276	17.08707	-27.66478	7.32303	25.22377	-0.81367	-96.01306	-75.67131	-53.70222	-21.15542	0
354	-33.36047	-2.44101	28.47845	14.64606	-30.91946	13.01872	24.4101	1.62734	-91.13104	-73.2303	-50.44754	-19.52808	0
355	-37.42882	-0.81367	33.36047	13.83239	-34.17414	15.45973	24.4101	5.69569	-85.43535	-66.72094	-44.75185	-17.90074	0
356	-40.6835	-2.44101	34.98781	15.45973	-35.80148	15.45973	24.4101	7.32303	-81.367	-60.21158	-37.42882	-17.08707	0
357	-40.6835	-4.88202	34.98781	17.08707	-35.80148	13.01872	23.59643	6.50936	-78.11232	-55.32956	-30.91946	-17.08707	0
358	-38.24249	-8.95037	31.73313	18.71441	-33.36047	9.76404	22.78276	4.88202	-77.29865	-51.26121	-26.85111	-18.71441	0
359	-34.17414	-13.01872	25.22377	20.34175	-29.29212	5.69569	23.59643	4.06835	-76.48498	-48.8202	-24.4101	-21.96909	0
360	-31.73313	-16.2734	17.08707	21.96909	-23.59643	0	25.22377	3.25468	-76.48498	-47.19286	-22.78276	-25.22377	0
361	-30.10579	-18.71441	11.39138	22.78276	-19.52808	-3.25468	26.85111	4.06835	-75.67131	-44.75185	-21.15542	-26.03744	0
362	-28.47845	-18.71441	8.95037	22.78276	-18.71441	-4.06835	29.29212	4.88202	-74.04397	-42.31084	-18.71441	-22.78276	0
363	-26.85111	-16.2734	8.95037	21.15542	-18.71441	-3.25468	30.10579	6.50936	-71.60296	-39.05616	-15.45973	-16.2734	0
364	-25.22377	-13.01872	10.57771	17.90074	-18.71441	-0.81367	29.29212	8.95037	-69.16195	-35.80148	-11.39138	-9.76404	0
365	-22.78276	-8.1367	12.20505	14.64606	-18.71441	2.44101	26.85111	12.20505	-68.34828	-34.98781	-9.76404	-5.69569	0
366	-19.52808	-2.44101	12.20505	9.76404	-17.90074	6.50936	24.4101	13.83239	-67.53461	-36.61515	-12.20505	-4.06835	0
367	-15.45973	1.62734	10.57771	4.88202	-16.2734	8.1367	21.96909	15.45973	-66.72094	-39.86983	-17.08707	-5.69569	0
368	-11.39138	4.06835	9.76404	0	-13.83239	7.32303	20.34175	16.2734	-65.0936	-42.31084	-21.15542	-8.1367	0
369	-8.95037	4.88202	8.95037	-2.44101	-13.01872	5.69569	20.34175	15.45973	-63.46626	-43.12451	-26.03744	-12.20505	0
370	-8.95037	5.69569	11.39138	-4.06835	-13.01872	6.50936	22.78276	16.2734	-60.21158	-39.86983	-27.66478	-16.2734	0
371	-8.95037	8.1367	16.2734	-4.88202	-14.64606	10.57771	25.22377	19.52808	-55.32956	-34.17414	-26.85111	-18.71441	0
372	-8.1367	13.83239	21.15542	-6.50936	-16.2734	16.2734	30.10579	26.03744	-49.63387	-26.03744	-21.15542	-17.08707	0
373	-6.50936	19.52808	26.03744	-8.95037	-17.90074	21.96909	35.80148	34.17414	-42.31084	-17.90074	-13.01872	-12.20505	0
374	-4.88202	24.4101	29.29212	-10.57771	-17.90074	26.85111	43.93818	42.31084	-37.42882	-9.76404	-3.25468	-6.50936	0
375	-2.44101	28.47845	30.10579	-13.83239	-16.2734	29.29212	51.26121	48.00653	-33.36047	-2.44101	4.88202	-0.81367	0
376	2.44101	33.36047	30.10579	-17.90074	-14.64606	31.73313	57.77057	51.26121	-29.29212	3.25468	13.01872	1.62734	0
377	8.95037	38.24249	28.47845	-24.4101	-12.20505	33.36047	62.65259	54.51589	-24.4101	8.95037	17.90074	4.06835	0
378	13.01872	42.31084	27.66478	-28.47845	-11.39138	34.98781	65.90727	57.77057	-17.90074	12.20505	21.15542	6.50936	0
379	12.20505	43.93818	29.29212	-30.10579	-12.20505	36.61515	68.34828	61.02525	-12.20505	14.64606	23.59643	11.39138	0
380	12.20505	46.37919	33.36047	-30.91946	-13.01872	39.86983	69.97562	63.46626	-8.95037	16.2734	26.85111	18.71441	0
381	14.64606	52.07488	34.17414	-34.98781	-9.76404	43.12451	69.97562	63.46626	-7.32303	17.90074	30.10579	24.4101	0
382	17.90074	59.39791	30.91946	-39.05616	-2.44101	44.75185	67.53461	63.46626	-6.50936	19.52808	31.73313	28.47845	0
383	23.59643	66.72094	30.10579	-42.31084	0.81367	47.19286	65.0936	66.72094	-2.44101	22.78276	34.17414	31.73313	0
384	31.73313	71.60296	33.36047	-46.37919	0.81367	50.44754	65.0936	72.41663	3.25468	26.85111	36.61515	32.5468	0
385	39.05616	76.48498	37.42882	-51.26121	0	55.32956	67.53461	77.29865	8.95037	32.5468	38.24249	30.91946	0
386	43.93818	84.62168	41.49717	-61.02525	0	62.65259	70.78929	81.367	13.83239	37.42882	39.05616	25.22377	0
387	46.37919	94.38572	44.75185	-70.78929	0	69.16195	74.04397	83.80801	17.08707	40.6835	39.86983	19.52808	0
388	45.56552	100.08141	48.00653	-76.48498	0	74.04397	74.85764	84.62168	18.71441	43.12451	40.6835	16.2734	0
389	42.31084	100.08141	52.07488	-75.67131	-4.06835	76.48498	74.85764	84.62168	20.34175	43.93818	41.49717	17.08707	0
390	35.80148	96.01306	57.77057	-69.16195	-11.39138	76.48498	75.67131	86.24902	22.78276	46.37919	43.12451	21.96909	0
391	28.47845	91.13104	65.0936	-60.21158	-20.34175	77.29865	75.67131	88.69003	27.66478	50.44754	48.00653	28.47845	0
392	21.96909	86.24902	69.16195	-52.07488	-26.85111	77.29865	74.85764	91.94471	30.10579	55.32956	52.88855	34.98781	0
393	19.52808	81.367	66.72094	-48.8202	-26.03744	73.2303	69.16195	92.75838	30.91946	56.9569	56.14323	38.24249	0
394	21.15542	77.29865	56.9569	-48.00653	-19.52808	66.72094	59.39791	90.31737	28.47845	55.32956	55.32956	37.42882	0
395	26.03744	74.04397	45.56552	-48.00653	-10.57771	57.77057	46.37919	83.80801	25.22377	51.26121	52.07488	35.80148	0
396	32.5468	69.97562	32.5468	-49.63387	0	49.63387	30.91946	74.04397	19.52808	47.19286	48.8202	35.80148	0
397	40.6835	67.53461	21.96909	-53.70222	8.95037	43.12451	15.45973	62.65259	14.64606	43.93818	48.00653	39.05616	0
398	50.44754	68.34828	13.83239	-59.39791	17.90074	39.86983	0	50.44754	9.76404	43.12451	49.63387	45.56552	0
399	60.21158	72.41663	9.76404	-66.72094	24.4101	39.86983	-11.39138	40.6835	5.69569	44.75185	53.70222	52.07488	0
400	67.53461	80.55333	11.39138	-74.85764	26.85111	45.56552	-18.71441	33.36047	3.25468	49.63387	61.02525	56.9569	0
401	72.41663	91.94471	18.71441	-82.99434	25.22377	55.32956	-22.78276	30.91946	5.69569	56.14323	69.97562	62.65259	0
402	73.2303	104.14976	26.85111	-90.31737	20.34175	67.53461	-25.22377	32.5468	11.39138	62.65259	78.11232	66.72094	0
403	73.2303	115.54114	34.98781	-96.01306	17.08707	77.29865	-24.4101	36.61515	16.2734	66.72094	81.367	68.34828	0
404	73.2303	123.67784	39.86983	-102.52242	17.08707	83.80801	-21.15542	43.12451	22.78276	70.78929	81.367	65.90727	0
405	74.85764	126.11885	41.49717	-104.96343	18.71441	84.62168	-13.83239	50.44754	28.47845	74.04397	79.73966	62.65259	0
406	77.29865	122.0505	37.42882	-102.52242	21.96909	80.55333	-5.69569	56.14323	32.5468	76.48498	78.11232	60.21158	0
407	79.73966	115.54114	32.5468	-97.6404	27.66478	74.04397	0	59.39791	34.98781	78.92599	77.29865	58.58424	0
408	81.367	108.21811	26.85111	-93.57205	30.91946	64.27993	5.69569	61.02525	36.61515	81.367	78.92599	56.9569	0
409	80.55333	101.70875	21.96909	-89.5037	30.10579	55.32956	10.57771	61.02525	37.42882	84.62168	82.18067	57.77057	0
410	76.48498	96.01306	19.52808	-85.43535	27.66478	49.63387	18.71441	61.83892	37.42882	88.69003	85.43535	59.39791	0
411	68.34828	87.06269	18.71441	-77.29865	22.78276	46.37919	27.66478	65.0936	39.86983	91.13104	87.06269	61.83892	0
412	54.51589	74.85764	20.34175	-65.0936	17.08707	43.93818	36.61515	69.16195	41.49717	91.13104	86.24902	65.90727	0
413	39.05616	62.65259	22.78276	-52.07488	13.01872	40.6835	44.75185	72.41663	41.49717	87.06269	83.80801	69.16195	0
414	30.10579	51.26121	20.34175	-41.49717	11.39138	34.98781	48.8202	74.85764	38.24249	78.92599	76.48498	68.34828	0
415	26.03744	39.05616	13.01872	-33.36047	13.01872	25.22377	50.44754	74.04397	32.5468	69.16195	65.90727	61.83892	0
416	23.59643	24.4101	3.25468	-25.22377	15.45973	13.01872	50.44754	71.60296	25.22377	57.77057	52.88855	51.26121	0
417	17.90074	9.76404	-4.88202	-14.64606	15.45973	2.44101	48.00653	65.90727	17.90074	47.19286	40.6835	37.42882	0
418	10.57771	-3.25468	-13.01872	-4.06835	13.01872	-6.50936	44.75185	58.58424	11.39138	39.86983	32.5468	25.22377	0
419	4.06835	-13.83239	-17.08707	4.88202	10.57771	-13.01872	41.49717	51.26121	4.88202	34.98781	27.66478	16.2734	0
420	-0.81367	-21.15542	-18.71441	10.57771	8.95037	-17.90074	36.61515	43.93818	-0.81367	30.10579	24.4101	8.95037	0
421	-4.06835	-24.4101	-18.71441	13.83239	7.32303	-20.34175	32.5468	39.86983	-6.50936	25.22377	21.15542	2.44101	0
422	-4.06835	-24.4101	-18.71441	13.01872	6.50936	-21.15542	29.29212	38.24249	-10.57771	20.34175	13.83239	-5.69569	0
423	-3.25468	-21.96909	-16.2734	11.39138	5.69569	-17.90074	28.47845	39.05616	-12.20505	14.64606	5.69569	-15.45973	0
424	-2.44101	-17.08707	-13.01872	10.57771	4.88202	-12.20505	29.29212	40.6835	-12.20505	12.20505	-0.81367	-21.15542	0
425	-0.81367	-12.20505	-7.32303	9.76404	4.06835	-7.32303	31.73313	43.93818	-11.39138	11.39138	-4.06835	-22.78276	0
426	0	-8.95037	-3.25468	6.50936	1.62734	-5.69569	32.5468	46.37919	-9.76404	11.39138	-4.06835	-21.96909	0
427	3.25468	-8.1367	-4.88202	3.25468	2.44101	-8.1367	31.73313	45.56552	-8.1367	12.20505	-3.25468	-18.71441	0
428	6.50936	-10.57771	-11.39138	2.44101	6.50936	-13.01872	30.10579	43.93818	-7.32303	13.83239	-0.81367	-13.01872	0
429	7.32303	-13.01872	-17.08707	3.25468	8.1367	-17.08707	27.66478	41.49717	-6.50936	15.45973	0.81367	-9.76404	0
430	5.69569	-17.08707	-21.15542	4.88202	6.50936	-20.34175	26.03744	40.6835	-5.69569	18.71441	4.06835	-6.50936	0
431	1.62734	-20.34175	-19.52808	9.76404	3.25468	-21.15542	27.66478	43.12451	-4.06835	23.59643	10.57771	-4.06835	0
432	-1.62734	-22.78276	-14.64606	14.64606	1.62734	-19.52808	30.91946	47.19286	-2.44101	26.85111	17.08707	-1.62734	0
433	-5.69569	-25.22377	-10.57771	18.71441	0.81367	-17.90074	32.5468	50.44754	-0.81367	28.47845	19.52808	-3.25468	0
434	-10.57771	-28.47845	-13.01872	20.34175	2.44101	-20.34175	33.36047	52.07488	0	29.29212	17.90074	-7.32303	0
435	-13.83239	-34.17414	-20.34175	22.78276	6.50936	-26.85111	33.36047	52.88855	0	27.66478	13.83239	-10.57771	0
436	-14.64606	-42.31084	-29.29212	26.85111	10.57771	-34.98781	33.36047	52.07488	-1.62734	26.85111	11.39138	-10.57771	0
437	-13.83239	-49.63387	-38.24249	30.10579	15.45973	-43.12451	33.36047	48.00653	-4.88202	25.22377	9.76404	-8.95037	0
438	-11.39138	-59.39791	-49.63387	33.36047	21.15542	-53.70222	32.5468	40.6835	-12.20505	21.15542	7.32303	-7.32303	0
439	-4.88202	-74.04397	-69.97562	37.42882	32.5468	-71.60296	29.29212	29.29212	-25.22377	11.39138	0	-9.76404	0
440	1.62734	-95.19939	-99.26774	43.93818	50.44754	-97.6404	22.78276	12.20505	-47.19286	-8.1367	-15.45973	-19.52808	0
441	6.50936	-117.16848	-129.37353	51.26121	69.16195	-123.67784	10.57771	-8.1367	-76.48498	-36.61515	-34.98781	-32.5468	0
442	8.1367	-131.81454	-146.4606	56.9569	79.73966	-139.13757	-3.25468	-33.36047	-109.03178	-64.27993	-50.44754	-42.31084	0
443	9.76404	-130.1872	-145.64693	56.14323	78.92599	-138.3239	-16.2734	-56.14323	-138.3239	-82.18067	-58.58424	-46.37919	0
444	10.57771	-113.9138	-128.55986	48.8202	69.97562	-121.23683	-21.15542	-70.78929	-159.47932	-91.13104	-57.77057	-40.6835	0
445	11.39138	-87.06269	-100.89508	35.80148	56.14323	-93.57205	-12.20505	-70.78929	-171.68437	-90.31737	-46.37919	-23.59643	0
446	12.20505	-57.77057	-71.60296	21.15542	41.49717	-65.0936	21.15542	-43.12451	-174.12538	-81.367	-26.85111	0.81367	0
447	13.01872	-36.61515	-50.44754	9.76404	31.73313	-43.12451	90.31737	20.34175	-165.98868	-69.97562	-2.44101	29.29212	0
448	17.90074	-21.96909	-40.6835	0.81367	28.47845	-31.73313	192.02612	109.03178	-155.41097	-61.83892	21.15542	57.77057	0
449	29.29212	-4.88202	-34.17414	-13.01872	30.10579	-19.52808	297.80322	190.39878	-152.15629	-56.9569	46.37919	88.69003	0
450	46.37919	25.22377	-21.15542	-37.42882	32.5468	1.62734	379.17022	218.87723	-168.42969	-58.58424	72.41663	126.11885	0
451	69.97562	76.48498	5.69569	-74.85764	30.10579	41.49717	428.80409	157.85198	-218.06356	-69.97562	99.26774	171.68437	0
452	94.38572	150.52895	56.14323	-123.67784	17.08707	103.33609	436.12712	-3.25468	-305.93992	-87.87636	127.74619	226.20026	0
453	112.28646	247.35568	134.25555	-180.63474	-12.20505	190.39878	384.05224	-248.98302	-420.66739	-104.14976	162.734	292.9212	0
454	124.49151	361.26948	235.9643	-244.101	-56.14323	298.61689	266.07009	-545.97257	-543.53156	-116.35481	209.92686	374.2882	0
455	131.00087	488.202	356.38746	-310.82194	-113.10013	422.29473	100.08141	-850.28515	-655.81802	-118.79582	270.95211	469.48759	0
456	122.86417	622.45755	497.96604	-372.66086	-187.95777	559.80496	-87.06269	-1124.49194	-746.13539	-109.84545	339.30039	569.569	0
457	91.13104	755.89943	663.14105	-424.73574	-285.59817	709.52024	-274.20679	-1353.13321	-817.73835	-96.01306	405.20766	664.76839	0
458	50.44754	879.57727	832.38441	-463.7919	-383.23857	855.98084	-454.02786	-1520.74923	-873.06791	-84.62168	458.09621	744.50805	0
459	17.90074	971.52198	965.82629	-489.01567	-448.33217	969.08097	-622.45755	-1620.01697	-908.05572	-74.04397	491.45668	798.21027	0
460	0	1005.69612	1023.59686	-495.52503	-476.81062	1014.64649	-768.10448	-1663.95515	-908.86939	-58.58424	503.66173	814.48367	0
461	-5.69569	970.70831	991.05006	-475.99695	-469.48759	980.47235	-867.37222	-1647.68175	-866.55855	-30.91946	496.3387	787.63256	0
462	-4.06835	867.37222	882.01828	-427.17675	-424.73574	873.88158	-901.54636	-1551.66869	-783.56421	1.62734	462.97823	714.40226	0
463	-0.81367	714.40226	720.91162	-353.94645	-352.31911	716.84327	-864.93121	-1379.98432	-670.46408	28.47845	401.13931	600.48846	0
464	1.62734	544.34523	545.97257	-271.76578	-270.95211	545.1589	-768.10448	-1149.71571	-537.83587	48.8202	321.39965	464.60557	0
465	3.25468	390.5616	389.74793	-196.09447	-195.2808	389.74793	-632.22159	-888.52764	-392.18894	72.41663	246.54201	333.6047	0
466	4.06835	267.69743	263.62908	-135.88289	-132.62821	265.25642	-480.0653	-625.71223	-241.65999	105.7771	194.46713	228.64127	0
467	5.69569	174.12538	168.42969	-90.31737	-83.80801	170.8707	-333.6047	-384.05224	-96.82673	149.71528	167.61602	156.22464	0
468	8.1367	104.96343	96.82673	-56.9569	-46.37919	100.89508	-208.29952	-182.26208	28.47845	199.34915	158.66565	115.54114	0
469	10.57771	57.77057	45.56552	-34.98781	-19.52808	51.26121	-113.10013	-30.91946	126.93252	244.101	161.92033	98.45407	0
470	12.20505	28.47845	15.45973	-21.96909	-2.44101	21.96909	-48.00653	71.60296	196.09447	278.27514	171.68437	96.82673	0
471	12.20505	13.01872	0	-13.83239	4.88202	6.50936	-5.69569	139.13757	241.65999	302.68524	181.44841	102.52242	0
472	11.39138	4.88202	-5.69569	-8.95037	8.1367	0	18.71441	180.63474	270.95211	320.58598	192.02612	111.47279	0
473	9.76404	-0.81367	-9.76404	-5.69569	8.1367	-4.88202	32.5468	206.67218	288.03918	331.16369	200.97649	118.79582	0
474	8.95037	-6.50936	-12.20505	-4.06835	7.32303	-9.76404	41.49717	223.75925	297.80322	336.04571	205.04484	121.23683	0
475	8.95037	-10.57771	-16.2734	-3.25468	7.32303	-14.64606	46.37919	234.33696	303.49891	336.04571	205.04484	117.98215	0
476	8.95037	-13.83239	-21.96909	-1.62734	8.1367	-19.52808	49.63387	240.84632	305.12625	333.6047	201.79016	109.84545	0
477	8.1367	-17.90074	-27.66478	0	10.57771	-24.4101	51.26121	243.28733	305.12625	330.35002	196.90814	99.26774	0
478	6.50936	-22.78276	-32.5468	4.06835	14.64606	-28.47845	51.26121	244.101	305.12625	327.90901	192.83979	88.69003	0
479	5.69569	-28.47845	-36.61515	8.1367	19.52808	-32.5468	52.88855	245.72834	307.56726	327.90901	189.58511	80.55333	0
480	4.88202	-32.5468	-39.86983	11.39138	21.96909	-36.61515	56.14323	250.61036	310.00827	331.16369	188.77144	76.48498	0
481	4.06835	-34.98781	-40.6835	13.83239	22.78276	-38.24249	61.02525	257.93339	312.44928	336.04571	190.39878	75.67131	0
482	4.06835	-36.61515	-44.75185	13.83239	25.22377	-40.6835	65.90727	265.25642	314.89029	337.67305	190.39878	75.67131	0
483	4.88202	-38.24249	-51.26121	11.39138	31.73313	-45.56552	69.16195	270.13844	314.89029	335.23204	187.95777	73.2303	0
484	7.32303	-39.05616	-56.9569	9.76404	36.61515	-48.00653	69.97562	273.39312	314.07662	330.35002	183.88942	71.60296	0
485	9.76404	-40.6835	-59.39791	10.57771	38.24249	-50.44754	69.16195	275.02046	314.07662	326.28167	179.82107	70.78929	0
486	10.57771	-42.31084	-59.39791	12.20505	37.42882	-51.26121	67.53461	275.02046	314.07662	323.84066	176.56639	71.60296	0
487	8.1367	-43.93818	-57.77057	15.45973	32.5468	-49.63387	66.72094	273.39312	317.3313	322.21332	173.31171	72.41663	0
488	1.62734	-44.75185	-56.9569	19.52808	24.4101	-45.56552	66.72094	270.95211	331.16369	321.39965	171.68437	72.41663	0
489	0	-46.37919	-56.14323	20.34175	20.34175	-43.12451	65.90727	267.69743	358.82847	320.58598	171.68437	71.60296	0
490	4.88202	-47.19286	-55.32956	17.08707	23.59643	-43.12451	65.0936	265.25642	389.74793	319.77231	170.05703	68.34828	0
491	11.39138	-46.37919	-56.14323	13.83239	29.29212	-44.75185	64.27993	263.62908	415.78537	318.95864	167.61602	63.46626	0
492	15.45973	-43.12451	-56.14323	12.20505	33.36047	-45.56552	65.0936	263.62908	435.31345	318.14497	165.98868	58.58424	0
493	16.2734	-40.6835	-53.70222	11.39138	33.36047	-44.75185	68.34828	267.69743	448.33217	318.14497	165.17501	56.9569	0
494	13.83239	-39.05616	-51.26121	12.20505	30.91946	-43.93818	72.41663	272.57945	456.46887	318.14497	165.98868	56.14323	0
495	11.39138	-39.86983	-49.63387	13.83239	29.29212	-43.93818	76.48498	276.6478	459.72355	316.51763	165.98868	56.9569	0
496	9.76404	-41.49717	-49.63387	14.64606	29.29212	-46.37919	80.55333	279.90248	461.35089	314.07662	165.17501	58.58424	0
497	9.76404	-43.12451	-52.07488	15.45973	30.91946	-48.00653	82.99434	280.71615	462.16456	312.44928	164.36134	61.83892	0
498	8.95037	-45.56552	-54.51589	16.2734	30.91946	-50.44754	85.43535	280.71615	462.97823	313.26295	165.98868	65.90727	0
499	4.88202	-48.8202	-54.51589	17.08707	28.47845	-52.07488	87.06269	278.27514	462.97823	314.07662	169.24336	69.16195	0
500	3.25468	-50.44754	-54.51589	17.90074	26.85111	-52.88855	88.69003	275.83413	462.97823	315.70396	172.49804	70.78929	0
501	4.06835	-51.26121	-56.14323	17.90074	27.66478	-53.70222	88.69003	275.02046	462.97823	316.51763	173.31171	72.41663	0
502	4.06835	-51.26121	-56.14323	16.2734	28.47845	-53.70222	86.24902	275.83413	462.16456	317.3313	174.12538	73.2303	0
503	5.69569	-49.63387	-56.14323	13.83239	29.29212	-52.88855	84.62168	277.46147	461.35089	317.3313	175.75272	74.04397	0
504	8.1367	-48.00653	-56.14323	12.20505	30.91946	-52.88855	81.367	278.27514	460.53722	316.51763	176.56639	74.04397	0
505	11.39138	-46.37919	-57.77057	11.39138	34.17414	-54.51589	78.11232	277.46147	458.09621	314.89029	175.75272	70.78929	0
506	13.01872	-46.37919	-61.02525	12.20505	38.24249	-56.9569	74.85764	275.02046	455.6552	312.44928	172.49804	65.0936	0
507	14.64606	-48.00653	-65.0936	13.83239	43.93818	-58.58424	73.2303	274.20679	454.02786	310.00827	166.80235	60.21158	0
508	16.2734	-50.44754	-68.34828	15.45973	47.19286	-61.02525	73.2303	272.57945	453.21419	306.75359	160.29299	55.32956	0
509	16.2734	-52.88855	-70.78929	17.08707	47.19286	-61.83892	74.85764	270.95211	453.21419	304.31258	154.5973	52.07488	0
510	14.64606	-54.51589	-69.97562	18.71441	43.93818	-61.83892	78.92599	272.57945	453.21419	302.68524	151.34262	52.07488	0
511	12.20505	-53.70222	-66.72094	19.52808	39.86983	-60.21158	84.62168	276.6478	454.84153	301.87157	152.15629	56.14323	0
512	8.95037	-52.07488	-61.83892	20.34175	35.80148	-56.9569	90.31737	282.34349	456.46887	301.87157	156.22464	61.83892	0
513	5.69569	-49.63387	-56.9569	21.15542	31.73313	-52.88855	95.19939	287.22551	458.90988	303.49891	161.10666	66.72094	0
514	3.25468	-48.00653	-54.51589	20.34175	30.10579	-50.44754	96.82673	289.66652	459.72355	304.31258	165.17501	71.60296	0
515	2.44101	-48.00653	-54.51589	20.34175	30.10579	-51.26121	94.38572	289.66652	458.09621	303.49891	165.98868	74.85764	0
516	4.88202	-48.8202	-56.14323	20.34175	31.73313	-53.70222	90.31737	286.41184	454.84153	301.87157	164.36134	74.85764	0
517	8.1367	-51.26121	-61.02525	19.52808	34.98781	-59.39791	84.62168	281.52982	449.95951	297.80322	160.29299	70.78929	0
518	11.39138	-54.51589	-66.72094	19.52808	39.05616	-65.90727	78.92599	274.20679	444.26382	290.48019	151.34262	62.65259	0
519	13.83239	-57.77057	-72.41663	20.34175	42.31084	-71.60296	74.04397	266.88376	438.56813	282.34349	140.76491	51.26121	0
520	15.45973	-60.21158	-74.85764	21.96909	44.75185	-73.2303	71.60296	263.62908	434.49978	275.02046	132.62821	40.6835	0
521	17.90074	-61.02525	-74.04397	23.59643	48.00653	-71.60296	72.41663	265.25642	429.61776	270.13844	126.93252	33.36047	0
522	20.34175	-60.21158	-73.2303	22.78276	50.44754	-69.16195	73.2303	267.69743	427.17675	267.69743	123.67784	30.91946	0
523	23.59643	-58.58424	-74.85764	21.15542	52.07488	-68.34828	73.2303	269.32477	424.73574	265.25642	124.49151	31.73313	0
524	26.85111	-58.58424	-76.48498	19.52808	51.26121	-67.53461	73.2303	270.13844	423.1084	265.25642	127.74619	36.61515	0
525	26.85111	-60.21158	-78.11232	17.90074	50.44754	-67.53461	73.2303	269.32477	420.66739	266.07009	132.62821	41.49717	0
526	24.4101	-61.83892	-79.73966	19.52808	49.63387	-69.97562	73.2303	267.69743	418.22638	265.25642	136.69656	45.56552	0
527	20.34175	-63.46626	-82.18067	21.15542	49.63387	-72.41663	71.60296	265.25642	414.9717	263.62908	138.3239	47.19286	0
528	16.2734	-66.72094	-83.80801	24.4101	48.8202	-75.67131	69.16195	261.18807	410.90335	260.3744	136.69656	45.56552	0
529	14.64606	-69.16195	-85.43535	26.85111	48.8202	-78.11232	65.90727	255.49238	406.02133	256.30605	132.62821	43.12451	0
530	14.64606	-70.78929	-87.87636	28.47845	50.44754	-79.73966	63.46626	250.61036	400.32564	252.2377	128.55986	39.86983	0
531	16.2734	-70.78929	-87.87636	29.29212	51.26121	-78.92599	61.02525	248.16935	397.07096	248.16935	122.0505	35.80148	0
532	15.45973	-69.97562	-86.24902	28.47845	50.44754	-76.48498	57.77057	247.35568	393.81628	243.28733	114.72747	29.29212	0
533	11.39138	-69.16195	-81.367	29.29212	46.37919	-74.04397	56.9569	248.98302	390.5616	237.59164	108.21811	23.59643	0
534	4.88202	-69.97562	-74.85764	33.36047	39.05616	-71.60296	58.58424	253.05137	388.93426	233.52329	104.14976	19.52808	0
535	0	-72.41663	-70.78929	39.86983	34.98781	-69.97562	61.83892	255.49238	387.30692	230.26861	100.89508	17.08707	0
536	-3.25468	-76.48498	-69.97562	43.93818	34.98781	-69.97562	65.0936	255.49238	384.05224	227.01393	100.08141	16.2734	0
537	-4.88202	-82.18067	-73.2303	47.19286	35.80148	-73.2303	66.72094	251.42403	378.35655	222.13191	99.26774	16.2734	0
538	-5.69569	-87.06269	-78.11232	48.00653	36.61515	-78.92599	65.90727	247.35568	372.66086	218.87723	98.45407	17.90074	0
539	-4.88202	-89.5037	-82.18067	47.19286	38.24249	-83.80801	64.27993	243.28733	367.77884	216.43622	98.45407	19.52808	0
540	-2.44101	-90.31737	-89.5037	43.12451	40.6835	-87.87636	61.02525	238.40531	362.08315	213.18154	96.82673	21.15542	0
541	0	-87.87636	-97.6404	36.61515	43.93818	-91.94471	58.58424	234.33696	355.57379	209.11319	95.19939	22.78276	0
542	3.25468	-85.43535	-101.70875	31.73313	46.37919	-93.57205	54.51589	231.08228	349.06443	203.4175	92.75838	25.22377	0
543	4.88202	-84.62168	-100.89508	32.5468	47.19286	-92.75838	51.26121	230.26861	344.18241	198.53548	91.13104	29.29212	0
544	2.44101	-87.06269	-97.6404	36.61515	46.37919	-92.75838	49.63387	230.26861	338.48672	192.83979	87.87636	30.91946	0
545	0.81367	-89.5037	-96.01306	42.31084	46.37919	-94.38572	48.8202	228.64127	332.79103	187.1441	83.80801	30.10579	0
546	0	-92.75838	-97.6404	45.56552	48.00653	-96.82673	48.8202	226.20026	324.65433	179.0074	78.11232	25.22377	0
547	0	-96.01306	-103.33609	47.19286	52.88855	-100.89508	46.37919	220.50457	314.89029	170.05703	69.97562	17.08707	0
548	0	-99.26774	-108.21811	48.00653	56.9569	-104.96343	43.12451	213.18154	303.49891	159.47932	59.39791	6.50936	0
549	0	-101.70875	-109.84545	49.63387	57.77057	-106.59077	40.6835	204.23117	291.29386	148.08794	48.00653	-4.06835	0
550	-2.44101	-103.33609	-107.40444	52.07488	53.70222	-104.96343	39.05616	197.72181	280.71615	137.51023	38.24249	-13.01872	0
551	-6.50936	-104.14976	-101.70875	53.70222	47.19286	-101.70875	37.42882	194.46713	271.76578	127.74619	29.29212	-17.90074	0
552	-10.57771	-102.52242	-94.38572	56.14323	40.6835	-97.6404	34.98781	191.21245	262.81541	117.16848	21.15542	-20.34175	0
553	-13.01872	-100.89508	-88.69003	56.14323	35.80148	-94.38572	33.36047	187.95777	253.86504	107.40444	15.45973	-19.52808	0
554	-13.01872	-98.45407	-87.06269	55.32956	35.80148	-93.57205	30.91946	183.07575	242.47366	96.82673	8.95037	-19.52808	0
555	-6.50936	-98.45407	-91.94471	53.70222	39.86983	-96.82673	25.22377	174.12538	227.01393	83.80801	0.81367	-23.59643	0
556	5.69569	-101.70875	-101.70875	51.26121	48.00653	-102.52242	17.90074	161.92033	209.92686	68.34828	-9.76404	-32.5468	0
557	17.90074	-105.7771	-113.10013	49.63387	58.58424	-109.84545	9.76404	148.90161	191.21245	52.07488	-21.96909	-43.12451	0
558	21.15542	-109.03178	-121.23683	50.44754	65.0936	-114.72747	5.69569	136.69656	174.93905	37.42882	-32.5468	-52.88855	0
559	15.45973	-111.47279	-121.23683	52.88855	64.27993	-116.35481	4.88202	126.93252	159.47932	26.03744	-40.6835	-61.02525	0
560	6.50936	-113.9138	-117.98215	57.77057	59.39791	-113.9138	6.50936	120.42316	148.08794	16.2734	-48.00653	-66.72094	0
561	-1.62734	-113.9138	-112.28646	61.02525	52.07488	-110.65912	7.32303	116.35481	136.69656	5.69569	-54.51589	-69.97562	0
562	-9.76404	-113.10013	-106.59077	61.02525	44.75185	-107.40444	8.1367	111.47279	124.49151	-6.50936	-62.65259	-70.78929	0
563	-15.45973	-110.65912	-100.89508	61.02525	39.86983	-104.14976	7.32303	107.40444	112.28646	-19.52808	-69.97562	-69.16195	0
564	-19.52808	-109.84545	-98.45407	61.83892	39.05616	-102.52242	6.50936	102.52242	99.26774	-31.73313	-74.85764	-65.0936	0
565	-20.34175	-110.65912	-99.26774	64.27993	39.86983	-103.33609	5.69569	96.01306	85.43535	-44.75185	-81.367	-63.46626	0
566	-18.71441	-113.9138	-103.33609	65.0936	43.12451	-108.21811	4.88202	87.87636	69.97562	-60.21158	-90.31737	-65.0936	0
567	-13.83239	-118.79582	-109.03178	66.72094	48.00653	-113.9138	1.62734	78.11232	52.88855	-75.67131	-100.89508	-69.97562	0
568	-8.95037	-122.0505	-115.54114	66.72094	52.88855	-118.79582	-2.44101	65.0936	34.98781	-91.13104	-113.10013	-78.11232	0
569	-5.69569	-123.67784	-118.79582	67.53461	55.32956	-120.42316	-6.50936	52.07488	17.08707	-105.7771	-126.11885	-87.87636	0
570	-6.50936	-123.67784	-118.79582	67.53461	53.70222	-117.98215	-10.57771	39.86983	0.81367	-120.42316	-138.3239	-96.01306	0
571	-9.76404	-122.86417	-114.72747	67.53461	50.44754	-114.72747	-14.64606	29.29212	-15.45973	-135.88289	-149.71528	-103.33609	0
572	-13.01872	-120.42316	-109.03178	65.90727	46.37919	-111.47279	-21.15542	18.71441	-33.36047	-151.34262	-161.10666	-109.03178	0
573	-14.64606	-116.35481	-102.52242	64.27993	42.31084	-107.40444	-28.47845	7.32303	-50.44754	-166.80235	-169.24336	-111.47279	0
574	-16.2734	-113.10013	-96.82673	62.65259	39.86983	-104.14976	-34.17414	-1.62734	-66.72094	-179.0074	-174.12538	-111.47279	0
575	-17.90074	-110.65912	-92.75838	62.65259	36.61515	-101.70875	-39.05616	-10.57771	-80.55333	-190.39878	-178.19373	-110.65912	0
576	-19.52808	-110.65912	-90.31737	62.65259	34.98781	-100.89508	-42.31084	-19.52808	-95.19939	-203.4175	-183.88942	-110.65912	0
577	-21.15542	-111.47279	-91.13104	63.46626	34.17414	-101.70875	-44.75185	-30.10579	-110.65912	-217.24989	-192.02612	-113.9138	0
578	-21.15542	-113.10013	-93.57205	64.27993	34.98781	-103.33609	-46.37919	-42.31084	-126.11885	-230.26861	-201.79016	-118.79582	0
579	-21.15542	-114.72747	-96.01306	65.0936	34.98781	-104.14976	-48.00653	-55.32956	-141.57858	-242.47366	-210.74053	-124.49151	0
580	-22.78276	-115.54114	-96.82673	67.53461	34.17414	-104.96343	-48.00653	-66.72094	-155.41097	-253.05137	-218.87723	-128.55986	0
581	-25.22377	-117.16848	-94.38572	69.97562	31.73313	-104.14976	-50.44754	-76.48498	-167.61602	-262.81541	-224.57292	-130.1872	0
582	-26.85111	-117.16848	-91.13104	71.60296	29.29212	-101.70875	-54.51589	-86.24902	-179.82107	-271.76578	-229.45494	-131.00087	0
583	-27.66478	-113.9138	-86.24902	70.78929	26.85111	-97.6404	-59.39791	-94.38572	-190.39878	-279.08881	-231.89595	-131.81454	0
584	-28.47845	-109.84545	-81.367	69.16195	24.4101	-94.38572	-64.27993	-101.70875	-200.97649	-286.41184	-235.15063	-133.44188	0
585	-30.10579	-107.40444	-76.48498	68.34828	21.96909	-91.13104	-69.97562	-111.47279	-213.18154	-296.98955	-240.84632	-136.69656	0
586	-30.10579	-105.7771	-73.2303	68.34828	19.52808	-88.69003	-75.67131	-122.86417	-227.01393	-309.1946	-248.16935	-140.76491	0
587	-30.10579	-103.33609	-70.78929	67.53461	17.90074	-87.06269	-79.73966	-135.06922	-240.03265	-319.77231	-253.86504	-142.39225	0
588	-29.29212	-100.89508	-69.97562	65.0936	17.90074	-86.24902	-82.99434	-148.08794	-251.42403	-327.90901	-257.93339	-140.76491	0
589	-27.66478	-97.6404	-69.16195	61.83892	18.71441	-85.43535	-84.62168	-159.47932	-262.00174	-334.41837	-260.3744	-136.69656	0
590	-25.22377	-93.57205	-68.34828	58.58424	19.52808	-83.80801	-86.24902	-170.05703	-272.57945	-339.30039	-262.00174	-133.44188	0
591	-24.4101	-90.31737	-65.0936	56.9569	18.71441	-80.55333	-88.69003	-179.0074	-280.71615	-344.18241	-262.81541	-130.1872	0
592	-28.47845	-89.5037	-61.02525	58.58424	14.64606	-76.48498	-90.31737	-185.51676	-288.03918	-346.62342	-262.81541	-127.74619	0
593	-33.36047	-88.69003	-56.14323	60.21158	9.76404	-72.41663	-91.94471	-190.39878	-293.73487	-349.8781	-262.00174	-124.49151	0
594	-36.61515	-87.06269	-51.26121	61.02525	5.69569	-69.16195	-92.75838	-193.65346	-298.61689	-353.13278	-262.00174	-122.0505	0
595	-40.6835	-87.06269	-47.19286	61.83892	1.62734	-66.72094	-91.13104	-196.90814	-303.49891	-354.76012	-262.81541	-119.60949	0
596	-47.19286	-87.87636	-41.49717	65.0936	-3.25468	-65.0936	-89.5037	-199.34915	-306.75359	-355.57379	-262.81541	-117.98215	0
597	-53.70222	-87.87636	-34.98781	69.16195	-8.1367	-61.02525	-87.87636	-201.79016	-308.38093	-355.57379	-262.00174	-116.35481	0
598	-60.21158	-86.24902	-26.85111	71.60296	-11.39138	-57.77057	-86.24902	-203.4175	-309.1946	-355.57379	-262.00174	-115.54114	0
599	-63.46626	-83.80801	-21.15542	71.60296	-14.64606	-55.32956	-85.43535	-205.85851	-309.1946	-355.57379	-261.18807	-115.54114	0
600	-60.21158	-78.92599	-19.52808	67.53461	-15.45973	-53.70222	-87.06269	-209.92686	-310.82194	-356.38746	-262.00174	-117.16848	0
601	-52.07488	-72.41663	-21.15542	61.02525	-12.20505	-50.44754	-90.31737	-215.62255	-314.07662	-358.0148	-263.62908	-120.42316	0
602	-42.31084	-64.27993	-22.78276	52.07488	-8.1367	-46.37919	-95.19939	-219.6909	-317.3313	-359.64214	-264.44275	-123.67784	0
603	-32.5468	-56.14323	-23.59643	43.93818	-4.06835	-41.49717	-98.45407	-221.31824	-318.95864	-358.0148	-262.81541	-125.30518	0
604	-28.47845	-49.63387	-21.15542	37.42882	-4.06835	-36.61515	-99.26774	-221.31824	-318.14497	-353.94645	-259.56073	-124.49151	0
605	-30.10579	-45.56552	-17.08707	33.36047	-7.32303	-30.91946	-96.82673	-218.06356	-314.07662	-348.25076	-254.67871	-123.67784	0
606	-31.73313	-43.93818	-15.45973	32.5468	-9.76404	-27.66478	-93.57205	-216.43622	-310.00827	-342.55507	-248.98302	-122.86417	0
607	-30.91946	-43.93818	-16.2734	32.5468	-8.95037	-27.66478	-90.31737	-215.62255	-306.75359	-338.48672	-244.91467	-122.86417	0
608	-28.47845	-45.56552	-18.71441	33.36047	-5.69569	-30.10579	-87.87636	-216.43622	-305.12625	-334.41837	-241.65999	-122.86417	0
609	-26.03744	-47.19286	-21.15542	34.17414	-2.44101	-33.36047	-84.62168	-216.43622	-301.0579	-329.53635	-236.77797	-122.0505	0
610	-28.47845	-48.8202	-19.52808	36.61515	-4.06835	-33.36047	-80.55333	-213.18154	-294.54854	-321.39965	-230.26861	-117.98215	0
611	-34.98781	-48.8202	-13.01872	40.6835	-10.57771	-30.91946	-75.67131	-205.04484	-284.7845	-312.44928	-222.13191	-110.65912	0
612	-43.12451	-45.56552	-1.62734	43.93818	-21.15542	-26.03744	-69.97562	-194.46713	-272.57945	-301.0579	-212.36787	-100.89508	-1250	T-0
613	-49.63387	-40.6835	8.1367	45.56552	-30.10579	-19.52808	-65.0936	-183.07575	-260.3744	-289.66652	-202.60383	-91.94471	0
614	-52.88855	-36.61515	13.01872	45.56552	-33.36047	-14.64606	-61.02525	-172.49804	-248.98302	-279.90248	-195.2808	-83.80801	0
615	-48.00653	-33.36047	9.76404	41.49717	-29.29212	-12.20505	-59.39791	-165.17501	-240.84632	-272.57945	-191.21245	-78.92599	0
616	-39.86983	-33.36047	2.44101	37.42882	-20.34175	-13.01872	-57.77057	-160.29299	-235.15063	-266.88376	-188.77144	-77.29865	0
617	-31.73313	-34.17414	-4.06835	32.5468	-10.57771	-17.08707	-57.77057	-157.03831	-230.26861	-262.00174	-187.95777	-76.48498	0
618	-24.4101	-34.17414	-11.39138	28.47845	-2.44101	-21.15542	-57.77057	-154.5973	-224.57292	-257.11972	-186.33043	-76.48498	0
619	-18.71441	-34.17414	-17.08707	25.22377	0.81367	-24.4101	-56.14323	-151.34262	-218.87723	-251.42403	-183.88942	-77.29865	0
620	-15.45973	-33.36047	-18.71441	23.59643	2.44101	-26.03744	-52.88855	-145.64693	-210.74053	-243.28733	-180.63474	-78.11232	0
621	-14.64606	-32.5468	-16.2734	22.78276	0.81367	-25.22377	-48.00653	-138.3239	-201.79016	-235.15063	-175.75272	-78.92599	0
622	-15.45973	-29.29212	-12.20505	21.15542	-0.81367	-21.96909	-43.93818	-130.1872	-192.02612	-226.20026	-170.8707	-78.11232	0
623	-16.2734	-25.22377	-7.32303	20.34175	-4.06835	-17.08707	-39.05616	-121.23683	-181.44841	-216.43622	-165.17501	-76.48498	0
624	-17.90074	-21.96909	-2.44101	19.52808	-8.1367	-13.01872	-34.17414	-112.28646	-171.68437	-207.48585	-160.29299	-75.67131	0
625	-18.71441	-19.52808	0	18.71441	-9.76404	-10.57771	-29.29212	-104.96343	-162.734	-200.97649	-157.03831	-74.85764	0
626	-18.71441	-18.71441	0.81367	18.71441	-10.57771	-8.95037	-24.4101	-98.45407	-155.41097	-193.65346	-153.78363	-74.85764	0
627	-21.96909	-19.52808	4.88202	21.15542	-15.45973	-8.95037	-20.34175	-90.31737	-144.83326	-184.70309	-147.27427	-70.78929	0
628	-28.47845	-20.34175	10.57771	25.22377	-22.78276	-9.76404	-16.2734	-81.367	-133.44188	-173.31171	-137.51023	-64.27993	0
629	-30.10579	-20.34175	11.39138	25.22377	-23.59643	-10.57771	-13.83239	-74.85764	-123.67784	-162.734	-127.74619	-57.77057	0
630	-25.22377	-17.90074	4.88202	20.34175	-16.2734	-12.20505	-10.57771	-70.78929	-116.35481	-155.41097	-120.42316	-53.70222	0
631	-19.52808	-15.45973	-4.06835	12.20505	-4.88202	-13.01872	-9.76404	-67.53461	-110.65912	-148.90161	-114.72747	-49.63387	0
632	-14.64606	-13.83239	-9.76404	8.1367	1.62734	-13.83239	-9.76404	-62.65259	-104.14976	-142.39225	-109.03178	-44.75185	0
633	-11.39138	-14.64606	-12.20505	8.1367	3.25468	-14.64606	-8.95037	-56.14323	-97.6404	-135.06922	-101.70875	-38.24249	0
634	-9.76404	-16.2734	-12.20505	8.95037	1.62734	-15.45973	-7.32303	-48.8202	-90.31737	-127.74619	-94.38572	-32.5468	0
635	-8.95037	-18.71441	-12.20505	11.39138	0	-17.08707	-5.69569	-43.93818	-84.62168	-121.23683	-90.31737	-28.47845	0
636	-8.1367	-20.34175	-13.83239	12.20505	0	-18.71441	-5.69569	-41.49717	-81.367	-116.35481	-87.87636	-28.47845	0
637	-7.32303	-19.52808	-15.45973	10.57771	0.81367	-17.90074	-7.32303	-39.86983	-79.73966	-113.9138	-87.87636	-30.91946	0
638	-7.32303	-16.2734	-14.64606	8.1367	1.62734	-16.2734	-8.95037	-39.05616	-78.11232	-111.47279	-87.06269	-34.17414	0
639	-8.1367	-13.01872	-9.76404	7.32303	0	-11.39138	-9.76404	-38.24249	-75.67131	-108.21811	-87.87636	-37.42882	0
640	-12.20505	-10.57771	-2.44101	8.95037	-5.69569	-5.69569	-8.95037	-34.17414	-69.97562	-104.96343	-87.87636	-39.05616	0
641	-17.90074	-8.1367	5.69569	12.20505	-13.83239	0	-4.88202	-26.03744	-62.65259	-100.89508	-87.06269	-40.6835	0
642	-21.15542	-6.50936	13.83239	14.64606	-21.96909	5.69569	-0.81367	-16.2734	-55.32956	-97.6404	-85.43535	-39.86983	0
643	-22.78276	-5.69569	17.90074	16.2734	-25.22377	7.32303	1.62734	-7.32303	-48.8202	-94.38572	-83.80801	-38.24249	0
644	-21.96909	-6.50936	16.2734	15.45973	-22.78276	5.69569	4.06835	-2.44101	-46.37919	-92.75838	-81.367	-36.61515	0
645	-17.90074	-8.95037	8.95037	13.83239	-15.45973	0	5.69569	-1.62734	-45.56552	-91.13104	-80.55333	-34.17414	0
646	-13.01872	-12.20505	0	12.20505	-8.1367	-5.69569	6.50936	-1.62734	-45.56552	-91.13104	-80.55333	-31.73313	0
647	-10.57771	-15.45973	-5.69569	12.20505	-2.44101	-10.57771	7.32303	-1.62734	-45.56552	-90.31737	-79.73966	-28.47845	0
648	-10.57771	-17.90074	-8.95037	13.01872	-0.81367	-13.01872	8.95037	-0.81367	-44.75185	-89.5037	-77.29865	-24.4101	0
649	-13.83239	-19.52808	-10.57771	15.45973	-1.62734	-13.83239	11.39138	-0.81367	-44.75185	-87.87636	-74.85764	-21.15542	0
650	-17.08707	-21.96909	-9.76404	18.71441	-3.25468	-13.83239	15.45973	0	-43.93818	-85.43535	-72.41663	-18.71441	0
651	-19.52808	-22.78276	-8.95037	21.15542	-5.69569	-13.01872	18.71441	0.81367	-42.31084	-83.80801	-69.97562	-17.08707	0
652	-17.08707	-21.15542	-10.57771	20.34175	-3.25468	-13.01872	21.15542	3.25468	-40.6835	-81.367	-67.53461	-17.90074	0
653	-11.39138	-17.90074	-14.64606	17.90074	0.81367	-13.83239	21.15542	4.88202	-39.05616	-78.92599	-65.0936	-18.71441	0
654	-8.1367	-14.64606	-13.01872	14.64606	1.62734	-12.20505	22.78276	6.50936	-38.24249	-77.29865	-62.65259	-19.52808	0
655	-12.20505	-13.01872	-4.88202	11.39138	-4.06835	-8.95037	24.4101	8.95037	-39.05616	-77.29865	-61.83892	-20.34175	0
656	-17.90074	-13.01872	1.62734	8.95037	-10.57771	-5.69569	26.03744	10.57771	-39.86983	-79.73966	-62.65259	-21.15542	0
657	-19.52808	-13.83239	3.25468	8.1367	-12.20505	-5.69569	26.03744	11.39138	-39.86983	-81.367	-64.27993	-21.96909	0
658	-17.90074	-14.64606	0.81367	8.95037	-10.57771	-7.32303	25.22377	9.76404	-40.6835	-84.62168	-67.53461	-23.59643	0
659	-16.2734	-16.2734	-0.81367	10.57771	-8.1367	-8.95037	24.4101	8.1367	-42.31084	-86.24902	-70.78929	-26.03744	0
660	-15.45973	-17.08707	-1.62734	13.01872	-8.1367	-9.76404	25.22377	7.32303	-43.12451	-87.06269	-72.41663	-28.47845	0
661	-16.2734	-17.08707	0.81367	14.64606	-10.57771	-8.1367	26.85111	8.1367	-43.12451	-87.87636	-73.2303	-29.29212	0
662	-16.2734	-13.83239	4.88202	13.83239	-13.01872	-4.06835	29.29212	11.39138	-43.12451	-87.87636	-72.41663	-30.10579	0
663	-15.45973	-9.76404	10.57771	12.20505	-13.83239	0	31.73313	13.83239	-42.31084	-87.87636	-69.97562	-29.29212	0
664	-15.45973	-7.32303	13.83239	10.57771	-13.83239	2.44101	33.36047	17.08707	-42.31084	-86.24902	-67.53461	-27.66478	0
665	-16.2734	-6.50936	16.2734	10.57771	-14.64606	4.06835	34.17414	18.71441	-42.31084	-86.24902	-65.0936	-25.22377	0
666	-17.90074	-8.1367	15.45973	11.39138	-14.64606	2.44101	33.36047	18.71441	-43.12451	-86.24902	-65.0936	-22.78276	0
667	-16.2734	-10.57771	8.95037	12.20505	-11.39138	-0.81367	30.10579	15.45973	-44.75185	-86.24902	-65.90727	-21.96909	0
668	-8.95037	-13.01872	-0.81367	9.76404	-2.44101	-7.32303	24.4101	10.57771	-48.00653	-87.06269	-68.34828	-20.34175	0
669	-1.62734	-15.45973	-8.95037	7.32303	4.88202	-13.01872	19.52808	5.69569	-49.63387	-87.87636	-69.97562	-19.52808	0
670	-1.62734	-17.90074	-10.57771	8.1367	6.50936	-15.45973	18.71441	3.25468	-50.44754	-87.06269	-68.34828	-17.08707	0
671	-8.1367	-18.71441	-6.50936	12.20505	0.81367	-13.01872	20.34175	4.88202	-48.8202	-85.43535	-64.27993	-14.64606	0
672	-16.2734	-17.08707	0.81367	16.2734	-8.1367	-8.1367	23.59643	9.76404	-46.37919	-82.99434	-60.21158	-12.20505	0
673	-22.78276	-13.83239	9.76404	17.08707	-15.45973	-1.62734	27.66478	13.01872	-43.93818	-79.73966	-56.9569	-9.76404	0
674	-26.03744	-10.57771	14.64606	17.90074	-20.34175	0.81367	30.91946	16.2734	-42.31084	-78.11232	-54.51589	-9.76404	0
675	-27.66478	-10.57771	15.45973	18.71441	-21.15542	1.62734	33.36047	18.71441	-41.49717	-77.29865	-54.51589	-10.57771	0
676	-26.85111	-12.20505	11.39138	18.71441	-19.52808	0	34.17414	18.71441	-41.49717	-76.48498	-55.32956	-12.20505	0
677	-24.4101	-14.64606	5.69569	18.71441	-16.2734	-3.25468	34.17414	18.71441	-41.49717	-74.85764	-55.32956	-13.01872	0
678	-22.78276	-17.90074	0.81367	18.71441	-13.01872	-7.32303	32.5468	17.90074	-41.49717	-73.2303	-54.51589	-13.01872	0
679	-21.96909	-20.34175	-2.44101	19.52808	-11.39138	-11.39138	31.73313	17.08707	-39.86983	-69.16195	-52.07488	-11.39138	0
680	-22.78276	-22.78276	-3.25468	21.96909	-13.01872	-12.20505	33.36047	17.08707	-37.42882	-65.0936	-48.8202	-8.95037	0
681	-23.59643	-25.22377	-0.81367	26.03744	-17.08707	-11.39138	36.61515	19.52808	-34.98781	-60.21158	-45.56552	-4.88202	0
682	-24.4101	-26.85111	0.81367	27.66478	-18.71441	-11.39138	38.24249	22.78276	-32.5468	-56.9569	-42.31084	-0.81367	0
683	-21.15542	-29.29212	-3.25468	26.85111	-13.01872	-13.83239	38.24249	22.78276	-31.73313	-55.32956	-39.86983	0.81367	0
684	-13.83239	-30.10579	-13.01872	22.78276	-2.44101	-15.45973	38.24249	21.96909	-32.5468	-55.32956	-38.24249	1.62734	0
685	-6.50936	-30.10579	-21.96909	18.71441	5.69569	-18.71441	38.24249	21.15542	-32.5468	-55.32956	-38.24249	0	0
686	-1.62734	-29.29212	-26.85111	14.64606	12.20505	-21.96909	38.24249	19.52808	-31.73313	-55.32956	-38.24249	-2.44101	0
687	0.81367	-27.66478	-29.29212	12.20505	15.45973	-25.22377	36.61515	18.71441	-30.91946	-54.51589	-38.24249	-6.50936	0
688	1.62734	-27.66478	-30.91946	11.39138	16.2734	-28.47845	35.80148	18.71441	-29.29212	-52.88855	-38.24249	-8.95037	0
689	1.62734	-27.66478	-31.73313	11.39138	16.2734	-30.10579	34.98781	18.71441	-26.85111	-51.26121	-36.61515	-10.57771	0
690	0	-29.29212	-29.29212	13.83239	13.83239	-30.10579	35.80148	19.52808	-23.59643	-48.00653	-34.17414	-10.57771	0
691	-5.69569	-29.29212	-24.4101	15.45973	8.1367	-28.47845	38.24249	21.96909	-18.71441	-43.12451	-30.10579	-6.50936	0
692	-11.39138	-30.10579	-19.52808	16.2734	2.44101	-25.22377	39.86983	26.85111	-13.83239	-37.42882	-24.4101	-0.81367	0
693	-13.83239	-30.10579	-17.08707	15.45973	0.81367	-24.4101	40.6835	30.10579	-9.76404	-32.5468	-19.52808	4.06835	0
694	-11.39138	-30.91946	-19.52808	14.64606	3.25468	-26.85111	40.6835	31.73313	-8.1367	-30.10579	-16.2734	7.32303	0
695	-6.50936	-31.73313	-24.4101	14.64606	8.95037	-30.10579	41.49717	31.73313	-7.32303	-28.47845	-15.45973	8.95037	0
696	-2.44101	-33.36047	-29.29212	14.64606	13.83239	-33.36047	42.31084	30.91946	-8.1367	-27.66478	-14.64606	9.76404	0
697	0	-34.17414	-34.17414	15.45973	17.90074	-35.80148	43.12451	29.29212	-8.1367	-26.03744	-14.64606	9.76404	0
698	2.44101	-34.17414	-37.42882	16.2734	19.52808	-36.61515	43.93818	28.47845	-7.32303	-23.59643	-14.64606	9.76404	0
699	0	-33.36047	-34.17414	17.90074	17.08707	-34.17414	46.37919	30.91946	-3.25468	-18.71441	-12.20505	10.57771	0
700	-6.50936	-30.91946	-26.03744	18.71441	8.95037	-28.47845	50.44754	36.61515	2.44101	-13.01872	-7.32303	13.01872	0
701	-13.01872	-27.66478	-16.2734	18.71441	0.81367	-21.96909	55.32956	43.93818	9.76404	-7.32303	-2.44101	15.45973	0
702	-13.01872	-21.96909	-9.76404	15.45973	-2.44101	-14.64606	59.39791	52.07488	17.08707	-1.62734	1.62734	18.71441	0
703	-6.50936	-15.45973	-8.95037	9.76404	-0.81367	-9.76404	62.65259	59.39791	22.78276	2.44101	5.69569	21.15542	0
704	0.81367	-9.76404	-11.39138	2.44101	0.81367	-6.50936	64.27993	64.27993	26.85111	5.69569	8.1367	22.78276	0
705	6.50936	-4.06835	-11.39138	-1.62734	4.06835	-4.88202	66.72094	69.16195	30.91946	9.76404	9.76404	24.4101	0
706	9.76404	0	-10.57771	-5.69569	9.76404	-3.25468	69.16195	71.60296	34.98781	13.83239	11.39138	25.22377	0
707	15.45973	4.88202	-9.76404	-11.39138	15.45973	-1.62734	72.41663	74.04397	38.24249	16.2734	12.20505	26.85111	0
708	21.15542	10.57771	-10.57771	-17.08707	19.52808	-0.81367	75.67131	76.48498	41.49717	20.34175	13.83239	27.66478	0
709	25.22377	13.83239	-11.39138	-21.15542	21.15542	0	78.11232	79.73966	46.37919	24.4101	16.2734	30.10579	0
710	25.22377	16.2734	-10.57771	-23.59643	18.71441	2.44101	81.367	82.99434	49.63387	28.47845	20.34175	31.73313	0
711	26.03744	20.34175	-7.32303	-24.4101	16.2734	5.69569	83.80801	86.24902	54.51589	32.5468	24.4101	34.17414	0
712	26.85111	26.03744	0	-26.85111	11.39138	13.01872	87.87636	90.31737	59.39791	37.42882	29.29212	37.42882	0
713	26.85111	34.17414	9.76404	-29.29212	4.88202	21.96909	93.57205	96.82673	65.90727	43.93818	35.80148	43.93818	0
714	26.85111	41.49717	19.52808	-31.73313	0	30.91946	100.08141	104.14976	72.41663	49.63387	42.31084	49.63387	0
715	26.03744	48.00653	24.4101	-35.80148	-1.62734	35.80148	105.7771	109.84545	77.29865	54.51589	47.19286	54.51589	0
716	26.03744	51.26121	23.59643	-38.24249	-2.44101	39.05616	107.40444	113.10013	81.367	57.77057	50.44754	57.77057	0
717	27.66478	52.88855	20.34175	-40.6835	0	39.05616	104.14976	111.47279	82.99434	60.21158	52.07488	59.39791	0
718	31.73313	54.51589	15.45973	-43.93818	4.06835	37.42882	97.6404	109.03178	85.43535	63.46626	53.70222	60.21158	0
719	36.61515	54.51589	11.39138	-47.19286	8.95037	34.98781	90.31737	107.40444	87.87636	66.72094	55.32956	60.21158	0
720	39.86983	52.88855	8.1367	-48.00653	12.20505	31.73313	85.43535	105.7771	89.5037	69.97562	57.77057	60.21158	0
721	40.6835	51.26121	7.32303	-47.19286	13.01872	30.10579	81.367	104.96343	91.94471	73.2303	59.39791	60.21158	0
722	39.05616	50.44754	8.95037	-46.37919	12.20505	30.10579	78.11232	104.14976	94.38572	75.67131	61.83892	61.02525	0
723	36.61515	48.8202	11.39138	-43.93818	10.57771	29.29212	73.2303	103.33609	95.19939	77.29865	63.46626	62.65259	0
724	34.17414	47.19286	12.20505	-42.31084	9.76404	26.85111	65.90727	98.45407	92.75838	76.48498	63.46626	63.46626	0
725	32.5468	44.75185	9.76404	-39.86983	10.57771	23.59643	56.14323	91.94471	88.69003	74.04397	61.83892	64.27993	0
726	32.5468	40.6835	6.50936	-37.42882	12.20505	19.52808	43.12451	82.18067	82.99434	70.78929	61.02525	65.0936	0
727	31.73313	35.80148	2.44101	-34.98781	13.01872	17.08707	30.10579	72.41663	77.29865	68.34828	60.21158	66.72094	0
728	28.47845	33.36047	2.44101	-32.5468	12.20505	16.2734	20.34175	62.65259	72.41663	66.72094	61.02525	69.16195	0
729	28.47845	34.98781	3.25468	-33.36047	12.20505	18.71441	13.01872	55.32956	69.16195	66.72094	63.46626	70.78929	0
730	39.86983	40.6835	3.25468	-41.49717	20.34175	21.96909	7.32303	49.63387	66.72094	66.72094	65.90727	72.41663	0
731	60.21158	50.44754	1.62734	-56.14323	36.61515	25.22377	4.06835	45.56552	65.0936	67.53461	68.34828	73.2303	0
732	74.85764	60.21158	0	-68.34828	48.8202	29.29212	2.44101	44.75185	66.72094	70.78929	71.60296	76.48498	0
733	79.73966	69.16195	-1.62734	-75.67131	52.07488	33.36047	3.25468	49.63387	72.41663	76.48498	78.11232	81.367	0
734	79.73966	74.85764	-5.69569	-78.92599	52.07488	36.61515	7.32303	56.9569	79.73966	84.62168	84.62168	85.43535	0
735	80.55333	74.85764	-13.01872	-78.92599	52.88855	34.98781	12.20505	64.27993	86.24902	91.13104	90.31737	87.87636	0
736	82.18067	68.34828	-21.15542	-76.48498	55.32956	26.85111	17.08707	69.97562	90.31737	94.38572	91.94471	88.69003	0
737	84.62168	60.21158	-30.10579	-73.2303	57.77057	17.08707	21.15542	72.41663	91.94471	95.19939	91.13104	87.06269	0
738	86.24902	51.26121	-37.42882	-69.16195	61.02525	8.1367	24.4101	73.2303	91.94471	95.19939	88.69003	84.62168	0
739	85.43535	44.75185	-40.6835	-65.0936	61.83892	0	26.03744	72.41663	91.13104	95.19939	87.06269	82.99434	0
740	81.367	39.05616	-40.6835	-60.21158	60.21158	-3.25468	26.85111	71.60296	89.5037	93.57205	84.62168	79.73966	0
741	73.2303	34.17414	-38.24249	-53.70222	54.51589	-4.06835	26.85111	69.97562	87.87636	91.13104	81.367	76.48498	0
742	61.02525	27.66478	-31.73313	-44.75185	45.56552	-3.25468	27.66478	69.16195	85.43535	88.69003	78.11232	73.2303	0
743	44.75185	20.34175	-23.59643	-34.17414	33.36047	-1.62734	30.91946	69.16195	82.99434	85.43535	74.04397	69.16195	0
744	29.29212	11.39138	-17.08707	-21.15542	22.78276	-3.25468	34.98781	69.97562	79.73966	81.367	68.34828	63.46626	0
745	14.64606	0.81367	-13.83239	-8.1367	15.45973	-6.50936	39.86983	70.78929	76.48498	74.85764	61.83892	55.32956	0
746	3.25468	-11.39138	-13.83239	3.25468	11.39138	-12.20505	43.12451	69.97562	71.60296	68.34828	53.70222	46.37919	0
747	-2.44101	-23.59643	-17.90074	14.64606	9.76404	-21.15542	44.75185	67.53461	66.72094	61.02525	44.75185	36.61515	0
748	-4.88202	-35.80148	-26.85111	21.96909	12.20505	-31.73313	42.31084	61.83892	59.39791	52.07488	34.17414	26.03744	0
749	-6.50936	-46.37919	-39.05616	26.85111	17.08707	-42.31084	39.05616	54.51589	52.07488	43.12451	24.4101	16.2734	0
750	-5.69569	-53.70222	-48.8202	27.66478	22.78276	-52.07488	34.98781	48.00653	47.19286	34.98781	16.2734	7.32303	0
751	-3.25468	-57.77057	-53.70222	27.66478	28.47845	-56.9569	33.36047	43.93818	44.75185	30.91946	12.20505	2.44101	0
752	-3.25468	-58.58424	-53.70222	27.66478	28.47845	-58.58424	34.17414	43.93818	44.75185	30.10579	11.39138	0.81367	0
753	-5.69569	-58.58424	-50.44754	30.10579	24.4101	-56.9569	36.61515	46.37919	45.56552	30.91946	13.01872	2.44101	0
754	-8.1367	-58.58424	-47.19286	34.17414	21.15542	-54.51589	39.86983	50.44754	48.00653	32.5468	16.2734	5.69569	0
755	-10.57771	-59.39791	-46.37919	37.42882	17.90074	-53.70222	43.93818	53.70222	49.63387	34.98781	18.71441	8.1367	0
756	-13.83239	-60.21158	-48.00653	40.6835	16.2734	-55.32956	46.37919	53.70222	51.26121	36.61515	20.34175	8.95037	0
757	-14.64606	-63.46626	-51.26121	42.31084	16.2734	-59.39791	47.19286	52.88855	52.88855	38.24249	21.15542	9.76404	0
758	-13.01872	-66.72094	-55.32956	41.49717	17.08707	-63.46626	47.19286	52.88855	54.51589	39.05616	21.96909	8.95037	0
759	-10.57771	-69.16195	-58.58424	40.6835	19.52808	-68.34828	47.19286	52.88855	56.14323	40.6835	21.96909	7.32303	0
760	-8.1367	-70.78929	-60.21158	42.31084	22.78276	-70.78929	45.56552	52.88855	56.14323	40.6835	22.78276	4.88202	0
761	-7.32303	-71.60296	-59.39791	42.31084	25.22377	-70.78929	43.93818	53.70222	56.9569	41.49717	22.78276	2.44101	0
762	-9.76404	-72.41663	-56.14323	43.93818	24.4101	-69.16195	44.75185	54.51589	56.9569	42.31084	24.4101	2.44101	0
763	-17.90074	-74.04397	-50.44754	47.19286	17.08707	-65.0936	46.37919	56.14323	58.58424	43.12451	26.85111	2.44101	0
764	-28.47845	-75.67131	-44.75185	51.26121	8.95037	-61.02525	49.63387	57.77057	59.39791	44.75185	29.29212	3.25468	0
765	-35.80148	-78.11232	-40.6835	55.32956	2.44101	-59.39791	52.07488	58.58424	59.39791	45.56552	30.10579	4.06835	0
766	-39.86983	-82.18067	-41.49717	59.39791	0	-61.83892	52.07488	56.14323	56.14323	45.56552	30.10579	3.25468	0
767	-36.61515	-87.87636	-51.26121	62.65259	6.50936	-69.16195	48.00653	49.63387	50.44754	41.49717	26.03744	-0.81367	0
768	-23.59643	-97.6404	-75.67131	65.90727	25.22377	-86.24902	39.86983	39.86983	39.86983	32.5468	17.08707	-9.76404	0
769	-5.69569	-113.9138	-110.65912	67.53461	52.07488	-112.28646	29.29212	24.4101	21.96909	14.64606	0.81367	-23.59643	0
770	8.1367	-135.06922	-148.90161	69.97562	78.11232	-143.20592	17.08707	4.06835	-4.06835	-10.57771	-20.34175	-39.86983	0
771	16.2734	-152.15629	-179.0074	70.78929	96.82673	-169.24336	4.88202	-20.34175	-37.42882	-41.49717	-44.75185	-52.07488	0
772	18.71441	-161.10666	-193.65346	71.60296	105.7771	-183.07575	-5.69569	-45.56552	-71.60296	-69.97562	-61.83892	-58.58424	0
773	19.52808	-161.10666	-192.83979	69.16195	105.7771	-181.44841	-13.83239	-65.90727	-100.08141	-89.5037	-67.53461	-56.9569	0
774	19.52808	-150.52895	-179.0074	62.65259	99.26774	-167.61602	-13.01872	-78.92599	-118.79582	-96.82673	-60.21158	-44.75185	0
775	20.34175	-132.62821	-157.85198	52.88855	89.5037	-146.4606	8.1367	-74.04397	-130.1872	-95.19939	-40.6835	-25.22377	0
776	21.15542	-113.9138	-138.3239	43.93818	79.73966	-126.93252	62.65259	-35.80148	-132.62821	-88.69003	-17.08707	-2.44101	0
777	23.59643	-99.26774	-124.49151	34.98781	73.2303	-111.47279	152.96996	21.96909	-129.37353	-81.367	5.69569	17.90074	0
778	29.29212	-83.80801	-114.72747	25.22377	70.78929	-99.26774	266.07009	74.85764	-126.93252	-75.67131	25.22377	39.86983	0
779	39.05616	-58.58424	-100.08141	7.32303	69.16195	-79.73966	378.35655	114.72747	-135.06922	-73.2303	47.19286	69.97562	0
780	54.51589	-16.2734	-72.41663	-20.34175	62.65259	-43.93818	461.35089	105.7771	-166.80235	-76.48498	74.04397	112.28646	0
781	71.60296	44.75185	-27.66478	-59.39791	48.8202	8.1367	489.01567	8.1367	-231.89595	-87.06269	105.7771	168.42969	0
782	88.69003	125.30518	34.98781	-108.21811	25.22377	80.55333	448.33217	-185.51676	-331.16369	-101.70875	141.57858	235.15063	0
783	105.7771	224.57292	117.98215	-165.98868	-6.50936	171.68437	337.67305	-452.40052	-450.77318	-114.72747	183.07575	313.26295	0
784	122.0505	338.48672	214.80888	-231.08228	-46.37919	276.6478	170.05703	-754.27209	-572.01001	-122.0505	234.33696	400.32564	0
785	131.81454	462.16456	328.72268	-297.80322	-98.45407	394.62995	-29.29212	-1048.82063	-678.60078	-121.23683	296.17588	495.52503	0
786	122.86417	589.91075	465.41924	-358.0148	-171.68437	527.25816	-233.52329	-1305.94035	-763.22246	-110.65912	361.26948	589.09708	0
787	90.31737	704.63822	624.08489	-401.95298	-266.88376	669.65041	-425.54941	-1511.79886	-826.68872	-97.6404	420.66739	668.83674	0
788	46.37919	787.63256	778.68219	-426.36308	-367.77884	801.46495	-600.48846	-1663.14148	-868.99956	-83.80801	467.86025	722.53896	0
789	12.20505	841.33478	885.27296	-436.12712	-441.00914	888.52764	-750.20374	-1748.57683	-882.01828	-66.72094	495.52503	753.45842	0
790	-6.50936	851.91249	911.3104	-427.99042	-465.41924	902.36003	-858.42185	-1751.83151	-851.91249	-39.86983	501.22072	755.89943	0
791	-14.64606	799.83761	850.28515	-395.44362	-437.75446	838.89377	-902.36003	-1663.14148	-774.61384	-2.44101	485.76099	719.28428	0
792	-14.64606	687.55115	721.72529	-337.67305	-371.84719	711.96125	-873.06791	-1485.76142	-658.25903	36.61515	445.07749	641.17196	0
793	-11.39138	535.39486	556.55028	-260.3744	-288.03918	548.41358	-777.86852	-1240.84675	-515.05311	69.97562	381.61123	530.51284	0
794	-8.95037	375.91554	393.81628	-179.0074	-206.67218	384.86591	-639.54462	-960.94427	-358.82847	100.08141	310.82194	410.08968	0
795	-7.32303	235.9643	252.2377	-109.03178	-135.88289	243.28733	-484.13365	-678.60078	-199.34915	135.88289	252.2377	302.68524	0
796	-3.25468	125.30518	135.06922	-56.14323	-74.85764	129.37353	-334.41837	-419.85372	-48.00653	177.38006	213.99521	218.06356	0
797	3.25468	43.12451	42.31084	-21.15542	-22.78276	41.49717	-205.85851	-203.4175	83.80801	221.31824	194.46713	159.47932	0
798	10.57771	-13.01872	-25.22377	0.81367	16.2734	-20.34175	-105.7771	-38.24249	189.58511	262.81541	189.58511	124.49151	0
799	15.45973	-47.19286	-66.72094	13.83239	40.6835	-57.77057	-34.98781	74.85764	265.25642	296.98955	193.65346	108.21811	0
800	16.2734	-64.27993	-85.43535	21.15542	51.26121	-74.85764	10.57771	147.27427	314.89029	320.58598	201.79016	102.52242	0
801	14.64606	-70.78929	-89.5037	25.22377	52.07488	-79.73966	39.05616	190.39878	344.99608	336.04571	208.29952	100.89508	0
802	10.57771	-73.2303	-86.24902	28.47845	48.8202	-78.92599	54.51589	216.43622	362.08315	344.18241	213.18154	101.70875	0
803	4.88202	-74.85764	-81.367	32.5468	42.31084	-77.29865	64.27993	233.52329	371.84719	347.43709	213.99521	101.70875	0
804	-0.81367	-77.29865	-77.29865	37.42882	37.42882	-77.29865	70.78929	244.91467	377.54288	348.25076	213.18154	100.08141	0
805	-4.88202	-81.367	-77.29865	41.49717	34.98781	-78.92599	76.48498	253.86504	380.79756	348.25076	211.5542	96.82673	0
806	-8.1367	-85.43535	-78.11232	45.56552	34.17414	-82.18067	81.367	260.3744	382.4249	348.25076	209.11319	93.57205	0
807	-11.39138	-90.31737	-79.73966	49.63387	33.36047	-84.62168	85.43535	266.88376	385.67958	348.25076	207.48585	91.94471	0
808	-14.64606	-94.38572	-80.55333	55.32956	31.73313	-85.43535	90.31737	274.20679	389.74793	349.06443	206.67218	91.13104	0
809	-19.52808	-97.6404	-79.73966	60.21158	29.29212	-86.24902	94.38572	281.52982	396.25729	349.8781	208.29952	91.13104	0
810	-21.96909	-100.08141	-79.73966	61.83892	28.47845	-87.06269	97.6404	286.41184	401.13931	351.50544	209.11319	90.31737	0
811	-16.2734	-103.33609	-87.06269	59.39791	34.17414	-92.75838	97.6404	288.85285	402.76665	350.69177	207.48585	87.06269	0
812	-2.44101	-106.59077	-104.14976	55.32956	49.63387	-104.14976	95.19939	289.66652	400.32564	347.43709	202.60383	82.18067	0
813	16.2734	-109.84545	-126.93252	49.63387	70.78929	-117.98215	91.13104	289.66652	395.44362	341.7414	197.72181	76.48498	0
814	30.10579	-112.28646	-144.01959	45.56552	86.24902	-127.74619	87.87636	290.48019	390.5616	336.85938	193.65346	72.41663	0
815	33.36047	-114.72747	-150.52895	43.93818	91.94471	-132.62821	88.69003	291.29386	388.93426	335.23204	191.21245	69.97562	0
816	30.10579	-117.98215	-148.08794	46.37919	87.87636	-132.62821	90.31737	292.10753	388.93426	335.23204	190.39878	69.16195	0
817	22.78276	-120.42316	-140.76491	50.44754	78.92599	-131.81454	92.75838	293.73487	389.74793	335.23204	190.39878	69.97562	0
818	15.45973	-122.86417	-134.25555	54.51589	71.60296	-131.00087	95.19939	296.17588	392.18894	335.23204	188.77144	69.16195	0
819	11.39138	-125.30518	-131.81454	56.9569	69.16195	-131.00087	96.01306	296.98955	393.00261	333.6047	187.95777	68.34828	0
820	11.39138	-126.11885	-134.25555	58.58424	70.78929	-131.81454	96.82673	297.80322	393.00261	331.97736	186.33043	66.72094	0
821	12.20505	-126.11885	-136.69656	59.39791	73.2303	-131.81454	97.6404	299.43056	393.00261	330.35002	185.51676	65.90727	0
822	13.01872	-124.49151	-139.13757	57.77057	74.04397	-131.00087	99.26774	301.87157	394.62995	329.53635	185.51676	65.90727	0
823	13.01872	-123.67784	-140.76491	55.32956	75.67131	-131.00087	100.89508	305.12625	395.44362	329.53635	187.1441	67.53461	0
824	13.01872	-123.67784	-141.57858	53.70222	76.48498	-132.62821	104.14976	308.38093	396.25729	330.35002	187.95777	69.16195	0
825	14.64606	-126.11885	-143.20592	53.70222	78.11232	-135.06922	106.59077	310.82194	396.25729	331.16369	189.58511	71.60296	0
826	16.2734	-129.37353	-147.27427	53.70222	81.367	-139.13757	108.21811	310.82194	395.44362	331.16369	189.58511	73.2303	0
827	18.71441	-131.81454	-153.78363	53.70222	85.43535	-143.20592	109.03178	310.00827	394.62995	331.16369	188.77144	74.04397	0
828	19.52808	-134.25555	-158.66565	52.88855	88.69003	-147.27427	109.03178	310.00827	393.00261	330.35002	187.95777	74.04397	0
829	19.52808	-135.88289	-161.92033	54.51589	89.5037	-149.71528	109.84545	310.00827	393.00261	329.53635	187.1441	74.04397	0
830	17.90074	-137.51023	-160.29299	56.9569	88.69003	-149.71528	110.65912	311.63561	393.00261	329.53635	187.1441	73.2303	0
831	14.64606	-139.13757	-157.03831	59.39791	87.06269	-148.08794	111.47279	314.07662	393.00261	328.72268	187.1441	73.2303	0
832	13.01872	-139.95124	-155.41097	61.02525	85.43535	-147.27427	112.28646	316.51763	393.00261	328.72268	187.1441	73.2303	0
833	12.20505	-139.13757	-154.5973	61.02525	85.43535	-146.4606	113.9138	318.14497	393.00261	327.90901	187.1441	73.2303	0
834	13.01872	-139.13757	-155.41097	60.21158	85.43535	-146.4606	114.72747	319.77231	393.00261	327.90901	186.33043	73.2303	0
835	13.83239	-139.95124	-157.85198	60.21158	87.06269	-148.08794	115.54114	319.77231	392.18894	327.09534	184.70309	71.60296	0
836	13.01872	-142.39225	-160.29299	62.65259	88.69003	-149.71528	115.54114	318.95864	390.5616	325.468	183.07575	70.78929	0
837	13.01872	-144.01959	-161.10666	65.90727	88.69003	-150.52895	115.54114	318.14497	388.93426	323.84066	180.63474	69.16195	0
838	14.64606	-144.83326	-162.734	69.16195	89.5037	-152.15629	113.9138	316.51763	388.12059	323.02699	179.82107	68.34828	0
839	13.01872	-145.64693	-163.54767	71.60296	87.06269	-153.78363	113.9138	315.70396	388.12059	322.21332	179.0074	68.34828	0
840	6.50936	-146.4606	-161.10666	74.85764	79.73966	-153.78363	116.35481	317.3313	388.12059	322.21332	179.0074	69.97562	0
841	0.81367	-146.4606	-156.22464	77.29865	74.04397	-152.15629	118.79582	318.95864	387.30692	322.21332	179.0074	71.60296	0
842	-0.81367	-147.27427	-151.34262	77.29865	71.60296	-149.71528	119.60949	320.58598	386.49325	321.39965	179.82107	72.41663	0
843	-0.81367	-147.27427	-148.90161	75.67131	71.60296	-148.90161	117.98215	320.58598	385.67958	319.77231	179.0074	71.60296	0
844	0	-148.08794	-148.90161	74.04397	73.2303	-148.90161	116.35481	319.77231	384.86591	317.3313	177.38006	69.97562	0
845	2.44101	-148.08794	-152.96996	71.60296	76.48498	-149.71528	116.35481	319.77231	383.23857	314.89029	174.93905	67.53461	0
846	7.32303	-148.08794	-158.66565	69.16195	81.367	-152.96996	116.35481	318.95864	381.61123	311.63561	172.49804	64.27993	0
847	10.57771	-148.90161	-165.17501	67.53461	86.24902	-157.03831	117.16848	317.3313	378.35655	309.1946	169.24336	61.83892	0
848	12.20505	-151.34262	-170.8707	68.34828	88.69003	-160.29299	118.79582	317.3313	375.10187	307.56726	167.61602	61.02525	0
849	8.95037	-154.5973	-170.05703	71.60296	87.87636	-163.54767	120.42316	317.3313	373.47453	305.93992	166.80235	60.21158	0
850	1.62734	-157.85198	-163.54767	77.29865	81.367	-163.54767	122.0505	318.14497	373.47453	305.12625	166.80235	60.21158	0
851	-6.50936	-160.29299	-154.5973	82.18067	73.2303	-161.92033	123.67784	319.77231	373.47453	305.12625	166.80235	59.39791	0
852	-13.01872	-161.10666	-146.4606	86.24902	67.53461	-157.85198	125.30518	321.39965	373.47453	305.12625	167.61602	59.39791	0
853	-17.08707	-161.92033	-140.76491	88.69003	62.65259	-152.96996	127.74619	323.02699	373.47453	304.31258	168.42969	60.21158	0
854	-21.15542	-162.734	-136.69656	91.13104	59.39791	-149.71528	130.1872	323.84066	372.66086	303.49891	170.05703	61.83892	0
855	-21.96909	-163.54767	-135.06922	94.38572	58.58424	-148.08794	132.62821	325.468	371.03352	302.68524	170.05703	62.65259	0
856	-21.15542	-165.98868	-136.69656	96.01306	59.39791	-149.71528	134.25555	324.65433	368.59251	300.24423	169.24336	61.83892	0
857	-18.71441	-167.61602	-143.20592	95.19939	63.46626	-154.5973	132.62821	321.39965	363.71049	296.17588	165.17501	59.39791	0
858	-11.39138	-170.05703	-156.22464	91.13104	73.2303	-162.734	128.55986	316.51763	357.20113	289.66652	159.47932	54.51589	0
859	-1.62734	-172.49804	-172.49804	85.43535	84.62168	-172.49804	123.67784	310.82194	349.8781	282.34349	152.96996	49.63387	0
860	4.06835	-174.93905	-186.33043	80.55333	93.57205	-180.63474	118.79582	305.93992	344.18241	276.6478	147.27427	44.75185	0
861	7.32303	-178.19373	-194.46713	78.92599	98.45407	-186.33043	115.54114	301.87157	338.48672	271.76578	144.01959	41.49717	0
862	9.76404	-179.82107	-197.72181	79.73966	99.26774	-187.95777	113.10013	300.24423	335.23204	268.5111	141.57858	40.6835	0
863	11.39138	-180.63474	-196.90814	80.55333	99.26774	-187.95777	112.28646	299.43056	332.79103	265.25642	139.95124	39.86983	0
864	13.01872	-180.63474	-196.09447	81.367	100.08141	-187.95777	112.28646	298.61689	328.72268	260.3744	136.69656	38.24249	0
865	15.45973	-181.44841	-196.90814	82.18067	104.14976	-189.58511	111.47279	296.98955	322.21332	253.86504	131.81454	35.80148	0
866	18.71441	-183.88942	-200.97649	82.18067	108.21811	-192.83979	109.84545	292.9212	314.89029	246.54201	126.11885	32.5468	0
867	21.15542	-187.95777	-205.04484	83.80801	110.65912	-196.90814	108.21811	288.85285	307.56726	240.03265	120.42316	29.29212	0
868	21.15542	-191.21245	-209.11319	84.62168	113.10013	-200.16282	106.59077	285.59817	301.87157	234.33696	115.54114	26.03744	0
869	19.52808	-194.46713	-211.5542	86.24902	113.9138	-202.60383	105.7771	282.34349	296.98955	230.26861	111.47279	23.59643	0
870	16.2734	-196.90814	-210.74053	87.87636	113.10013	-202.60383	105.7771	280.71615	292.9212	226.20026	108.21811	20.34175	0
871	11.39138	-198.53548	-208.29952	91.13104	111.47279	-201.79016	106.59077	280.71615	288.85285	222.13191	105.7771	18.71441	0
872	6.50936	-199.34915	-205.04484	93.57205	109.03178	-201.79016	108.21811	279.90248	284.7845	218.06356	104.14976	17.08707	0
873	4.06835	-200.16282	-202.60383	96.01306	107.40444	-202.60383	109.03178	279.08881	279.90248	212.36787	101.70875	16.2734	0
874	3.25468	-200.97649	-201.79016	96.82673	105.7771	-204.23117	109.84545	277.46147	274.20679	206.67218	98.45407	14.64606	0
875	2.44101	-203.4175	-204.23117	96.82673	105.7771	-207.48585	109.84545	275.02046	267.69743	200.16282	93.57205	13.01872	0
876	2.44101	-206.67218	-209.11319	98.45407	106.59077	-210.74053	108.21811	270.13844	259.56073	191.21245	87.06269	9.76404	0
877	2.44101	-210.74053	-213.99521	100.08141	108.21811	-215.62255	104.96343	263.62908	250.61036	180.63474	79.73966	4.88202	0
878	1.62734	-213.99521	-219.6909	103.33609	110.65912	-219.6909	102.52242	257.11972	240.84632	170.05703	71.60296	0	0
879	0	-216.43622	-224.57292	106.59077	111.47279	-222.94558	100.89508	249.79669	231.08228	159.47932	63.46626	-4.06835	0
880	-0.81367	-218.87723	-227.01393	109.84545	110.65912	-223.75925	100.08141	244.101	222.13191	149.71528	56.14323	-8.1367	0
881	-1.62734	-219.6909	-226.20026	110.65912	109.84545	-223.75925	99.26774	239.21898	213.18154	140.76491	50.44754	-11.39138	0
882	-1.62734	-218.06356	-223.75925	110.65912	109.03178	-222.13191	97.6404	234.33696	204.23117	131.81454	45.56552	-14.64606	0
883	-3.25468	-214.80888	-217.24989	109.84545	105.7771	-217.24989	95.19939	228.64127	194.46713	121.23683	38.24249	-18.71441	0
884	-6.50936	-210.74053	-205.85851	109.84545	97.6404	-209.11319	91.94471	222.13191	182.26208	109.03178	30.10579	-22.78276	0
885	-9.76404	-204.23117	-191.21245	109.84545	87.87636	-198.53548	87.87636	213.18154	168.42969	96.01306	21.15542	-28.47845	0
886	-13.01872	-196.90814	-177.38006	108.21811	81.367	-187.1441	82.18067	202.60383	152.96996	81.367	8.95037	-35.80148	0
887	-13.01872	-187.95777	-168.42969	103.33609	78.92599	-178.19373	74.85764	189.58511	135.06922	64.27993	-3.25468	-45.56552	0
888	-10.57771	-179.0074	-165.17501	96.01306	78.92599	-172.49804	66.72094	175.75272	116.35481	46.37919	-17.90074	-56.14323	0
889	-7.32303	-171.68437	-163.54767	89.5037	79.73966	-168.42969	58.58424	161.10666	96.82673	27.66478	-32.5468	-66.72094	0
890	-4.06835	-165.98868	-161.10666	85.43535	78.92599	-163.54767	52.88855	148.90161	79.73966	10.57771	-44.75185	-74.85764	0
891	-3.25468	-161.10666	-157.03831	81.367	77.29865	-158.66565	48.8202	139.13757	63.46626	-3.25468	-55.32956	-81.367	0
892	-4.88202	-155.41097	-149.71528	79.73966	71.60296	-151.34262	44.75185	131.00087	49.63387	-16.2734	-62.65259	-84.62168	0
893	-11.39138	-150.52895	-139.95124	80.55333	63.46626	-144.83326	41.49717	123.67784	34.98781	-29.29212	-69.97562	-87.87636	0
894	-19.52808	-148.08794	-131.00087	83.80801	55.32956	-139.95124	38.24249	115.54114	19.52808	-43.12451	-77.29865	-91.13104	0
895	-26.03744	-147.27427	-123.67784	86.24902	48.00653	-135.88289	34.98781	106.59077	4.88202	-56.9569	-86.24902	-94.38572	0
896	-29.29212	-144.01959	-117.16848	86.24902	43.93818	-131.00087	32.5468	97.6404	-8.1367	-69.97562	-93.57205	-97.6404	0
897	-33.36047	-141.57858	-109.84545	87.06269	39.86983	-126.93252	30.10579	88.69003	-21.96909	-82.18067	-100.89508	-100.08141	0
898	-38.24249	-139.95124	-103.33609	87.87636	35.80148	-125.30518	26.85111	78.11232	-35.80148	-95.19939	-108.21811	-102.52242	0
899	-38.24249	-139.95124	-102.52242	87.06269	34.98781	-126.11885	21.15542	65.90727	-52.07488	-109.03178	-117.98215	-107.40444	0
900	-32.5468	-138.3239	-106.59077	83.80801	38.24249	-126.11885	13.83239	50.44754	-70.78929	-126.11885	-129.37353	-115.54114	0
901	-26.03744	-135.88289	-110.65912	78.92599	43.12451	-125.30518	5.69569	34.17414	-90.31737	-143.20592	-140.76491	-123.67784	0
902	-19.52808	-131.81454	-112.28646	73.2303	46.37919	-122.86417	0	21.15542	-109.03178	-159.47932	-151.34262	-129.37353	0
903	-14.64606	-127.74619	-113.10013	67.53461	48.8202	-120.42316	-4.06835	10.57771	-124.49151	-173.31171	-159.47932	-132.62821	0
904	-12.20505	-123.67784	-113.9138	62.65259	50.44754	-117.98215	-8.1367	0	-139.13757	-186.33043	-167.61602	-135.06922	0
905	-9.76404	-121.23683	-115.54114	60.21158	53.70222	-117.98215	-13.01872	-10.57771	-154.5973	-200.16282	-176.56639	-138.3239	0
906	-8.1367	-121.23683	-118.79582	61.02525	56.14323	-119.60949	-17.90074	-22.78276	-170.05703	-213.99521	-186.33043	-142.39225	0
907	-7.32303	-122.86417	-118.79582	63.46626	55.32956	-120.42316	-23.59643	-34.98781	-184.70309	-226.20026	-195.2808	-145.64693	0
908	-8.95037	-124.49151	-116.35481	67.53461	52.07488	-120.42316	-26.85111	-46.37919	-197.72181	-237.59164	-201.79016	-148.08794	0
909	-11.39138	-125.30518	-113.9138	69.97562	48.8202	-117.98215	-30.91946	-56.14323	-209.92686	-248.16935	-208.29952	-150.52895	0
910	-14.64606	-124.49151	-111.47279	70.78929	46.37919	-116.35481	-34.98781	-66.72094	-222.13191	-258.74706	-214.80888	-152.96996	0
911	-15.45973	-123.67784	-109.03178	69.97562	45.56552	-113.9138	-39.86983	-77.29865	-235.15063	-269.32477	-221.31824	-156.22464	0
912	-13.83239	-120.42316	-108.21811	66.72094	45.56552	-111.47279	-44.75185	-87.87636	-247.35568	-279.08881	-226.20026	-158.66565	0
913	-9.76404	-117.16848	-107.40444	62.65259	47.19286	-109.84545	-48.8202	-97.6404	-258.74706	-287.22551	-231.08228	-159.47932	0
914	-7.32303	-115.54114	-106.59077	60.21158	47.19286	-109.03178	-52.88855	-107.40444	-269.32477	-295.36221	-234.33696	-159.47932	0
915	-7.32303	-116.35481	-106.59077	58.58424	47.19286	-109.84545	-56.9569	-117.98215	-281.52982	-302.68524	-237.59164	-160.29299	0
916	-7.32303	-116.35481	-106.59077	56.9569	47.19286	-110.65912	-61.83892	-129.37353	-292.9212	-310.82194	-240.84632	-160.29299	0
917	-7.32303	-116.35481	-108.21811	57.77057	48.8202	-112.28646	-65.0936	-140.76491	-302.68524	-318.14497	-242.47366	-160.29299	0
918	-8.1367	-116.35481	-108.21811	58.58424	48.8202	-112.28646	-68.34828	-150.52895	-312.44928	-324.65433	-244.101	-159.47932	0
919	-9.76404	-115.54114	-106.59077	60.21158	47.19286	-111.47279	-69.97562	-159.47932	-319.77231	-329.53635	-244.101	-158.66565	0
920	-13.01872	-113.9138	-102.52242	61.83892	43.93818	-108.21811	-71.60296	-165.98868	-325.468	-333.6047	-244.101	-157.85198	0
921	-15.45973	-111.47279	-96.01306	62.65259	39.86983	-104.14976	-72.41663	-170.8707	-330.35002	-336.04571	-243.28733	-155.41097	0
922	-18.71441	-108.21811	-89.5037	62.65259	34.98781	-100.08141	-74.04397	-176.56639	-336.04571	-338.48672	-242.47366	-152.96996	0
923	-21.15542	-105.7771	-85.43535	62.65259	30.91946	-96.82673	-74.85764	-182.26208	-341.7414	-341.7414	-242.47366	-151.34262	0
924	-22.78276	-104.14976	-82.99434	62.65259	29.29212	-94.38572	-76.48498	-188.77144	-347.43709	-344.18241	-243.28733	-149.71528	0
925	-23.59643	-102.52242	-79.73966	61.83892	26.85111	-91.13104	-76.48498	-193.65346	-353.13278	-346.62342	-244.101	-148.90161	0
926	-21.96909	-100.08141	-77.29865	61.02525	25.22377	-88.69003	-78.11232	-199.34915	-358.0148	-349.06443	-244.91467	-148.90161	0
927	-19.52808	-97.6404	-77.29865	58.58424	24.4101	-87.87636	-80.55333	-205.85851	-362.08315	-352.31911	-245.72834	-149.71528	0
928	-18.71441	-96.01306	-76.48498	56.9569	24.4101	-86.24902	-82.99434	-210.74053	-365.33783	-353.94645	-247.35568	-150.52895	0
929	-19.52808	-93.57205	-74.85764	55.32956	24.4101	-84.62168	-85.43535	-213.99521	-366.1515	-354.76012	-246.54201	-151.34262	0
930	-20.34175	-91.13104	-70.78929	54.51589	22.78276	-81.367	-87.06269	-215.62255	-365.33783	-353.94645	-245.72834	-150.52895	0
931	-21.15542	-87.06269	-65.90727	52.88855	20.34175	-75.67131	-87.06269	-216.43622	-363.71049	-352.31911	-243.28733	-148.90161	0
932	-22.78276	-81.367	-58.58424	51.26121	17.08707	-69.97562	-87.87636	-217.24989	-362.89682	-350.69177	-240.84632	-147.27427	0
933	-24.4101	-74.85764	-51.26121	48.00653	13.01872	-62.65259	-88.69003	-218.87723	-361.26948	-348.25076	-239.21898	-145.64693	0
934	-24.4101	-66.72094	-43.93818	44.75185	8.95037	-55.32956	-90.31737	-221.31824	-360.45581	-346.62342	-237.59164	-145.64693	0
935	-23.59643	-56.14323	-34.98781	39.05616	4.88202	-45.56552	-91.94471	-223.75925	-359.64214	-344.99608	-237.59164	-145.64693	0
936	-22.78276	-45.56552	-23.59643	34.17414	0	-34.98781	-91.94471	-225.38659	-358.82847	-343.36874	-236.77797	-144.83326	0
937	-22.78276	-34.98781	-11.39138	29.29212	-6.50936	-23.59643	-91.13104	-224.57292	-356.38746	-340.11406	-235.9643	-144.83326	0
938	-24.4101	-25.22377	-0.81367	24.4101	-12.20505	-13.01872	-90.31737	-223.75925	-353.94645	-337.67305	-235.15063	-144.01959	0
939	-26.03744	-17.08707	8.1367	20.34175	-17.90074	-4.06835	-89.5037	-223.75925	-350.69177	-334.41837	-234.33696	-144.01959	0
940	-29.29212	-8.95037	19.52808	17.90074	-24.4101	4.88202	-88.69003	-222.13191	-344.99608	-329.53635	-231.89595	-144.01959	0
941	-33.36047	-1.62734	32.5468	15.45973	-34.17414	15.45973	-86.24902	-217.24989	-336.85938	-322.21332	-226.20026	-141.57858	0
942	-35.80148	4.88202	44.75185	14.64606	-42.31084	25.22377	-84.62168	-211.5542	-328.72268	-314.07662	-219.6909	-137.51023	0
943	-36.61515	12.20505	52.88855	12.20505	-48.00653	32.5468	-82.18067	-206.67218	-320.58598	-306.75359	-214.80888	-134.25555	0
944	-36.61515	18.71441	57.77057	8.95037	-49.63387	37.42882	-80.55333	-200.97649	-313.26295	-300.24423	-209.92686	-131.00087	0
945	-34.17414	23.59643	60.21158	4.88202	-48.8202	37.42882	-80.55333	-197.72181	-309.1946	-295.36221	-205.85851	-130.1872	0
946	-26.85111	25.22377	55.32956	0	-40.6835	33.36047	-82.99434	-196.09447	-305.93992	-292.9212	-201.79016	-131.81454	0
947	-15.45973	26.85111	43.93818	-6.50936	-27.66478	29.29212	-87.06269	-193.65346	-303.49891	-290.48019	-198.53548	-132.62821	0
948	-7.32303	30.10579	34.17414	-13.83239	-17.90074	27.66478	-89.5037	-189.58511	-296.98955	-285.59817	-196.09447	-133.44188	0
949	-4.06835	33.36047	32.5468	-17.90074	-15.45973	30.91946	-87.87636	-184.70309	-286.41184	-276.6478	-193.65346	-133.44188	0
950	-7.32303	36.61515	39.86983	-17.90074	-21.15542	37.42882	-82.99434	-176.56639	-274.20679	-264.44275	-187.95777	-131.00087	0
951	-16.2734	39.86983	52.07488	-14.64606	-32.5468	45.56552	-75.67131	-165.98868	-260.3744	-251.42403	-180.63474	-126.11885	0
952	-23.59643	43.93818	65.0936	-11.39138	-43.93818	53.70222	-69.16195	-155.41097	-247.35568	-239.21898	-171.68437	-120.42316	0
953	-27.66478	47.19286	74.85764	-10.57771	-50.44754	60.21158	-64.27993	-147.27427	-235.9643	-229.45494	-164.36134	-116.35481	0
954	-27.66478	50.44754	78.92599	-11.39138	-52.07488	63.46626	-61.02525	-140.76491	-227.8276	-221.31824	-157.85198	-113.10013	0
955	-26.03744	52.07488	77.29865	-13.83239	-50.44754	63.46626	-59.39791	-136.69656	-221.31824	-215.62255	-153.78363	-111.47279	0
956	-22.78276	53.70222	71.60296	-17.90074	-44.75185	61.83892	-56.9569	-133.44188	-216.43622	-210.74053	-152.15629	-112.28646	0
957	-16.2734	55.32956	67.53461	-22.78276	-37.42882	61.02525	-54.51589	-131.00087	-210.74053	-205.04484	-149.71528	-111.47279	0
958	-10.57771	58.58424	69.16195	-24.4101	-34.17414	63.46626	-52.07488	-125.30518	-202.60383	-196.90814	-144.83326	-109.03178	0
959	-8.1367	61.02525	74.04397	-25.22377	-34.98781	68.34828	-50.44754	-117.98215	-192.83979	-187.95777	-138.3239	-105.7771	0
960	-7.32303	63.46626	78.11232	-26.85111	-38.24249	72.41663	-48.8202	-110.65912	-183.88942	-179.0074	-132.62821	-102.52242	0
961	-7.32303	65.0936	79.73966	-29.29212	-41.49717	74.85764	-48.00653	-104.14976	-175.75272	-170.8707	-126.93252	-98.45407	0
962	-8.95037	69.16195	82.99434	-30.91946	-44.75185	77.29865	-46.37919	-97.6404	-167.61602	-163.54767	-122.0505	-93.57205	0
963	-10.57771	72.41663	85.43535	-32.5468	-48.00653	78.92599	-46.37919	-91.13104	-160.29299	-157.03831	-116.35481	-88.69003	0
964	-11.39138	74.85764	86.24902	-32.5468	-49.63387	79.73966	-45.56552	-87.06269	-154.5973	-152.15629	-112.28646	-86.24902	0
965	-12.20505	73.2303	82.99434	-31.73313	-48.00653	77.29865	-44.75185	-85.43535	-150.52895	-149.71528	-110.65912	-86.24902	0
966	-10.57771	70.78929	78.92599	-30.91946	-44.75185	74.04397	-44.75185	-83.80801	-148.08794	-146.4606	-110.65912	-87.87636	0
967	-8.1367	69.97562	75.67131	-31.73313	-41.49717	72.41663	-43.93818	-82.18067	-145.64693	-144.01959	-110.65912	-88.69003	0
968	-7.32303	69.97562	74.85764	-33.36047	-40.6835	72.41663	-42.31084	-79.73966	-141.57858	-140.76491	-109.84545	-88.69003	0
969	-8.95037	69.97562	77.29865	-33.36047	-42.31084	74.85764	-39.05616	-74.85764	-136.69656	-136.69656	-108.21811	-87.87636	0
970	-10.57771	70.78929	82.18067	-32.5468	-46.37919	78.11232	-34.98781	-68.34828	-130.1872	-131.00087	-104.14976	-85.43535	0
971	-13.83239	71.60296	87.87636	-30.10579	-51.26121	81.367	-30.91946	-62.65259	-122.86417	-125.30518	-99.26774	-81.367	0
972	-17.08707	72.41663	91.94471	-28.47845	-55.32956	85.43535	-26.85111	-56.9569	-117.98215	-121.23683	-95.19939	-78.11232	0
973	-19.52808	74.04397	94.38572	-27.66478	-57.77057	87.87636	-24.4101	-52.88855	-113.9138	-117.16848	-91.13104	-75.67131	0
974	-21.96909	76.48498	97.6404	-28.47845	-60.21158	89.5037	-21.15542	-49.63387	-111.47279	-114.72747	-87.06269	-73.2303	0
975	-25.22377	77.29865	100.89508	-28.47845	-63.46626	91.13104	-19.52808	-46.37919	-109.03178	-112.28646	-85.43535	-71.60296	0
976	-28.47845	77.29865	104.14976	-28.47845	-64.27993	90.31737	-18.71441	-43.93818	-107.40444	-110.65912	-83.80801	-69.97562	0
977	-29.29212	77.29865	104.96343	-27.66478	-63.46626	88.69003	-18.71441	-43.12451	-105.7771	-109.03178	-83.80801	-69.97562	0
978	-26.03744	77.29865	102.52242	-28.47845	-61.02525	86.24902	-19.52808	-42.31084	-104.96343	-109.03178	-83.80801	-69.97562	0
979	-20.34175	75.67131	96.01306	-30.10579	-56.14323	83.80801	-19.52808	-42.31084	-103.33609	-109.84545	-83.80801	-70.78929	0
980	-15.45973	74.85764	91.13104	-31.73313	-52.88855	82.18067	-19.52808	-41.49717	-103.33609	-110.65912	-84.62168	-71.60296	0
981	-11.39138	75.67131	88.69003	-32.5468	-50.44754	82.18067	-19.52808	-41.49717	-103.33609	-111.47279	-84.62168	-72.41663	0
982	-8.1367	77.29865	87.06269	-34.98781	-48.8202	82.18067	-19.52808	-41.49717	-104.14976	-111.47279	-83.80801	-72.41663	0
983	-5.69569	78.92599	85.43535	-36.61515	-46.37919	82.99434	-20.34175	-41.49717	-104.14976	-111.47279	-82.99434	-71.60296	0
984	-2.44101	79.73966	82.18067	-38.24249	-43.93818	81.367	-20.34175	-41.49717	-104.96343	-111.47279	-82.18067	-71.60296	0
985	0	79.73966	79.73966	-39.05616	-41.49717	79.73966	-19.52808	-41.49717	-104.96343	-110.65912	-82.99434	-71.60296	0
986	2.44101	78.11232	81.367	-37.42882	-41.49717	79.73966	-17.90074	-40.6835	-104.14976	-109.03178	-82.18067	-70.78929	0
987	4.06835	76.48498	83.80801	-34.17414	-41.49717	79.73966	-16.2734	-39.86983	-103.33609	-108.21811	-82.99434	-69.97562	0
988	3.25468	75.67131	84.62168	-33.36047	-40.6835	79.73966	-14.64606	-39.86983	-104.14976	-109.03178	-83.80801	-69.97562	0
989	0.81367	75.67131	82.99434	-34.17414	-40.6835	78.11232	-13.83239	-39.86983	-105.7771	-110.65912	-85.43535	-70.78929	0
990	0	75.67131	82.18067	-35.80148	-40.6835	78.11232	-13.83239	-39.05616	-106.59077	-112.28646	-86.24902	-71.60296	0
991	-1.62734	77.29865	82.18067	-38.24249	-41.49717	79.73966	-13.83239	-39.05616	-107.40444	-113.10013	-86.24902	-70.78929	0
992	-5.69569	78.92599	85.43535	-37.42882	-45.56552	82.18067	-13.01872	-39.05616	-107.40444	-113.10013	-83.80801	-68.34828	0
993	-13.01872	79.73966	91.94471	-34.17414	-52.88855	86.24902	-11.39138	-37.42882	-106.59077	-112.28646	-80.55333	-65.0936	0
994	-20.34175	78.92599	97.6404	-30.10579	-59.39791	88.69003	-8.95037	-36.61515	-105.7771	-110.65912	-78.92599	-62.65259	0
995	-26.03744	76.48498	100.08141	-26.03744	-63.46626	88.69003	-8.1367	-35.80148	-104.96343	-109.84545	-77.29865	-61.02525	0
996	-29.29212	74.04397	101.70875	-22.78276	-64.27993	87.06269	-7.32303	-35.80148	-104.14976	-108.21811	-76.48498	-60.21158	0
997	-30.10579	72.41663	101.70875	-21.15542	-64.27993	83.80801	-7.32303	-35.80148	-103.33609	-107.40444	-75.67131	-59.39791	0
998	-27.66478	71.60296	98.45407	-22.78276	-61.83892	79.73966	-6.50936	-36.61515	-102.52242	-105.7771	-74.85764	-57.77057	0
