samplenr	I	II	III	aVR	aVL	aVF	V1	V2	V3	V4	V5	V6	measurement
0	0	-4.06835	-4.06835	1.62734	1.62734	-4.06835	-3.25468	2.44101	-3.25468	-2.44101	0.81367	-10.57771	0
1	0	-17.90074	-18.71441	8.95037	8.95037	-17.90074	-13.83239	9.76404	-15.45973	-12.20505	3.25468	-46.37919	0
2	0	-37.42882	-37.42882	17.90074	18.71441	-36.61515	-28.47845	19.52808	-30.91946	-25.22377	7.32303	-94.38572	0
3	0	-53.70222	-50.44754	26.03744	25.22377	-50.44754	-39.86983	26.85111	-43.12451	-35.80148	10.57771	-133.44188	0
4	-2.44101	-63.46626	-56.9569	32.5468	26.85111	-58.58424	-48.00653	32.5468	-51.26121	-43.12451	13.01872	-157.85198	0
5	-7.32303	-66.72094	-56.9569	36.61515	24.4101	-60.21158	-52.07488	34.98781	-54.51589	-46.37919	14.64606	-169.24336	0
6	-10.57771	-65.0936	-53.70222	38.24249	21.15542	-58.58424	-53.70222	34.98781	-55.32956	-46.37919	13.83239	-171.68437	0
7	-9.76404	-61.02525	-53.70222	36.61515	20.34175	-56.14323	-52.88855	34.98781	-54.51589	-45.56552	12.20505	-169.24336	0
8	-7.32303	-59.39791	-56.9569	34.17414	22.78276	-52.07488	-51.26121	37.42882	-53.70222	-43.12451	11.39138	-166.80235	0
9	-5.69569	-58.58424	-59.39791	32.5468	23.59643	-50.44754	-48.8202	41.49717	-50.44754	-41.49717	11.39138	-164.36134	0
10	-5.69569	-60.21158	-60.21158	31.73313	25.22377	-52.88855	-48.00653	43.93818	-48.00653	-41.49717	10.57771	-163.54767	0
11	-4.88202	-63.46626	-61.83892	32.5468	26.85111	-57.77057	-48.00653	44.75185	-47.19286	-42.31084	9.76404	-163.54767	0
12	-4.06835	-65.90727	-61.02525	32.5468	27.66478	-62.65259	-48.00653	45.56552	-45.56552	-41.49717	8.1367	-162.734	0
13	-5.69569	-68.34828	-54.51589	31.73313	24.4101	-65.90727	-48.00653	45.56552	-43.12451	-39.86983	7.32303	-160.29299	0
14	-9.76404	-69.16195	-48.00653	29.29212	19.52808	-65.90727	-47.19286	46.37919	-41.49717	-38.24249	8.1367	-157.85198	0
15	-12.20505	-66.72094	-45.56552	28.47845	17.08707	-63.46626	-46.37919	45.56552	-43.12451	-37.42882	8.95037	-156.22464	0
16	-11.39138	-64.27993	-47.19286	29.29212	17.90074	-61.02525	-47.19286	44.75185	-45.56552	-39.05616	8.1367	-157.03831	0
17	-11.39138	-63.46626	-48.00653	30.10579	17.08707	-57.77057	-47.19286	44.75185	-48.00653	-41.49717	8.1367	-157.85198	0
18	-13.83239	-64.27993	-48.00653	31.73313	14.64606	-56.14323	-48.00653	46.37919	-48.8202	-43.12451	7.32303	-158.66565	0
19	-15.45973	-65.90727	-49.63387	32.5468	14.64606	-56.9569	-48.8202	48.8202	-47.19286	-43.12451	6.50936	-159.47932	0
20	-13.83239	-68.34828	-54.51589	34.17414	17.90074	-60.21158	-48.00653	52.07488	-43.93818	-42.31084	5.69569	-159.47932	0
21	-11.39138	-70.78929	-60.21158	35.80148	22.78276	-64.27993	-46.37919	55.32956	-40.6835	-40.6835	5.69569	-159.47932	0
22	-8.95037	-72.41663	-67.53461	37.42882	26.03744	-69.16195	-43.93818	57.77057	-38.24249	-39.05616	6.50936	-159.47932	0
23	-8.95037	-73.2303	-75.67131	39.05616	26.03744	-73.2303	-41.49717	59.39791	-37.42882	-39.05616	7.32303	-157.85198	0
24	-9.76404	-72.41663	-78.11232	39.05616	25.22377	-75.67131	-39.86983	60.21158	-37.42882	-38.24249	8.95037	-156.22464	0
25	-10.57771	-72.41663	-74.85764	39.05616	24.4101	-74.04397	-40.6835	58.58424	-38.24249	-38.24249	8.95037	-155.41097	0
26	-12.20505	-72.41663	-69.16195	41.49717	22.78276	-72.41663	-42.31084	56.14323	-41.49717	-39.05616	7.32303	-154.5973	0
27	-15.45973	-70.78929	-62.65259	44.75185	21.15542	-71.60296	-43.93818	56.14323	-44.75185	-39.05616	4.06835	-153.78363	0
28	-17.08707	-69.97562	-54.51589	48.8202	20.34175	-71.60296	-43.12451	58.58424	-44.75185	-38.24249	2.44101	-154.5973	0
29	-16.2734	-67.53461	-48.00653	49.63387	20.34175	-69.16195	-41.49717	61.83892	-41.49717	-37.42882	2.44101	-154.5973	0
30	-12.20505	-63.46626	-47.19286	45.56552	21.15542	-64.27993	-40.6835	65.90727	-36.61515	-34.98781	4.06835	-154.5973	0
31	-9.76404	-61.83892	-48.8202	41.49717	21.96909	-60.21158	-39.86983	69.16195	-32.5468	-34.17414	5.69569	-155.41097	0
32	-9.76404	-63.46626	-54.51589	39.05616	25.22377	-60.21158	-39.05616	71.60296	-30.91946	-33.36047	6.50936	-156.22464	0
33	-11.39138	-65.0936	-61.02525	39.05616	30.10579	-63.46626	-38.24249	72.41663	-30.10579	-34.17414	8.1367	-156.22464	0
34	-13.01872	-67.53461	-65.0936	39.86983	32.5468	-65.90727	-38.24249	71.60296	-30.91946	-34.98781	8.95037	-153.78363	0
35	-12.20505	-67.53461	-65.90727	39.86983	31.73313	-65.90727	-39.05616	69.16195	-32.5468	-34.17414	8.95037	-150.52895	0
36	-9.76404	-68.34828	-64.27993	38.24249	29.29212	-65.90727	-39.86983	65.90727	-33.36047	-33.36047	9.76404	-145.64693	0
37	-8.95037	-69.16195	-63.46626	38.24249	26.85111	-65.90727	-39.86983	64.27993	-33.36047	-32.5468	9.76404	-141.57858	0
38	-8.1367	-69.97562	-63.46626	39.05616	25.22377	-66.72094	-39.05616	65.90727	-32.5468	-31.73313	10.57771	-138.3239	0
39	-6.50936	-69.97562	-65.0936	40.6835	26.85111	-68.34828	-38.24249	68.34828	-31.73313	-30.91946	12.20505	-135.88289	0
40	-1.62734	-70.78929	-71.60296	39.05616	32.5468	-71.60296	-39.86983	70.78929	-30.91946	-30.91946	13.01872	-135.88289	0
41	2.44101	-74.04397	-79.73966	38.24249	39.86983	-77.29865	-41.49717	72.41663	-31.73313	-31.73313	12.20505	-137.51023	0
42	4.88202	-78.92599	-82.99434	37.42882	43.12451	-79.73966	-41.49717	74.04397	-30.91946	-32.5468	10.57771	-139.95124	0
43	3.25468	-82.18067	-80.55333	38.24249	42.31084	-78.92599	-39.05616	74.85764	-29.29212	-31.73313	9.76404	-140.76491	0
44	0	-81.367	-74.85764	39.05616	37.42882	-75.67131	-36.61515	75.67131	-27.66478	-30.10579	9.76404	-139.13757	0
45	-6.50936	-78.11232	-65.90727	40.6835	29.29212	-69.97562	-33.36047	76.48498	-26.03744	-28.47845	10.57771	-136.69656	0
46	-13.83239	-72.41663	-54.51589	42.31084	19.52808	-61.83892	-30.10579	78.11232	-26.03744	-26.85111	12.20505	-133.44188	0
47	-20.34175	-67.53461	-41.49717	43.12451	10.57771	-55.32956	-25.22377	80.55333	-24.4101	-26.03744	13.01872	-131.00087	0
48	-23.59643	-62.65259	-28.47845	42.31084	5.69569	-51.26121	-20.34175	85.43535	-20.34175	-24.4101	13.83239	-128.55986	0
49	-21.96909	-55.32956	-21.15542	39.05616	4.06835	-46.37919	-14.64606	93.57205	-14.64606	-20.34175	14.64606	-125.30518	0
50	-17.08707	-44.75185	-17.90074	35.80148	4.06835	-38.24249	-6.50936	101.70875	-6.50936	-15.45973	18.71441	-121.23683	0
51	-11.39138	-33.36047	-16.2734	29.29212	4.88202	-28.47845	0.81367	109.03178	0	-8.95037	23.59643	-117.16848	0
52	-7.32303	-25.22377	-13.83239	21.96909	4.06835	-22.78276	8.1367	113.9138	6.50936	-4.88202	27.66478	-114.72747	0
53	-6.50936	-19.52808	-8.95037	16.2734	1.62734	-19.52808	15.45973	117.16848	10.57771	-1.62734	30.10579	-111.47279	0
54	-6.50936	-15.45973	-4.88202	13.01872	0	-17.08707	20.34175	118.79582	11.39138	-0.81367	31.73313	-109.03178	0
55	-8.1367	-13.01872	-3.25468	11.39138	-2.44101	-13.83239	22.78276	117.16848	9.76404	-0.81367	31.73313	-106.59077	0
56	-8.1367	-13.01872	-3.25468	10.57771	-3.25468	-11.39138	22.78276	114.72747	5.69569	-3.25468	30.10579	-105.7771	0
57	-4.06835	-14.64606	-4.88202	8.95037	0.81367	-10.57771	21.96909	112.28646	0.81367	-6.50936	28.47845	-105.7771	0
58	1.62734	-16.2734	-5.69569	5.69569	8.1367	-8.95037	20.34175	112.28646	-1.62734	-9.76404	26.85111	-107.40444	0
59	8.1367	-16.2734	-8.1367	2.44101	15.45973	-9.76404	18.71441	113.10013	-1.62734	-10.57771	26.03744	-107.40444	0
60	12.20505	-13.83239	-13.01872	-0.81367	17.90074	-11.39138	17.90074	115.54114	2.44101	-7.32303	27.66478	-104.96343	0
61	13.83239	-7.32303	-13.83239	-4.88202	17.90074	-8.95037	17.90074	119.60949	10.57771	0	31.73313	-100.08141	0
62	13.01872	0	-8.95037	-9.76404	13.01872	-2.44101	17.90074	123.67784	17.08707	6.50936	37.42882	-95.19939	0
63	7.32303	6.50936	1.62734	-15.45973	3.25468	5.69569	16.2734	123.67784	20.34175	10.57771	41.49717	-90.31737	0
64	3.25468	13.01872	12.20505	-17.90074	-4.06835	13.83239	10.57771	119.60949	20.34175	12.20505	43.93818	-87.06269	0
65	4.06835	20.34175	17.90074	-20.34175	-7.32303	20.34175	0.81367	111.47279	15.45973	12.20505	43.12451	-86.24902	0
66	8.1367	29.29212	21.15542	-23.59643	-6.50936	25.22377	-8.95037	102.52242	8.95037	11.39138	42.31084	-84.62168	0
67	15.45973	38.24249	24.4101	-29.29212	-4.06835	30.10579	-19.52808	94.38572	3.25468	9.76404	43.12451	-81.367	0
68	21.96909	46.37919	30.10579	-34.98781	-2.44101	34.17414	-28.47845	90.31737	0.81367	10.57771	45.56552	-76.48498	0
69	24.4101	50.44754	33.36047	-38.24249	-1.62734	36.61515	-35.80148	88.69003	0.81367	12.20505	48.8202	-69.97562	0
70	26.03744	50.44754	30.10579	-40.6835	0	36.61515	-41.49717	87.87636	3.25468	15.45973	52.88855	-63.46626	0
71	31.73313	46.37919	21.15542	-42.31084	6.50936	30.91946	-45.56552	87.87636	5.69569	19.52808	57.77057	-56.9569	0
72	41.49717	41.49717	9.76404	-43.93818	14.64606	21.15542	-49.63387	88.69003	8.1367	23.59643	62.65259	-52.07488	0
73	55.32956	36.61515	-1.62734	-44.75185	23.59643	10.57771	-52.07488	88.69003	8.95037	26.03744	65.90727	-48.00653	0
74	66.72094	31.73313	-15.45973	-44.75185	34.98781	2.44101	-58.58424	83.80801	7.32303	26.03744	67.53461	-46.37919	0
75	72.41663	26.03744	-31.73313	-44.75185	46.37919	-5.69569	-69.16195	75.67131	1.62734	22.78276	65.0936	-46.37919	0
76	75.67131	21.96909	-44.75185	-46.37919	56.14323	-12.20505	-81.367	65.0936	-6.50936	17.08707	61.02525	-48.00653	0
77	76.48498	21.15542	-51.26121	-49.63387	61.02525	-15.45973	-91.94471	55.32956	-14.64606	10.57771	56.14323	-50.44754	0
78	73.2303	21.15542	-52.07488	-52.07488	60.21158	-15.45973	-98.45407	49.63387	-20.34175	5.69569	52.07488	-52.88855	0
79	68.34828	20.34175	-52.88855	-52.07488	58.58424	-17.08707	-100.08141	48.00653	-22.78276	2.44101	48.8202	-55.32956	0
80	65.90727	15.45973	-55.32956	-48.8202	59.39791	-20.34175	-97.6404	48.8202	-24.4101	0.81367	46.37919	-56.9569	0
81	64.27993	8.1367	-60.21158	-42.31084	61.83892	-26.03744	-92.75838	49.63387	-22.78276	0.81367	45.56552	-56.9569	0
82	62.65259	1.62734	-65.90727	-35.80148	62.65259	-29.29212	-86.24902	52.88855	-18.71441	3.25468	46.37919	-54.51589	0
83	58.58424	-3.25468	-71.60296	-29.29212	60.21158	-30.10579	-76.48498	57.77057	-12.20505	7.32303	48.8202	-50.44754	0
84	51.26121	-8.95037	-72.41663	-23.59643	55.32956	-31.73313	-65.90727	61.02525	-5.69569	9.76404	50.44754	-49.63387	0
85	43.93818	-15.45973	-69.16195	-17.90074	50.44754	-35.80148	-56.9569	63.46626	-4.88202	8.1367	47.19286	-53.70222	0
86	37.42882	-23.59643	-67.53461	-10.57771	48.00653	-40.6835	-52.07488	63.46626	-8.95037	0.81367	39.86983	-61.83892	0
87	30.91946	-32.5468	-64.27993	0	46.37919	-48.00653	-50.44754	61.83892	-17.08707	-7.32303	31.73313	-71.60296	0
88	24.4101	-42.31084	-61.02525	9.76404	43.93818	-56.14323	-51.26121	59.39791	-24.4101	-17.90074	21.96909	-81.367	0
89	14.64606	-54.51589	-60.21158	20.34175	41.49717	-63.46626	-53.70222	55.32956	-31.73313	-27.66478	11.39138	-90.31737	0
90	3.25468	-67.53461	-63.46626	31.73313	36.61515	-70.78929	-56.9569	51.26121	-38.24249	-36.61515	0.81367	-97.6404	0
91	-4.88202	-77.29865	-67.53461	40.6835	33.36047	-76.48498	-59.39791	47.19286	-43.93818	-43.93818	-6.50936	-104.14976	0
92	-10.57771	-82.18067	-73.2303	45.56552	33.36047	-79.73966	-60.21158	43.93818	-47.19286	-48.00653	-10.57771	-107.40444	0
93	-15.45973	-82.99434	-78.92599	46.37919	36.61515	-82.18067	-58.58424	41.49717	-46.37919	-48.00653	-11.39138	-108.21811	0
94	-17.90074	-81.367	-79.73966	45.56552	37.42882	-82.99434	-56.14323	39.86983	-45.56552	-46.37919	-8.95037	-104.96343	0
95	-17.90074	-81.367	-78.11232	44.75185	34.98781	-81.367	-54.51589	36.61515	-47.19286	-44.75185	-6.50936	-100.89508	0
96	-16.2734	-82.99434	-75.67131	45.56552	32.5468	-80.55333	-55.32956	33.36047	-50.44754	-44.75185	-4.88202	-97.6404	0
97	-13.83239	-84.62168	-75.67131	47.19286	30.91946	-78.92599	-56.14323	31.73313	-52.88855	-46.37919	-4.06835	-95.19939	0
98	-11.39138	-87.06269	-78.11232	48.00653	31.73313	-78.11232	-57.77057	30.91946	-52.88855	-47.19286	-4.06835	-93.57205	0
99	-8.95037	-88.69003	-81.367	48.00653	34.17414	-79.73966	-59.39791	31.73313	-52.07488	-47.19286	-4.88202	-92.75838	0
100	-6.50936	-91.13104	-85.43535	47.19286	37.42882	-83.80801	-62.65259	30.91946	-51.26121	-48.00653	-6.50936	-95.19939	1000	P+0
101	-3.25468	-92.75838	-90.31737	46.37919	41.49717	-87.87636	-64.27993	29.29212	-50.44754	-48.8202	-8.1367	-98.45407	0
102	-0.81367	-93.57205	-91.13104	45.56552	43.93818	-89.5037	-65.0936	27.66478	-50.44754	-50.44754	-10.57771	-101.70875	0
103	-1.62734	-94.38572	-87.06269	47.19286	41.49717	-88.69003	-64.27993	26.85111	-51.26121	-52.07488	-11.39138	-103.33609	0
104	-1.62734	-92.75838	-79.73966	50.44754	34.17414	-85.43535	-63.46626	25.22377	-51.26121	-52.07488	-11.39138	-103.33609	0
105	-6.50936	-91.13104	-70.78929	53.70222	26.03744	-79.73966	-60.21158	22.78276	-52.88855	-52.07488	-11.39138	-100.89508	0
106	-17.08707	-91.13104	-62.65259	57.77057	17.08707	-76.48498	-57.77057	20.34175	-55.32956	-52.88855	-11.39138	-96.82673	0
107	-25.22377	-92.75838	-60.21158	61.83892	13.01872	-76.48498	-55.32956	18.71441	-55.32956	-55.32956	-12.20505	-94.38572	0
108	-26.03744	-93.57205	-65.0936	62.65259	15.45973	-79.73966	-54.51589	18.71441	-53.70222	-56.14323	-12.20505	-91.94471	0
109	-23.59643	-95.19939	-72.41663	63.46626	21.96909	-84.62168	-53.70222	19.52808	-51.26121	-55.32956	-11.39138	-89.5037	0
110	-21.15542	-98.45407	-78.92599	64.27993	27.66478	-89.5037	-53.70222	20.34175	-48.8202	-53.70222	-9.76404	-87.06269	0
111	-18.71441	-103.33609	-86.24902	64.27993	32.5468	-95.19939	-52.88855	19.52808	-46.37919	-52.88855	-8.1367	-86.24902	0
112	-19.52808	-109.03178	-90.31737	65.90727	34.98781	-99.26774	-52.07488	19.52808	-43.93818	-52.07488	-7.32303	-85.43535	0
113	-23.59643	-113.9138	-87.87636	68.34828	31.73313	-99.26774	-48.8202	20.34175	-40.6835	-52.07488	-5.69569	-85.43535	0
114	-29.29212	-113.9138	-81.367	70.78929	25.22377	-96.01306	-44.75185	20.34175	-39.86983	-52.88855	-5.69569	-85.43535	0
115	-36.61515	-109.03178	-66.72094	71.60296	16.2734	-88.69003	-43.12451	13.01872	-45.56552	-56.14323	-6.50936	-86.24902	0
116	-48.00653	-99.26774	-43.93818	70.78929	3.25468	-75.67131	-45.56552	-6.50936	-61.83892	-65.0936	-10.57771	-87.87636	0
117	-64.27993	-82.18067	-17.90074	65.90727	-11.39138	-56.14323	-52.88855	-45.56552	-92.75838	-81.367	-17.08707	-89.5037	0
118	-78.92599	-57.77057	13.01872	59.39791	-34.17414	-27.66478	-63.46626	-106.59077	-141.57858	-104.96343	-26.85111	-89.5037	0
119	-94.38572	-28.47845	56.14323	53.70222	-66.72094	8.95037	-74.04397	-187.1441	-205.04484	-131.00087	-35.80148	-84.62168	0
120	-112.28646	2.44101	107.40444	48.00653	-104.96343	52.07488	-85.43535	-279.90248	-279.08881	-157.85198	-41.49717	-74.85764	0
121	-128.55986	33.36047	156.22464	43.12451	-139.95124	93.57205	-92.75838	-376.72921	-359.64214	-183.07575	-43.93818	-59.39791	0
122	-138.3239	59.39791	199.34915	38.24249	-170.05703	130.1872	-95.19939	-472.74227	-443.45015	-203.4175	-40.6835	-38.24249	0
123	-139.95124	87.06269	238.40531	29.29212	-192.02612	164.36134	-95.19939	-563.05964	-521.56247	-211.5542	-26.03744	-7.32303	0
124	-138.3239	122.86417	278.27514	13.01872	-207.48585	201.79016	-90.31737	-643.61297	-585.8424	-207.48585	4.88202	36.61515	0
125	-135.88289	170.05703	320.58598	-11.39138	-223.75925	246.54201	-85.43535	-720.91162	-641.17196	-193.65346	47.19286	96.01306	0
126	-131.00087	223.75925	364.52416	-43.12451	-242.47366	295.36221	-101.70875	-829.12973	-713.58859	-174.12538	86.24902	162.734	0
127	-118.79582	276.6478	400.32564	-77.29865	-257.11972	339.30039	-167.61602	-1011.39181	-839.70744	-172.49804	117.16848	227.8276	0
128	-98.45407	324.65433	423.92207	-112.28646	-262.81541	374.2882	-297.80322	-1275.83456	-1033.3609	-209.92686	138.3239	284.7845	0
129	-69.97562	372.66086	441.00914	-151.34262	-263.62908	406.02133	-481.69264	-1585.84283	-1264.44318	-279.08881	148.08794	336.04571	0
130	-32.5468	427.99042	458.90988	-199.34915	-256.30605	442.63648	-707.07923	-1900.73312	-1490.64344	-351.50544	151.34262	393.00261	0
131	18.71441	498.77971	476.81062	-261.18807	-237.59164	474.36961	-967.45363	-2198.53634	-1671.27818	-403.58032	158.66565	464.60557	0
132	87.06269	578.51937	489.01567	-334.41837	-206.67218	491.45668	-1253.86547	-2458.91074	-1784.37831	-420.66739	175.75272	538.64954	0
133	170.8707	638.73095	468.67392	-403.58032	-152.15629	497.15237	-1543.53199	-2654.19154	-1837.26686	-407.64867	192.02612	593.9791	0
134	265.25642	648.49499	384.86591	-449.14584	-60.21158	469.48759	-1787.63299	-2760.78231	-1834.82585	-380.79756	202.60383	627.33957	0
135	358.82847	602.1158	244.91467	-468.67392	56.14323	393.00261	-1947.92598	-2770.54635	-1770.54592	-349.8781	209.11319	637.10361	0
136	426.36308	522.37614	93.57205	-466.23291	167.61602	292.9212	-2030.10665	-2686.73834	-1647.68175	-309.1946	215.62255	624.89856	0
137	455.6552	439.3818	-26.85111	-446.70483	245.72834	203.4175	-2035.80234	-2525.63168	-1476.81105	-253.86504	220.50457	602.92947	0
138	456.46887	371.84719	-100.08141	-418.22638	283.97083	144.83326	-1961.75837	-2308.38179	-1279.08924	-187.1441	223.75925	577.7057	0
139	436.94079	324.65433	-126.11885	-386.49325	286.41184	113.10013	-1820.99346	-2052.07574	-1075.67174	-122.0505	227.01393	548.41358	0
140	401.13931	291.29386	-119.60949	-351.50544	262.81541	97.6404	-1631.40835	-1766.47757	-882.83195	-74.85764	221.31824	507.73008	0
141	351.50544	258.74706	-98.45407	-308.38093	226.20026	88.69003	-1413.34479	-1467.86068	-716.84327	-60.21158	192.83979	447.5185	0
142	292.9212	222.13191	-76.48498	-260.3744	183.07575	80.55333	-1183.07618	-1177.38049	-585.02873	-69.97562	140.76491	369.40618	0
143	234.33696	183.88942	-61.02525	-210.74053	141.57858	69.97562	-957.68959	-910.49673	-480.87897	-91.94471	76.48498	283.15716	0
144	183.07575	145.64693	-49.63387	-165.17501	108.21811	56.9569	-750.20374	-674.53243	-388.93426	-116.35481	18.71441	201.79016	0
145	142.39225	110.65912	-40.6835	-126.93252	83.80801	41.49717	-569.569	-469.48759	-294.54854	-126.11885	-14.64606	139.13757	0
146	113.9138	83.80801	-36.61515	-99.26774	69.97562	27.66478	-418.22638	-292.9212	-193.65346	-112.28646	-21.15542	98.45407	0
147	96.82673	61.83892	-39.86983	-80.55333	62.65259	12.20505	-293.73487	-141.57858	-90.31737	-78.11232	-8.1367	75.67131	0
148	84.62168	43.12451	-49.63387	-67.53461	58.58424	-2.44101	-191.21245	-12.20505	8.95037	-35.80148	13.83239	61.83892	0
149	75.67131	27.66478	-58.58424	-56.9569	56.9569	-16.2734	-106.59077	96.82673	96.01306	4.88202	36.61515	52.88855	0
150	71.60296	13.83239	-64.27993	-48.8202	60.21158	-24.4101	-38.24249	183.88942	165.17501	39.05616	56.14323	45.56552	0
151	68.34828	2.44101	-66.72094	-41.49717	62.65259	-29.29212	13.83239	246.54201	213.99521	65.0936	70.78929	40.6835	0
152	61.02525	-4.88202	-68.34828	-33.36047	60.21158	-30.91946	52.88855	287.22551	244.91467	82.18067	82.18067	36.61515	0
153	50.44754	-11.39138	-70.78929	-25.22377	52.88855	-30.91946	78.92599	310.00827	262.00174	91.94471	88.69003	32.5468	0
154	41.49717	-17.08707	-71.60296	-20.34175	47.19286	-32.5468	94.38572	321.39965	271.76578	97.6404	93.57205	27.66478	0
155	37.42882	-21.15542	-69.97562	-17.08707	46.37919	-36.61515	103.33609	324.65433	279.08881	104.14976	97.6404	23.59643	0
156	37.42882	-24.4101	-69.97562	-13.01872	48.8202	-41.49717	107.40444	325.468	288.85285	113.10013	102.52242	22.78276	0
157	38.24249	-27.66478	-69.16195	-9.76404	50.44754	-45.56552	111.47279	328.72268	304.31258	125.30518	109.03178	23.59643	0
158	35.80148	-29.29212	-65.90727	-5.69569	48.8202	-47.19286	117.16848	336.85938	323.84066	140.76491	117.16848	24.4101	0
159	34.17414	-30.91946	-65.0936	-3.25468	48.8202	-48.8202	123.67784	348.25076	345.80975	155.41097	126.11885	25.22377	0
160	32.5468	-34.17414	-66.72094	-0.81367	49.63387	-51.26121	131.00087	360.45581	364.52416	168.42969	133.44188	24.4101	0
161	31.73313	-38.24249	-69.97562	0.81367	51.26121	-54.51589	138.3239	371.84719	380.79756	179.0074	139.13757	21.15542	0
162	35.80148	-43.12451	-74.04397	0.81367	56.9569	-56.14323	146.4606	382.4249	392.18894	185.51676	143.20592	17.90074	0
163	43.12451	-46.37919	-77.29865	0	65.0936	-58.58424	154.5973	390.5616	401.13931	189.58511	144.83326	14.64606	0
164	48.00653	-48.00653	-82.18067	0	71.60296	-61.83892	161.92033	395.44362	406.02133	191.21245	145.64693	11.39138	0
165	49.63387	-48.00653	-87.87636	0	73.2303	-65.90727	166.80235	398.6983	409.27601	193.65346	148.08794	8.95037	0
166	48.8202	-47.19286	-90.31737	0	72.41663	-67.53461	171.68437	401.95298	412.53069	196.90814	151.34262	9.76404	0
167	46.37919	-44.75185	-87.87636	0	69.16195	-66.72094	176.56639	407.64867	418.22638	201.79016	156.22464	13.01872	0
168	44.75185	-42.31084	-83.80801	0	66.72094	-63.46626	181.44841	415.78537	425.54941	209.11319	161.92033	17.90074	0
169	43.12451	-42.31084	-81.367	0	65.0936	-62.65259	185.51676	424.73574	432.87244	215.62255	165.98868	21.15542	0
170	43.12451	-43.93818	-83.80801	0	65.0936	-64.27993	188.77144	432.05877	440.19547	221.31824	169.24336	22.78276	0
171	43.12451	-46.37919	-87.06269	0	65.90727	-66.72094	192.83979	440.19547	447.5185	227.01393	171.68437	21.96909	0
172	43.93818	-50.44754	-91.94471	2.44101	68.34828	-69.16195	197.72181	447.5185	453.21419	231.89595	173.31171	20.34175	0
173	46.37919	-53.70222	-96.01306	6.50936	70.78929	-72.41663	202.60383	453.21419	457.28254	235.15063	174.93905	19.52808	0
174	47.19286	-54.51589	-96.82673	8.95037	71.60296	-73.2303	205.04484	457.28254	459.72355	237.59164	176.56639	19.52808	0
175	45.56552	-51.26121	-92.75838	7.32303	68.34828	-69.97562	206.67218	458.90988	460.53722	239.21898	179.0074	21.15542	0
176	44.75185	-46.37919	-88.69003	4.06835	65.0936	-65.90727	208.29952	460.53722	460.53722	239.21898	180.63474	21.96909	0
177	42.31084	-43.12451	-83.80801	0	61.83892	-62.65259	210.74053	463.7919	459.72355	239.21898	183.07575	21.96909	0
178	38.24249	-41.49717	-78.92599	-2.44101	56.9569	-59.39791	213.18154	470.30126	461.35089	240.03265	184.70309	22.78276	0
179	35.80148	-40.6835	-77.29865	-4.06835	55.32956	-58.58424	215.62255	479.25163	466.23291	244.101	187.1441	25.22377	0
180	35.80148	-43.12451	-79.73966	-2.44101	56.14323	-61.02525	218.06356	489.82934	472.74227	249.79669	189.58511	27.66478	0
181	35.80148	-47.19286	-84.62168	0	59.39791	-65.0936	220.50457	500.40705	479.25163	254.67871	192.83979	29.29212	0
182	40.6835	-50.44754	-91.94471	3.25468	65.90727	-70.78929	222.94558	510.17109	484.94732	258.74706	196.09447	30.91946	0
183	49.63387	-52.88855	-100.08141	3.25468	74.85764	-74.85764	226.20026	518.30779	489.82934	262.81541	200.16282	33.36047	0
184	58.58424	-50.44754	-104.14976	0	81.367	-74.85764	229.45494	525.63082	493.08402	266.88376	204.23117	35.80148	0
185	64.27993	-43.93818	-101.70875	-6.50936	82.18067	-69.97562	231.08228	530.51284	494.71136	270.13844	206.67218	38.24249	0
186	64.27993	-35.80148	-96.01306	-12.20505	78.92599	-63.46626	231.89595	535.39486	495.52503	272.57945	209.11319	39.86983	0
187	63.46626	-30.91946	-91.94471	-15.45973	76.48498	-57.77057	233.52329	541.90422	495.52503	273.39312	209.92686	39.86983	0
188	65.90727	-28.47845	-94.38572	-17.90074	78.92599	-53.70222	234.33696	549.22725	496.3387	274.20679	209.92686	37.42882	0
189	69.16195	-28.47845	-100.08141	-21.15542	83.80801	-54.51589	235.9643	556.55028	498.77971	274.20679	209.11319	34.17414	0
190	70.78929	-27.66478	-100.89508	-22.78276	85.43535	-56.14323	240.84632	566.31432	505.28907	278.27514	209.92686	34.17414	0
191	65.90727	-26.03744	-95.19939	-21.15542	79.73966	-55.32956	249.79669	579.33304	514.23944	286.41184	213.99521	37.42882	0
192	55.32956	-26.03744	-87.06269	-16.2734	72.41663	-51.26121	260.3744	593.9791	524.00348	295.36221	220.50457	43.12451	0
193	44.75185	-26.85111	-81.367	-10.57771	67.53461	-47.19286	270.95211	606.18415	532.14018	302.68524	225.38659	48.00653	0
194	36.61515	-28.47845	-77.29865	-5.69569	62.65259	-44.75185	278.27514	615.94819	537.83587	307.56726	229.45494	52.07488	0
195	33.36047	-29.29212	-72.41663	-2.44101	57.77057	-44.75185	282.34349	622.45755	539.46321	311.63561	231.89595	55.32956	0
196	34.98781	-29.29212	-70.78929	-3.25468	55.32956	-46.37919	283.97083	627.33957	539.46321	313.26295	233.52329	57.77057	0
197	41.49717	-26.85111	-69.16195	-7.32303	57.77057	-48.00653	283.97083	632.22159	539.46321	314.07662	235.15063	58.58424	0
198	51.26121	-23.59643	-67.53461	-12.20505	63.46626	-51.26121	283.97083	636.28994	540.27688	314.89029	235.9643	58.58424	0
199	60.21158	-20.34175	-69.16195	-16.2734	69.97562	-52.88855	283.97083	641.17196	541.09055	314.89029	235.15063	56.14323	0
200	65.0936	-16.2734	-72.41663	-20.34175	73.2303	-51.26121	285.59817	646.05398	542.71789	315.70396	235.9643	52.88855	0
201	68.34828	-12.20505	-74.85764	-24.4101	74.04397	-48.00653	290.48019	652.56334	545.97257	317.3313	237.59164	51.26121	0
202	67.53461	-8.1367	-73.2303	-28.47845	71.60296	-44.75185	297.80322	660.70004	550.85459	319.77231	240.03265	51.26121	0
203	62.65259	-4.88202	-65.0936	-31.73313	63.46626	-42.31084	307.56726	669.65041	557.36395	322.21332	244.101	53.70222	0
204	53.70222	-3.25468	-55.32956	-33.36047	53.70222	-38.24249	317.3313	677.78711	563.05964	324.65433	248.98302	57.77057	0
205	48.00653	-1.62734	-48.8202	-33.36047	47.19286	-32.5468	325.468	683.4828	566.31432	326.28167	253.05137	62.65259	0
206	46.37919	0	-45.56552	-31.73313	44.75185	-26.85111	330.35002	687.55115	567.12799	327.90901	255.49238	65.0936	0
207	48.8202	3.25468	-43.93818	-30.91946	47.19286	-22.78276	334.41837	690.80583	567.12799	327.90901	256.30605	65.90727	0
208	56.14323	5.69569	-42.31084	-31.73313	53.70222	-19.52808	336.85938	694.87418	568.75533	328.72268	256.30605	65.90727	0
209	61.83892	6.50936	-44.75185	-34.17414	59.39791	-18.71441	340.92773	699.7562	570.38267	328.72268	255.49238	64.27993	0
210	65.0936	6.50936	-48.8202	-35.80148	62.65259	-21.15542	344.99608	705.45189	573.63735	329.53635	255.49238	62.65259	0
211	65.0936	6.50936	-52.88855	-35.80148	62.65259	-21.96909	352.31911	710.33391	577.7057	329.53635	255.49238	60.21158	0
212	62.65259	7.32303	-52.07488	-35.80148	59.39791	-21.15542	360.45581	716.0296	580.96038	329.53635	256.30605	58.58424	0
213	56.9569	8.95037	-45.56552	-34.17414	51.26121	-17.08707	370.21985	719.28428	583.40139	328.72268	257.93339	58.58424	0
214	49.63387	11.39138	-35.80148	-32.5468	42.31084	-11.39138	379.17022	722.53896	584.21506	327.90901	259.56073	58.58424	0
215	42.31084	14.64606	-26.85111	-30.10579	33.36047	-5.69569	388.12059	724.1663	584.21506	328.72268	261.18807	60.21158	0
216	39.05616	18.71441	-19.52808	-30.10579	28.47845	0	396.25729	725.79364	584.21506	329.53635	263.62908	63.46626	0
217	38.24249	23.59643	-13.83239	-33.36047	24.4101	2.44101	404.39399	729.04832	584.21506	329.53635	266.88376	67.53461	0
218	37.42882	27.66478	-8.1367	-37.42882	21.15542	2.44101	411.71702	733.93034	585.8424	330.35002	268.5111	70.78929	0
219	36.61515	28.47845	-6.50936	-39.86983	20.34175	1.62734	419.04005	737.99869	587.46974	331.97736	271.76578	74.04397	0
220	37.42882	29.29212	-8.1367	-39.86983	21.96909	2.44101	425.54941	741.25337	589.91075	333.6047	274.20679	78.11232	0
221	39.86983	29.29212	-10.57771	-39.05616	24.4101	4.06835	432.87244	742.88071	590.72442	334.41837	276.6478	80.55333	0
222	44.75185	30.10579	-14.64606	-39.05616	29.29212	5.69569	439.3818	743.69438	591.53809	334.41837	278.27514	82.99434	0
223	52.88855	33.36047	-19.52808	-39.86983	35.80148	5.69569	445.89116	742.06704	589.91075	332.79103	278.27514	83.80801	0
224	60.21158	39.05616	-21.15542	-43.93818	39.86983	7.32303	450.77318	737.99869	585.8424	328.72268	276.6478	83.80801	0
225	64.27993	45.56552	-18.71441	-50.44754	40.6835	13.01872	454.02786	731.48933	579.33304	323.02699	274.20679	82.18067	0
226	65.0936	53.70222	-13.01872	-55.32956	38.24249	21.15542	457.28254	724.97997	571.19634	316.51763	270.95211	80.55333	0
227	60.21158	59.39791	-4.88202	-56.14323	31.73313	32.5468	461.35089	720.91162	564.68698	310.00827	267.69743	78.92599	0
228	50.44754	62.65259	4.88202	-52.88855	21.15542	40.6835	467.86025	718.47061	561.4323	306.75359	266.07009	79.73966	0
229	39.05616	64.27993	17.90074	-49.63387	8.95037	46.37919	474.36961	716.84327	559.80496	304.31258	266.88376	81.367	0
230	30.10579	65.90727	29.29212	-48.00653	0	50.44754	480.0653	713.58859	557.36395	302.68524	267.69743	82.18067	0
231	26.85111	68.34828	37.42882	-48.00653	-5.69569	54.51589	484.13365	707.8929	553.2956	300.24423	267.69743	82.18067	0
232	25.22377	71.60296	46.37919	-50.44754	-10.57771	61.02525	486.57466	700.56987	547.59991	296.98955	267.69743	82.18067	0
233	22.78276	74.85764	58.58424	-53.70222	-17.90074	69.97562	489.01567	692.43317	541.90422	292.9212	267.69743	83.80801	0
234	19.52808	78.92599	69.16195	-55.32956	-24.4101	78.11232	490.64301	681.85546	532.95385	288.03918	266.88376	87.06269	0
235	14.64606	85.43535	77.29865	-54.51589	-30.91946	83.80801	490.64301	667.2094	520.7488	280.71615	263.62908	88.69003	0
236	9.76404	93.57205	85.43535	-52.88855	-38.24249	88.69003	490.64301	650.12233	504.4754	271.76578	258.74706	89.5037	0
237	3.25468	100.08141	91.13104	-52.88855	-46.37919	94.38572	489.01567	632.22159	488.202	262.81541	254.67871	91.13104	0
238	-1.62734	105.7771	94.38572	-55.32956	-54.51589	98.45407	485.76099	615.13452	472.74227	253.86504	250.61036	94.38572	0
239	-4.88202	111.47279	99.26774	-58.58424	-59.39791	103.33609	481.69264	598.04745	458.09621	247.35568	248.16935	97.6404	0
240	-4.88202	114.72747	105.7771	-60.21158	-61.83892	109.03178	475.99695	579.33304	443.45015	240.03265	244.91467	100.89508	0
241	-4.06835	117.98215	112.28646	-60.21158	-62.65259	114.72747	469.48759	558.17762	427.17675	231.89595	240.84632	102.52242	0
242	-2.44101	120.42316	117.98215	-61.02525	-61.83892	119.60949	462.97823	534.58119	410.08968	222.13191	235.15063	102.52242	0
243	0.81367	122.0505	120.42316	-61.02525	-60.21158	121.23683	457.28254	508.54375	389.74793	210.74053	229.45494	102.52242	0
244	3.25468	124.49151	123.67784	-61.83892	-60.21158	124.49151	448.33217	479.25163	366.1515	197.72181	221.31824	101.70875	1500	QRS+0
245	0.81367	129.37353	131.00087	-62.65259	-64.27993	130.1872	436.94079	445.89116	339.30039	182.26208	211.5542	99.26774	0
246	-5.69569	133.44188	141.57858	-61.83892	-74.04397	139.13757	425.54941	411.71702	310.82194	166.80235	202.60383	100.08141	0
247	-18.71441	136.69656	156.22464	-57.77057	-87.87636	151.34262	415.78537	379.17022	284.7845	153.78363	196.09447	102.52242	0
248	-31.73313	140.76491	169.24336	-52.88855	-100.08141	161.10666	406.02133	349.06443	261.18807	143.20592	191.21245	105.7771	0
249	-40.6835	145.64693	179.82107	-48.00653	-109.03178	167.61602	394.62995	317.3313	237.59164	133.44188	187.1441	109.84545	0
250	-44.75185	149.71528	188.77144	-46.37919	-115.54114	172.49804	379.98389	283.15716	213.18154	122.0505	182.26208	111.47279	0
251	-47.19286	152.15629	195.2808	-47.19286	-120.42316	174.93905	362.89682	245.72834	185.51676	108.21811	174.93905	111.47279	0
252	-52.07488	152.15629	202.60383	-47.19286	-126.93252	178.19373	344.18241	206.67218	156.22464	92.75838	166.80235	109.84545	0
253	-58.58424	152.96996	213.18154	-47.19286	-135.88289	183.88942	326.28167	166.80235	126.93252	76.48498	157.03831	108.21811	0
254	-65.0936	157.03831	224.57292	-47.19286	-144.83326	190.39878	308.38093	126.11885	98.45407	61.02525	147.27427	107.40444	0
255	-69.16195	161.92033	233.52329	-47.19286	-151.34262	196.90814	290.48019	85.43535	67.53461	46.37919	137.51023	104.96343	0
256	-70.78929	165.98868	238.40531	-48.8202	-155.41097	201.79016	271.76578	43.12451	35.80148	28.47845	125.30518	100.89508	0
257	-73.2303	166.80235	241.65999	-47.19286	-157.85198	204.23117	252.2377	0.81367	2.44101	9.76404	110.65912	95.19939	0
258	-78.11232	164.36134	243.28733	-43.93818	-161.92033	205.04484	232.70962	-38.24249	-27.66478	-8.95037	95.19939	88.69003	0
259	-82.18067	160.29299	242.47366	-40.6835	-162.734	202.60383	214.80888	-75.67131	-56.14323	-26.85111	80.55333	82.18067	0
260	-84.62168	154.5973	238.40531	-36.61515	-161.92033	196.90814	197.72181	-109.84545	-81.367	-42.31084	66.72094	77.29865	0
261	-86.24902	148.90161	233.52329	-32.5468	-160.29299	192.02612	181.44841	-142.39225	-104.96343	-56.14323	55.32956	72.41663	0
262	-89.5037	141.57858	227.8276	-26.85111	-157.03831	187.1441	166.80235	-173.31171	-127.74619	-69.16195	44.75185	69.16195	0
263	-96.01306	134.25555	220.50457	-21.96909	-152.96996	183.07575	152.15629	-203.4175	-148.90161	-81.367	34.98781	65.0936	0
264	-100.89508	126.11885	215.62255	-18.71441	-151.34262	178.19373	137.51023	-231.89595	-169.24336	-93.57205	25.22377	61.02525	0
265	-103.33609	119.60949	213.18154	-15.45973	-152.15629	172.49804	122.0505	-260.3744	-189.58511	-106.59077	14.64606	55.32956	0
266	-101.70875	113.9138	209.11319	-12.20505	-152.15629	165.98868	105.7771	-288.03918	-209.92686	-120.42316	2.44101	48.8202	0
267	-99.26774	109.03178	201.79016	-9.76404	-151.34262	157.03831	89.5037	-314.07662	-229.45494	-134.25555	-9.76404	40.6835	0
268	-100.89508	102.52242	192.02612	-7.32303	-152.15629	148.08794	75.67131	-336.04571	-245.72834	-146.4606	-21.96909	33.36047	0
269	-103.33609	95.19939	183.88942	-2.44101	-151.34262	139.13757	62.65259	-354.76012	-258.74706	-157.03831	-32.5468	26.03744	0
270	-107.40444	86.24902	180.63474	4.06835	-150.52895	132.62821	52.07488	-370.21985	-269.32477	-164.36134	-42.31084	20.34175	0
271	-113.9138	76.48498	182.26208	13.83239	-152.15629	128.55986	43.93818	-381.61123	-275.83413	-168.42969	-48.00653	17.08707	0
272	-117.98215	66.72094	184.70309	23.59643	-155.41097	126.11885	39.05616	-390.5616	-279.08881	-171.68437	-53.70222	13.83239	0
273	-117.16848	57.77057	185.51676	31.73313	-157.85198	122.0505	34.98781	-399.51197	-281.52982	-175.75272	-59.39791	8.95037	0
274	-113.9138	50.44754	180.63474	35.80148	-153.78363	115.54114	30.10579	-409.27601	-284.7845	-180.63474	-66.72094	1.62734	0
275	-112.28646	43.12451	169.24336	38.24249	-146.4606	105.7771	23.59643	-419.04005	-288.03918	-186.33043	-74.85764	-4.88202	0
276	-111.47279	36.61515	157.85198	39.86983	-137.51023	96.82673	17.90074	-427.17675	-291.29386	-190.39878	-81.367	-11.39138	0
277	-110.65912	30.10579	144.83326	41.49717	-130.1872	86.24902	13.01872	-432.87244	-293.73487	-194.46713	-87.87636	-17.08707	0
278	-109.03178	24.4101	129.37353	44.75185	-120.42316	74.04397	6.50936	-436.12712	-294.54854	-199.34915	-95.19939	-23.59643	0
279	-105.7771	17.08707	114.72747	46.37919	-110.65912	61.83892	0	-436.12712	-294.54854	-202.60383	-101.70875	-28.47845	0
280	-101.70875	8.95037	103.33609	47.19286	-103.33609	53.70222	-5.69569	-436.12712	-291.29386	-203.4175	-106.59077	-34.17414	0
281	-99.26774	0	96.82673	47.19286	-97.6404	48.00653	-9.76404	-434.49978	-286.41184	-200.97649	-109.84545	-40.6835	0
282	-96.01306	-8.1367	94.38572	50.44754	-93.57205	44.75185	-13.01872	-433.68611	-279.90248	-197.72181	-110.65912	-45.56552	0
283	-91.13104	-14.64606	93.57205	53.70222	-87.06269	41.49717	-15.45973	-434.49978	-275.83413	-194.46713	-110.65912	-49.63387	0
284	-87.06269	-18.71441	88.69003	56.14323	-80.55333	35.80148	-17.90074	-436.12712	-271.76578	-192.02612	-109.84545	-52.07488	0
285	-85.43535	-19.52808	82.18067	56.14323	-78.11232	31.73313	-19.52808	-436.12712	-266.88376	-189.58511	-108.21811	-52.88855	0
286	-87.06269	-20.34175	76.48498	56.14323	-78.92599	27.66478	-18.71441	-432.87244	-261.18807	-186.33043	-105.7771	-52.88855	0
287	-87.87636	-21.96909	68.34828	56.9569	-77.29865	21.96909	-17.90074	-427.17675	-253.05137	-183.07575	-104.14976	-52.07488	0
288	-83.80801	-24.4101	54.51589	57.77057	-69.97562	13.01872	-18.71441	-420.66739	-245.72834	-181.44841	-104.14976	-51.26121	0
289	-77.29865	-28.47845	39.86983	59.39791	-59.39791	2.44101	-19.52808	-414.15803	-236.77797	-179.82107	-104.96343	-52.88855	0
290	-69.97562	-34.17414	27.66478	58.58424	-49.63387	-4.88202	-21.15542	-408.46234	-228.64127	-177.38006	-105.7771	-55.32956	0
291	-65.90727	-40.6835	18.71441	58.58424	-43.12451	-12.20505	-22.78276	-403.58032	-221.31824	-174.12538	-106.59077	-57.77057	0
292	-70.78929	-47.19286	14.64606	61.02525	-40.6835	-17.08707	-22.78276	-397.07096	-211.5542	-170.05703	-104.96343	-58.58424	0
293	-79.73966	-51.26121	12.20505	65.0936	-39.05616	-20.34175	-21.96909	-389.74793	-202.60383	-164.36134	-100.89508	-57.77057	0
294	-86.24902	-52.07488	14.64606	67.53461	-40.6835	-20.34175	-19.52808	-383.23857	-195.2808	-158.66565	-96.82673	-56.14323	0
295	-85.43535	-51.26121	17.08707	66.72094	-43.12451	-17.90074	-17.90074	-379.98389	-190.39878	-155.41097	-95.19939	-56.14323	0
296	-77.29865	-51.26121	15.45973	62.65259	-41.49717	-17.90074	-17.90074	-379.17022	-187.1441	-154.5973	-95.19939	-56.9569	0
297	-67.53461	-52.07488	9.76404	58.58424	-36.61515	-21.15542	-16.2734	-377.54288	-184.70309	-155.41097	-95.19939	-56.9569	0
298	-62.65259	-53.70222	5.69569	59.39791	-33.36047	-23.59643	-13.83239	-372.66086	-178.19373	-153.78363	-93.57205	-56.14323	0
299	-65.90727	-54.51589	8.1367	61.83892	-37.42882	-22.78276	-11.39138	-364.52416	-167.61602	-147.27427	-91.94471	-54.51589	0
300	-71.60296	-55.32956	13.83239	64.27993	-43.93818	-20.34175	-9.76404	-353.94645	-155.41097	-138.3239	-88.69003	-52.07488	0
301	-73.2303	-56.9569	13.83239	65.0936	-43.93818	-21.15542	-8.1367	-345.80975	-145.64693	-130.1872	-86.24902	-51.26121	0
302	-67.53461	-59.39791	7.32303	64.27993	-37.42882	-24.4101	-8.1367	-338.48672	-138.3239	-124.49151	-84.62168	-51.26121	0
303	-59.39791	-61.83892	-0.81367	62.65259	-28.47845	-26.85111	-8.95037	-333.6047	-133.44188	-120.42316	-83.80801	-52.07488	0
304	-53.70222	-61.83892	-5.69569	61.02525	-23.59643	-27.66478	-9.76404	-329.53635	-129.37353	-117.16848	-82.99434	-52.07488	0
305	-52.07488	-59.39791	-5.69569	57.77057	-22.78276	-27.66478	-12.20505	-327.09534	-126.93252	-114.72747	-81.367	-51.26121	0
306	-51.26121	-56.14323	-3.25468	55.32956	-23.59643	-26.85111	-15.45973	-324.65433	-125.30518	-112.28646	-80.55333	-48.8202	-1500	QRS-0
307	-51.26121	-53.70222	-1.62734	52.88855	-25.22377	-25.22377	-17.08707	-319.77231	-122.86417	-109.84545	-79.73966	-47.19286	0
308	-52.88855	-52.88855	-1.62734	52.88855	-25.22377	-22.78276	-17.90074	-313.26295	-118.79582	-106.59077	-78.11232	-44.75185	0
309	-54.51589	-52.88855	-1.62734	52.88855	-26.03744	-22.78276	-17.08707	-305.93992	-113.9138	-103.33609	-78.11232	-44.75185	0
310	-52.88855	-53.70222	-4.06835	52.07488	-24.4101	-25.22377	-16.2734	-298.61689	-108.21811	-101.70875	-78.11232	-44.75185	0
311	-45.56552	-53.70222	-9.76404	48.8202	-17.90074	-29.29212	-15.45973	-291.29386	-103.33609	-99.26774	-78.11232	-45.56552	0
312	-40.6835	-54.51589	-14.64606	46.37919	-12.20505	-35.80148	-14.64606	-283.97083	-99.26774	-97.6404	-78.11232	-46.37919	0
313	-43.12451	-56.9569	-12.20505	46.37919	-14.64606	-39.86983	-13.83239	-276.6478	-94.38572	-95.19939	-77.29865	-45.56552	0
314	-47.19286	-56.9569	-7.32303	45.56552	-19.52808	-39.86983	-11.39138	-268.5111	-89.5037	-91.13104	-74.85764	-43.12451	0
315	-49.63387	-56.14323	-4.06835	45.56552	-22.78276	-36.61515	-10.57771	-261.18807	-85.43535	-87.06269	-73.2303	-39.86983	0
316	-51.26121	-54.51589	-1.62734	47.19286	-24.4101	-31.73313	-10.57771	-254.67871	-82.18067	-83.80801	-72.41663	-38.24249	0
317	-49.63387	-53.70222	0	48.00653	-26.85111	-28.47845	-11.39138	-248.98302	-79.73966	-82.99434	-74.04397	-40.6835	0
318	-44.75185	-53.70222	1.62734	47.19286	-29.29212	-25.22377	-13.01872	-242.47366	-78.11232	-82.18067	-75.67131	-43.12451	0
319	-41.49717	-54.51589	1.62734	47.19286	-29.29212	-24.4101	-13.01872	-235.15063	-75.67131	-80.55333	-77.29865	-45.56552	0
320	-41.49717	-53.70222	-0.81367	46.37919	-26.03744	-26.03744	-13.01872	-225.38659	-72.41663	-77.29865	-77.29865	-46.37919	0
321	-41.49717	-52.88855	-4.06835	46.37919	-21.96909	-27.66478	-11.39138	-216.43622	-68.34828	-73.2303	-76.48498	-45.56552	0
322	-39.86983	-52.07488	-8.1367	47.19286	-17.08707	-30.10579	-10.57771	-208.29952	-64.27993	-67.53461	-75.67131	-43.12451	0
323	-35.80148	-51.26121	-13.01872	46.37919	-11.39138	-33.36047	-9.76404	-201.79016	-62.65259	-63.46626	-73.2303	-40.6835	0
324	-31.73313	-50.44754	-16.2734	45.56552	-6.50936	-34.98781	-11.39138	-197.72181	-61.02525	-60.21158	-70.78929	-39.05616	0
325	-30.91946	-48.00653	-16.2734	43.12451	-6.50936	-33.36047	-14.64606	-196.09447	-61.02525	-58.58424	-69.16195	-37.42882	0
326	-30.91946	-44.75185	-13.83239	39.86983	-8.1367	-30.10579	-17.90074	-193.65346	-61.83892	-57.77057	-69.16195	-37.42882	0
327	-29.29212	-41.49717	-10.57771	37.42882	-7.32303	-26.85111	-19.52808	-189.58511	-62.65259	-58.58424	-70.78929	-38.24249	0
328	-26.03744	-39.86983	-7.32303	34.17414	-4.06835	-23.59643	-20.34175	-184.70309	-63.46626	-59.39791	-72.41663	-39.86983	0
329	-21.96909	-39.86983	-8.1367	31.73313	0	-23.59643	-19.52808	-178.19373	-61.83892	-59.39791	-74.04397	-41.49717	0
330	-21.15542	-41.49717	-11.39138	30.91946	0.81367	-26.03744	-17.08707	-170.8707	-59.39791	-58.58424	-74.04397	-42.31084	0
331	-24.4101	-43.93818	-14.64606	34.17414	-0.81367	-29.29212	-14.64606	-162.734	-56.14323	-55.32956	-74.85764	-43.12451	0
332	-30.10579	-47.19286	-17.08707	37.42882	-3.25468	-32.5468	-13.01872	-156.22464	-52.88855	-51.26121	-74.04397	-43.93818	0
333	-34.98781	-48.8202	-20.34175	39.86983	-3.25468	-35.80148	-12.20505	-151.34262	-50.44754	-48.8202	-73.2303	-43.12451	0
334	-38.24249	-50.44754	-21.15542	42.31084	-3.25468	-38.24249	-12.20505	-148.90161	-50.44754	-46.37919	-74.04397	-42.31084	0
335	-39.05616	-50.44754	-19.52808	43.12451	-6.50936	-37.42882	-13.01872	-148.08794	-52.88855	-46.37919	-74.85764	-41.49717	0
336	-39.05616	-49.63387	-17.08707	43.12451	-8.95037	-34.98781	-13.83239	-146.4606	-55.32956	-47.19286	-76.48498	-41.49717	0
337	-38.24249	-48.00653	-13.01872	43.93818	-13.01872	-31.73313	-14.64606	-142.39225	-56.9569	-47.19286	-77.29865	-41.49717	0
338	-37.42882	-48.00653	-8.1367	45.56552	-17.90074	-28.47845	-13.83239	-135.88289	-56.14323	-47.19286	-78.11232	-42.31084	0
339	-37.42882	-48.8202	-5.69569	47.19286	-20.34175	-26.85111	-13.83239	-130.1872	-53.70222	-45.56552	-78.11232	-42.31084	0
340	-36.61515	-49.63387	-7.32303	47.19286	-17.90074	-27.66478	-13.83239	-124.49151	-52.07488	-43.93818	-78.92599	-43.93818	0
341	-32.5468	-50.44754	-12.20505	44.75185	-12.20505	-30.10579	-14.64606	-119.60949	-51.26121	-42.31084	-79.73966	-46.37919	0
342	-26.03744	-52.07488	-21.15542	41.49717	-3.25468	-33.36047	-14.64606	-115.54114	-51.26121	-40.6835	-79.73966	-48.00653	0
343	-19.52808	-53.70222	-29.29212	39.05616	4.88202	-33.36047	-13.83239	-113.10013	-50.44754	-39.86983	-79.73966	-48.00653	0
344	-17.08707	-54.51589	-33.36047	36.61515	8.1367	-34.17414	-13.83239	-111.47279	-51.26121	-39.05616	-80.55333	-47.19286	0
345	-18.71441	-55.32956	-34.17414	34.98781	7.32303	-36.61515	-15.45973	-110.65912	-54.51589	-39.86983	-81.367	-46.37919	0
346	-21.96909	-55.32956	-31.73313	36.61515	4.06835	-38.24249	-17.08707	-109.03178	-56.9569	-40.6835	-81.367	-44.75185	0
347	-29.29212	-55.32956	-27.66478	39.05616	-1.62734	-39.05616	-15.45973	-104.14976	-56.9569	-39.05616	-79.73966	-40.6835	0
348	-37.42882	-52.88855	-23.59643	40.6835	-9.76404	-37.42882	-13.01872	-96.01306	-53.70222	-34.17414	-76.48498	-34.98781	0
349	-43.12451	-50.44754	-19.52808	40.6835	-15.45973	-34.98781	-10.57771	-87.87636	-48.8202	-29.29212	-74.04397	-30.10579	0
350	-45.56552	-50.44754	-14.64606	43.12451	-18.71441	-32.5468	-9.76404	-81.367	-45.56552	-26.03744	-72.41663	-27.66478	0
351	-48.00653	-52.07488	-11.39138	46.37919	-19.52808	-32.5468	-9.76404	-77.29865	-44.75185	-24.4101	-71.60296	-27.66478	0
352	-46.37919	-52.88855	-11.39138	48.8202	-17.90074	-34.17414	-10.57771	-74.04397	-44.75185	-25.22377	-73.2303	-30.10579	0
353	-41.49717	-52.07488	-13.83239	48.00653	-13.83239	-36.61515	-12.20505	-72.41663	-46.37919	-26.85111	-75.67131	-34.17414	0
354	-38.24249	-51.26121	-15.45973	46.37919	-10.57771	-36.61515	-13.83239	-72.41663	-48.8202	-30.10579	-79.73966	-38.24249	0
355	-36.61515	-49.63387	-13.83239	44.75185	-10.57771	-34.98781	-16.2734	-73.2303	-52.07488	-32.5468	-83.80801	-43.12451	0
356	-35.80148	-47.19286	-11.39138	43.12451	-12.20505	-30.91946	-18.71441	-72.41663	-54.51589	-34.17414	-87.06269	-45.56552	0
357	-34.17414	-45.56552	-11.39138	40.6835	-11.39138	-27.66478	-20.34175	-69.16195	-55.32956	-34.17414	-87.06269	-45.56552	0
358	-31.73313	-46.37919	-16.2734	39.05616	-8.1367	-25.22377	-21.15542	-65.0936	-54.51589	-33.36047	-86.24902	-44.75185	0
359	-29.29212	-48.8202	-21.96909	38.24249	-3.25468	-26.85111	-21.96909	-61.83892	-53.70222	-32.5468	-84.62168	-44.75185	0
360	-26.85111	-50.44754	-26.85111	37.42882	0	-31.73313	-23.59643	-57.77057	-52.07488	-30.91946	-83.80801	-43.12451	0
361	-22.78276	-51.26121	-30.91946	36.61515	3.25468	-36.61515	-26.03744	-55.32956	-51.26121	-30.10579	-82.99434	-41.49717	0
362	-21.96909	-51.26121	-34.17414	35.80148	4.06835	-41.49717	-26.85111	-52.07488	-50.44754	-28.47845	-82.99434	-39.86983	0
363	-25.22377	-50.44754	-35.80148	35.80148	0	-43.93818	-26.85111	-48.8202	-49.63387	-26.85111	-81.367	-37.42882	0
364	-28.47845	-48.8202	-33.36047	35.80148	-4.88202	-42.31084	-26.03744	-47.19286	-48.8202	-24.4101	-79.73966	-34.98781	0
365	-30.10579	-46.37919	-26.85111	36.61515	-7.32303	-38.24249	-26.03744	-45.56552	-49.63387	-22.78276	-78.11232	-33.36047	0
366	-30.91946	-43.93818	-21.96909	37.42882	-8.1367	-34.98781	-28.47845	-46.37919	-52.07488	-22.78276	-78.92599	-34.98781	0
367	-28.47845	-42.31084	-19.52808	37.42882	-4.06835	-34.17414	-30.91946	-47.19286	-55.32956	-25.22377	-81.367	-38.24249	0
368	-21.96909	-42.31084	-19.52808	38.24249	4.06835	-33.36047	-31.73313	-45.56552	-57.77057	-26.03744	-84.62168	-41.49717	0
369	-13.83239	-43.12451	-21.96909	39.05616	12.20505	-33.36047	-33.36047	-43.12451	-56.9569	-26.85111	-86.24902	-43.93818	0
370	-8.95037	-43.12451	-26.85111	37.42882	15.45973	-34.98781	-34.17414	-39.86983	-53.70222	-26.03744	-87.06269	-46.37919	0
371	-8.95037	-44.75185	-29.29212	34.98781	14.64606	-37.42882	-34.17414	-35.80148	-50.44754	-24.4101	-86.24902	-47.19286	0
372	-15.45973	-46.37919	-31.73313	35.80148	12.20505	-37.42882	-31.73313	-30.10579	-46.37919	-22.78276	-84.62168	-46.37919	0
373	-26.85111	-48.00653	-33.36047	37.42882	10.57771	-34.17414	-27.66478	-26.03744	-42.31084	-21.15542	-82.99434	-43.93818	0
374	-34.98781	-49.63387	-31.73313	40.6835	6.50936	-32.5468	-25.22377	-24.4101	-41.49717	-20.34175	-80.55333	-41.49717	0
375	-36.61515	-52.07488	-30.10579	42.31084	3.25468	-34.17414	-26.03744	-25.22377	-44.75185	-21.96909	-80.55333	-39.86983	0
376	-32.5468	-55.32956	-31.73313	42.31084	3.25468	-39.05616	-29.29212	-27.66478	-48.8202	-25.22377	-82.18067	-39.86983	0
377	-28.47845	-58.58424	-34.17414	40.6835	4.06835	-44.75185	-32.5468	-29.29212	-51.26121	-27.66478	-83.80801	-39.05616	0
378	-28.47845	-59.39791	-33.36047	39.05616	2.44101	-50.44754	-34.98781	-28.47845	-51.26121	-28.47845	-83.80801	-38.24249	0
379	-30.91946	-61.02525	-31.73313	39.05616	0	-52.07488	-36.61515	-26.03744	-50.44754	-27.66478	-82.18067	-37.42882	0
380	-30.91946	-61.83892	-31.73313	40.6835	0	-52.07488	-37.42882	-23.59643	-48.8202	-25.22377	-81.367	-38.24249	0
381	-28.47845	-61.83892	-33.36047	41.49717	1.62734	-52.07488	-37.42882	-21.15542	-48.00653	-23.59643	-80.55333	-39.05616	0
382	-24.4101	-59.39791	-37.42882	39.05616	4.88202	-52.07488	-37.42882	-19.52808	-48.8202	-22.78276	-79.73966	-39.86983	0
383	-20.34175	-55.32956	-42.31084	34.98781	6.50936	-52.88855	-37.42882	-20.34175	-49.63387	-23.59643	-79.73966	-41.49717	0
384	-14.64606	-51.26121	-44.75185	30.91946	8.95037	-52.07488	-37.42882	-21.15542	-51.26121	-26.03744	-78.92599	-42.31084	0
385	-12.20505	-48.8202	-43.12451	29.29212	10.57771	-48.8202	-37.42882	-21.96909	-52.88855	-27.66478	-78.92599	-43.12451	0
386	-13.01872	-49.63387	-40.6835	30.10579	10.57771	-46.37919	-38.24249	-23.59643	-53.70222	-29.29212	-78.92599	-43.12451	0
387	-17.08707	-52.07488	-38.24249	34.17414	8.1367	-45.56552	-39.05616	-24.4101	-53.70222	-30.91946	-78.11232	-43.93818	0
388	-23.59643	-56.14323	-34.98781	39.86983	4.88202	-45.56552	-40.6835	-22.78276	-52.88855	-30.91946	-78.11232	-43.93818	0
389	-28.47845	-61.02525	-34.98781	43.93818	2.44101	-47.19286	-41.49717	-21.15542	-52.07488	-30.10579	-77.29865	-43.93818	0
390	-30.10579	-65.90727	-37.42882	47.19286	3.25468	-51.26121	-42.31084	-19.52808	-51.26121	-29.29212	-76.48498	-43.93818	0
391	-26.85111	-68.34828	-42.31084	47.19286	7.32303	-55.32956	-43.12451	-18.71441	-51.26121	-28.47845	-75.67131	-43.93818	0
392	-22.78276	-66.72094	-48.00653	43.93818	10.57771	-59.39791	-42.31084	-17.90074	-51.26121	-27.66478	-75.67131	-43.93818	0
393	-22.78276	-64.27993	-52.07488	40.6835	8.95037	-61.83892	-41.49717	-17.90074	-50.44754	-26.85111	-74.85764	-43.93818	0
394	-23.59643	-61.83892	-52.07488	37.42882	5.69569	-61.02525	-40.6835	-18.71441	-51.26121	-27.66478	-74.85764	-43.12451	0
395	-25.22377	-61.02525	-47.19286	37.42882	4.06835	-56.9569	-43.12451	-21.96909	-54.51589	-29.29212	-76.48498	-43.12451	0
396	-25.22377	-61.02525	-43.12451	38.24249	4.06835	-54.51589	-45.56552	-25.22377	-56.9569	-33.36047	-79.73966	-43.93818	0
397	-17.90074	-61.83892	-41.49717	36.61515	6.50936	-52.07488	-48.8202	-26.85111	-59.39791	-38.24249	-82.99434	-45.56552	0
398	-6.50936	-61.02525	-39.05616	31.73313	7.32303	-48.8202	-49.63387	-25.22377	-60.21158	-41.49717	-84.62168	-48.00653	0
399	0	-59.39791	-38.24249	29.29212	7.32303	-47.19286	-50.44754	-22.78276	-59.39791	-42.31084	-85.43535	-49.63387	0
400	-0.81367	-58.58424	-39.86983	28.47845	10.57771	-48.00653	-50.44754	-20.34175	-56.9569	-39.86983	-84.62168	-49.63387	0
401	-4.88202	-57.77057	-41.49717	30.91946	12.20505	-48.8202	-51.26121	-18.71441	-54.51589	-35.80148	-83.80801	-48.00653	0
402	-7.32303	-56.9569	-43.93818	31.73313	15.45973	-51.26121	-52.07488	-17.08707	-52.07488	-31.73313	-82.99434	-44.75185	0
403	-5.69569	-55.32956	-48.00653	30.10579	20.34175	-54.51589	-52.07488	-17.08707	-50.44754	-28.47845	-80.55333	-40.6835	0
404	-3.25468	-53.70222	-51.26121	28.47845	24.4101	-56.14323	-52.88855	-19.52808	-52.07488	-27.66478	-78.92599	-38.24249	0
405	-3.25468	-53.70222	-51.26121	29.29212	24.4101	-55.32956	-53.70222	-22.78276	-54.51589	-28.47845	-78.92599	-37.42882	0
406	-9.76404	-56.9569	-48.00653	33.36047	19.52808	-53.70222	-53.70222	-23.59643	-56.9569	-30.10579	-78.92599	-37.42882	0
407	-16.2734	-61.02525	-42.31084	38.24249	13.83239	-51.26121	-52.07488	-21.96909	-56.9569	-30.10579	-77.29865	-37.42882	0
408	-19.52808	-64.27993	-37.42882	41.49717	13.83239	-48.8202	-50.44754	-18.71441	-55.32956	-29.29212	-76.48498	-37.42882	0
409	-19.52808	-65.90727	-36.61515	42.31084	14.64606	-48.8202	-49.63387	-16.2734	-52.07488	-27.66478	-75.67131	-38.24249	0
410	-17.90074	-64.27993	-39.05616	40.6835	15.45973	-49.63387	-48.00653	-13.83239	-49.63387	-27.66478	-75.67131	-39.05616	0
411	-13.83239	-61.83892	-41.49717	36.61515	17.08707	-50.44754	-47.19286	-13.83239	-46.37919	-27.66478	-76.48498	-41.49717	0
412	-10.57771	-61.83892	-44.75185	35.80148	18.71441	-50.44754	-47.19286	-13.83239	-43.93818	-29.29212	-78.11232	-43.93818	0
413	-5.69569	-63.46626	-48.8202	37.42882	21.96909	-49.63387	-47.19286	-13.83239	-43.12451	-31.73313	-81.367	-48.00653	0
414	-3.25468	-63.46626	-51.26121	39.05616	23.59643	-49.63387	-47.19286	-13.83239	-43.93818	-33.36047	-84.62168	-50.44754	0
415	-4.88202	-61.83892	-50.44754	38.24249	22.78276	-50.44754	-45.56552	-13.01872	-44.75185	-34.17414	-85.43535	-49.63387	0
416	-7.32303	-60.21158	-48.8202	36.61515	20.34175	-51.26121	-43.93818	-11.39138	-46.37919	-34.98781	-86.24902	-48.00653	0
417	-11.39138	-61.02525	-48.8202	36.61515	17.90074	-52.88855	-44.75185	-10.57771	-47.19286	-35.80148	-86.24902	-47.19286	0
418	-16.2734	-62.65259	-48.00653	35.80148	15.45973	-54.51589	-47.19286	-10.57771	-47.19286	-34.98781	-84.62168	-47.19286	0
419	-17.90074	-65.0936	-50.44754	35.80148	16.2734	-56.9569	-49.63387	-11.39138	-46.37919	-34.98781	-83.80801	-46.37919	0
420	-16.2734	-67.53461	-54.51589	36.61515	18.71441	-61.02525	-51.26121	-10.57771	-45.56552	-34.17414	-82.18067	-44.75185	0
421	-15.45973	-70.78929	-56.14323	39.05616	20.34175	-63.46626	-51.26121	-9.76404	-43.93818	-32.5468	-79.73966	-43.12451	0
422	-13.83239	-73.2303	-57.77057	41.49717	21.96909	-65.90727	-49.63387	-8.95037	-42.31084	-32.5468	-78.11232	-41.49717	0
423	-11.39138	-73.2303	-59.39791	43.12451	24.4101	-67.53461	-48.00653	-8.1367	-41.49717	-33.36047	-77.29865	-41.49717	0
424	-8.95037	-71.60296	-60.21158	43.12451	26.03744	-68.34828	-47.19286	-8.1367	-42.31084	-34.17414	-78.11232	-42.31084	0
425	-8.95037	-69.97562	-58.58424	43.12451	24.4101	-65.90727	-48.00653	-8.95037	-43.12451	-34.17414	-78.92599	-43.12451	0
426	-11.39138	-66.72094	-54.51589	40.6835	21.15542	-61.83892	-48.00653	-8.1367	-44.75185	-34.98781	-79.73966	-44.75185	0
427	-11.39138	-64.27993	-49.63387	39.05616	21.15542	-56.9569	-48.00653	-6.50936	-46.37919	-34.98781	-81.367	-46.37919	0
428	-7.32303	-63.46626	-45.56552	36.61515	26.03744	-52.88855	-48.00653	-3.25468	-46.37919	-34.17414	-83.80801	-48.00653	0
429	-3.25468	-64.27993	-47.19286	34.17414	30.91946	-52.88855	-48.00653	-0.81367	-45.56552	-34.17414	-83.80801	-49.63387	0
430	-0.81367	-65.0936	-52.07488	32.5468	33.36047	-56.14323	-48.8202	0	-43.12451	-33.36047	-83.80801	-52.07488	0
431	-0.81367	-65.90727	-57.77057	32.5468	33.36047	-61.02525	-50.44754	1.62734	-39.86983	-32.5468	-82.99434	-53.70222	0
432	-4.06835	-66.72094	-61.83892	34.17414	29.29212	-65.0936	-51.26121	2.44101	-37.42882	-32.5468	-81.367	-54.51589	0
433	-13.01872	-66.72094	-64.27993	38.24249	20.34175	-68.34828	-52.07488	2.44101	-35.80148	-32.5468	-81.367	-54.51589	0
434	-20.34175	-67.53461	-61.83892	41.49717	12.20505	-67.53461	-52.07488	1.62734	-36.61515	-34.17414	-81.367	-53.70222	0
435	-23.59643	-66.72094	-56.14323	43.93818	8.1367	-64.27993	-52.88855	0	-39.05616	-37.42882	-82.99434	-52.88855	0
436	-22.78276	-65.90727	-52.07488	43.12451	8.95037	-61.02525	-51.26121	-0.81367	-43.12451	-40.6835	-84.62168	-52.88855	0
437	-18.71441	-64.27993	-50.44754	42.31084	11.39138	-59.39791	-48.8202	0	-44.75185	-43.12451	-85.43535	-52.88855	0
438	-13.01872	-64.27993	-48.8202	39.86983	12.20505	-56.9569	-45.56552	4.88202	-43.12451	-43.12451	-84.62168	-52.07488	0
439	-8.1367	-65.90727	-49.63387	38.24249	14.64606	-56.9569	-42.31084	8.95037	-39.86983	-41.49717	-82.18067	-49.63387	0
440	-5.69569	-68.34828	-55.32956	37.42882	20.34175	-61.83892	-41.49717	12.20505	-35.80148	-39.05616	-79.73966	-48.00653	0
441	-1.62734	-72.41663	-65.90727	37.42882	29.29212	-69.16195	-42.31084	13.01872	-34.17414	-38.24249	-78.11232	-48.00653	0
442	0	-76.48498	-74.04397	37.42882	35.80148	-78.11232	-43.93818	13.83239	-33.36047	-38.24249	-76.48498	-48.8202	0
443	-4.06835	-79.73966	-72.41663	38.24249	34.17414	-83.80801	-43.93818	14.64606	-31.73313	-39.05616	-75.67131	-48.8202	0
444	-13.01872	-80.55333	-65.0936	38.24249	26.85111	-82.99434	-43.12451	15.45973	-30.10579	-39.86983	-74.85764	-48.00653	0
445	-19.52808	-78.92599	-58.58424	38.24249	20.34175	-77.29865	-41.49717	15.45973	-30.91946	-39.86983	-74.85764	-48.8202	0
446	-21.15542	-76.48498	-54.51589	39.86983	16.2734	-70.78929	-40.6835	15.45973	-33.36047	-41.49717	-77.29865	-51.26121	0
447	-21.15542	-74.04397	-52.07488	39.86983	15.45973	-65.0936	-40.6835	15.45973	-35.80148	-43.12451	-80.55333	-55.32956	0
448	-21.96909	-74.04397	-51.26121	39.05616	14.64606	-61.83892	-40.6835	14.64606	-38.24249	-43.93818	-84.62168	-60.21158	0
449	-21.15542	-75.67131	-54.51589	39.05616	16.2734	-62.65259	-41.49717	14.64606	-38.24249	-44.75185	-87.06269	-63.46626	0
450	-20.34175	-77.29865	-56.9569	41.49717	17.90074	-65.0936	-42.31084	17.08707	-35.80148	-43.93818	-87.06269	-62.65259	0
451	-18.71441	-77.29865	-57.77057	43.12451	19.52808	-65.90727	-40.6835	21.96909	-30.91946	-40.6835	-82.99434	-59.39791	0
452	-14.64606	-73.2303	-59.39791	42.31084	22.78276	-65.0936	-37.42882	27.66478	-26.03744	-37.42882	-78.92599	-55.32956	0
453	-9.76404	-69.97562	-61.02525	41.49717	26.03744	-62.65259	-34.17414	31.73313	-21.96909	-34.17414	-74.85764	-51.26121	0
454	-9.76404	-69.16195	-60.21158	42.31084	26.03744	-60.21158	-31.73313	34.17414	-19.52808	-32.5468	-72.41663	-48.00653	0
455	-11.39138	-67.53461	-57.77057	42.31084	23.59643	-58.58424	-30.10579	35.80148	-19.52808	-30.91946	-70.78929	-46.37919	0
456	-11.39138	-65.0936	-54.51589	39.86983	21.15542	-56.9569	-26.85111	37.42882	-19.52808	-28.47845	-69.16195	-43.12451	0
457	-8.1367	-59.39791	-52.07488	34.98781	18.71441	-53.70222	-22.78276	41.49717	-17.08707	-26.03744	-65.0936	-39.05616	0
458	-3.25468	-52.88855	-51.26121	27.66478	15.45973	-50.44754	-17.90074	48.00653	-13.01872	-21.96909	-59.39791	-34.98781	0
459	1.62734	-44.75185	-49.63387	21.15542	13.83239	-46.37919	-13.01872	54.51589	-7.32303	-18.71441	-53.70222	-30.91946	0
460	2.44101	-38.24249	-43.12451	16.2734	13.01872	-39.86983	-8.1367	59.39791	-3.25468	-15.45973	-49.63387	-30.10579	0
461	0	-32.5468	-34.17414	15.45973	10.57771	-33.36047	-2.44101	63.46626	0	-13.01872	-46.37919	-29.29212	0
462	-3.25468	-26.85111	-26.85111	15.45973	8.95037	-29.29212	1.62734	66.72094	3.25468	-11.39138	-43.93818	-30.10579	0
463	-4.06835	-21.96909	-22.78276	15.45973	8.95037	-27.66478	4.88202	68.34828	5.69569	-10.57771	-42.31084	-30.10579	0
464	-4.88202	-19.52808	-20.34175	16.2734	8.95037	-26.03744	6.50936	67.53461	4.88202	-11.39138	-43.93818	-30.91946	0
465	-4.88202	-19.52808	-19.52808	16.2734	8.1367	-24.4101	6.50936	64.27993	0.81367	-14.64606	-48.00653	-33.36047	0
466	-4.88202	-21.15542	-18.71441	14.64606	8.1367	-22.78276	5.69569	61.83892	-3.25468	-18.71441	-52.07488	-35.80148	0
467	-2.44101	-21.96909	-17.90074	13.01872	6.50936	-22.78276	5.69569	61.83892	-4.88202	-20.34175	-53.70222	-35.80148	0
468	2.44101	-21.15542	-15.45973	8.95037	5.69569	-22.78276	7.32303	65.0936	-3.25468	-19.52808	-52.88855	-34.17414	0
469	8.95037	-17.90074	-15.45973	3.25468	7.32303	-21.96909	7.32303	69.97562	0.81367	-17.08707	-50.44754	-31.73313	0
470	14.64606	-12.20505	-16.2734	-1.62734	11.39138	-18.71441	4.88202	74.04397	5.69569	-13.83239	-46.37919	-28.47845	0
471	15.45973	-4.88202	-14.64606	-5.69569	13.01872	-13.83239	2.44101	76.48498	10.57771	-8.95037	-42.31084	-24.4101	0
472	13.83239	0.81367	-5.69569	-8.1367	7.32303	-4.88202	0	77.29865	13.83239	-5.69569	-37.42882	-21.15542	0
473	14.64606	8.1367	7.32303	-13.01872	-0.81367	5.69569	-3.25468	74.85764	15.45973	-3.25468	-34.17414	-18.71441	0
474	17.08707	16.2734	17.90074	-18.71441	-6.50936	17.08707	-8.1367	69.16195	13.83239	-3.25468	-31.73313	-16.2734	0
475	17.08707	24.4101	24.4101	-23.59643	-8.1367	25.22377	-15.45973	62.65259	10.57771	-3.25468	-30.10579	-13.01872	0
476	16.2734	32.5468	28.47845	-26.85111	-8.95037	31.73313	-23.59643	56.14323	5.69569	-4.06835	-28.47845	-9.76404	0
477	17.90074	39.86983	30.10579	-30.91946	-5.69569	34.98781	-32.5468	51.26121	4.06835	-4.06835	-26.03744	-7.32303	0
478	23.59643	45.56552	31.73313	-34.17414	0	35.80148	-40.6835	49.63387	3.25468	-2.44101	-22.78276	-4.06835	0
479	30.10579	50.44754	30.10579	-36.61515	6.50936	34.98781	-48.00653	49.63387	4.88202	0.81367	-19.52808	-0.81367	0
480	37.42882	52.88855	23.59643	-39.86983	13.01872	34.17414	-53.70222	50.44754	7.32303	4.88202	-16.2734	1.62734	0
481	45.56552	50.44754	11.39138	-44.75185	21.15542	27.66478	-58.58424	50.44754	8.1367	8.1367	-14.64606	3.25468	0
482	56.14323	47.19286	0	-48.8202	29.29212	17.08707	-62.65259	50.44754	8.1367	8.1367	-14.64606	3.25468	0
483	65.90727	42.31084	-8.95037	-50.44754	34.17414	8.1367	-68.34828	46.37919	5.69569	7.32303	-15.45973	3.25468	0
484	72.41663	35.80148	-19.52808	-50.44754	40.6835	0.81367	-77.29865	38.24249	0	3.25468	-17.90074	2.44101	0
485	74.85764	28.47845	-33.36047	-48.00653	48.8202	-6.50936	-88.69003	26.85111	-9.76404	-2.44101	-22.78276	0.81367	0
486	73.2303	20.34175	-44.75185	-44.75185	55.32956	-13.83239	-100.08141	14.64606	-21.96909	-10.57771	-29.29212	-1.62734	0
487	67.53461	13.83239	-50.44754	-40.6835	56.9569	-19.52808	-107.40444	4.88202	-32.5468	-17.90074	-36.61515	-4.88202	0
488	60.21158	11.39138	-51.26121	-34.98781	55.32956	-21.96909	-111.47279	1.62734	-39.86983	-22.78276	-43.93818	-8.95037	0
489	55.32956	8.95037	-52.07488	-30.91946	53.70222	-25.22377	-111.47279	1.62734	-41.49717	-26.03744	-48.8202	-13.01872	0
490	53.70222	4.06835	-53.70222	-29.29212	55.32956	-26.85111	-108.21811	4.88202	-38.24249	-26.03744	-51.26121	-16.2734	0
491	55.32956	-1.62734	-56.14323	-28.47845	56.9569	-29.29212	-102.52242	10.57771	-30.91946	-21.96909	-48.00653	-17.08707	0
492	52.07488	-7.32303	-58.58424	-26.03744	54.51589	-30.10579	-92.75838	17.90074	-22.78276	-16.2734	-43.12451	-17.08707	0
493	39.86983	-12.20505	-59.39791	-17.90074	44.75185	-29.29212	-82.18067	26.03744	-16.2734	-12.20505	-38.24249	-16.2734	0
494	25.22377	-19.52808	-56.14323	-6.50936	34.17414	-30.10579	-73.2303	32.5468	-13.01872	-10.57771	-35.80148	-15.45973	0
495	13.83239	-26.85111	-51.26121	3.25468	26.03744	-32.5468	-67.53461	34.98781	-13.01872	-13.01872	-37.42882	-15.45973	0
496	8.1367	-33.36047	-48.8202	10.57771	24.4101	-36.61515	-65.0936	33.36047	-17.90074	-18.71441	-42.31084	-18.71441	0
497	4.06835	-39.86983	-48.00653	14.64606	24.4101	-41.49717	-65.90727	29.29212	-25.22377	-26.03744	-48.8202	-24.4101	0
498	0	-47.19286	-48.8202	17.08707	23.59643	-45.56552	-69.16195	23.59643	-33.36047	-34.98781	-57.77057	-32.5468	0
499	-4.88202	-54.51589	-52.88855	21.96909	24.4101	-52.88855	-72.41663	17.90074	-39.86983	-44.75185	-68.34828	-42.31084	0
500	-7.32303	-62.65259	-59.39791	29.29212	26.85111	-61.83892	-74.85764	13.01872	-45.56552	-52.07488	-78.11232	-51.26121	0
501	-8.1367	-70.78929	-65.90727	36.61515	29.29212	-69.97562	-75.67131	8.95037	-49.63387	-58.58424	-85.43535	-57.77057	0
502	-7.32303	-75.67131	-72.41663	39.86983	31.73313	-75.67131	-77.29865	5.69569	-52.88855	-61.83892	-91.13104	-63.46626	0
503	-8.95037	-79.73966	-78.11232	40.6835	30.91946	-77.29865	-77.29865	2.44101	-54.51589	-65.0936	-94.38572	-67.53461	0
504	-13.01872	-82.99434	-78.92599	40.6835	27.66478	-78.11232	-77.29865	0	-56.14323	-66.72094	-96.82673	-70.78929	0
505	-17.90074	-86.24902	-74.85764	43.93818	23.59643	-78.11232	-76.48498	-2.44101	-58.58424	-67.53461	-97.6404	-71.60296	0
506	-21.96909	-87.06269	-70.78929	48.00653	21.15542	-78.11232	-75.67131	-3.25468	-60.21158	-68.34828	-98.45407	-70.78929	0
507	-21.96909	-87.87636	-72.41663	52.88855	22.78276	-78.11232	-76.48498	-2.44101	-59.39791	-69.16195	-99.26774	-70.78929	0
508	-17.90074	-90.31737	-79.73966	55.32956	30.10579	-78.11232	-76.48498	0	-56.9569	-69.16195	-99.26774	-69.16195	0
509	-13.01872	-91.94471	-86.24902	54.51589	36.61515	-79.73966	-76.48498	3.25468	-54.51589	-67.53461	-98.45407	-67.53461	0
510	-6.50936	-93.57205	-91.13104	51.26121	42.31084	-83.80801	-75.67131	4.88202	-52.88855	-65.90727	-98.45407	-68.34828	0
511	-1.62734	-93.57205	-93.57205	48.8202	46.37919	-88.69003	-74.85764	6.50936	-51.26121	-65.0936	-99.26774	-69.16195	0
512	-1.62734	-95.19939	-91.94471	47.19286	45.56552	-92.75838	-73.2303	6.50936	-48.8202	-65.0936	-98.45407	-69.97562	0
513	-7.32303	-96.01306	-84.62168	47.19286	39.05616	-96.01306	-71.60296	5.69569	-48.00653	-65.90727	-97.6404	-70.78929	0
514	-15.45973	-96.82673	-76.48498	48.00653	31.73313	-95.19939	-71.60296	3.25468	-49.63387	-66.72094	-99.26774	-72.41663	0
515	-21.96909	-96.82673	-70.78929	51.26121	24.4101	-91.13104	-72.41663	0	-53.70222	-69.97562	-101.70875	-74.85764	0
516	-26.03744	-96.01306	-68.34828	54.51589	21.15542	-87.87636	-74.04397	-1.62734	-58.58424	-73.2303	-105.7771	-78.92599	0
517	-28.47845	-94.38572	-68.34828	57.77057	20.34175	-87.06269	-76.48498	-2.44101	-61.02525	-76.48498	-109.84545	-82.18067	0
518	-30.91946	-94.38572	-66.72094	59.39791	17.90074	-87.87636	-77.29865	0	-60.21158	-78.11232	-111.47279	-85.43535	0
519	-32.5468	-95.19939	-66.72094	59.39791	17.08707	-88.69003	-77.29865	2.44101	-56.9569	-76.48498	-111.47279	-87.06269	0
520	-31.73313	-97.6404	-67.53461	61.02525	17.90074	-88.69003	-76.48498	4.88202	-52.88855	-74.04397	-110.65912	-87.06269	0
521	-33.36047	-101.70875	-69.16195	65.0936	17.90074	-89.5037	-75.67131	7.32303	-50.44754	-71.60296	-109.03178	-87.06269	0
522	-34.17414	-104.14976	-71.60296	68.34828	19.52808	-88.69003	-74.04397	9.76404	-46.37919	-69.97562	-106.59077	-87.06269	0
523	-30.91946	-103.33609	-75.67131	69.16195	22.78276	-87.06269	-71.60296	13.01872	-42.31084	-69.16195	-104.14976	-85.43535	0
524	-27.66478	-101.70875	-78.11232	66.72094	26.03744	-82.18067	-69.97562	12.20505	-43.93818	-70.78929	-105.7771	-83.80801	0
525	-28.47845	-99.26774	-71.60296	65.90727	22.78276	-74.85764	-70.78929	0	-56.14323	-78.92599	-111.47279	-84.62168	0
526	-37.42882	-91.94471	-49.63387	65.0936	9.76404	-61.83892	-75.67131	-28.47845	-82.18067	-94.38572	-119.60949	-85.43535	0
527	-49.63387	-77.29865	-18.71441	63.46626	-9.76404	-42.31084	-87.06269	-80.55333	-126.11885	-117.16848	-130.1872	-84.62168	0
528	-61.02525	-54.51589	12.20505	60.21158	-31.73313	-17.08707	-104.96343	-157.85198	-191.21245	-148.08794	-143.20592	-82.99434	0
529	-74.04397	-26.85111	49.63387	56.9569	-58.58424	13.01872	-128.55986	-255.49238	-272.57945	-183.07575	-156.22464	-77.29865	0
530	-92.75838	0.81367	94.38572	51.26121	-91.94471	48.8202	-148.90161	-362.89682	-363.71049	-217.24989	-165.17501	-65.90727	0
531	-112.28646	29.29212	141.57858	42.31084	-126.11885	85.43535	-160.29299	-470.30126	-458.09621	-245.72834	-169.24336	-48.8202	0
532	-126.93252	58.58424	187.95777	30.91946	-157.85198	121.23683	-165.98868	-573.63735	-550.04092	-265.25642	-164.36134	-24.4101	0
533	-132.62821	94.38572	234.33696	17.08707	-186.33043	161.92033	-169.24336	-668.02307	-630.59425	-269.32477	-144.83326	9.76404	0
534	-134.25555	140.76491	285.59817	-3.25468	-213.99521	209.92686	-169.24336	-750.20374	-694.87418	-253.05137	-106.59077	60.21158	0
535	-133.44188	196.90814	339.30039	-30.91946	-240.03265	266.07009	-173.31171	-834.82542	-755.89943	-225.38659	-54.51589	123.67784	0
536	-129.37353	257.11972	393.81628	-63.46626	-263.62908	323.84066	-204.23117	-957.68959	-845.40313	-212.36787	-7.32303	189.58511	0
537	-117.16848	312.44928	437.75446	-97.6404	-275.83413	373.47453	-286.41184	-1154.59773	-995.11841	-235.9643	17.90074	249.79669	0
538	-95.19939	362.08315	464.60557	-132.62821	-276.6478	411.71702	-425.54941	-1417.41314	-1199.34958	-298.61689	17.90074	301.0579	0
539	-65.0936	413.34436	482.50631	-173.31171	-270.13844	446.70483	-607.81149	-1704.63865	-1419.85415	-376.72921	5.69569	350.69177	0
540	-25.22377	476.81062	492.27035	-225.38659	-262.00174	489.82934	-827.50239	-1984.54113	-1607.81192	-441.00914	4.06835	412.53069	0
541	27.66478	540.27688	491.45668	-291.29386	-248.16935	541.90422	-1078.92642	-2240.84718	-1738.81279	-472.74227	24.4101	490.64301	0
542	94.38572	584.21506	487.38833	-359.64214	-218.87723	582.58772	-1347.43752	-2449.96037	-1816.11144	-467.86025	59.39791	575.26469	0
543	173.31171	604.55681	453.21419	-410.90335	-158.66565	578.51937	-1606.99825	-2585.84326	-1835.63952	-439.3818	87.87636	640.35829	0
544	260.3744	591.53809	357.20113	-439.3818	-60.21158	510.98476	-1814.4841	-2635.47713	-1788.44666	-397.07096	107.40444	667.2094	0
545	341.7414	539.46321	218.06356	-446.70483	55.32956	400.32564	-1939.78928	-2599.67565	-1681.85589	-346.62342	123.67784	660.70004	0
546	397.07096	470.30126	86.24902	-435.31345	149.71528	288.03918	-1989.42315	-2489.01653	-1524.81758	-285.59817	133.44188	634.6626	0
547	417.41271	405.20766	-5.69569	-410.90335	200.97649	201.79016	-1969.0814	-2315.70482	-1335.23247	-214.80888	139.13757	603.74314	0
548	408.46234	353.94645	-54.51589	-379.98389	218.87723	149.71528	-1880.39137	-2098.45493	-1133.44231	-144.83326	144.83326	568.75533	0
549	377.54288	315.70396	-64.27993	-344.99608	210.74053	124.49151	-1733.93077	-1849.47191	-940.60252	-91.94471	141.57858	525.63082	0
550	329.53635	283.97083	-48.00653	-305.93992	182.26208	113.10013	-1545.15933	-1575.26512	-769.73182	-68.34828	116.35481	465.41924	0
551	271.76578	251.42403	-22.78276	-261.18807	144.83326	103.33609	-1331.97779	-1292.92163	-630.59425	-78.11232	65.0936	388.12059	0
552	214.80888	213.99521	-1.62734	-214.80888	111.47279	91.13104	-1112.28689	-1025.2242	-524.81715	-107.40444	-4.88202	296.98955	0
553	168.42969	173.31171	6.50936	-171.68437	91.13104	77.29865	-901.54636	-782.75054	-441.82281	-137.51023	-74.04397	205.04484	0
554	139.95124	132.62821	0.81367	-134.25555	81.367	57.77057	-711.96125	-568.75533	-361.26948	-157.85198	-119.60949	127.74619	0
555	122.0505	96.01306	-13.83239	-104.96343	74.85764	35.80148	-549.22725	-382.4249	-271.76578	-159.47932	-139.13757	75.67131	0
556	105.7771	68.34828	-26.85111	-83.80801	69.97562	18.71441	-410.08968	-218.06356	-170.05703	-134.25555	-136.69656	48.8202	0
557	91.94471	48.00653	-34.17414	-68.34828	65.90727	5.69569	-291.29386	-74.04397	-62.65259	-89.5037	-115.54114	39.05616	0
558	82.99434	34.17414	-35.80148	-56.9569	65.90727	-3.25468	-192.02612	51.26121	36.61515	-39.86983	-87.87636	36.61515	0
559	74.85764	22.78276	-38.24249	-48.00653	64.27993	-11.39138	-111.47279	155.41097	119.60949	3.25468	-62.65259	35.80148	0
560	66.72094	13.83239	-43.93818	-39.86983	61.02525	-18.71441	-48.00653	235.9643	180.63474	36.61515	-43.12451	34.17414	0
561	61.02525	4.88202	-49.63387	-32.5468	59.39791	-25.22377	-0.81367	292.9212	221.31824	57.77057	-30.10579	29.29212	0
562	55.32956	0	-56.9569	-27.66478	56.9569	-29.29212	30.91946	329.53635	244.91467	69.97562	-23.59643	22.78276	0
563	47.19286	-4.88202	-62.65259	-24.4101	50.44754	-30.91946	52.88855	351.50544	257.11972	75.67131	-20.34175	15.45973	0
564	39.05616	-8.95037	-63.46626	-22.78276	43.93818	-30.91946	66.72094	362.89682	265.25642	79.73966	-19.52808	9.76404	0
565	34.17414	-13.01872	-60.21158	-20.34175	40.6835	-31.73313	74.85764	368.59251	274.20679	85.43535	-17.08707	6.50936	0
566	33.36047	-14.64606	-56.9569	-17.08707	40.6835	-32.5468	80.55333	373.47453	286.41184	96.01306	-12.20505	4.88202	0
567	37.42882	-16.2734	-58.58424	-15.45973	46.37919	-34.98781	86.24902	379.98389	303.49891	109.84545	-3.25468	5.69569	0
568	43.93818	-18.71441	-65.90727	-14.64606	55.32956	-40.6835	92.75838	391.37527	323.84066	126.11885	5.69569	6.50936	0
569	50.44754	-22.78276	-76.48498	-13.01872	64.27993	-48.8202	100.08141	405.20766	343.36874	141.57858	14.64606	6.50936	0
570	54.51589	-30.10579	-87.06269	-11.39138	72.41663	-58.58424	106.59077	418.22638	359.64214	153.78363	21.96909	4.88202	0
571	55.32956	-36.61515	-94.38572	-7.32303	76.48498	-66.72094	113.9138	431.2451	373.47453	164.36134	28.47845	4.06835	0
572	49.63387	-40.6835	-96.82673	-3.25468	76.48498	-71.60296	123.67784	445.07749	387.30692	174.12538	36.61515	4.88202	0
573	43.12451	-41.49717	-97.6404	-1.62734	75.67131	-74.85764	133.44188	457.28254	398.6983	183.07575	44.75185	7.32303	0
574	39.86983	-39.86983	-96.82673	-1.62734	74.85764	-74.04397	140.76491	466.23291	406.02133	189.58511	51.26121	10.57771	0
575	39.05616	-39.05616	-92.75838	-1.62734	71.60296	-69.97562	145.64693	471.9286	409.27601	194.46713	56.14323	11.39138	0
576	39.05616	-39.86983	-89.5037	-0.81367	67.53461	-67.53461	148.90161	475.99695	410.90335	196.90814	59.39791	12.20505	0
577	39.05616	-39.05616	-87.87636	-0.81367	65.0936	-69.16195	151.34262	480.87897	412.53069	198.53548	62.65259	12.20505	0
578	38.24249	-38.24249	-85.43535	-4.06835	63.46626	-71.60296	154.5973	487.38833	416.59904	201.79016	66.72094	12.20505	0
579	39.86983	-38.24249	-84.62168	-7.32303	63.46626	-72.41663	158.66565	496.3387	423.92207	207.48585	70.78929	12.20505	0
580	43.12451	-39.05616	-85.43535	-8.1367	65.0936	-70.78929	161.92033	505.28907	431.2451	214.80888	75.67131	12.20505	0
581	43.12451	-39.05616	-83.80801	-5.69569	64.27993	-67.53461	166.80235	513.42577	438.56813	222.13191	80.55333	11.39138	0
582	41.49717	-39.86983	-82.99434	-1.62734	62.65259	-63.46626	172.49804	520.7488	444.26382	227.01393	84.62168	9.76404	-1250	T-0
583	41.49717	-39.86983	-82.99434	0.81367	62.65259	-58.58424	179.0074	526.44449	449.14584	229.45494	86.24902	8.95037	0
584	40.6835	-39.05616	-81.367	2.44101	61.83892	-55.32956	183.88942	529.69917	452.40052	230.26861	87.06269	8.1367	0
585	39.86983	-37.42882	-78.92599	1.62734	60.21158	-53.70222	186.33043	532.14018	452.40052	230.26861	87.06269	7.32303	0
586	41.49717	-36.61515	-79.73966	0	61.02525	-54.51589	187.95777	535.39486	452.40052	230.26861	86.24902	7.32303	0
587	46.37919	-34.98781	-84.62168	-3.25468	65.90727	-56.9569	189.58511	539.46321	452.40052	231.08228	87.87636	7.32303	0
588	51.26121	-34.98781	-90.31737	-5.69569	71.60296	-56.9569	192.83979	545.97257	455.6552	233.52329	91.94471	8.95037	0
589	56.14323	-35.80148	-95.19939	-8.1367	76.48498	-58.58424	195.2808	554.10927	460.53722	238.40531	98.45407	12.20505	0
590	61.02525	-37.42882	-100.08141	-11.39138	81.367	-63.46626	197.72181	561.4323	467.04658	244.101	104.96343	14.64606	0
591	64.27993	-38.24249	-104.14976	-13.01872	85.43535	-68.34828	200.97649	569.569	473.55594	249.79669	111.47279	17.08707	0
592	65.90727	-39.05616	-104.96343	-11.39138	86.24902	-71.60296	205.04484	576.89203	480.87897	256.30605	117.98215	19.52808	0
593	64.27993	-39.05616	-103.33609	-6.50936	84.62168	-72.41663	209.11319	584.21506	487.38833	261.18807	123.67784	21.96909	0
594	59.39791	-37.42882	-94.38572	-2.44101	77.29865	-67.53461	213.18154	589.91075	493.08402	264.44275	127.74619	22.78276	0
595	53.70222	-32.5468	-84.62168	-3.25468	69.16195	-60.21158	217.24989	595.60644	496.3387	266.88376	129.37353	23.59643	0
596	51.26121	-28.47845	-78.92599	-6.50936	65.0936	-54.51589	221.31824	599.67479	497.15237	268.5111	130.1872	24.4101	0
597	50.44754	-26.03744	-75.67131	-9.76404	62.65259	-52.88855	226.20026	605.37048	498.77971	270.13844	130.1872	24.4101	0
598	47.19286	-26.03744	-71.60296	-10.57771	60.21158	-53.70222	229.45494	611.87984	502.03439	272.57945	131.00087	24.4101	0
599	44.75185	-26.85111	-70.78929	-8.95037	58.58424	-55.32956	232.70962	617.57553	505.28907	276.6478	132.62821	24.4101	0
600	44.75185	-29.29212	-73.2303	-8.95037	60.21158	-56.9569	235.9643	623.27122	510.17109	282.34349	135.88289	26.03744	0
601	48.00653	-29.29212	-76.48498	-9.76404	63.46626	-56.9569	240.84632	630.59425	515.86678	288.03918	140.76491	28.47845	0
602	52.07488	-28.47845	-80.55333	-11.39138	67.53461	-57.77057	246.54201	637.10361	521.56247	293.73487	144.83326	30.91946	0
603	57.77057	-27.66478	-84.62168	-12.20505	71.60296	-59.39791	252.2377	641.98563	526.44449	296.98955	148.90161	33.36047	0
604	60.21158	-25.22377	-85.43535	-13.83239	73.2303	-57.77057	256.30605	645.24031	528.8855	298.61689	152.96996	35.80148	0
605	60.21158	-21.96909	-82.18067	-15.45973	71.60296	-53.70222	260.3744	647.68132	529.69917	301.0579	156.22464	39.05616	0
606	59.39791	-17.90074	-78.92599	-18.71441	69.16195	-49.63387	264.44275	650.12233	529.69917	302.68524	159.47932	41.49717	0
607	57.77057	-14.64606	-79.73966	-21.96909	66.72094	-48.00653	267.69743	652.56334	530.51284	303.49891	162.734	42.31084	0
608	55.32956	-12.20505	-86.24902	-26.03744	63.46626	-48.8202	270.95211	655.00435	532.14018	304.31258	163.54767	41.49717	0
609	54.51589	-11.39138	-89.5037	-29.29212	61.83892	-49.63387	273.39312	659.88637	536.20853	306.75359	165.17501	40.6835	0
610	54.51589	-10.57771	-83.80801	-28.47845	61.02525	-46.37919	279.90248	667.2094	543.53156	312.44928	169.24336	41.49717	0
611	52.07488	-9.76404	-74.04397	-25.22377	57.77057	-41.49717	287.22551	676.15977	551.66826	318.95864	174.93905	43.12451	0
612	49.63387	-8.1367	-65.0936	-23.59643	55.32956	-38.24249	294.54854	683.4828	558.99129	323.84066	179.0074	44.75185	0
613	50.44754	-5.69569	-59.39791	-24.4101	54.51589	-35.80148	301.87157	687.55115	563.05964	325.468	181.44841	43.93818	0
614	52.07488	-0.81367	-54.51589	-26.85111	53.70222	-30.91946	307.56726	689.17849	564.68698	325.468	182.26208	43.12451	0
615	52.88855	4.06835	-48.00653	-30.10579	51.26121	-24.4101	313.26295	689.17849	563.87331	324.65433	182.26208	42.31084	0
616	54.51589	10.57771	-43.12451	-33.36047	49.63387	-17.90074	318.14497	688.36482	561.4323	321.39965	183.07575	42.31084	0
617	57.77057	16.2734	-40.6835	-39.05616	49.63387	-12.20505	323.02699	689.99216	560.61863	318.95864	183.07575	43.12451	0
618	58.58424	18.71441	-39.05616	-45.56552	49.63387	-8.1367	327.90901	693.24684	560.61863	318.14497	183.88942	43.12451	0
619	60.21158	19.52808	-39.86983	-48.8202	51.26121	-7.32303	333.6047	697.31519	564.68698	318.95864	186.33043	43.12451	0
620	63.46626	17.08707	-44.75185	-48.00653	55.32956	-11.39138	340.92773	703.01088	570.38267	322.21332	190.39878	45.56552	0
621	65.0936	14.64606	-49.63387	-44.75185	57.77057	-16.2734	349.06443	708.70657	575.26469	327.09534	196.09447	49.63387	0
622	65.0936	12.20505	-52.88855	-39.86983	59.39791	-20.34175	358.82847	713.58859	580.14671	331.16369	203.4175	54.51589	0
623	65.0936	10.57771	-55.32956	-34.98781	61.02525	-25.22377	368.59251	716.0296	583.40139	334.41837	209.11319	59.39791	0
624	63.46626	9.76404	-55.32956	-31.73313	59.39791	-25.22377	375.91554	716.84327	584.21506	335.23204	213.18154	61.83892	0
625	59.39791	11.39138	-49.63387	-30.91946	55.32956	-21.96909	382.4249	716.84327	583.40139	334.41837	215.62255	63.46626	0
626	53.70222	14.64606	-41.49717	-30.91946	48.00653	-15.45973	388.12059	718.47061	581.77405	332.79103	216.43622	65.0936	0
627	47.19286	17.90074	-31.73313	-31.73313	39.86983	-9.76404	395.44362	720.91162	581.77405	331.16369	217.24989	65.90727	0
628	41.49717	20.34175	-22.78276	-32.5468	33.36047	-5.69569	403.58032	726.60731	583.40139	331.16369	217.24989	66.72094	0
629	40.6835	22.78276	-17.90074	-32.5468	30.91946	-3.25468	412.53069	732.303	585.8424	330.35002	217.24989	66.72094	0
630	43.93818	23.59643	-19.52808	-33.36047	32.5468	-1.62734	419.85372	737.18502	588.28341	329.53635	216.43622	65.0936	0
631	48.00653	26.03744	-21.15542	-34.98781	34.98781	0	427.17675	739.62603	588.28341	328.72268	215.62255	62.65259	0
632	51.26121	29.29212	-21.96909	-39.86983	37.42882	0.81367	432.87244	740.4397	587.46974	328.72268	215.62255	61.02525	0
633	55.32956	33.36047	-22.78276	-45.56552	39.86983	2.44101	437.75446	740.4397	585.8424	327.09534	215.62255	60.21158	0
634	57.77057	38.24249	-18.71441	-50.44754	38.24249	7.32303	443.45015	737.99869	583.40139	323.84066	214.80888	61.83892	0
635	56.14323	46.37919	-10.57771	-52.88855	33.36047	15.45973	447.5185	733.93034	577.7057	318.95864	213.18154	64.27993	0
636	52.88855	54.51589	-0.81367	-54.51589	26.85111	24.4101	452.40052	730.67566	572.01001	313.26295	211.5542	68.34828	0
637	49.63387	61.02525	4.88202	-56.9569	20.34175	31.73313	457.28254	727.42098	566.31432	307.56726	209.11319	71.60296	0
638	45.56552	65.90727	8.95037	-59.39791	13.83239	38.24249	462.16456	725.79364	562.24597	303.49891	208.29952	74.85764	0
639	41.49717	69.16195	13.01872	-60.21158	8.95037	42.31084	467.86025	725.79364	560.61863	301.0579	208.29952	78.92599	0
640	41.49717	70.78929	17.08707	-61.02525	7.32303	45.56552	471.9286	724.1663	558.17762	298.61689	208.29952	82.18067	0
641	44.75185	72.41663	20.34175	-61.83892	8.95037	47.19286	475.18328	720.91162	554.10927	296.17588	208.29952	84.62168	0
642	45.56552	75.67131	26.03744	-62.65259	8.1367	49.63387	477.62429	715.21593	548.41358	292.9212	207.48585	86.24902	0
643	38.24249	78.92599	38.24249	-61.02525	0	56.14323	480.0653	707.07923	541.09055	288.85285	205.85851	87.06269	0
644	28.47845	82.18067	52.88855	-57.77057	-11.39138	65.0936	480.87897	696.50152	530.51284	283.15716	202.60383	86.24902	0
645	23.59643	87.06269	63.46626	-56.9569	-19.52808	73.2303	480.87897	682.66913	517.49412	275.83413	198.53548	85.43535	0
646	23.59643	93.57205	68.34828	-59.39791	-21.96909	78.92599	478.43796	667.2094	502.03439	266.07009	193.65346	83.80801	0
647	29.29212	98.45407	68.34828	-61.83892	-18.71441	82.18067	475.18328	650.936	484.94732	256.30605	188.77144	82.18067	0
648	34.17414	101.70875	66.72094	-60.21158	-14.64606	85.43535	470.30126	635.47627	469.48759	247.35568	183.88942	81.367	0
649	29.29212	103.33609	73.2303	-56.14323	-19.52808	89.5037	467.04658	620.83021	454.84153	240.03265	181.44841	82.99434	0
650	17.08707	104.96343	87.06269	-52.88855	-33.36047	97.6404	463.7919	605.37048	441.82281	233.52329	179.82107	86.24902	0
651	5.69569	108.21811	102.52242	-52.07488	-47.19286	105.7771	459.72355	588.28341	426.36308	227.01393	177.38006	89.5037	0
652	-1.62734	113.9138	113.10013	-54.51589	-55.32956	112.28646	454.02786	567.94166	409.27601	217.24989	174.12538	91.13104	0
653	-8.1367	119.60949	119.60949	-58.58424	-60.21158	117.16848	445.89116	542.71789	387.30692	205.04484	168.42969	91.13104	0
654	-10.57771	125.30518	126.93252	-62.65259	-63.46626	123.67784	436.12712	513.42577	362.89682	189.58511	161.10666	90.31737	0
655	-10.57771	133.44188	135.06922	-65.90727	-69.16195	131.81454	423.1084	481.69264	335.23204	174.12538	152.96996	90.31737	0
656	-8.95037	141.57858	144.01959	-69.16195	-74.04397	140.76491	408.46234	448.33217	305.93992	157.85198	144.83326	90.31737	0
657	-6.50936	148.08794	151.34262	-70.78929	-77.29865	148.90161	395.44362	414.9717	277.46147	142.39225	137.51023	91.13104	0
658	-4.88202	152.96996	156.22464	-69.16195	-78.92599	155.41097	382.4249	383.23857	249.79669	128.55986	130.1872	92.75838	0
659	-6.50936	154.5973	161.10666	-66.72094	-82.99434	159.47932	369.40618	350.69177	222.94558	113.9138	123.67784	92.75838	0
660	-13.83239	153.78363	167.61602	-64.27993	-89.5037	161.92033	355.57379	317.3313	195.2808	99.26774	116.35481	93.57205	0
661	-20.34175	152.15629	172.49804	-61.83892	-96.01306	162.734	340.92773	282.34349	167.61602	84.62168	107.40444	93.57205	0
662	-28.47845	149.71528	174.12538	-58.58424	-102.52242	161.10666	323.84066	246.54201	139.13757	69.16195	98.45407	92.75838	0
663	-39.86983	148.08794	174.93905	-55.32956	-113.10013	159.47932	306.75359	209.11319	109.84545	53.70222	89.5037	91.94471	0
664	-48.00653	148.90161	180.63474	-52.88855	-122.0505	161.92033	289.66652	170.05703	78.92599	38.24249	80.55333	91.13104	0
665	-49.63387	152.15629	188.77144	-52.88855	-126.11885	168.42969	270.95211	129.37353	47.19286	21.15542	69.97562	88.69003	0
666	-48.8202	154.5973	195.2808	-54.51589	-126.93252	174.12538	250.61036	89.5037	13.83239	1.62734	56.9569	83.80801	0
667	-48.8202	155.41097	200.97649	-53.70222	-126.93252	178.19373	231.08228	51.26121	-17.08707	-16.2734	43.93818	77.29865	0
668	-51.26121	155.41097	205.04484	-51.26121	-128.55986	181.44841	213.18154	14.64606	-46.37919	-34.17414	30.91946	70.78929	0
669	-57.77057	153.78363	210.74053	-46.37919	-133.44188	183.88942	196.09447	-17.90074	-73.2303	-49.63387	18.71441	65.0936	0
670	-67.53461	148.08794	217.24989	-39.86983	-140.76491	184.70309	180.63474	-49.63387	-97.6404	-64.27993	6.50936	59.39791	0
671	-75.67131	141.57858	220.50457	-33.36047	-146.4606	182.26208	165.17501	-79.73966	-121.23683	-78.92599	-4.88202	53.70222	0
672	-79.73966	134.25555	218.87723	-26.03744	-147.27427	176.56639	149.71528	-109.03178	-144.01959	-95.19939	-18.71441	47.19286	0
673	-81.367	125.30518	218.06356	-20.34175	-144.83326	170.05703	134.25555	-139.13757	-166.80235	-112.28646	-33.36047	39.86983	0
674	-83.80801	117.98215	216.43622	-17.90074	-144.01959	164.36134	121.23683	-167.61602	-188.77144	-128.55986	-46.37919	33.36047	0
675	-87.87636	113.10013	212.36787	-16.2734	-145.64693	161.10666	109.03178	-193.65346	-208.29952	-142.39225	-56.9569	29.29212	0
676	-90.31737	109.03178	207.48585	-13.01872	-145.64693	157.03831	97.6404	-217.24989	-226.20026	-154.5973	-66.72094	24.4101	0
677	-93.57205	103.33609	202.60383	-8.95037	-146.4606	151.34262	85.43535	-237.59164	-241.65999	-165.98868	-77.29865	17.08707	0
678	-99.26774	95.19939	198.53548	-3.25468	-147.27427	143.20592	74.04397	-254.67871	-254.67871	-176.56639	-87.06269	8.95037	0
679	-103.33609	84.62168	192.02612	2.44101	-146.4606	133.44188	62.65259	-269.32477	-265.25642	-185.51676	-96.82673	0	0
680	-104.96343	73.2303	181.44841	10.57771	-142.39225	123.67784	52.88855	-281.52982	-272.57945	-193.65346	-106.59077	-8.95037	0
681	-104.14976	62.65259	169.24336	16.2734	-135.88289	113.10013	46.37919	-291.29386	-278.27514	-200.16282	-113.9138	-17.08707	0
682	-100.08141	54.51589	158.66565	21.15542	-130.1872	104.96343	40.6835	-300.24423	-282.34349	-205.04484	-121.23683	-23.59643	0
683	-95.19939	48.8202	152.96996	22.78276	-127.74619	99.26774	35.80148	-309.1946	-287.22551	-210.74053	-127.74619	-30.91946	0
684	-92.75838	43.12451	146.4606	23.59643	-125.30518	92.75838	30.91946	-318.14497	-292.9212	-217.24989	-133.44188	-36.61515	0
685	-93.57205	36.61515	138.3239	25.22377	-120.42316	86.24902	26.03744	-327.09534	-297.80322	-223.75925	-139.13757	-42.31084	0
686	-96.82673	28.47845	131.00087	30.91946	-117.16848	78.92599	22.78276	-332.79103	-301.87157	-228.64127	-144.01959	-45.56552	0
687	-100.89508	17.90074	122.86417	39.05616	-113.10013	70.78929	18.71441	-335.23204	-302.68524	-231.08228	-147.27427	-48.8202	0
688	-100.08141	8.1367	109.84545	44.75185	-104.14976	61.02525	15.45973	-335.23204	-301.0579	-231.89595	-150.52895	-52.07488	0
689	-94.38572	0.81367	96.01306	45.56552	-93.57205	51.26121	12.20505	-334.41837	-296.98955	-231.08228	-153.78363	-55.32956	0
690	-89.5037	-4.06835	84.62168	46.37919	-85.43535	41.49717	8.95037	-332.79103	-292.10753	-230.26861	-156.22464	-58.58424	0
691	-88.69003	-9.76404	75.67131	49.63387	-80.55333	32.5468	6.50936	-331.16369	-285.59817	-228.64127	-157.85198	-61.83892	0
692	-87.06269	-14.64606	70.78929	52.88855	-79.73966	26.03744	5.69569	-328.72268	-277.46147	-225.38659	-158.66565	-63.46626	0
693	-85.43535	-18.71441	69.97562	54.51589	-80.55333	22.78276	7.32303	-327.09534	-268.5111	-221.31824	-157.03831	-64.27993	0
694	-84.62168	-23.59643	67.53461	56.14323	-79.73966	18.71441	8.1367	-324.65433	-261.18807	-217.24989	-155.41097	-65.0936	0
695	-83.80801	-28.47845	61.02525	57.77057	-76.48498	13.83239	6.50936	-323.84066	-256.30605	-214.80888	-153.78363	-65.90727	0
696	-81.367	-32.5468	52.07488	57.77057	-69.16195	8.1367	3.25468	-323.84066	-253.86504	-214.80888	-154.5973	-69.97562	0
697	-79.73966	-37.42882	41.49717	57.77057	-63.46626	2.44101	0	-323.02699	-251.42403	-214.80888	-157.03831	-74.04397	0
698	-81.367	-41.49717	31.73313	60.21158	-61.83892	-2.44101	-1.62734	-321.39965	-247.35568	-215.62255	-159.47932	-78.11232	0
699	-83.80801	-44.75185	27.66478	62.65259	-61.83892	-5.69569	-2.44101	-318.95864	-241.65999	-213.99521	-161.10666	-81.367	0
700	-84.62168	-47.19286	26.85111	64.27993	-60.21158	-8.1367	-3.25468	-315.70396	-234.33696	-210.74053	-161.10666	-84.62168	0
701	-82.18067	-50.44754	25.22377	64.27993	-56.14323	-11.39138	-3.25468	-311.63561	-224.57292	-206.67218	-159.47932	-85.43535	0
702	-78.92599	-53.70222	20.34175	63.46626	-49.63387	-13.83239	-2.44101	-306.75359	-214.80888	-200.97649	-157.03831	-84.62168	0
703	-78.92599	-56.14323	14.64606	62.65259	-43.12451	-15.45973	-0.81367	-301.0579	-205.85851	-196.09447	-153.78363	-82.99434	0
704	-79.73966	-57.77057	12.20505	63.46626	-40.6835	-17.08707	0	-296.17588	-197.72181	-192.02612	-150.52895	-79.73966	0
705	-78.11232	-57.77057	12.20505	64.27993	-40.6835	-17.90074	0	-291.29386	-191.21245	-188.77144	-147.27427	-74.85764	0
706	-74.85764	-56.9569	12.20505	63.46626	-40.6835	-19.52808	0	-286.41184	-187.1441	-186.33043	-145.64693	-72.41663	0
707	-70.78929	-56.9569	12.20505	61.02525	-39.86983	-21.15542	-0.81367	-282.34349	-183.88942	-183.88942	-144.83326	-69.97562	0
708	-69.16195	-56.9569	14.64606	58.58424	-39.86983	-23.59643	-2.44101	-277.46147	-179.82107	-180.63474	-142.39225	-68.34828	0
709	-66.72094	-57.77057	13.01872	56.9569	-38.24249	-26.85111	-4.88202	-272.57945	-173.31171	-176.56639	-139.95124	-65.0936	0
710	-63.46626	-58.58424	8.95037	56.14323	-34.98781	-28.47845	-6.50936	-266.07009	-165.98868	-171.68437	-136.69656	-61.83892	0
711	-60.21158	-59.39791	4.06835	56.14323	-31.73313	-29.29212	-6.50936	-258.74706	-157.85198	-165.17501	-132.62821	-59.39791	0
712	-55.32956	-60.21158	2.44101	55.32956	-26.85111	-29.29212	-4.06835	-252.2377	-148.90161	-158.66565	-128.55986	-56.9569	0
713	-51.26121	-61.02525	4.88202	55.32956	-21.96909	-27.66478	-0.81367	-245.72834	-142.39225	-152.96996	-125.30518	-56.14323	0
714	-49.63387	-60.21158	5.69569	56.14323	-20.34175	-26.85111	0.81367	-241.65999	-137.51023	-148.90161	-123.67784	-56.9569	0
715	-50.44754	-60.21158	2.44101	56.9569	-20.34175	-28.47845	2.44101	-236.77797	-135.06922	-147.27427	-123.67784	-58.58424	0
716	-52.07488	-60.21158	-0.81367	57.77057	-21.15542	-30.91946	3.25468	-232.70962	-133.44188	-147.27427	-126.11885	-60.21158	0
717	-52.88855	-59.39791	-4.88202	58.58424	-23.59643	-33.36047	4.88202	-227.01393	-130.1872	-148.08794	-128.55986	-60.21158	0
718	-52.07488	-58.58424	-8.95037	59.39791	-26.85111	-34.98781	4.88202	-221.31824	-126.11885	-148.08794	-130.1872	-59.39791	0
719	-50.44754	-58.58424	-11.39138	59.39791	-27.66478	-34.98781	4.88202	-215.62255	-121.23683	-146.4606	-130.1872	-59.39791	0
720	-48.00653	-57.77057	-12.20505	57.77057	-25.22377	-34.98781	4.06835	-209.92686	-115.54114	-144.01959	-130.1872	-58.58424	0
721	-43.93818	-56.9569	-14.64606	54.51589	-19.52808	-35.80148	3.25468	-205.85851	-110.65912	-142.39225	-129.37353	-59.39791	0
722	-43.12451	-57.77057	-19.52808	52.07488	-13.01872	-37.42882	2.44101	-201.79016	-106.59077	-140.76491	-129.37353	-61.02525	0
723	-45.56552	-60.21158	-25.22377	51.26121	-6.50936	-39.05616	3.25468	-197.72181	-102.52242	-139.95124	-130.1872	-61.83892	0
724	-47.19286	-61.83892	-27.66478	52.07488	-3.25468	-39.86983	4.88202	-192.83979	-99.26774	-138.3239	-130.1872	-62.65259	0
725	-47.19286	-62.65259	-26.03744	52.07488	-4.88202	-40.6835	8.1367	-188.77144	-96.82673	-137.51023	-130.1872	-62.65259	0
726	-47.19286	-63.46626	-21.96909	52.88855	-8.95037	-39.86983	9.76404	-184.70309	-94.38572	-135.88289	-129.37353	-61.02525	0
727	-44.75185	-63.46626	-17.08707	52.88855	-13.01872	-38.24249	8.95037	-179.82107	-92.75838	-134.25555	-126.93252	-59.39791	0
728	-38.24249	-62.65259	-13.01872	49.63387	-14.64606	-34.98781	7.32303	-175.75272	-91.13104	-132.62821	-123.67784	-57.77057	0
729	-30.91946	-60.21158	-13.83239	45.56552	-12.20505	-34.17414	4.88202	-171.68437	-88.69003	-129.37353	-121.23683	-55.32956	0
730	-26.03744	-59.39791	-18.71441	42.31084	-7.32303	-36.61515	3.25468	-166.80235	-84.62168	-125.30518	-119.60949	-52.88855	0
731	-27.66478	-59.39791	-21.96909	42.31084	-4.88202	-39.05616	4.06835	-161.10666	-80.55333	-122.0505	-117.98215	-52.07488	0
732	-30.10579	-61.02525	-23.59643	44.75185	-4.88202	-38.24249	8.1367	-154.5973	-74.85764	-119.60949	-114.72747	-51.26121	0
733	-31.73313	-61.02525	-26.03744	47.19286	-4.06835	-34.98781	11.39138	-150.52895	-69.97562	-117.98215	-113.10013	-51.26121	0
734	-33.36047	-61.02525	-26.85111	48.8202	-3.25468	-33.36047	13.83239	-147.27427	-67.53461	-117.16848	-113.9138	-50.44754	0
735	-35.80148	-60.21158	-26.03744	49.63387	-4.88202	-34.98781	13.01872	-145.64693	-68.34828	-117.98215	-116.35481	-51.26121	0
736	-37.42882	-59.39791	-22.78276	48.8202	-6.50936	-35.80148	11.39138	-144.83326	-70.78929	-119.60949	-118.79582	-52.07488	0
737	-39.05616	-57.77057	-21.15542	47.19286	-9.76404	-35.80148	9.76404	-144.01959	-72.41663	-120.42316	-120.42316	-51.26121	0
738	-41.49717	-55.32956	-21.96909	43.93818	-13.01872	-36.61515	8.95037	-142.39225	-74.04397	-120.42316	-121.23683	-51.26121	0
739	-40.6835	-52.88855	-22.78276	41.49717	-13.83239	-35.80148	8.1367	-139.13757	-73.2303	-119.60949	-122.0505	-52.07488	0
740	-39.05616	-51.26121	-21.15542	39.86983	-13.01872	-34.98781	8.1367	-135.88289	-70.78929	-117.98215	-122.0505	-53.70222	0
741	-37.42882	-50.44754	-18.71441	40.6835	-12.20505	-34.98781	9.76404	-131.00087	-67.53461	-114.72747	-122.0505	-56.9569	0
742	-35.80148	-52.07488	-15.45973	43.12451	-13.01872	-34.98781	12.20505	-126.11885	-62.65259	-110.65912	-121.23683	-59.39791	0
743	-30.91946	-54.51589	-13.01872	45.56552	-15.45973	-35.80148	13.83239	-122.0505	-59.39791	-106.59077	-120.42316	-59.39791	0
744	-25.22377	-57.77057	-17.08707	46.37919	-12.20505	-39.05616	14.64606	-121.23683	-58.58424	-104.96343	-118.79582	-57.77057	0
745	-22.78276	-60.21158	-23.59643	45.56552	-5.69569	-43.12451	13.83239	-122.86417	-59.39791	-103.33609	-117.98215	-54.51589	0
746	-25.22377	-61.02525	-26.03744	45.56552	-3.25468	-43.93818	13.83239	-123.67784	-60.21158	-101.70875	-114.72747	-49.63387	0
747	-32.5468	-61.02525	-24.4101	46.37919	-6.50936	-42.31084	13.83239	-122.86417	-60.21158	-100.08141	-110.65912	-44.75185	0
748	-39.86983	-59.39791	-23.59643	46.37919	-11.39138	-39.86983	13.01872	-120.42316	-60.21158	-97.6404	-107.40444	-40.6835	0
749	-42.31084	-57.77057	-23.59643	44.75185	-13.01872	-38.24249	12.20505	-117.98215	-59.39791	-95.19939	-104.96343	-38.24249	0
750	-40.6835	-56.14323	-23.59643	43.12451	-11.39138	-38.24249	11.39138	-115.54114	-57.77057	-94.38572	-104.14976	-37.42882	0
751	-36.61515	-55.32956	-24.4101	42.31084	-8.1367	-39.05616	9.76404	-113.10013	-56.14323	-93.57205	-104.96343	-37.42882	0
752	-31.73313	-56.14323	-26.85111	41.49717	-3.25468	-38.24249	8.1367	-110.65912	-54.51589	-92.75838	-105.7771	-37.42882	0
753	-26.03744	-55.32956	-31.73313	41.49717	1.62734	-37.42882	8.95037	-108.21811	-52.88855	-92.75838	-105.7771	-38.24249	0
754	-21.96909	-55.32956	-34.98781	40.6835	5.69569	-36.61515	8.95037	-107.40444	-51.26121	-91.94471	-107.40444	-39.86983	0
755	-21.96909	-54.51589	-34.98781	40.6835	5.69569	-38.24249	8.95037	-108.21811	-52.07488	-91.94471	-109.84545	-42.31084	0
756	-24.4101	-53.70222	-31.73313	40.6835	3.25468	-39.05616	8.1367	-109.03178	-53.70222	-92.75838	-112.28646	-43.93818	0
757	-29.29212	-52.07488	-26.03744	42.31084	-0.81367	-40.6835	8.1367	-109.84545	-56.9569	-93.57205	-115.54114	-44.75185	0
758	-34.98781	-52.88855	-18.71441	43.12451	-6.50936	-43.12451	8.1367	-109.84545	-58.58424	-94.38572	-117.98215	-46.37919	0
759	-37.42882	-53.70222	-13.83239	43.12451	-9.76404	-43.12451	8.95037	-109.03178	-58.58424	-93.57205	-119.60949	-48.00653	0
760	-36.61515	-54.51589	-15.45973	42.31084	-8.95037	-42.31084	8.1367	-106.59077	-56.14323	-92.75838	-118.79582	-48.8202	0
761	-32.5468	-55.32956	-20.34175	41.49717	-4.88202	-43.12451	6.50936	-103.33609	-53.70222	-91.13104	-117.16848	-49.63387	0
762	-26.85111	-56.14323	-25.22377	39.05616	-1.62734	-43.93818	4.06835	-101.70875	-52.07488	-89.5037	-115.54114	-50.44754	0
763	-17.08707	-55.32956	-28.47845	34.17414	0	-43.93818	2.44101	-100.89508	-51.26121	-88.69003	-113.10013	-50.44754	0
764	-7.32303	-53.70222	-33.36047	27.66478	5.69569	-44.75185	1.62734	-101.70875	-50.44754	-87.06269	-113.10013	-51.26121	0
765	-2.44101	-52.07488	-38.24249	25.22377	10.57771	-45.56552	1.62734	-103.33609	-50.44754	-85.43535	-112.28646	-50.44754	0
766	-9.76404	-52.07488	-34.98781	29.29212	8.1367	-43.12451	3.25468	-103.33609	-50.44754	-83.80801	-111.47279	-48.00653	0
767	-21.96909	-53.70222	-24.4101	36.61515	-0.81367	-39.86983	4.88202	-102.52242	-50.44754	-81.367	-109.84545	-43.93818	0
768	-30.10579	-55.32956	-13.01872	43.93818	-10.57771	-37.42882	4.88202	-100.89508	-49.63387	-78.92599	-108.21811	-39.86983	0
769	-33.36047	-56.14323	-8.95037	48.8202	-13.83239	-36.61515	4.06835	-98.45407	-48.00653	-77.29865	-107.40444	-36.61515	0
770	-32.5468	-55.32956	-12.20505	48.8202	-11.39138	-37.42882	2.44101	-96.01306	-46.37919	-74.85764	-106.59077	-34.98781	0
771	-29.29212	-56.14323	-19.52808	46.37919	-5.69569	-40.6835	0	-94.38572	-44.75185	-74.04397	-107.40444	-34.17414	0
772	-26.03744	-57.77057	-30.10579	45.56552	0.81367	-45.56552	-1.62734	-94.38572	-43.93818	-73.2303	-106.59077	-34.17414	0
773	-24.4101	-61.83892	-38.24249	48.8202	5.69569	-52.07488	-2.44101	-94.38572	-43.12451	-71.60296	-106.59077	-34.17414	0
774	-27.66478	-65.90727	-39.86983	52.88855	5.69569	-54.51589	-1.62734	-94.38572	-42.31084	-69.97562	-105.7771	-34.17414	0
775	-29.29212	-65.90727	-38.24249	52.88855	3.25468	-53.70222	-0.81367	-94.38572	-42.31084	-69.16195	-105.7771	-34.17414	0
776	-26.03744	-61.83892	-36.61515	47.19286	4.06835	-50.44754	-0.81367	-95.19939	-43.12451	-69.16195	-105.7771	-34.17414	0
777	-21.96909	-58.58424	-38.24249	40.6835	5.69569	-48.00653	-1.62734	-96.82673	-43.93818	-70.78929	-107.40444	-35.80148	0
778	-19.52808	-56.9569	-41.49717	35.80148	6.50936	-47.19286	-2.44101	-97.6404	-46.37919	-73.2303	-108.21811	-37.42882	0
779	-17.08707	-54.51589	-43.12451	32.5468	7.32303	-47.19286	-4.06835	-97.6404	-47.19286	-74.04397	-109.84545	-39.05616	0
780	-13.83239	-52.07488	-42.31084	30.10579	8.95037	-45.56552	-6.50936	-96.82673	-46.37919	-73.2303	-111.47279	-39.86983	0
781	-13.01872	-50.44754	-40.6835	29.29212	10.57771	-44.75185	-8.1367	-96.01306	-45.56552	-71.60296	-113.9138	-39.86983	0
782	-13.83239	-49.63387	-40.6835	29.29212	12.20505	-43.12451	-9.76404	-95.19939	-43.93818	-69.16195	-115.54114	-39.86983	0
783	-19.52808	-49.63387	-42.31084	30.10579	14.64606	-41.49717	-9.76404	-94.38572	-41.49717	-67.53461	-115.54114	-40.6835	0
784	-24.4101	-52.07488	-42.31084	30.91946	13.83239	-41.49717	-8.1367	-92.75838	-39.86983	-66.72094	-115.54114	-39.86983	0
785	-27.66478	-54.51589	-38.24249	33.36047	9.76404	-41.49717	-6.50936	-92.75838	-39.05616	-65.90727	-115.54114	-39.05616	0
786	-30.10579	-56.9569	-33.36047	37.42882	4.06835	-42.31084	-5.69569	-93.57205	-39.86983	-66.72094	-115.54114	-38.24249	0
787	-29.29212	-60.21158	-32.5468	40.6835	3.25468	-41.49717	-7.32303	-96.01306	-42.31084	-68.34828	-116.35481	-39.05616	0
788	-23.59643	-63.46626	-39.05616	42.31084	8.95037	-41.49717	-10.57771	-99.26774	-44.75185	-69.97562	-118.79582	-41.49717	0
789	-17.08707	-65.90727	-46.37919	41.49717	17.08707	-44.75185	-15.45973	-101.70875	-48.00653	-71.60296	-121.23683	-43.93818	0
790	-13.01872	-69.16195	-52.88855	41.49717	21.15542	-51.26121	-18.71441	-102.52242	-48.8202	-73.2303	-123.67784	-47.19286	0
791	-14.64606	-72.41663	-55.32956	43.12451	20.34175	-57.77057	-21.15542	-102.52242	-48.8202	-72.41663	-125.30518	-49.63387	0
792	-18.71441	-75.67131	-54.51589	46.37919	17.90074	-61.83892	-20.34175	-100.08141	-46.37919	-69.97562	-126.11885	-50.44754	0
793	-21.96909	-75.67131	-53.70222	49.63387	15.45973	-65.0936	-17.90074	-97.6404	-43.93818	-67.53461	-125.30518	-50.44754	0
794	-26.03744	-74.85764	-51.26121	52.07488	11.39138	-65.90727	-16.2734	-95.19939	-43.12451	-65.90727	-123.67784	-48.8202	0
795	-28.47845	-72.41663	-47.19286	52.07488	8.1367	-62.65259	-15.45973	-96.82673	-43.12451	-65.90727	-122.86417	-47.19286	0
796	-26.03744	-68.34828	-43.93818	48.00653	8.1367	-58.58424	-17.08707	-99.26774	-44.75185	-66.72094	-122.0505	-44.75185	0
797	-20.34175	-63.46626	-43.93818	43.12451	11.39138	-54.51589	-18.71441	-102.52242	-48.8202	-68.34828	-121.23683	-42.31084	0
798	-13.83239	-61.02525	-45.56552	41.49717	17.08707	-52.07488	-21.96909	-104.96343	-51.26121	-68.34828	-119.60949	-39.86983	0
799	-13.01872	-59.39791	-44.75185	41.49717	17.90074	-50.44754	-23.59643	-105.7771	-52.07488	-66.72094	-117.16848	-35.80148	0
800	-16.2734	-60.21158	-43.12451	42.31084	14.64606	-50.44754	-24.4101	-104.96343	-50.44754	-63.46626	-114.72747	-31.73313	0
801	-19.52808	-63.46626	-43.12451	43.93818	12.20505	-52.07488	-25.22377	-104.14976	-48.8202	-60.21158	-113.10013	-29.29212	0
802	-21.15542	-67.53461	-47.19286	45.56552	13.01872	-55.32956	-27.66478	-104.14976	-47.19286	-57.77057	-113.10013	-29.29212	0
803	-18.71441	-71.60296	-54.51589	47.19286	17.08707	-57.77057	-29.29212	-104.96343	-45.56552	-56.9569	-114.72747	-29.29212	0
804	-15.45973	-73.2303	-60.21158	48.00653	21.15542	-60.21158	-30.10579	-105.7771	-44.75185	-56.9569	-116.35481	-30.91946	0
805	-14.64606	-74.04397	-61.02525	47.19286	21.96909	-61.83892	-30.91946	-107.40444	-43.93818	-56.9569	-118.79582	-32.5468	0
806	-13.83239	-73.2303	-60.21158	44.75185	21.96909	-62.65259	-30.91946	-109.84545	-45.56552	-58.58424	-122.86417	-34.17414	0
807	-14.64606	-71.60296	-56.9569	43.93818	20.34175	-63.46626	-31.73313	-113.10013	-48.00653	-61.02525	-126.93252	-36.61515	0
808	-17.08707	-69.16195	-52.07488	44.75185	17.90074	-63.46626	-32.5468	-114.72747	-50.44754	-63.46626	-130.1872	-38.24249	0
809	-17.90074	-69.97562	-51.26121	45.56552	17.90074	-65.0936	-34.17414	-114.72747	-52.88855	-65.0936	-134.25555	-39.05616	0
810	-17.90074	-71.60296	-53.70222	45.56552	18.71441	-67.53461	-34.98781	-113.9138	-52.88855	-65.0936	-136.69656	-39.05616	0
811	-17.08707	-74.85764	-56.14323	45.56552	19.52808	-67.53461	-34.17414	-111.47279	-49.63387	-62.65259	-138.3239	-38.24249	0
812	-15.45973	-78.11232	-55.32956	44.75185	21.96909	-65.90727	-31.73313	-109.84545	-44.75185	-57.77057	-137.51023	-35.80148	0
813	-11.39138	-79.73966	-51.26121	45.56552	26.03744	-63.46626	-29.29212	-107.40444	-39.86983	-52.07488	-135.06922	-33.36047	0
814	-9.76404	-81.367	-51.26121	47.19286	28.47845	-64.27993	-28.47845	-106.59077	-36.61515	-49.63387	-133.44188	-30.91946	0
815	-10.57771	-82.99434	-56.14323	48.00653	30.10579	-68.34828	-29.29212	-109.03178	-35.80148	-49.63387	-133.44188	-30.91946	0
816	-10.57771	-83.80801	-62.65259	48.00653	30.10579	-72.41663	-30.91946	-113.10013	-37.42882	-51.26121	-134.25555	-31.73313	0
817	-10.57771	-82.99434	-66.72094	48.00653	30.10579	-74.04397	-32.5468	-117.98215	-39.86983	-52.07488	-136.69656	-34.17414	0
818	-11.39138	-80.55333	-65.90727	49.63387	29.29212	-71.60296	-32.5468	-120.42316	-42.31084	-52.88855	-138.3239	-36.61515	0
819	-14.64606	-78.11232	-61.83892	51.26121	24.4101	-68.34828	-31.73313	-119.60949	-42.31084	-52.88855	-139.13757	-39.05616	0
820	-18.71441	-77.29865	-57.77057	52.07488	20.34175	-65.90727	-31.73313	-117.16848	-41.49717	-53.70222	-139.95124	-41.49717	0
821	-20.34175	-76.48498	-56.9569	50.44754	17.90074	-65.90727	-32.5468	-115.54114	-39.86983	-53.70222	-141.57858	-43.93818	0
822	-17.90074	-74.85764	-58.58424	48.8202	19.52808	-66.72094	-32.5468	-115.54114	-38.24249	-53.70222	-143.20592	-44.75185	0
823	-13.83239	-74.04397	-63.46626	46.37919	23.59643	-69.97562	-32.5468	-115.54114	-36.61515	-52.88855	-143.20592	-43.93818	0
824	-9.76404	-73.2303	-66.72094	45.56552	26.85111	-71.60296	-32.5468	-114.72747	-34.98781	-52.07488	-142.39225	-42.31084	0
825	-8.95037	-72.41663	-65.90727	43.93818	26.85111	-70.78929	-31.73313	-114.72747	-34.17414	-50.44754	-140.76491	-39.05616	0
826	-10.57771	-71.60296	-63.46626	43.12451	25.22377	-69.16195	-31.73313	-117.16848	-34.98781	-50.44754	-139.95124	-35.80148	0
827	-12.20505	-69.97562	-58.58424	43.93818	24.4101	-65.90727	-32.5468	-120.42316	-37.42882	-52.07488	-140.76491	-32.5468	0
828	-10.57771	-69.16195	-54.51589	45.56552	27.66478	-61.83892	-32.5468	-122.86417	-39.05616	-53.70222	-141.57858	-30.91946	0
829	-6.50936	-69.97562	-54.51589	46.37919	31.73313	-61.02525	-32.5468	-122.86417	-40.6835	-53.70222	-142.39225	-30.10579	0
830	-1.62734	-70.78929	-60.21158	44.75185	35.80148	-64.27993	-34.17414	-120.42316	-41.49717	-53.70222	-144.83326	-31.73313	0
831	0.81367	-72.41663	-68.34828	41.49717	38.24249	-69.16195	-35.80148	-117.98215	-41.49717	-53.70222	-145.64693	-33.36047	0
832	-2.44101	-74.85764	-74.85764	41.49717	34.98781	-74.04397	-37.42882	-114.72747	-39.86983	-53.70222	-147.27427	-35.80148	0
833	-13.83239	-77.29865	-78.92599	44.75185	24.4101	-78.92599	-37.42882	-110.65912	-36.61515	-52.07488	-146.4606	-37.42882	0
834	-24.4101	-79.73966	-75.67131	49.63387	13.83239	-79.73966	-34.17414	-106.59077	-31.73313	-49.63387	-145.64693	-38.24249	0
835	-30.10579	-82.18067	-69.97562	53.70222	8.95037	-77.29865	-30.10579	-103.33609	-29.29212	-48.00653	-145.64693	-39.05616	0
836	-30.91946	-83.80801	-64.27993	55.32956	8.95037	-74.85764	-26.85111	-101.70875	-28.47845	-48.00653	-146.4606	-39.05616	0
837	-30.10579	-83.80801	-57.77057	54.51589	10.57771	-73.2303	-25.22377	-100.89508	-30.10579	-48.00653	-147.27427	-37.42882	0
838	-29.29212	-84.62168	-52.88855	52.07488	12.20505	-73.2303	-24.4101	-100.89508	-33.36047	-48.00653	-148.08794	-36.61515	0
839	-26.03744	-84.62168	-53.70222	49.63387	15.45973	-74.85764	-25.22377	-100.08141	-34.98781	-48.00653	-148.08794	-36.61515	0
840	-21.96909	-85.43535	-59.39791	48.8202	20.34175	-77.29865	-26.03744	-97.6404	-34.98781	-47.19286	-148.08794	-35.80148	0
841	-17.08707	-86.24902	-65.90727	48.8202	25.22377	-78.92599	-26.85111	-95.19939	-33.36047	-44.75185	-146.4606	-34.17414	0
842	-13.83239	-87.87636	-74.04397	48.8202	29.29212	-81.367	-28.47845	-92.75838	-30.91946	-42.31084	-144.83326	-34.17414	0
843	-14.64606	-89.5037	-80.55333	47.19286	29.29212	-82.99434	-28.47845	-89.5037	-27.66478	-39.86983	-142.39225	-34.17414	0
844	-19.52808	-92.75838	-81.367	45.56552	26.03744	-82.99434	-26.03744	-86.24902	-23.59643	-36.61515	-140.76491	-34.17414	0
845	-24.4101	-93.57205	-75.67131	47.19286	21.15542	-82.18067	-21.15542	-82.18067	-19.52808	-34.17414	-139.13757	-31.73313	0
846	-27.66478	-91.94471	-69.16195	50.44754	17.90074	-78.92599	-15.45973	-78.92599	-17.08707	-31.73313	-138.3239	-30.91946	0
847	-28.47845	-87.06269	-64.27993	49.63387	18.71441	-74.04397	-10.57771	-77.29865	-17.08707	-31.73313	-136.69656	-29.29212	0
848	-29.29212	-79.73966	-62.65259	45.56552	23.59643	-69.16195	-6.50936	-73.2303	-17.08707	-30.91946	-134.25555	-27.66478	0
849	-28.47845	-70.78929	-56.9569	40.6835	24.4101	-62.65259	-1.62734	-65.90727	-13.83239	-28.47845	-131.81454	-24.4101	0
850	-26.85111	-61.83892	-47.19286	37.42882	18.71441	-53.70222	4.88202	-56.9569	-7.32303	-22.78276	-128.55986	-20.34175	0
851	-25.22377	-53.70222	-36.61515	35.80148	10.57771	-44.75185	12.20505	-47.19286	0	-17.08707	-124.49151	-15.45973	0
852	-21.96909	-46.37919	-30.91946	32.5468	6.50936	-39.05616	18.71441	-39.05616	4.88202	-12.20505	-120.42316	-12.20505	0
853	-15.45973	-40.6835	-30.91946	28.47845	7.32303	-38.24249	23.59643	-33.36047	8.95037	-7.32303	-117.98215	-10.57771	0
854	-11.39138	-37.42882	-31.73313	26.03744	8.95037	-37.42882	27.66478	-30.91946	11.39138	-4.88202	-117.16848	-10.57771	0
855	-11.39138	-36.61515	-28.47845	25.22377	6.50936	-34.98781	29.29212	-30.91946	11.39138	-4.06835	-117.98215	-12.20505	0
856	-13.83239	-35.80148	-22.78276	25.22377	2.44101	-30.91946	30.10579	-33.36047	9.76404	-4.06835	-119.60949	-13.83239	0
857	-13.83239	-33.36047	-18.71441	24.4101	1.62734	-24.4101	30.91946	-35.80148	5.69569	-5.69569	-121.23683	-15.45973	0
858	-9.76404	-30.91946	-18.71441	21.15542	4.88202	-18.71441	30.91946	-37.42882	1.62734	-8.1367	-123.67784	-17.90074	0
859	-3.25468	-28.47845	-21.96909	16.2734	10.57771	-17.08707	30.10579	-36.61515	0	-9.76404	-126.11885	-20.34175	0
860	4.06835	-24.4101	-27.66478	9.76404	17.08707	-19.52808	29.29212	-33.36047	0	-10.57771	-127.74619	-21.96909	0
861	13.01872	-17.90074	-30.91946	2.44101	22.78276	-20.34175	27.66478	-28.47845	3.25468	-7.32303	-126.93252	-21.96909	0
862	15.45973	-10.57771	-26.85111	-2.44101	21.15542	-16.2734	26.85111	-22.78276	9.76404	-2.44101	-122.86417	-19.52808	0
863	8.1367	-4.88202	-14.64606	-3.25468	10.57771	-8.95037	24.4101	-17.90074	15.45973	1.62734	-117.16848	-15.45973	0
864	-0.81367	0	0	-0.81367	-1.62734	-0.81367	21.96909	-15.45973	20.34175	5.69569	-112.28646	-10.57771	0
865	-7.32303	4.06835	10.57771	0	-10.57771	6.50936	18.71441	-17.08707	21.96909	8.95037	-108.21811	-4.06835	0
866	-9.76404	9.76404	19.52808	-1.62734	-15.45973	14.64606	13.01872	-21.96909	18.71441	9.76404	-105.7771	1.62734	0
867	-11.39138	17.90074	26.03744	-5.69569	-20.34175	21.96909	5.69569	-29.29212	13.83239	10.57771	-104.14976	6.50936	0
868	-11.39138	26.85111	29.29212	-12.20505	-23.59643	29.29212	-2.44101	-34.98781	8.1367	10.57771	-101.70875	10.57771	0
869	-8.95037	33.36047	30.10579	-18.71441	-23.59643	33.36047	-11.39138	-39.05616	4.88202	12.20505	-99.26774	13.83239	0
870	-0.81367	38.24249	28.47845	-23.59643	-18.71441	34.98781	-20.34175	-39.86983	4.06835	13.83239	-97.6404	16.2734	0
871	12.20505	39.86983	21.15542	-30.91946	-7.32303	30.91946	-28.47845	-39.86983	4.88202	16.2734	-96.01306	18.71441	0
872	30.10579	37.42882	12.20505	-38.24249	4.88202	21.96909	-34.98781	-39.05616	7.32303	19.52808	-93.57205	19.52808	0
873	45.56552	34.17414	2.44101	-43.93818	15.45973	13.83239	-40.6835	-36.61515	9.76404	22.78276	-91.13104	20.34175	0
874	55.32956	29.29212	-7.32303	-48.00653	24.4101	6.50936	-46.37919	-35.80148	11.39138	25.22377	-89.5037	21.15542	0
875	59.39791	24.4101	-20.34175	-48.00653	34.17414	-0.81367	-52.07488	-37.42882	9.76404	25.22377	-88.69003	22.78276	0
876	61.83892	18.71441	-33.36047	-45.56552	43.93818	-8.1367	-59.39791	-43.12451	4.06835	21.96909	-91.13104	21.96909	0
877	63.46626	13.83239	-43.12451	-42.31084	52.07488	-16.2734	-67.53461	-52.88855	-4.88202	16.2734	-96.82673	19.52808	0
878	60.21158	10.57771	-43.93818	-37.42882	52.88855	-21.15542	-73.2303	-61.83892	-15.45973	9.76404	-101.70875	16.2734	0
879	54.51589	8.1367	-41.49717	-31.73313	49.63387	-22.78276	-76.48498	-67.53461	-22.78276	3.25468	-106.59077	13.83239	0
880	52.07488	4.88202	-43.93818	-29.29212	49.63387	-24.4101	-78.92599	-70.78929	-28.47845	-0.81367	-112.28646	10.57771	0
881	52.88855	0.81367	-50.44754	-26.85111	52.88855	-28.47845	-80.55333	-71.60296	-30.91946	-4.06835	-117.16848	8.1367	0
882	52.07488	-4.06835	-61.02525	-24.4101	54.51589	-32.5468	-79.73966	-69.16195	-28.47845	-3.25468	-119.60949	6.50936	0
883	47.19286	-10.57771	-70.78929	-19.52808	52.88855	-35.80148	-75.67131	-61.83892	-23.59643	0	-118.79582	7.32303	0
884	41.49717	-17.08707	-74.04397	-13.83239	49.63387	-39.05616	-69.16195	-53.70222	-17.90074	5.69569	-116.35481	8.95037	0
885	34.17414	-24.4101	-71.60296	-6.50936	45.56552	-42.31084	-60.21158	-46.37919	-12.20505	8.95037	-113.10013	8.1367	0
886	25.22377	-32.5468	-66.72094	0.81367	41.49717	-45.56552	-51.26121	-41.49717	-9.76404	7.32303	-113.9138	4.88202	0
887	16.2734	-40.6835	-59.39791	8.95037	35.80148	-47.19286	-45.56552	-39.86983	-13.01872	2.44101	-118.79582	-0.81367	0
888	6.50936	-48.00653	-53.70222	15.45973	30.91946	-48.00653	-43.12451	-41.49717	-19.52808	-4.88202	-125.30518	-8.95037	0
889	1.62734	-55.32956	-53.70222	21.15542	29.29212	-52.07488	-43.93818	-43.93818	-26.85111	-13.01872	-133.44188	-17.08707	0
890	-0.81367	-64.27993	-59.39791	27.66478	30.91946	-60.21158	-45.56552	-45.56552	-33.36047	-20.34175	-141.57858	-25.22377	0
891	-4.88202	-74.85764	-66.72094	36.61515	30.91946	-69.16195	-46.37919	-48.00653	-39.05616	-26.85111	-149.71528	-34.17414	0
892	-9.76404	-82.99434	-70.78929	45.56552	31.73313	-76.48498	-46.37919	-50.44754	-43.12451	-31.73313	-155.41097	-41.49717	0
893	-10.57771	-90.31737	-72.41663	51.26121	34.98781	-81.367	-45.56552	-51.26121	-47.19286	-34.98781	-160.29299	-47.19286	0
894	-9.76404	-96.01306	-77.29865	54.51589	39.05616	-87.06269	-44.75185	-52.07488	-48.8202	-37.42882	-163.54767	-51.26121	0
895	-8.95037	-100.89508	-83.80801	56.9569	41.49717	-92.75838	-43.93818	-53.70222	-51.26121	-39.05616	-165.17501	-53.70222	0
896	-6.50936	-103.33609	-91.13104	55.32956	44.75185	-97.6404	-44.75185	-55.32956	-53.70222	-40.6835	-165.17501	-53.70222	0
897	-2.44101	-103.33609	-96.82673	53.70222	48.8202	-100.08141	-47.19286	-56.9569	-56.14323	-41.49717	-165.17501	-52.07488	0
898	-0.81367	-103.33609	-99.26774	55.32956	50.44754	-100.08141	-48.8202	-56.9569	-57.77057	-42.31084	-164.36134	-50.44754	0
899	-4.06835	-103.33609	-96.82673	57.77057	48.00653	-98.45407	-49.63387	-55.32956	-58.58424	-42.31084	-163.54767	-49.63387	0
900	-9.76404	-104.14976	-92.75838	59.39791	42.31084	-96.82673	-50.44754	-52.88855	-57.77057	-40.6835	-162.734	-49.63387	0
901	-14.64606	-103.33609	-88.69003	61.02525	36.61515	-95.19939	-49.63387	-48.8202	-55.32956	-39.05616	-161.10666	-50.44754	0
902	-17.08707	-104.14976	-85.43535	62.65259	31.73313	-94.38572	-48.8202	-46.37919	-53.70222	-36.61515	-160.29299	-52.07488	0
903	-14.64606	-106.59077	-83.80801	63.46626	27.66478	-95.19939	-48.00653	-43.93818	-52.07488	-35.80148	-159.47932	-52.88855	0
904	-9.76404	-109.03178	-87.06269	63.46626	30.10579	-98.45407	-46.37919	-41.49717	-51.26121	-35.80148	-159.47932	-54.51589	0
905	-7.32303	-110.65912	-93.57205	61.83892	35.80148	-102.52242	-45.56552	-41.49717	-50.44754	-36.61515	-160.29299	-56.14323	0
906	-6.50936	-112.28646	-98.45407	61.02525	40.6835	-105.7771	-43.93818	-42.31084	-52.07488	-38.24249	-160.29299	-56.14323	0
907	-5.69569	-113.10013	-102.52242	61.02525	46.37919	-107.40444	-42.31084	-45.56552	-56.14323	-39.05616	-160.29299	-55.32956	0
908	-7.32303	-114.72747	-104.14976	64.27993	48.8202	-108.21811	-43.12451	-47.19286	-60.21158	-40.6835	-161.10666	-55.32956	0
909	-14.64606	-115.54114	-98.45407	69.16195	43.93818	-105.7771	-43.93818	-45.56552	-60.21158	-41.49717	-161.92033	-55.32956	0
910	-21.15542	-114.72747	-91.94471	71.60296	36.61515	-101.70875	-43.93818	-40.6835	-57.77057	-40.6835	-161.10666	-54.51589	0
911	-21.96909	-112.28646	-89.5037	68.34828	34.17414	-99.26774	-44.75185	-35.80148	-53.70222	-38.24249	-159.47932	-55.32956	0
912	-21.15542	-111.47279	-91.94471	65.0936	36.61515	-98.45407	-45.56552	-31.73313	-50.44754	-35.80148	-158.66565	-56.9569	0
913	-21.96909	-112.28646	-98.45407	63.46626	42.31084	-98.45407	-44.75185	-28.47845	-48.00653	-34.98781	-158.66565	-57.77057	0
914	-21.15542	-112.28646	-102.52242	61.83892	45.56552	-99.26774	-42.31084	-24.4101	-45.56552	-34.17414	-157.85198	-59.39791	0
915	-21.96909	-110.65912	-99.26774	61.83892	42.31084	-99.26774	-37.42882	-19.52808	-43.12451	-34.98781	-158.66565	-60.21158	0
916	-30.10579	-105.7771	-87.06269	66.72094	30.91946	-94.38572	-31.73313	-18.71441	-45.56552	-37.42882	-160.29299	-61.02525	0
917	-41.49717	-100.89508	-67.53461	72.41663	13.83239	-85.43535	-30.10579	-28.47845	-56.9569	-44.75185	-165.17501	-63.46626	0
918	-53.70222	-93.57205	-44.75185	75.67131	-2.44101	-69.97562	-34.98781	-56.9569	-84.62168	-60.21158	-173.31171	-66.72094	0
919	-65.90727	-78.92599	-13.83239	74.85764	-24.4101	-46.37919	-47.19286	-109.03178	-131.00087	-85.43535	-186.33043	-69.16195	0
920	-82.18067	-56.14323	26.03744	70.78929	-53.70222	-13.83239	-65.90727	-187.1441	-199.34915	-117.98215	-200.97649	-68.34828	0
921	-100.89508	-27.66478	73.2303	65.0936	-87.06269	22.78276	-88.69003	-287.22551	-283.97083	-154.5973	-214.80888	-61.83892	0
922	-116.35481	0.81367	121.23683	58.58424	-121.23683	61.83892	-109.03178	-399.51197	-382.4249	-192.02612	-225.38659	-51.26121	0
923	-126.11885	27.66478	164.36134	52.07488	-149.71528	96.82673	-123.67784	-516.68045	-487.38833	-224.57292	-233.52329	-37.42882	0
924	-131.81454	54.51589	200.16282	43.12451	-167.61602	127.74619	-131.81454	-629.78058	-592.35176	-244.91467	-232.70962	-16.2734	0
925	-135.06922	87.87636	234.33696	26.85111	-182.26208	161.10666	-137.51023	-732.303	-685.11014	-253.86504	-218.06356	16.2734	0
926	-134.25555	133.44188	276.6478	2.44101	-203.4175	205.04484	-141.57858	-822.62037	-761.59512	-248.98302	-184.70309	64.27993	0
927	-130.1872	189.58511	325.468	-27.66478	-228.64127	257.93339	-152.15629	-915.37875	-831.57074	-234.33696	-144.83326	122.86417	0
928	-121.23683	248.16935	373.47453	-61.83892	-248.98302	311.63561	-195.2808	-1046.37962	-928.39747	-230.26861	-113.10013	183.88942	0
929	-109.03178	303.49891	414.9717	-95.19939	-263.62908	360.45581	-293.73487	-1248.16978	-1079.74009	-257.93339	-91.13104	240.84632	0
930	-92.75838	353.94645	448.33217	-129.37353	-271.76578	402.76665	-449.14584	-1508.54418	-1279.08924	-318.95864	-76.48498	291.29386	0
931	-67.53461	408.46234	476.81062	-170.05703	-268.5111	443.45015	-650.12233	-1787.63299	-1489.0161	-389.74793	-72.41663	344.18241	0
932	-31.73313	475.18328	506.10274	-222.13191	-254.67871	480.87897	-887.71397	-2057.77143	-1662.32781	-444.26382	-64.27993	409.27601	0
933	17.08707	554.92294	535.39486	-288.03918	-240.03265	512.6121	-1157.85241	-2305.94078	-1777.86895	-464.60557	-37.42882	491.45668	0
934	86.24902	629.78058	541.09055	-360.45581	-212.36787	541.90422	-1440.1959	-2506.91727	-1841.33521	-447.5185	8.1367	574.45102	0
935	174.12538	668.02307	492.27035	-423.1084	-148.90161	543.53156	-1706.26599	-2633.03612	-1846.21723	-402.76665	56.9569	633.84893	0
936	271.76578	647.68132	375.91554	-461.35089	-47.19286	488.202	-1925.95689	-2669.65127	-1785.19198	-344.99608	94.38572	663.95472	0
937	361.26948	579.33304	218.06356	-471.9286	61.83892	387.30692	-2069.16281	-2622.45841	-1666.39616	-282.34349	117.16848	669.65041	0
938	423.92207	490.64301	68.34828	-457.28254	144.83326	276.6478	-2117.16934	-2502.03525	-1505.2895	-215.62255	127.74619	655.81802	0
939	444.26382	407.64867	-34.17414	-424.73574	195.2808	188.77144	-2069.16281	-2324.65519	-1319.77274	-147.27427	132.62821	632.22159	0
940	423.1084	341.7414	-79.73966	-381.61123	214.80888	134.25555	-1943.04396	-2103.33695	-1126.11928	-82.99434	134.25555	602.1158	0
941	378.35655	296.17588	-80.55333	-336.85938	205.04484	107.40444	-1760.78188	-1848.65824	-940.60252	-34.17414	127.74619	563.87331	0
942	322.21332	263.62908	-63.46626	-292.9212	177.38006	93.57205	-1543.53199	-1567.12842	-775.42751	-13.83239	99.26774	506.91641	0
943	263.62908	231.89595	-45.56552	-249.79669	142.39225	87.06269	-1310.0087	-1278.27557	-639.54462	-26.03744	45.56552	429.61776	0
944	209.92686	197.72181	-30.10579	-205.85851	109.84545	80.55333	-1078.11275	-1004.88245	-531.32651	-56.14323	-26.03744	337.67305	0
945	164.36134	159.47932	-20.34175	-164.36134	86.24902	69.16195	-861.67653	-758.34044	-440.19547	-84.62168	-99.26774	244.91467	0
946	131.00087	121.23683	-18.71441	-127.74619	71.60296	52.07488	-668.83674	-542.71789	-352.31911	-103.33609	-153.78363	165.98868	0
947	110.65912	90.31737	-21.96909	-101.70875	63.46626	34.17414	-505.28907	-357.20113	-257.93339	-103.33609	-179.0074	110.65912	0
948	100.89508	69.16195	-23.59643	-84.62168	58.58424	21.15542	-367.77884	-194.46713	-154.5973	-77.29865	-172.49804	79.73966	0
949	95.19939	55.32956	-26.03744	-74.04397	56.9569	11.39138	-250.61036	-51.26121	-48.00653	-34.17414	-148.08794	65.90727	0
950	88.69003	42.31084	-34.17414	-65.0936	57.77057	1.62734	-152.15629	72.41663	48.00653	11.39138	-119.60949	59.39791	0
951	81.367	29.29212	-44.75185	-54.51589	61.02525	-10.57771	-70.78929	175.75272	127.74619	51.26121	-94.38572	53.70222	0
952	70.78929	15.45973	-52.07488	-43.93818	63.46626	-25.22377	-6.50936	256.30605	186.33043	82.18067	-75.67131	48.00653	0
953	60.21158	2.44101	-57.77057	-33.36047	67.53461	-35.80148	39.05616	312.44928	224.57292	101.70875	-63.46626	42.31084	0
954	52.88855	-8.1367	-63.46626	-24.4101	69.97562	-43.12451	70.78929	346.62342	244.91467	112.28646	-57.77057	36.61515	0
955	49.63387	-17.08707	-69.16195	-17.90074	69.16195	-47.19286	90.31737	364.52416	253.86504	116.35481	-54.51589	31.73313	0
956	47.19286	-21.15542	-70.78929	-13.83239	65.0936	-48.8202	102.52242	372.66086	258.74706	120.42316	-52.07488	27.66478	0
957	43.93818	-21.15542	-70.78929	-11.39138	62.65259	-47.19286	109.84545	376.72921	265.25642	128.55986	-47.19286	26.85111	0
958	39.86983	-20.34175	-70.78929	-8.1367	62.65259	-45.56552	113.9138	379.17022	277.46147	139.95124	-37.42882	27.66478	0
959	37.42882	-20.34175	-70.78929	-6.50936	61.83892	-44.75185	118.79582	384.86591	295.36221	155.41097	-26.03744	29.29212	0
960	36.61515	-22.78276	-69.97562	-4.88202	59.39791	-45.56552	123.67784	393.81628	315.70396	171.68437	-15.45973	30.10579	0
961	37.42882	-27.66478	-73.2303	-4.06835	58.58424	-49.63387	129.37353	404.39399	335.23204	185.51676	-7.32303	30.10579	0
962	41.49717	-34.17414	-76.48498	-2.44101	61.83892	-54.51589	136.69656	416.59904	351.50544	196.90814	-0.81367	28.47845	0
963	46.37919	-39.86983	-78.11232	0	66.72094	-58.58424	145.64693	428.80409	365.33783	205.85851	4.06835	26.85111	0
964	47.19286	-43.93818	-78.92599	3.25468	69.16195	-61.02525	157.03831	441.82281	376.72921	213.18154	7.32303	25.22377	0
965	45.56552	-47.19286	-81.367	4.06835	68.34828	-64.27993	166.80235	452.40052	386.49325	218.87723	9.76404	23.59643	0
966	43.12451	-48.8202	-84.62168	4.88202	65.90727	-66.72094	174.93905	459.72355	392.18894	222.94558	13.01872	21.96909	0
967	38.24249	-50.44754	-85.43535	5.69569	62.65259	-67.53461	180.63474	463.7919	393.81628	225.38659	14.64606	19.52808	0
968	33.36047	-52.88855	-87.06269	8.1367	57.77057	-68.34828	184.70309	467.04658	395.44362	226.20026	17.08707	17.08707	0
969	30.10579	-53.70222	-87.87636	9.76404	55.32956	-69.16195	187.1441	471.9286	397.88463	228.64127	19.52808	16.2734	0
970	30.91946	-53.70222	-88.69003	8.95037	56.9569	-69.97562	190.39878	478.43796	402.76665	231.89595	22.78276	17.08707	0
971	34.98781	-51.26121	-91.13104	6.50936	60.21158	-70.78929	193.65346	486.57466	410.08968	237.59164	26.85111	17.90074	0
972	39.05616	-48.8202	-91.13104	1.62734	62.65259	-69.16195	196.90814	493.89769	416.59904	243.28733	30.91946	19.52808	0
973	40.6835	-47.19286	-91.13104	-2.44101	63.46626	-68.34828	199.34915	499.59338	423.1084	248.16935	34.98781	20.34175	0
974	43.93818	-45.56552	-92.75838	-6.50936	66.72094	-69.16195	201.79016	504.4754	427.99042	251.42403	38.24249	19.52808	0
975	48.8202	-44.75185	-96.01306	-8.1367	70.78929	-69.97562	204.23117	507.73008	432.05877	253.86504	42.31084	19.52808	0
976	48.8202	-43.12451	-93.57205	-6.50936	69.97562	-68.34828	207.48585	510.98476	434.49978	257.11972	46.37919	21.15542	0
977	43.93818	-39.86983	-86.24902	-3.25468	64.27993	-65.90727	210.74053	514.23944	435.31345	259.56073	49.63387	23.59643	0
978	37.42882	-38.24249	-75.67131	-1.62734	57.77057	-63.46626	213.18154	518.30779	435.31345	262.00174	52.07488	25.22377	0
979	34.98781	-38.24249	-70.78929	-0.81367	54.51589	-61.83892	215.62255	524.00348	436.94079	264.44275	55.32956	27.66478	0
980	35.80148	-39.05616	-72.41663	-0.81367	55.32956	-61.83892	218.87723	531.32651	441.00914	269.32477	58.58424	29.29212	0
981	38.24249	-41.49717	-78.11232	0	58.58424	-63.46626	221.31824	538.64954	447.5185	274.20679	62.65259	31.73313	0
982	42.31084	-43.93818	-84.62168	0	64.27993	-65.0936	222.94558	545.97257	453.21419	279.90248	67.53461	33.36047	0
983	48.8202	-46.37919	-88.69003	0.81367	71.60296	-67.53461	224.57292	552.48193	458.90988	284.7845	71.60296	34.17414	0
984	52.88855	-48.8202	-92.75838	0.81367	77.29865	-69.97562	226.20026	558.17762	463.7919	287.22551	74.85764	34.17414	0
