samplenr	I	II	III	aVR	aVL	aVF	V1	V2	V3	V4	V5	V6	measurement
0	-4.06835	-12.20505	-7.32303	8.1367	1.62734	-9.76404	5.69569	3.25468	-4.06835	-8.95037	-8.1367	-6.50936	0
1	-16.2734	-47.19286	-30.10579	31.73313	6.50936	-38.24249	23.59643	10.57771	-20.34175	-37.42882	-33.36047	-27.66478	0
2	-30.91946	-84.62168	-53.70222	57.77057	13.01872	-69.16195	42.31084	7.32303	-49.63387	-76.48498	-68.34828	-53.70222	0
3	-39.05616	-102.52242	-63.46626	69.97562	16.2734	-82.18067	55.32956	-20.34175	-93.57205	-113.10013	-98.45407	-69.97562	0
4	-39.86983	-96.01306	-60.21158	65.0936	17.08707	-77.29865	56.14323	-90.31737	-161.92033	-150.52895	-118.79582	-76.48498	0
5	-38.24249	-68.34828	-41.49717	47.19286	11.39138	-54.51589	40.6835	-211.5542	-266.88376	-196.09447	-132.62821	-77.29865	0
6	-34.98781	-24.4101	0	23.59643	-9.76404	-12.20505	12.20505	-376.72921	-402.76665	-251.42403	-143.20592	-71.60296	0
7	-31.73313	28.47845	56.9569	-0.81367	-38.24249	42.31084	-25.22377	-571.19634	-561.4323	-310.82194	-152.15629	-59.39791	0
8	-25.22377	90.31737	116.35481	-32.5468	-62.65259	101.70875	-78.92599	-784.37788	-733.11667	-371.84719	-157.03831	-39.05616	0
9	-6.50936	157.85198	168.42969	-74.85764	-78.11232	161.92033	-157.85198	-1009.76447	-912.12407	-432.87244	-154.5973	-7.32303	0
10	23.59643	233.52329	212.36787	-129.37353	-86.24902	222.13191	-266.07009	-1235.96473	-1086.24945	-481.69264	-136.69656	43.12451	0
11	62.65259	317.3313	256.30605	-191.21245	-91.94471	285.59817	-393.81628	-1449.14627	-1244.9151	-512.6121	-102.52242	113.9138	0
12	104.14976	406.835	303.49891	-257.11972	-96.82673	354.76012	-527.25816	-1638.73138	-1380.79799	-528.8855	-51.26121	200.97649	0
13	141.57858	497.96604	351.50544	-323.84066	-102.52242	425.54941	-655.00435	-1803.90639	-1491.45711	-529.69917	14.64606	298.61689	0
14	168.42969	589.91075	408.46234	-386.49325	-114.72747	499.59338	-772.17283	-1955.24901	-1586.6565	-516.68045	91.13104	401.95298	0
15	182.26208	685.11014	485.76099	-443.45015	-144.01959	586.65607	-877.94993	-2081.36786	-1672.90552	-492.27035	170.8707	502.84806	0
16	184.70309	768.10448	566.31432	-489.82934	-183.88942	668.02307	-961.75794	-2164.3622	-1741.2538	-453.21419	251.42403	595.60644	0
17	180.63474	812.04266	617.57553	-519.12146	-212.36787	714.40226	-1009.76447	-2207.48671	-1762.40922	-392.18894	331.16369	673.71876	0
18	175.75272	818.55202	633.84893	-524.00348	-224.57292	725.79364	-1025.2242	-2194.46799	-1718.47104	-313.26295	397.88463	723.35263	0
19	167.61602	791.70091	620.01654	-500.40705	-222.94558	703.82455	-1015.46016	-2118.79668	-1625.71266	-244.101	428.80409	729.04832	0
20	151.34262	728.23465	575.26469	-453.21419	-210.74053	650.12233	-983.72703	-2005.69655	-1524.81758	-217.24989	402.76665	678.60078	0
21	122.0505	634.6626	512.6121	-386.49325	-194.46713	572.82368	-938.16151	-1879.5777	-1445.89159	-247.35568	316.51763	574.45102	0
22	79.73966	528.07183	448.33217	-307.56726	-183.88942	488.202	-883.64562	-1754.27252	-1395.44405	-326.28167	184.70309	431.2451	0
23	28.47845	422.29473	393.00261	-227.01393	-182.26208	408.46234	-819.36569	-1627.34	-1357.20156	-427.99042	30.10579	264.44275	0
24	-23.59643	325.468	349.06443	-150.52895	-187.1441	338.48672	-742.88071	-1487.38876	-1305.94035	-524.81715	-125.30518	91.94471	0
25	-68.34828	242.47366	311.63561	-86.24902	-190.39878	278.27514	-659.0727	-1332.79146	-1228.6417	-591.53809	-257.11972	-53.70222	0
26	-100.89508	178.19373	279.08881	-39.05616	-190.39878	229.45494	-574.45102	-1170.87113	-1121.23726	-611.87984	-340.92773	-148.90161	0
27	-117.98215	131.81454	249.79669	-7.32303	-184.70309	191.21245	-493.89769	-1004.88245	-989.42272	-581.77405	-366.96517	-195.2808	0
28	-123.67784	97.6404	223.75925	10.57771	-174.12538	159.47932	-417.41271	-838.0801	-840.52111	-512.6121	-346.62342	-205.04484	0
29	-122.0505	74.04397	198.53548	18.71441	-160.29299	134.25555	-344.18241	-679.41445	-689.17849	-421.48106	-297.80322	-187.95777	0
30	-113.10013	58.58424	174.12538	20.34175	-144.01959	114.72747	-279.90248	-541.09055	-550.04092	-329.53635	-239.21898	-158.66565	0
31	-100.89508	51.26121	152.96996	18.71441	-126.93252	100.89508	-226.20026	-426.36308	-429.61776	-248.16935	-183.88942	-126.11885	0
32	-91.94471	48.8202	140.76491	17.08707	-116.35481	94.38572	-183.07575	-334.41837	-330.35002	-180.63474	-135.88289	-96.82673	0
33	-87.87636	45.56552	132.62821	17.90074	-110.65912	89.5037	-148.08794	-260.3744	-249.79669	-128.55986	-98.45407	-72.41663	0
34	-82.99434	36.61515	119.60949	21.96909	-101.70875	78.92599	-119.60949	-200.97649	-186.33043	-90.31737	-72.41663	-55.32956	0
35	-69.16195	19.52808	88.69003	26.03744	-79.73966	55.32956	-98.45407	-152.15629	-137.51023	-65.0936	-57.77057	-47.19286	0
36	-49.63387	-3.25468	44.75185	28.47845	-47.19286	21.15542	-79.73966	-109.03178	-96.82673	-47.19286	-49.63387	-44.75185	0
37	-32.5468	-30.91946	0.81367	31.73313	-17.08707	-14.64606	-61.83892	-67.53461	-61.02525	-33.36047	-43.93818	-44.75185	0
38	-21.15542	-56.14323	-32.5468	37.42882	4.88202	-45.56552	-43.12451	-28.47845	-28.47845	-20.34175	-37.42882	-44.75185	0
39	-17.08707	-73.2303	-56.14323	42.31084	19.52808	-66.72094	-23.59643	4.88202	0	-6.50936	-30.10579	-43.93818	0
40	-17.90074	-87.06269	-70.78929	48.00653	26.85111	-80.55333	-3.25468	34.98781	26.03744	8.1367	-21.15542	-42.31084	0
41	-20.34175	-100.08141	-80.55333	56.9569	30.10579	-91.94471	17.08707	61.83892	51.26121	26.03744	-9.76404	-38.24249	0
42	-21.96909	-113.9138	-89.5037	66.72094	32.5468	-102.52242	36.61515	86.24902	75.67131	43.93818	0.81367	-34.17414	0
43	-22.78276	-123.67784	-97.6404	73.2303	34.17414	-109.84545	52.88855	107.40444	96.01306	58.58424	9.76404	-29.29212	0
44	-24.4101	-127.74619	-100.08141	76.48498	34.98781	-113.10013	65.0936	125.30518	114.72747	69.16195	15.45973	-24.4101	0
45	-26.03744	-130.1872	-101.70875	78.92599	34.98781	-114.72747	71.60296	139.13757	131.81454	74.04397	18.71441	-20.34175	0
46	-27.66478	-131.81454	-103.33609	79.73966	36.61515	-117.16848	75.67131	150.52895	147.27427	74.04397	20.34175	-18.71441	0
47	-26.85111	-133.44188	-105.7771	80.55333	39.05616	-119.60949	76.48498	159.47932	160.29299	69.97562	19.52808	-18.71441	0
48	-23.59643	-135.88289	-108.21811	80.55333	41.49717	-122.0505	75.67131	165.98868	169.24336	66.72094	18.71441	-19.52808	0
49	-21.96909	-139.95124	-109.03178	81.367	43.12451	-122.86417	75.67131	171.68437	175.75272	66.72094	19.52808	-21.15542	0
50	-21.96909	-143.20592	-109.84545	82.18067	43.12451	-123.67784	77.29865	174.93905	178.19373	69.97562	21.96909	-20.34175	0
51	-22.78276	-144.83326	-113.10013	82.99434	44.75185	-126.11885	80.55333	177.38006	177.38006	76.48498	25.22377	-20.34175	0
52	-22.78276	-147.27427	-118.79582	83.80801	48.00653	-131.00087	84.62168	177.38006	174.12538	84.62168	29.29212	-18.71441	0
53	-23.59643	-151.34262	-123.67784	85.43535	50.44754	-135.06922	87.87636	177.38006	170.05703	92.75838	33.36047	-17.08707	0
54	-22.78276	-155.41097	-125.30518	87.06269	53.70222	-136.69656	90.31737	179.0074	165.98868	100.08141	35.80148	-15.45973	0
55	-22.78276	-158.66565	-126.11885	90.31737	54.51589	-139.13757	92.75838	183.88942	165.98868	108.21811	39.05616	-13.83239	0
56	-23.59643	-161.10666	-126.93252	93.57205	52.07488	-141.57858	96.01306	190.39878	170.8707	117.16848	40.6835	-13.01872	0
57	-23.59643	-160.29299	-125.30518	94.38572	50.44754	-141.57858	98.45407	197.72181	176.56639	122.86417	40.6835	-11.39138	0
58	-23.59643	-157.85198	-122.86417	93.57205	48.8202	-141.57858	100.08141	202.60383	178.19373	126.93252	40.6835	-12.20505	0
59	-24.4101	-157.03831	-121.23683	92.75838	48.00653	-142.39225	102.52242	205.85851	176.56639	130.1872	42.31084	-13.01872	0
60	-26.03744	-156.22464	-120.42316	91.13104	47.19286	-142.39225	104.14976	208.29952	178.19373	132.62821	43.93818	-13.01872	0
61	-26.85111	-154.5973	-120.42316	89.5037	47.19286	-141.57858	105.7771	210.74053	181.44841	135.06922	45.56552	-12.20505	0
62	-27.66478	-152.96996	-122.86417	88.69003	47.19286	-139.95124	107.40444	213.99521	184.70309	135.88289	47.19286	-12.20505	0
63	-27.66478	-151.34262	-125.30518	88.69003	48.8202	-139.13757	108.21811	218.06356	188.77144	136.69656	50.44754	-10.57771	0
64	-27.66478	-148.08794	-126.11885	88.69003	48.8202	-138.3239	109.84545	225.38659	197.72181	139.13757	53.70222	-7.32303	0
65	-28.47845	-145.64693	-123.67784	88.69003	47.19286	-136.69656	112.28646	233.52329	208.29952	139.95124	56.14323	-3.25468	0
66	-31.73313	-144.83326	-117.98215	90.31737	42.31084	-132.62821	113.10013	241.65999	218.06356	138.3239	56.9569	-1.62734	0
67	-34.17414	-144.01959	-111.47279	91.13104	35.80148	-128.55986	112.28646	247.35568	223.75925	133.44188	56.14323	-2.44101	0
68	-34.98781	-142.39225	-109.03178	91.94471	30.91946	-124.49151	111.47279	251.42403	227.8276	126.93252	55.32956	-4.06835	0
69	-34.98781	-140.76491	-108.21811	91.13104	30.10579	-122.0505	109.84545	253.86504	231.89595	121.23683	55.32956	-4.88202	0
70	-30.91946	-139.13757	-110.65912	88.69003	34.98781	-122.86417	109.03178	254.67871	234.33696	117.16848	56.14323	-5.69569	0
71	-21.96909	-137.51023	-117.16848	82.99434	44.75185	-126.11885	109.03178	254.67871	235.9643	114.72747	56.9569	-6.50936	0
72	-12.20505	-135.88289	-125.30518	76.48498	55.32956	-130.1872	110.65912	256.30605	237.59164	114.72747	58.58424	-6.50936	0
73	-4.06835	-134.25555	-131.81454	69.97562	62.65259	-131.81454	112.28646	259.56073	240.84632	118.79582	61.02525	-4.88202	0
74	0.81367	-132.62821	-135.06922	65.0936	66.72094	-132.62821	112.28646	264.44275	244.91467	125.30518	65.0936	-1.62734	0
75	4.06835	-131.81454	-136.69656	61.83892	69.16195	-133.44188	113.10013	268.5111	247.35568	132.62821	67.53461	0	0
76	4.88202	-131.00087	-138.3239	61.83892	71.60296	-133.44188	113.10013	270.95211	248.98302	137.51023	67.53461	0	0
77	3.25468	-130.1872	-134.25555	65.0936	69.16195	-132.62821	112.28646	271.76578	249.79669	142.39225	67.53461	0	0
78	-0.81367	-128.55986	-126.93252	70.78929	62.65259	-126.93252	112.28646	273.39312	249.79669	148.08794	69.16195	0.81367	0
79	-7.32303	-126.93252	-119.60949	75.67131	55.32956	-118.79582	113.9138	275.83413	252.2377	154.5973	69.97562	2.44101	0
80	-17.90074	-125.30518	-111.47279	77.29865	47.19286	-112.28646	115.54114	277.46147	257.11972	161.10666	70.78929	3.25468	0
81	-26.85111	-122.0505	-104.96343	74.04397	42.31084	-108.21811	116.35481	278.27514	261.18807	167.61602	72.41663	3.25468	0
82	-29.29212	-118.79582	-100.89508	69.16195	42.31084	-107.40444	117.98215	279.90248	265.25642	175.75272	75.67131	4.88202	0
83	-30.10579	-116.35481	-95.19939	69.16195	39.86983	-107.40444	122.86417	284.7845	270.13844	185.51676	81.367	8.95037	0
84	-34.98781	-115.54114	-88.69003	74.04397	32.5468	-108.21811	129.37353	294.54854	277.46147	197.72181	89.5037	15.45973	0
85	-41.49717	-115.54114	-80.55333	82.18067	21.96909	-105.7771	135.88289	306.75359	285.59817	209.11319	98.45407	21.96909	0
86	-48.8202	-117.16848	-73.2303	89.5037	8.1367	-98.45407	140.76491	318.95864	292.10753	219.6909	106.59077	26.03744	0
87	-56.14323	-116.35481	-69.97562	92.75838	-4.06835	-89.5037	144.83326	327.09534	296.17588	222.94558	109.03178	27.66478	0
88	-54.51589	-114.72747	-70.78929	88.69003	-5.69569	-84.62168	144.01959	328.72268	296.17588	218.06356	105.7771	27.66478	0
89	-37.42882	-114.72747	-80.55333	79.73966	8.95037	-87.87636	139.95124	325.468	292.9212	205.85851	100.08141	23.59643	0
90	-10.57771	-113.9138	-100.89508	69.97562	33.36047	-99.26774	136.69656	322.21332	286.41184	191.21245	95.19939	17.08707	0
91	11.39138	-113.9138	-121.23683	61.83892	52.07488	-112.28646	132.62821	319.77231	280.71615	180.63474	90.31737	13.01872	0
92	22.78276	-114.72747	-130.1872	56.14323	62.65259	-118.79582	130.1872	320.58598	280.71615	178.19373	90.31737	13.83239	0
93	26.85111	-114.72747	-126.11885	56.14323	69.97562	-118.79582	131.00087	327.90901	288.85285	182.26208	95.19939	19.52808	0
94	24.4101	-115.54114	-117.16848	56.14323	72.41663	-116.35481	131.00087	337.67305	301.87157	187.95777	100.89508	26.85111	0
95	24.4101	-115.54114	-110.65912	52.88855	76.48498	-117.16848	131.00087	343.36874	312.44928	191.21245	104.14976	31.73313	0
96	26.85111	-112.28646	-112.28646	46.37919	82.18067	-119.60949	131.81454	347.43709	319.77231	194.46713	104.96343	32.5468	0
97	29.29212	-105.7771	-115.54114	39.86983	82.18067	-117.98215	133.44188	350.69177	325.468	197.72181	104.96343	30.10579	0
98	26.85111	-100.08141	-113.10013	35.80148	76.48498	-111.47279	135.06922	353.94645	329.53635	200.97649	104.14976	30.10579	0
99	21.96909	-96.82673	-106.59077	35.80148	66.72094	-102.52242	135.88289	357.20113	334.41837	205.85851	105.7771	31.73313	0
100	16.2734	-92.75838	-99.26774	35.80148	58.58424	-95.19939	137.51023	362.08315	340.11406	212.36787	109.84545	34.98781	1000	P+0
101	13.01872	-89.5037	-96.82673	34.98781	54.51589	-91.13104	139.95124	368.59251	344.18241	222.13191	114.72747	37.42882	0
102	15.45973	-87.06269	-96.01306	32.5468	53.70222	-91.94471	141.57858	373.47453	348.25076	229.45494	117.16848	38.24249	0
103	21.96909	-85.43535	-95.19939	30.10579	52.88855	-97.6404	142.39225	377.54288	353.94645	234.33696	117.16848	38.24249	0
104	23.59643	-83.80801	-95.19939	29.29212	52.07488	-101.70875	145.64693	384.86591	361.26948	239.21898	119.60949	39.86983	0
105	17.90074	-85.43535	-92.75838	30.10579	48.8202	-100.89508	152.15629	394.62995	371.84719	244.91467	126.11885	44.75185	0
106	12.20505	-87.06269	-87.87636	34.17414	42.31084	-96.01306	159.47932	404.39399	385.67958	252.2377	133.44188	51.26121	0
107	7.32303	-85.43535	-82.18067	37.42882	39.05616	-88.69003	164.36134	413.34436	399.51197	261.18807	140.76491	56.9569	0
108	0.81367	-80.55333	-76.48498	36.61515	37.42882	-80.55333	167.61602	422.29473	407.64867	270.13844	147.27427	61.02525	0
109	-2.44101	-78.11232	-69.97562	37.42882	34.17414	-72.41663	170.05703	429.61776	413.34436	280.71615	152.15629	62.65259	0
110	-3.25468	-75.67131	-61.83892	39.05616	28.47845	-65.90727	173.31171	436.94079	419.85372	292.10753	157.85198	65.0936	0
111	-2.44101	-73.2303	-57.77057	39.05616	25.22377	-62.65259	175.75272	444.26382	428.80409	301.87157	162.734	67.53461	0
112	0.81367	-69.97562	-61.83892	34.98781	29.29212	-63.46626	177.38006	450.77318	437.75446	308.38093	165.17501	67.53461	0
113	8.1367	-68.34828	-72.41663	28.47845	39.05616	-68.34828	178.19373	456.46887	443.45015	310.82194	165.98868	65.90727	0
114	15.45973	-67.53461	-81.367	23.59643	48.00653	-73.2303	178.19373	463.7919	449.14584	311.63561	166.80235	65.0936	0
115	20.34175	-65.0936	-86.24902	19.52808	52.88855	-74.85764	179.0074	473.55594	459.72355	314.89029	170.05703	67.53461	0
116	22.78276	-59.39791	-82.99434	15.45973	53.70222	-70.78929	180.63474	484.13365	472.74227	318.14497	174.12538	70.78929	0
117	23.59643	-49.63387	-74.04397	10.57771	49.63387	-61.83892	183.88942	494.71136	484.13365	320.58598	178.19373	74.04397	0
118	22.78276	-37.42882	-63.46626	4.06835	44.75185	-51.26121	187.95777	504.4754	492.27035	323.02699	181.44841	77.29865	0
119	19.52808	-26.03744	-52.07488	0	39.86983	-40.6835	192.83979	513.42577	499.59338	327.09534	185.51676	80.55333	0
120	16.2734	-19.52808	-42.31084	-2.44101	34.98781	-32.5468	196.09447	519.93513	506.91641	331.97736	188.77144	83.80801	0
121	13.01872	-15.45973	-34.17414	-2.44101	30.10579	-26.03744	198.53548	525.63082	512.6121	336.04571	192.02612	86.24902	0
122	13.01872	-12.20505	-28.47845	-4.06835	25.22377	-21.15542	200.97649	530.51284	516.68045	339.30039	193.65346	87.87636	0
123	13.83239	-8.95037	-26.85111	-8.95037	21.96909	-17.90074	204.23117	537.0222	522.37614	341.7414	195.2808	89.5037	0
124	16.2734	-5.69569	-26.85111	-13.83239	20.34175	-15.45973	209.11319	542.71789	531.32651	345.80975	197.72181	92.75838	0
125	17.90074	-0.81367	-26.03744	-17.90074	19.52808	-13.01872	212.36787	547.59991	541.09055	349.8781	199.34915	95.19939	0
126	19.52808	4.88202	-21.96909	-19.52808	19.52808	-7.32303	213.18154	550.85459	546.78624	352.31911	200.97649	97.6404	0
127	21.15542	13.01872	-12.20505	-21.96909	16.2734	0	211.5542	554.92294	548.41358	353.94645	202.60383	99.26774	0
128	20.34175	19.52808	-0.81367	-21.96909	10.57771	8.95037	210.74053	558.99129	549.22725	354.76012	205.04484	102.52242	0
129	18.71441	23.59643	8.95037	-21.96909	4.88202	17.90074	211.5542	561.4323	550.85459	357.20113	209.11319	106.59077	0
130	14.64606	27.66478	18.71441	-21.96909	-0.81367	25.22377	213.99521	563.05964	552.48193	361.26948	214.80888	111.47279	0
131	12.20505	31.73313	24.4101	-23.59643	-4.88202	30.10579	215.62255	562.24597	554.92294	365.33783	218.87723	115.54114	0
132	13.01872	39.05616	27.66478	-26.85111	-5.69569	34.98781	215.62255	560.61863	556.55028	368.59251	223.75925	119.60949	0
133	17.08707	49.63387	29.29212	-34.17414	-4.06835	43.12451	212.36787	557.36395	557.36395	371.03352	227.01393	123.67784	0
134	21.96909	60.21158	31.73313	-42.31084	-3.25468	50.44754	208.29952	553.2956	555.73661	371.03352	230.26861	127.74619	0
135	25.22377	68.34828	36.61515	-48.8202	-3.25468	56.14323	204.23117	547.59991	551.66826	369.40618	231.08228	130.1872	0
136	26.03744	73.2303	42.31084	-51.26121	-5.69569	60.21158	198.53548	541.90422	546.78624	366.96517	230.26861	131.00087	0
137	22.78276	74.04397	48.8202	-49.63387	-11.39138	62.65259	193.65346	536.20853	542.71789	363.71049	228.64127	131.81454	0
138	17.08707	74.85764	57.77057	-46.37919	-18.71441	65.90727	189.58511	529.69917	538.64954	359.64214	227.01393	132.62821	0
139	11.39138	80.55333	67.53461	-44.75185	-26.85111	72.41663	189.58511	522.37614	531.32651	355.57379	227.01393	135.06922	0
140	5.69569	90.31737	78.92599	-45.56552	-33.36047	81.367	189.58511	515.86678	523.18981	351.50544	227.8276	138.3239	0
141	2.44101	102.52242	92.75838	-48.8202	-40.6835	91.94471	190.39878	510.98476	517.49412	349.8781	230.26861	144.83326	0
142	1.62734	113.9138	107.40444	-53.70222	-50.44754	104.96343	191.21245	505.28907	513.42577	348.25076	232.70962	152.15629	0
143	2.44101	122.86417	119.60949	-56.9569	-59.39791	116.35481	189.58511	496.3387	507.73008	344.99608	233.52329	156.22464	0
144	4.06835	129.37353	124.49151	-59.39791	-63.46626	124.49151	184.70309	483.31998	495.52503	337.67305	231.89595	157.03831	0
145	7.32303	131.00087	121.23683	-61.83892	-59.39791	127.74619	175.75272	466.23291	477.62429	326.28167	228.64127	154.5973	0
146	15.45973	129.37353	111.47279	-67.53461	-49.63387	125.30518	163.54767	445.89116	458.90988	313.26295	221.31824	149.71528	0
147	26.03744	128.55986	100.08141	-74.85764	-37.42882	119.60949	150.52895	423.92207	439.3818	296.98955	213.18154	144.01959	0
148	39.05616	131.00087	91.94471	-83.80801	-27.66478	113.9138	136.69656	401.95298	417.41271	280.71615	203.4175	138.3239	0
149	48.00653	136.69656	88.69003	-91.94471	-21.96909	113.10013	122.86417	380.79756	394.62995	265.25642	195.2808	133.44188	0
150	52.88855	144.01959	91.13104	-97.6404	-20.34175	116.35481	110.65912	359.64214	372.66086	252.2377	187.95777	131.00087	0
151	55.32956	151.34262	96.01306	-102.52242	-21.15542	122.86417	100.89508	337.67305	353.13278	241.65999	183.88942	129.37353	0
152	56.14323	158.66565	101.70875	-106.59077	-22.78276	129.37353	92.75838	317.3313	336.04571	233.52329	179.82107	128.55986	0
153	52.88855	164.36134	106.59077	-107.40444	-26.03744	136.69656	84.62168	296.98955	318.95864	226.20026	176.56639	129.37353	0
154	47.19286	167.61602	109.84545	-103.33609	-30.91946	142.39225	77.29865	276.6478	300.24423	218.87723	172.49804	128.55986	0
155	39.86983	167.61602	113.9138	-98.45407	-36.61515	146.4606	71.60296	257.11972	279.90248	209.11319	168.42969	127.74619	0
156	33.36047	165.98868	121.23683	-96.01306	-43.12451	148.08794	65.0936	235.9643	261.18807	197.72181	161.92033	125.30518	0
157	31.73313	169.24336	130.1872	-98.45407	-48.00653	152.15629	57.77057	215.62255	243.28733	186.33043	154.5973	124.49151	0
158	35.80148	175.75272	138.3239	-104.14976	-50.44754	158.66565	48.8202	195.2808	223.75925	174.93905	148.08794	124.49151	0
159	37.42882	181.44841	144.83326	-109.03178	-52.88855	165.98868	37.42882	172.49804	200.97649	165.17501	143.20592	124.49151	0
160	37.42882	185.51676	151.34262	-112.28646	-55.32956	172.49804	25.22377	148.08794	176.56639	156.22464	138.3239	123.67784	0
161	34.98781	187.1441	155.41097	-113.10013	-59.39791	174.93905	15.45973	122.86417	152.96996	148.08794	134.25555	122.86417	0
162	30.91946	183.88942	155.41097	-109.03178	-61.83892	171.68437	7.32303	98.45407	130.1872	141.57858	131.81454	122.0505	0
163	28.47845	179.0074	151.34262	-102.52242	-62.65259	166.80235	0	74.04397	107.40444	134.25555	129.37353	122.0505	0
164	28.47845	175.75272	146.4606	-97.6404	-61.02525	163.54767	-5.69569	52.07488	85.43535	126.93252	127.74619	121.23683	0
165	30.10579	173.31171	141.57858	-96.82673	-56.14323	160.29299	-10.57771	30.91946	66.72094	120.42316	124.49151	120.42316	0
166	32.5468	171.68437	135.06922	-99.26774	-49.63387	154.5973	-17.08707	10.57771	50.44754	113.9138	117.98215	115.54114	0
167	36.61515	166.80235	125.30518	-100.89508	-40.6835	145.64693	-25.22377	-6.50936	34.17414	104.96343	106.59077	107.40444	0
168	39.86983	160.29299	113.10013	-100.08141	-33.36047	136.69656	-33.36047	-22.78276	17.08707	93.57205	92.75838	98.45407	0
169	39.05616	153.78363	104.96343	-96.82673	-31.73313	130.1872	-40.6835	-38.24249	1.62734	80.55333	78.11232	89.5037	0
170	34.17414	147.27427	102.52242	-91.13104	-32.5468	126.93252	-45.56552	-52.07488	-13.01872	64.27993	65.0936	82.18067	0
171	26.85111	138.3239	103.33609	-83.80801	-35.80148	122.86417	-48.00653	-62.65259	-26.85111	45.56552	56.14323	76.48498	0
172	20.34175	126.93252	103.33609	-74.04397	-39.86983	116.35481	-48.00653	-71.60296	-36.61515	26.85111	49.63387	72.41663	0
173	16.2734	115.54114	100.89508	-64.27993	-43.12451	109.03178	-48.00653	-79.73966	-43.12451	11.39138	43.93818	69.16195	0
174	15.45973	105.7771	96.82673	-57.77057	-44.75185	102.52242	-48.8202	-86.24902	-47.19286	0.81367	39.05616	65.90727	0
175	17.08707	100.08141	87.87636	-56.9569	-44.75185	95.19939	-49.63387	-91.94471	-51.26121	-4.88202	34.17414	61.02525	0
176	21.15542	96.01306	78.11232	-57.77057	-42.31084	87.87636	-50.44754	-96.01306	-56.14323	-8.95037	29.29212	52.88855	0
177	22.78276	91.13104	72.41663	-57.77057	-37.42882	80.55333	-52.07488	-98.45407	-60.21158	-13.01872	24.4101	43.93818	0
178	22.78276	83.80801	68.34828	-55.32956	-32.5468	72.41663	-53.70222	-99.26774	-64.27993	-17.08707	17.90074	34.98781	0
179	20.34175	76.48498	63.46626	-52.07488	-28.47845	64.27993	-55.32956	-98.45407	-67.53461	-21.96909	10.57771	26.85111	0
180	14.64606	67.53461	58.58424	-45.56552	-26.03744	58.58424	-55.32956	-96.01306	-69.97562	-27.66478	3.25468	18.71441	0
181	7.32303	59.39791	55.32956	-36.61515	-26.03744	54.51589	-54.51589	-95.19939	-70.78929	-34.17414	-3.25468	9.76404	0
182	1.62734	53.70222	52.88855	-30.91946	-25.22377	51.26121	-54.51589	-96.01306	-72.41663	-39.86983	-9.76404	1.62734	0
183	0.81367	49.63387	43.93818	-29.29212	-22.78276	46.37919	-52.07488	-95.19939	-74.04397	-45.56552	-15.45973	-5.69569	0
184	1.62734	43.93818	29.29212	-30.10579	-20.34175	37.42882	-48.00653	-91.94471	-73.2303	-48.00653	-21.15542	-11.39138	0
185	1.62734	34.98781	16.2734	-27.66478	-15.45973	27.66478	-40.6835	-82.99434	-68.34828	-48.00653	-24.4101	-15.45973	0
186	0	23.59643	8.1367	-18.71441	-8.95037	18.71441	-33.36047	-72.41663	-60.21158	-48.00653	-25.22377	-16.2734	0
187	-7.32303	12.20505	0	-7.32303	-2.44101	13.01872	-27.66478	-64.27993	-53.70222	-47.19286	-24.4101	-16.2734	0
188	-8.95037	2.44101	-8.1367	0	1.62734	7.32303	-27.66478	-61.83892	-52.07488	-48.00653	-26.85111	-20.34175	0
189	-4.06835	-4.88202	-14.64606	0	6.50936	0.81367	-31.73313	-63.46626	-55.32956	-51.26121	-33.36047	-28.47845	0
190	1.62734	-8.95037	-17.08707	-0.81367	9.76404	-4.06835	-36.61515	-65.0936	-61.02525	-55.32956	-41.49717	-37.42882	0
191	4.88202	-11.39138	-17.08707	-0.81367	10.57771	-8.1367	-38.24249	-66.72094	-64.27993	-57.77057	-48.00653	-43.12451	0
192	5.69569	-12.20505	-17.90074	0	13.01872	-12.20505	-34.98781	-66.72094	-63.46626	-57.77057	-51.26121	-45.56552	0
193	6.50936	-11.39138	-23.59643	0	17.08707	-16.2734	-30.91946	-65.0936	-58.58424	-53.70222	-52.07488	-46.37919	0
194	8.1367	-9.76404	-26.85111	-0.81367	20.34175	-19.52808	-26.85111	-62.65259	-52.88855	-48.00653	-51.26121	-45.56552	0
195	7.32303	-7.32303	-26.03744	0	19.52808	-19.52808	-23.59643	-59.39791	-45.56552	-39.86983	-51.26121	-43.12451	0
196	4.88202	-6.50936	-23.59643	0.81367	14.64606	-15.45973	-21.96909	-54.51589	-41.49717	-32.5468	-48.8202	-40.6835	0
197	2.44101	-7.32303	-25.22377	2.44101	10.57771	-13.01872	-21.15542	-49.63387	-39.05616	-29.29212	-48.00653	-39.86983	0
198	1.62734	-10.57771	-31.73313	4.06835	12.20505	-15.45973	-21.96909	-48.8202	-39.05616	-32.5468	-51.26121	-43.12451	0
199	3.25468	-14.64606	-39.86983	5.69569	20.34175	-22.78276	-21.96909	-52.07488	-41.49717	-36.61515	-56.14323	-47.19286	0
200	6.50936	-16.2734	-46.37919	4.88202	24.4101	-27.66478	-21.15542	-53.70222	-40.6835	-37.42882	-59.39791	-49.63387	0
201	8.1367	-17.90074	-48.8202	4.06835	23.59643	-28.47845	-20.34175	-52.07488	-39.05616	-32.5468	-59.39791	-50.44754	0
202	6.50936	-19.52808	-44.75185	5.69569	19.52808	-26.85111	-19.52808	-48.00653	-34.98781	-25.22377	-56.14323	-48.8202	0
203	5.69569	-21.15542	-37.42882	7.32303	15.45973	-24.4101	-19.52808	-43.12451	-30.10579	-17.08707	-53.70222	-48.00653	0
204	7.32303	-21.15542	-30.10579	8.1367	13.01872	-21.96909	-20.34175	-39.86983	-25.22377	-11.39138	-52.88855	-47.19286	0
205	8.1367	-21.96909	-26.85111	9.76404	13.83239	-21.96909	-21.15542	-35.80148	-21.96909	-8.1367	-52.88855	-47.19286	0
206	7.32303	-26.03744	-29.29212	12.20505	16.2734	-26.03744	-21.96909	-33.36047	-20.34175	-8.1367	-54.51589	-49.63387	0
207	3.25468	-33.36047	-32.5468	17.90074	17.08707	-33.36047	-23.59643	-33.36047	-21.96909	-9.76404	-56.9569	-52.07488	0
208	0	-40.6835	-34.98781	22.78276	16.2734	-39.05616	-24.4101	-33.36047	-25.22377	-13.01872	-58.58424	-54.51589	0
209	-1.62734	-43.93818	-33.36047	24.4101	12.20505	-40.6835	-23.59643	-34.17414	-27.66478	-15.45973	-59.39791	-54.51589	0
210	-4.06835	-44.75185	-30.91946	21.15542	8.95037	-39.86983	-19.52808	-33.36047	-27.66478	-17.90074	-57.77057	-53.70222	0
211	-7.32303	-41.49717	-25.22377	17.90074	4.06835	-34.98781	-12.20505	-30.10579	-26.03744	-20.34175	-56.14323	-51.26121	0
212	-13.01872	-35.80148	-16.2734	18.71441	-0.81367	-26.85111	-5.69569	-26.03744	-21.96909	-21.96909	-55.32956	-47.19286	0
213	-20.34175	-30.91946	-5.69569	21.96909	-8.1367	-17.90074	-0.81367	-22.78276	-17.08707	-23.59643	-53.70222	-43.93818	0
214	-25.22377	-26.85111	2.44101	25.22377	-14.64606	-10.57771	0	-20.34175	-13.01872	-23.59643	-52.07488	-40.6835	0
215	-26.85111	-23.59643	8.1367	26.03744	-17.90074	-5.69569	0.81367	-17.08707	-12.20505	-24.4101	-50.44754	-39.05616	0
216	-25.22377	-20.34175	8.95037	24.4101	-17.90074	-4.06835	0.81367	-14.64606	-13.01872	-26.85111	-50.44754	-39.86983	0
217	-21.15542	-17.90074	4.06835	20.34175	-14.64606	-4.88202	0	-16.2734	-15.45973	-31.73313	-52.88855	-43.12451	0
218	-17.08707	-16.2734	-2.44101	17.08707	-11.39138	-8.95037	-1.62734	-17.90074	-20.34175	-35.80148	-55.32956	-46.37919	0
219	-10.57771	-13.01872	-8.1367	13.83239	-5.69569	-14.64606	-3.25468	-18.71441	-25.22377	-39.05616	-56.9569	-48.8202	0
220	-2.44101	-8.95037	-14.64606	10.57771	2.44101	-18.71441	-5.69569	-19.52808	-28.47845	-42.31084	-58.58424	-53.70222	0
221	3.25468	-7.32303	-22.78276	5.69569	14.64606	-21.96909	-8.1367	-21.96909	-29.29212	-46.37919	-60.21158	-62.65259	0
222	7.32303	-9.76404	-31.73313	1.62734	24.4101	-25.22377	-8.1367	-23.59643	-27.66478	-48.8202	-63.46626	-69.97562	0
223	8.95037	-17.90074	-37.42882	3.25468	28.47845	-30.91946	-4.88202	-23.59643	-27.66478	-48.00653	-65.90727	-73.2303	0
224	8.95037	-26.85111	-39.86983	6.50936	30.10579	-35.80148	0	-21.15542	-26.85111	-46.37919	-66.72094	-73.2303	0
225	7.32303	-32.5468	-39.05616	10.57771	28.47845	-37.42882	2.44101	-18.71441	-26.03744	-46.37919	-68.34828	-71.60296	0
226	6.50936	-35.80148	-39.86983	13.01872	27.66478	-39.05616	4.06835	-17.08707	-27.66478	-49.63387	-72.41663	-69.16195	0
227	4.88202	-35.80148	-38.24249	13.83239	24.4101	-38.24249	3.25468	-17.08707	-28.47845	-58.58424	-78.92599	-68.34828	0
228	0.81367	-32.5468	-30.91946	14.64606	17.08707	-32.5468	2.44101	-17.08707	-29.29212	-69.16195	-84.62168	-68.34828	0
229	-4.88202	-26.03744	-19.52808	14.64606	8.1367	-24.4101	3.25468	-17.08707	-29.29212	-78.11232	-87.06269	-67.53461	0
230	-10.57771	-19.52808	-7.32303	13.83239	0	-14.64606	3.25468	-16.2734	-28.47845	-82.99434	-87.06269	-65.90727	0
231	-13.83239	-12.20505	1.62734	11.39138	-5.69569	-5.69569	3.25468	-15.45973	-26.03744	-82.18067	-85.43535	-64.27993	0
232	-13.83239	-4.88202	8.95037	8.1367	-9.76404	0.81367	4.06835	-13.01872	-23.59643	-77.29865	-81.367	-61.02525	0
233	-13.01872	-2.44101	8.1367	5.69569	-11.39138	3.25468	6.50936	-10.57771	-23.59643	-71.60296	-78.11232	-56.9569	0
234	-10.57771	-5.69569	0	4.88202	-9.76404	-1.62734	7.32303	-8.1367	-25.22377	-69.16195	-75.67131	-55.32956	0
235	-8.1367	-13.01872	-10.57771	6.50936	-4.88202	-10.57771	4.06835	-9.76404	-30.10579	-69.97562	-78.11232	-56.9569	0
236	-6.50936	-17.90074	-16.2734	8.95037	0	-15.45973	-0.81367	-12.20505	-34.98781	-71.60296	-83.80801	-61.83892	0
237	-5.69569	-20.34175	-16.2734	10.57771	4.06835	-17.90074	-6.50936	-15.45973	-38.24249	-73.2303	-88.69003	-66.72094	0
238	-6.50936	-21.96909	-14.64606	13.01872	6.50936	-17.90074	-9.76404	-16.2734	-38.24249	-72.41663	-90.31737	-68.34828	0
239	-8.1367	-25.22377	-12.20505	14.64606	6.50936	-17.90074	-10.57771	-14.64606	-34.98781	-68.34828	-88.69003	-67.53461	0
240	-6.50936	-26.03744	-13.01872	15.45973	7.32303	-18.71441	-8.1367	-12.20505	-30.10579	-62.65259	-86.24902	-64.27993	0
241	-1.62734	-25.22377	-17.90074	13.83239	11.39138	-21.15542	-4.06835	-10.57771	-23.59643	-56.9569	-84.62168	-61.02525	0
242	3.25468	-24.4101	-24.4101	10.57771	14.64606	-23.59643	-2.44101	-10.57771	-20.34175	-53.70222	-83.80801	-58.58424	0
243	8.1367	-21.96909	-30.91946	7.32303	17.08707	-26.03744	-2.44101	-11.39138	-18.71441	-52.07488	-84.62168	-58.58424	0
244	11.39138	-17.90074	-34.17414	4.06835	19.52808	-26.85111	-3.25468	-13.01872	-17.90074	-50.44754	-85.43535	-58.58424	0
245	9.76404	-15.45973	-30.91946	2.44101	17.08707	-24.4101	-4.06835	-13.01872	-16.2734	-48.8202	-87.06269	-56.9569	0
246	0	-15.45973	-20.34175	4.88202	8.95037	-18.71441	-1.62734	-9.76404	-16.2734	-48.00653	-87.06269	-56.14323	0
247	-12.20505	-17.90074	-8.1367	11.39138	-2.44101	-13.83239	0.81367	-4.88202	-15.45973	-48.00653	-87.06269	-55.32956	0
248	-24.4101	-22.78276	3.25468	18.71441	-13.83239	-8.95037	4.06835	-2.44101	-15.45973	-48.00653	-87.87636	-56.14323	0
249	-33.36047	-27.66478	13.01872	24.4101	-22.78276	-4.88202	8.1367	-1.62734	-15.45973	-48.00653	-91.94471	-57.77057	0
250	-41.49717	-31.73313	19.52808	29.29212	-30.91946	-2.44101	10.57771	-0.81367	-12.20505	-48.00653	-95.19939	-56.9569	0
251	-49.63387	-34.98781	27.66478	38.24249	-40.6835	0	13.01872	0.81367	-8.1367	-47.19286	-94.38572	-53.70222	0
252	-54.51589	-37.42882	34.17414	48.00653	-50.44754	0	14.64606	4.88202	-4.88202	-44.75185	-90.31737	-50.44754	0
253	-55.32956	-39.05616	33.36047	52.07488	-52.07488	-0.81367	13.01872	7.32303	-3.25468	-43.93818	-87.06269	-48.00653	0
254	-50.44754	-37.42882	25.22377	48.8202	-43.93818	-4.88202	9.76404	6.50936	-4.88202	-43.93818	-83.80801	-47.19286	1500	QRS+0
255	-39.05616	-32.5468	13.83239	39.05616	-30.10579	-8.1367	7.32303	3.25468	-8.95037	-44.75185	-82.99434	-48.00653	0
256	-25.22377	-26.85111	0.81367	27.66478	-14.64606	-12.20505	4.06835	0	-13.01872	-45.56552	-84.62168	-49.63387	0
257	-11.39138	-23.59643	-13.83239	16.2734	0	-18.71441	0.81367	-5.69569	-17.90074	-49.63387	-91.13104	-52.88855	0
258	-1.62734	-21.15542	-26.85111	7.32303	13.83239	-26.85111	-3.25468	-11.39138	-25.22377	-58.58424	-99.26774	-58.58424	0
259	1.62734	-18.71441	-35.80148	1.62734	20.34175	-33.36047	-6.50936	-15.45973	-32.5468	-69.97562	-105.7771	-63.46626	0
260	3.25468	-19.52808	-39.86983	3.25468	17.90074	-34.98781	-8.95037	-17.90074	-39.05616	-78.92599	-109.03178	-65.0936	0
261	2.44101	-25.22377	-39.05616	10.57771	12.20505	-34.17414	-9.76404	-17.90074	-45.56552	-82.99434	-109.84545	-64.27993	0
262	-0.81367	-32.5468	-33.36047	17.90074	5.69569	-34.98781	-8.95037	-17.08707	-48.00653	-82.99434	-108.21811	-63.46626	0
263	-7.32303	-38.24249	-23.59643	18.71441	0.81367	-39.05616	-8.1367	-17.08707	-48.00653	-80.55333	-104.96343	-62.65259	0
264	-8.95037	-40.6835	-14.64606	17.08707	-2.44101	-43.12451	-7.32303	-17.90074	-44.75185	-78.11232	-100.89508	-62.65259	0
265	-1.62734	-39.86983	-8.95037	17.08707	-4.06835	-40.6835	-6.50936	-17.08707	-39.86983	-78.11232	-97.6404	-62.65259	0
266	8.1367	-33.36047	-8.1367	14.64606	-3.25468	-32.5468	-8.1367	-17.08707	-37.42882	-78.11232	-95.19939	-61.83892	0
267	17.08707	-22.78276	-12.20505	8.1367	0.81367	-25.22377	-12.20505	-18.71441	-39.86983	-79.73966	-94.38572	-61.83892	0
268	21.96909	-14.64606	-20.34175	0.81367	7.32303	-20.34175	-15.45973	-19.52808	-43.12451	-80.55333	-93.57205	-62.65259	0
269	20.34175	-12.20505	-28.47845	0	13.01872	-19.52808	-17.90074	-18.71441	-44.75185	-80.55333	-92.75838	-61.02525	0
270	14.64606	-16.2734	-33.36047	1.62734	16.2734	-21.96909	-17.90074	-17.08707	-45.56552	-78.11232	-90.31737	-58.58424	0
271	4.06835	-23.59643	-32.5468	8.95037	14.64606	-25.22377	-17.08707	-16.2734	-46.37919	-74.04397	-87.06269	-55.32956	0
272	-8.1367	-31.73313	-26.85111	18.71441	9.76404	-27.66478	-14.64606	-16.2734	-47.19286	-69.97562	-83.80801	-52.88855	0
273	-18.71441	-36.61515	-17.90074	26.03744	3.25468	-28.47845	-13.01872	-16.2734	-47.19286	-65.90727	-82.18067	-52.88855	0
274	-24.4101	-38.24249	-10.57771	29.29212	-1.62734	-26.03744	-13.83239	-15.45973	-44.75185	-59.39791	-82.18067	-54.51589	0
275	-24.4101	-34.17414	-9.76404	27.66478	-4.88202	-21.96909	-15.45973	-13.83239	-41.49717	-53.70222	-82.99434	-57.77057	0
276	-17.90074	-30.10579	-13.83239	22.78276	-4.88202	-20.34175	-16.2734	-12.20505	-40.6835	-50.44754	-84.62168	-60.21158	0
277	-8.1367	-27.66478	-21.15542	17.90074	-2.44101	-22.78276	-17.08707	-12.20505	-41.49717	-48.8202	-85.43535	-60.21158	0
278	-1.62734	-28.47845	-26.03744	17.08707	0.81367	-26.03744	-16.2734	-13.01872	-43.93818	-51.26121	-86.24902	-58.58424	0
279	-2.44101	-31.73313	-25.22377	18.71441	1.62734	-26.85111	-13.83239	-16.2734	-45.56552	-56.14323	-86.24902	-55.32956	0
280	-8.1367	-34.98781	-19.52808	21.96909	0	-25.22377	-13.01872	-19.52808	-48.00653	-65.0936	-87.06269	-51.26121	0
281	-16.2734	-35.80148	-13.83239	25.22377	-4.06835	-23.59643	-11.39138	-22.78276	-52.07488	-73.2303	-85.43535	-48.00653	0
282	-21.15542	-35.80148	-9.76404	26.85111	-6.50936	-21.96909	-11.39138	-25.22377	-55.32956	-78.92599	-82.18067	-43.93818	0
283	-23.59643	-35.80148	-11.39138	27.66478	-6.50936	-22.78276	-11.39138	-25.22377	-56.9569	-80.55333	-78.11232	-41.49717	0
284	-22.78276	-39.05616	-17.90074	28.47845	-5.69569	-27.66478	-10.57771	-24.4101	-55.32956	-79.73966	-75.67131	-39.86983	0
285	-20.34175	-41.49717	-25.22377	27.66478	-1.62734	-32.5468	-9.76404	-21.15542	-50.44754	-77.29865	-74.04397	-39.05616	0
286	-18.71441	-43.12451	-27.66478	28.47845	3.25468	-34.98781	-8.95037	-17.08707	-45.56552	-75.67131	-72.41663	-39.86983	0
287	-19.52808	-44.75185	-26.85111	30.10579	9.76404	-35.80148	-8.1367	-12.20505	-42.31084	-73.2303	-69.97562	-40.6835	0
288	-16.2734	-42.31084	-26.85111	28.47845	15.45973	-34.98781	-10.57771	-9.76404	-39.86983	-70.78929	-68.34828	-40.6835	0
289	-8.1367	-37.42882	-28.47845	23.59643	19.52808	-34.17414	-13.83239	-9.76404	-39.05616	-70.78929	-65.0936	-41.49717	0
290	0	-29.29212	-27.66478	17.90074	20.34175	-29.29212	-16.2734	-9.76404	-39.05616	-70.78929	-63.46626	-41.49717	0
291	4.06835	-19.52808	-22.78276	11.39138	20.34175	-21.96909	-17.90074	-8.95037	-39.05616	-69.97562	-61.02525	-38.24249	0
292	4.88202	-13.01872	-17.90074	6.50936	17.90074	-16.2734	-18.71441	-4.88202	-35.80148	-67.53461	-57.77057	-34.17414	0
293	4.06835	-14.64606	-17.90074	7.32303	14.64606	-16.2734	-20.34175	0	-30.91946	-65.0936	-54.51589	-29.29212	0
294	2.44101	-25.22377	-23.59643	11.39138	12.20505	-23.59643	-22.78276	2.44101	-27.66478	-63.46626	-54.51589	-27.66478	0
295	0.81367	-41.49717	-34.98781	16.2734	14.64606	-36.61515	-25.22377	2.44101	-28.47845	-65.0936	-56.14323	-29.29212	0
296	0	-54.51589	-46.37919	20.34175	19.52808	-49.63387	-26.85111	0.81367	-32.5468	-69.16195	-60.21158	-32.5468	0
297	-1.62734	-57.77057	-49.63387	23.59643	21.15542	-53.70222	-26.85111	-0.81367	-36.61515	-74.85764	-64.27993	-37.42882	0
298	-4.88202	-52.88855	-45.56552	24.4101	17.08707	-48.00653	-24.4101	-4.06835	-39.86983	-78.92599	-66.72094	-40.6835	0
299	-6.50936	-43.93818	-41.49717	22.78276	12.20505	-39.86983	-21.15542	-7.32303	-43.12451	-78.11232	-65.90727	-41.49717	0
300	-5.69569	-36.61515	-39.05616	19.52808	10.57771	-34.17414	-17.90074	-10.57771	-46.37919	-73.2303	-63.46626	-40.6835	0
301	-1.62734	-30.91946	-36.61515	15.45973	13.01872	-30.91946	-17.90074	-13.83239	-49.63387	-66.72094	-60.21158	-39.86983	0
302	2.44101	-26.03744	-34.17414	10.57771	14.64606	-28.47845	-19.52808	-15.45973	-51.26121	-61.83892	-58.58424	-39.86983	0
303	4.88202	-24.4101	-33.36047	8.95037	14.64606	-27.66478	-22.78276	-14.64606	-52.07488	-59.39791	-58.58424	-39.86983	0
304	2.44101	-26.03744	-33.36047	9.76404	13.83239	-29.29212	-26.85111	-13.83239	-51.26121	-56.9569	-60.21158	-40.6835	0
305	-0.81367	-28.47845	-34.98781	12.20505	13.83239	-34.17414	-29.29212	-13.01872	-51.26121	-56.14323	-62.65259	-41.49717	0
306	-5.69569	-34.17414	-38.24249	17.08707	14.64606	-39.86983	-30.91946	-11.39138	-52.88855	-56.14323	-62.65259	-40.6835	0
307	-8.1367	-42.31084	-40.6835	22.78276	15.45973	-44.75185	-30.10579	-9.76404	-52.88855	-54.51589	-61.02525	-38.24249	0
308	-9.76404	-49.63387	-41.49717	28.47845	15.45973	-48.00653	-26.85111	-8.95037	-53.70222	-52.88855	-59.39791	-37.42882	0
309	-10.57771	-52.88855	-40.6835	32.5468	14.64606	-48.8202	-21.96909	-10.57771	-55.32956	-51.26121	-60.21158	-36.61515	0
310	-11.39138	-52.88855	-39.05616	34.17414	13.01872	-47.19286	-19.52808	-13.83239	-56.14323	-48.8202	-60.21158	-35.80148	0
311	-11.39138	-49.63387	-35.80148	32.5468	12.20505	-43.93818	-18.71441	-16.2734	-55.32956	-44.75185	-58.58424	-34.17414	0
312	-9.76404	-44.75185	-35.80148	28.47845	13.01872	-40.6835	-17.08707	-16.2734	-52.88855	-42.31084	-56.14323	-31.73313	0
313	-7.32303	-42.31084	-36.61515	24.4101	16.2734	-39.86983	-16.2734	-13.83239	-48.8202	-39.05616	-52.07488	-28.47845	0
314	-5.69569	-43.93818	-37.42882	23.59643	17.90074	-41.49717	-17.08707	-8.95037	-43.12451	-38.24249	-48.8202	-25.22377	0
315	-8.95037	-49.63387	-39.05616	25.22377	17.90074	-45.56552	-18.71441	-5.69569	-37.42882	-39.05616	-46.37919	-25.22377	0
316	-15.45973	-59.39791	-39.86983	30.10579	14.64606	-50.44754	-18.71441	-3.25468	-32.5468	-41.49717	-46.37919	-26.85111	0
317	-21.96909	-65.90727	-37.42882	35.80148	8.95037	-52.07488	-17.08707	-1.62734	-30.10579	-43.93818	-48.00653	-28.47845	0
318	-26.03744	-65.0936	-30.10579	40.6835	4.06835	-51.26121	-16.2734	-0.81367	-30.10579	-45.56552	-48.00653	-29.29212	0
319	-28.47845	-58.58424	-22.78276	40.6835	0.81367	-51.26121	-18.71441	-0.81367	-31.73313	-48.8202	-47.19286	-31.73313	0
320	-26.03744	-52.07488	-21.15542	37.42882	0	-49.63387	-22.78276	-1.62734	-33.36047	-52.88855	-45.56552	-34.98781	0
321	-21.96909	-49.63387	-25.22377	34.98781	3.25468	-48.8202	-26.85111	-3.25468	-32.5468	-57.77057	-45.56552	-37.42882	0
322	-17.90074	-50.44754	-30.91946	33.36047	6.50936	-48.00653	-26.85111	-3.25468	-30.10579	-58.58424	-45.56552	-38.24249	0
323	-15.45973	-50.44754	-35.80148	31.73313	10.57771	-46.37919	-23.59643	-0.81367	-27.66478	-56.9569	-44.75185	-39.86983	0
324	-13.01872	-50.44754	-38.24249	30.91946	12.20505	-44.75185	-17.90074	2.44101	-24.4101	-55.32956	-43.93818	-41.49717	0
325	-12.20505	-52.07488	-40.6835	31.73313	13.83239	-45.56552	-12.20505	7.32303	-21.96909	-53.70222	-42.31084	-42.31084	0
326	-13.01872	-53.70222	-39.86983	33.36047	12.20505	-45.56552	-8.95037	8.95037	-21.15542	-52.88855	-40.6835	-43.12451	0
327	-13.83239	-52.88855	-34.17414	35.80148	8.1367	-43.12451	-8.95037	8.1367	-19.52808	-52.07488	-41.49717	-43.12451	0
328	-13.83239	-52.07488	-30.91946	37.42882	4.06835	-41.49717	-11.39138	4.06835	-18.71441	-52.07488	-45.56552	-46.37919	0
329	-14.64606	-52.07488	-30.91946	39.86983	4.88202	-42.31084	-13.01872	-0.81367	-19.52808	-56.9569	-50.44754	-48.8202	0
330	-15.45973	-54.51589	-34.17414	41.49717	6.50936	-44.75185	-14.64606	-4.06835	-19.52808	-64.27993	-55.32956	-49.63387	0
331	-17.90074	-59.39791	-39.05616	43.12451	8.95037	-50.44754	-16.2734	-3.25468	-17.90074	-69.16195	-56.14323	-48.8202	0
332	-21.15542	-66.72094	-43.12451	46.37919	10.57771	-53.70222	-15.45973	0	-16.2734	-70.78929	-52.07488	-46.37919	0
333	-24.4101	-71.60296	-41.49717	48.8202	11.39138	-52.88855	-15.45973	3.25468	-13.83239	-69.97562	-43.93818	-42.31084	0
334	-27.66478	-72.41663	-37.42882	48.8202	8.95037	-48.8202	-15.45973	5.69569	-8.95037	-62.65259	-33.36047	-37.42882	-1500	QRS-0
335	-27.66478	-67.53461	-33.36047	46.37919	6.50936	-44.75185	-14.64606	8.95037	-3.25468	-53.70222	-25.22377	-34.17414	0
336	-19.52808	-60.21158	-33.36047	38.24249	7.32303	-44.75185	-15.45973	10.57771	-0.81367	-48.8202	-22.78276	-34.17414	0
337	-5.69569	-55.32956	-39.86983	30.10579	13.83239	-51.26121	-20.34175	5.69569	-4.88202	-49.63387	-26.85111	-35.80148	0
338	1.62734	-54.51589	-52.07488	26.85111	24.4101	-60.21158	-27.66478	-1.62734	-12.20505	-53.70222	-32.5468	-39.05616	0
339	1.62734	-56.14323	-63.46626	27.66478	30.91946	-65.0936	-32.5468	-8.1367	-17.08707	-56.9569	-35.80148	-40.6835	0
340	-1.62734	-58.58424	-71.60296	30.91946	30.10579	-65.0936	-31.73313	-9.76404	-17.90074	-56.14323	-35.80148	-39.05616	0
341	-4.88202	-61.83892	-73.2303	34.17414	27.66478	-64.27993	-26.85111	-8.1367	-15.45973	-52.88855	-33.36047	-36.61515	0
342	-6.50936	-64.27993	-71.60296	35.80148	26.85111	-64.27993	-21.96909	-4.06835	-13.01872	-48.8202	-29.29212	-33.36047	0
343	-6.50936	-65.90727	-68.34828	36.61515	29.29212	-64.27993	-19.52808	0	-10.57771	-45.56552	-25.22377	-30.91946	0
344	-4.88202	-65.0936	-63.46626	38.24249	32.5468	-61.83892	-17.90074	1.62734	-9.76404	-45.56552	-23.59643	-30.91946	0
345	-4.88202	-63.46626	-58.58424	39.05616	32.5468	-59.39791	-17.08707	3.25468	-9.76404	-46.37919	-22.78276	-31.73313	0
346	-8.1367	-63.46626	-53.70222	39.86983	29.29212	-57.77057	-14.64606	5.69569	-9.76404	-48.00653	-24.4101	-34.17414	0
347	-12.20505	-62.65259	-48.8202	39.86983	24.4101	-55.32956	-12.20505	7.32303	-9.76404	-48.8202	-25.22377	-35.80148	0
348	-16.2734	-61.83892	-41.49717	39.05616	19.52808	-50.44754	-9.76404	8.95037	-8.95037	-48.8202	-25.22377	-34.98781	0
349	-19.52808	-61.83892	-34.98781	37.42882	15.45973	-46.37919	-8.95037	10.57771	-8.1367	-50.44754	-22.78276	-34.17414	0
350	-18.71441	-61.02525	-37.42882	33.36047	16.2734	-46.37919	-9.76404	8.95037	-9.76404	-53.70222	-21.15542	-34.17414	0
351	-15.45973	-60.21158	-49.63387	27.66478	25.22377	-52.07488	-12.20505	5.69569	-13.01872	-57.77057	-20.34175	-33.36047	0
352	-12.20505	-63.46626	-61.83892	26.85111	33.36047	-61.02525	-13.83239	4.88202	-15.45973	-60.21158	-21.15542	-33.36047	0
353	-10.57771	-66.72094	-69.16195	30.10579	35.80148	-67.53461	-13.01872	5.69569	-17.90074	-60.21158	-20.34175	-33.36047	0
354	-9.76404	-69.16195	-69.97562	34.98781	33.36047	-69.97562	-9.76404	8.95037	-17.90074	-60.21158	-21.15542	-34.17414	0
355	-9.76404	-70.78929	-69.16195	39.05616	30.91946	-69.97562	-6.50936	13.01872	-16.2734	-60.21158	-21.15542	-33.36047	0
356	-10.57771	-72.41663	-66.72094	41.49717	28.47845	-69.97562	-4.06835	14.64606	-12.20505	-61.02525	-20.34175	-31.73313	0
357	-11.39138	-72.41663	-62.65259	43.12451	25.22377	-68.34828	-4.88202	14.64606	-10.57771	-61.02525	-20.34175	-31.73313	0
358	-13.01872	-70.78929	-56.9569	43.12451	20.34175	-64.27993	-8.1367	12.20505	-8.95037	-59.39791	-21.96909	-34.17414	0
359	-15.45973	-66.72094	-47.19286	40.6835	13.83239	-59.39791	-10.57771	11.39138	-5.69569	-56.9569	-22.78276	-35.80148	0
360	-16.2734	-61.83892	-35.80148	34.98781	7.32303	-53.70222	-8.95037	13.01872	0	-52.07488	-21.15542	-35.80148	0
361	-14.64606	-52.88855	-27.66478	28.47845	2.44101	-47.19286	-4.88202	15.45973	6.50936	-46.37919	-17.90074	-33.36047	0
362	-8.95037	-42.31084	-21.96909	21.15542	-0.81367	-37.42882	-1.62734	17.90074	13.01872	-39.86983	-13.83239	-30.91946	0
363	-6.50936	-32.5468	-13.83239	15.45973	-3.25468	-23.59643	0.81367	21.96909	21.96909	-33.36047	-7.32303	-26.85111	0
364	-8.1367	-23.59643	-4.06835	13.83239	-5.69569	-11.39138	4.88202	29.29212	34.17414	-23.59643	0	-21.15542	0
365	-13.83239	-16.2734	4.06835	13.83239	-10.57771	-2.44101	8.95037	38.24249	48.00653	-12.20505	6.50936	-14.64606	0
366	-22.78276	-12.20505	9.76404	16.2734	-17.90074	3.25468	13.01872	46.37919	60.21158	-3.25468	12.20505	-9.76404	0
367	-30.10579	-10.57771	8.95037	19.52808	-24.4101	4.88202	17.08707	51.26121	67.53461	2.44101	13.83239	-7.32303	0
368	-27.66478	-12.20505	3.25468	18.71441	-21.96909	0	18.71441	50.44754	69.16195	6.50936	13.01872	-7.32303	0
369	-13.83239	-14.64606	-6.50936	13.01872	-8.95037	-7.32303	17.08707	43.93818	65.0936	6.50936	7.32303	-11.39138	0
370	4.88202	-14.64606	-20.34175	8.1367	8.1367	-15.45973	13.01872	32.5468	58.58424	2.44101	0	-19.52808	0
371	21.15542	-13.83239	-31.73313	2.44101	22.78276	-21.15542	7.32303	23.59643	55.32956	0	-7.32303	-26.85111	0
372	33.36047	-12.20505	-36.61515	-1.62734	30.10579	-23.59643	2.44101	19.52808	54.51589	0	-10.57771	-29.29212	0
373	38.24249	-8.1367	-37.42882	-6.50936	33.36047	-21.96909	2.44101	21.15542	55.32956	5.69569	-8.95037	-27.66478	0
374	38.24249	-2.44101	-37.42882	-11.39138	35.80148	-18.71441	6.50936	27.66478	61.02525	15.45973	-4.88202	-22.78276	0
375	37.42882	1.62734	-35.80148	-14.64606	36.61515	-15.45973	11.39138	37.42882	69.97562	26.03744	0.81367	-17.08707	0
376	38.24249	4.06835	-31.73313	-16.2734	33.36047	-12.20505	16.2734	47.19286	78.11232	32.5468	5.69569	-12.20505	0
377	36.61515	6.50936	-25.22377	-17.08707	28.47845	-8.1367	21.15542	55.32956	82.99434	36.61515	9.76404	-9.76404	0
378	32.5468	12.20505	-17.08707	-20.34175	23.59643	-2.44101	22.78276	59.39791	85.43535	39.05616	13.83239	-7.32303	0
379	29.29212	19.52808	-9.76404	-24.4101	19.52808	4.06835	21.15542	59.39791	85.43535	41.49717	18.71441	-4.06835	0
380	28.47845	27.66478	-2.44101	-29.29212	15.45973	11.39138	15.45973	57.77057	86.24902	43.93818	23.59643	0	0
381	30.10579	38.24249	5.69569	-34.98781	12.20505	21.15542	7.32303	54.51589	85.43535	43.93818	26.85111	5.69569	0
382	33.36047	51.26121	14.64606	-42.31084	8.95037	32.5468	-4.88202	48.00653	82.18067	41.49717	27.66478	10.57771	0
383	39.05616	61.02525	20.34175	-49.63387	8.1367	40.6835	-21.15542	39.05616	77.29865	37.42882	28.47845	13.83239	0
384	43.93818	68.34828	21.96909	-56.14323	8.1367	45.56552	-39.05616	29.29212	69.97562	31.73313	30.10579	17.08707	0
385	48.8202	74.04397	22.78276	-61.02525	8.95037	49.63387	-54.51589	21.96909	66.72094	28.47845	34.17414	19.52808	0
386	52.07488	79.73966	26.03744	-65.90727	10.57771	53.70222	-64.27993	18.71441	66.72094	30.10579	39.86983	20.34175	0
387	55.32956	86.24902	29.29212	-71.60296	10.57771	58.58424	-69.16195	18.71441	67.53461	34.17414	44.75185	21.15542	0
388	56.9569	91.13104	32.5468	-74.85764	11.39138	61.83892	-70.78929	18.71441	66.72094	37.42882	46.37919	22.78276	0
389	56.9569	91.13104	32.5468	-75.67131	11.39138	61.02525	-69.16195	19.52808	65.0936	40.6835	47.19286	26.03744	0
390	54.51589	87.06269	29.29212	-72.41663	11.39138	57.77057	-65.90727	20.34175	63.46626	41.49717	48.00653	30.10579	0
391	50.44754	79.73966	27.66478	-66.72094	10.57771	52.88855	-61.83892	17.90074	61.83892	40.6835	48.8202	33.36047	0
392	46.37919	76.48498	28.47845	-62.65259	8.1367	52.07488	-57.77057	14.64606	61.02525	37.42882	48.00653	34.98781	0
393	43.12451	74.85764	29.29212	-60.21158	4.88202	52.07488	-53.70222	11.39138	59.39791	34.17414	48.00653	35.80148	0
394	40.6835	73.2303	28.47845	-56.14323	3.25468	49.63387	-48.8202	10.57771	56.9569	32.5468	48.8202	36.61515	0
395	36.61515	71.60296	24.4101	-50.44754	2.44101	43.93818	-43.12451	12.20505	56.9569	31.73313	49.63387	37.42882	0
396	31.73313	66.72094	21.96909	-43.12451	2.44101	39.05616	-38.24249	16.2734	57.77057	31.73313	50.44754	39.86983	0
397	26.85111	58.58424	20.34175	-37.42882	1.62734	36.61515	-34.17414	21.96909	58.58424	31.73313	52.07488	43.12451	0
398	19.52808	49.63387	16.2734	-30.91946	2.44101	34.17414	-30.10579	28.47845	59.39791	33.36047	53.70222	44.75185	0
399	16.2734	41.49717	11.39138	-26.85111	4.06835	30.10579	-29.29212	31.73313	60.21158	34.98781	54.51589	45.56552	0
400	17.90074	36.61515	5.69569	-27.66478	8.95037	25.22377	-30.91946	30.10579	56.9569	34.98781	52.88855	42.31084	0
401	21.96909	33.36047	-4.06835	-32.5468	18.71441	17.08707	-32.5468	26.85111	50.44754	34.17414	49.63387	37.42882	0
402	26.85111	27.66478	-14.64606	-34.98781	27.66478	7.32303	-33.36047	22.78276	46.37919	33.36047	44.75185	32.5468	0
403	30.10579	21.15542	-21.15542	-32.5468	31.73313	0.81367	-30.10579	17.90074	45.56552	34.17414	40.6835	28.47845	0
404	28.47845	15.45973	-22.78276	-26.85111	32.5468	-3.25468	-24.4101	14.64606	47.19286	33.36047	36.61515	24.4101	0
405	25.22377	9.76404	-25.22377	-22.78276	32.5468	-8.95037	-21.15542	10.57771	46.37919	30.91946	32.5468	18.71441	0
406	21.96909	3.25468	-30.10579	-16.2734	32.5468	-16.2734	-18.71441	4.88202	43.12451	27.66478	26.03744	10.57771	0
407	19.52808	-5.69569	-36.61515	-7.32303	32.5468	-23.59643	-15.45973	0	38.24249	22.78276	17.90074	2.44101	0
408	16.2734	-17.08707	-40.6835	1.62734	30.91946	-30.91946	-11.39138	-4.06835	31.73313	17.08707	9.76404	-6.50936	0
409	9.76404	-28.47845	-43.12451	11.39138	26.85111	-37.42882	-7.32303	-8.1367	25.22377	12.20505	1.62734	-15.45973	0
410	0.81367	-39.86983	-43.12451	20.34175	22.78276	-42.31084	-5.69569	-8.95037	19.52808	8.1367	-4.06835	-23.59643	0
411	-7.32303	-48.8202	-41.49717	29.29212	17.08707	-46.37919	-4.88202	-8.95037	18.71441	7.32303	-8.1367	-30.10579	0
412	-17.08707	-58.58424	-40.6835	37.42882	12.20505	-49.63387	-3.25468	-8.95037	20.34175	8.95037	-8.95037	-33.36047	0
413	-26.85111	-69.97562	-43.12451	45.56552	8.1367	-56.14323	0	-8.1367	21.96909	12.20505	-7.32303	-34.98781	0
414	-30.10579	-81.367	-48.8202	48.00653	10.57771	-65.90727	2.44101	-8.1367	24.4101	13.83239	-5.69569	-34.98781	0
415	-25.22377	-91.13104	-56.14323	48.00653	20.34175	-77.29865	4.06835	-7.32303	26.85111	13.01872	-5.69569	-36.61515	0
416	-14.64606	-95.19939	-67.53461	46.37919	32.5468	-87.06269	4.06835	-5.69569	27.66478	9.76404	-7.32303	-39.05616	0
417	-6.50936	-93.57205	-75.67131	44.75185	39.05616	-89.5037	5.69569	-4.06835	24.4101	4.06835	-12.20505	-42.31084	0
418	-4.06835	-90.31737	-77.29865	42.31084	37.42882	-87.06269	8.1367	-4.06835	19.52808	-2.44101	-17.08707	-45.56552	0
419	-4.88202	-87.06269	-76.48498	39.86983	31.73313	-83.80801	12.20505	-4.88202	14.64606	-9.76404	-21.96909	-48.00653	0
420	-8.1367	-85.43535	-73.2303	39.86983	26.03744	-80.55333	14.64606	-4.06835	11.39138	-15.45973	-23.59643	-48.8202	0
421	-14.64606	-85.43535	-69.16195	44.75185	21.15542	-77.29865	16.2734	-3.25468	9.76404	-17.08707	-22.78276	-48.00653	0
422	-21.15542	-86.24902	-65.0936	50.44754	17.90074	-75.67131	17.90074	-2.44101	10.57771	-16.2734	-19.52808	-45.56552	0
423	-26.03744	-86.24902	-63.46626	55.32956	16.2734	-73.2303	21.15542	0	13.83239	-14.64606	-16.2734	-43.12451	0
424	-28.47845	-85.43535	-63.46626	59.39791	15.45973	-72.41663	25.22377	1.62734	18.71441	-15.45973	-13.83239	-39.86983	0
425	-28.47845	-88.69003	-65.90727	63.46626	17.08707	-74.04397	27.66478	4.06835	23.59643	-17.90074	-13.83239	-38.24249	0
426	-28.47845	-91.13104	-69.16195	63.46626	19.52808	-77.29865	29.29212	5.69569	26.03744	-21.96909	-16.2734	-39.05616	0
427	-28.47845	-92.75838	-69.16195	61.83892	20.34175	-78.92599	30.91946	7.32303	26.85111	-25.22377	-19.52808	-40.6835	0
428	-30.10579	-93.57205	-67.53461	62.65259	18.71441	-78.11232	34.17414	8.95037	25.22377	-26.03744	-21.15542	-41.49717	0
429	-33.36047	-92.75838	-65.90727	65.0936	15.45973	-74.85764	36.61515	8.95037	23.59643	-24.4101	-20.34175	-42.31084	0
430	-35.80148	-92.75838	-62.65259	67.53461	12.20505	-71.60296	38.24249	9.76404	21.96909	-21.15542	-18.71441	-42.31084	0
431	-37.42882	-95.19939	-62.65259	68.34828	11.39138	-74.04397	37.42882	8.95037	17.90074	-19.52808	-19.52808	-44.75185	0
432	-36.61515	-100.89508	-68.34828	69.97562	14.64606	-81.367	34.17414	5.69569	13.01872	-20.34175	-21.96909	-48.8202	0
433	-34.98781	-109.03178	-76.48498	72.41663	20.34175	-91.13104	31.73313	4.06835	9.76404	-23.59643	-26.85111	-52.88855	0
434	-34.98781	-117.98215	-85.43535	75.67131	25.22377	-100.89508	31.73313	4.88202	7.32303	-29.29212	-34.17414	-57.77057	0
435	-34.98781	-127.74619	-96.82673	80.55333	31.73313	-111.47279	34.17414	8.1367	4.06835	-39.05616	-43.93818	-65.0936	0
436	-34.17414	-138.3239	-110.65912	86.24902	40.6835	-123.67784	38.24249	13.01872	0	-55.32956	-58.58424	-76.48498	0
437	-33.36047	-152.96996	-126.11885	92.75838	48.8202	-139.13757	43.93818	17.90074	-8.1367	-78.11232	-76.48498	-91.94471	0
438	-30.10579	-170.05703	-140.76491	98.45407	55.32956	-155.41097	49.63387	19.52808	-21.15542	-103.33609	-97.6404	-109.03178	0
439	-27.66478	-181.44841	-152.15629	102.52242	59.39791	-167.61602	57.77057	21.15542	-35.80148	-126.93252	-118.79582	-123.67784	0
440	-26.85111	-183.88942	-154.5973	103.33609	61.02525	-170.05703	69.16195	17.90074	-54.51589	-147.27427	-138.3239	-134.25555	0
441	-25.22377	-173.31171	-145.64693	96.82673	56.9569	-159.47932	79.73966	-0.81367	-78.92599	-161.92033	-151.34262	-141.57858	0
442	-22.78276	-146.4606	-122.0505	82.99434	47.19286	-134.25555	84.62168	-43.12451	-113.10013	-170.8707	-157.85198	-140.76491	0
443	-21.96909	-107.40444	-86.24902	63.46626	30.91946	-96.82673	80.55333	-117.16848	-168.42969	-183.88942	-160.29299	-131.81454	0
444	-23.59643	-63.46626	-41.49717	43.12451	8.1367	-52.07488	65.0936	-235.9643	-261.18807	-211.5542	-163.54767	-118.79582	0
445	-27.66478	-17.90074	9.76404	22.78276	-19.52808	-2.44101	34.98781	-399.51197	-392.18894	-260.3744	-165.98868	-105.7771	0
446	-32.5468	32.5468	68.34828	1.62734	-52.88855	52.07488	-6.50936	-593.16543	-549.22725	-320.58598	-167.61602	-90.31737	0
447	-36.61515	89.5037	132.62821	-23.59643	-87.87636	111.47279	-61.83892	-801.46495	-719.28428	-382.4249	-166.80235	-66.72094	0
448	-36.61515	152.15629	194.46713	-55.32956	-119.60949	173.31171	-135.88289	-1015.46016	-890.96865	-438.56813	-159.47932	-28.47845	0
449	-30.10579	222.94558	255.49238	-94.38572	-143.20592	238.40531	-233.52329	-1227.01436	-1055.32999	-481.69264	-135.88289	27.66478	0
450	-14.64606	305.12625	321.39965	-144.01959	-161.92033	312.44928	-349.8781	-1424.73617	-1201.79059	-509.35742	-92.75838	105.7771	0
451	10.57771	400.32564	388.12059	-205.85851	-178.19373	393.81628	-475.99695	-1603.74357	-1327.90944	-519.12146	-33.36047	197.72181	0
452	57.77057	501.22072	442.63648	-280.71615	-183.07575	471.9286	-606.18415	-1770.54592	-1438.56856	-518.30779	32.5468	294.54854	0
453	118.79582	603.74314	483.31998	-362.08315	-175.75272	543.53156	-737.18502	-1934.90726	-1543.53199	-510.17109	100.89508	388.93426	0
454	170.8707	707.07923	533.76752	-439.3818	-178.19373	620.83021	-861.67653	-2078.92685	-1645.24074	-493.08402	170.05703	480.0653	0
455	201.79016	796.58293	593.16543	-506.10274	-195.2808	696.50152	-961.75794	-2183.89028	-1729.04875	-460.53722	241.65999	564.68698	0
456	214.80888	847.84414	631.40792	-551.66826	-209.11319	740.4397	-1025.2242	-2249.79755	-1767.29124	-406.835	311.63561	633.84893	0
457	217.24989	857.60818	641.17196	-564.68698	-213.18154	750.20374	-1052.88898	-2256.30691	-1735.55811	-344.99608	371.84719	678.60078	0
458	207.48585	831.57074	624.89856	-541.90422	-210.74053	728.23465	-1050.44797	-2189.58597	-1646.86808	-300.24423	402.76665	685.11014	0
459	187.1441	770.54549	583.40139	-493.08402	-200.16282	676.15977	-1021.15585	-2074.8585	-1541.09098	-277.46147	384.86591	641.17196	0
460	155.41097	682.66913	525.63082	-426.36308	-186.33043	603.74314	-973.14932	-1941.41662	-1452.40095	-287.22551	309.1946	545.97257	0
461	113.10013	578.51937	463.7919	-349.06443	-176.56639	520.7488	-912.12407	-1804.72006	-1393.81671	-341.7414	187.1441	410.90335	0
462	60.21158	470.30126	408.46234	-265.25642	-174.93905	438.56813	-840.52111	-1666.39616	-1353.13321	-428.80409	36.61515	250.61036	0
463	1.62734	366.1515	362.08315	-183.07575	-179.82107	364.52416	-758.34044	-1521.5629	-1307.56769	-524.00348	-119.60949	81.367	0
464	-50.44754	275.83413	324.65433	-111.47279	-184.70309	301.0579	-669.65041	-1366.15193	-1239.21941	-598.86112	-257.11972	-70.78929	0
465	-89.5037	205.04484	292.9212	-56.9569	-187.1441	249.79669	-583.40139	-1204.2316	-1137.51066	-628.96691	-349.06443	-182.26208	0
466	-111.47279	156.22464	264.44275	-20.34175	-185.51676	210.74053	-500.40705	-1036.61558	-1004.88245	-606.99782	-384.05224	-240.84632	0
467	-119.60949	122.0505	235.9643	0.81367	-176.56639	176.56639	-420.66739	-864.93121	-852.72616	-541.90422	-369.40618	-252.2377	0
468	-114.72747	98.45407	206.67218	10.57771	-161.10666	148.90161	-344.99608	-701.38354	-696.50152	-453.21419	-323.84066	-232.70962	0
469	-103.33609	85.43535	183.07575	11.39138	-144.01959	130.1872	-279.08881	-557.36395	-554.10927	-362.08315	-265.25642	-198.53548	0
470	-91.94471	78.92599	165.98868	7.32303	-130.1872	119.60949	-227.01393	-440.19547	-434.49978	-280.71615	-209.11319	-162.734	0
471	-82.18067	74.85764	153.78363	3.25468	-119.60949	113.10013	-185.51676	-348.25076	-337.67305	-213.18154	-161.92033	-131.81454	0
472	-73.2303	69.97562	140.76491	0.81367	-108.21811	104.96343	-151.34262	-275.83413	-260.3744	-160.29299	-124.49151	-109.03178	0
473	-62.65259	58.58424	120.42316	0.81367	-92.75838	90.31737	-122.0505	-215.62255	-199.34915	-120.42316	-99.26774	-93.57205	0
474	-54.51589	39.05616	91.94471	6.50936	-73.2303	66.72094	-96.01306	-164.36134	-149.71528	-91.13104	-83.80801	-85.43535	0
475	-48.00653	14.64606	60.21158	16.2734	-54.51589	39.05616	-69.97562	-117.98215	-105.7771	-69.16195	-74.04397	-81.367	0
476	-43.93818	-5.69569	30.91946	26.85111	-37.42882	15.45973	-45.56552	-74.85764	-67.53461	-50.44754	-66.72094	-78.11232	0
477	-39.05616	-23.59643	8.1367	35.80148	-24.4101	-4.06835	-21.96909	-34.98781	-33.36047	-32.5468	-59.39791	-74.04397	0
478	-34.17414	-38.24249	-9.76404	43.93818	-13.01872	-21.96909	-2.44101	0	-4.88202	-15.45973	-52.88855	-69.97562	0
479	-30.91946	-52.07488	-25.22377	49.63387	-4.06835	-38.24249	15.45973	29.29212	18.71441	0	-46.37919	-65.90727	0
480	-29.29212	-69.97562	-43.12451	55.32956	4.88202	-56.14323	33.36047	56.9569	42.31084	15.45973	-38.24249	-61.02525	0
481	-30.10579	-90.31737	-62.65259	63.46626	14.64606	-76.48498	49.63387	80.55333	63.46626	30.91946	-29.29212	-56.9569	0
482	-32.5468	-109.84545	-78.92599	71.60296	21.15542	-94.38572	63.46626	100.89508	83.80801	43.93818	-21.15542	-52.88855	0
483	-34.17414	-123.67784	-89.5037	78.11232	24.4101	-106.59077	73.2303	117.98215	101.70875	52.07488	-15.45973	-49.63387	0
484	-34.98781	-130.1872	-96.01306	81.367	26.03744	-113.10013	80.55333	133.44188	118.79582	56.14323	-12.20505	-47.19286	0
485	-35.80148	-131.81454	-96.82673	82.99434	26.03744	-113.10013	84.62168	145.64693	135.06922	56.14323	-12.20505	-48.00653	0
486	-35.80148	-129.37353	-91.94471	82.99434	24.4101	-109.84545	87.06269	156.22464	148.90161	52.88855	-15.45973	-49.63387	0
487	-36.61515	-126.11885	-87.06269	82.18067	21.15542	-105.7771	90.31737	164.36134	160.29299	46.37919	-18.71441	-52.07488	0
488	-37.42882	-124.49151	-87.06269	81.367	20.34175	-104.14976	93.57205	170.8707	168.42969	40.6835	-21.96909	-54.51589	0
489	-37.42882	-123.67784	-89.5037	81.367	21.15542	-104.96343	96.01306	176.56639	174.93905	38.24249	-21.96909	-54.51589	0
490	-35.80148	-125.30518	-94.38572	80.55333	25.22377	-109.03178	99.26774	181.44841	179.82107	40.6835	-19.52808	-53.70222	0
491	-30.91946	-127.74619	-101.70875	78.92599	32.5468	-113.9138	103.33609	183.88942	181.44841	45.56552	-17.90074	-52.07488	0
492	-26.85111	-130.1872	-109.03178	76.48498	40.6835	-119.60949	108.21811	185.51676	182.26208	52.88855	-15.45973	-50.44754	0
493	-22.78276	-131.00087	-113.9138	74.85764	47.19286	-122.0505	113.9138	188.77144	183.88942	63.46626	-12.20505	-48.8202	0
494	-19.52808	-130.1872	-116.35481	75.67131	52.07488	-122.0505	119.60949	193.65346	184.70309	73.2303	-9.76404	-47.19286	0
495	-16.2734	-130.1872	-117.16848	76.48498	53.70222	-122.86417	122.0505	197.72181	185.51676	81.367	-9.76404	-46.37919	0
496	-15.45973	-132.62821	-118.79582	77.29865	53.70222	-125.30518	122.86417	198.53548	183.88942	87.06269	-12.20505	-46.37919	0
497	-15.45973	-133.44188	-118.79582	76.48498	52.07488	-125.30518	122.86417	197.72181	180.63474	91.13104	-13.83239	-46.37919	0
498	-17.90074	-133.44188	-116.35481	74.04397	50.44754	-125.30518	123.67784	196.09447	177.38006	96.82673	-14.64606	-47.19286	0
499	-21.15542	-134.25555	-112.28646	72.41663	47.19286	-126.11885	126.11885	195.2808	174.12538	102.52242	-15.45973	-48.00653	0
500	-25.22377	-135.88289	-107.40444	74.04397	43.93818	-124.49151	128.55986	196.09447	171.68437	107.40444	-15.45973	-48.8202	0
501	-30.10579	-135.88289	-101.70875	77.29865	38.24249	-121.23683	130.1872	196.90814	170.8707	111.47279	-17.08707	-49.63387	0
502	-33.36047	-134.25555	-98.45407	80.55333	34.17414	-117.98215	131.00087	198.53548	173.31171	113.9138	-17.90074	-50.44754	0
503	-34.17414	-131.81454	-95.19939	82.18067	30.10579	-113.9138	131.81454	202.60383	178.19373	115.54114	-17.90074	-52.07488	0
504	-32.5468	-128.55986	-92.75838	81.367	28.47845	-110.65912	132.62821	208.29952	183.07575	113.10013	-17.90074	-52.07488	0
505	-31.73313	-127.74619	-93.57205	81.367	28.47845	-109.84545	134.25555	214.80888	187.95777	108.21811	-17.08707	-51.26121	0
506	-32.5468	-128.55986	-94.38572	82.18067	30.10579	-110.65912	135.88289	221.31824	189.58511	101.70875	-17.90074	-51.26121	0
507	-34.17414	-131.00087	-95.19939	83.80801	34.17414	-112.28646	136.69656	227.01393	190.39878	96.01306	-17.90074	-51.26121	0
508	-31.73313	-131.00087	-96.82673	81.367	39.05616	-113.9138	135.88289	231.89595	190.39878	92.75838	-15.45973	-50.44754	0
509	-26.03744	-126.93252	-99.26774	75.67131	43.93818	-114.72747	134.25555	236.77797	189.58511	91.13104	-13.01872	-48.00653	0
510	-22.78276	-122.0505	-100.08141	69.97562	46.37919	-113.9138	135.06922	240.84632	192.02612	91.94471	-8.1367	-43.93818	0
511	-21.96909	-117.16848	-97.6404	66.72094	46.37919	-109.03178	137.51023	245.72834	196.09447	93.57205	-3.25468	-40.6835	0
512	-23.59643	-113.9138	-93.57205	65.90727	42.31084	-104.96343	142.39225	251.42403	201.79016	97.6404	1.62734	-37.42882	0
513	-26.03744	-113.10013	-90.31737	69.16195	34.98781	-101.70875	145.64693	258.74706	209.92686	103.33609	7.32303	-33.36047	0
514	-27.66478	-112.28646	-87.06269	74.85764	29.29212	-99.26774	146.4606	266.07009	218.87723	109.84545	12.20505	-30.10579	0
515	-29.29212	-113.9138	-84.62168	79.73966	26.03744	-98.45407	146.4606	270.95211	227.01393	115.54114	13.01872	-29.29212	0
516	-29.29212	-117.16848	-84.62168	81.367	25.22377	-100.08141	145.64693	273.39312	231.08228	118.79582	11.39138	-30.91946	0
517	-27.66478	-119.60949	-87.87636	79.73966	26.85111	-103.33609	144.83326	274.20679	231.89595	118.79582	7.32303	-32.5468	0
518	-26.03744	-121.23683	-89.5037	75.67131	27.66478	-104.14976	146.4606	275.02046	232.70962	120.42316	5.69569	-33.36047	0
519	-26.03744	-122.0505	-83.80801	72.41663	24.4101	-100.08141	148.90161	278.27514	235.9643	123.67784	6.50936	-32.5468	0
520	-27.66478	-120.42316	-74.04397	72.41663	16.2734	-92.75838	152.15629	281.52982	242.47366	128.55986	9.76404	-30.10579	0
521	-30.91946	-117.98215	-68.34828	74.85764	11.39138	-89.5037	155.41097	283.97083	250.61036	134.25555	12.20505	-26.85111	0
522	-30.91946	-117.98215	-73.2303	74.85764	15.45973	-92.75838	156.22464	285.59817	256.30605	139.13757	13.83239	-22.78276	0
523	-26.85111	-119.60949	-84.62168	72.41663	24.4101	-100.08141	156.22464	288.03918	258.74706	142.39225	15.45973	-19.52808	0
524	-21.96909	-121.23683	-93.57205	68.34828	30.91946	-106.59077	157.03831	292.10753	258.74706	147.27427	17.08707	-18.71441	0
525	-18.71441	-121.23683	-97.6404	65.0936	34.98781	-109.03178	157.03831	296.98955	257.11972	150.52895	17.90074	-19.52808	0
526	-13.83239	-119.60949	-102.52242	61.83892	40.6835	-110.65912	155.41097	299.43056	253.05137	151.34262	15.45973	-22.78276	0
527	-5.69569	-117.16848	-109.03178	58.58424	48.8202	-113.10013	151.34262	299.43056	247.35568	149.71528	11.39138	-26.85111	0
528	1.62734	-115.54114	-113.9138	55.32956	56.14323	-113.9138	147.27427	296.98955	244.101	148.90161	7.32303	-31.73313	0
529	7.32303	-113.9138	-114.72747	52.88855	59.39791	-111.47279	144.01959	295.36221	242.47366	148.90161	4.06835	-33.36047	0
530	11.39138	-110.65912	-113.10013	50.44754	61.02525	-107.40444	141.57858	293.73487	244.101	150.52895	4.06835	-33.36047	0
531	10.57771	-104.96343	-109.84545	47.19286	59.39791	-103.33609	139.13757	296.17588	249.79669	155.41097	8.1367	-30.10579	0
532	7.32303	-100.08141	-103.33609	45.56552	55.32956	-99.26774	139.13757	302.68524	259.56073	161.92033	14.64606	-25.22377	0
533	0.81367	-94.38572	-92.75838	47.19286	48.8202	-94.38572	142.39225	314.89029	270.13844	167.61602	21.96909	-19.52808	0
534	-5.69569	-87.87636	-82.99434	49.63387	40.6835	-90.31737	148.08794	328.72268	281.52982	172.49804	27.66478	-13.01872	0
535	-11.39138	-83.80801	-75.67131	52.07488	32.5468	-86.24902	155.41097	342.55507	292.9212	174.93905	33.36047	-7.32303	0
536	-14.64606	-82.18067	-69.97562	52.88855	28.47845	-81.367	161.10666	353.94645	301.87157	175.75272	36.61515	-4.88202	0
537	-14.64606	-80.55333	-68.34828	51.26121	28.47845	-77.29865	165.17501	361.26948	307.56726	175.75272	38.24249	-3.25468	0
538	-9.76404	-79.73966	-72.41663	45.56552	31.73313	-74.85764	167.61602	365.33783	309.1946	175.75272	39.86983	-3.25468	0
539	-1.62734	-80.55333	-78.92599	39.05616	36.61515	-74.85764	168.42969	369.40618	310.00827	175.75272	42.31084	-2.44101	0
540	4.06835	-81.367	-85.43535	34.17414	43.12451	-78.11232	168.42969	373.47453	311.63561	176.56639	46.37919	-1.62734	0
541	10.57771	-82.18067	-91.13104	31.73313	48.8202	-82.18067	168.42969	377.54288	316.51763	179.0074	49.63387	0	0
542	15.45973	-82.18067	-96.82673	30.10579	54.51589	-86.24902	167.61602	381.61123	323.02699	182.26208	52.88855	0.81367	0
543	14.64606	-84.62168	-100.08141	30.10579	56.9569	-90.31737	166.80235	386.49325	330.35002	188.77144	56.14323	2.44101	0
544	10.57771	-88.69003	-100.08141	29.29212	54.51589	-93.57205	169.24336	393.81628	340.11406	196.90814	60.21158	4.88202	0
545	7.32303	-89.5037	-96.01306	29.29212	50.44754	-91.94471	173.31171	404.39399	351.50544	205.04484	64.27993	8.1367	0
546	6.50936	-82.99434	-88.69003	29.29212	45.56552	-85.43535	178.19373	416.59904	362.08315	210.74053	67.53461	12.20505	0
547	5.69569	-73.2303	-77.29865	28.47845	41.49717	-74.85764	184.70309	427.17675	368.59251	213.99521	69.97562	16.2734	0
548	4.06835	-64.27993	-65.0936	26.03744	39.05616	-65.90727	189.58511	436.94079	373.47453	217.24989	73.2303	20.34175	0
549	4.88202	-56.9569	-56.9569	20.34175	39.05616	-61.02525	192.83979	444.26382	378.35655	220.50457	75.67131	21.96909	0
550	5.69569	-51.26121	-55.32956	13.83239	39.86983	-58.58424	193.65346	448.33217	384.86591	223.75925	78.11232	22.78276	0
551	8.1367	-46.37919	-56.14323	9.76404	39.86983	-55.32956	194.46713	451.58685	390.5616	227.01393	81.367	23.59643	0
552	8.95037	-42.31084	-55.32956	9.76404	37.42882	-51.26121	196.09447	458.09621	397.88463	232.70962	87.06269	26.85111	0
553	6.50936	-40.6835	-52.07488	11.39138	31.73313	-47.19286	199.34915	469.48759	409.27601	240.84632	95.19939	32.5468	0
554	4.06835	-41.49717	-48.8202	12.20505	26.85111	-44.75185	204.23117	483.31998	422.29473	249.79669	104.96343	40.6835	0
555	0.81367	-42.31084	-46.37919	14.64606	22.78276	-43.12451	206.67218	497.15237	436.94079	259.56073	113.9138	48.8202	0
556	-0.81367	-39.05616	-39.86983	15.45973	17.90074	-39.05616	209.92686	509.35742	450.77318	267.69743	120.42316	55.32956	0
557	-4.06835	-32.5468	-27.66478	15.45973	13.01872	-29.29212	214.80888	519.12146	462.16456	274.20679	126.11885	61.02525	0
558	-9.76404	-25.22377	-13.83239	15.45973	8.95037	-18.71441	218.87723	525.63082	470.30126	279.90248	131.00087	64.27993	0
559	-12.20505	-20.34175	-4.06835	13.83239	6.50936	-10.57771	221.31824	528.07183	475.18328	282.34349	133.44188	65.0936	0
560	-5.69569	-16.2734	-5.69569	8.1367	8.1367	-8.95037	222.94558	528.07183	479.25163	281.52982	132.62821	62.65259	0
561	4.88202	-12.20505	-14.64606	0.81367	15.45973	-11.39138	221.31824	528.8855	481.69264	282.34349	129.37353	61.83892	0
562	16.2734	-6.50936	-22.78276	-7.32303	22.78276	-13.01872	219.6909	532.95385	484.94732	283.15716	129.37353	61.83892	0
563	26.03744	2.44101	-23.59643	-16.2734	25.22377	-8.95037	220.50457	541.09055	490.64301	286.41184	134.25555	64.27993	0
564	32.5468	11.39138	-20.34175	-23.59643	26.03744	-2.44101	222.94558	550.04092	497.96604	290.48019	140.76491	67.53461	0
565	34.98781	18.71441	-16.2734	-27.66478	24.4101	1.62734	226.20026	558.17762	503.66173	293.73487	146.4606	71.60296	0
566	31.73313	22.78276	-8.95037	-27.66478	18.71441	7.32303	228.64127	565.50065	506.91641	294.54854	149.71528	74.85764	0
567	22.78276	26.85111	2.44101	-25.22377	8.1367	14.64606	231.08228	571.19634	508.54375	295.36221	153.78363	78.92599	0
568	12.20505	33.36047	18.71441	-23.59643	-4.06835	25.22377	233.52329	573.63735	509.35742	296.17588	157.03831	82.99434	0
569	4.06835	42.31084	34.17414	-24.4101	-15.45973	37.42882	235.9643	572.82368	510.98476	296.98955	160.29299	87.87636	0
570	0	50.44754	45.56552	-26.03744	-23.59643	47.19286	236.77797	569.569	512.6121	295.36221	164.36134	92.75838	0
571	-2.44101	56.9569	55.32956	-28.47845	-29.29212	55.32956	235.9643	565.50065	511.79843	292.9212	167.61602	96.01306	0
572	-3.25468	64.27993	62.65259	-31.73313	-32.5468	62.65259	233.52329	561.4323	510.17109	291.29386	170.05703	99.26774	0
573	-0.81367	71.60296	64.27993	-36.61515	-30.91946	66.72094	229.45494	556.55028	506.91641	290.48019	170.8707	101.70875	0
574	3.25468	78.11232	61.02525	-40.6835	-26.03744	66.72094	225.38659	551.66826	502.03439	290.48019	170.05703	104.14976	0
575	8.95037	80.55333	56.14323	-43.93818	-21.15542	65.0936	221.31824	545.1589	495.52503	289.66652	168.42969	104.96343	0
576	16.2734	79.73966	47.19286	-48.8202	-11.39138	60.21158	213.99521	537.0222	486.57466	286.41184	165.98868	103.33609	0
577	22.78276	79.73966	35.80148	-57.77057	0	56.14323	204.23117	525.63082	474.36961	279.90248	160.29299	100.08141	0
578	26.85111	83.80801	34.17414	-64.27993	4.88202	57.77057	194.46713	512.6121	462.16456	271.76578	155.41097	98.45407	0
579	26.85111	91.13104	46.37919	-66.72094	-2.44101	65.90727	187.95777	501.22072	451.58685	265.25642	153.78363	99.26774	0
580	22.78276	99.26774	65.90727	-65.90727	-17.90074	76.48498	186.33043	493.08402	445.07749	262.81541	157.03831	104.14976	0
581	17.08707	108.21811	87.06269	-64.27993	-34.98781	90.31737	187.95777	486.57466	440.19547	263.62908	164.36134	112.28646	0
582	13.83239	115.54114	106.59077	-64.27993	-48.8202	103.33609	189.58511	480.87897	436.94079	266.07009	173.31171	121.23683	0
583	12.20505	118.79582	120.42316	-64.27993	-58.58424	109.84545	187.95777	471.9286	432.05877	267.69743	179.0074	127.74619	0
584	13.01872	119.60949	126.93252	-64.27993	-63.46626	113.10013	183.88942	459.72355	425.54941	267.69743	180.63474	131.81454	0
585	13.83239	123.67784	131.81454	-64.27993	-64.27993	119.60949	179.0074	447.5185	418.22638	264.44275	181.44841	134.25555	0
586	13.01872	131.81454	136.69656	-67.53461	-61.02525	130.1872	173.31171	434.49978	409.27601	258.74706	182.26208	135.06922	0
587	13.83239	140.76491	138.3239	-74.04397	-58.58424	137.51023	162.734	418.22638	395.44362	248.98302	179.0074	135.06922	0
588	21.96909	146.4606	132.62821	-80.55333	-56.14323	139.95124	148.90161	396.25729	375.10187	234.33696	171.68437	133.44188	0
589	29.29212	149.71528	126.11885	-83.80801	-50.44754	140.76491	134.25555	371.03352	350.69177	218.06356	162.734	131.81454	0
590	34.17414	152.96996	126.93252	-85.43535	-47.19286	143.20592	122.0505	347.43709	327.90901	204.23117	156.22464	131.00087	0
591	37.42882	155.41097	131.81454	-87.06269	-49.63387	146.4606	112.28646	326.28167	308.38093	193.65346	151.34262	131.00087	0
592	40.6835	158.66565	133.44188	-92.75838	-49.63387	148.08794	102.52242	305.12625	288.03918	183.88942	148.08794	131.00087	0
593	46.37919	161.92033	129.37353	-100.89508	-43.12451	146.4606	91.94471	283.15716	267.69743	172.49804	144.01959	130.1872	0
594	53.70222	166.80235	126.93252	-109.84545	-34.98781	144.01959	80.55333	260.3744	248.98302	162.734	139.95124	128.55986	0
595	59.39791	172.49804	124.49151	-117.16848	-28.47845	144.01959	68.34828	238.40531	231.08228	152.96996	135.88289	126.11885	0
596	62.65259	179.0074	123.67784	-122.0505	-26.85111	147.27427	54.51589	216.43622	212.36787	140.76491	130.1872	123.67784	0
597	61.02525	183.88942	126.93252	-123.67784	-30.91946	152.96996	40.6835	193.65346	192.83979	128.55986	124.49151	121.23683	0
598	56.14323	187.1441	133.44188	-123.67784	-37.42882	157.85198	29.29212	170.8707	174.12538	117.16848	118.79582	120.42316	0
599	50.44754	187.1441	139.95124	-121.23683	-44.75185	160.29299	20.34175	148.90161	154.5973	106.59077	115.54114	120.42316	0
600	45.56552	185.51676	143.20592	-118.79582	-50.44754	161.10666	13.83239	126.93252	134.25555	96.01306	112.28646	121.23683	0
601	43.12451	183.88942	146.4606	-114.72747	-54.51589	162.734	9.76404	104.14976	113.9138	86.24902	109.03178	122.0505	0
602	43.12451	183.07575	147.27427	-112.28646	-56.14323	164.36134	4.88202	81.367	93.57205	74.85764	104.96343	122.0505	0
603	44.75185	182.26208	145.64693	-111.47279	-54.51589	162.734	-1.62734	57.77057	71.60296	61.83892	97.6404	120.42316	0
604	45.56552	179.82107	145.64693	-111.47279	-54.51589	159.47932	-8.1367	34.98781	50.44754	48.00653	89.5037	115.54114	0
605	42.31084	176.56639	144.83326	-108.21811	-55.32956	156.22464	-15.45973	15.45973	32.5468	34.98781	82.18067	111.47279	0
606	34.17414	170.8707	144.01959	-102.52242	-57.77057	152.96996	-22.78276	-0.81367	15.45973	21.96909	74.85764	105.7771	0
607	24.4101	163.54767	145.64693	-93.57205	-60.21158	151.34262	-28.47845	-16.2734	0	6.50936	67.53461	100.08141	0
608	14.64606	156.22464	149.71528	-82.99434	-63.46626	150.52895	-32.5468	-30.91946	-17.08707	-7.32303	59.39791	94.38572	0
609	6.50936	150.52895	151.34262	-74.04397	-66.72094	149.71528	-34.98781	-44.75185	-32.5468	-17.08707	53.70222	91.13104	0
610	4.88202	144.01959	144.01959	-69.97562	-65.0936	143.20592	-37.42882	-57.77057	-47.19286	-24.4101	48.00653	87.06269	0
611	12.20505	135.88289	122.0505	-71.60296	-50.44754	129.37353	-39.86983	-70.78929	-61.83892	-30.91946	41.49717	81.367	0
612	20.34175	125.30518	94.38572	-74.85764	-31.73313	110.65912	-43.93818	-82.99434	-77.29865	-38.24249	33.36047	73.2303	0
613	27.66478	113.10013	69.97562	-74.85764	-18.71441	91.94471	-47.19286	-93.57205	-91.13104	-46.37919	24.4101	63.46626	0
614	31.73313	98.45407	53.70222	-70.78929	-11.39138	76.48498	-49.63387	-100.08141	-100.08141	-53.70222	17.08707	55.32956	0
615	30.91946	86.24902	45.56552	-65.90727	-8.1367	65.90727	-49.63387	-104.14976	-105.7771	-59.39791	11.39138	49.63387	0
616	27.66478	77.29865	43.12451	-60.21158	-8.95037	61.02525	-48.8202	-104.96343	-109.84545	-62.65259	6.50936	44.75185	0
617	23.59643	70.78929	43.93818	-53.70222	-11.39138	57.77057	-48.8202	-105.7771	-112.28646	-65.0936	1.62734	38.24249	0
618	19.52808	65.90727	44.75185	-46.37919	-13.83239	54.51589	-48.00653	-106.59077	-113.10013	-67.53461	-1.62734	31.73313	0
619	15.45973	61.83892	44.75185	-40.6835	-15.45973	52.88855	-45.56552	-106.59077	-113.10013	-69.97562	-5.69569	25.22377	0
620	13.01872	57.77057	43.12451	-35.80148	-16.2734	49.63387	-43.12451	-105.7771	-112.28646	-71.60296	-8.1367	19.52808	0
621	10.57771	49.63387	37.42882	-30.91946	-14.64606	43.12451	-42.31084	-102.52242	-109.84545	-73.2303	-8.95037	13.01872	0
622	8.1367	38.24249	28.47845	-23.59643	-10.57771	33.36047	-40.6835	-98.45407	-106.59077	-74.85764	-11.39138	6.50936	0
623	4.88202	26.03744	18.71441	-17.90074	-7.32303	22.78276	-39.05616	-93.57205	-102.52242	-75.67131	-13.83239	1.62734	0
624	1.62734	14.64606	9.76404	-14.64606	-4.06835	13.01872	-35.80148	-89.5037	-97.6404	-75.67131	-15.45973	-1.62734	0
625	3.25468	7.32303	0.81367	-13.01872	0	4.06835	-33.36047	-87.06269	-93.57205	-75.67131	-17.08707	-4.88202	0
626	8.1367	3.25468	-6.50936	-12.20505	4.88202	-1.62734	-32.5468	-82.99434	-89.5037	-74.85764	-19.52808	-8.95037	0
627	13.01872	0	-14.64606	-11.39138	10.57771	-6.50936	-32.5468	-78.11232	-87.87636	-74.04397	-22.78276	-14.64606	0
628	17.08707	-1.62734	-18.71441	-12.20505	15.45973	-11.39138	-32.5468	-72.41663	-86.24902	-72.41663	-27.66478	-20.34175	0
629	18.71441	-4.88202	-20.34175	-13.01872	18.71441	-14.64606	-30.91946	-65.90727	-82.99434	-69.97562	-32.5468	-24.4101	0
630	17.08707	-8.1367	-18.71441	-10.57771	17.08707	-15.45973	-28.47845	-59.39791	-81.367	-69.16195	-37.42882	-26.03744	0
631	8.95037	-9.76404	-13.83239	-4.88202	11.39138	-13.83239	-23.59643	-54.51589	-78.11232	-70.78929	-39.86983	-26.03744	0
632	0	-11.39138	-8.1367	1.62734	4.06835	-10.57771	-17.90074	-51.26121	-73.2303	-74.04397	-40.6835	-24.4101	0
633	-8.95037	-14.64606	-4.88202	9.76404	-1.62734	-8.1367	-13.01872	-48.00653	-67.53461	-78.11232	-39.05616	-21.96909	0
634	-17.08707	-21.15542	-4.88202	17.90074	-5.69569	-6.50936	-8.1367	-44.75185	-61.02525	-82.99434	-36.61515	-19.52808	0
635	-21.96909	-27.66478	-8.1367	24.4101	-6.50936	-8.1367	-3.25468	-40.6835	-54.51589	-85.43535	-33.36047	-18.71441	0
636	-25.22377	-30.91946	-8.1367	28.47845	-5.69569	-11.39138	0	-34.17414	-47.19286	-82.99434	-29.29212	-18.71441	0
637	-26.85111	-30.91946	-6.50936	28.47845	-2.44101	-13.01872	0	-27.66478	-41.49717	-77.29865	-26.03744	-18.71441	0
638	-26.03744	-29.29212	-10.57771	28.47845	2.44101	-15.45973	0	-25.22377	-39.86983	-72.41663	-26.03744	-18.71441	0
639	-25.22377	-27.66478	-18.71441	28.47845	7.32303	-19.52808	-0.81367	-26.03744	-40.6835	-67.53461	-27.66478	-19.52808	0
640	-23.59643	-29.29212	-25.22377	29.29212	9.76404	-25.22377	-2.44101	-26.85111	-39.86983	-62.65259	-28.47845	-19.52808	0
641	-23.59643	-31.73313	-23.59643	30.10579	5.69569	-26.85111	-4.06835	-26.03744	-37.42882	-56.9569	-27.66478	-19.52808	0
642	-26.03744	-32.5468	-17.08707	30.10579	-0.81367	-24.4101	-3.25468	-23.59643	-34.98781	-49.63387	-27.66478	-20.34175	-1250	T-0
643	-25.22377	-31.73313	-16.2734	26.03744	-5.69569	-23.59643	-3.25468	-22.78276	-33.36047	-45.56552	-27.66478	-21.96909	0
644	-22.78276	-33.36047	-28.47845	20.34175	-6.50936	-30.10579	-2.44101	-22.78276	-33.36047	-44.75185	-26.85111	-23.59643	0
645	-20.34175	-35.80148	-40.6835	16.2734	-1.62734	-38.24249	-0.81367	-21.15542	-30.91946	-43.12451	-26.85111	-25.22377	0
646	-17.08707	-39.86983	-44.75185	17.08707	4.88202	-42.31084	0.81367	-17.90074	-25.22377	-39.86983	-28.47845	-26.85111	0
647	-14.64606	-43.12451	-43.12451	21.15542	8.1367	-43.12451	0.81367	-16.2734	-21.15542	-37.42882	-31.73313	-28.47845	0
648	-12.20505	-42.31084	-39.86983	22.78276	8.95037	-39.86983	0	-16.2734	-18.71441	-35.80148	-31.73313	-29.29212	0
649	-8.95037	-35.80148	-39.05616	21.96909	8.95037	-34.17414	-2.44101	-15.45973	-17.08707	-36.61515	-30.10579	-28.47845	0
650	-3.25468	-29.29212	-38.24249	19.52808	11.39138	-29.29212	-4.88202	-15.45973	-18.71441	-39.86983	-29.29212	-27.66478	0
651	2.44101	-23.59643	-36.61515	14.64606	14.64606	-26.03744	-8.1367	-17.90074	-22.78276	-43.93818	-30.10579	-26.03744	0
652	5.69569	-20.34175	-31.73313	10.57771	14.64606	-23.59643	-9.76404	-19.52808	-25.22377	-46.37919	-30.10579	-24.4101	0
653	2.44101	-21.15542	-23.59643	11.39138	11.39138	-21.15542	-8.1367	-18.71441	-26.03744	-46.37919	-29.29212	-21.96909	0
654	-4.06835	-25.22377	-16.2734	15.45973	7.32303	-17.90074	-4.88202	-15.45973	-24.4101	-47.19286	-26.85111	-21.15542	0
655	-13.83239	-28.47845	-11.39138	21.15542	4.06835	-16.2734	-0.81367	-10.57771	-23.59643	-48.00653	-23.59643	-21.15542	0
656	-17.90074	-30.91946	-10.57771	24.4101	2.44101	-17.08707	1.62734	-7.32303	-24.4101	-48.00653	-22.78276	-21.96909	0
657	-13.83239	-30.91946	-16.2734	21.96909	5.69569	-21.15542	1.62734	-7.32303	-26.03744	-48.8202	-25.22377	-23.59643	0
658	-4.06835	-30.91946	-23.59643	15.45973	12.20505	-25.22377	-0.81367	-10.57771	-27.66478	-52.07488	-29.29212	-26.85111	0
659	3.25468	-30.91946	-29.29212	9.76404	17.08707	-26.85111	-4.06835	-14.64606	-28.47845	-55.32956	-34.17414	-30.10579	0
660	8.95037	-30.91946	-34.17414	5.69569	21.15542	-29.29212	-6.50936	-16.2734	-29.29212	-57.77057	-37.42882	-32.5468	0
661	12.20505	-30.10579	-40.6835	2.44101	26.85111	-32.5468	-8.1367	-17.08707	-28.47845	-59.39791	-39.86983	-33.36047	0
662	13.01872	-29.29212	-43.93818	1.62734	30.91946	-34.98781	-8.1367	-16.2734	-26.03744	-58.58424	-39.86983	-33.36047	0
663	13.01872	-28.47845	-41.49717	3.25468	30.91946	-35.80148	-5.69569	-16.2734	-22.78276	-56.9569	-38.24249	-33.36047	0
664	9.76404	-28.47845	-36.61515	6.50936	26.85111	-34.98781	-2.44101	-16.2734	-19.52808	-53.70222	-36.61515	-32.5468	0
665	3.25468	-29.29212	-31.73313	11.39138	20.34175	-32.5468	0	-17.08707	-17.08707	-49.63387	-34.98781	-31.73313	0
666	-3.25468	-30.91946	-27.66478	16.2734	13.01872	-30.10579	1.62734	-17.08707	-14.64606	-47.19286	-34.98781	-30.10579	0
667	-9.76404	-32.5468	-21.96909	20.34175	5.69569	-28.47845	3.25468	-16.2734	-12.20505	-44.75185	-34.17414	-28.47845	0
668	-16.2734	-34.17414	-15.45973	23.59643	0	-24.4101	4.06835	-13.83239	-9.76404	-43.93818	-33.36047	-27.66478	0
669	-21.15542	-36.61515	-8.95037	25.22377	-6.50936	-19.52808	4.88202	-9.76404	-8.1367	-43.93818	-32.5468	-28.47845	0
670	-27.66478	-37.42882	-1.62734	26.85111	-13.83239	-14.64606	6.50936	-6.50936	-5.69569	-43.12451	-30.91946	-28.47845	0
671	-35.80148	-39.05616	6.50936	34.17414	-24.4101	-11.39138	8.95037	-4.06835	-4.06835	-41.49717	-27.66478	-27.66478	0
672	-43.93818	-41.49717	17.90074	44.75185	-37.42882	-8.1367	10.57771	-1.62734	-3.25468	-38.24249	-22.78276	-25.22377	0
673	-50.44754	-41.49717	26.85111	52.07488	-48.00653	-4.88202	9.76404	-1.62734	-2.44101	-34.17414	-17.90074	-21.15542	0
674	-46.37919	-36.61515	29.29212	47.19286	-41.49717	-2.44101	8.1367	-2.44101	-3.25468	-31.73313	-17.08707	-20.34175	0
675	-25.22377	-30.10579	21.96909	31.73313	-21.15542	-2.44101	4.88202	-4.88202	-7.32303	-35.80148	-22.78276	-24.4101	0
676	-3.25468	-26.03744	5.69569	16.2734	-2.44101	-8.95037	0	-9.76404	-11.39138	-43.12451	-31.73313	-30.91946	0
677	8.1367	-23.59643	-9.76404	7.32303	8.1367	-16.2734	-2.44101	-12.20505	-14.64606	-50.44754	-39.05616	-35.80148	0
678	12.20505	-23.59643	-20.34175	5.69569	13.83239	-21.96909	-1.62734	-13.01872	-16.2734	-55.32956	-43.93818	-39.86983	0
679	12.20505	-25.22377	-26.85111	7.32303	17.08707	-26.85111	0	-13.83239	-17.90074	-60.21158	-46.37919	-41.49717	0
680	10.57771	-27.66478	-28.47845	10.57771	17.08707	-29.29212	1.62734	-13.83239	-19.52808	-63.46626	-47.19286	-41.49717	0
681	8.1367	-28.47845	-26.85111	13.83239	12.20505	-28.47845	2.44101	-13.01872	-19.52808	-65.90727	-45.56552	-38.24249	0
682	5.69569	-28.47845	-22.78276	16.2734	8.1367	-26.03744	0.81367	-10.57771	-18.71441	-66.72094	-43.12451	-34.98781	0
683	3.25468	-26.03744	-21.15542	15.45973	8.95037	-23.59643	-2.44101	-9.76404	-17.90074	-65.0936	-40.6835	-32.5468	0
684	3.25468	-21.96909	-18.71441	13.83239	12.20505	-20.34175	-7.32303	-9.76404	-17.08707	-64.27993	-40.6835	-33.36047	0
685	5.69569	-20.34175	-17.90074	13.01872	14.64606	-19.52808	-11.39138	-8.95037	-16.2734	-63.46626	-39.86983	-34.98781	0
686	7.32303	-21.15542	-21.96909	12.20505	17.08707	-21.96909	-15.45973	-8.1367	-16.2734	-63.46626	-39.86983	-35.80148	0
687	8.1367	-23.59643	-26.85111	10.57771	18.71441	-25.22377	-18.71441	-7.32303	-17.08707	-63.46626	-41.49717	-35.80148	0
688	6.50936	-24.4101	-30.10579	10.57771	17.90074	-29.29212	-17.90074	-8.1367	-17.90074	-65.90727	-45.56552	-36.61515	0
689	1.62734	-25.22377	-33.36047	12.20505	14.64606	-33.36047	-14.64606	-9.76404	-21.96909	-70.78929	-50.44754	-39.86983	0
690	-4.88202	-29.29212	-34.17414	16.2734	9.76404	-36.61515	-10.57771	-14.64606	-26.03744	-76.48498	-53.70222	-43.93818	0
691	-12.20505	-35.80148	-33.36047	22.78276	5.69569	-38.24249	-5.69569	-21.15542	-30.10579	-80.55333	-55.32956	-48.00653	0
692	-18.71441	-43.12451	-31.73313	28.47845	3.25468	-39.05616	0	-25.22377	-33.36047	-82.18067	-55.32956	-48.00653	0
693	-21.15542	-44.75185	-28.47845	31.73313	2.44101	-37.42882	4.06835	-23.59643	-33.36047	-76.48498	-50.44754	-43.93818	0
694	-20.34175	-42.31084	-24.4101	30.10579	0.81367	-33.36047	9.76404	-18.71441	-27.66478	-65.0936	-43.12451	-35.80148	0
695	-20.34175	-36.61515	-18.71441	27.66478	-0.81367	-27.66478	15.45973	-13.83239	-21.15542	-52.07488	-35.80148	-26.85111	0
696	-21.96909	-32.5468	-12.20505	26.85111	-4.06835	-21.96909	18.71441	-8.1367	-16.2734	-43.12451	-30.10579	-20.34175	0
697	-26.85111	-32.5468	-8.95037	29.29212	-8.95037	-20.34175	20.34175	-1.62734	-13.83239	-38.24249	-26.03744	-19.52808	0
698	-32.5468	-36.61515	-8.95037	34.17414	-13.01872	-21.15542	19.52808	1.62734	-13.01872	-34.98781	-25.22377	-22.78276	0
699	-36.61515	-39.86983	-9.76404	39.05616	-15.45973	-22.78276	17.08707	2.44101	-14.64606	-35.80148	-27.66478	-26.85111	0
700	-33.36047	-40.6835	-13.01872	40.6835	-12.20505	-25.22377	13.01872	0.81367	-17.90074	-39.86983	-31.73313	-30.91946	0
701	-24.4101	-38.24249	-18.71441	35.80148	-5.69569	-26.85111	9.76404	0	-21.96909	-46.37919	-34.98781	-34.98781	0
702	-17.08707	-34.98781	-21.15542	29.29212	-1.62734	-26.85111	8.1367	-2.44101	-24.4101	-53.70222	-38.24249	-35.80148	0
703	-16.2734	-30.91946	-19.52808	26.85111	-2.44101	-23.59643	7.32303	-4.88202	-25.22377	-60.21158	-39.86983	-33.36047	0
704	-20.34175	-27.66478	-17.08707	30.10579	-5.69569	-19.52808	8.95037	-4.88202	-23.59643	-63.46626	-39.05616	-29.29212	0
705	-26.03744	-27.66478	-14.64606	34.17414	-8.95037	-17.08707	11.39138	-3.25468	-21.15542	-61.83892	-38.24249	-22.78276	0
706	-29.29212	-30.10579	-13.83239	35.80148	-11.39138	-17.08707	13.83239	-0.81367	-20.34175	-58.58424	-34.98781	-17.08707	0
707	-27.66478	-30.10579	-19.52808	32.5468	-10.57771	-17.90074	13.83239	0	-20.34175	-56.14323	-32.5468	-14.64606	0
708	-15.45973	-30.10579	-30.10579	22.78276	0	-21.15542	10.57771	-4.06835	-23.59643	-58.58424	-34.17414	-17.90074	0
709	2.44101	-30.10579	-42.31084	11.39138	16.2734	-27.66478	4.88202	-12.20505	-30.10579	-64.27993	-39.86983	-24.4101	0
710	14.64606	-31.73313	-48.8202	3.25468	30.10579	-33.36047	0	-19.52808	-37.42882	-67.53461	-43.93818	-30.10579	0
711	17.90074	-30.91946	-48.00653	1.62734	37.42882	-34.98781	-3.25468	-23.59643	-40.6835	-66.72094	-44.75185	-33.36047	0
712	16.2734	-28.47845	-43.93818	2.44101	35.80148	-33.36047	-4.88202	-26.03744	-42.31084	-61.83892	-43.12451	-33.36047	0
713	14.64606	-27.66478	-40.6835	4.88202	28.47845	-33.36047	-6.50936	-28.47845	-42.31084	-56.14323	-40.6835	-33.36047	0
714	13.83239	-31.73313	-39.86983	10.57771	21.15542	-35.80148	-8.95037	-30.10579	-41.49717	-49.63387	-39.05616	-33.36047	0
715	13.83239	-38.24249	-41.49717	17.08707	17.90074	-39.86983	-8.95037	-30.10579	-40.6835	-43.93818	-38.24249	-33.36047	0
716	14.64606	-42.31084	-45.56552	20.34175	19.52808	-44.75185	-8.1367	-29.29212	-41.49717	-39.86983	-37.42882	-32.5468	0
717	17.08707	-43.12451	-50.44754	17.90074	26.03744	-47.19286	-8.1367	-28.47845	-41.49717	-38.24249	-36.61515	-31.73313	0
718	17.90074	-39.86983	-54.51589	13.83239	30.91946	-48.8202	-7.32303	-26.85111	-41.49717	-37.42882	-36.61515	-30.10579	0
719	16.2734	-34.98781	-56.9569	9.76404	31.73313	-50.44754	-7.32303	-26.03744	-40.6835	-37.42882	-36.61515	-29.29212	0
720	12.20505	-34.17414	-57.77057	9.76404	29.29212	-51.26121	-7.32303	-26.03744	-40.6835	-38.24249	-37.42882	-28.47845	0
721	4.88202	-36.61515	-52.88855	13.83239	25.22377	-48.8202	-5.69569	-25.22377	-40.6835	-38.24249	-38.24249	-29.29212	0
722	-6.50936	-41.49717	-42.31084	21.96909	17.08707	-44.75185	-0.81367	-23.59643	-39.05616	-35.80148	-35.80148	-29.29212	0
723	-20.34175	-43.12451	-29.29212	30.91946	9.76404	-38.24249	4.06835	-19.52808	-34.17414	-30.91946	-30.10579	-27.66478	0
724	-29.29212	-43.12451	-21.15542	37.42882	3.25468	-34.98781	8.95037	-16.2734	-30.91946	-25.22377	-24.4101	-26.85111	0
725	-28.47845	-43.93818	-23.59643	39.05616	1.62734	-36.61515	10.57771	-15.45973	-31.73313	-23.59643	-22.78276	-27.66478	0
726	-19.52808	-45.56552	-32.5468	34.17414	4.06835	-41.49717	5.69569	-17.90074	-35.80148	-29.29212	-27.66478	-30.10579	0
727	-7.32303	-46.37919	-42.31084	28.47845	10.57771	-46.37919	0	-21.15542	-39.86983	-38.24249	-34.98781	-34.17414	0
728	0.81367	-48.00653	-49.63387	24.4101	17.90074	-49.63387	-5.69569	-22.78276	-44.75185	-46.37919	-40.6835	-38.24249	0
729	5.69569	-49.63387	-53.70222	21.96909	23.59643	-52.88855	-8.95037	-24.4101	-48.00653	-51.26121	-44.75185	-41.49717	0
730	6.50936	-49.63387	-55.32956	21.15542	26.85111	-52.88855	-10.57771	-26.03744	-51.26121	-52.07488	-48.00653	-42.31084	0
731	4.88202	-47.19286	-52.07488	19.52808	26.85111	-49.63387	-10.57771	-28.47845	-52.88855	-51.26121	-49.63387	-43.12451	0
732	4.88202	-44.75185	-49.63387	17.90074	24.4101	-46.37919	-10.57771	-30.10579	-53.70222	-48.8202	-47.19286	-43.12451	0
733	4.06835	-42.31084	-46.37919	17.08707	20.34175	-43.12451	-8.95037	-33.36047	-54.51589	-46.37919	-43.93818	-43.12451	0
734	0.81367	-43.93818	-42.31084	17.90074	15.45973	-39.86983	-8.1367	-34.98781	-53.70222	-43.12451	-41.49717	-43.12451	0
735	-4.06835	-47.19286	-39.05616	17.90074	13.83239	-39.05616	-7.32303	-34.17414	-51.26121	-39.86983	-38.24249	-43.12451	0
736	-8.1367	-49.63387	-38.24249	18.71441	13.01872	-40.6835	-5.69569	-30.10579	-48.00653	-35.80148	-34.17414	-41.49717	0
737	-10.57771	-48.8202	-37.42882	21.15542	13.01872	-41.49717	-4.06835	-23.59643	-43.93818	-30.91946	-30.10579	-39.86983	0
738	-13.01872	-48.8202	-35.80148	24.4101	13.01872	-41.49717	-1.62734	-17.90074	-39.05616	-25.22377	-27.66478	-37.42882	0
739	-18.71441	-50.44754	-34.98781	28.47845	10.57771	-43.12451	0	-14.64606	-35.80148	-21.96909	-28.47845	-34.17414	0
740	-26.03744	-52.07488	-32.5468	33.36047	6.50936	-42.31084	0	-13.01872	-34.17414	-21.96909	-29.29212	-32.5468	0
741	-31.73313	-52.07488	-28.47845	36.61515	1.62734	-40.6835	-0.81367	-13.01872	-34.98781	-25.22377	-30.91946	-31.73313	0
742	-34.98781	-52.88855	-22.78276	39.86983	-1.62734	-38.24249	0	-13.01872	-34.98781	-27.66478	-32.5468	-30.91946	0
743	-36.61515	-52.07488	-14.64606	41.49717	-4.88202	-36.61515	1.62734	-13.01872	-32.5468	-27.66478	-30.91946	-28.47845	0
744	-37.42882	-51.26121	-8.95037	42.31084	-8.95037	-34.17414	3.25468	-12.20505	-30.91946	-24.4101	-25.22377	-25.22377	0
745	-37.42882	-50.44754	-8.1367	43.12451	-10.57771	-32.5468	4.06835	-11.39138	-32.5468	-22.78276	-19.52808	-21.15542	0
746	-30.10579	-52.88855	-15.45973	41.49717	-6.50936	-39.05616	4.06835	-11.39138	-33.36047	-21.15542	-17.90074	-21.96909	0
747	-16.2734	-58.58424	-26.85111	36.61515	0.81367	-51.26121	0	-14.64606	-35.80148	-21.15542	-21.15542	-26.03744	0
748	-2.44101	-62.65259	-38.24249	32.5468	11.39138	-60.21158	-5.69569	-17.90074	-38.24249	-21.96909	-26.03744	-31.73313	0
749	5.69569	-62.65259	-48.00653	30.10579	20.34175	-63.46626	-9.76404	-21.15542	-39.86983	-23.59643	-30.91946	-36.61515	0
750	7.32303	-59.39791	-54.51589	26.85111	26.03744	-61.83892	-11.39138	-21.96909	-40.6835	-26.03744	-34.98781	-39.86983	0
751	4.06835	-54.51589	-56.14323	22.78276	29.29212	-57.77057	-10.57771	-21.96909	-41.49717	-29.29212	-38.24249	-41.49717	0
752	0.81367	-51.26121	-56.14323	21.15542	30.10579	-53.70222	-8.95037	-21.15542	-40.6835	-34.98781	-40.6835	-43.12451	0
753	-0.81367	-49.63387	-54.51589	23.59643	30.91946	-51.26121	-7.32303	-18.71441	-38.24249	-39.86983	-40.6835	-43.12451	0
754	-2.44101	-48.00653	-50.44754	28.47845	30.91946	-48.8202	-6.50936	-15.45973	-35.80148	-42.31084	-40.6835	-42.31084	0
755	-4.06835	-48.00653	-48.00653	31.73313	29.29212	-47.19286	-4.88202	-11.39138	-32.5468	-43.93818	-39.05616	-39.05616	0
756	-6.50936	-49.63387	-45.56552	33.36047	26.03744	-47.19286	-3.25468	-8.95037	-30.91946	-43.93818	-36.61515	-35.80148	0
757	-10.57771	-52.88855	-43.93818	34.98781	21.15542	-48.00653	-0.81367	-6.50936	-29.29212	-43.12451	-33.36047	-34.17414	0
758	-15.45973	-56.9569	-41.49717	39.05616	15.45973	-49.63387	1.62734	-4.88202	-29.29212	-43.12451	-31.73313	-33.36047	0
759	-21.96909	-60.21158	-39.05616	43.12451	9.76404	-49.63387	4.88202	-4.88202	-29.29212	-41.49717	-30.10579	-34.17414	0
760	-27.66478	-63.46626	-36.61515	44.75185	4.88202	-50.44754	6.50936	-6.50936	-28.47845	-40.6835	-29.29212	-34.98781	0
761	-27.66478	-65.90727	-38.24249	43.93818	4.88202	-52.07488	5.69569	-8.95037	-28.47845	-41.49717	-30.91946	-35.80148	0
762	-21.96909	-66.72094	-48.00653	39.86983	13.83239	-56.9569	1.62734	-12.20505	-28.47845	-43.93818	-33.36047	-36.61515	0
763	-14.64606	-67.53461	-60.21158	34.98781	26.03744	-61.02525	-3.25468	-13.83239	-29.29212	-44.75185	-34.98781	-37.42882	0
764	-10.57771	-69.97562	-70.78929	31.73313	34.17414	-63.46626	-8.1367	-14.64606	-28.47845	-45.56552	-35.80148	-39.05616	0
765	-8.95037	-74.04397	-74.85764	30.10579	36.61515	-65.0936	-10.57771	-14.64606	-26.03744	-46.37919	-35.80148	-40.6835	0
766	-9.76404	-75.67131	-73.2303	30.91946	34.17414	-66.72094	-8.95037	-12.20505	-23.59643	-44.75185	-34.17414	-40.6835	0
767	-12.20505	-72.41663	-64.27993	33.36047	30.10579	-63.46626	-4.06835	-7.32303	-19.52808	-41.49717	-30.91946	-39.05616	0
768	-16.2734	-67.53461	-52.07488	34.98781	26.85111	-58.58424	0	-1.62734	-14.64606	-37.42882	-27.66478	-36.61515	0
769	-18.71441	-65.0936	-43.12451	37.42882	22.78276	-56.9569	0	1.62734	-9.76404	-33.36047	-25.22377	-35.80148	0
770	-17.90074	-63.46626	-40.6835	37.42882	19.52808	-56.9569	-1.62734	0.81367	-6.50936	-30.10579	-25.22377	-35.80148	0
771	-13.01872	-61.02525	-43.93818	34.98781	20.34175	-56.9569	-6.50936	-0.81367	-5.69569	-29.29212	-26.85111	-38.24249	0
772	-4.88202	-56.9569	-49.63387	30.10579	22.78276	-56.14323	-11.39138	-4.06835	-5.69569	-30.10579	-29.29212	-39.86983	0
773	1.62734	-53.70222	-54.51589	26.03744	23.59643	-54.51589	-13.01872	-6.50936	-7.32303	-31.73313	-30.91946	-40.6835	0
774	4.88202	-52.07488	-56.9569	22.78276	22.78276	-49.63387	-10.57771	-6.50936	-8.95037	-34.98781	-32.5468	-40.6835	0
775	4.06835	-51.26121	-54.51589	22.78276	21.15542	-45.56552	-6.50936	-4.88202	-8.1367	-36.61515	-32.5468	-40.6835	0
776	1.62734	-52.88855	-51.26121	26.03744	18.71441	-46.37919	0	-1.62734	-4.06835	-35.80148	-30.10579	-39.86983	0
777	-1.62734	-58.58424	-51.26121	30.91946	18.71441	-51.26121	5.69569	0.81367	0.81367	-34.17414	-26.85111	-38.24249	0
778	-4.06835	-65.0936	-52.88855	36.61515	21.15542	-56.14323	10.57771	4.88202	4.88202	-31.73313	-26.03744	-37.42882	0
779	-6.50936	-69.97562	-52.88855	40.6835	22.78276	-56.9569	13.83239	8.1367	7.32303	-28.47845	-26.85111	-37.42882	0
780	-9.76404	-70.78929	-48.00653	43.12451	21.15542	-54.51589	14.64606	10.57771	7.32303	-26.03744	-28.47845	-38.24249	0
781	-13.01872	-68.34828	-39.86983	44.75185	14.64606	-50.44754	13.83239	11.39138	6.50936	-25.22377	-30.10579	-38.24249	0
782	-17.90074	-65.90727	-36.61515	45.56552	9.76404	-48.8202	13.83239	12.20505	4.06835	-27.66478	-30.91946	-37.42882	0
783	-23.59643	-63.46626	-37.42882	43.93818	8.95037	-48.8202	12.20505	9.76404	0.81367	-34.17414	-33.36047	-37.42882	0
784	-26.85111	-61.02525	-38.24249	41.49717	8.1367	-48.8202	9.76404	5.69569	-3.25468	-44.75185	-36.61515	-39.05616	0
785	-28.47845	-61.02525	-39.05616	41.49717	8.1367	-50.44754	6.50936	2.44101	-5.69569	-53.70222	-39.86983	-41.49717	0
786	-24.4101	-63.46626	-44.75185	41.49717	11.39138	-54.51589	3.25468	1.62734	-8.95037	-58.58424	-43.93818	-45.56552	0
787	-15.45973	-62.65259	-52.07488	36.61515	19.52808	-57.77057	0.81367	0.81367	-11.39138	-60.21158	-46.37919	-48.00653	0
788	-5.69569	-61.83892	-56.9569	30.91946	27.66478	-58.58424	0	1.62734	-11.39138	-58.58424	-46.37919	-48.00653	0
789	0	-61.02525	-56.14323	26.85111	28.47845	-56.14323	0.81367	3.25468	-9.76404	-53.70222	-43.93818	-46.37919	0
790	1.62734	-60.21158	-50.44754	26.03744	24.4101	-52.07488	2.44101	4.88202	-7.32303	-48.8202	-40.6835	-43.12451	0
791	1.62734	-57.77057	-47.19286	26.85111	21.15542	-48.8202	3.25468	4.88202	-5.69569	-44.75185	-38.24249	-40.6835	0
792	2.44101	-55.32956	-48.8202	26.03744	22.78276	-49.63387	2.44101	3.25468	-6.50936	-43.12451	-36.61515	-40.6835	0
793	5.69569	-52.07488	-52.88855	22.78276	26.85111	-51.26121	2.44101	2.44101	-5.69569	-39.86983	-34.17414	-39.05616	0
794	8.1367	-48.00653	-53.70222	19.52808	29.29212	-50.44754	3.25468	4.06835	-2.44101	-33.36047	-29.29212	-35.80148	0
795	8.1367	-42.31084	-50.44754	17.08707	28.47845	-46.37919	5.69569	5.69569	1.62734	-25.22377	-23.59643	-30.91946	0
796	4.88202	-37.42882	-43.93818	15.45973	24.4101	-40.6835	8.95037	9.76404	7.32303	-17.08707	-17.90074	-26.85111	0
797	0.81367	-31.73313	-34.98781	14.64606	18.71441	-33.36047	13.83239	15.45973	12.20505	-10.57771	-13.83239	-24.4101	0
798	0	-23.59643	-27.66478	10.57771	14.64606	-25.22377	19.52808	21.96909	15.45973	-6.50936	-11.39138	-22.78276	0
799	3.25468	-14.64606	-22.78276	4.06835	13.01872	-16.2734	23.59643	28.47845	15.45973	-4.88202	-9.76404	-21.15542	0
800	5.69569	-6.50936	-19.52808	-0.81367	11.39138	-9.76404	25.22377	31.73313	13.01872	-4.88202	-10.57771	-20.34175	0
801	6.50936	-2.44101	-14.64606	-3.25468	8.95037	-5.69569	25.22377	32.5468	10.57771	-4.06835	-11.39138	-19.52808	0
802	4.06835	-0.81367	-7.32303	-2.44101	5.69569	-3.25468	26.03744	31.73313	8.95037	-4.06835	-10.57771	-18.71441	0
803	0	-0.81367	1.62734	0	1.62734	-0.81367	26.85111	32.5468	8.1367	-2.44101	-8.95037	-16.2734	0
804	-4.06835	-1.62734	9.76404	1.62734	-3.25468	0.81367	27.66478	34.17414	10.57771	0.81367	-4.88202	-13.01872	0
805	-8.95037	0	16.2734	4.88202	-10.57771	4.06835	29.29212	39.05616	15.45973	7.32303	0	-9.76404	0
806	-13.01872	1.62734	18.71441	7.32303	-17.90074	9.76404	34.17414	46.37919	23.59643	14.64606	4.88202	-5.69569	0
807	-16.2734	3.25468	15.45973	8.1367	-22.78276	13.83239	40.6835	56.14323	32.5468	20.34175	8.1367	-3.25468	0
808	-14.64606	3.25468	8.1367	6.50936	-19.52808	13.01872	43.93818	62.65259	39.05616	24.4101	8.95037	-3.25468	0
809	-4.88202	2.44101	0	0.81367	-8.1367	8.1367	40.6835	62.65259	39.05616	26.85111	8.95037	-5.69569	0
810	8.95037	3.25468	-7.32303	-8.1367	4.06835	4.88202	32.5468	59.39791	36.61515	28.47845	8.1367	-7.32303	0
811	21.96909	10.57771	-8.1367	-17.08707	13.01872	6.50936	24.4101	56.14323	34.17414	30.91946	7.32303	-7.32303	0
812	31.73313	21.96909	-3.25468	-25.22377	15.45973	13.01872	14.64606	52.88855	31.73313	33.36047	7.32303	-5.69569	0
813	37.42882	34.98781	3.25468	-34.17414	15.45973	21.15542	6.50936	49.63387	29.29212	34.17414	8.1367	-3.25468	0
814	41.49717	46.37919	10.57771	-41.49717	13.83239	29.29212	-2.44101	43.93818	24.4101	32.5468	8.1367	-1.62734	0
815	42.31084	56.14323	15.45973	-48.00653	12.20505	35.80148	-14.64606	34.98781	17.90074	26.03744	7.32303	0	0
816	43.12451	61.83892	18.71441	-52.07488	11.39138	39.86983	-29.29212	26.03744	13.01872	19.52808	6.50936	1.62734	0
817	44.75185	65.0936	18.71441	-55.32956	13.01872	41.49717	-43.12451	20.34175	9.76404	14.64606	8.1367	4.88202	0
818	48.00653	68.34828	19.52808	-59.39791	15.45973	40.6835	-52.07488	17.90074	8.95037	13.83239	10.57771	8.1367	0
819	52.07488	74.04397	20.34175	-64.27993	17.08707	37.42882	-57.77057	17.90074	8.95037	14.64606	13.01872	11.39138	0
820	58.58424	78.11232	18.71441	-70.78929	21.15542	35.80148	-61.02525	17.08707	9.76404	16.2734	15.45973	14.64606	0
821	66.72094	80.55333	13.01872	-75.67131	26.03744	35.80148	-63.46626	14.64606	9.76404	17.90074	14.64606	17.08707	0
822	69.97562	78.11232	8.95037	-75.67131	26.03744	36.61515	-63.46626	12.20505	8.95037	18.71441	14.64606	18.71441	0
823	64.27993	72.41663	11.39138	-69.16195	20.34175	36.61515	-59.39791	11.39138	8.95037	20.34175	16.2734	20.34175	0
824	52.88855	65.0936	17.90074	-60.21158	13.01872	38.24249	-54.51589	13.01872	8.95037	22.78276	18.71441	23.59643	0
825	41.49717	60.21158	22.78276	-52.07488	6.50936	39.86983	-48.8202	15.45973	10.57771	25.22377	21.96909	27.66478	0
826	32.5468	56.9569	26.03744	-43.93818	1.62734	40.6835	-43.12451	18.71441	13.83239	27.66478	25.22377	31.73313	0
827	23.59643	51.26121	28.47845	-36.61515	-1.62734	39.86983	-35.80148	22.78276	17.08707	30.10579	30.10579	34.17414	0
828	13.83239	43.93818	30.10579	-27.66478	-5.69569	37.42882	-27.66478	28.47845	21.96909	33.36047	34.98781	36.61515	0
829	7.32303	38.24249	30.10579	-19.52808	-8.95037	34.17414	-21.15542	34.17414	26.85111	37.42882	39.05616	39.86983	0
830	3.25468	36.61515	32.5468	-16.2734	-12.20505	34.98781	-17.08707	37.42882	31.73313	39.86983	42.31084	42.31084	0
831	1.62734	38.24249	35.80148	-14.64606	-15.45973	37.42882	-16.2734	38.24249	31.73313	40.6835	44.75185	43.12451	0
832	4.06835	37.42882	32.5468	-17.08707	-13.83239	35.80148	-19.52808	36.61515	29.29212	39.86983	45.56552	43.12451	0
833	17.08707	32.5468	15.45973	-23.59643	0	25.22377	-24.4101	30.10579	24.4101	35.80148	43.12451	40.6835	0
834	39.05616	24.4101	-13.83239	-31.73313	26.03744	5.69569	-30.10579	21.96909	17.08707	28.47845	34.98781	33.36047	0
835	59.39791	16.2734	-42.31084	-37.42882	50.44754	-12.20505	-34.17414	13.83239	11.39138	20.34175	25.22377	23.59643	0
836	65.90727	8.95037	-56.9569	-36.61515	61.02525	-23.59643	-34.98781	9.76404	9.76404	13.83239	16.2734	14.64606	0
837	57.77057	0.81367	-56.9569	-30.10579	57.77057	-27.66478	-32.5468	11.39138	10.57771	8.95037	9.76404	7.32303	0
838	44.75185	-6.50936	-51.26121	-19.52808	49.63387	-28.47845	-28.47845	13.83239	12.20505	2.44101	2.44101	-0.81367	0
839	30.10579	-15.45973	-46.37919	-8.1367	39.86983	-30.91946	-24.4101	15.45973	10.57771	-4.88202	-6.50936	-11.39138	0
840	13.01872	-27.66478	-41.49717	5.69569	30.10579	-34.17414	-20.34175	14.64606	6.50936	-13.83239	-16.2734	-21.96909	0
841	-3.25468	-41.49717	-37.42882	20.34175	20.34175	-39.05616	-15.45973	11.39138	3.25468	-21.96909	-24.4101	-30.10579	0
842	-18.71441	-52.07488	-32.5468	34.17414	9.76404	-42.31084	-9.76404	8.1367	0.81367	-26.85111	-29.29212	-34.98781	0
843	-28.47845	-60.21158	-30.91946	43.12451	3.25468	-44.75185	-4.88202	5.69569	0	-29.29212	-32.5468	-37.42882	0
844	-31.73313	-65.0936	-35.80148	47.19286	4.06835	-49.63387	-0.81367	2.44101	-0.81367	-30.10579	-35.80148	-38.24249	0
845	-30.91946	-68.34828	-47.19286	48.00653	12.20505	-56.9569	0	0	-3.25468	-30.10579	-36.61515	-39.86983	0
846	-27.66478	-73.2303	-56.14323	48.8202	18.71441	-63.46626	2.44101	0	-4.06835	-29.29212	-35.80148	-39.05616	0
847	-20.34175	-78.11232	-61.83892	51.26121	19.52808	-67.53461	6.50936	3.25468	-2.44101	-28.47845	-34.98781	-39.86983	0
848	-14.64606	-82.18067	-68.34828	51.26121	20.34175	-69.16195	6.50936	6.50936	-1.62734	-27.66478	-35.80148	-42.31084	0
849	-8.95037	-86.24902	-74.85764	48.8202	24.4101	-69.97562	2.44101	6.50936	-3.25468	-30.91946	-39.05616	-48.00653	0
850	-3.25468	-87.87636	-80.55333	46.37919	31.73313	-73.2303	-3.25468	4.06835	-8.95037	-34.98781	-43.93818	-54.51589	0
851	0	-87.87636	-86.24902	43.93818	40.6835	-78.92599	-7.32303	0	-13.01872	-36.61515	-48.00653	-59.39791	0
852	2.44101	-87.06269	-90.31737	40.6835	46.37919	-83.80801	-6.50936	-3.25468	-15.45973	-36.61515	-51.26121	-61.83892	0
853	3.25468	-87.06269	-91.94471	40.6835	48.8202	-87.06269	-3.25468	-5.69569	-15.45973	-34.98781	-52.88855	-62.65259	0
854	0	-88.69003	-90.31737	43.12451	46.37919	-88.69003	0.81367	-6.50936	-14.64606	-33.36047	-53.70222	-62.65259	0
855	-4.06835	-91.13104	-87.06269	47.19286	41.49717	-88.69003	5.69569	-4.06835	-13.83239	-34.98781	-53.70222	-61.83892	0
856	-10.57771	-91.94471	-81.367	50.44754	35.80148	-87.06269	9.76404	-0.81367	-13.01872	-39.05616	-54.51589	-61.83892	0
857	-17.90074	-91.94471	-74.85764	53.70222	29.29212	-83.80801	12.20505	2.44101	-12.20505	-43.12451	-55.32956	-62.65259	0
858	-24.4101	-91.13104	-68.34828	56.9569	22.78276	-81.367	13.83239	8.1367	-10.57771	-47.19286	-56.14323	-64.27993	0
859	-30.10579	-91.13104	-65.0936	59.39791	17.08707	-80.55333	13.83239	13.01872	-10.57771	-48.8202	-56.9569	-65.90727	0
860	-35.80148	-91.94471	-61.83892	62.65259	11.39138	-79.73966	13.01872	14.64606	-9.76404	-48.8202	-56.14323	-68.34828	0
861	-40.6835	-93.57205	-57.77057	65.0936	7.32303	-78.11232	14.64606	14.64606	-9.76404	-46.37919	-54.51589	-68.34828	0
862	-43.12451	-95.19939	-57.77057	65.90727	8.1367	-78.11232	17.90074	14.64606	-8.95037	-43.93818	-52.88855	-69.16195	0
863	-43.12451	-97.6404	-61.02525	65.0936	12.20505	-80.55333	21.15542	13.83239	-8.95037	-42.31084	-52.88855	-69.97562	0
864	-39.86983	-104.14976	-62.65259	65.0936	14.64606	-87.06269	21.96909	11.39138	-11.39138	-43.12451	-55.32956	-70.78929	0
865	-34.98781	-110.65912	-66.72094	65.0936	17.90074	-93.57205	20.34175	10.57771	-15.45973	-47.19286	-58.58424	-73.2303	0
866	-30.91946	-115.54114	-73.2303	65.90727	25.22377	-100.89508	20.34175	13.01872	-17.08707	-50.44754	-62.65259	-76.48498	0
867	-26.85111	-120.42316	-84.62168	69.97562	34.17414	-112.28646	23.59643	18.71441	-16.2734	-55.32956	-67.53461	-81.367	0
868	-21.96909	-129.37353	-102.52242	76.48498	46.37919	-126.11885	28.47845	25.22377	-15.45973	-65.0936	-78.92599	-91.13104	0
869	-20.34175	-143.20592	-122.86417	83.80801	56.9569	-140.76491	34.17414	29.29212	-21.15542	-81.367	-95.19939	-105.7771	0
870	-21.15542	-158.66565	-139.95124	91.13104	64.27993	-153.78363	41.49717	30.91946	-32.5468	-102.52242	-116.35481	-122.86417	0
871	-23.59643	-170.05703	-148.90161	96.82673	65.0936	-161.10666	49.63387	30.10579	-48.8202	-126.11885	-138.3239	-139.13757	0
872	-26.85111	-171.68437	-146.4606	98.45407	61.02525	-159.47932	60.21158	26.85111	-68.34828	-149.71528	-159.47932	-151.34262	0
873	-29.29212	-165.98868	-137.51023	97.6404	54.51589	-151.34262	69.16195	13.83239	-91.94471	-170.8707	-175.75272	-160.29299	0
874	-30.91946	-152.96996	-122.0505	91.13104	44.75185	-136.69656	75.67131	-17.08707	-123.67784	-185.51676	-185.51676	-162.734	0
875	-30.91946	-129.37353	-97.6404	79.73966	31.73313	-112.28646	75.67131	-76.48498	-171.68437	-200.16282	-186.33043	-157.03831	0
876	-33.36047	-96.01306	-62.65259	64.27993	13.83239	-78.11232	64.27993	-176.56639	-250.61036	-226.20026	-186.33043	-146.4606	0
877	-36.61515	-56.14323	-18.71441	46.37919	-8.1367	-37.42882	39.05616	-323.02699	-368.59251	-270.13844	-192.02612	-135.06922	0
878	-40.6835	-10.57771	31.73313	25.22377	-35.80148	10.57771	1.62734	-509.35742	-519.12146	-329.53635	-204.23117	-124.49151	0
879	-45.56552	40.6835	90.31737	1.62734	-67.53461	65.90727	-46.37919	-718.47061	-689.99216	-396.25729	-215.62255	-109.03178	0
880	-46.37919	101.70875	151.34262	-27.66478	-97.6404	126.93252	-108.21811	-934.90683	-864.93121	-458.90988	-217.24989	-80.55333	0
881	-34.17414	172.49804	209.11319	-69.97562	-121.23683	191.21245	-191.21245	-1147.2747	-1032.54723	-510.17109	-200.16282	-32.5468	0
882	-4.88202	257.93339	264.44275	-126.93252	-134.25555	261.18807	-297.80322	-1349.06486	-1187.14453	-545.97257	-163.54767	35.80148	0
883	37.42882	355.57379	318.95864	-196.90814	-139.95124	336.85938	-422.29473	-1537.02263	-1324.65476	-567.12799	-112.28646	119.60949	0
884	83.80801	458.90988	375.91554	-271.76578	-145.64693	418.22638	-553.2956	-1707.89333	-1443.45058	-572.82368	-48.8202	214.80888	0
885	125.30518	564.68698	439.3818	-344.99608	-157.03831	502.84806	-681.85546	-1865.74531	-1550.85502	-562.24597	24.4101	318.14497	0
886	154.5973	670.46408	515.05311	-412.53069	-180.63474	593.9791	-803.09229	-2020.34261	-1655.81845	-541.90422	102.52242	419.85372	0
887	164.36134	761.59512	593.16543	-464.60557	-222.13191	677.78711	-913.75141	-2166.80321	-1752.64518	-512.6121	179.82107	515.86678	0
888	160.29299	825.06138	655.81802	-497.96604	-272.57945	740.4397	-1001.62777	-2275.02132	-1815.29777	-467.04658	256.30605	602.1158	0
889	152.96996	866.55855	702.19721	-516.68045	-307.56726	785.19155	-1052.88898	-2305.94078	-1813.67043	-412.53069	328.72268	669.65041	0
890	145.64693	872.25424	717.65694	-515.86678	-313.26295	795.76926	-1061.83935	-2249.79755	-1744.50848	-363.71049	379.17022	700.56987	0
891	137.51023	829.12973	686.73748	-488.202	-292.9212	758.34044	-1038.24292	-2136.69742	-1644.42707	-328.72268	382.4249	679.41445	0
892	122.0505	747.76273	623.27122	-437.75446	-263.62908	685.92381	-993.49107	-2002.44187	-1551.66869	-323.02699	326.28167	601.30213	0
893	96.01306	643.61297	546.78624	-371.03352	-240.84632	595.60644	-935.7205	-1866.55898	-1485.76142	-365.33783	216.43622	475.99695	0
894	55.32956	530.51284	475.99695	-293.73487	-227.01393	504.4754	-868.18589	-1733.1171	-1439.38223	-444.26382	70.78929	319.77231	0
895	2.44101	420.66739	419.85372	-211.5542	-221.31824	421.48106	-790.07357	-1593.97953	-1393.00304	-528.8855	-89.5037	148.08794	0
896	-48.00653	321.39965	373.47453	-135.06922	-220.50457	348.25076	-705.45189	-1445.89159	-1327.09577	-594.79277	-240.84632	-19.52808	0
897	-87.06269	239.21898	336.85938	-70.78929	-219.6909	288.03918	-619.20287	-1288.85328	-1234.33739	-633.03526	-355.57379	-153.78363	0
898	-112.28646	178.19373	304.31258	-26.85111	-213.99521	241.65999	-537.0222	-1128.56029	-1116.35524	-637.10361	-416.59904	-235.9643	0
899	-120.42316	134.25555	266.88376	-1.62734	-196.09447	200.97649	-460.53722	-966.63996	-978.03134	-602.1158	-425.54941	-270.95211	0
900	-112.28646	101.70875	221.31824	8.1367	-167.61602	161.92033	-388.12059	-806.34697	-829.9434	-535.39486	-396.25729	-272.57945	0
901	-96.01306	80.55333	180.63474	8.95037	-137.51023	131.00087	-318.95864	-655.81802	-681.85546	-451.58685	-344.99608	-251.42403	0
902	-81.367	70.78929	149.71528	3.25468	-112.28646	110.65912	-257.93339	-523.18981	-547.59991	-366.96517	-288.03918	-219.6909	0
903	-70.78929	68.34828	129.37353	-3.25468	-94.38572	98.45407	-208.29952	-414.9717	-434.49978	-293.73487	-235.9643	-187.1441	0
904	-61.83892	65.90727	118.79582	-7.32303	-86.24902	92.75838	-169.24336	-331.16369	-344.99608	-235.9643	-193.65346	-157.85198	0
905	-54.51589	61.83892	113.10013	-5.69569	-83.80801	88.69003	-139.13757	-264.44275	-273.39312	-194.46713	-161.10666	-134.25555	0
906	-50.44754	52.88855	104.96343	0	-79.73966	78.92599	-115.54114	-209.11319	-213.99521	-164.36134	-136.69656	-117.98215	0
907	-48.00653	34.98781	86.24902	7.32303	-69.16195	61.02525	-93.57205	-160.29299	-164.36134	-139.13757	-119.60949	-108.21811	0
908	-44.75185	11.39138	59.39791	17.08707	-52.88855	35.80148	-69.97562	-113.9138	-121.23683	-115.54114	-104.96343	-101.70875	0
909	-41.49717	-12.20505	30.91946	26.85111	-34.98781	9.76404	-46.37919	-71.60296	-84.62168	-92.75838	-93.57205	-96.82673	0
910	-38.24249	-34.17414	4.06835	34.17414	-18.71441	-13.83239	-25.22377	-34.98781	-55.32956	-70.78929	-82.99434	-91.94471	0
911	-37.42882	-52.07488	-17.90074	40.6835	-5.69569	-34.98781	-4.88202	-3.25468	-30.91946	-50.44754	-74.04397	-87.87636	0
912	-38.24249	-66.72094	-33.36047	48.00653	0.81367	-49.63387	13.83239	24.4101	-5.69569	-31.73313	-63.46626	-82.18067	0
913	-39.86983	-81.367	-44.75185	57.77057	4.88202	-62.65259	31.73313	50.44754	21.15542	-13.01872	-53.70222	-75.67131	0
914	-40.6835	-98.45407	-53.70222	69.16195	7.32303	-76.48498	48.00653	74.85764	48.00653	2.44101	-44.75185	-68.34828	0
915	-40.6835	-113.10013	-61.02525	78.11232	11.39138	-89.5037	61.83892	94.38572	73.2303	15.45973	-38.24249	-61.83892	0
916	-38.24249	-122.0505	-70.78929	82.18067	17.90074	-100.08141	71.60296	109.03178	96.01306	24.4101	-33.36047	-56.9569	0
917	-34.98781	-125.30518	-78.92599	81.367	24.4101	-105.7771	78.11232	121.23683	116.35481	30.10579	-30.10579	-55.32956	0
918	-32.5468	-124.49151	-85.43535	79.73966	28.47845	-108.21811	81.367	131.81454	132.62821	33.36047	-28.47845	-56.14323	0
919	-33.36047	-123.67784	-90.31737	78.92599	30.91946	-109.84545	82.99434	139.95124	146.4606	34.98781	-28.47845	-57.77057	0
920	-35.80148	-123.67784	-91.94471	79.73966	30.10579	-110.65912	85.43535	145.64693	156.22464	35.80148	-29.29212	-59.39791	0
921	-36.61515	-125.30518	-92.75838	80.55333	29.29212	-110.65912	87.06269	148.90161	161.92033	38.24249	-30.10579	-61.83892	0
922	-35.80148	-127.74619	-94.38572	80.55333	29.29212	-112.28646	88.69003	150.52895	165.17501	41.49717	-29.29212	-63.46626	0
923	-33.36047	-128.55986	-99.26774	81.367	32.5468	-114.72747	90.31737	152.15629	166.80235	48.8202	-26.85111	-65.90727	0
924	-28.47845	-127.74619	-106.59077	81.367	38.24249	-119.60949	91.94471	154.5973	166.80235	57.77057	-23.59643	-67.53461	0
925	-21.96909	-127.74619	-115.54114	78.92599	46.37919	-124.49151	93.57205	157.03831	163.54767	65.90727	-22.78276	-69.16195	0
926	-16.2734	-130.1872	-123.67784	74.85764	54.51589	-130.1872	94.38572	158.66565	160.29299	68.34828	-26.85111	-69.97562	0
927	-13.01872	-134.25555	-130.1872	73.2303	61.02525	-133.44188	93.57205	161.10666	156.22464	65.90727	-31.73313	-72.41663	0
928	-13.83239	-136.69656	-129.37353	73.2303	61.02525	-133.44188	93.57205	165.17501	153.78363	60.21158	-35.80148	-74.85764	0
929	-18.71441	-137.51023	-121.23683	76.48498	54.51589	-129.37353	95.19939	169.24336	153.78363	54.51589	-38.24249	-74.85764	0
930	-24.4101	-136.69656	-112.28646	78.11232	45.56552	-123.67784	96.82673	171.68437	152.96996	52.07488	-38.24249	-74.04397	0
931	-27.66478	-134.25555	-104.96343	78.92599	39.05616	-118.79582	98.45407	173.31171	152.15629	50.44754	-36.61515	-73.2303	0
932	-29.29212	-131.00087	-100.08141	78.92599	35.80148	-115.54114	100.08141	174.12538	152.96996	51.26121	-34.17414	-71.60296	0
933	-28.47845	-126.93252	-98.45407	78.11232	34.98781	-111.47279	101.70875	174.93905	157.03831	54.51589	-30.91946	-69.97562	0
934	-27.66478	-122.86417	-98.45407	76.48498	34.98781	-105.7771	104.14976	177.38006	162.734	61.02525	-27.66478	-67.53461	0
935	-28.47845	-121.23683	-98.45407	76.48498	33.36047	-103.33609	107.40444	182.26208	170.8707	68.34828	-22.78276	-62.65259	0
936	-31.73313	-122.86417	-95.19939	78.11232	30.10579	-104.14976	111.47279	188.77144	178.19373	74.85764	-17.90074	-57.77057	0
937	-35.80148	-126.93252	-91.94471	81.367	28.47845	-106.59077	116.35481	198.53548	186.33043	78.92599	-13.83239	-52.88855	0
938	-38.24249	-127.74619	-87.06269	82.99434	27.66478	-108.21811	122.0505	207.48585	192.83979	82.18067	-8.95037	-48.8202	0
939	-39.05616	-124.49151	-82.18067	82.99434	27.66478	-111.47279	124.49151	213.99521	195.2808	81.367	-5.69569	-47.19286	0
940	-37.42882	-119.60949	-81.367	81.367	28.47845	-111.47279	122.86417	214.80888	192.83979	76.48498	-4.88202	-48.8202	0
941	-36.61515	-115.54114	-83.80801	78.11232	30.91946	-109.84545	118.79582	213.99521	188.77144	70.78929	-5.69569	-50.44754	0
942	-37.42882	-113.9138	-84.62168	74.85764	30.91946	-105.7771	117.16848	214.80888	188.77144	71.60296	-5.69569	-50.44754	0
943	-39.86983	-111.47279	-80.55333	73.2303	24.4101	-100.08141	118.79582	218.87723	194.46713	79.73966	-4.06835	-49.63387	0
944	-46.37919	-109.03178	-73.2303	71.60296	15.45973	-95.19939	120.42316	226.20026	205.04484	92.75838	-0.81367	-47.19286	0
945	-48.8202	-108.21811	-69.97562	70.78929	8.1367	-92.75838	122.0505	231.89595	217.24989	104.96343	3.25468	-46.37919	0
946	-42.31084	-109.03178	-75.67131	69.97562	6.50936	-94.38572	123.67784	235.15063	227.01393	111.47279	6.50936	-46.37919	0
947	-34.17414	-111.47279	-87.87636	68.34828	10.57771	-97.6404	123.67784	237.59164	234.33696	115.54114	7.32303	-46.37919	0
948	-27.66478	-113.10013	-103.33609	67.53461	20.34175	-100.89508	124.49151	240.03265	239.21898	116.35481	6.50936	-48.00653	0
949	-16.2734	-113.10013	-116.35481	65.90727	34.98781	-104.96343	124.49151	239.21898	241.65999	116.35481	1.62734	-49.63387	0
950	-2.44101	-111.47279	-122.86417	64.27993	50.44754	-108.21811	122.0505	236.77797	243.28733	117.98215	-2.44101	-51.26121	0
951	5.69569	-109.03178	-123.67784	62.65259	59.39791	-110.65912	119.60949	235.15063	243.28733	120.42316	-4.06835	-51.26121	0
952	6.50936	-109.84545	-119.60949	61.02525	61.02525	-111.47279	118.79582	236.77797	244.101	124.49151	-2.44101	-49.63387	0
953	0.81367	-110.65912	-114.72747	60.21158	56.14323	-112.28646	119.60949	240.03265	246.54201	129.37353	0.81367	-48.00653	0
954	-6.50936	-109.03178	-108.21811	58.58424	49.63387	-112.28646	121.23683	244.91467	249.79669	133.44188	4.88202	-44.75185	0
955	-11.39138	-105.7771	-102.52242	56.9569	44.75185	-109.84545	124.49151	251.42403	254.67871	138.3239	10.57771	-39.86983	0
956	-13.01872	-104.96343	-97.6404	56.9569	40.6835	-104.96343	127.74619	259.56073	262.81541	145.64693	16.2734	-34.17414	0
957	-13.83239	-104.14976	-89.5037	58.58424	34.98781	-99.26774	131.81454	268.5111	272.57945	153.78363	22.78276	-28.47845	0
958	-15.45973	-103.33609	-79.73966	62.65259	27.66478	-93.57205	136.69656	279.08881	281.52982	159.47932	26.85111	-24.4101	0
959	-19.52808	-104.14976	-74.04397	65.0936	22.78276	-89.5037	140.76491	287.22551	287.22551	163.54767	29.29212	-21.96909	0
960	-23.59643	-103.33609	-69.97562	65.90727	18.71441	-86.24902	142.39225	291.29386	289.66652	163.54767	28.47845	-21.15542	0
961	-26.85111	-101.70875	-67.53461	65.90727	17.08707	-84.62168	142.39225	292.10753	288.85285	161.10666	26.03744	-22.78276	0
962	-25.22377	-100.89508	-71.60296	63.46626	21.15542	-85.43535	139.95124	290.48019	287.22551	156.22464	21.96909	-26.03744	0
963	-17.90074	-100.89508	-80.55333	58.58424	30.91946	-90.31737	138.3239	288.85285	287.22551	151.34262	19.52808	-28.47845	0
964	-9.76404	-100.08141	-88.69003	54.51589	39.05616	-93.57205	138.3239	291.29386	291.29386	148.90161	21.15542	-27.66478	0
965	-6.50936	-97.6404	-90.31737	51.26121	41.49717	-92.75838	139.95124	297.80322	299.43056	151.34262	26.85111	-22.78276	0
966	-8.1367	-93.57205	-84.62168	50.44754	37.42882	-88.69003	144.01959	307.56726	311.63561	156.22464	34.98781	-16.2734	0
967	-13.83239	-90.31737	-74.85764	52.07488	29.29212	-81.367	149.71528	320.58598	326.28167	163.54767	43.12451	-8.95037	0
968	-19.52808	-84.62168	-60.21158	52.88855	18.71441	-75.67131	157.03831	334.41837	340.92773	170.05703	50.44754	-3.25468	0
969	-25.22377	-77.29865	-46.37919	52.88855	8.95037	-71.60296	162.734	345.80975	352.31911	174.93905	54.51589	0	0
970	-26.85111	-71.60296	-39.05616	49.63387	4.88202	-68.34828	164.36134	352.31911	359.64214	179.0074	52.88855	1.62734	0
971	-24.4101	-67.53461	-41.49717	44.75185	5.69569	-65.90727	161.10666	352.31911	362.08315	181.44841	48.8202	1.62734	0
972	-21.96909	-64.27993	-47.19286	38.24249	6.50936	-62.65259	156.22464	350.69177	361.26948	181.44841	44.75185	0	0
973	-18.71441	-58.58424	-49.63387	32.5468	8.1367	-56.9569	153.78363	353.13278	362.08315	183.88942	44.75185	-1.62734	0
974	-12.20505	-53.70222	-49.63387	27.66478	12.20505	-50.44754	157.85198	358.82847	368.59251	190.39878	48.8202	0	0
975	-6.50936	-52.07488	-50.44754	26.03744	17.08707	-47.19286	163.54767	364.52416	378.35655	195.2808	52.07488	0	0
976	1.62734	-52.88855	-56.9569	23.59643	26.85111	-50.44754	165.98868	371.03352	387.30692	198.53548	54.51589	0.81367	0
977	14.64606	-52.07488	-69.16195	16.2734	42.31084	-57.77057	165.98868	377.54288	394.62995	201.79016	57.77057	0	0
978	24.4101	-51.26121	-81.367	8.1367	57.77057	-64.27993	166.80235	384.05224	400.32564	205.04484	61.02525	0	0
979	27.66478	-52.07488	-88.69003	4.88202	64.27993	-66.72094	169.24336	390.5616	405.20766	209.92686	64.27993	0.81367	0
980	27.66478	-53.70222	-89.5037	6.50936	61.83892	-66.72094	170.05703	397.07096	408.46234	214.80888	67.53461	3.25468	0
981	25.22377	-52.07488	-84.62168	8.1367	55.32956	-63.46626	171.68437	403.58032	412.53069	218.87723	71.60296	7.32303	0
982	22.78276	-48.8202	-75.67131	9.76404	48.00653	-58.58424	171.68437	412.53069	418.22638	223.75925	77.29865	12.20505	0
983	20.34175	-43.93818	-65.90727	10.57771	42.31084	-52.07488	170.05703	422.29473	427.17675	230.26861	83.80801	17.90074	0
984	19.52808	-38.24249	-56.9569	8.95037	40.6835	-45.56552	167.61602	432.87244	436.12712	236.77797	88.69003	20.34175	0
985	19.52808	-34.17414	-54.51589	6.50936	42.31084	-42.31084	166.80235	442.63648	445.89116	242.47366	91.94471	21.15542	0
986	18.71441	-30.91946	-52.07488	4.06835	41.49717	-40.6835	168.42969	454.02786	458.09621	248.16935	95.19939	23.59643	0
987	17.90074	-26.85111	-45.56552	3.25468	35.80148	-35.80148	174.12538	468.67392	472.74227	251.42403	98.45407	27.66478	0
988	17.08707	-21.96909	-37.42882	2.44101	26.85111	-30.10579	181.44841	483.31998	484.13365	254.67871	100.08141	32.5468	0
989	15.45973	-16.2734	-31.73313	1.62734	20.34175	-26.03744	187.95777	494.71136	489.01567	254.67871	100.08141	36.61515	0
990	15.45973	-11.39138	-29.29212	0	17.08707	-21.96909	193.65346	501.22072	489.01567	251.42403	98.45407	39.86983	0
991	17.08707	-5.69569	-25.22377	-4.06835	16.2734	-17.08707	200.97649	504.4754	488.202	248.16935	98.45407	41.49717	0
992	18.71441	0	-20.34175	-8.95037	15.45973	-11.39138	208.29952	506.10274	488.202	245.72834	100.89508	42.31084	0
993	18.71441	6.50936	-16.2734	-13.01872	13.83239	-6.50936	213.99521	507.73008	490.64301	246.54201	106.59077	43.93818	0
994	16.2734	13.01872	-13.01872	-17.08707	10.57771	-4.06835	215.62255	510.17109	495.52503	251.42403	113.10013	44.75185	0
995	14.64606	17.08707	-8.95037	-18.71441	8.95037	-0.81367	215.62255	513.42577	502.03439	261.18807	119.60949	47.19286	0
996	14.64606	19.52808	-4.88202	-20.34175	8.95037	2.44101	216.43622	519.12146	510.17109	275.02046	127.74619	51.26121	0
997	15.45973	25.22377	-0.81367	-24.4101	8.95037	8.95037	218.87723	525.63082	516.68045	289.66652	134.25555	56.14323	0
