samplenr	I	II	III	aVR	aVL	aVF	V1	V2	V3	V4	V5	V6	measurement
0	-12.20505	6.50936	19.52808	2.44101	-16.2734	13.01872	10.57771	-23.59643	-34.17414	-21.15542	-5.69569	-0.81367	0
1	-53.70222	26.85111	80.55333	12.20505	-67.53461	54.51589	43.93818	-99.26774	-142.39225	-87.87636	-26.85111	-4.88202	0
2	-107.40444	53.70222	161.92033	26.03744	-135.06922	108.21811	87.06269	-203.4175	-288.85285	-179.0074	-54.51589	-10.57771	0
3	-152.96996	74.04397	227.01393	38.24249	-190.39878	151.34262	118.79582	-293.73487	-412.53069	-255.49238	-79.73966	-16.2734	0
4	-182.26208	83.80801	266.07009	48.00653	-224.57292	174.93905	134.25555	-358.0148	-495.52503	-307.56726	-97.6404	-21.15542	0
5	-196.90814	83.80801	281.52982	54.51589	-239.21898	182.26208	138.3239	-395.44362	-540.27688	-336.85938	-109.03178	-26.85111	0
6	-200.16282	78.11232	278.27514	58.58424	-238.40531	178.19373	135.06922	-412.53069	-555.73661	-348.25076	-115.54114	-31.73313	0
7	-195.2808	69.16195	264.44275	60.21158	-229.45494	166.80235	127.74619	-416.59904	-554.92294	-349.8781	-119.60949	-36.61515	0
8	-187.95777	58.58424	246.54201	62.65259	-217.24989	152.15629	119.60949	-414.15803	-546.78624	-346.62342	-121.23683	-41.49717	0
9	-181.44841	45.56552	227.8276	66.72094	-205.04484	137.51023	113.10013	-408.46234	-534.58119	-340.11406	-122.0505	-46.37919	0
10	-177.38006	33.36047	211.5542	69.97562	-195.2808	122.86417	107.40444	-401.95298	-522.37614	-333.6047	-122.86417	-50.44754	0
11	-174.93905	22.78276	197.72181	72.41663	-186.33043	110.65912	102.52242	-395.44362	-510.98476	-326.28167	-122.86417	-53.70222	0
12	-170.8707	14.64606	185.51676	74.04397	-179.0074	100.89508	98.45407	-389.74793	-500.40705	-320.58598	-122.86417	-56.9569	0
13	-165.17501	8.95037	174.12538	74.85764	-170.05703	91.94471	93.57205	-384.86591	-490.64301	-314.89029	-122.86417	-60.21158	0
14	-157.85198	4.88202	163.54767	74.85764	-161.10666	84.62168	87.87636	-380.79756	-481.69264	-310.00827	-122.86417	-62.65259	0
15	-152.96996	0	152.96996	75.67131	-152.96996	76.48498	82.99434	-375.10187	-473.55594	-305.93992	-124.49151	-65.90727	0
16	-148.90161	-4.88202	143.20592	78.11232	-145.64693	68.34828	78.11232	-368.59251	-463.7919	-301.0579	-125.30518	-68.34828	0
17	-147.27427	-12.20505	134.25555	80.55333	-140.76491	60.21158	74.85764	-361.26948	-454.02786	-296.17588	-125.30518	-70.78929	0
18	-145.64693	-20.34175	124.49151	82.99434	-135.06922	52.07488	72.41663	-353.13278	-442.63648	-290.48019	-125.30518	-72.41663	0
19	-144.01959	-28.47845	114.72747	86.24902	-129.37353	43.12451	69.16195	-343.36874	-428.80409	-283.15716	-124.49151	-74.04397	0
20	-141.57858	-34.98781	105.7771	87.06269	-123.67784	35.80148	67.53461	-331.97736	-413.34436	-274.20679	-122.86417	-74.04397	0
21	-136.69656	-38.24249	97.6404	86.24902	-117.98215	30.10579	67.53461	-319.77231	-397.07096	-263.62908	-119.60949	-72.41663	0
22	-131.00087	-39.86983	90.31737	83.80801	-111.47279	26.03744	65.90727	-308.38093	-381.61123	-254.67871	-117.16848	-70.78929	0
23	-125.30518	-42.31084	82.18067	82.99434	-104.14976	22.78276	63.46626	-300.24423	-368.59251	-247.35568	-114.72747	-70.78929	0
24	-120.42316	-45.56552	75.67131	81.367	-98.45407	19.52808	60.21158	-292.10753	-355.57379	-241.65999	-113.10013	-72.41663	0
25	-115.54114	-48.00653	70.78929	78.92599	-92.75838	16.2734	56.9569	-283.15716	-343.36874	-235.9643	-111.47279	-73.2303	0
26	-109.84545	-51.26121	64.27993	76.48498	-87.06269	11.39138	54.51589	-274.20679	-331.16369	-230.26861	-109.84545	-73.2303	0
27	-103.33609	-53.70222	55.32956	74.04397	-78.92599	4.88202	50.44754	-266.07009	-320.58598	-226.20026	-109.84545	-74.85764	0
28	-94.38572	-54.51589	43.93818	70.78929	-69.16195	-1.62734	47.19286	-257.93339	-310.00827	-222.94558	-109.84545	-76.48498	0
29	-84.62168	-52.88855	32.5468	65.90727	-58.58424	-8.1367	44.75185	-248.16935	-297.80322	-217.24989	-108.21811	-76.48498	0
30	-76.48498	-50.44754	24.4101	61.02525	-49.63387	-11.39138	44.75185	-236.77797	-283.97083	-209.11319	-104.96343	-75.67131	0
31	-71.60296	-48.00653	19.52808	56.9569	-43.93818	-13.01872	44.75185	-226.20026	-270.13844	-200.16282	-100.89508	-74.04397	0
32	-69.97562	-47.19286	17.08707	54.51589	-42.31084	-14.64606	43.93818	-216.43622	-257.11972	-192.02612	-96.82673	-71.60296	0
33	-68.34828	-48.00653	15.45973	54.51589	-41.49717	-16.2734	42.31084	-208.29952	-245.72834	-185.51676	-93.57205	-69.16195	0
34	-66.72094	-49.63387	13.01872	55.32956	-39.05616	-18.71441	40.6835	-200.97649	-235.9643	-180.63474	-91.13104	-67.53461	0
35	-63.46626	-51.26121	8.1367	56.14323	-35.80148	-21.96909	39.05616	-194.46713	-227.8276	-177.38006	-89.5037	-66.72094	0
36	-60.21158	-53.70222	4.06835	56.14323	-31.73313	-24.4101	37.42882	-187.95777	-219.6909	-174.12538	-87.87636	-65.0936	0
37	-56.9569	-55.32956	0	55.32956	-27.66478	-27.66478	35.80148	-182.26208	-212.36787	-170.8707	-85.43535	-64.27993	0
38	-53.70222	-57.77057	-4.06835	54.51589	-24.4101	-30.91946	34.98781	-175.75272	-205.04484	-167.61602	-82.99434	-63.46626	0
39	-50.44754	-59.39791	-8.95037	54.51589	-20.34175	-33.36047	34.17414	-168.42969	-196.09447	-163.54767	-80.55333	-62.65259	0
40	-48.00653	-61.02525	-13.01872	53.70222	-17.08707	-36.61515	33.36047	-161.10666	-187.1441	-158.66565	-78.11232	-61.83892	0
41	-45.56552	-61.83892	-16.2734	53.70222	-14.64606	-38.24249	31.73313	-155.41097	-178.19373	-154.5973	-76.48498	-61.02525	0
42	-43.93818	-62.65259	-18.71441	52.88855	-13.01872	-39.86983	30.10579	-149.71528	-170.8707	-150.52895	-74.04397	-60.21158	0
43	-42.31084	-61.83892	-20.34175	52.07488	-11.39138	-39.86983	27.66478	-144.01959	-163.54767	-146.4606	-72.41663	-59.39791	0
44	-40.6835	-61.83892	-21.15542	50.44754	-9.76404	-40.6835	25.22377	-139.95124	-157.85198	-143.20592	-70.78929	-59.39791	0
45	-38.24249	-61.02525	-22.78276	48.8202	-7.32303	-41.49717	23.59643	-134.25555	-152.96996	-139.95124	-69.97562	-58.58424	0
46	-37.42882	-59.39791	-24.4101	48.00653	-6.50936	-43.12451	22.78276	-127.74619	-148.08794	-137.51023	-68.34828	-56.9569	0
47	-36.61515	-58.58424	-24.4101	46.37919	-5.69569	-43.12451	22.78276	-121.23683	-142.39225	-134.25555	-66.72094	-55.32956	0
48	-35.80148	-58.58424	-25.22377	45.56552	-4.88202	-43.12451	22.78276	-115.54114	-137.51023	-131.81454	-65.0936	-54.51589	0
49	-34.17414	-59.39791	-26.85111	45.56552	-3.25468	-43.93818	21.96909	-109.84545	-132.62821	-129.37353	-63.46626	-53.70222	0
50	-30.10579	-58.58424	-28.47845	43.93818	-0.81367	-43.93818	22.78276	-103.33609	-126.11885	-125.30518	-61.02525	-52.88855	0
51	-26.03744	-56.9569	-30.10579	42.31084	1.62734	-43.93818	22.78276	-96.82673	-119.60949	-120.42316	-57.77057	-51.26121	0
52	-24.4101	-54.51589	-30.10579	40.6835	2.44101	-43.12451	21.96909	-91.94471	-113.9138	-117.16848	-55.32956	-48.8202	0
53	-24.4101	-54.51589	-29.29212	39.05616	2.44101	-42.31084	21.15542	-87.06269	-109.03178	-113.9138	-53.70222	-44.75185	0
54	-25.22377	-55.32956	-29.29212	39.86983	1.62734	-43.12451	20.34175	-83.80801	-105.7771	-111.47279	-52.88855	-40.6835	0
55	-26.03744	-56.14323	-30.10579	40.6835	1.62734	-43.93818	18.71441	-80.55333	-104.14976	-109.84545	-52.88855	-38.24249	0
56	-26.03744	-56.9569	-30.91946	40.6835	2.44101	-45.56552	17.90074	-77.29865	-101.70875	-109.03178	-52.88855	-38.24249	0
57	-24.4101	-56.9569	-33.36047	40.6835	4.88202	-46.37919	17.08707	-74.85764	-100.08141	-107.40444	-52.07488	-40.6835	0
58	-21.96909	-56.14323	-35.80148	39.05616	7.32303	-46.37919	16.2734	-71.60296	-97.6404	-106.59077	-52.07488	-43.93818	0
59	-20.34175	-56.14323	-37.42882	38.24249	8.95037	-47.19286	14.64606	-68.34828	-94.38572	-104.96343	-52.88855	-48.8202	0
60	-20.34175	-56.14323	-38.24249	37.42882	9.76404	-47.19286	13.83239	-63.46626	-91.13104	-103.33609	-52.88855	-51.26121	0
61	-21.15542	-56.9569	-37.42882	38.24249	8.95037	-47.19286	13.01872	-58.58424	-85.43535	-100.08141	-52.88855	-52.88855	0
62	-22.78276	-58.58424	-36.61515	39.86983	8.1367	-46.37919	13.01872	-53.70222	-80.55333	-96.01306	-52.07488	-52.88855	0
63	-23.59643	-60.21158	-36.61515	40.6835	7.32303	-46.37919	12.20505	-50.44754	-77.29865	-92.75838	-50.44754	-53.70222	0
64	-24.4101	-61.83892	-37.42882	42.31084	6.50936	-47.19286	12.20505	-48.00653	-74.85764	-90.31737	-50.44754	-53.70222	0
65	-22.78276	-61.83892	-38.24249	41.49717	7.32303	-48.00653	12.20505	-46.37919	-73.2303	-87.87636	-50.44754	-53.70222	0
66	-18.71441	-58.58424	-39.05616	37.42882	9.76404	-48.00653	12.20505	-44.75185	-69.97562	-86.24902	-49.63387	-52.88855	0
67	-14.64606	-54.51589	-39.86983	33.36047	11.39138	-46.37919	11.39138	-42.31084	-66.72094	-83.80801	-47.19286	-50.44754	0
68	-11.39138	-53.70222	-40.6835	32.5468	12.20505	-46.37919	10.57771	-39.86983	-63.46626	-81.367	-46.37919	-48.8202	0
69	-10.57771	-57.77057	-42.31084	34.17414	12.20505	-49.63387	9.76404	-37.42882	-61.02525	-79.73966	-45.56552	-47.19286	0
70	-12.20505	-63.46626	-45.56552	35.80148	12.20505	-53.70222	9.76404	-35.80148	-59.39791	-78.11232	-46.37919	-48.00653	0
71	-13.01872	-65.90727	-48.00653	34.98781	13.83239	-56.14323	9.76404	-33.36047	-56.14323	-74.85764	-46.37919	-48.8202	0
72	-11.39138	-64.27993	-50.44754	34.17414	16.2734	-56.14323	10.57771	-30.10579	-52.88855	-71.60296	-45.56552	-48.8202	0
73	-8.95037	-61.02525	-50.44754	32.5468	18.71441	-55.32956	9.76404	-27.66478	-48.8202	-67.53461	-45.56552	-48.00653	0
74	-5.69569	-56.9569	-50.44754	29.29212	21.15542	-52.88855	9.76404	-26.03744	-45.56552	-64.27993	-44.75185	-45.56552	0
75	-3.25468	-52.88855	-49.63387	26.85111	22.78276	-51.26121	9.76404	-24.4101	-43.12451	-61.83892	-43.93818	-43.12451	0
76	-2.44101	-51.26121	-49.63387	26.03744	23.59643	-50.44754	9.76404	-23.59643	-41.49717	-60.21158	-43.12451	-42.31084	0
77	-1.62734	-52.07488	-49.63387	26.03744	23.59643	-50.44754	8.1367	-22.78276	-41.49717	-59.39791	-43.93818	-41.49717	0
78	-2.44101	-53.70222	-51.26121	27.66478	24.4101	-52.07488	6.50936	-21.96909	-41.49717	-58.58424	-44.75185	-41.49717	0
79	-2.44101	-56.9569	-53.70222	30.10579	25.22377	-55.32956	4.88202	-20.34175	-40.6835	-56.9569	-44.75185	-42.31084	0
80	-3.25468	-61.83892	-56.14323	32.5468	25.22377	-58.58424	3.25468	-18.71441	-39.05616	-54.51589	-45.56552	-42.31084	0
81	-3.25468	-65.0936	-59.39791	34.17414	26.03744	-61.83892	2.44101	-16.2734	-35.80148	-52.07488	-44.75185	-42.31084	0
82	-2.44101	-66.72094	-61.83892	34.17414	27.66478	-63.46626	1.62734	-13.01872	-32.5468	-48.00653	-43.93818	-41.49717	0
83	-1.62734	-66.72094	-64.27993	33.36047	29.29212	-65.0936	0.81367	-10.57771	-28.47845	-43.93818	-43.12451	-40.6835	0
84	-1.62734	-66.72094	-65.90727	32.5468	31.73313	-65.90727	1.62734	-8.95037	-25.22377	-39.86983	-43.93818	-39.86983	0
85	-1.62734	-66.72094	-66.72094	31.73313	32.5468	-65.90727	3.25468	-7.32303	-22.78276	-37.42882	-44.75185	-39.86983	0
86	-2.44101	-66.72094	-65.0936	32.5468	31.73313	-65.90727	4.88202	-7.32303	-21.96909	-35.80148	-45.56552	-39.05616	0
87	-3.25468	-67.53461	-63.46626	33.36047	30.91946	-65.0936	5.69569	-7.32303	-21.15542	-33.36047	-45.56552	-38.24249	0
88	-3.25468	-66.72094	-62.65259	34.98781	30.10579	-64.27993	6.50936	-6.50936	-19.52808	-30.91946	-45.56552	-37.42882	0
89	-3.25468	-66.72094	-63.46626	34.98781	30.91946	-64.27993	7.32303	-4.88202	-17.08707	-27.66478	-45.56552	-37.42882	0
90	-2.44101	-67.53461	-65.90727	33.36047	32.5468	-66.72094	7.32303	-2.44101	-13.83239	-26.03744	-46.37919	-37.42882	0
91	-1.62734	-68.34828	-67.53461	31.73313	33.36047	-69.16195	6.50936	0	-11.39138	-24.4101	-46.37919	-37.42882	0
92	0	-68.34828	-69.16195	30.10579	34.17414	-70.78929	5.69569	1.62734	-7.32303	-21.15542	-44.75185	-37.42882	0
93	0	-69.97562	-69.97562	30.10579	34.17414	-71.60296	4.88202	4.88202	-3.25468	-17.90074	-43.93818	-36.61515	0
94	0	-71.60296	-71.60296	30.91946	34.98781	-71.60296	4.88202	7.32303	0	-14.64606	-42.31084	-37.42882	0
95	-0.81367	-71.60296	-71.60296	32.5468	34.98781	-72.41663	4.88202	8.1367	2.44101	-11.39138	-41.49717	-39.05616	0
96	-1.62734	-71.60296	-71.60296	34.98781	34.98781	-71.60296	4.06835	8.95037	4.06835	-8.95037	-41.49717	-39.86983	0
97	-2.44101	-72.41663	-71.60296	37.42882	34.98781	-71.60296	2.44101	8.1367	5.69569	-7.32303	-41.49717	-41.49717	0
98	-3.25468	-74.04397	-72.41663	39.05616	34.17414	-72.41663	1.62734	8.1367	6.50936	-5.69569	-42.31084	-43.12451	0
99	-3.25468	-76.48498	-73.2303	41.49717	34.17414	-74.04397	0	8.95037	7.32303	-4.88202	-43.12451	-43.93818	0
100	-4.06835	-80.55333	-75.67131	43.12451	34.17414	-77.29865	0	9.76404	9.76404	-3.25468	-43.93818	-43.93818	1000	P+0
101	-4.06835	-82.99434	-78.11232	43.93818	36.61515	-80.55333	0	12.20505	12.20505	-2.44101	-44.75185	-44.75185	0
102	-0.81367	-84.62168	-80.55333	43.12451	39.05616	-82.99434	-0.81367	14.64606	15.45973	-0.81367	-44.75185	-43.93818	0
103	1.62734	-83.80801	-82.99434	40.6835	41.49717	-83.80801	-1.62734	17.08707	18.71441	0.81367	-44.75185	-43.93818	0
104	4.88202	-82.18067	-85.43535	38.24249	43.93818	-84.62168	-1.62734	19.52808	22.78276	3.25468	-43.93818	-43.12451	0
105	7.32303	-81.367	-87.87636	36.61515	46.37919	-84.62168	-2.44101	21.15542	25.22377	4.88202	-43.12451	-43.12451	0
106	8.1367	-80.55333	-88.69003	35.80148	47.19286	-84.62168	-3.25468	21.15542	26.03744	4.88202	-43.12451	-43.12451	0
107	8.1367	-82.18067	-89.5037	35.80148	48.00653	-85.43535	-5.69569	19.52808	26.03744	4.88202	-43.93818	-44.75185	0
108	6.50936	-83.80801	-90.31737	37.42882	48.00653	-87.06269	-7.32303	17.90074	26.03744	4.06835	-43.93818	-46.37919	0
109	6.50936	-83.80801	-91.13104	38.24249	48.8202	-87.06269	-8.95037	18.71441	26.85111	4.88202	-44.75185	-46.37919	0
110	8.1367	-82.18067	-91.94471	38.24249	49.63387	-87.06269	-8.95037	21.96909	30.10579	7.32303	-44.75185	-45.56552	0
111	10.57771	-80.55333	-93.57205	37.42882	52.07488	-87.87636	-8.95037	24.4101	33.36047	9.76404	-43.93818	-44.75185	0
112	13.01872	-78.92599	-96.82673	35.80148	54.51589	-89.5037	-9.76404	26.85111	35.80148	11.39138	-43.93818	-43.93818	0
113	13.83239	-79.73966	-99.26774	34.98781	56.14323	-91.13104	-9.76404	27.66478	37.42882	13.83239	-43.93818	-43.93818	0
114	14.64606	-82.18067	-101.70875	34.98781	57.77057	-92.75838	-10.57771	26.85111	38.24249	15.45973	-43.93818	-43.12451	0
115	13.83239	-85.43535	-103.33609	34.98781	58.58424	-95.19939	-11.39138	26.03744	39.05616	16.2734	-43.93818	-43.93818	0
116	12.20505	-88.69003	-103.33609	36.61515	57.77057	-96.01306	-13.01872	24.4101	39.05616	16.2734	-43.93818	-44.75185	0
117	9.76404	-91.13104	-100.89508	39.05616	54.51589	-96.01306	-15.45973	22.78276	39.05616	16.2734	-43.93818	-44.75185	0
118	7.32303	-93.57205	-100.08141	39.86983	52.07488	-96.82673	-16.2734	21.15542	38.24249	16.2734	-43.93818	-44.75185	0
119	7.32303	-93.57205	-100.08141	39.05616	52.88855	-96.82673	-17.08707	21.96909	38.24249	16.2734	-43.93818	-44.75185	0
120	11.39138	-91.94471	-101.70875	37.42882	55.32956	-96.01306	-17.08707	24.4101	39.86983	17.90074	-43.93818	-44.75185	0
121	15.45973	-90.31737	-104.14976	34.98781	58.58424	-96.01306	-16.2734	26.03744	41.49717	19.52808	-44.75185	-44.75185	0
122	19.52808	-88.69003	-105.7771	33.36047	61.83892	-96.01306	-17.08707	27.66478	43.12451	20.34175	-44.75185	-44.75185	0
123	21.15542	-87.87636	-107.40444	32.5468	63.46626	-96.01306	-17.08707	29.29212	43.93818	21.96909	-43.93818	-43.93818	0
124	20.34175	-88.69003	-108.21811	32.5468	65.0936	-96.82673	-17.90074	29.29212	45.56552	23.59643	-43.93818	-44.75185	0
125	19.52808	-88.69003	-109.03178	33.36047	65.90727	-97.6404	-18.71441	27.66478	45.56552	25.22377	-43.93818	-44.75185	0
126	18.71441	-89.5037	-108.21811	34.17414	65.0936	-98.45407	-19.52808	26.03744	44.75185	26.03744	-43.93818	-45.56552	0
127	17.08707	-87.87636	-105.7771	34.17414	62.65259	-96.82673	-21.15542	22.78276	43.93818	26.03744	-43.12451	-44.75185	0
128	15.45973	-84.62168	-100.89508	34.17414	58.58424	-91.94471	-22.78276	20.34175	43.12451	25.22377	-42.31084	-43.93818	0
129	13.01872	-79.73966	-93.57205	33.36047	53.70222	-86.24902	-24.4101	18.71441	42.31084	23.59643	-42.31084	-44.75185	0
130	11.39138	-74.85764	-86.24902	31.73313	48.8202	-80.55333	-26.85111	17.08707	40.6835	21.96909	-43.93818	-45.56552	0
131	10.57771	-71.60296	-81.367	30.91946	45.56552	-76.48498	-29.29212	16.2734	39.86983	19.52808	-45.56552	-47.19286	0
132	12.20505	-67.53461	-78.92599	27.66478	44.75185	-73.2303	-31.73313	16.2734	39.05616	18.71441	-48.00653	-49.63387	0
133	15.45973	-63.46626	-78.11232	23.59643	44.75185	-69.97562	-33.36047	16.2734	39.86983	17.90074	-49.63387	-51.26121	0
134	17.90074	-61.02525	-78.92599	20.34175	45.56552	-69.16195	-34.98781	15.45973	41.49717	17.08707	-51.26121	-53.70222	0
135	18.71441	-60.21158	-78.92599	19.52808	46.37919	-69.16195	-37.42882	13.83239	41.49717	15.45973	-53.70222	-55.32956	0
136	17.90074	-60.21158	-78.92599	19.52808	46.37919	-69.16195	-40.6835	11.39138	39.86983	13.83239	-55.32956	-56.9569	0
137	16.2734	-61.02525	-78.11232	20.34175	46.37919	-69.16195	-43.12451	8.1367	38.24249	12.20505	-56.14323	-57.77057	0
138	14.64606	-61.02525	-76.48498	21.15542	45.56552	-68.34828	-45.56552	7.32303	37.42882	11.39138	-56.9569	-56.9569	0
139	14.64606	-60.21158	-75.67131	20.34175	45.56552	-67.53461	-47.19286	8.1367	36.61515	10.57771	-56.9569	-56.9569	0
140	15.45973	-59.39791	-75.67131	19.52808	45.56552	-67.53461	-47.19286	11.39138	37.42882	9.76404	-56.14323	-56.9569	0
141	17.08707	-57.77057	-76.48498	18.71441	47.19286	-68.34828	-47.19286	14.64606	38.24249	10.57771	-56.14323	-56.9569	0
142	18.71441	-57.77057	-78.92599	18.71441	48.8202	-69.16195	-46.37919	18.71441	39.05616	11.39138	-56.14323	-56.9569	0
143	18.71441	-60.21158	-81.367	19.52808	49.63387	-70.78929	-45.56552	21.15542	40.6835	12.20505	-56.9569	-58.58424	0
144	15.45973	-64.27993	-82.18067	21.15542	48.8202	-73.2303	-44.75185	22.78276	42.31084	13.01872	-57.77057	-60.21158	0
145	10.57771	-67.53461	-81.367	23.59643	48.00653	-74.04397	-43.93818	23.59643	43.93818	13.83239	-58.58424	-60.21158	0
146	8.95037	-66.72094	-79.73966	23.59643	46.37919	-72.41663	-43.12451	23.59643	43.93818	14.64606	-57.77057	-60.21158	0
147	11.39138	-61.02525	-78.11232	20.34175	46.37919	-70.78929	-43.93818	22.78276	43.93818	14.64606	-58.58424	-60.21158	0
148	13.83239	-56.14323	-76.48498	16.2734	47.19286	-68.34828	-45.56552	21.15542	42.31084	14.64606	-58.58424	-59.39791	0
149	16.2734	-52.88855	-75.67131	14.64606	48.00653	-65.90727	-45.56552	21.96909	42.31084	14.64606	-59.39791	-59.39791	0
150	17.08707	-52.88855	-74.85764	14.64606	48.00653	-65.0936	-45.56552	23.59643	42.31084	14.64606	-60.21158	-59.39791	0
151	17.08707	-56.14323	-76.48498	15.45973	48.8202	-66.72094	-45.56552	26.85111	43.12451	13.83239	-61.02525	-61.02525	0
152	17.08707	-60.21158	-79.73966	17.08707	49.63387	-68.34828	-44.75185	29.29212	45.56552	13.83239	-61.83892	-61.83892	0
153	18.71441	-62.65259	-85.43535	17.08707	53.70222	-71.60296	-44.75185	31.73313	48.00653	13.83239	-62.65259	-62.65259	0
154	21.15542	-63.46626	-90.31737	17.08707	56.9569	-74.04397	-43.12451	33.36047	50.44754	15.45973	-62.65259	-63.46626	0
155	22.78276	-63.46626	-91.13104	17.08707	56.9569	-75.67131	-40.6835	34.98781	52.07488	17.08707	-61.02525	-62.65259	0
156	21.96909	-61.83892	-90.31737	17.08707	54.51589	-76.48498	-39.05616	35.80148	53.70222	18.71441	-58.58424	-61.83892	0
157	21.15542	-61.83892	-89.5037	17.90074	52.88855	-76.48498	-39.05616	34.98781	53.70222	19.52808	-56.9569	-60.21158	0
158	20.34175	-62.65259	-87.87636	19.52808	52.07488	-75.67131	-39.86983	34.17414	52.07488	18.71441	-56.9569	-58.58424	0
159	19.52808	-63.46626	-86.24902	20.34175	52.07488	-75.67131	-40.6835	34.17414	51.26121	17.08707	-57.77057	-57.77057	0
160	19.52808	-65.0936	-86.24902	21.15542	52.07488	-75.67131	-40.6835	35.80148	51.26121	15.45973	-58.58424	-58.58424	0
161	19.52808	-66.72094	-87.06269	22.78276	52.88855	-77.29865	-40.6835	37.42882	52.07488	14.64606	-60.21158	-59.39791	0
162	18.71441	-69.97562	-89.5037	25.22377	52.88855	-78.92599	-40.6835	39.05616	53.70222	14.64606	-61.83892	-61.02525	0
163	16.2734	-74.85764	-90.31737	28.47845	52.07488	-81.367	-40.6835	41.49717	55.32956	14.64606	-62.65259	-61.83892	0
164	13.83239	-78.11232	-90.31737	31.73313	50.44754	-82.99434	-38.24249	43.93818	57.77057	16.2734	-62.65259	-62.65259	0
165	13.01872	-77.29865	-87.87636	32.5468	48.00653	-82.18067	-35.80148	45.56552	60.21158	17.90074	-61.83892	-61.02525	0
166	11.39138	-74.04397	-83.80801	30.91946	45.56552	-78.92599	-34.17414	45.56552	61.83892	18.71441	-60.21158	-59.39791	0
167	9.76404	-70.78929	-79.73966	29.29212	43.93818	-74.85764	-34.17414	45.56552	61.83892	20.34175	-59.39791	-56.9569	0
168	8.1367	-68.34828	-76.48498	29.29212	41.49717	-72.41663	-35.80148	44.75185	61.83892	20.34175	-59.39791	-55.32956	0
169	7.32303	-67.53461	-75.67131	28.47845	41.49717	-70.78929	-37.42882	43.93818	61.02525	19.52808	-60.21158	-55.32956	0
170	8.1367	-67.53461	-77.29865	27.66478	43.12451	-72.41663	-38.24249	44.75185	60.21158	17.90074	-61.83892	-56.14323	0
171	10.57771	-67.53461	-80.55333	26.85111	46.37919	-74.85764	-39.05616	45.56552	60.21158	15.45973	-63.46626	-57.77057	0
172	13.83239	-69.16195	-85.43535	26.85111	49.63387	-78.11232	-39.05616	46.37919	60.21158	14.64606	-65.0936	-59.39791	0
173	16.2734	-70.78929	-88.69003	26.85111	52.07488	-79.73966	-37.42882	48.00653	61.83892	15.45973	-65.90727	-61.02525	0
174	17.08707	-73.2303	-90.31737	28.47845	52.07488	-81.367	-35.80148	49.63387	64.27993	16.2734	-67.53461	-62.65259	0
175	16.2734	-74.85764	-89.5037	29.29212	50.44754	-81.367	-33.36047	50.44754	66.72094	17.08707	-67.53461	-63.46626	0
176	14.64606	-72.41663	-86.24902	28.47845	48.8202	-78.92599	-31.73313	51.26121	67.53461	17.90074	-66.72094	-61.02525	0
177	15.45973	-66.72094	-82.18067	25.22377	47.19286	-74.04397	-30.10579	51.26121	68.34828	20.34175	-65.0936	-58.58424	0
178	17.90074	-58.58424	-76.48498	19.52808	46.37919	-67.53461	-26.85111	54.51589	69.97562	23.59643	-63.46626	-54.51589	0
179	21.15542	-49.63387	-70.78929	13.83239	45.56552	-60.21158	-22.78276	60.21158	73.2303	26.85111	-60.21158	-51.26121	0
180	24.4101	-42.31084	-65.90727	7.32303	45.56552	-52.88855	-17.90074	67.53461	77.29865	30.10579	-57.77057	-48.00653	0
181	26.03744	-38.24249	-62.65259	4.06835	45.56552	-48.8202	-13.01872	74.85764	81.367	33.36047	-56.14323	-46.37919	0
182	26.03744	-34.98781	-61.02525	2.44101	45.56552	-46.37919	-8.95037	82.18067	85.43535	35.80148	-55.32956	-46.37919	0
183	26.85111	-30.91946	-59.39791	0	47.19286	-43.93818	-4.06835	87.87636	90.31737	39.05616	-54.51589	-45.56552	0
184	26.03744	-24.4101	-57.77057	-4.06835	47.19286	-39.86983	0	91.94471	94.38572	43.12451	-52.88855	-43.93818	0
185	25.22377	-17.90074	-52.88855	-6.50936	44.75185	-34.17414	4.88202	95.19939	97.6404	46.37919	-51.26121	-42.31084	0
186	23.59643	-14.64606	-45.56552	-5.69569	38.24249	-29.29212	8.95037	95.19939	99.26774	49.63387	-48.8202	-39.86983	0
187	22.78276	-12.20505	-38.24249	-4.06835	30.91946	-25.22377	11.39138	95.19939	99.26774	51.26121	-48.00653	-37.42882	0
188	21.96909	-10.57771	-33.36047	-4.06835	26.85111	-21.96909	12.20505	95.19939	98.45407	52.07488	-47.19286	-36.61515	0
189	23.59643	-8.1367	-32.5468	-4.88202	26.85111	-21.15542	11.39138	96.01306	97.6404	51.26121	-47.19286	-35.80148	0
190	26.85111	-5.69569	-34.98781	-7.32303	30.10579	-21.96909	9.76404	99.26774	99.26774	52.07488	-47.19286	-36.61515	0
191	31.73313	-3.25468	-38.24249	-11.39138	34.17414	-22.78276	8.1367	102.52242	101.70875	53.70222	-46.37919	-35.80148	0
192	37.42882	-1.62734	-42.31084	-15.45973	39.86983	-23.59643	6.50936	105.7771	105.7771	56.9569	-44.75185	-34.17414	0
193	43.12451	0	-44.75185	-21.15542	43.12451	-21.96909	5.69569	109.03178	110.65912	61.02525	-42.31084	-32.5468	0
194	47.19286	4.88202	-42.31084	-26.03744	43.93818	-17.08707	5.69569	111.47279	114.72747	65.90727	-39.05616	-29.29212	0
195	48.00653	13.01872	-34.98781	-30.91946	40.6835	-9.76404	4.06835	109.84545	117.16848	69.97562	-34.98781	-25.22377	0
196	47.19286	21.15542	-26.03744	-35.80148	36.61515	-1.62734	0	104.96343	117.16848	72.41663	-30.10579	-20.34175	0
197	45.56552	28.47845	-17.90074	-39.86983	31.73313	5.69569	-6.50936	98.45407	115.54114	73.2303	-26.85111	-15.45973	0
198	44.75185	34.98781	-10.57771	-42.31084	28.47845	11.39138	-16.2734	92.75838	113.10013	73.2303	-24.4101	-11.39138	0
199	45.56552	39.86983	-5.69569	-44.75185	26.03744	16.2734	-26.03744	89.5037	111.47279	73.2303	-21.96909	-7.32303	0
200	47.19286	43.93818	-3.25468	-47.19286	26.03744	19.52808	-34.17414	88.69003	111.47279	74.85764	-19.52808	-2.44101	0
201	52.07488	45.56552	-5.69569	-50.44754	29.29212	19.52808	-40.6835	88.69003	113.10013	77.29865	-17.08707	0	0
202	59.39791	45.56552	-13.83239	-53.70222	36.61515	15.45973	-47.19286	89.5037	114.72747	79.73966	-15.45973	2.44101	0
203	69.16195	43.12451	-26.03744	-56.9569	47.19286	9.76404	-52.88855	91.13104	117.16848	82.18067	-13.83239	4.06835	0
204	80.55333	39.05616	-39.86983	-61.02525	59.39791	1.62734	-59.39791	91.13104	118.79582	84.62168	-11.39138	5.69569	0
205	89.5037	35.80148	-52.07488	-64.27993	69.97562	-6.50936	-66.72094	87.87636	117.98215	85.43535	-10.57771	8.1367	0
206	95.19939	32.5468	-61.83892	-65.90727	77.29865	-13.01872	-74.04397	80.55333	112.28646	83.80801	-10.57771	8.95037	0
207	97.6404	29.29212	-67.53461	-65.0936	79.73966	-17.90074	-82.18067	69.16195	104.96343	78.92599	-12.20505	8.1367	0
208	96.01306	26.03744	-69.97562	-62.65259	80.55333	-21.15542	-89.5037	56.9569	95.19939	72.41663	-15.45973	7.32303	0
209	93.57205	23.59643	-69.16195	-59.39791	79.73966	-22.78276	-93.57205	46.37919	85.43535	63.46626	-19.52808	4.88202	0
210	91.13104	19.52808	-70.78929	-56.9569	79.73966	-25.22377	-94.38572	39.05616	78.11232	55.32956	-24.4101	3.25468	0
211	89.5037	14.64606	-76.48498	-55.32956	82.99434	-30.91946	-91.94471	36.61515	74.04397	50.44754	-28.47845	0.81367	0
212	89.5037	9.76404	-83.80801	-54.51589	87.06269	-38.24249	-87.87636	39.05616	74.85764	49.63387	-30.10579	-0.81367	0
213	89.5037	5.69569	-91.13104	-52.07488	91.13104	-44.75185	-82.18067	45.56552	80.55333	53.70222	-29.29212	-1.62734	0
214	90.31737	1.62734	-97.6404	-48.00653	95.19939	-48.8202	-77.29865	52.88855	87.06269	59.39791	-26.03744	-1.62734	0
215	89.5037	-1.62734	-100.08141	-43.93818	96.82673	-52.07488	-69.97562	58.58424	93.57205	64.27993	-23.59643	-0.81367	0
216	85.43535	-8.1367	-100.08141	-39.05616	94.38572	-54.51589	-61.83892	61.83892	96.82673	65.90727	-24.4101	-2.44101	0
217	74.85764	-17.08707	-95.19939	-29.29212	86.24902	-56.14323	-53.70222	63.46626	95.19939	63.46626	-29.29212	-7.32303	0
218	60.21158	-28.47845	-90.31737	-16.2734	75.67131	-59.39791	-48.00653	61.83892	90.31737	57.77057	-37.42882	-15.45973	0
219	44.75185	-39.86983	-85.43535	-2.44101	65.90727	-62.65259	-43.93818	60.21158	83.80801	49.63387	-45.56552	-25.22377	0
220	31.73313	-52.07488	-84.62168	8.95037	58.58424	-68.34828	-41.49717	58.58424	76.48498	41.49717	-54.51589	-34.98781	0
221	20.34175	-65.0936	-86.24902	21.15542	54.51589	-75.67131	-41.49717	56.14323	69.16195	32.5468	-64.27993	-45.56552	0
222	10.57771	-78.11232	-89.5037	33.36047	52.07488	-83.80801	-41.49717	52.07488	62.65259	22.78276	-74.04397	-56.9569	0
223	4.06835	-90.31737	-96.01306	42.31084	51.26121	-91.94471	-41.49717	47.19286	56.9569	14.64606	-82.99434	-66.72094	0
224	2.44101	-96.82673	-100.89508	46.37919	52.07488	-97.6404	-40.6835	43.93818	52.88855	10.57771	-88.69003	-73.2303	0
225	4.06835	-98.45407	-104.14976	46.37919	52.07488	-100.08141	-39.86983	42.31084	51.26121	8.1367	-91.13104	-76.48498	0
226	4.88202	-97.6404	-102.52242	44.75185	52.07488	-99.26774	-39.05616	39.86983	50.44754	7.32303	-91.13104	-76.48498	0
227	4.06835	-96.01306	-100.08141	44.75185	51.26121	-96.82673	-39.86983	37.42882	48.8202	6.50936	-90.31737	-75.67131	0
228	3.25468	-93.57205	-96.82673	43.93818	51.26121	-94.38572	-40.6835	34.98781	48.00653	5.69569	-89.5037	-74.85764	0
229	2.44101	-91.94471	-95.19939	43.12451	51.26121	-93.57205	-42.31084	34.17414	47.19286	4.06835	-88.69003	-74.04397	0
230	1.62734	-93.57205	-96.82673	44.75185	51.26121	-95.19939	-43.12451	34.17414	46.37919	1.62734	-89.5037	-74.85764	0
231	0	-96.82673	-99.26774	47.19286	51.26121	-98.45407	-43.12451	34.98781	46.37919	0	-89.5037	-75.67131	0
232	-0.81367	-101.70875	-101.70875	50.44754	50.44754	-101.70875	-42.31084	35.80148	46.37919	-1.62734	-90.31737	-77.29865	1500	QRS+0
233	-2.44101	-106.59077	-104.96343	53.70222	51.26121	-104.96343	-41.49717	36.61515	48.00653	-2.44101	-91.94471	-78.92599	0
234	-3.25468	-111.47279	-108.21811	56.9569	51.26121	-109.03178	-39.86983	37.42882	48.8202	-4.06835	-93.57205	-80.55333	0
235	-3.25468	-113.9138	-110.65912	57.77057	52.07488	-111.47279	-38.24249	37.42882	48.8202	-5.69569	-95.19939	-82.99434	0
236	-3.25468	-113.9138	-109.03178	56.9569	52.07488	-111.47279	-36.61515	35.80148	48.8202	-6.50936	-96.01306	-82.99434	0
237	-2.44101	-111.47279	-104.96343	56.14323	50.44754	-109.03178	-35.80148	34.17414	49.63387	-7.32303	-95.19939	-81.367	0
238	-2.44101	-108.21811	-100.08141	54.51589	48.00653	-105.7771	-34.98781	33.36047	50.44754	-8.1367	-94.38572	-79.73966	0
239	-3.25468	-104.96343	-96.82673	53.70222	46.37919	-102.52242	-34.98781	34.17414	51.26121	-9.76404	-94.38572	-78.92599	0
240	-6.50936	-104.96343	-96.01306	55.32956	44.75185	-100.89508	-34.98781	35.80148	52.07488	-12.20505	-94.38572	-79.73966	0
241	-8.95037	-108.21811	-97.6404	58.58424	43.93818	-100.89508	-34.17414	37.42882	52.88855	-14.64606	-96.01306	-80.55333	0
242	-11.39138	-111.47279	-99.26774	61.02525	43.93818	-102.52242	-34.17414	39.05616	53.70222	-17.08707	-96.82673	-82.18067	0
243	-13.83239	-114.72747	-101.70875	63.46626	43.12451	-104.14976	-33.36047	40.6835	55.32956	-17.90074	-96.82673	-82.99434	0
244	-15.45973	-117.16848	-102.52242	65.90727	42.31084	-106.59077	-32.5468	42.31084	56.9569	-18.71441	-96.82673	-83.80801	0
245	-17.90074	-117.98215	-100.89508	68.34828	40.6835	-107.40444	-30.10579	43.93818	57.77057	-19.52808	-96.82673	-83.80801	0
246	-21.96909	-117.16848	-95.19939	69.16195	35.80148	-104.96343	-25.22377	44.75185	56.14323	-21.15542	-97.6404	-83.80801	0
247	-29.29212	-113.10013	-82.99434	69.97562	26.03744	-97.6404	-20.34175	39.86983	50.44754	-26.03744	-98.45407	-82.99434	0
248	-39.86983	-102.52242	-62.65259	69.97562	10.57771	-82.18067	-14.64606	25.22377	36.61515	-34.17414	-100.08141	-81.367	0
249	-53.70222	-84.62168	-30.10579	67.53461	-10.57771	-56.9569	-7.32303	-4.88202	12.20505	-47.19286	-99.26774	-75.67131	0
250	-69.16195	-56.9569	12.20505	61.83892	-39.86983	-21.96909	0	-56.9569	-23.59643	-64.27993	-96.01306	-65.90727	0
251	-84.62168	-25.22377	59.39791	54.51589	-71.60296	16.2734	4.06835	-127.74619	-69.97562	-82.18067	-88.69003	-52.07488	0
252	-97.6404	4.06835	102.52242	46.37919	-100.89508	53.70222	8.95037	-211.5542	-125.30518	-100.08141	-78.92599	-35.80148	0
253	-105.7771	28.47845	139.95124	40.6835	-126.11885	85.43535	16.2734	-297.80322	-183.07575	-114.72747	-65.0936	-17.08707	0
254	-112.28646	51.26121	170.8707	32.5468	-145.64693	112.28646	26.85111	-379.98389	-236.77797	-119.60949	-44.75185	4.06835	0
255	-113.10013	78.11232	197.72181	18.71441	-158.66565	139.13757	39.05616	-455.6552	-278.27514	-109.84545	-14.64606	34.98781	0
256	-104.96343	116.35481	225.38659	-4.88202	-167.61602	171.68437	49.63387	-531.32651	-306.75359	-88.69003	30.10579	75.67131	0
257	-90.31737	164.36134	256.30605	-37.42882	-174.12538	210.74053	50.44754	-628.96691	-335.23204	-65.90727	87.87636	127.74619	0
258	-72.41663	215.62255	288.85285	-71.60296	-180.63474	252.2377	24.4101	-787.63256	-394.62995	-47.19286	148.90161	186.33043	0
259	-53.70222	263.62908	318.14497	-105.7771	-184.70309	290.48019	-42.31084	-1025.2242	-510.17109	-49.63387	204.23117	247.35568	0
260	-26.85111	312.44928	339.30039	-143.20592	-182.26208	326.28167	-153.78363	-1321.40008	-676.97344	-84.62168	254.67871	310.00827	0
261	10.57771	369.40618	358.0148	-190.39878	-172.49804	363.71049	-305.93992	-1641.17239	-868.18589	-135.88289	305.93992	379.17022	0
262	59.39791	438.56813	377.54288	-249.79669	-158.66565	398.6983	-496.3387	-1957.69002	-1051.26164	-179.0074	367.77884	458.09621	0
263	120.42316	514.23944	393.00261	-318.14497	-135.88289	423.92207	-720.09795	-2244.91553	-1199.34958	-208.29952	440.19547	545.97257	0
264	195.2808	576.89203	379.98389	-382.4249	-92.75838	439.3818	-961.75794	-2475.18414	-1292.92163	-220.50457	514.23944	628.15324	0
265	282.34349	595.60644	311.63561	-426.36308	-14.64606	420.66739	-1200.16325	-2624.89942	-1327.09577	-219.6909	567.94166	684.29647	0
266	374.2882	555.73661	180.63474	-448.33217	96.01306	346.62342	-1395.44405	-2679.41531	-1305.94035	-216.43622	587.46974	699.7562	0
267	461.35089	473.55594	11.39138	-453.21419	223.75925	231.89595	-1517.49455	-2638.73181	-1235.96473	-208.29952	576.89203	680.22812	0
268	536.20853	376.72921	-159.47932	-447.5185	338.48672	104.96343	-1572.82411	-2514.2403	-1119.60992	-182.26208	554.10927	643.61297	0
269	590.72442	289.66652	-300.24423	-436.12712	417.41271	-4.88202	-1573.63778	-2319.77317	-959.31693	-130.1872	535.39486	605.37048	0
270	611.06617	225.38659	-385.67958	-417.41271	461.35089	-77.29865	-1519.12189	-2070.79015	-765.66347	-53.70222	522.37614	571.19634	0
271	590.72442	185.51676	-405.20766	-388.12059	466.23291	-107.40444	-1408.46277	-1781.12363	-562.24597	24.4101	503.66173	536.20853	0
272	533.76752	161.10666	-373.47453	-348.25076	432.87244	-104.14976	-1252.23813	-1471.11536	-381.61123	78.11232	464.60557	490.64301	0
273	452.40052	140.76491	-312.44928	-297.80322	371.84719	-83.80801	-1066.72137	-1168.43012	-248.16935	88.69003	394.62995	425.54941	0
274	358.82847	117.16848	-242.47366	-240.03265	296.98955	-60.21158	-871.44057	-893.40966	-168.42969	57.77057	299.43056	344.18241	0
275	266.07009	91.94471	-174.93905	-180.63474	219.6909	-41.49717	-682.66913	-656.63169	-129.37353	8.95037	196.09447	256.30605	0
276	186.33043	68.34828	-118.79582	-129.37353	153.78363	-27.66478	-514.23944	-458.09621	-109.03178	-31.73313	104.14976	177.38006	0
277	126.93252	48.00653	-78.92599	-89.5037	104.96343	-18.71441	-373.47453	-295.36221	-88.69003	-56.9569	39.05616	115.54114	0
278	87.06269	30.91946	-56.14323	-60.21158	73.2303	-15.45973	-262.00174	-158.66565	-54.51589	-62.65259	0.81367	74.04397	0
279	62.65259	13.83239	-48.00653	-39.05616	56.9569	-18.71441	-174.93905	-43.12451	-8.1367	-51.26121	-17.90074	46.37919	0
280	48.00653	-1.62734	-49.63387	-23.59643	51.26121	-26.85111	-109.03178	52.07488	43.12451	-30.10579	-25.22377	27.66478	0
281	41.49717	-17.08707	-57.77057	-12.20505	52.07488	-38.24249	-61.02525	129.37353	88.69003	-8.1367	-29.29212	13.83239	0
282	37.42882	-30.91946	-65.90727	-3.25468	55.32956	-49.63387	-27.66478	186.33043	122.0505	7.32303	-32.5468	3.25468	0
283	34.17414	-43.93818	-72.41663	3.25468	56.9569	-59.39791	-4.06835	225.38659	143.20592	17.08707	-37.42882	-5.69569	0
284	31.73313	-53.70222	-78.11232	8.95037	58.58424	-65.90727	12.20505	250.61036	157.85198	23.59643	-42.31084	-13.01872	0
285	30.10579	-59.39791	-81.367	11.39138	58.58424	-69.97562	23.59643	266.07009	170.05703	27.66478	-46.37919	-18.71441	0
286	27.66478	-61.83892	-83.80801	13.83239	57.77057	-72.41663	31.73313	275.83413	177.38006	30.10579	-49.63387	-23.59643	0
287	23.59643	-62.65259	-83.80801	17.08707	53.70222	-72.41663	39.05616	283.97083	181.44841	32.5468	-53.70222	-28.47845	0
288	15.45973	-65.0936	-82.99434	22.78276	48.8202	-71.60296	46.37919	294.54854	183.88942	33.36047	-56.9569	-32.5468	0
289	8.1367	-68.34828	-80.55333	28.47845	45.56552	-71.60296	53.70222	306.75359	189.58511	35.80148	-59.39791	-35.80148	0
290	3.25468	-70.78929	-79.73966	32.5468	43.93818	-73.2303	58.58424	318.95864	200.97649	43.12451	-60.21158	-38.24249	0
291	4.06835	-72.41663	-80.55333	33.36047	43.93818	-75.67131	61.02525	328.72268	219.6909	57.77057	-58.58424	-39.05616	0
292	8.1367	-73.2303	-83.80801	32.5468	45.56552	-77.29865	61.02525	337.67305	243.28733	75.67131	-54.51589	-38.24249	0
293	12.20505	-74.04397	-87.87636	30.91946	48.00653	-79.73966	60.21158	346.62342	266.88376	93.57205	-49.63387	-37.42882	0
294	14.64606	-76.48498	-91.13104	30.91946	50.44754	-82.18067	60.21158	353.94645	285.59817	109.03178	-46.37919	-37.42882	0
295	14.64606	-78.11232	-91.13104	31.73313	52.88855	-83.80801	61.83892	360.45581	298.61689	119.60949	-43.93818	-37.42882	0
296	14.64606	-74.85764	-87.87636	29.29212	52.07488	-80.55333	65.0936	366.96517	308.38093	127.74619	-40.6835	-35.80148	0
297	15.45973	-68.34828	-82.99434	25.22377	48.8202	-75.67131	68.34828	373.47453	315.70396	135.06922	-38.24249	-33.36047	0
298	16.2734	-61.02525	-77.29865	21.15542	45.56552	-69.16195	70.78929	379.98389	319.77231	140.76491	-37.42882	-30.91946	0
299	16.2734	-56.9569	-73.2303	19.52808	43.93818	-65.90727	73.2303	386.49325	321.39965	144.01959	-38.24249	-30.91946	0
300	14.64606	-57.77057	-73.2303	20.34175	43.93818	-65.90727	74.85764	392.18894	321.39965	145.64693	-41.49717	-33.36047	0
301	14.64606	-61.02525	-76.48498	22.78276	45.56552	-68.34828	75.67131	396.25729	320.58598	147.27427	-45.56552	-36.61515	0
302	13.83239	-66.72094	-80.55333	26.03744	47.19286	-73.2303	75.67131	401.13931	322.21332	148.90161	-48.8202	-39.05616	0
303	13.83239	-71.60296	-85.43535	28.47845	48.8202	-77.29865	77.29865	406.835	326.28167	152.96996	-50.44754	-41.49717	0
304	14.64606	-72.41663	-87.87636	28.47845	49.63387	-78.92599	78.92599	411.71702	331.16369	158.66565	-49.63387	-41.49717	-1500	QRS-0
305	17.08707	-70.78929	-87.87636	25.22377	50.44754	-78.11232	82.18067	416.59904	336.85938	164.36134	-48.00653	-39.86983	0
306	19.52808	-65.90727	-85.43535	21.15542	50.44754	-74.85764	85.43535	419.85372	340.92773	170.05703	-44.75185	-36.61515	0
307	21.15542	-61.83892	-82.99434	18.71441	49.63387	-71.60296	86.24902	422.29473	343.36874	174.93905	-41.49717	-33.36047	0
308	21.15542	-58.58424	-79.73966	17.90074	48.8202	-69.16195	87.87636	423.92207	344.99608	178.19373	-39.05616	-30.10579	0
309	19.52808	-56.9569	-77.29865	17.90074	48.00653	-66.72094	88.69003	427.17675	346.62342	180.63474	-36.61515	-28.47845	0
310	18.71441	-56.9569	-75.67131	17.90074	47.19286	-65.90727	89.5037	432.05877	348.25076	182.26208	-34.98781	-27.66478	0
311	17.90074	-56.9569	-75.67131	18.71441	47.19286	-65.90727	90.31737	437.75446	350.69177	183.88942	-34.17414	-27.66478	0
312	17.90074	-58.58424	-77.29865	18.71441	48.00653	-67.53461	91.13104	444.26382	353.94645	186.33043	-33.36047	-27.66478	0
313	19.52808	-60.21158	-81.367	19.52808	50.44754	-69.97562	92.75838	449.95951	358.0148	189.58511	-32.5468	-27.66478	0
314	20.34175	-61.83892	-84.62168	19.52808	52.07488	-71.60296	95.19939	456.46887	362.08315	194.46713	-31.73313	-26.85111	0
315	21.96909	-61.83892	-87.06269	18.71441	52.88855	-72.41663	96.82673	461.35089	365.33783	199.34915	-30.91946	-26.03744	0
316	21.96909	-60.21158	-87.06269	19.52808	52.07488	-71.60296	98.45407	463.7919	367.77884	203.4175	-30.10579	-26.03744	0
317	21.15542	-58.58424	-83.80801	19.52808	50.44754	-70.78929	98.45407	465.41924	367.77884	205.85851	-30.10579	-26.85111	0
318	18.71441	-55.32956	-78.92599	19.52808	46.37919	-68.34828	98.45407	467.86025	366.96517	209.92686	-30.91946	-28.47845	0
319	17.08707	-52.07488	-74.04397	17.90074	43.12451	-65.0936	100.08141	472.74227	366.96517	213.99521	-30.91946	-29.29212	0
320	17.08707	-48.8202	-69.97562	16.2734	40.6835	-61.83892	103.33609	480.0653	368.59251	218.06356	-31.73313	-29.29212	0
321	17.90074	-48.00653	-68.34828	13.83239	39.86983	-60.21158	107.40444	488.202	371.03352	222.13191	-31.73313	-30.91946	0
322	19.52808	-49.63387	-68.34828	13.01872	39.86983	-60.21158	110.65912	494.71136	372.66086	226.20026	-32.5468	-34.17414	0
323	19.52808	-52.07488	-69.97562	13.01872	41.49717	-61.02525	113.9138	501.22072	375.10187	229.45494	-33.36047	-37.42882	0
324	17.90074	-53.70222	-72.41663	14.64606	43.93818	-61.83892	117.16848	506.10274	376.72921	234.33696	-33.36047	-40.6835	0
325	17.90074	-53.70222	-73.2303	16.2734	44.75185	-62.65259	120.42316	509.35742	378.35655	238.40531	-33.36047	-43.12451	0
326	16.2734	-53.70222	-70.78929	19.52808	43.12451	-61.02525	122.86417	511.79843	379.98389	242.47366	-32.5468	-43.12451	0
327	13.01872	-52.88855	-67.53461	21.15542	41.49717	-58.58424	124.49151	513.42577	379.98389	245.72834	-30.91946	-42.31084	0
328	12.20505	-50.44754	-64.27993	19.52808	40.6835	-55.32956	126.11885	516.68045	379.98389	248.98302	-30.10579	-39.86983	0
329	15.45973	-46.37919	-61.02525	14.64606	40.6835	-51.26121	129.37353	521.56247	381.61123	252.2377	-29.29212	-35.80148	0
330	18.71441	-42.31084	-59.39791	9.76404	40.6835	-48.00653	133.44188	527.25816	384.05224	255.49238	-28.47845	-33.36047	0
331	20.34175	-39.86983	-58.58424	6.50936	39.86983	-45.56552	137.51023	533.76752	386.49325	257.93339	-28.47845	-30.91946	0
332	21.15542	-39.05616	-58.58424	5.69569	39.86983	-45.56552	141.57858	540.27688	390.5616	260.3744	-27.66478	-30.10579	0
333	20.34175	-39.05616	-59.39791	5.69569	39.05616	-45.56552	145.64693	546.78624	394.62995	263.62908	-26.85111	-29.29212	0
334	18.71441	-39.05616	-58.58424	6.50936	38.24249	-46.37919	149.71528	552.48193	397.88463	267.69743	-26.03744	-29.29212	0
335	17.08707	-38.24249	-57.77057	6.50936	37.42882	-46.37919	152.15629	555.73661	400.32564	270.13844	-26.03744	-28.47845	0
336	15.45973	-34.98781	-54.51589	5.69569	36.61515	-44.75185	153.78363	557.36395	399.51197	271.76578	-25.22377	-28.47845	0
337	13.01872	-31.73313	-49.63387	4.88202	33.36047	-40.6835	154.5973	557.36395	397.07096	272.57945	-26.03744	-28.47845	0
338	12.20505	-27.66478	-43.12451	4.06835	29.29212	-34.98781	156.22464	558.17762	394.62995	271.76578	-26.03744	-28.47845	0
339	12.20505	-22.78276	-36.61515	2.44101	26.03744	-29.29212	159.47932	560.61863	392.18894	271.76578	-26.85111	-28.47845	0
340	11.39138	-19.52808	-31.73313	1.62734	22.78276	-25.22377	163.54767	563.87331	389.74793	270.13844	-28.47845	-29.29212	0
341	8.95037	-18.71441	-27.66478	0	18.71441	-23.59643	168.42969	567.94166	387.30692	268.5111	-29.29212	-30.10579	0
342	8.1367	-19.52808	-25.22377	0.81367	15.45973	-21.96909	171.68437	572.82368	386.49325	267.69743	-30.91946	-30.91946	0
343	8.1367	-17.08707	-22.78276	0.81367	13.01872	-18.71441	175.75272	578.51937	388.12059	267.69743	-30.91946	-30.91946	0
344	9.76404	-12.20505	-19.52808	0	12.20505	-14.64606	179.82107	583.40139	389.74793	270.13844	-30.10579	-29.29212	0
345	10.57771	-6.50936	-15.45973	-2.44101	11.39138	-9.76404	184.70309	586.65607	389.74793	271.76578	-29.29212	-27.66478	0
346	11.39138	-0.81367	-11.39138	-4.06835	10.57771	-5.69569	187.95777	587.46974	388.12059	272.57945	-29.29212	-26.03744	0
347	9.76404	1.62734	-5.69569	-4.88202	7.32303	-0.81367	192.02612	588.28341	384.86591	271.76578	-29.29212	-24.4101	0
348	5.69569	4.88202	0.81367	-4.88202	1.62734	4.06835	196.90814	589.09708	381.61123	270.95211	-30.10579	-21.96909	0
349	0	7.32303	8.1367	-3.25468	-3.25468	8.95037	201.79016	591.53809	377.54288	268.5111	-30.10579	-20.34175	0
350	-4.88202	8.95037	14.64606	-1.62734	-8.95037	12.20505	206.67218	593.9791	373.47453	265.25642	-30.10579	-19.52808	0
351	-8.95037	9.76404	18.71441	0	-13.01872	14.64606	211.5542	595.60644	367.77884	262.00174	-30.91946	-19.52808	0
352	-12.20505	9.76404	21.15542	0	-16.2734	16.2734	215.62255	597.23378	362.08315	259.56073	-31.73313	-20.34175	0
353	-14.64606	9.76404	23.59643	1.62734	-19.52808	17.90074	221.31824	597.23378	356.38746	256.30605	-30.91946	-20.34175	0
354	-18.71441	9.76404	27.66478	2.44101	-24.4101	20.34175	226.20026	597.23378	350.69177	253.86504	-30.10579	-19.52808	0
355	-23.59643	11.39138	34.98781	4.06835	-30.10579	23.59643	231.89595	593.9791	343.36874	249.79669	-28.47845	-17.08707	0
356	-30.10579	13.83239	43.93818	6.50936	-37.42882	29.29212	237.59164	589.09708	334.41837	244.91467	-26.85111	-14.64606	0
357	-37.42882	17.08707	54.51589	8.1367	-46.37919	35.80148	241.65999	582.58772	324.65433	238.40531	-25.22377	-11.39138	0
358	-43.12451	20.34175	65.90727	8.95037	-54.51589	43.12451	245.72834	575.26469	313.26295	231.89595	-24.4101	-8.95037	0
359	-49.63387	23.59643	74.85764	9.76404	-61.83892	49.63387	249.79669	568.75533	301.87157	223.75925	-25.22377	-6.50936	0
360	-53.70222	26.85111	82.99434	9.76404	-67.53461	55.32956	253.86504	561.4323	290.48019	214.80888	-26.03744	-5.69569	0
361	-55.32956	32.5468	88.69003	8.1367	-71.60296	61.02525	257.93339	554.92294	277.46147	205.04484	-27.66478	-5.69569	0
362	-56.14323	39.05616	93.57205	5.69569	-74.04397	66.72094	262.81541	547.59991	264.44275	196.09447	-29.29212	-5.69569	0
363	-56.14323	44.75185	99.26774	3.25468	-77.29865	73.2303	266.88376	537.83587	251.42403	185.51676	-30.91946	-4.88202	0
364	-56.9569	50.44754	104.96343	0.81367	-80.55333	78.92599	270.13844	525.63082	235.9643	174.12538	-32.5468	-4.88202	0
365	-60.21158	55.32956	113.10013	0	-87.06269	85.43535	272.57945	510.98476	218.87723	161.92033	-34.17414	-4.88202	0
366	-65.0936	61.02525	125.30518	0.81367	-96.01306	93.57205	275.02046	493.89769	200.16282	149.71528	-34.98781	-3.25468	0
367	-72.41663	66.72094	138.3239	1.62734	-105.7771	102.52242	276.6478	475.18328	180.63474	136.69656	-35.80148	-0.81367	0
368	-78.92599	70.78929	150.52895	3.25468	-114.72747	110.65912	277.46147	455.6552	158.66565	122.86417	-37.42882	0.81367	0
369	-86.24902	74.85764	160.29299	4.88202	-122.86417	117.16848	277.46147	435.31345	136.69656	107.40444	-39.86983	1.62734	0
370	-91.94471	78.11232	169.24336	6.50936	-130.1872	123.67784	277.46147	415.78537	113.9138	92.75838	-41.49717	2.44101	0
371	-96.82673	80.55333	176.56639	8.1367	-136.69656	128.55986	276.6478	394.62995	91.13104	76.48498	-43.93818	3.25468	0
372	-101.70875	82.18067	183.07575	8.95037	-142.39225	132.62821	275.83413	372.66086	67.53461	61.02525	-47.19286	4.88202	0
373	-108.21811	82.99434	190.39878	11.39138	-149.71528	137.51023	275.83413	349.06443	43.93818	45.56552	-48.00653	6.50936	0
374	-117.16848	85.43535	201.79016	14.64606	-160.29299	144.01959	276.6478	324.65433	21.15542	31.73313	-48.00653	8.1367	0
375	-126.93252	87.87636	214.80888	17.90074	-171.68437	152.15629	275.83413	297.80322	-1.62734	17.08707	-47.19286	9.76404	0
376	-135.06922	92.75838	228.64127	19.52808	-183.07575	161.10666	274.20679	268.5111	-27.66478	0.81367	-47.19286	13.01872	0
377	-141.57858	98.45407	241.65999	19.52808	-192.02612	170.05703	270.13844	236.77797	-56.14323	-16.2734	-49.63387	14.64606	0
378	-145.64693	104.14976	252.2377	18.71441	-199.34915	179.0074	264.44275	202.60383	-87.06269	-35.80148	-52.88855	16.2734	0
379	-148.90161	109.03178	260.3744	17.90074	-204.23117	185.51676	257.93339	168.42969	-117.98215	-56.14323	-58.58424	16.2734	0
380	-153.78363	113.9138	269.32477	18.71441	-210.74053	192.02612	252.2377	134.25555	-148.08794	-76.48498	-63.46626	15.45973	0
381	-161.10666	117.16848	278.27514	21.15542	-218.87723	197.72181	247.35568	100.89508	-178.19373	-95.19939	-69.16195	14.64606	0
382	-170.05703	117.98215	286.41184	25.22377	-227.8276	202.60383	241.65999	66.72094	-206.67218	-113.10013	-72.41663	13.83239	0
383	-178.19373	117.16848	292.9212	29.29212	-235.15063	205.85851	233.52329	30.10579	-235.15063	-131.00087	-75.67131	12.20505	0
384	-184.70309	116.35481	298.61689	33.36047	-241.65999	208.29952	224.57292	-5.69569	-263.62908	-147.27427	-78.11232	12.20505	0
385	-191.21245	114.72747	305.12625	36.61515	-248.16935	210.74053	215.62255	-43.12451	-290.48019	-161.10666	-78.92599	13.83239	0
386	-196.90814	115.54114	311.63561	39.05616	-254.67871	213.18154	205.85851	-79.73966	-316.51763	-174.12538	-78.11232	17.08707	0
387	-200.16282	117.16848	318.14497	39.86983	-259.56073	215.62255	195.2808	-116.35481	-342.55507	-186.33043	-76.48498	21.15542	0
388	-204.23117	117.98215	323.02699	41.49717	-263.62908	218.87723	185.51676	-150.52895	-366.96517	-198.53548	-75.67131	24.4101	0
389	-209.92686	117.16848	327.90901	44.75185	-266.88376	220.50457	176.56639	-183.07575	-390.5616	-210.74053	-74.85764	26.03744	0
390	-216.43622	114.72747	331.16369	50.44754	-270.13844	222.13191	167.61602	-212.36787	-412.53069	-222.94558	-76.48498	26.85111	0
391	-220.50457	113.10013	331.97736	54.51589	-270.95211	220.50457	160.29299	-238.40531	-432.05877	-233.52329	-78.11232	26.03744	0
392	-220.50457	110.65912	327.90901	55.32956	-270.95211	218.06356	153.78363	-261.18807	-448.33217	-242.47366	-80.55333	25.22377	0
393	-217.24989	106.59077	322.21332	55.32956	-268.5111	214.80888	147.27427	-281.52982	-461.35089	-249.79669	-82.18067	23.59643	0
394	-214.80888	100.89508	315.70396	55.32956	-265.25642	209.92686	139.95124	-301.0579	-472.74227	-256.30605	-84.62168	21.15542	0
395	-213.99521	95.19939	309.1946	56.9569	-262.00174	203.4175	131.81454	-318.95864	-483.31998	-262.00174	-88.69003	17.08707	0
396	-211.5542	89.5037	301.87157	59.39791	-257.93339	196.90814	123.67784	-337.67305	-494.71136	-268.5111	-93.57205	13.01872	0
397	-209.92686	83.80801	294.54854	61.02525	-253.05137	189.58511	113.9138	-355.57379	-505.28907	-275.02046	-100.08141	7.32303	0
398	-206.67218	77.29865	285.59817	63.46626	-247.35568	182.26208	104.96343	-371.03352	-515.05311	-280.71615	-106.59077	0.81367	0
399	-204.23117	70.78929	275.02046	65.90727	-240.03265	173.31171	96.82673	-383.23857	-521.56247	-286.41184	-113.9138	-5.69569	0
400	-201.79016	61.02525	265.25642	69.97562	-234.33696	162.734	89.5037	-391.37527	-525.63082	-291.29386	-120.42316	-13.01872	0
401	-200.97649	49.63387	256.30605	77.29865	-231.08228	152.96996	84.62168	-395.44362	-525.63082	-292.9212	-126.11885	-19.52808	0
402	-200.97649	38.24249	246.54201	85.43535	-227.8276	142.39225	79.73966	-396.25729	-523.18981	-292.10753	-130.1872	-24.4101	0
403	-201.79016	26.03744	233.52329	91.13104	-221.31824	131.00087	76.48498	-396.25729	-518.30779	-290.48019	-133.44188	-29.29212	0
404	-200.97649	15.45973	218.87723	95.19939	-212.36787	117.98215	72.41663	-394.62995	-512.6121	-287.22551	-135.88289	-34.17414	0
405	-199.34915	4.06835	205.85851	97.6404	-204.23117	105.7771	69.97562	-393.00261	-506.91641	-283.15716	-136.69656	-37.42882	0
406	-197.72181	-3.25468	194.46713	99.26774	-197.72181	95.19939	67.53461	-389.74793	-499.59338	-278.27514	-135.88289	-39.05616	0
407	-195.2808	-9.76404	185.51676	100.08141	-191.21245	87.87636	64.27993	-384.86591	-491.45668	-270.95211	-133.44188	-39.86983	0
408	-190.39878	-13.83239	176.56639	100.08141	-183.07575	80.55333	61.02525	-379.17022	-481.69264	-263.62908	-129.37353	-39.05616	0
409	-183.88942	-17.90074	165.98868	99.26774	-174.12538	73.2303	57.77057	-371.84719	-471.9286	-256.30605	-126.11885	-38.24249	0
410	-177.38006	-22.78276	154.5973	99.26774	-165.17501	65.0936	55.32956	-362.89682	-462.16456	-248.16935	-122.86417	-37.42882	0
411	-170.05703	-27.66478	142.39225	98.45407	-155.41097	56.9569	52.07488	-353.13278	-450.77318	-240.03265	-120.42316	-37.42882	0
412	-162.734	-33.36047	128.55986	96.82673	-145.64693	47.19286	49.63387	-343.36874	-438.56813	-231.89595	-119.60949	-38.24249	0
413	-155.41097	-38.24249	115.54114	96.01306	-135.88289	38.24249	47.19286	-334.41837	-425.54941	-224.57292	-118.79582	-39.86983	0
414	-148.08794	-43.12451	103.33609	94.38572	-126.11885	30.10579	44.75185	-323.84066	-411.71702	-217.24989	-118.79582	-42.31084	0
415	-140.76491	-46.37919	93.57205	92.75838	-117.98215	23.59643	43.93818	-314.07662	-397.07096	-208.29952	-117.16848	-44.75185	0
416	-135.88289	-49.63387	86.24902	91.13104	-111.47279	18.71441	42.31084	-304.31258	-384.05224	-200.97649	-114.72747	-45.56552	0
417	-131.81454	-52.07488	80.55333	90.31737	-106.59077	14.64606	40.6835	-295.36221	-371.03352	-193.65346	-112.28646	-46.37919	0
418	-128.55986	-53.70222	75.67131	89.5037	-102.52242	10.57771	37.42882	-286.41184	-359.64214	-186.33043	-109.84545	-46.37919	0
419	-124.49151	-55.32956	69.97562	89.5037	-96.82673	6.50936	34.17414	-278.27514	-348.25076	-179.0074	-107.40444	-45.56552	0
420	-120.42316	-58.58424	61.83892	88.69003	-90.31737	1.62734	30.10579	-269.32477	-337.67305	-172.49804	-104.96343	-44.75185	0
421	-113.10013	-61.02525	53.70222	87.06269	-82.18067	-3.25468	26.03744	-261.18807	-327.09534	-165.98868	-104.14976	-44.75185	0
422	-106.59077	-63.46626	47.19286	84.62168	-74.04397	-7.32303	21.96909	-253.05137	-315.70396	-159.47932	-103.33609	-46.37919	0
423	-101.70875	-65.90727	41.49717	83.80801	-67.53461	-11.39138	18.71441	-244.91467	-304.31258	-152.96996	-103.33609	-48.00653	0
424	-98.45407	-69.16195	37.42882	85.43535	-63.46626	-14.64606	18.71441	-235.9643	-291.29386	-145.64693	-102.52242	-48.8202	0
425	-96.82673	-70.78929	33.36047	87.06269	-62.65259	-16.2734	19.52808	-225.38659	-277.46147	-138.3239	-100.08141	-48.00653	0
426	-94.38572	-68.34828	29.29212	83.80801	-61.83892	-16.2734	21.15542	-216.43622	-263.62908	-130.1872	-96.82673	-45.56552	0
427	-90.31737	-64.27993	25.22377	78.11232	-57.77057	-17.08707	21.15542	-208.29952	-252.2377	-123.67784	-92.75838	-43.12451	0
428	-86.24902	-61.02525	21.15542	72.41663	-52.88855	-18.71441	20.34175	-202.60383	-243.28733	-117.98215	-88.69003	-41.49717	0
429	-82.18067	-59.39791	17.90074	68.34828	-48.8202	-20.34175	17.90074	-196.90814	-234.33696	-113.10013	-84.62168	-39.86983	0
430	-77.29865	-58.58424	17.08707	65.0936	-47.19286	-20.34175	14.64606	-192.02612	-226.20026	-108.21811	-81.367	-38.24249	0
431	-73.2303	-59.39791	14.64606	64.27993	-45.56552	-21.15542	11.39138	-187.1441	-218.06356	-103.33609	-78.11232	-36.61515	0
432	-69.16195	-60.21158	11.39138	63.46626	-41.49717	-21.96909	8.95037	-181.44841	-209.92686	-99.26774	-75.67131	-35.80148	0
433	-65.0936	-61.02525	6.50936	61.83892	-36.61515	-23.59643	7.32303	-175.75272	-201.79016	-94.38572	-74.04397	-34.98781	0
434	-61.02525	-61.02525	1.62734	60.21158	-31.73313	-26.85111	6.50936	-170.05703	-192.83979	-89.5037	-71.60296	-33.36047	0
435	-57.77057	-61.02525	-2.44101	57.77057	-28.47845	-29.29212	6.50936	-164.36134	-184.70309	-84.62168	-69.97562	-31.73313	0
436	-54.51589	-61.02525	-6.50936	56.9569	-25.22377	-31.73313	7.32303	-159.47932	-177.38006	-80.55333	-67.53461	-30.91946	0
437	-52.07488	-61.83892	-9.76404	55.32956	-21.96909	-34.17414	6.50936	-156.22464	-171.68437	-78.11232	-65.0936	-29.29212	0
438	-50.44754	-61.83892	-12.20505	54.51589	-18.71441	-36.61515	5.69569	-152.96996	-167.61602	-75.67131	-63.46626	-27.66478	0
439	-49.63387	-61.83892	-13.83239	53.70222	-17.90074	-37.42882	4.88202	-149.71528	-162.734	-73.2303	-61.83892	-26.03744	0
440	-48.00653	-61.02525	-13.01872	52.88855	-17.90074	-37.42882	4.06835	-145.64693	-157.03831	-69.97562	-59.39791	-24.4101	0
441	-47.19286	-60.21158	-12.20505	52.07488	-19.52808	-35.80148	2.44101	-139.95124	-151.34262	-65.0936	-56.9569	-21.15542	0
442	-46.37919	-61.02525	-12.20505	52.07488	-18.71441	-34.98781	1.62734	-134.25555	-145.64693	-61.83892	-54.51589	-19.52808	0
443	-44.75185	-61.83892	-13.01872	52.07488	-17.08707	-35.80148	0	-128.55986	-140.76491	-57.77057	-52.07488	-18.71441	0
444	-43.12451	-61.83892	-15.45973	51.26121	-14.64606	-37.42882	0	-123.67784	-135.88289	-53.70222	-50.44754	-20.34175	0
445	-39.86983	-61.02525	-17.90074	48.8202	-12.20505	-39.05616	0	-119.60949	-131.00087	-49.63387	-48.00653	-22.78276	0
446	-38.24249	-58.58424	-18.71441	47.19286	-9.76404	-38.24249	-0.81367	-116.35481	-126.93252	-46.37919	-46.37919	-25.22377	0
447	-36.61515	-56.14323	-19.52808	46.37919	-8.1367	-37.42882	-2.44101	-113.9138	-122.86417	-43.12451	-43.93818	-26.85111	0
448	-35.80148	-54.51589	-19.52808	46.37919	-7.32303	-37.42882	-3.25468	-112.28646	-119.60949	-39.86983	-43.12451	-27.66478	0
449	-35.80148	-54.51589	-19.52808	45.56552	-6.50936	-37.42882	-2.44101	-109.84545	-116.35481	-36.61515	-42.31084	-27.66478	0
450	-35.80148	-54.51589	-19.52808	45.56552	-7.32303	-37.42882	-1.62734	-107.40444	-113.10013	-34.17414	-41.49717	-26.85111	0
451	-36.61515	-56.14323	-20.34175	45.56552	-7.32303	-38.24249	0	-104.14976	-109.84545	-30.91946	-40.6835	-25.22377	0
452	-36.61515	-58.58424	-21.15542	45.56552	-6.50936	-39.86983	0.81367	-100.89508	-104.96343	-27.66478	-39.05616	-23.59643	0
453	-34.98781	-59.39791	-21.96909	44.75185	-5.69569	-41.49717	1.62734	-96.82673	-100.08141	-23.59643	-37.42882	-21.96909	0
454	-34.17414	-59.39791	-24.4101	44.75185	-4.06835	-42.31084	4.06835	-92.75838	-95.19939	-19.52808	-35.80148	-19.52808	0
455	-32.5468	-60.21158	-26.85111	44.75185	-2.44101	-43.93818	5.69569	-88.69003	-91.13104	-15.45973	-34.17414	-18.71441	0
456	-31.73313	-61.02525	-29.29212	45.56552	-1.62734	-45.56552	5.69569	-86.24902	-87.87636	-12.20505	-33.36047	-18.71441	0
457	-32.5468	-62.65259	-30.91946	46.37919	-0.81367	-48.00653	5.69569	-85.43535	-86.24902	-9.76404	-34.17414	-20.34175	0
458	-31.73313	-63.46626	-32.5468	46.37919	0	-48.8202	4.88202	-85.43535	-85.43535	-8.1367	-34.98781	-21.96909	0
459	-30.10579	-61.83892	-32.5468	45.56552	-0.81367	-48.00653	4.06835	-85.43535	-84.62168	-7.32303	-35.80148	-23.59643	0
460	-29.29212	-60.21158	-30.91946	43.93818	-2.44101	-45.56552	4.88202	-84.62168	-82.99434	-6.50936	-37.42882	-25.22377	0
461	-30.91946	-57.77057	-28.47845	43.93818	-3.25468	-43.12451	4.88202	-82.18067	-81.367	-4.88202	-39.05616	-26.85111	0
462	-31.73313	-56.9569	-26.85111	44.75185	-4.06835	-40.6835	4.88202	-80.55333	-79.73966	-3.25468	-39.86983	-27.66478	0
463	-32.5468	-56.9569	-27.66478	44.75185	-3.25468	-40.6835	4.88202	-78.92599	-76.48498	-1.62734	-40.6835	-28.47845	0
464	-30.10579	-57.77057	-30.10579	43.93818	-0.81367	-43.12451	3.25468	-78.11232	-74.04397	0	-41.49717	-29.29212	0
465	-26.85111	-57.77057	-34.17414	40.6835	2.44101	-45.56552	1.62734	-77.29865	-71.60296	3.25468	-41.49717	-29.29212	0
466	-23.59643	-56.14323	-37.42882	37.42882	5.69569	-47.19286	0	-77.29865	-68.34828	6.50936	-40.6835	-29.29212	0
467	-21.15542	-55.32956	-39.05616	34.98781	7.32303	-48.00653	-2.44101	-76.48498	-64.27993	10.57771	-39.86983	-30.10579	0
468	-21.15542	-54.51589	-39.05616	34.98781	8.1367	-48.00653	-4.06835	-75.67131	-60.21158	14.64606	-39.86983	-31.73313	0
469	-23.59643	-54.51589	-35.80148	37.42882	7.32303	-45.56552	-5.69569	-74.85764	-56.9569	18.71441	-39.05616	-32.5468	0
470	-25.22377	-53.70222	-32.5468	39.05616	5.69569	-43.93818	-6.50936	-74.04397	-55.32956	21.15542	-38.24249	-33.36047	0
471	-27.66478	-54.51589	-30.91946	41.49717	3.25468	-43.93818	-7.32303	-73.2303	-54.51589	22.78276	-39.05616	-34.17414	0
472	-30.91946	-57.77057	-30.10579	45.56552	0	-45.56552	-8.1367	-72.41663	-53.70222	23.59643	-39.05616	-34.98781	0
473	-31.73313	-58.58424	-30.10579	45.56552	0	-45.56552	-7.32303	-69.16195	-51.26121	25.22377	-38.24249	-34.17414	0
474	-26.85111	-56.14323	-31.73313	41.49717	1.62734	-43.93818	-4.88202	-64.27993	-47.19286	30.10579	-34.17414	-30.91946	0
475	-17.90074	-51.26121	-32.5468	34.17414	5.69569	-42.31084	-2.44101	-58.58424	-42.31084	35.80148	-30.10579	-26.85111	0
476	-11.39138	-48.8202	-34.17414	28.47845	9.76404	-42.31084	-0.81367	-54.51589	-38.24249	40.6835	-26.03744	-23.59643	0
477	-8.1367	-48.8202	-34.98781	26.85111	12.20505	-43.12451	-0.81367	-52.07488	-34.98781	43.93818	-23.59643	-21.15542	0
478	-7.32303	-49.63387	-35.80148	27.66478	11.39138	-43.12451	-0.81367	-50.44754	-32.5468	46.37919	-22.78276	-20.34175	0
479	-8.1367	-50.44754	-35.80148	30.10579	11.39138	-43.93818	-0.81367	-50.44754	-30.91946	48.00653	-21.96909	-20.34175	0
480	-8.95037	-52.07488	-38.24249	30.91946	13.01872	-45.56552	-1.62734	-49.63387	-30.10579	47.19286	-22.78276	-20.34175	0
481	-9.76404	-53.70222	-41.49717	31.73313	14.64606	-47.19286	-3.25468	-50.44754	-30.10579	46.37919	-24.4101	-21.96909	0
482	-9.76404	-55.32956	-45.56552	32.5468	17.08707	-50.44754	-4.88202	-50.44754	-30.91946	43.93818	-26.03744	-23.59643	0
483	-9.76404	-57.77057	-48.8202	33.36047	19.52808	-52.88855	-6.50936	-49.63387	-30.91946	43.12451	-26.85111	-25.22377	0
484	-9.76404	-58.58424	-50.44754	33.36047	21.15542	-54.51589	-6.50936	-47.19286	-29.29212	44.75185	-26.85111	-26.85111	0
485	-9.76404	-58.58424	-51.26121	32.5468	21.96909	-54.51589	-7.32303	-45.56552	-26.85111	47.19286	-25.22377	-27.66478	0
486	-9.76404	-57.77057	-51.26121	30.91946	23.59643	-54.51589	-8.1367	-43.93818	-23.59643	51.26121	-22.78276	-27.66478	0
487	-9.76404	-56.14323	-51.26121	30.10579	22.78276	-53.70222	-8.95037	-42.31084	-19.52808	55.32956	-20.34175	-26.85111	0
488	-9.76404	-53.70222	-50.44754	29.29212	20.34175	-50.44754	-8.95037	-39.86983	-13.83239	60.21158	-17.90074	-24.4101	0
489	-10.57771	-51.26121	-48.00653	28.47845	17.08707	-47.19286	-9.76404	-36.61515	-8.95037	64.27993	-16.2734	-22.78276	0
490	-10.57771	-49.63387	-45.56552	26.85111	15.45973	-46.37919	-11.39138	-35.80148	-5.69569	67.53461	-16.2734	-21.96909	0
491	-11.39138	-48.00653	-43.93818	25.22377	14.64606	-46.37919	-13.01872	-34.98781	-4.06835	69.97562	-16.2734	-21.96909	0
492	-8.95037	-46.37919	-43.93818	23.59643	15.45973	-47.19286	-13.83239	-34.17414	-1.62734	72.41663	-16.2734	-21.15542	0
493	-4.88202	-47.19286	-46.37919	22.78276	17.08707	-48.8202	-13.83239	-31.73313	0.81367	74.85764	-16.2734	-21.15542	0
494	-2.44101	-49.63387	-49.63387	23.59643	18.71441	-51.26121	-14.64606	-28.47845	4.88202	78.11232	-15.45973	-20.34175	0
495	-0.81367	-52.88855	-52.07488	25.22377	21.15542	-53.70222	-13.83239	-25.22377	8.1367	81.367	-14.64606	-20.34175	0
496	-0.81367	-55.32956	-53.70222	26.85111	23.59643	-55.32956	-14.64606	-22.78276	10.57771	83.80801	-13.83239	-20.34175	0
497	-2.44101	-56.9569	-55.32956	28.47845	25.22377	-56.14323	-14.64606	-21.96909	13.83239	86.24902	-13.01872	-20.34175	0
498	-4.06835	-57.77057	-54.51589	29.29212	26.03744	-56.9569	-15.45973	-21.96909	15.45973	87.87636	-13.01872	-21.15542	0
499	-5.69569	-56.9569	-53.70222	30.10579	25.22377	-56.9569	-16.2734	-23.59643	15.45973	87.87636	-13.83239	-23.59643	0
500	-7.32303	-55.32956	-54.51589	29.29212	24.4101	-56.9569	-17.90074	-26.85111	13.83239	85.43535	-15.45973	-27.66478	0
501	-6.50936	-52.07488	-56.9569	28.47845	26.03744	-56.14323	-19.52808	-30.10579	11.39138	82.99434	-17.90074	-32.5468	0
502	-2.44101	-49.63387	-59.39791	26.03744	29.29212	-55.32956	-18.71441	-30.91946	11.39138	81.367	-20.34175	-36.61515	0
503	0	-49.63387	-60.21158	23.59643	31.73313	-55.32956	-17.08707	-28.47845	14.64606	82.18067	-21.96909	-38.24249	0
504	1.62734	-51.26121	-61.83892	22.78276	34.17414	-56.9569	-14.64606	-23.59643	18.71441	84.62168	-21.96909	-37.42882	0
505	1.62734	-55.32956	-63.46626	24.4101	34.17414	-59.39791	-13.83239	-19.52808	23.59643	87.06269	-21.96909	-34.98781	0
506	0.81367	-60.21158	-65.90727	27.66478	34.98781	-62.65259	-13.01872	-16.2734	28.47845	89.5037	-20.34175	-31.73313	0
507	0	-64.27993	-69.16195	30.91946	36.61515	-65.90727	-13.83239	-14.64606	30.91946	91.13104	-17.90074	-29.29212	0
508	2.44101	-65.90727	-70.78929	31.73313	38.24249	-67.53461	-14.64606	-14.64606	33.36047	92.75838	-15.45973	-26.03744	0
509	4.88202	-64.27993	-71.60296	30.10579	39.05616	-67.53461	-14.64606	-15.45973	34.98781	93.57205	-12.20505	-22.78276	0
510	8.1367	-61.83892	-71.60296	27.66478	40.6835	-66.72094	-15.45973	-17.08707	35.80148	92.75838	-10.57771	-20.34175	0
511	11.39138	-59.39791	-71.60296	25.22377	41.49717	-65.90727	-17.08707	-19.52808	34.98781	91.13104	-10.57771	-20.34175	0
512	13.01872	-57.77057	-72.41663	23.59643	42.31084	-65.90727	-19.52808	-21.15542	34.17414	89.5037	-12.20505	-21.15542	0
513	13.01872	-56.9569	-72.41663	23.59643	41.49717	-66.72094	-21.96909	-22.78276	33.36047	88.69003	-15.45973	-23.59643	0
514	12.20505	-59.39791	-71.60296	26.03744	39.86983	-66.72094	-22.78276	-21.96909	33.36047	87.06269	-18.71441	-27.66478	0
515	9.76404	-62.65259	-71.60296	28.47845	39.86983	-68.34828	-23.59643	-20.34175	34.17414	85.43535	-23.59643	-32.5468	0
516	9.76404	-64.27993	-72.41663	28.47845	40.6835	-69.16195	-24.4101	-17.90074	34.98781	83.80801	-27.66478	-36.61515	0
517	10.57771	-62.65259	-73.2303	26.03744	41.49717	-68.34828	-23.59643	-13.83239	36.61515	83.80801	-29.29212	-39.05616	0
518	13.01872	-60.21158	-72.41663	23.59643	41.49717	-66.72094	-21.96909	-10.57771	39.05616	85.43535	-29.29212	-38.24249	0
519	13.83239	-56.9569	-69.97562	21.96909	40.6835	-64.27993	-20.34175	-8.95037	40.6835	87.06269	-26.85111	-34.98781	0
520	13.83239	-54.51589	-66.72094	19.52808	38.24249	-61.02525	-18.71441	-9.76404	39.86983	87.87636	-24.4101	-31.73313	0
521	12.20505	-52.07488	-63.46626	18.71441	36.61515	-58.58424	-18.71441	-12.20505	38.24249	87.06269	-21.96909	-27.66478	0
522	11.39138	-49.63387	-60.21158	18.71441	34.98781	-56.14323	-20.34175	-14.64606	35.80148	85.43535	-18.71441	-24.4101	0
523	9.76404	-49.63387	-60.21158	18.71441	34.17414	-55.32956	-21.96909	-15.45973	34.17414	85.43535	-15.45973	-21.15542	0
524	9.76404	-51.26121	-61.83892	19.52808	34.98781	-57.77057	-24.4101	-15.45973	33.36047	85.43535	-13.01872	-18.71441	0
525	9.76404	-55.32956	-65.90727	21.15542	37.42882	-61.02525	-27.66478	-14.64606	33.36047	86.24902	-10.57771	-17.90074	0
526	12.20505	-57.77057	-69.97562	21.96909	40.6835	-65.0936	-30.10579	-13.01872	34.17414	86.24902	-8.95037	-17.90074	0
527	15.45973	-59.39791	-74.85764	21.15542	44.75185	-69.16195	-32.5468	-12.20505	35.80148	85.43535	-8.95037	-18.71441	0
528	17.90074	-60.21158	-78.11232	21.15542	47.19286	-71.60296	-33.36047	-11.39138	36.61515	85.43535	-8.1367	-18.71441	0
529	19.52808	-58.58424	-78.11232	19.52808	48.8202	-70.78929	-31.73313	-10.57771	38.24249	85.43535	-8.1367	-17.90074	0
530	21.15542	-55.32956	-74.85764	17.08707	48.8202	-67.53461	-30.10579	-8.95037	40.6835	86.24902	-8.1367	-17.08707	0
531	21.15542	-52.07488	-70.78929	14.64606	46.37919	-63.46626	-28.47845	-7.32303	42.31084	86.24902	-8.1367	-16.2734	0
532	19.52808	-48.8202	-67.53461	13.83239	42.31084	-61.02525	-28.47845	-6.50936	44.75185	86.24902	-7.32303	-15.45973	0
533	17.90074	-48.8202	-65.90727	13.83239	39.05616	-61.02525	-28.47845	-4.88202	46.37919	85.43535	-7.32303	-14.64606	0
534	16.2734	-51.26121	-67.53461	16.2734	39.05616	-63.46626	-28.47845	-2.44101	47.19286	85.43535	-7.32303	-14.64606	0
535	14.64606	-56.9569	-73.2303	19.52808	41.49717	-69.16195	-28.47845	-0.81367	48.00653	86.24902	-8.1367	-13.83239	0
536	14.64606	-62.65259	-81.367	22.78276	43.93818	-75.67131	-27.66478	0	48.8202	87.87636	-7.32303	-13.01872	0
537	13.83239	-65.90727	-87.87636	25.22377	47.19286	-80.55333	-26.85111	1.62734	51.26121	90.31737	-4.88202	-10.57771	0
538	13.83239	-65.90727	-88.69003	26.03744	48.00653	-82.18067	-25.22377	5.69569	55.32956	93.57205	-1.62734	-8.1367	0
539	13.83239	-64.27993	-85.43535	26.03744	48.00653	-80.55333	-23.59643	9.76404	59.39791	96.82673	0.81367	-6.50936	0
540	13.01872	-62.65259	-81.367	25.22377	46.37919	-75.67131	-24.4101	10.57771	61.02525	98.45407	3.25468	-4.88202	0
541	13.01872	-61.02525	-78.92599	24.4101	44.75185	-70.78929	-26.85111	9.76404	60.21158	97.6404	3.25468	-5.69569	0
542	13.83239	-59.39791	-77.29865	23.59643	44.75185	-67.53461	-29.29212	8.1367	58.58424	96.01306	0.81367	-8.1367	0
543	14.64606	-57.77057	-75.67131	21.15542	44.75185	-65.90727	-32.5468	7.32303	56.9569	93.57205	-2.44101	-11.39138	0
544	17.08707	-56.14323	-74.85764	18.71441	44.75185	-65.0936	-34.17414	8.95037	55.32956	91.94471	-6.50936	-16.2734	0
545	19.52808	-54.51589	-75.67131	16.2734	47.19286	-65.0936	-34.17414	11.39138	55.32956	91.94471	-11.39138	-19.52808	0
546	21.15542	-53.70222	-76.48498	14.64606	49.63387	-65.90727	-33.36047	14.64606	56.14323	91.13104	-14.64606	-22.78276	0
547	21.96909	-54.51589	-78.11232	14.64606	51.26121	-66.72094	-31.73313	17.90074	58.58424	91.13104	-17.08707	-25.22377	0
548	21.96909	-55.32956	-78.92599	15.45973	52.07488	-68.34828	-30.10579	20.34175	61.02525	91.13104	-17.90074	-25.22377	0
549	21.15542	-56.9569	-78.92599	17.08707	51.26121	-69.16195	-27.66478	21.15542	62.65259	91.13104	-16.2734	-22.78276	0
550	18.71441	-56.9569	-78.11232	17.90074	48.8202	-68.34828	-26.03744	19.52808	63.46626	89.5037	-13.83239	-19.52808	0
551	16.2734	-56.9569	-75.67131	18.71441	46.37919	-67.53461	-26.85111	17.08707	62.65259	87.06269	-11.39138	-15.45973	0
552	13.83239	-57.77057	-73.2303	19.52808	44.75185	-65.90727	-28.47845	15.45973	61.02525	85.43535	-9.76404	-13.01872	0
553	13.83239	-58.58424	-72.41663	20.34175	44.75185	-64.27993	-30.10579	14.64606	59.39791	84.62168	-9.76404	-12.20505	0
554	15.45973	-58.58424	-74.04397	19.52808	45.56552	-65.0936	-30.10579	16.2734	58.58424	83.80801	-10.57771	-11.39138	0
555	18.71441	-58.58424	-76.48498	18.71441	48.00653	-66.72094	-29.29212	19.52808	58.58424	84.62168	-11.39138	-11.39138	0
556	21.96909	-58.58424	-78.92599	17.08707	51.26121	-68.34828	-27.66478	23.59643	60.21158	84.62168	-13.01872	-12.20505	0
557	23.59643	-59.39791	-80.55333	16.2734	52.88855	-69.97562	-26.85111	26.85111	62.65259	84.62168	-13.83239	-13.01872	0
558	24.4101	-59.39791	-81.367	16.2734	53.70222	-69.97562	-25.22377	29.29212	65.0936	85.43535	-13.83239	-13.01872	0
559	24.4101	-58.58424	-80.55333	16.2734	52.88855	-69.97562	-24.4101	30.91946	66.72094	86.24902	-13.83239	-13.01872	0
560	23.59643	-58.58424	-79.73966	17.08707	51.26121	-69.16195	-23.59643	30.10579	67.53461	87.06269	-13.83239	-13.01872	0
561	22.78276	-59.39791	-78.92599	18.71441	49.63387	-68.34828	-25.22377	27.66478	65.90727	86.24902	-14.64606	-13.83239	0
562	21.96909	-61.83892	-78.11232	19.52808	48.00653	-69.16195	-26.85111	26.03744	63.46626	83.80801	-15.45973	-15.45973	0
563	20.34175	-64.27993	-79.73966	21.15542	48.00653	-70.78929	-29.29212	25.22377	61.83892	81.367	-16.2734	-17.90074	0
564	18.71441	-66.72094	-81.367	23.59643	50.44754	-73.2303	-31.73313	26.03744	60.21158	79.73966	-18.71441	-19.52808	0
565	17.08707	-67.53461	-84.62168	23.59643	52.88855	-75.67131	-32.5468	27.66478	60.21158	78.92599	-20.34175	-21.15542	0
566	18.71441	-66.72094	-88.69003	21.96909	55.32956	-78.11232	-33.36047	30.10579	61.02525	78.92599	-22.78276	-21.96909	0
567	22.78276	-64.27993	-93.57205	21.96909	59.39791	-79.73966	-32.5468	30.91946	62.65259	79.73966	-22.78276	-21.96909	0
568	24.4101	-62.65259	-92.75838	21.96909	58.58424	-78.92599	-30.10579	32.5468	65.0936	81.367	-21.96909	-21.15542	0
569	20.34175	-59.39791	-84.62168	18.71441	52.07488	-72.41663	-25.22377	34.98781	68.34828	83.80801	-19.52808	-17.90074	0
570	17.08707	-53.70222	-72.41663	13.83239	44.75185	-63.46626	-18.71441	38.24249	72.41663	87.06269	-14.64606	-13.01872	0
571	17.08707	-45.56552	-61.02525	8.95037	39.86983	-54.51589	-13.01872	41.49717	77.29865	90.31737	-8.95037	-8.1367	0
572	19.52808	-36.61515	-52.07488	4.06835	35.80148	-46.37919	-7.32303	46.37919	82.18067	94.38572	-4.06835	-2.44101	0
573	22.78276	-26.85111	-47.19286	0	34.17414	-39.05616	0	53.70222	87.87636	98.45407	0.81367	0.81367	0
574	26.03744	-19.52808	-43.93818	-4.06835	33.36047	-33.36047	5.69569	61.83892	93.57205	103.33609	4.88202	4.88202	0
575	28.47845	-15.45973	-43.93818	-7.32303	34.98781	-30.91946	11.39138	68.34828	99.26774	106.59077	7.32303	7.32303	0
576	29.29212	-16.2734	-45.56552	-6.50936	37.42882	-31.73313	15.45973	73.2303	103.33609	109.03178	7.32303	8.1367	0
577	29.29212	-18.71441	-48.8202	-4.88202	39.05616	-34.17414	17.90074	76.48498	107.40444	112.28646	8.1367	8.1367	0
578	30.91946	-20.34175	-50.44754	-3.25468	40.6835	-34.98781	21.15542	79.73966	109.84545	114.72747	9.76404	8.95037	0
579	32.5468	-19.52808	-49.63387	-3.25468	40.6835	-33.36047	24.4101	81.367	112.28646	117.98215	13.01872	9.76404	0
580	33.36047	-16.2734	-48.00653	-5.69569	40.6835	-30.91946	26.03744	80.55333	113.10013	118.79582	14.64606	10.57771	0
581	33.36047	-13.83239	-47.19286	-8.95037	39.86983	-29.29212	25.22377	78.11232	111.47279	117.98215	14.64606	10.57771	0
582	34.17414	-12.20505	-46.37919	-12.20505	39.86983	-28.47845	23.59643	76.48498	109.84545	116.35481	13.83239	11.39138	0
583	34.98781	-9.76404	-44.75185	-13.83239	39.05616	-27.66478	22.78276	77.29865	109.84545	115.54114	13.01872	11.39138	0
584	35.80148	-5.69569	-42.31084	-16.2734	37.42882	-24.4101	23.59643	81.367	112.28646	117.16848	14.64606	13.01872	0
585	37.42882	0	-37.42882	-20.34175	36.61515	-18.71441	24.4101	87.87636	117.98215	121.23683	17.90074	16.2734	0
586	42.31084	8.1367	-33.36047	-26.03744	36.61515	-13.01872	24.4101	94.38572	123.67784	125.30518	21.15542	19.52808	0
587	47.19286	17.90074	-29.29212	-32.5468	37.42882	-6.50936	22.78276	98.45407	128.55986	130.1872	25.22377	23.59643	0
588	52.07488	27.66478	-25.22377	-39.86983	37.42882	0	21.15542	98.45407	131.00087	133.44188	28.47845	27.66478	0
589	56.14323	39.05616	-19.52808	-47.19286	35.80148	9.76404	17.90074	96.01306	131.81454	135.88289	31.73313	31.73313	0
590	58.58424	49.63387	-12.20505	-54.51589	33.36047	19.52808	12.20505	89.5037	130.1872	136.69656	33.36047	35.80148	0
591	61.02525	58.58424	-4.06835	-60.21158	31.73313	27.66478	3.25468	82.99434	126.93252	136.69656	35.80148	39.05616	0
592	64.27993	66.72094	1.62734	-65.90727	30.10579	34.17414	-4.88202	77.29865	122.86417	135.88289	39.05616	41.49717	0
593	69.16195	73.2303	4.06835	-71.60296	31.73313	38.24249	-13.83239	74.04397	121.23683	135.88289	42.31084	43.12451	0
594	76.48498	76.48498	0	-77.29865	37.42882	37.42882	-23.59643	71.60296	121.23683	135.88289	44.75185	45.56552	0
595	82.99434	75.67131	-4.88202	-81.367	43.12451	34.98781	-31.73313	70.78929	121.23683	136.69656	46.37919	48.8202	0
596	87.87636	72.41663	-10.57771	-82.18067	48.8202	30.91946	-38.24249	71.60296	122.86417	139.13757	48.00653	51.26121	0
597	92.75838	67.53461	-19.52808	-82.18067	56.14323	24.4101	-43.93818	73.2303	124.49151	140.76491	48.8202	52.88855	0
598	98.45407	62.65259	-30.91946	-82.18067	64.27993	16.2734	-50.44754	72.41663	125.30518	141.57858	48.8202	52.88855	0
599	104.96343	59.39791	-43.12451	-82.99434	74.04397	8.1367	-59.39791	67.53461	123.67784	139.95124	48.00653	52.07488	0
600	110.65912	57.77057	-51.26121	-84.62168	81.367	3.25468	-69.16195	58.58424	118.79582	135.88289	46.37919	50.44754	0
601	114.72747	57.77057	-53.70222	-87.06269	85.43535	1.62734	-76.48498	49.63387	113.10013	131.00087	43.93818	48.8202	0
602	116.35481	59.39791	-53.70222	-88.69003	87.06269	2.44101	-81.367	41.49717	105.7771	124.49151	40.6835	47.19286	-1250	T-0
603	115.54114	58.58424	-52.07488	-88.69003	87.06269	1.62734	-82.18067	34.98781	98.45407	117.16848	37.42882	45.56552	0
604	114.72747	53.70222	-53.70222	-86.24902	88.69003	0	-80.55333	31.73313	94.38572	111.47279	35.80148	43.12451	0
605	112.28646	47.19286	-58.58424	-80.55333	90.31737	-5.69569	-77.29865	32.5468	92.75838	109.03178	34.17414	42.31084	0
606	107.40444	40.6835	-65.90727	-73.2303	90.31737	-13.01872	-73.2303	35.80148	94.38572	110.65912	34.17414	43.12451	0
607	104.14976	34.98781	-72.41663	-66.72094	89.5037	-20.34175	-65.90727	43.12451	100.89508	116.35481	35.80148	48.00653	0
608	97.6404	26.03744	-75.67131	-59.39791	87.06269	-26.03744	-57.77057	51.26121	108.21811	122.86417	39.05616	51.26121	0
609	85.43535	13.83239	-74.85764	-48.00653	79.73966	-31.73313	-48.00653	57.77057	113.10013	126.11885	39.86983	51.26121	0
610	69.16195	0.81367	-70.78929	-34.17414	69.97562	-34.98781	-38.24249	60.21158	113.9138	125.30518	37.42882	48.00653	0
611	56.14323	-8.1367	-65.90727	-22.78276	60.21158	-37.42882	-31.73313	59.39791	111.47279	121.23683	32.5468	42.31084	0
612	46.37919	-17.08707	-62.65259	-13.83239	53.70222	-40.6835	-28.47845	56.14323	105.7771	114.72747	25.22377	34.98781	0
613	40.6835	-24.4101	-61.83892	-8.1367	51.26121	-44.75185	-26.03744	52.07488	97.6404	104.96343	15.45973	25.22377	0
614	38.24249	-30.10579	-64.27993	-3.25468	52.07488	-49.63387	-24.4101	48.8202	89.5037	95.19939	4.06835	13.83239	0
615	37.42882	-36.61515	-69.97562	0	55.32956	-55.32956	-23.59643	44.75185	81.367	85.43535	-7.32303	0.81367	0
616	36.61515	-44.75185	-78.11232	4.06835	59.39791	-63.46626	-22.78276	41.49717	75.67131	77.29865	-17.90074	-10.57771	0
617	36.61515	-52.88855	-87.06269	8.1367	62.65259	-71.60296	-21.96909	39.86983	72.41663	70.78929	-26.03744	-19.52808	0
618	35.80148	-57.77057	-93.57205	11.39138	62.65259	-77.29865	-21.96909	39.05616	71.60296	69.16195	-30.10579	-24.4101	0
619	32.5468	-61.02525	-94.38572	13.83239	61.83892	-78.11232	-21.15542	37.42882	71.60296	69.16195	-30.91946	-26.03744	0
620	28.47845	-61.83892	-91.13104	16.2734	57.77057	-77.29865	-19.52808	34.98781	71.60296	69.16195	-29.29212	-24.4101	0
621	23.59643	-62.65259	-87.06269	17.90074	53.70222	-74.85764	-19.52808	32.5468	71.60296	69.97562	-26.85111	-21.96909	0
622	18.71441	-65.0936	-84.62168	19.52808	50.44754	-74.85764	-20.34175	30.91946	71.60296	69.97562	-26.03744	-20.34175	0
623	14.64606	-67.53461	-85.43535	21.15542	50.44754	-76.48498	-21.15542	30.91946	70.78929	69.16195	-26.03744	-19.52808	0
624	13.01872	-70.78929	-89.5037	21.96909	52.88855	-80.55333	-21.96909	31.73313	69.97562	69.16195	-26.85111	-19.52808	0
625	11.39138	-74.04397	-92.75838	24.4101	55.32956	-83.80801	-21.96909	34.17414	69.97562	69.16195	-26.85111	-18.71441	0
626	11.39138	-77.29865	-94.38572	26.85111	54.51589	-87.06269	-21.15542	36.61515	72.41663	70.78929	-26.03744	-17.08707	0
627	11.39138	-79.73966	-95.19939	30.10579	53.70222	-88.69003	-19.52808	39.05616	75.67131	74.04397	-24.4101	-16.2734	0
628	11.39138	-79.73966	-95.19939	31.73313	52.07488	-88.69003	-17.90074	40.6835	78.92599	76.48498	-22.78276	-15.45973	0
629	11.39138	-78.92599	-92.75838	30.91946	50.44754	-87.06269	-17.08707	40.6835	79.73966	77.29865	-22.78276	-15.45973	0
630	10.57771	-77.29865	-89.5037	29.29212	48.8202	-83.80801	-16.2734	39.05616	79.73966	76.48498	-23.59643	-17.08707	0
631	10.57771	-74.85764	-86.24902	26.85111	48.00653	-80.55333	-16.2734	36.61515	77.29865	74.04397	-25.22377	-18.71441	0
632	13.83239	-71.60296	-83.80801	25.22377	48.8202	-78.92599	-15.45973	34.98781	75.67131	70.78929	-27.66478	-20.34175	0
633	15.45973	-70.78929	-83.80801	24.4101	49.63387	-78.92599	-16.2734	34.17414	74.04397	67.53461	-30.91946	-22.78276	0
634	15.45973	-72.41663	-85.43535	26.85111	50.44754	-80.55333	-18.71441	34.98781	72.41663	65.0936	-34.98781	-26.03744	0
635	12.20505	-76.48498	-87.06269	30.91946	49.63387	-82.99434	-21.15542	36.61515	72.41663	62.65259	-39.05616	-29.29212	0
636	8.95037	-80.55333	-88.69003	35.80148	48.8202	-86.24902	-23.59643	37.42882	72.41663	61.02525	-43.12451	-33.36047	0
637	6.50936	-82.18067	-89.5037	36.61515	48.8202	-87.06269	-24.4101	39.05616	74.04397	60.21158	-44.75185	-35.80148	0
638	5.69569	-78.92599	-88.69003	34.17414	48.8202	-84.62168	-21.96909	42.31084	76.48498	61.02525	-43.93818	-35.80148	0
639	5.69569	-72.41663	-83.80801	30.91946	47.19286	-78.92599	-16.2734	44.75185	78.11232	62.65259	-41.49717	-34.17414	0
640	3.25468	-65.90727	-74.85764	28.47845	40.6835	-70.78929	-8.1367	45.56552	77.29865	62.65259	-39.86983	-31.73313	0
641	-2.44101	-58.58424	-59.39791	29.29212	28.47845	-58.58424	0	39.05616	71.60296	58.58424	-38.24249	-29.29212	0
642	-14.64606	-48.8202	-35.80148	30.91946	10.57771	-42.31084	6.50936	19.52808	56.9569	50.44754	-37.42882	-26.03744	0
643	-30.91946	-32.5468	-1.62734	31.73313	-14.64606	-17.90074	12.20505	-19.52808	27.66478	35.80148	-36.61515	-19.52808	0
644	-50.44754	-10.57771	39.86983	30.10579	-45.56552	13.83239	15.45973	-82.18067	-14.64606	17.90074	-33.36047	-10.57771	0
645	-68.34828	16.2734	85.43535	25.22377	-77.29865	49.63387	16.2734	-164.36134	-67.53461	0	-26.85111	2.44101	0
646	-82.99434	44.75185	128.55986	18.71441	-106.59077	85.43535	17.08707	-256.30605	-126.93252	-17.08707	-15.45973	19.52808	0
647	-94.38572	69.16195	164.36134	12.20505	-129.37353	115.54114	17.90074	-349.8781	-187.95777	-30.10579	0	39.86983	0
648	-99.26774	91.13104	190.39878	3.25468	-144.83326	139.13757	20.34175	-436.94079	-241.65999	-33.36047	21.96909	64.27993	0
649	-94.38572	117.98215	211.5542	-11.39138	-152.96996	163.54767	23.59643	-516.68045	-280.71615	-17.90074	59.39791	98.45407	0
650	-81.367	155.41097	236.77797	-36.61515	-159.47932	196.09447	30.10579	-591.53809	-303.49891	17.08707	113.10013	145.64693	0
651	-64.27993	204.23117	268.5111	-69.97562	-166.80235	235.9643	31.73313	-685.11014	-329.53635	59.39791	178.19373	204.23117	0
652	-45.56552	254.67871	301.0579	-104.96343	-173.31171	278.27514	12.20505	-836.45276	-393.81628	81.367	243.28733	266.88376	0
653	-24.4101	304.31258	329.53635	-139.95124	-178.19373	316.51763	-43.12451	-1067.53504	-520.7488	61.83892	298.61689	328.72268	0
654	0	356.38746	355.57379	-179.0074	-178.19373	355.57379	-137.51023	-1355.57422	-699.7562	4.88202	346.62342	390.5616	0
655	35.80148	419.85372	377.54288	-228.64127	-174.93905	401.13931	-267.69743	-1661.51414	-897.47801	-65.0936	395.44362	458.90988	0
656	82.99434	486.57466	396.25729	-292.10753	-167.61602	458.09621	-429.61776	-1956.06268	-1078.92642	-125.30518	454.84153	537.0222	0
657	141.57858	541.90422	414.15803	-362.89682	-150.52895	511.79843	-622.45755	-2215.62341	-1219.69133	-164.36134	517.49412	611.87984	0
658	213.18154	584.21506	402.76665	-426.36308	-105.7771	531.32651	-837.26643	-2418.22724	-1305.12668	-184.70309	563.05964	664.76839	0
659	297.80322	592.35176	324.65433	-468.67392	-20.34175	488.202	-1057.771	-2541.09141	-1332.79146	-193.65346	589.09708	692.43317	0
660	385.67958	550.04092	185.51676	-482.50631	95.19939	385.67958	-1245.72877	-2576.07922	-1302.68567	-193.65346	595.60644	694.06051	0
661	458.09621	471.9286	21.15542	-475.18328	218.87723	255.49238	-1370.22028	-2524.81801	-1218.87766	-178.19373	585.8424	674.53243	0
662	509.35742	387.30692	-129.37353	-458.09621	325.468	137.51023	-1434.50021	-2394.63081	-1083.80844	-136.69656	572.82368	645.24031	0
663	540.27688	317.3313	-239.21898	-437.75446	398.6983	57.77057	-1444.26425	-2194.46799	-899.91902	-61.83892	565.50065	617.57553	0
664	545.1589	272.57945	-288.03918	-414.9717	423.92207	17.08707	-1397.88506	-1943.04396	-685.11014	22.78276	559.80496	589.91075	0
665	515.86678	249.79669	-276.6478	-386.49325	400.32564	7.32303	-1298.61732	-1661.51414	-471.11493	91.13104	542.71789	556.55028	0
666	455.6552	235.9643	-225.38659	-348.25076	343.36874	17.90074	-1160.29342	-1371.84762	-289.66652	134.25555	498.77971	507.73008	0
667	379.17022	218.87723	-163.54767	-299.43056	271.76578	32.5468	-995.11841	-1096.01349	-165.17501	143.20592	422.29473	436.12712	0
668	298.61689	191.21245	-108.21811	-244.101	202.60383	42.31084	-817.73835	-847.84414	-97.6404	112.28646	320.58598	349.06443	0
669	223.75925	156.22464	-67.53461	-189.58511	145.64693	42.31084	-645.24031	-633.03526	-73.2303	61.83892	216.43622	259.56073	0
670	163.54767	119.60949	-43.12451	-140.76491	102.52242	35.80148	-489.82934	-452.40052	-69.16195	16.2734	131.00087	184.70309	0
671	121.23683	89.5037	-30.91946	-105.7771	75.67131	27.66478	-357.20113	-300.24423	-60.21158	-5.69569	74.85764	131.00087	0
672	96.82673	68.34828	-27.66478	-82.99434	61.83892	18.71441	-248.16935	-168.42969	-31.73313	-1.62734	45.56552	98.45407	0
673	83.80801	52.88855	-29.29212	-69.16195	56.14323	10.57771	-160.29299	-52.88855	11.39138	20.34175	35.80148	78.11232	0
674	75.67131	39.86983	-34.98781	-57.77057	54.51589	0.81367	-92.75838	43.12451	61.83892	51.26121	34.98781	65.0936	0
675	69.16195	26.85111	-42.31084	-48.8202	55.32956	-8.1367	-43.93818	121.23683	108.21811	79.73966	37.42882	55.32956	0
676	64.27993	14.64606	-48.8202	-40.6835	56.14323	-17.08707	-8.95037	179.0074	144.01959	100.89508	38.24249	46.37919	0
677	60.21158	6.50936	-55.32956	-34.17414	56.9569	-24.4101	13.01872	218.87723	169.24336	113.9138	37.42882	39.86983	0
678	56.14323	0.81367	-58.58424	-28.47845	56.9569	-28.47845	28.47845	244.91467	187.95777	123.67784	36.61515	34.98781	0
679	51.26121	-3.25468	-57.77057	-24.4101	53.70222	-30.10579	39.86983	261.18807	203.4175	131.00087	34.98781	30.91946	0
680	44.75185	-7.32303	-54.51589	-18.71441	48.8202	-30.10579	48.8202	272.57945	213.18154	135.06922	31.73313	26.85111	0
681	38.24249	-9.76404	-50.44754	-13.83239	43.12451	-29.29212	56.9569	283.15716	217.24989	136.69656	26.85111	21.96909	0
682	32.5468	-11.39138	-48.00653	-8.95037	39.05616	-28.47845	64.27993	293.73487	218.87723	136.69656	22.78276	16.2734	0
683	29.29212	-13.01872	-47.19286	-6.50936	37.42882	-29.29212	69.16195	305.12625	223.75925	139.13757	19.52808	12.20505	0
684	29.29212	-13.83239	-49.63387	-7.32303	38.24249	-30.91946	73.2303	316.51763	236.77797	148.08794	18.71441	10.57771	0
685	32.5468	-14.64606	-55.32956	-10.57771	41.49717	-34.98781	74.85764	327.09534	256.30605	164.36134	20.34175	9.76404	0
686	36.61515	-14.64606	-61.02525	-12.20505	46.37919	-39.05616	76.48498	337.67305	280.71615	183.07575	24.4101	9.76404	0
687	40.6835	-15.45973	-64.27993	-11.39138	50.44754	-40.6835	80.55333	349.06443	304.31258	202.60383	29.29212	10.57771	0
688	43.12451	-15.45973	-65.90727	-10.57771	52.88855	-39.86983	86.24902	361.26948	323.84066	218.87723	34.17414	12.20505	0
689	43.93818	-13.83239	-64.27993	-10.57771	52.88855	-37.42882	91.13104	371.03352	336.85938	230.26861	38.24249	13.83239	0
690	44.75185	-9.76404	-61.02525	-13.01872	52.07488	-34.17414	94.38572	378.35655	344.18241	236.77797	40.6835	14.64606	0
691	47.19286	-5.69569	-56.9569	-17.90074	51.26121	-30.10579	96.01306	382.4249	347.43709	240.03265	41.49717	14.64606	0
692	48.8202	-2.44101	-52.88855	-21.15542	50.44754	-26.03744	97.6404	386.49325	349.06443	241.65999	41.49717	14.64606	0
693	49.63387	0	-50.44754	-24.4101	50.44754	-24.4101	98.45407	391.37527	349.8781	242.47366	40.6835	13.83239	0
694	50.44754	1.62734	-49.63387	-26.85111	51.26121	-23.59643	100.89508	396.25729	352.31911	244.101	39.86983	13.83239	0
695	51.26121	1.62734	-51.26121	-26.85111	52.88855	-25.22377	104.14976	402.76665	355.57379	248.16935	40.6835	13.83239	0
696	52.07488	0	-52.88855	-25.22377	53.70222	-29.29212	107.40444	409.27601	360.45581	252.2377	41.49717	13.83239	0
697	52.07488	-4.06835	-56.9569	-21.96909	54.51589	-34.98781	110.65912	414.9717	366.1515	256.30605	43.93818	13.83239	0
698	51.26121	-8.95037	-60.21158	-19.52808	55.32956	-38.24249	113.10013	419.85372	371.03352	260.3744	47.19286	13.83239	0
699	50.44754	-10.57771	-61.02525	-17.90074	55.32956	-38.24249	116.35481	423.92207	376.72921	265.25642	50.44754	14.64606	0
700	48.8202	-9.76404	-59.39791	-17.90074	53.70222	-35.80148	119.60949	426.36308	380.79756	270.13844	52.88855	15.45973	0
701	48.8202	-4.88202	-57.77057	-19.52808	52.07488	-30.91946	121.23683	427.99042	383.23857	273.39312	52.07488	16.2734	0
702	50.44754	-0.81367	-56.14323	-23.59643	49.63387	-27.66478	122.86417	429.61776	384.86591	275.02046	51.26121	16.2734	0
703	52.07488	2.44101	-54.51589	-27.66478	49.63387	-24.4101	125.30518	434.49978	385.67958	276.6478	50.44754	16.2734	0
704	53.70222	5.69569	-52.07488	-30.10579	50.44754	-22.78276	126.93252	440.19547	387.30692	279.08881	49.63387	17.08707	0
705	55.32956	5.69569	-50.44754	-30.91946	50.44754	-21.96909	128.55986	445.89116	389.74793	283.15716	48.8202	16.2734	0
706	56.9569	5.69569	-49.63387	-30.91946	52.07488	-22.78276	129.37353	452.40052	393.00261	287.22551	48.8202	15.45973	0
707	57.77057	4.88202	-51.26121	-31.73313	55.32956	-23.59643	130.1872	458.09621	396.25729	292.10753	50.44754	13.83239	0
708	58.58424	5.69569	-53.70222	-33.36047	57.77057	-25.22377	131.81454	462.97823	399.51197	297.80322	52.07488	14.64606	0
709	58.58424	7.32303	-55.32956	-34.98781	59.39791	-24.4101	133.44188	465.41924	401.95298	302.68524	54.51589	15.45973	0
710	59.39791	8.95037	-53.70222	-35.80148	58.58424	-22.78276	135.88289	467.86025	403.58032	307.56726	56.9569	17.08707	0
711	59.39791	13.01872	-49.63387	-35.80148	55.32956	-19.52808	139.13757	470.30126	404.39399	311.63561	58.58424	19.52808	0
712	58.58424	17.08707	-43.93818	-35.80148	51.26121	-14.64606	142.39225	473.55594	406.02133	314.07662	59.39791	21.15542	0
713	56.9569	18.71441	-37.42882	-34.17414	45.56552	-10.57771	146.4606	479.25163	406.02133	316.51763	60.21158	21.96909	0
714	56.9569	18.71441	-34.17414	-33.36047	41.49717	-8.95037	148.90161	484.13365	406.835	318.95864	59.39791	21.96909	0
715	56.9569	18.71441	-34.17414	-33.36047	40.6835	-8.1367	150.52895	488.202	409.27601	322.21332	58.58424	20.34175	0
716	56.14323	20.34175	-34.98781	-33.36047	42.31084	-8.95037	152.96996	494.71136	413.34436	326.28167	58.58424	20.34175	0
717	54.51589	21.15542	-36.61515	-32.5468	44.75185	-11.39138	156.22464	501.22072	417.41271	330.35002	60.21158	21.15542	0
718	52.88855	18.71441	-37.42882	-33.36047	44.75185	-13.83239	159.47932	506.10274	421.48106	335.23204	62.65259	23.59643	0
719	52.88855	17.08707	-35.80148	-34.98781	43.93818	-13.01872	162.734	510.17109	424.73574	339.30039	65.0936	26.85111	0
720	52.88855	18.71441	-32.5468	-37.42882	41.49717	-8.95037	165.98868	512.6121	426.36308	342.55507	68.34828	30.10579	0
721	52.88855	22.78276	-26.85111	-40.6835	39.05616	-3.25468	168.42969	514.23944	427.17675	344.99608	71.60296	31.73313	0
722	55.32956	28.47845	-23.59643	-43.93818	38.24249	1.62734	170.05703	515.86678	427.17675	346.62342	73.2303	31.73313	0
723	57.77057	33.36047	-21.96909	-46.37919	39.05616	4.88202	171.68437	518.30779	427.17675	347.43709	72.41663	30.91946	0
724	60.21158	34.98781	-24.4101	-48.00653	41.49717	4.88202	172.49804	521.56247	427.17675	346.62342	70.78929	29.29212	0
725	64.27993	34.17414	-28.47845	-48.00653	45.56552	2.44101	174.12538	525.63082	427.99042	345.80975	67.53461	26.03744	0
726	66.72094	30.91946	-32.5468	-48.00653	49.63387	0	175.75272	531.32651	429.61776	344.99608	65.0936	23.59643	0
727	64.27993	27.66478	-34.17414	-46.37919	48.8202	-2.44101	177.38006	536.20853	432.05877	344.18241	63.46626	22.78276	0
728	58.58424	27.66478	-31.73313	-45.56552	45.56552	-3.25468	179.82107	540.27688	434.49978	344.18241	63.46626	24.4101	0
729	52.88855	29.29212	-27.66478	-44.75185	39.86983	-0.81367	182.26208	542.71789	436.12712	344.99608	65.0936	26.03744	0
730	51.26121	34.98781	-20.34175	-46.37919	35.80148	4.88202	187.1441	544.34523	437.75446	346.62342	66.72094	28.47845	0
731	54.51589	43.93818	-12.20505	-51.26121	32.5468	13.83239	192.83979	547.59991	438.56813	348.25076	67.53461	29.29212	0
732	57.77057	52.88855	-5.69569	-56.14323	31.73313	22.78276	198.53548	550.85459	437.75446	348.25076	67.53461	30.10579	0
733	59.39791	58.58424	-0.81367	-59.39791	29.29212	27.66478	203.4175	554.92294	436.12712	345.80975	66.72094	30.91946	0
734	58.58424	61.83892	3.25468	-61.02525	26.03744	31.73313	207.48585	559.80496	435.31345	343.36874	66.72094	30.91946	0
735	55.32956	61.83892	7.32303	-61.02525	22.78276	34.17414	211.5542	566.31432	435.31345	341.7414	66.72094	31.73313	0
736	51.26121	61.02525	9.76404	-58.58424	20.34175	34.98781	217.24989	572.01001	435.31345	340.92773	67.53461	31.73313	0
737	48.8202	59.39791	11.39138	-56.14323	17.90074	34.98781	222.94558	577.7057	435.31345	340.11406	68.34828	32.5468	0
738	46.37919	58.58424	13.01872	-53.70222	16.2734	35.80148	229.45494	581.77405	435.31345	340.11406	70.78929	34.98781	0
739	44.75185	59.39791	14.64606	-52.88855	13.83239	36.61515	235.9643	583.40139	433.68611	340.11406	72.41663	36.61515	0
740	43.12451	59.39791	17.90074	-52.88855	11.39138	39.05616	241.65999	583.40139	430.43143	338.48672	73.2303	38.24249	0
741	42.31084	60.21158	22.78276	-52.07488	9.76404	43.12451	244.101	580.96038	424.73574	334.41837	71.60296	37.42882	0
742	40.6835	61.83892	27.66478	-52.88855	7.32303	46.37919	245.72834	578.51937	419.04005	329.53635	69.97562	36.61515	0
743	38.24249	63.46626	31.73313	-52.07488	3.25468	48.8202	246.54201	576.89203	413.34436	323.84066	67.53461	35.80148	0
744	34.98781	65.90727	35.80148	-51.26121	0	51.26121	248.16935	577.7057	406.835	318.14497	64.27993	34.17414	0
745	33.36047	69.16195	38.24249	-51.26121	-2.44101	53.70222	250.61036	579.33304	400.32564	311.63561	59.39791	30.91946	0
746	31.73313	72.41663	42.31084	-52.88855	-4.88202	56.9569	252.2377	580.96038	393.81628	305.12625	54.51589	26.85111	0
747	29.29212	78.11232	48.00653	-54.51589	-8.95037	61.83892	256.30605	582.58772	388.12059	298.61689	50.44754	24.4101	0
748	26.03744	82.99434	55.32956	-54.51589	-14.64606	68.34828	261.18807	583.40139	382.4249	292.10753	48.8202	24.4101	0
749	22.78276	88.69003	65.0936	-56.14323	-21.15542	76.48498	266.88376	581.77405	375.10187	285.59817	48.00653	26.03744	0
750	19.52808	95.19939	74.04397	-57.77057	-26.85111	84.62168	272.57945	577.7057	366.96517	279.08881	48.8202	30.10579	0
751	15.45973	100.89508	83.80801	-58.58424	-34.17414	91.94471	278.27514	572.82368	358.0148	271.76578	51.26121	35.80148	0
752	11.39138	104.96343	93.57205	-58.58424	-40.6835	99.26774	282.34349	567.12799	348.25076	264.44275	53.70222	41.49717	0
753	5.69569	107.40444	102.52242	-56.9569	-48.00653	104.96343	287.22551	561.4323	336.85938	256.30605	56.14323	46.37919	0
754	0	108.21811	109.84545	-54.51589	-55.32956	108.21811	290.48019	556.55028	325.468	247.35568	57.77057	50.44754	0
755	-6.50936	108.21811	114.72747	-51.26121	-61.02525	110.65912	292.9212	550.04092	312.44928	237.59164	57.77057	54.51589	0
756	-9.76404	109.03178	119.60949	-49.63387	-65.0936	113.10013	295.36221	541.90422	299.43056	227.01393	57.77057	56.9569	0
757	-11.39138	112.28646	123.67784	-51.26121	-67.53461	117.16848	296.98955	533.76752	286.41184	216.43622	56.9569	58.58424	0
758	-13.01872	115.54114	129.37353	-52.88855	-71.60296	122.0505	300.24423	524.00348	271.76578	205.04484	55.32956	59.39791	0
759	-15.45973	120.42316	138.3239	-53.70222	-77.29865	128.55986	301.87157	511.79843	255.49238	191.21245	53.70222	60.21158	0
760	-20.34175	125.30518	148.08794	-53.70222	-84.62168	135.88289	301.87157	494.71136	235.15063	175.75272	49.63387	60.21158	0
761	-26.85111	130.1872	157.85198	-52.88855	-92.75838	143.20592	299.43056	474.36961	212.36787	157.03831	45.56552	59.39791	0
762	-34.98781	134.25555	170.05703	-50.44754	-103.33609	151.34262	296.17588	452.40052	188.77144	137.51023	39.86983	58.58424	0
763	-41.49717	139.95124	183.07575	-49.63387	-113.10013	161.10666	294.54854	432.05877	165.17501	119.60949	35.80148	58.58424	0
764	-47.19286	146.4606	194.46713	-50.44754	-121.23683	170.05703	294.54854	412.53069	141.57858	101.70875	31.73313	57.77057	0
765	-51.26121	152.15629	204.23117	-50.44754	-128.55986	178.19373	294.54854	393.00261	117.98215	86.24902	28.47845	57.77057	0
766	-56.14323	156.22464	213.18154	-49.63387	-135.06922	184.70309	296.17588	373.47453	96.01306	70.78929	26.85111	58.58424	0
767	-60.21158	159.47932	221.31824	-49.63387	-140.76491	190.39878	297.80322	353.13278	74.04397	56.14323	26.03744	60.21158	0
768	-62.65259	162.734	227.8276	-49.63387	-145.64693	196.09447	299.43056	330.35002	51.26121	41.49717	26.03744	62.65259	0
769	-66.72094	165.98868	236.77797	-50.44754	-152.15629	202.60383	299.43056	305.12625	26.85111	25.22377	26.03744	65.0936	0
770	-72.41663	170.8707	246.54201	-50.44754	-160.29299	209.11319	298.61689	277.46147	0	8.1367	24.4101	67.53461	0
771	-79.73966	174.93905	256.30605	-48.00653	-168.42969	215.62255	294.54854	246.54201	-28.47845	-9.76404	21.15542	68.34828	0
772	-87.06269	178.19373	264.44275	-44.75185	-176.56639	219.6909	288.85285	214.80888	-60.21158	-30.10579	17.08707	68.34828	0
773	-96.82673	179.82107	274.20679	-39.86983	-186.33043	224.57292	282.34349	181.44841	-91.13104	-50.44754	13.83239	67.53461	0
774	-107.40444	179.82107	284.7845	-34.17414	-196.90814	230.26861	275.83413	148.90161	-122.0505	-69.97562	10.57771	67.53461	0
775	-117.16848	179.0074	295.36221	-30.10579	-206.67218	235.15063	269.32477	115.54114	-152.96996	-87.87636	7.32303	66.72094	0
776	-125.30518	179.0074	303.49891	-26.85111	-214.80888	240.03265	261.18807	80.55333	-183.07575	-106.59077	4.06835	66.72094	0
777	-131.00087	179.82107	310.82194	-24.4101	-220.50457	244.101	253.05137	44.75185	-212.36787	-125.30518	0	65.0936	0
778	-134.25555	182.26208	315.70396	-23.59643	-225.38659	247.35568	244.91467	8.95037	-241.65999	-144.83326	-4.88202	63.46626	0
779	-136.69656	184.70309	321.39965	-24.4101	-229.45494	252.2377	237.59164	-27.66478	-271.76578	-164.36134	-11.39138	61.83892	0
780	-139.95124	187.95777	327.09534	-24.4101	-234.33696	257.11972	231.08228	-64.27993	-301.0579	-183.88942	-17.90074	59.39791	0
781	-146.4606	188.77144	335.23204	-21.96909	-240.84632	262.00174	223.75925	-100.89508	-330.35002	-202.60383	-25.22377	56.9569	0
782	-154.5973	188.77144	343.36874	-17.90074	-249.79669	266.07009	215.62255	-135.06922	-357.20113	-219.6909	-32.5468	54.51589	0
783	-162.734	186.33043	349.8781	-13.83239	-257.11972	268.5111	208.29952	-166.80235	-382.4249	-235.15063	-38.24249	52.07488	0
784	-168.42969	183.88942	352.31911	-9.76404	-262.00174	267.69743	199.34915	-195.2808	-406.02133	-249.79669	-43.12451	48.8202	0
785	-170.05703	179.0074	349.8781	-6.50936	-262.81541	263.62908	190.39878	-221.31824	-427.99042	-263.62908	-48.8202	45.56552	0
786	-170.8707	171.68437	343.36874	-1.62734	-259.56073	257.11972	181.44841	-245.72834	-446.70483	-275.83413	-52.88855	41.49717	0
787	-174.93905	162.734	336.85938	4.88202	-256.30605	248.98302	174.12538	-268.5111	-462.97823	-286.41184	-56.14323	38.24249	0
788	-179.0074	153.78363	331.97736	11.39138	-253.86504	241.65999	168.42969	-288.03918	-475.99695	-295.36221	-57.77057	35.80148	0
789	-181.44841	145.64693	327.09534	17.08707	-252.2377	235.15063	163.54767	-305.93992	-488.202	-303.49891	-58.58424	33.36047	0
790	-183.07575	136.69656	319.77231	21.96909	-250.61036	227.8276	157.03831	-324.65433	-498.77971	-310.82194	-61.83892	29.29212	0
791	-183.88942	126.93252	310.82194	27.66478	-246.54201	218.87723	148.90161	-343.36874	-509.35742	-318.95864	-65.90727	24.4101	0
792	-183.07575	118.79582	301.0579	31.73313	-242.47366	209.11319	139.95124	-358.82847	-517.49412	-326.28167	-69.97562	18.71441	0
793	-182.26208	111.47279	291.29386	35.80148	-237.59164	199.34915	130.1872	-371.03352	-523.18981	-331.97736	-73.2303	12.20505	0
794	-179.82107	103.33609	280.71615	38.24249	-230.26861	189.58511	122.0505	-379.17022	-524.81715	-335.23204	-76.48498	7.32303	0
795	-172.49804	96.01306	268.5111	37.42882	-220.50457	181.44841	115.54114	-382.4249	-524.00348	-336.04571	-78.92599	2.44101	0
796	-162.734	90.31737	254.67871	34.17414	-209.11319	172.49804	111.47279	-381.61123	-520.7488	-335.23204	-81.367	-1.62734	0
797	-152.96996	84.62168	240.84632	32.5468	-197.72181	162.734	108.21811	-378.35655	-515.86678	-332.79103	-82.18067	-5.69569	0
798	-147.27427	78.11232	227.8276	33.36047	-187.95777	152.96996	105.7771	-374.2882	-508.54375	-330.35002	-82.99434	-9.76404	0
799	-143.20592	70.78929	216.43622	35.80148	-180.63474	143.20592	104.14976	-370.21985	-501.22072	-327.09534	-82.99434	-13.01872	0
800	-142.39225	61.83892	206.67218	39.86983	-175.75272	134.25555	102.52242	-366.96517	-493.08402	-324.65433	-82.18067	-15.45973	0
801	-142.39225	53.70222	200.16282	44.75185	-173.31171	126.93252	100.89508	-362.08315	-484.13365	-320.58598	-82.99434	-17.08707	0
802	-143.20592	45.56552	193.65346	49.63387	-170.8707	118.79582	98.45407	-356.38746	-475.99695	-318.14497	-83.80801	-18.71441	0
803	-143.20592	38.24249	185.51676	53.70222	-165.98868	111.47279	96.01306	-350.69177	-467.04658	-315.70396	-85.43535	-21.15542	0
804	-141.57858	30.91946	174.93905	55.32956	-160.29299	102.52242	92.75838	-343.36874	-457.28254	-312.44928	-86.24902	-23.59643	0
805	-138.3239	23.59643	163.54767	56.9569	-152.15629	92.75838	89.5037	-334.41837	-446.70483	-308.38093	-87.06269	-26.85111	0
806	-134.25555	17.08707	151.34262	58.58424	-143.20592	83.80801	85.43535	-323.84066	-434.49978	-303.49891	-87.06269	-29.29212	0
807	-131.00087	10.57771	140.76491	59.39791	-135.88289	74.85764	82.99434	-312.44928	-420.66739	-296.98955	-85.43535	-31.73313	0
808	-127.74619	4.88202	131.81454	60.21158	-130.1872	67.53461	80.55333	-300.24423	-406.02133	-289.66652	-83.80801	-33.36047	0
809	-124.49151	0	124.49151	59.39791	-124.49151	61.83892	76.48498	-289.66652	-391.37527	-281.52982	-80.55333	-33.36047	0
810	-117.98215	-0.81367	116.35481	56.9569	-117.16848	56.9569	72.41663	-279.90248	-376.72921	-273.39312	-77.29865	-33.36047	0
811	-109.03178	0	108.21811	52.88855	-109.03178	53.70222	67.53461	-271.76578	-363.71049	-266.07009	-75.67131	-34.17414	0
812	-101.70875	0	101.70875	48.8202	-102.52242	50.44754	63.46626	-264.44275	-352.31911	-259.56073	-74.04397	-34.17414	0
813	-97.6404	0	97.6404	46.37919	-98.45407	48.00653	61.83892	-255.49238	-340.92773	-253.86504	-73.2303	-34.17414	0
814	-95.19939	-2.44101	93.57205	45.56552	-94.38572	44.75185	61.02525	-244.91467	-328.72268	-247.35568	-71.60296	-34.17414	0
815	-92.75838	-5.69569	87.06269	46.37919	-90.31737	39.86983	60.21158	-233.52329	-316.51763	-240.84632	-69.97562	-34.98781	0
816	-89.5037	-11.39138	78.11232	48.00653	-83.80801	33.36047	58.58424	-222.94558	-303.49891	-235.15063	-68.34828	-34.98781	0
817	-85.43535	-15.45973	68.34828	49.63387	-77.29865	25.22377	56.14323	-213.18154	-292.10753	-229.45494	-65.90727	-34.17414	0
818	-79.73966	-18.71441	59.39791	48.00653	-69.97562	19.52808	54.51589	-204.23117	-279.90248	-223.75925	-62.65259	-32.5468	0
819	-72.41663	-18.71441	52.88855	45.56552	-62.65259	16.2734	53.70222	-196.09447	-267.69743	-217.24989	-57.77057	-30.10579	0
820	-66.72094	-17.08707	48.00653	41.49717	-57.77057	14.64606	52.88855	-187.1441	-256.30605	-210.74053	-53.70222	-26.85111	0
821	-62.65259	-15.45973	46.37919	39.05616	-54.51589	14.64606	52.07488	-179.0074	-244.91467	-204.23117	-49.63387	-23.59643	0
822	-61.02525	-14.64606	46.37919	37.42882	-53.70222	14.64606	51.26121	-171.68437	-235.15063	-199.34915	-47.19286	-19.52808	0
823	-62.65259	-16.2734	46.37919	39.05616	-53.70222	14.64606	50.44754	-164.36134	-227.01393	-196.09447	-45.56552	-17.08707	0
824	-66.72094	-21.96909	44.75185	43.93818	-54.51589	12.20505	48.8202	-157.85198	-222.13191	-195.2808	-44.75185	-16.2734	0
825	-67.53461	-27.66478	40.6835	47.19286	-52.88855	8.1367	45.56552	-152.96996	-217.24989	-195.2808	-44.75185	-17.08707	0
826	-61.02525	-28.47845	34.98781	43.93818	-46.37919	3.25468	43.12451	-145.64693	-211.5542	-193.65346	-43.12451	-17.08707	0
827	-49.63387	-24.4101	27.66478	36.61515	-37.42882	0	42.31084	-137.51023	-202.60383	-189.58511	-41.49717	-15.45973	0
828	-41.49717	-20.34175	23.59643	30.10579	-30.91946	0	42.31084	-128.55986	-192.83979	-184.70309	-38.24249	-13.01872	0
829	-38.24249	-17.08707	21.96909	26.85111	-26.85111	0.81367	43.12451	-120.42316	-182.26208	-179.0074	-35.80148	-11.39138	0
830	-37.42882	-15.45973	21.15542	26.03744	-25.22377	1.62734	43.12451	-113.9138	-173.31171	-174.12538	-33.36047	-9.76404	0
831	-35.80148	-13.83239	21.15542	24.4101	-25.22377	2.44101	43.12451	-107.40444	-165.98868	-170.05703	-30.91946	-8.1367	0
832	-35.80148	-12.20505	21.96909	22.78276	-26.85111	4.06835	42.31084	-102.52242	-160.29299	-166.80235	-29.29212	-6.50936	0
833	-35.80148	-11.39138	22.78276	22.78276	-28.47845	4.06835	41.49717	-97.6404	-155.41097	-165.17501	-28.47845	-6.50936	0
834	-37.42882	-12.20505	21.96909	23.59643	-30.10579	3.25468	39.86983	-92.75838	-151.34262	-163.54767	-26.85111	-6.50936	0
835	-37.42882	-14.64606	21.15542	24.4101	-30.10579	1.62734	39.05616	-87.87636	-146.4606	-161.92033	-26.03744	-7.32303	0
836	-37.42882	-17.08707	19.52808	25.22377	-29.29212	0	37.42882	-82.99434	-141.57858	-160.29299	-26.03744	-6.50936	0
837	-36.61515	-19.52808	17.90074	26.03744	-28.47845	0	36.61515	-76.48498	-135.88289	-157.85198	-24.4101	-5.69569	0
838	-34.98781	-20.34175	16.2734	25.22377	-26.03744	-0.81367	34.98781	-70.78929	-129.37353	-154.5973	-22.78276	-5.69569	0
839	-32.5468	-20.34175	13.83239	24.4101	-23.59643	-2.44101	34.17414	-66.72094	-124.49151	-151.34262	-21.96909	-5.69569	0
840	-30.91946	-18.71441	11.39138	22.78276	-21.15542	-3.25468	33.36047	-62.65259	-119.60949	-148.08794	-20.34175	-4.88202	0
841	-28.47845	-17.08707	9.76404	21.15542	-19.52808	-4.06835	33.36047	-59.39791	-114.72747	-146.4606	-20.34175	-4.88202	0
842	-26.03744	-16.2734	6.50936	19.52808	-18.71441	-4.88202	32.5468	-56.14323	-111.47279	-144.83326	-20.34175	-4.88202	0
843	-24.4101	-15.45973	4.06835	18.71441	-17.90074	-7.32303	30.10579	-52.88855	-108.21811	-143.20592	-20.34175	-5.69569	0
844	-22.78276	-17.08707	3.25468	20.34175	-17.08707	-8.95037	26.85111	-48.8202	-105.7771	-141.57858	-21.15542	-6.50936	0
845	-23.59643	-18.71441	4.06835	21.96909	-15.45973	-8.95037	24.4101	-43.93818	-100.89508	-138.3239	-20.34175	-5.69569	0
846	-22.78276	-19.52808	4.06835	22.78276	-13.83239	-8.95037	21.15542	-39.05616	-96.01306	-134.25555	-17.90074	-4.06835	0
847	-20.34175	-19.52808	2.44101	22.78276	-10.57771	-9.76404	18.71441	-34.17414	-90.31737	-130.1872	-15.45973	-1.62734	0
848	-18.71441	-19.52808	0	21.96909	-8.95037	-10.57771	16.2734	-30.91946	-85.43535	-126.93252	-14.64606	-0.81367	0
849	-17.90074	-19.52808	-0.81367	21.15542	-8.1367	-10.57771	15.45973	-28.47845	-81.367	-125.30518	-15.45973	-1.62734	0
850	-18.71441	-19.52808	0	20.34175	-9.76404	-10.57771	16.2734	-26.03744	-78.92599	-123.67784	-15.45973	-2.44101	0
851	-20.34175	-17.08707	0.81367	19.52808	-11.39138	-8.95037	18.71441	-23.59643	-75.67131	-122.86417	-16.2734	-2.44101	0
852	-21.96909	-15.45973	3.25468	18.71441	-13.83239	-6.50936	21.96909	-21.15542	-72.41663	-122.86417	-16.2734	-2.44101	0
853	-21.96909	-13.01872	4.88202	16.2734	-15.45973	-4.88202	24.4101	-17.90074	-69.16195	-121.23683	-15.45973	-1.62734	0
854	-20.34175	-11.39138	4.06835	13.83239	-14.64606	-4.06835	26.03744	-14.64606	-65.90727	-119.60949	-13.83239	-1.62734	0
855	-17.90074	-12.20505	2.44101	13.01872	-12.20505	-4.88202	26.85111	-11.39138	-62.65259	-116.35481	-12.20505	-0.81367	0
856	-17.08707	-15.45973	0	13.83239	-9.76404	-8.1367	26.03744	-8.95037	-60.21158	-113.9138	-10.57771	-1.62734	0
857	-16.2734	-19.52808	-4.06835	17.08707	-9.76404	-12.20505	26.03744	-5.69569	-56.9569	-110.65912	-8.95037	-2.44101	0
858	-15.45973	-25.22377	-5.69569	21.15542	-10.57771	-16.2734	25.22377	-2.44101	-52.88855	-106.59077	-6.50936	-1.62734	0
859	-15.45973	-27.66478	-5.69569	24.4101	-10.57771	-17.08707	25.22377	1.62734	-47.19286	-100.89508	-3.25468	0	0
860	-15.45973	-26.85111	-4.88202	24.4101	-10.57771	-16.2734	26.03744	6.50936	-40.6835	-94.38572	-0.81367	0.81367	0
861	-14.64606	-23.59643	-5.69569	21.96909	-8.1367	-16.2734	26.03744	9.76404	-34.98781	-89.5037	0.81367	2.44101	0
862	-12.20505	-20.34175	-8.1367	18.71441	-4.06835	-16.2734	24.4101	11.39138	-31.73313	-86.24902	1.62734	3.25468	0
863	-10.57771	-17.90074	-11.39138	16.2734	-1.62734	-16.2734	21.96909	11.39138	-30.91946	-86.24902	0.81367	3.25468	0
864	-8.95037	-17.90074	-13.01872	14.64606	0	-16.2734	18.71441	9.76404	-32.5468	-87.06269	-1.62734	1.62734	0
865	-6.50936	-19.52808	-12.20505	14.64606	0	-16.2734	14.64606	8.95037	-33.36047	-88.69003	-4.88202	0	0
866	-5.69569	-20.34175	-11.39138	14.64606	0.81367	-16.2734	10.57771	8.95037	-33.36047	-88.69003	-7.32303	-3.25468	0
867	-3.25468	-18.71441	-12.20505	13.83239	3.25468	-16.2734	8.1367	10.57771	-30.91946	-86.24902	-8.95037	-4.88202	0
868	-0.81367	-16.2734	-13.01872	12.20505	5.69569	-15.45973	7.32303	13.01872	-26.85111	-82.99434	-8.1367	-5.69569	0
869	0.81367	-14.64606	-14.64606	10.57771	7.32303	-14.64606	8.1367	16.2734	-21.96909	-78.92599	-7.32303	-6.50936	0
870	0	-15.45973	-15.45973	9.76404	7.32303	-15.45973	8.1367	18.71441	-17.90074	-74.85764	-5.69569	-6.50936	0
871	-2.44101	-17.08707	-15.45973	11.39138	5.69569	-16.2734	8.95037	21.15542	-14.64606	-71.60296	-4.06835	-6.50936	0
872	-4.06835	-17.90074	-13.83239	11.39138	3.25468	-16.2734	9.76404	22.78276	-11.39138	-69.16195	-2.44101	-5.69569	0
873	-4.06835	-16.2734	-12.20505	9.76404	1.62734	-14.64606	11.39138	26.03744	-6.50936	-66.72094	0	-3.25468	0
874	-3.25468	-14.64606	-12.20505	8.95037	2.44101	-13.83239	13.01872	30.10579	-1.62734	-62.65259	1.62734	-0.81367	0
875	-3.25468	-15.45973	-14.64606	8.95037	5.69569	-15.45973	14.64606	33.36047	1.62734	-59.39791	4.06835	0	0
876	-2.44101	-18.71441	-19.52808	9.76404	8.95037	-19.52808	14.64606	36.61515	5.69569	-56.14323	4.88202	0	0
877	0	-23.59643	-25.22377	12.20505	12.20505	-24.4101	13.01872	39.05616	8.1367	-53.70222	3.25468	-2.44101	0
878	0.81367	-28.47845	-30.10579	13.83239	14.64606	-30.10579	10.57771	40.6835	10.57771	-51.26121	0	-5.69569	0
879	3.25468	-31.73313	-34.17414	13.83239	17.90074	-33.36047	8.1367	41.49717	13.01872	-48.8202	-2.44101	-9.76404	0
880	4.06835	-32.5468	-37.42882	13.01872	20.34175	-34.98781	6.50936	43.12451	14.64606	-47.19286	-4.88202	-13.01872	0
881	4.06835	-30.91946	-37.42882	12.20505	20.34175	-34.98781	4.88202	43.93818	16.2734	-46.37919	-5.69569	-15.45973	0
882	4.06835	-28.47845	-35.80148	9.76404	20.34175	-33.36047	4.06835	44.75185	17.90074	-44.75185	-6.50936	-15.45973	0
883	4.88202	-26.03744	-33.36047	8.1367	20.34175	-31.73313	5.69569	45.56552	19.52808	-43.12451	-4.88202	-15.45973	0
884	7.32303	-25.22377	-32.5468	6.50936	20.34175	-30.91946	6.50936	45.56552	20.34175	-41.49717	-3.25468	-14.64606	0
885	8.95037	-24.4101	-33.36047	5.69569	21.15542	-30.91946	8.95037	47.19286	21.96909	-38.24249	-0.81367	-14.64606	0
886	9.76404	-26.03744	-36.61515	5.69569	22.78276	-33.36047	10.57771	48.8202	25.22377	-34.98781	0	-14.64606	0
887	11.39138	-28.47845	-41.49717	6.50936	24.4101	-36.61515	12.20505	52.07488	29.29212	-30.10579	0.81367	-14.64606	0
888	12.20505	-32.5468	-45.56552	8.1367	26.85111	-39.86983	12.20505	55.32956	34.98781	-25.22377	2.44101	-13.83239	0
889	9.76404	-36.61515	-47.19286	12.20505	27.66478	-43.12451	12.20505	59.39791	40.6835	-21.15542	4.06835	-13.01872	0
890	4.88202	-41.49717	-48.00653	17.08707	27.66478	-45.56552	11.39138	62.65259	45.56552	-18.71441	4.06835	-10.57771	0
891	1.62734	-45.56552	-48.8202	21.15542	26.03744	-47.19286	8.1367	64.27993	48.8202	-17.08707	4.06835	-8.95037	0
892	0	-48.8202	-48.8202	24.4101	25.22377	-47.19286	5.69569	64.27993	50.44754	-16.2734	4.06835	-8.1367	0
893	0	-48.8202	-48.8202	24.4101	24.4101	-45.56552	3.25468	62.65259	50.44754	-17.08707	4.88202	-7.32303	0
894	3.25468	-44.75185	-48.00653	20.34175	26.03744	-43.93818	0.81367	61.83892	49.63387	-17.08707	5.69569	-5.69569	0
895	10.57771	-37.42882	-48.00653	13.01872	28.47845	-40.6835	-1.62734	61.02525	48.8202	-17.08707	6.50936	-5.69569	0
896	17.08707	-31.73313	-48.00653	6.50936	31.73313	-39.05616	-4.06835	61.02525	48.00653	-17.08707	6.50936	-5.69569	0
897	22.78276	-28.47845	-48.00653	2.44101	34.98781	-38.24249	-5.69569	61.02525	48.00653	-16.2734	5.69569	-6.50936	0
898	24.4101	-26.03744	-48.00653	0	35.80148	-38.24249	-5.69569	62.65259	50.44754	-15.45973	4.06835	-7.32303	0
899	24.4101	-26.03744	-48.00653	0	35.80148	-38.24249	-4.06835	65.0936	53.70222	-14.64606	2.44101	-8.1367	0
900	22.78276	-26.85111	-48.8202	0.81367	35.80148	-39.05616	-2.44101	68.34828	58.58424	-13.83239	0.81367	-8.95037	0
901	21.15542	-28.47845	-50.44754	2.44101	35.80148	-40.6835	-1.62734	70.78929	62.65259	-11.39138	0	-8.95037	0
902	19.52808	-30.91946	-52.07488	4.06835	35.80148	-42.31084	0	72.41663	65.0936	-9.76404	0	-8.1367	0
903	17.08707	-31.73313	-52.07488	5.69569	34.98781	-43.12451	0	72.41663	65.90727	-8.95037	0	-8.1367	0
904	13.83239	-34.17414	-52.07488	8.1367	33.36047	-44.75185	0	70.78929	65.90727	-8.95037	0	-8.1367	0
905	12.20505	-36.61515	-53.70222	10.57771	32.5468	-47.19286	0.81367	70.78929	65.90727	-8.95037	0	-8.1367	0
906	11.39138	-39.86983	-55.32956	13.01872	33.36047	-49.63387	1.62734	71.60296	65.90727	-8.1367	0	-8.1367	0
907	12.20505	-42.31084	-59.39791	13.83239	34.98781	-52.88855	2.44101	73.2303	67.53461	-5.69569	0	-8.95037	0
908	13.01872	-43.93818	-62.65259	13.83239	38.24249	-55.32956	4.06835	75.67131	70.78929	-2.44101	0.81367	-8.1367	0
909	15.45973	-44.75185	-65.90727	11.39138	41.49717	-56.14323	4.88202	78.92599	74.85764	0	3.25468	-7.32303	0
910	17.08707	-43.93818	-66.72094	10.57771	43.93818	-56.14323	4.88202	79.73966	77.29865	2.44101	4.88202	-7.32303	0
911	18.71441	-42.31084	-65.90727	9.76404	43.93818	-55.32956	4.88202	78.92599	78.11232	4.06835	6.50936	-7.32303	0
912	19.52808	-40.6835	-63.46626	8.1367	43.12451	-53.70222	4.88202	76.48498	77.29865	4.06835	7.32303	-8.1367	0
913	21.15542	-38.24249	-61.02525	7.32303	41.49717	-51.26121	4.06835	73.2303	74.85764	3.25468	6.50936	-8.95037	0
914	21.96909	-37.42882	-58.58424	6.50936	41.49717	-49.63387	2.44101	68.34828	70.78929	0	4.88202	-9.76404	0
915	21.96909	-36.61515	-58.58424	6.50936	40.6835	-48.8202	0.81367	65.0936	67.53461	-2.44101	3.25468	-10.57771	0
916	22.78276	-35.80148	-60.21158	5.69569	40.6835	-48.8202	-0.81367	61.83892	65.90727	-4.88202	1.62734	-11.39138	0
917	24.4101	-36.61515	-62.65259	4.88202	41.49717	-50.44754	-4.06835	61.02525	65.0936	-5.69569	1.62734	-11.39138	0
918	26.03744	-38.24249	-65.0936	4.88202	43.93818	-52.88855	-6.50936	61.02525	66.72094	-5.69569	3.25468	-9.76404	0
919	25.22377	-40.6835	-66.72094	6.50936	45.56552	-54.51589	-8.1367	62.65259	69.97562	-2.44101	4.88202	-7.32303	0
920	21.96909	-43.12451	-66.72094	8.95037	44.75185	-56.14323	-8.95037	65.90727	74.04397	1.62734	8.1367	-4.06835	0
921	19.52808	-45.56552	-66.72094	10.57771	43.93818	-56.14323	-8.95037	69.16195	78.11232	5.69569	11.39138	-1.62734	0
922	18.71441	-45.56552	-65.90727	10.57771	43.12451	-55.32956	-8.1367	70.78929	81.367	8.95037	13.83239	0.81367	0
923	20.34175	-43.93818	-64.27993	8.95037	42.31084	-52.07488	-7.32303	71.60296	82.18067	9.76404	14.64606	3.25468	0
924	22.78276	-40.6835	-63.46626	6.50936	43.12451	-50.44754	-7.32303	70.78929	82.18067	8.95037	14.64606	4.88202	0
925	25.22377	-38.24249	-63.46626	4.88202	43.93818	-49.63387	-7.32303	69.97562	80.55333	6.50936	13.01872	4.88202	0
926	26.85111	-37.42882	-65.0936	4.06835	44.75185	-51.26121	-8.1367	69.97562	78.92599	4.88202	10.57771	3.25468	0
927	28.47845	-36.61515	-68.34828	4.06835	47.19286	-52.88855	-8.1367	71.60296	78.92599	4.06835	8.1367	1.62734	0
928	30.91946	-34.98781	-71.60296	3.25468	52.07488	-54.51589	-8.1367	74.04397	78.92599	4.06835	7.32303	0	0
929	34.17414	-34.17414	-74.85764	1.62734	56.9569	-56.14323	-8.95037	75.67131	79.73966	4.06835	5.69569	-2.44101	0
930	37.42882	-34.17414	-78.11232	0	59.39791	-57.77057	-11.39138	76.48498	81.367	4.88202	4.06835	-4.88202	0
931	39.05616	-33.36047	-77.29865	-0.81367	60.21158	-56.9569	-13.83239	76.48498	82.99434	6.50936	3.25468	-6.50936	0
932	39.86983	-31.73313	-74.85764	-3.25468	58.58424	-54.51589	-14.64606	77.29865	84.62168	8.1367	3.25468	-6.50936	0
933	40.6835	-29.29212	-71.60296	-5.69569	56.14323	-50.44754	-13.83239	76.48498	87.06269	10.57771	4.06835	-5.69569	0
934	41.49717	-25.22377	-67.53461	-8.1367	54.51589	-46.37919	-12.20505	75.67131	87.87636	11.39138	4.88202	-4.88202	0
935	42.31084	-21.96909	-64.27993	-10.57771	52.88855	-43.12451	-11.39138	75.67131	87.87636	11.39138	4.88202	-5.69569	0
936	39.86983	-21.15542	-62.65259	-9.76404	51.26121	-41.49717	-9.76404	75.67131	88.69003	11.39138	4.88202	-6.50936	0
937	34.98781	-23.59643	-62.65259	-6.50936	49.63387	-41.49717	-8.1367	77.29865	89.5037	11.39138	4.88202	-6.50936	0
938	30.10579	-28.47845	-63.46626	-1.62734	48.00653	-43.93818	-7.32303	80.55333	90.31737	13.01872	5.69569	-7.32303	0
939	28.47845	-33.36047	-65.90727	0.81367	48.00653	-48.00653	-6.50936	82.99434	91.94471	15.45973	6.50936	-7.32303	0
940	29.29212	-36.61515	-69.97562	2.44101	50.44754	-52.88855	-5.69569	86.24902	94.38572	17.90074	7.32303	-6.50936	0
941	33.36047	-38.24249	-74.04397	1.62734	53.70222	-56.9569	-5.69569	87.87636	97.6404	20.34175	8.1367	-4.88202	0
942	37.42882	-37.42882	-75.67131	0	55.32956	-57.77057	-4.88202	88.69003	98.45407	21.96909	8.1367	-4.06835	0
943	39.86983	-35.80148	-74.85764	-1.62734	55.32956	-56.9569	-4.06835	88.69003	98.45407	21.15542	5.69569	-4.88202	0
944	38.24249	-34.17414	-73.2303	-1.62734	54.51589	-55.32956	-3.25468	86.24902	97.6404	18.71441	0.81367	-7.32303	0
945	34.98781	-34.98781	-70.78929	0	53.70222	-55.32956	-2.44101	85.43535	95.19939	15.45973	-4.88202	-11.39138	0
946	32.5468	-37.42882	-70.78929	2.44101	52.07488	-56.9569	-1.62734	85.43535	94.38572	13.01872	-9.76404	-14.64606	0
947	30.91946	-39.86983	-72.41663	4.06835	52.88855	-59.39791	-2.44101	87.06269	94.38572	13.01872	-12.20505	-16.2734	0
948	30.91946	-41.49717	-74.85764	4.06835	53.70222	-62.65259	-4.06835	89.5037	95.19939	15.45973	-13.01872	-17.08707	0
949	31.73313	-41.49717	-78.11232	4.06835	55.32956	-63.46626	-4.88202	91.94471	97.6404	17.90074	-12.20505	-15.45973	0
950	33.36047	-41.49717	-81.367	4.06835	56.14323	-62.65259	-4.06835	95.19939	101.70875	21.96909	-7.32303	-13.83239	0
951	34.17414	-39.86983	-82.99434	3.25468	56.9569	-61.83892	-2.44101	98.45407	105.7771	26.03744	-1.62734	-11.39138	0
952	35.80148	-38.24249	-81.367	1.62734	56.9569	-60.21158	0	99.26774	108.21811	29.29212	4.06835	-8.1367	0
953	37.42882	-35.80148	-78.92599	0	56.9569	-57.77057	1.62734	98.45407	109.03178	32.5468	8.95037	-5.69569	0
954	38.24249	-35.80148	-76.48498	-0.81367	56.9569	-56.14323	3.25468	96.82673	108.21811	34.98781	13.01872	-3.25468	0
955	38.24249	-36.61515	-74.85764	-0.81367	56.14323	-55.32956	3.25468	96.01306	107.40444	35.80148	15.45973	-0.81367	0
956	38.24249	-39.86983	-75.67131	0.81367	56.14323	-56.9569	2.44101	96.01306	107.40444	35.80148	15.45973	0	0
957	39.05616	-42.31084	-78.11232	2.44101	57.77057	-59.39791	0.81367	97.6404	107.40444	35.80148	14.64606	0	0
958	39.86983	-43.93818	-81.367	1.62734	60.21158	-61.83892	0	100.08141	107.40444	34.98781	11.39138	-1.62734	0
959	41.49717	-43.93818	-83.80801	0	62.65259	-63.46626	0	102.52242	108.21811	34.17414	8.95037	-4.06835	0
960	43.93818	-41.49717	-85.43535	-0.81367	65.0936	-64.27993	0	104.96343	110.65912	34.17414	6.50936	-5.69569	0
961	44.75185	-38.24249	-83.80801	-3.25468	65.0936	-61.83892	2.44101	106.59077	113.9138	35.80148	4.88202	-6.50936	0
962	43.12451	-34.98781	-78.92599	-4.06835	64.27993	-57.77057	7.32303	108.21811	115.54114	38.24249	4.06835	-7.32303	0
963	42.31084	-30.10579	-74.04397	-5.69569	61.02525	-52.88855	13.01872	109.03178	117.16848	39.05616	4.88202	-7.32303	0
964	43.12451	-22.78276	-69.16195	-11.39138	56.9569	-46.37919	18.71441	110.65912	117.98215	40.6835	6.50936	-5.69569	0
965	44.75185	-13.83239	-64.27993	-17.90074	54.51589	-39.05616	25.22377	113.9138	118.79582	41.49717	7.32303	-4.06835	0
966	45.56552	-6.50936	-58.58424	-23.59643	52.07488	-32.5468	32.5468	119.60949	122.0505	43.12451	8.95037	-2.44101	0
967	45.56552	-2.44101	-53.70222	-26.85111	50.44754	-28.47845	38.24249	126.93252	125.30518	46.37919	10.57771	-1.62734	0
968	47.19286	-1.62734	-52.07488	-28.47845	49.63387	-26.03744	43.93818	134.25555	130.1872	50.44754	13.01872	-0.81367	0
969	48.00653	-0.81367	-51.26121	-27.66478	49.63387	-24.4101	48.8202	140.76491	135.06922	55.32956	14.64606	0	0
970	49.63387	1.62734	-50.44754	-27.66478	48.8202	-23.59643	52.88855	146.4606	140.76491	61.02525	17.08707	1.62734	0
971	50.44754	5.69569	-48.00653	-28.47845	48.8202	-20.34175	56.9569	149.71528	144.01959	65.90727	18.71441	2.44101	0
972	51.26121	10.57771	-43.93818	-30.10579	47.19286	-16.2734	60.21158	150.52895	146.4606	69.97562	20.34175	3.25468	0
973	52.07488	15.45973	-39.86983	-32.5468	45.56552	-12.20505	61.02525	149.71528	146.4606	71.60296	21.15542	3.25468	0
974	52.07488	18.71441	-35.80148	-34.98781	44.75185	-8.95037	60.21158	147.27427	144.83326	72.41663	20.34175	3.25468	0
975	52.88855	19.52808	-34.17414	-35.80148	43.93818	-7.32303	58.58424	145.64693	144.01959	72.41663	19.52808	2.44101	0
976	54.51589	21.15542	-34.17414	-38.24249	43.93818	-6.50936	57.77057	145.64693	143.20592	72.41663	18.71441	0.81367	0
977	58.58424	24.4101	-35.80148	-42.31084	45.56552	-4.06835	56.9569	148.08794	144.01959	75.67131	19.52808	1.62734	0
978	65.0936	30.10579	-38.24249	-48.8202	49.63387	-2.44101	56.14323	152.15629	147.27427	79.73966	21.15542	3.25468	0
979	72.41663	34.17414	-39.05616	-54.51589	53.70222	0	53.70222	155.41097	152.15629	85.43535	24.4101	6.50936	0
980	74.04397	37.42882	-37.42882	-58.58424	54.51589	2.44101	52.07488	158.66565	157.85198	91.94471	30.10579	12.20505	0
981	69.97562	40.6835	-30.91946	-61.02525	50.44754	7.32303	50.44754	159.47932	162.734	99.26774	37.42882	18.71441	0
982	65.90727	45.56552	-21.15542	-62.65259	43.12451	13.83239	48.00653	158.66565	165.98868	104.96343	44.75185	25.22377	0
983	64.27993	53.70222	-11.39138	-65.0936	38.24249	21.96909	43.93818	154.5973	165.98868	109.03178	50.44754	30.10579	0
984	65.90727	62.65259	-3.25468	-68.34828	34.98781	30.10579	35.80148	148.90161	164.36134	111.47279	52.88855	34.17414	0
985	69.16195	71.60296	1.62734	-72.41663	33.36047	36.61515	25.22377	142.39225	162.734	113.10013	53.70222	36.61515	0
986	72.41663	77.29865	4.88202	-75.67131	32.5468	40.6835	13.83239	137.51023	159.47932	113.10013	52.07488	36.61515	0
987	75.67131	78.92599	3.25468	-78.11232	35.80148	40.6835	2.44101	133.44188	157.03831	111.47279	49.63387	34.98781	0
988	82.18067	78.92599	-2.44101	-81.367	41.49717	37.42882	-6.50936	131.81454	155.41097	111.47279	48.8202	33.36047	0
989	90.31737	76.48498	-13.01872	-84.62168	51.26121	30.91946	-13.83239	131.81454	155.41097	111.47279	49.63387	33.36047	0
990	97.6404	71.60296	-25.22377	-85.43535	61.02525	21.96909	-20.34175	131.00087	154.5973	111.47279	50.44754	33.36047	0
991	103.33609	65.0936	-39.05616	-84.62168	71.60296	11.39138	-27.66478	127.74619	152.96996	111.47279	52.07488	34.17414	0
992	110.65912	58.58424	-50.44754	-84.62168	81.367	3.25468	-36.61515	121.23683	148.90161	110.65912	54.51589	36.61515	0
993	116.35481	55.32956	-57.77057	-85.43535	89.5037	0	-44.75185	111.47279	144.01959	109.84545	56.9569	39.05616	0
994	121.23683	53.70222	-60.21158	-87.06269	93.57205	-0.81367	-51.26121	101.70875	136.69656	108.21811	59.39791	42.31084	0
995	123.67784	52.88855	-61.02525	-87.06269	94.38572	0	-53.70222	91.13104	129.37353	105.7771	61.83892	44.75185	0
996	122.86417	52.07488	-61.02525	-86.24902	94.38572	-0.81367	-54.51589	83.80801	122.86417	103.33609	61.83892	45.56552	0
997	120.42316	49.63387	-63.46626	-83.80801	95.19939	-4.06835	-53.70222	80.55333	117.16848	102.52242	60.21158	44.75185	0
998	116.35481	42.31084	-69.16195	-79.73966	96.01306	-11.39138	-51.26121	81.367	115.54114	103.33609	58.58424	41.49717	0
999	113.10013	33.36047	-77.29865	-74.04397	96.01306	-21.15542	-48.8202	84.62168	117.16848	105.7771	56.14323	37.42882	0
1000	109.03178	24.4101	-84.62168	-66.72094	96.01306	-30.10579	-43.93818	91.13104	122.0505	109.03178	54.51589	32.5468	0
1001	102.52242	14.64606	-88.69003	-58.58424	94.38572	-37.42882	-34.98781	100.08141	128.55986	112.28646	52.07488	27.66478	0
1002	91.94471	4.88202	-88.69003	-48.00653	89.5037	-43.12451	-23.59643	108.21811	132.62821	113.9138	48.00653	21.96909	0
