samplenr	I	II	III	aVR	aVL	aVF	V1	V2	V3	V4	V5	V6	measurement
0	-3.25468	-2.44101	0	2.44101	-1.62734	-0.81367	4.06835	0.81367	0	-2.44101	0	-0.81367	0
1	-13.83239	-12.20505	0.81367	13.01872	-7.32303	-4.88202	18.71441	4.88202	-0.81367	-9.76404	0.81367	-3.25468	0
2	-29.29212	-24.4101	2.44101	26.85111	-16.2734	-10.57771	39.05616	10.57771	-2.44101	-19.52808	3.25468	-5.69569	0
3	-39.05616	-34.98781	4.88202	37.42882	-23.59643	-16.2734	55.32956	15.45973	-1.62734	-25.22377	5.69569	-7.32303	0
4	-43.12451	-40.6835	8.95037	43.12451	-30.91946	-20.34175	67.53461	17.90074	-0.81367	-28.47845	8.95037	-6.50936	0
5	-43.93818	-42.31084	11.39138	45.56552	-34.17414	-20.34175	74.04397	18.71441	0	-28.47845	11.39138	-4.88202	0
6	-46.37919	-42.31084	12.20505	45.56552	-34.17414	-19.52808	76.48498	18.71441	0	-28.47845	13.83239	-2.44101	0
7	-48.00653	-41.49717	12.20505	44.75185	-33.36047	-17.90074	76.48498	17.08707	0	-28.47845	14.64606	0	0
8	-49.63387	-40.6835	8.1367	44.75185	-31.73313	-17.90074	75.67131	16.2734	0	-27.66478	15.45973	1.62734	0
9	-49.63387	-39.86983	0.81367	44.75185	-30.91946	-19.52808	74.04397	16.2734	0	-26.85111	16.2734	3.25468	0
10	-49.63387	-39.86983	-2.44101	44.75185	-30.10579	-21.15542	72.41663	17.08707	0.81367	-26.03744	17.08707	4.88202	0
11	-48.8202	-39.86983	-4.06835	44.75185	-27.66478	-21.96909	71.60296	19.52808	2.44101	-24.4101	17.90074	5.69569	0
12	-47.19286	-40.6835	-3.25468	43.93818	-25.22377	-21.96909	70.78929	21.96909	4.88202	-21.15542	19.52808	7.32303	0
13	-48.00653	-40.6835	-0.81367	42.31084	-23.59643	-21.15542	71.60296	24.4101	8.1367	-17.90074	21.15542	7.32303	0
14	-52.07488	-41.49717	2.44101	41.49717	-25.22377	-18.71441	73.2303	25.22377	10.57771	-14.64606	21.15542	8.1367	0
15	-55.32956	-42.31084	4.88202	42.31084	-26.85111	-17.08707	74.85764	26.03744	11.39138	-12.20505	21.15542	8.95037	0
16	-55.32956	-43.12451	5.69569	43.12451	-27.66478	-17.08707	75.67131	26.03744	10.57771	-10.57771	20.34175	10.57771	0
17	-52.88855	-43.12451	5.69569	43.12451	-27.66478	-17.08707	76.48498	25.22377	8.1367	-9.76404	19.52808	12.20505	0
18	-49.63387	-41.49717	7.32303	43.12451	-27.66478	-16.2734	75.67131	23.59643	4.88202	-9.76404	18.71441	13.83239	0
19	-48.00653	-39.86983	11.39138	42.31084	-28.47845	-13.01872	73.2303	22.78276	3.25468	-9.76404	18.71441	14.64606	0
20	-47.19286	-38.24249	14.64606	41.49717	-30.10579	-10.57771	71.60296	21.96909	4.06835	-8.95037	19.52808	14.64606	0
21	-47.19286	-36.61515	14.64606	40.6835	-30.10579	-9.76404	70.78929	23.59643	5.69569	-8.1367	21.15542	13.83239	0
22	-46.37919	-36.61515	12.20505	40.6835	-28.47845	-11.39138	70.78929	25.22377	8.1367	-8.1367	21.96909	13.83239	0
23	-43.12451	-36.61515	9.76404	39.86983	-27.66478	-13.83239	70.78929	26.85111	10.57771	-8.1367	22.78276	13.01872	0
24	-39.05616	-36.61515	9.76404	39.05616	-29.29212	-17.08707	72.41663	27.66478	12.20505	-10.57771	22.78276	13.83239	0
25	-37.42882	-37.42882	10.57771	39.05616	-30.10579	-17.90074	73.2303	27.66478	12.20505	-13.01872	22.78276	14.64606	0
26	-39.05616	-38.24249	11.39138	39.05616	-30.10579	-16.2734	74.04397	28.47845	12.20505	-13.01872	21.96909	16.2734	0
27	-41.49717	-37.42882	11.39138	38.24249	-30.10579	-13.83239	74.85764	28.47845	12.20505	-10.57771	21.96909	17.08707	0
28	-43.93818	-35.80148	9.76404	38.24249	-30.91946	-13.01872	75.67131	28.47845	12.20505	-6.50936	22.78276	19.52808	0
29	-47.19286	-34.17414	4.88202	39.86983	-31.73313	-13.83239	75.67131	29.29212	13.01872	-2.44101	23.59643	21.96909	0
30	-48.8202	-33.36047	1.62734	40.6835	-32.5468	-15.45973	75.67131	30.10579	13.83239	0	25.22377	24.4101	0
31	-48.8202	-34.17414	1.62734	42.31084	-30.91946	-16.2734	75.67131	32.5468	15.45973	1.62734	26.03744	26.85111	0
32	-48.00653	-34.98781	1.62734	42.31084	-28.47845	-17.08707	76.48498	34.98781	18.71441	4.06835	27.66478	28.47845	0
33	-48.8202	-35.80148	4.06835	40.6835	-27.66478	-17.08707	76.48498	37.42882	21.96909	6.50936	28.47845	29.29212	0
34	-52.88855	-35.80148	8.1367	39.05616	-28.47845	-17.90074	77.29865	39.05616	26.03744	8.1367	29.29212	30.10579	0
35	-55.32956	-35.80148	11.39138	38.24249	-30.10579	-17.08707	77.29865	39.86983	27.66478	8.1367	29.29212	30.10579	0
36	-54.51589	-34.98781	13.01872	38.24249	-30.91946	-15.45973	77.29865	39.05616	27.66478	6.50936	28.47845	29.29212	0
37	-52.07488	-34.17414	13.01872	38.24249	-30.91946	-13.01872	77.29865	37.42882	25.22377	3.25468	26.85111	28.47845	0
38	-49.63387	-33.36047	15.45973	38.24249	-31.73313	-12.20505	77.29865	34.98781	21.15542	0	25.22377	26.85111	0
39	-48.8202	-31.73313	20.34175	38.24249	-33.36047	-12.20505	78.92599	34.17414	18.71441	-0.81367	24.4101	26.03744	0
40	-48.8202	-30.91946	22.78276	39.05616	-34.17414	-11.39138	80.55333	35.80148	17.90074	-0.81367	24.4101	26.03744	0
41	-48.8202	-30.91946	21.96909	39.86983	-34.17414	-10.57771	82.99434	39.05616	19.52808	0	26.03744	26.85111	0
42	-49.63387	-32.5468	17.90074	40.6835	-33.36047	-11.39138	84.62168	43.12451	22.78276	2.44101	28.47845	28.47845	0
43	-48.00653	-36.61515	13.83239	42.31084	-28.47845	-12.20505	85.43535	47.19286	26.85111	5.69569	30.91946	29.29212	0
44	-43.93818	-39.86983	11.39138	43.12451	-18.71441	-13.01872	85.43535	49.63387	30.10579	8.95037	33.36047	30.91946	0
45	-40.6835	-43.93818	8.1367	43.93818	-13.01872	-14.64606	85.43535	50.44754	33.36047	11.39138	34.98781	31.73313	0
46	-40.6835	-45.56552	4.88202	43.93818	-13.83239	-17.08707	84.62168	51.26121	34.17414	12.20505	35.80148	32.5468	0
47	-42.31084	-45.56552	4.06835	43.12451	-17.08707	-17.90074	83.80801	50.44754	32.5468	12.20505	36.61515	34.17414	0
48	-44.75185	-42.31084	7.32303	42.31084	-22.78276	-15.45973	82.99434	49.63387	29.29212	9.76404	37.42882	34.98781	0
49	-47.19286	-38.24249	14.64606	41.49717	-28.47845	-10.57771	81.367	48.8202	26.85111	8.1367	36.61515	35.80148	0
50	-48.00653	-34.17414	19.52808	39.86983	-32.5468	-6.50936	80.55333	48.8202	25.22377	4.88202	35.80148	36.61515	0
51	-48.00653	-30.91946	20.34175	38.24249	-34.17414	-4.06835	79.73966	49.63387	24.4101	3.25468	34.17414	36.61515	0
52	-47.19286	-29.29212	19.52808	36.61515	-33.36047	-4.06835	79.73966	52.07488	25.22377	2.44101	33.36047	36.61515	0
53	-44.75185	-28.47845	18.71441	35.80148	-33.36047	-5.69569	79.73966	54.51589	27.66478	2.44101	32.5468	36.61515	0
54	-39.86983	-28.47845	18.71441	34.98781	-34.17414	-8.1367	79.73966	56.14323	30.91946	4.06835	32.5468	35.80148	0
55	-37.42882	-28.47845	19.52808	34.98781	-34.98781	-9.76404	79.73966	57.77057	33.36047	5.69569	33.36047	35.80148	0
56	-39.86983	-29.29212	18.71441	35.80148	-34.17414	-8.95037	80.55333	58.58424	35.80148	6.50936	34.17414	35.80148	0
57	-42.31084	-29.29212	17.90074	36.61515	-33.36047	-8.1367	82.18067	58.58424	35.80148	7.32303	34.98781	35.80148	0
58	-45.56552	-29.29212	15.45973	36.61515	-34.17414	-7.32303	82.99434	56.9569	34.98781	7.32303	34.98781	34.17414	0
59	-47.19286	-28.47845	10.57771	37.42882	-34.98781	-8.95037	83.80801	56.14323	33.36047	6.50936	34.98781	34.17414	0
60	-48.00653	-30.10579	6.50936	38.24249	-34.98781	-10.57771	83.80801	55.32956	30.91946	5.69569	34.98781	34.17414	0
61	-47.19286	-31.73313	5.69569	38.24249	-32.5468	-11.39138	84.62168	55.32956	29.29212	4.88202	34.17414	34.98781	0
62	-46.37919	-33.36047	5.69569	38.24249	-29.29212	-13.01872	84.62168	57.77057	29.29212	6.50936	33.36047	36.61515	0
63	-43.12451	-34.98781	6.50936	38.24249	-27.66478	-13.01872	84.62168	60.21158	31.73313	8.95037	33.36047	37.42882	0
64	-37.42882	-36.61515	8.1367	38.24249	-27.66478	-11.39138	85.43535	61.83892	34.98781	11.39138	34.17414	37.42882	0
65	-34.98781	-39.05616	8.95037	37.42882	-27.66478	-11.39138	85.43535	62.65259	38.24249	13.83239	34.98781	37.42882	0
66	-36.61515	-40.6835	8.1367	38.24249	-26.03744	-13.01872	87.06269	63.46626	39.86983	14.64606	36.61515	36.61515	0
67	-39.86983	-41.49717	6.50936	39.05616	-26.03744	-15.45973	87.87636	62.65259	39.86983	14.64606	37.42882	36.61515	0
68	-43.93818	-41.49717	4.06835	41.49717	-26.85111	-17.08707	88.69003	60.21158	37.42882	13.01872	36.61515	36.61515	0
69	-47.19286	-40.6835	0	42.31084	-28.47845	-19.52808	88.69003	56.14323	33.36047	9.76404	35.80148	36.61515	0
70	-48.00653	-38.24249	-2.44101	43.12451	-29.29212	-21.15542	87.87636	52.88855	29.29212	6.50936	34.98781	36.61515	0
71	-48.00653	-37.42882	-1.62734	43.12451	-28.47845	-20.34175	85.43535	51.26121	26.85111	2.44101	33.36047	35.80148	0
72	-46.37919	-37.42882	0	42.31084	-26.85111	-19.52808	83.80801	50.44754	26.03744	0.81367	30.91946	35.80148	0
73	-46.37919	-37.42882	1.62734	40.6835	-25.22377	-17.90074	82.18067	50.44754	27.66478	0.81367	28.47845	34.17414	0
74	-50.44754	-38.24249	4.88202	39.05616	-26.03744	-15.45973	79.73966	50.44754	29.29212	0.81367	26.85111	33.36047	0
75	-52.07488	-40.6835	5.69569	38.24249	-26.03744	-14.64606	78.92599	50.44754	30.10579	0.81367	24.4101	30.91946	0
76	-51.26121	-43.93818	4.88202	39.05616	-25.22377	-17.08707	78.92599	49.63387	29.29212	0	22.78276	28.47845	0
77	-49.63387	-44.75185	3.25468	40.6835	-24.4101	-18.71441	79.73966	48.00653	27.66478	0	21.15542	26.85111	0
78	-48.8202	-43.93818	0.81367	42.31084	-26.03744	-20.34175	81.367	44.75185	23.59643	-2.44101	19.52808	26.03744	0
79	-48.8202	-42.31084	-2.44101	43.12451	-28.47845	-21.15542	82.99434	40.6835	19.52808	-4.06835	18.71441	26.03744	0
80	-48.00653	-39.05616	-4.06835	43.93818	-29.29212	-21.96909	82.99434	38.24249	15.45973	-6.50936	17.90074	26.03744	0
81	-46.37919	-37.42882	-3.25468	42.31084	-27.66478	-21.15542	82.18067	35.80148	13.01872	-7.32303	17.90074	26.03744	0
82	-43.93818	-37.42882	-2.44101	41.49717	-25.22377	-20.34175	81.367	35.80148	13.01872	-7.32303	19.52808	26.85111	0
83	-39.86983	-38.24249	-0.81367	39.86983	-22.78276	-20.34175	80.55333	35.80148	14.64606	-4.88202	21.15542	27.66478	0
84	-33.36047	-40.6835	0	38.24249	-21.15542	-18.71441	78.92599	35.80148	17.08707	-2.44101	22.78276	29.29212	0
85	-29.29212	-43.12451	0	38.24249	-20.34175	-20.34175	78.11232	35.80148	19.52808	-0.81367	23.59643	30.10579	0
86	-30.91946	-45.56552	-2.44101	39.05616	-17.90074	-22.78276	78.11232	33.36047	19.52808	0	24.4101	30.10579	0
87	-33.36047	-46.37919	-4.88202	39.05616	-17.08707	-24.4101	78.92599	30.10579	18.71441	0	23.59643	30.91946	0
88	-36.61515	-44.75185	-3.25468	39.86983	-17.08707	-25.22377	79.73966	26.03744	14.64606	-2.44101	22.78276	30.10579	0
89	-39.05616	-43.12451	0.81367	39.86983	-19.52808	-26.03744	78.92599	21.96909	8.95037	-6.50936	20.34175	28.47845	0
90	-41.49717	-40.6835	4.88202	40.6835	-21.96909	-25.22377	78.11232	18.71441	2.44101	-12.20505	17.08707	26.03744	0
91	-42.31084	-39.86983	4.88202	40.6835	-21.96909	-23.59643	77.29865	16.2734	-1.62734	-20.34175	13.01872	23.59643	0
92	-41.49717	-39.86983	1.62734	39.86983	-21.15542	-22.78276	76.48498	15.45973	-3.25468	-27.66478	8.95037	22.78276	0
93	-41.49717	-39.86983	0	38.24249	-19.52808	-21.96909	75.67131	15.45973	-1.62734	-30.91946	6.50936	21.96909	0
94	-43.12451	-41.49717	-1.62734	36.61515	-17.90074	-20.34175	75.67131	16.2734	0	-28.47845	5.69569	21.15542	0
95	-43.93818	-43.93818	-3.25468	35.80148	-17.08707	-21.15542	75.67131	16.2734	2.44101	-22.78276	6.50936	21.15542	0
96	-42.31084	-46.37919	-6.50936	35.80148	-14.64606	-23.59643	74.04397	15.45973	4.88202	-16.2734	8.95037	21.15542	0
97	-39.86983	-46.37919	-8.1367	36.61515	-13.83239	-25.22377	67.53461	13.01872	4.88202	-10.57771	11.39138	21.96909	0
98	-37.42882	-43.12451	-4.88202	34.98781	-15.45973	-23.59643	52.88855	10.57771	3.25468	-6.50936	14.64606	22.78276	0
99	-35.80148	-36.61515	1.62734	28.47845	-17.90074	-17.08707	34.98781	8.1367	1.62734	-4.06835	17.90074	26.03744	0
100	-34.17414	-30.10579	8.1367	23.59643	-20.34175	-10.57771	18.71441	8.1367	0	-3.25468	20.34175	28.47845	1000	P+0
101	-31.73313	-24.4101	11.39138	21.15542	-21.15542	-6.50936	8.1367	9.76404	0	-3.25468	21.96909	30.91946	0
102	-30.10579	-19.52808	13.01872	20.34175	-21.15542	-3.25468	2.44101	13.01872	2.44101	-1.62734	24.4101	32.5468	0
103	-24.4101	-15.45973	13.83239	17.90074	-21.15542	-1.62734	0	17.08707	7.32303	0	26.85111	34.98781	0
104	-16.2734	-11.39138	16.2734	14.64606	-21.15542	-1.62734	0	21.15542	13.83239	2.44101	30.10579	37.42882	0
105	-10.57771	-7.32303	17.90074	11.39138	-20.34175	-0.81367	1.62734	25.22377	21.15542	6.50936	32.5468	41.49717	0
106	-9.76404	-3.25468	17.90074	8.1367	-18.71441	1.62734	4.06835	28.47845	27.66478	9.76404	35.80148	45.56552	0
107	-11.39138	0	19.52808	5.69569	-18.71441	5.69569	7.32303	30.10579	30.10579	12.20505	39.05616	48.8202	0
108	-15.45973	3.25468	19.52808	4.88202	-16.2734	9.76404	10.57771	29.29212	29.29212	13.01872	41.49717	52.88855	0
109	-18.71441	5.69569	17.08707	5.69569	-10.57771	11.39138	13.01872	26.85111	26.85111	12.20505	43.12451	56.14323	0
110	-19.52808	8.1367	15.45973	5.69569	-7.32303	12.20505	13.83239	23.59643	23.59643	9.76404	43.12451	59.39791	0
111	-18.71441	9.76404	16.2734	4.06835	-8.95037	13.01872	14.64606	21.96909	21.15542	8.1367	42.31084	62.65259	0
112	-15.45973	11.39138	17.90074	1.62734	-11.39138	16.2734	14.64606	23.59643	21.96909	8.95037	43.12451	64.27993	0
113	-9.76404	13.83239	17.90074	-1.62734	-13.83239	21.96909	13.83239	28.47845	26.03744	13.83239	45.56552	65.90727	0
114	0	19.52808	16.2734	-7.32303	-17.08707	26.85111	14.64606	35.80148	34.17414	21.96909	50.44754	68.34828	0
115	5.69569	26.03744	17.90074	-13.83239	-18.71441	30.91946	14.64606	44.75185	43.12451	29.29212	56.9569	72.41663	0
116	7.32303	34.98781	25.22377	-20.34175	-20.34175	35.80148	15.45973	48.8202	48.8202	35.80148	61.83892	77.29865	0
117	6.50936	43.93818	35.80148	-26.03744	-21.96909	43.12451	14.64606	45.56552	50.44754	39.05616	64.27993	81.367	0
118	10.57771	54.51589	49.63387	-33.36047	-21.15542	52.88855	8.95037	36.61515	48.00653	39.86983	65.0936	84.62168	0
119	19.52808	64.27993	62.65259	-43.93818	-16.2734	63.46626	0	24.4101	40.6835	36.61515	63.46626	86.24902	0
120	26.85111	74.04397	71.60296	-52.88855	-13.01872	71.60296	-11.39138	11.39138	30.91946	32.5468	62.65259	87.87636	0
121	28.47845	82.99434	74.85764	-57.77057	-14.64606	78.11232	-23.59643	2.44101	21.96909	30.10579	62.65259	89.5037	0
122	28.47845	90.31737	74.04397	-61.02525	-17.08707	82.18067	-34.98781	-2.44101	16.2734	29.29212	63.46626	90.31737	0
123	30.91946	93.57205	68.34828	-63.46626	-14.64606	81.367	-46.37919	-5.69569	13.83239	30.10579	64.27993	91.13104	0
124	38.24249	93.57205	55.32956	-64.27993	-4.88202	76.48498	-56.9569	-8.1367	13.01872	30.91946	65.0936	91.13104	0
125	43.93818	90.31737	43.12451	-65.0936	3.25468	69.16195	-66.72094	-8.95037	13.83239	32.5468	65.90727	91.13104	0
126	47.19286	84.62168	34.17414	-65.0936	8.95037	61.83892	-72.41663	-8.1367	16.2734	34.17414	67.53461	91.13104	0
127	50.44754	79.73966	26.03744	-65.0936	13.01872	53.70222	-76.48498	-8.95037	16.2734	34.98781	67.53461	91.13104	0
128	56.14323	74.85764	17.90074	-64.27993	19.52808	48.00653	-81.367	-13.01872	13.83239	34.17414	67.53461	91.13104	0
129	66.72094	70.78929	8.95037	-63.46626	29.29212	43.93818	-89.5037	-18.71441	8.95037	31.73313	66.72094	91.13104	0
130	74.04397	69.97562	1.62734	-62.65259	35.80148	40.6835	-97.6404	-24.4101	1.62734	26.85111	64.27993	90.31737	0
131	74.04397	69.16195	-0.81367	-64.27993	38.24249	37.42882	-104.14976	-30.10579	-4.88202	22.78276	61.02525	87.87636	0
132	72.41663	67.53461	-1.62734	-65.0936	36.61515	34.98781	-108.21811	-33.36047	-10.57771	18.71441	57.77057	85.43535	0
133	66.72094	64.27993	-4.06835	-63.46626	34.98781	31.73313	-109.84545	-34.98781	-13.01872	17.08707	56.14323	82.99434	0
134	59.39791	58.58424	-11.39138	-56.9569	32.5468	26.85111	-108.21811	-34.17414	-12.20505	17.08707	55.32956	80.55333	0
135	55.32956	51.26121	-17.90074	-51.26121	33.36047	19.52808	-103.33609	-31.73313	-8.1367	18.71441	55.32956	78.92599	0
136	53.70222	43.93818	-22.78276	-48.00653	34.98781	13.01872	-98.45407	-28.47845	-1.62734	21.96909	56.14323	78.11232	0
137	53.70222	38.24249	-24.4101	-46.37919	37.42882	7.32303	-93.57205	-25.22377	3.25468	25.22377	57.77057	78.92599	0
138	51.26121	32.5468	-26.03744	-43.12451	35.80148	4.88202	-87.87636	-22.78276	6.50936	26.85111	58.58424	79.73966	0
139	43.93818	25.22377	-28.47845	-38.24249	30.10579	4.06835	-82.18067	-21.15542	5.69569	23.59643	56.14323	77.29865	0
140	34.17414	15.45973	-28.47845	-34.98781	23.59643	0.81367	-77.29865	-21.15542	0	17.08707	50.44754	70.78929	0
141	25.22377	6.50936	-26.03744	-27.66478	19.52808	-3.25468	-74.85764	-21.96909	-7.32303	8.1367	42.31084	62.65259	0
142	17.08707	-3.25468	-25.22377	-17.08707	17.08707	-9.76404	-73.2303	-23.59643	-14.64606	0.81367	34.98781	54.51589	0
143	8.1367	-13.83239	-25.22377	-3.25468	15.45973	-18.71441	-74.04397	-25.22377	-19.52808	-4.88202	27.66478	46.37919	0
144	-0.81367	-26.03744	-26.85111	12.20505	13.83239	-30.10579	-74.85764	-27.66478	-22.78276	-8.95037	21.15542	39.05616	0
145	-8.1367	-37.42882	-30.10579	24.4101	13.01872	-39.86983	-75.67131	-30.10579	-24.4101	-13.83239	14.64606	31.73313	0
146	-12.20505	-47.19286	-34.98781	30.91946	13.83239	-46.37919	-74.85764	-34.17414	-26.85111	-17.90074	8.1367	25.22377	0
147	-14.64606	-53.70222	-39.05616	34.98781	13.83239	-50.44754	-73.2303	-39.05616	-30.91946	-22.78276	2.44101	20.34175	0
148	-16.2734	-56.9569	-42.31084	36.61515	15.45973	-52.07488	-70.78929	-44.75185	-36.61515	-26.85111	-1.62734	15.45973	0
149	-17.90074	-57.77057	-47.19286	37.42882	21.15542	-52.88855	-69.97562	-48.00653	-42.31084	-30.10579	-4.88202	13.01872	0
150	-17.90074	-57.77057	-50.44754	36.61515	25.22377	-53.70222	-69.97562	-49.63387	-46.37919	-33.36047	-6.50936	12.20505	0
151	-16.2734	-57.77057	-50.44754	36.61515	23.59643	-53.70222	-70.78929	-48.00653	-47.19286	-33.36047	-6.50936	13.01872	0
152	-15.45973	-59.39791	-50.44754	36.61515	21.96909	-54.51589	-71.60296	-44.75185	-45.56552	-31.73313	-4.88202	14.64606	0
153	-16.2734	-62.65259	-50.44754	37.42882	19.52808	-56.14323	-72.41663	-41.49717	-42.31084	-29.29212	-3.25468	15.45973	0
154	-19.52808	-67.53461	-50.44754	39.05616	17.90074	-56.9569	-72.41663	-38.24249	-39.05616	-29.29212	-2.44101	16.2734	0
155	-21.96909	-72.41663	-52.07488	40.6835	17.08707	-59.39791	-71.60296	-35.80148	-35.80148	-31.73313	-1.62734	15.45973	0
156	-21.96909	-77.29865	-54.51589	42.31084	17.90074	-63.46626	-69.16195	-34.17414	-33.36047	-34.17414	-1.62734	15.45973	0
157	-21.15542	-78.92599	-56.9569	44.75185	18.71441	-66.72094	-66.72094	-34.17414	-31.73313	-34.17414	-2.44101	14.64606	0
158	-21.15542	-78.92599	-58.58424	46.37919	17.08707	-68.34828	-64.27993	-34.98781	-33.36047	-33.36047	-3.25468	13.83239	0
159	-21.96909	-76.48498	-61.83892	47.19286	13.01872	-69.16195	-61.83892	-36.61515	-35.80148	-31.73313	-4.06835	13.01872	0
160	-23.59643	-73.2303	-61.83892	48.00653	10.57771	-68.34828	-61.02525	-37.42882	-38.24249	-30.91946	-4.88202	12.20505	0
161	-23.59643	-72.41663	-59.39791	48.00653	11.39138	-66.72094	-59.39791	-37.42882	-39.86983	-30.10579	-4.88202	10.57771	0
162	-22.78276	-72.41663	-56.9569	48.00653	12.20505	-65.90727	-60.21158	-36.61515	-39.05616	-28.47845	-4.06835	9.76404	0
163	-24.4101	-74.85764	-55.32956	48.00653	13.01872	-64.27993	-60.21158	-34.17414	-35.80148	-26.85111	-2.44101	9.76404	0
164	-27.66478	-78.11232	-52.88855	48.8202	13.01872	-63.46626	-60.21158	-30.91946	-31.73313	-25.22377	-0.81367	8.95037	0
165	-30.91946	-82.99434	-52.07488	50.44754	13.01872	-64.27993	-59.39791	-27.66478	-26.85111	-24.4101	0	8.1367	0
166	-31.73313	-86.24902	-53.70222	52.88855	13.83239	-67.53461	-55.32956	-23.59643	-22.78276	-23.59643	0.81367	8.1367	0
167	-32.5468	-88.69003	-53.70222	55.32956	12.20505	-69.97562	-50.44754	-21.15542	-21.15542	-24.4101	0.81367	6.50936	0
168	-37.42882	-89.5037	-49.63387	60.21158	6.50936	-69.16195	-46.37919	-26.85111	-26.85111	-30.10579	-2.44101	4.88202	0
169	-45.56552	-88.69003	-38.24249	65.0936	-2.44101	-63.46626	-46.37919	-44.75185	-41.49717	-40.6835	-8.1367	2.44101	0
170	-54.51589	-82.99434	-22.78276	67.53461	-15.45973	-52.88855	-48.8202	-81.367	-67.53461	-56.14323	-14.64606	2.44101	0
171	-65.0936	-68.34828	0.81367	65.90727	-33.36047	-33.36047	-53.70222	-143.20592	-108.21811	-77.29865	-21.96909	4.88202	0
172	-77.29865	-45.56552	34.17414	61.02525	-58.58424	-5.69569	-61.83892	-233.52329	-165.98868	-103.33609	-26.85111	8.95037	0
173	-91.13104	-17.08707	71.60296	52.07488	-87.87636	27.66478	-71.60296	-351.50544	-238.40531	-133.44188	-28.47845	17.08707	0
174	-104.96343	14.64606	109.03178	41.49717	-110.65912	63.46626	-82.18067	-486.57466	-321.39965	-159.47932	-26.85111	30.10579	0
175	-114.72747	48.8202	148.90161	28.47845	-131.00087	101.70875	-89.5037	-626.5259	-406.835	-176.56639	-20.34175	50.44754	0
176	-119.60949	86.24902	193.65346	12.20505	-154.5973	141.57858	-93.57205	-759.15411	-482.50631	-183.88942	-2.44101	80.55333	0
177	-118.79582	131.00087	241.65999	-8.95037	-178.19373	187.1441	-94.38572	-877.94993	-545.1589	-179.0074	30.10579	122.86417	0
178	-112.28646	187.95777	297.80322	-39.86983	-203.4175	243.28733	-94.38572	-985.35437	-593.9791	-158.66565	81.367	179.82107	0
179	-100.08141	257.93339	360.45581	-79.73966	-229.45494	308.38093	-101.70875	-1095.19982	-642.7993	-130.1872	144.83326	248.98302	0
180	-79.73966	332.79103	418.22638	-126.93252	-248.16935	375.10187	-126.93252	-1235.96473	-718.47061	-113.9138	206.67218	321.39965	0
181	-52.88855	405.20766	466.23291	-176.56639	-258.74706	434.49978	-182.26208	-1430.43186	-848.65781	-134.25555	252.2377	388.12059	0
182	-21.15542	472.74227	506.10274	-226.20026	-260.3744	485.76099	-266.88376	-1676.97387	-1037.42925	-199.34915	273.39312	441.00914	0
183	17.08707	540.27688	534.58119	-278.27514	-253.05137	532.95385	-378.35655	-1946.29864	-1261.1885	-295.36221	277.46147	486.57466	0
184	67.53461	618.3892	550.85459	-340.92773	-239.21898	586.65607	-514.23944	-2212.36873	-1480.8794	-394.62995	281.52982	535.39486	0
185	125.30518	708.70657	563.05964	-404.39399	-225.38659	648.49499	-676.15977	-2451.58771	-1659.07313	-472.74227	291.29386	584.21506	0
186	189.58511	790.07357	568.75533	-455.6552	-201.79016	696.50152	-857.60818	-2632.22245	-1766.47757	-518.30779	299.43056	617.57553	0
187	257.93339	820.17936	533.76752	-496.3387	-149.71528	691.6195	-1040.68393	-2729.86285	-1792.51501	-537.83587	303.49891	634.6626	0
188	321.39965	779.49586	440.19547	-515.86678	-67.53461	619.20287	-1191.21288	-2746.13625	-1747.76316	-538.64954	296.17588	627.33957	0
189	368.59251	683.4828	311.63561	-502.84806	21.96909	502.03439	-1283.15759	-2696.50238	-1646.05441	-521.56247	274.20679	590.72442	0
190	393.81628	564.68698	181.44841	-464.60557	99.26774	374.2882	-1319.77274	-2589.91161	-1501.22115	-483.31998	248.98302	537.83587	0
191	393.81628	452.40052	74.85764	-414.9717	152.15629	263.62908	-1308.38136	-2425.55027	-1326.2821	-427.17675	226.20026	482.50631	0
192	370.21985	362.08315	5.69569	-362.89682	176.56639	183.07575	-1248.16978	-2213.1824	-1137.51066	-366.96517	206.67218	429.61776	0
193	331.16369	295.36221	-26.03744	-311.63561	175.75272	134.25555	-1151.34305	-1967.45406	-956.06225	-317.3313	183.88942	377.54288	0
194	282.34349	244.101	-32.5468	-262.00174	157.85198	106.59077	-1027.66521	-1703.01131	-803.90596	-283.15716	149.71528	321.39965	0
195	226.20026	198.53548	-25.22377	-210.74053	128.55986	88.69003	-892.59599	-1439.38223	-691.6195	-267.69743	102.52242	259.56073	0
196	170.8707	154.5973	-16.2734	-161.92033	96.01306	70.78929	-758.34044	-1188.77187	-611.87984	-265.25642	52.88855	196.90814	0
197	125.30518	113.10013	-13.01872	-120.42316	71.60296	50.44754	-631.40792	-956.06225	-539.46321	-259.56073	17.08707	142.39225	0
198	94.38572	78.11232	-15.45973	-87.06269	59.39791	30.91946	-516.68045	-742.06704	-454.02786	-235.15063	-1.62734	104.14976	0
199	74.85764	49.63387	-21.96909	-63.46626	58.58424	13.01872	-414.15803	-548.41358	-353.13278	-189.58511	-5.69569	83.80801	0
200	65.0936	27.66478	-32.5468	-47.19286	61.83892	-2.44101	-324.65433	-375.91554	-240.03265	-128.55986	5.69569	77.29865	0
201	60.21158	8.95037	-47.19286	-35.80148	64.27993	-18.71441	-244.91467	-224.57292	-125.30518	-61.02525	26.03744	78.92599	0
202	55.32956	-7.32303	-61.02525	-25.22377	65.0936	-34.17414	-177.38006	-96.82673	-21.15542	0	48.00653	82.18067	0
203	49.63387	-23.59643	-72.41663	-13.01872	65.0936	-49.63387	-120.42316	7.32303	65.0936	50.44754	65.90727	83.80801	0
204	43.12451	-38.24249	-80.55333	-0.81367	64.27993	-63.46626	-76.48498	90.31737	134.25555	88.69003	78.11232	82.99434	0
205	38.24249	-49.63387	-87.06269	7.32303	65.0936	-74.85764	-44.75185	151.34262	184.70309	116.35481	85.43535	81.367	0
206	35.80148	-57.77057	-93.57205	11.39138	66.72094	-81.367	-23.59643	190.39878	216.43622	131.81454	88.69003	78.92599	0
207	33.36047	-64.27993	-97.6404	14.64606	65.90727	-84.62168	-8.95037	213.18154	229.45494	136.69656	87.06269	73.2303	0
208	26.85111	-69.16195	-99.26774	20.34175	61.02525	-86.24902	1.62734	227.01393	231.08228	132.62821	82.18067	67.53461	0
209	17.08707	-72.41663	-100.89508	26.85111	52.07488	-87.06269	9.76404	234.33696	227.01393	126.93252	76.48498	61.83892	0
210	10.57771	-75.67131	-100.08141	30.91946	45.56552	-87.06269	16.2734	238.40531	223.75925	124.49151	73.2303	58.58424	0
211	8.95037	-77.29865	-97.6404	32.5468	44.75185	-86.24902	20.34175	241.65999	227.01393	126.93252	72.41663	56.9569	0
212	9.76404	-78.11232	-96.82673	32.5468	48.00653	-86.24902	23.59643	246.54201	235.9643	134.25555	74.85764	57.77057	0
213	9.76404	-80.55333	-95.19939	34.98781	50.44754	-86.24902	27.66478	253.86504	248.98302	144.01959	78.11232	59.39791	0
214	7.32303	-82.99434	-93.57205	39.86983	51.26121	-86.24902	31.73313	263.62908	262.00174	152.96996	80.55333	60.21158	0
215	4.88202	-87.06269	-92.75838	43.93818	51.26121	-87.87636	37.42882	274.20679	273.39312	159.47932	82.18067	60.21158	0
216	3.25468	-91.13104	-93.57205	45.56552	51.26121	-91.13104	43.12451	283.15716	282.34349	162.734	82.99434	60.21158	0
217	2.44101	-93.57205	-95.19939	45.56552	50.44754	-93.57205	48.8202	289.66652	287.22551	163.54767	82.18067	60.21158	0
218	0	-93.57205	-96.82673	45.56552	47.19286	-95.19939	54.51589	293.73487	288.03918	162.734	81.367	59.39791	0
219	-1.62734	-91.13104	-98.45407	46.37919	41.49717	-95.19939	58.58424	295.36221	284.7845	160.29299	81.367	59.39791	0
220	-3.25468	-88.69003	-97.6404	45.56552	37.42882	-93.57205	61.83892	296.98955	281.52982	157.03831	80.55333	59.39791	0
221	-2.44101	-86.24902	-95.19939	43.93818	38.24249	-91.13104	63.46626	299.43056	279.08881	154.5973	78.92599	58.58424	0
222	0	-86.24902	-93.57205	42.31084	41.49717	-90.31737	64.27993	303.49891	279.08881	154.5973	78.11232	58.58424	0
223	1.62734	-87.06269	-92.75838	40.6835	44.75185	-89.5037	65.0936	308.38093	280.71615	157.03831	78.11232	58.58424	0
224	0.81367	-88.69003	-92.75838	39.05616	48.00653	-88.69003	65.90727	314.07662	284.7845	160.29299	78.11232	58.58424	0
225	0.81367	-91.13104	-92.75838	39.05616	49.63387	-89.5037	66.72094	320.58598	289.66652	165.17501	79.73966	59.39791	0
226	1.62734	-93.57205	-95.19939	39.86983	51.26121	-92.75838	69.16195	324.65433	293.73487	169.24336	81.367	60.21158	0
227	3.25468	-93.57205	-96.01306	40.6835	51.26121	-93.57205	72.41663	327.09534	296.17588	170.8707	82.99434	61.83892	0
228	7.32303	-91.13104	-96.82673	40.6835	52.88855	-93.57205	74.85764	327.09534	295.36221	171.68437	82.99434	62.65259	0
229	14.64606	-87.87636	-98.45407	39.86983	56.14323	-92.75838	76.48498	327.09534	293.73487	173.31171	83.80801	63.46626	0
230	18.71441	-83.80801	-98.45407	39.05616	57.77057	-91.13104	77.29865	328.72268	292.10753	177.38006	84.62168	64.27993	0
231	17.90074	-81.367	-96.01306	37.42882	56.14323	-88.69003	78.11232	331.97736	292.10753	182.26208	86.24902	65.90727	0
232	17.08707	-78.92599	-93.57205	34.17414	54.51589	-86.24902	78.11232	336.85938	295.36221	188.77144	88.69003	66.72094	0
233	19.52808	-76.48498	-91.94471	30.91946	53.70222	-86.24902	78.11232	344.18241	301.0579	194.46713	92.75838	68.34828	0
234	27.66478	-75.67131	-90.31737	26.85111	53.70222	-87.87636	78.92599	351.50544	308.38093	200.16282	96.01306	69.97562	0
235	32.5468	-74.85764	-91.13104	24.4101	55.32956	-89.5037	80.55333	359.64214	316.51763	204.23117	100.08141	70.78929	0
236	31.73313	-75.67131	-93.57205	22.78276	56.9569	-89.5037	83.80801	366.96517	323.84066	207.48585	102.52242	72.41663	1500	QRS+0
237	28.47845	-75.67131	-96.01306	23.59643	58.58424	-89.5037	88.69003	372.66086	329.53635	209.11319	104.14976	73.2303	0
238	27.66478	-74.85764	-94.38572	21.96909	61.02525	-87.06269	92.75838	376.72921	332.79103	209.11319	104.14976	74.85764	0
239	31.73313	-72.41663	-89.5037	18.71441	64.27993	-82.18067	96.01306	379.17022	333.6047	207.48585	104.14976	75.67131	0
240	33.36047	-69.16195	-84.62168	16.2734	65.90727	-78.11232	98.45407	383.23857	334.41837	205.85851	104.14976	75.67131	0
241	31.73313	-66.72094	-84.62168	15.45973	64.27993	-76.48498	100.08141	388.93426	335.23204	204.23117	103.33609	76.48498	0
242	29.29212	-65.90727	-87.06269	16.2734	61.83892	-76.48498	100.89508	395.44362	338.48672	204.23117	104.14976	76.48498	0
243	26.85111	-66.72094	-89.5037	17.08707	61.02525	-79.73966	101.70875	403.58032	343.36874	206.67218	104.14976	76.48498	0
244	25.22377	-67.53461	-91.13104	16.2734	60.21158	-82.99434	104.14976	412.53069	349.8781	210.74053	104.96343	76.48498	0
245	25.22377	-68.34828	-92.75838	15.45973	61.02525	-86.24902	107.40444	421.48106	357.20113	214.80888	106.59077	75.67131	0
246	26.85111	-69.16195	-95.19939	14.64606	62.65259	-86.24902	111.47279	429.61776	363.71049	218.87723	107.40444	75.67131	0
247	28.47845	-68.34828	-95.19939	14.64606	62.65259	-84.62168	116.35481	436.12712	367.77884	222.13191	108.21811	76.48498	0
248	26.85111	-65.0936	-91.13104	13.01872	59.39791	-79.73966	121.23683	440.19547	370.21985	225.38659	109.84545	78.11232	0
249	24.4101	-60.21158	-82.18067	8.1367	52.07488	-71.60296	124.49151	444.26382	370.21985	227.01393	112.28646	80.55333	0
250	22.78276	-54.51589	-74.85764	4.88202	48.00653	-65.90727	126.93252	448.33217	370.21985	227.8276	114.72747	82.99434	0
251	25.22377	-49.63387	-73.2303	4.06835	48.00653	-61.83892	128.55986	454.84153	371.03352	228.64127	117.16848	86.24902	0
252	29.29212	-46.37919	-74.85764	3.25468	51.26121	-61.02525	130.1872	462.16456	373.47453	231.89595	120.42316	90.31737	0
253	32.5468	-43.93818	-76.48498	1.62734	54.51589	-61.83892	131.81454	471.11493	378.35655	235.9643	125.30518	93.57205	0
254	34.17414	-43.12451	-77.29865	0	56.9569	-64.27993	133.44188	480.87897	384.86591	241.65999	129.37353	96.82673	0
255	34.98781	-43.93818	-78.11232	-0.81367	59.39791	-66.72094	135.88289	489.82934	393.00261	246.54201	132.62821	100.08141	0
256	36.61515	-45.56552	-80.55333	-0.81367	60.21158	-66.72094	139.95124	498.77971	399.51197	252.2377	136.69656	103.33609	0
257	37.42882	-46.37919	-81.367	0	61.02525	-65.90727	144.83326	506.10274	404.39399	255.49238	139.13757	105.7771	0
258	35.80148	-45.56552	-82.99434	0.81367	61.83892	-64.27993	149.71528	511.79843	406.835	257.93339	140.76491	108.21811	0
259	33.36047	-43.93818	-84.62168	2.44101	65.0936	-63.46626	154.5973	517.49412	406.835	257.93339	142.39225	109.84545	0
260	31.73313	-41.49717	-84.62168	2.44101	65.90727	-61.83892	158.66565	523.18981	406.02133	257.11972	144.01959	112.28646	0
261	33.36047	-39.05616	-82.18067	1.62734	64.27993	-59.39791	161.92033	530.51284	406.02133	257.11972	144.83326	113.9138	0
262	36.61515	-36.61515	-80.55333	0	61.83892	-57.77057	165.17501	539.46321	407.64867	258.74706	146.4606	116.35481	0
263	37.42882	-35.80148	-77.29865	-2.44101	60.21158	-57.77057	167.61602	550.04092	411.71702	262.00174	149.71528	119.60949	0
264	38.24249	-34.98781	-74.04397	-4.88202	57.77057	-58.58424	170.05703	561.4323	417.41271	266.07009	152.96996	122.86417	0
265	38.24249	-34.17414	-71.60296	-6.50936	56.9569	-58.58424	172.49804	572.82368	423.1084	270.13844	156.22464	124.49151	0
266	38.24249	-34.17414	-70.78929	-6.50936	56.14323	-56.9569	174.93905	582.58772	426.36308	273.39312	158.66565	126.93252	0
267	34.98781	-34.17414	-69.16195	-4.06835	52.88855	-54.51589	178.19373	589.09708	427.17675	275.02046	159.47932	128.55986	0
268	25.22377	-38.24249	-61.83892	3.25468	43.12451	-53.70222	179.82107	593.16543	425.54941	273.39312	158.66565	128.55986	0
269	8.95037	-43.12451	-50.44754	15.45973	29.29212	-52.88855	179.82107	595.60644	420.66739	269.32477	157.03831	126.93252	0
270	-3.25468	-46.37919	-42.31084	26.03744	17.90074	-52.88855	180.63474	598.86112	414.9717	262.81541	154.5973	126.11885	0
271	-10.57771	-48.8202	-39.86983	31.73313	13.01872	-52.07488	180.63474	602.92947	410.08968	257.11972	152.15629	125.30518	0
272	-13.01872	-50.44754	-39.86983	33.36047	12.20505	-50.44754	182.26208	609.43883	408.46234	253.86504	151.34262	125.30518	0
273	-13.01872	-51.26121	-39.05616	31.73313	12.20505	-48.8202	184.70309	617.57553	409.27601	254.67871	153.78363	128.55986	0
274	-13.01872	-50.44754	-37.42882	28.47845	13.01872	-48.8202	187.95777	626.5259	412.53069	257.11972	157.85198	132.62821	0
275	-11.39138	-49.63387	-36.61515	25.22377	14.64606	-48.00653	192.02612	635.47627	416.59904	259.56073	162.734	137.51023	0
276	-9.76404	-48.00653	-35.80148	23.59643	14.64606	-46.37919	196.09447	642.7993	419.04005	261.18807	169.24336	142.39225	0
277	-10.57771	-45.56552	-33.36047	23.59643	12.20505	-41.49717	200.16282	646.86765	419.04005	261.18807	174.12538	146.4606	0
278	-14.64606	-41.49717	-26.03744	22.78276	5.69569	-34.98781	203.4175	649.30866	417.41271	259.56073	178.19373	151.34262	0
279	-20.34175	-36.61515	-13.83239	19.52808	-3.25468	-26.03744	206.67218	650.936	413.34436	257.11972	180.63474	156.22464	0
280	-23.59643	-31.73313	-4.88202	17.08707	-9.76404	-18.71441	209.11319	651.74967	406.835	253.05137	183.07575	161.10666	0
281	-23.59643	-26.85111	-0.81367	16.2734	-12.20505	-13.83239	210.74053	653.37701	400.32564	249.79669	185.51676	165.17501	0
282	-21.15542	-21.15542	0.81367	15.45973	-11.39138	-9.76404	212.36787	655.81802	394.62995	247.35568	187.95777	169.24336	0
283	-19.52808	-17.08707	0	13.83239	-11.39138	-8.1367	213.18154	658.25903	391.37527	247.35568	191.21245	172.49804	0
284	-19.52808	-13.83239	-4.88202	12.20505	-12.20505	-7.32303	213.99521	659.0727	387.30692	246.54201	194.46713	176.56639	0
285	-21.15542	-11.39138	-5.69569	11.39138	-13.83239	-6.50936	215.62255	657.44536	383.23857	244.91467	196.90814	179.82107	0
286	-21.96909	-8.95037	0	11.39138	-16.2734	-2.44101	218.06356	653.37701	377.54288	241.65999	199.34915	183.88942	0
287	-23.59643	-4.88202	9.76404	10.57771	-20.34175	2.44101	220.50457	645.24031	369.40618	238.40531	200.97649	187.95777	0
288	-21.96909	0.81367	22.78276	8.1367	-26.85111	12.20505	221.31824	634.6626	358.0148	234.33696	201.79016	192.83979	0
289	-17.08707	8.95037	39.05616	2.44101	-35.80148	23.59643	221.31824	621.64388	344.18241	228.64127	203.4175	197.72181	0
290	-13.83239	16.2734	51.26121	-2.44101	-42.31084	33.36047	219.6909	608.62516	328.72268	222.13191	204.23117	201.79016	0
291	-15.45973	23.59643	56.14323	-4.88202	-43.93818	39.05616	216.43622	595.60644	314.07662	214.80888	205.04484	206.67218	0
292	-17.08707	29.29212	58.58424	-6.50936	-43.12451	43.12451	213.18154	582.58772	300.24423	207.48585	205.85851	210.74053	0
293	-20.34175	33.36047	56.9569	-8.1367	-43.12451	46.37919	209.11319	568.75533	286.41184	200.16282	205.85851	213.99521	0
294	-24.4101	37.42882	53.70222	-9.76404	-44.75185	47.19286	205.04484	553.2956	273.39312	193.65346	205.85851	216.43622	0
295	-27.66478	40.6835	54.51589	-10.57771	-46.37919	49.63387	200.97649	536.20853	259.56073	187.1441	205.85851	218.87723	0
296	-29.29212	43.93818	61.02525	-11.39138	-49.63387	53.70222	196.90814	516.68045	244.91467	179.0074	205.85851	221.31824	0
297	-30.91946	48.00653	69.97562	-11.39138	-53.70222	59.39791	192.83979	493.08402	226.20026	166.80235	203.4175	223.75925	0
298	-34.17414	53.70222	83.80801	-13.83239	-61.02525	69.16195	187.95777	467.86025	205.04484	153.78363	200.97649	226.20026	0
299	-39.86983	61.02525	100.89508	-18.71441	-71.60296	79.73966	181.44841	439.3818	181.44841	141.57858	198.53548	228.64127	0
300	-42.31084	67.53461	113.10013	-22.78276	-78.11232	89.5037	174.12538	410.90335	158.66565	131.81454	196.90814	231.89595	0
301	-40.6835	74.04397	117.98215	-25.22377	-79.73966	95.19939	165.17501	383.23857	137.51023	124.49151	195.2808	234.33696	0
302	-39.05616	78.92599	119.60949	-25.22377	-79.73966	99.26774	154.5973	355.57379	119.60949	120.42316	194.46713	236.77797	0
303	-37.42882	82.18067	121.23683	-26.85111	-78.92599	100.08141	144.01959	329.53635	104.14976	116.35481	195.2808	239.21898	0
304	-37.42882	83.80801	123.67784	-27.66478	-78.92599	99.26774	132.62821	303.49891	90.31737	113.10013	195.2808	241.65999	0
305	-37.42882	84.62168	124.49151	-28.47845	-78.92599	98.45407	122.0505	277.46147	77.29865	107.40444	195.2808	243.28733	0
306	-37.42882	84.62168	124.49151	-27.66478	-78.92599	99.26774	113.10013	249.79669	62.65259	100.08141	194.46713	244.101	0
307	-37.42882	86.24902	124.49151	-27.66478	-79.73966	101.70875	104.14976	220.50457	47.19286	91.13104	192.02612	245.72834	0
308	-39.05616	87.87636	123.67784	-26.85111	-78.92599	104.14976	95.19939	191.21245	30.10579	80.55333	188.77144	245.72834	0
309	-43.12451	90.31737	122.86417	-25.22377	-77.29865	104.96343	85.43535	162.734	12.20505	69.97562	185.51676	245.72834	0
310	-45.56552	91.13104	122.0505	-23.59643	-76.48498	104.96343	74.85764	136.69656	-3.25468	58.58424	180.63474	244.91467	0
311	-44.75185	88.69003	122.0505	-22.78276	-77.29865	104.96343	65.90727	115.54114	-17.08707	48.00653	174.93905	242.47366	0
312	-43.12451	83.80801	119.60949	-21.15542	-77.29865	101.70875	58.58424	98.45407	-27.66478	39.86983	168.42969	238.40531	0
313	-41.49717	76.48498	111.47279	-16.2734	-76.48498	94.38572	52.07488	84.62168	-33.36047	34.17414	161.92033	232.70962	0
314	-42.31084	66.72094	97.6404	-8.95037	-74.04397	83.80801	46.37919	73.2303	-34.98781	30.10579	155.41097	227.01393	-1500	QRS-0
315	-43.12451	55.32956	85.43535	-1.62734	-70.78929	72.41663	42.31084	63.46626	-36.61515	26.85111	148.08794	220.50457	0
316	-43.93818	44.75185	78.11232	2.44101	-66.72094	62.65259	39.86983	53.70222	-37.42882	22.78276	141.57858	213.18154	0
317	-44.75185	34.17414	72.41663	6.50936	-62.65259	53.70222	37.42882	42.31084	-41.49717	17.08707	133.44188	205.85851	0
318	-49.63387	24.4101	68.34828	12.20505	-58.58424	48.00653	34.17414	30.91946	-47.19286	10.57771	125.30518	197.72181	0
319	-57.77057	16.2734	62.65259	19.52808	-54.51589	44.75185	30.10579	20.34175	-54.51589	3.25468	117.98215	190.39878	0
320	-61.83892	9.76404	57.77057	24.4101	-51.26121	40.6835	26.03744	11.39138	-61.02525	-3.25468	109.84545	183.07575	0
321	-61.02525	4.88202	53.70222	26.85111	-49.63387	35.80148	22.78276	4.88202	-65.90727	-10.57771	102.52242	175.75272	0
322	-57.77057	0	50.44754	27.66478	-48.8202	29.29212	19.52808	0.81367	-67.53461	-15.45973	95.19939	168.42969	0
323	-55.32956	-4.88202	42.31084	30.91946	-48.00653	21.15542	16.2734	-0.81367	-66.72094	-18.71441	88.69003	161.92033	0
324	-54.51589	-12.20505	30.10579	36.61515	-46.37919	11.39138	13.83239	-1.62734	-64.27993	-21.15542	82.18067	155.41097	0
325	-54.51589	-20.34175	19.52808	41.49717	-43.93818	1.62734	12.20505	-2.44101	-61.83892	-22.78276	76.48498	148.90161	0
326	-54.51589	-28.47845	14.64606	43.93818	-40.6835	-4.88202	11.39138	-4.06835	-59.39791	-24.4101	70.78929	143.20592	0
327	-56.14323	-35.80148	12.20505	47.19286	-38.24249	-10.57771	12.20505	-7.32303	-58.58424	-26.03744	65.0936	137.51023	0
328	-59.39791	-41.49717	9.76404	50.44754	-34.98781	-13.83239	12.20505	-10.57771	-60.21158	-28.47845	60.21158	132.62821	0
329	-65.0936	-46.37919	6.50936	55.32956	-31.73313	-14.64606	11.39138	-14.64606	-64.27993	-32.5468	55.32956	127.74619	0
330	-68.34828	-50.44754	3.25468	57.77057	-28.47845	-16.2734	8.95037	-18.71441	-66.72094	-36.61515	50.44754	123.67784	0
331	-66.72094	-54.51589	0.81367	59.39791	-27.66478	-20.34175	7.32303	-20.34175	-67.53461	-40.6835	47.19286	120.42316	0
332	-64.27993	-58.58424	-1.62734	60.21158	-26.85111	-26.85111	5.69569	-19.52808	-66.72094	-42.31084	43.93818	117.16848	0
333	-61.83892	-63.46626	-4.88202	62.65259	-26.03744	-31.73313	4.06835	-17.90074	-63.46626	-41.49717	42.31084	115.54114	0
334	-61.83892	-68.34828	-7.32303	67.53461	-25.22377	-35.80148	4.06835	-14.64606	-59.39791	-39.86983	40.6835	113.9138	0
335	-61.83892	-74.04397	-10.57771	71.60296	-23.59643	-40.6835	4.88202	-12.20505	-56.14323	-38.24249	39.05616	111.47279	0
336	-61.83892	-78.11232	-14.64606	73.2303	-21.96909	-45.56552	5.69569	-11.39138	-53.70222	-37.42882	38.24249	109.84545	0
337	-61.02525	-80.55333	-17.90074	72.41663	-21.15542	-48.8202	6.50936	-12.20505	-53.70222	-37.42882	35.80148	108.21811	0
338	-59.39791	-80.55333	-19.52808	72.41663	-19.52808	-50.44754	6.50936	-14.64606	-55.32956	-39.05616	34.17414	108.21811	0
339	-54.51589	-78.92599	-21.96909	72.41663	-17.08707	-51.26121	5.69569	-17.90074	-58.58424	-41.49717	31.73313	108.21811	0
340	-51.26121	-77.29865	-21.96909	71.60296	-15.45973	-50.44754	4.06835	-20.34175	-61.83892	-44.75185	28.47845	108.21811	0
341	-52.07488	-76.48498	-21.15542	69.97562	-16.2734	-48.8202	3.25468	-21.15542	-63.46626	-48.00653	26.03744	107.40444	0
342	-53.70222	-76.48498	-20.34175	68.34828	-17.08707	-48.8202	2.44101	-20.34175	-62.65259	-49.63387	23.59643	107.40444	0
343	-56.14323	-78.11232	-20.34175	67.53461	-17.90074	-48.8202	1.62734	-18.71441	-61.02525	-49.63387	22.78276	107.40444	0
344	-58.58424	-79.73966	-19.52808	65.90727	-17.90074	-48.00653	0.81367	-16.2734	-57.77057	-48.8202	21.96909	107.40444	0
345	-59.39791	-81.367	-20.34175	65.0936	-17.90074	-49.63387	1.62734	-15.45973	-54.51589	-48.00653	21.15542	106.59077	0
346	-59.39791	-82.99434	-21.96909	65.90727	-17.08707	-51.26121	2.44101	-14.64606	-52.88855	-47.19286	21.96909	107.40444	0
347	-59.39791	-82.99434	-22.78276	67.53461	-17.08707	-52.88855	4.06835	-16.2734	-52.88855	-48.00653	21.96909	107.40444	0
348	-57.77057	-82.18067	-23.59643	66.72094	-17.08707	-52.88855	4.06835	-18.71441	-54.51589	-48.8202	21.96909	108.21811	0
349	-52.88855	-78.92599	-24.4101	64.27993	-14.64606	-52.88855	4.06835	-21.15542	-57.77057	-51.26121	21.15542	109.03178	0
350	-49.63387	-76.48498	-25.22377	61.83892	-13.83239	-52.07488	4.06835	-23.59643	-59.39791	-52.88855	20.34175	109.84545	0
351	-49.63387	-74.85764	-24.4101	61.83892	-13.83239	-50.44754	4.06835	-23.59643	-60.21158	-54.51589	19.52808	109.03178	0
352	-50.44754	-74.04397	-23.59643	61.83892	-14.64606	-49.63387	3.25468	-21.96909	-59.39791	-53.70222	17.90074	108.21811	0
353	-52.88855	-74.85764	-21.96909	64.27993	-15.45973	-48.8202	3.25468	-19.52808	-56.9569	-51.26121	18.71441	108.21811	0
354	-54.51589	-76.48498	-20.34175	68.34828	-16.2734	-47.19286	3.25468	-16.2734	-52.88855	-47.19286	20.34175	108.21811	0
355	-56.14323	-78.92599	-20.34175	71.60296	-16.2734	-48.00653	4.88202	-13.83239	-48.00653	-43.12451	22.78276	109.03178	0
356	-56.9569	-80.55333	-21.96909	71.60296	-15.45973	-50.44754	6.50936	-12.20505	-44.75185	-39.86983	25.22377	110.65912	0
357	-57.77057	-81.367	-22.78276	70.78929	-16.2734	-52.07488	8.95037	-12.20505	-43.12451	-37.42882	26.85111	112.28646	0
358	-56.14323	-80.55333	-23.59643	68.34828	-15.45973	-52.07488	10.57771	-13.01872	-43.93818	-36.61515	28.47845	115.54114	0
359	-52.07488	-77.29865	-24.4101	64.27993	-13.83239	-52.07488	11.39138	-15.45973	-46.37919	-35.80148	30.10579	119.60949	0
360	-48.8202	-74.85764	-24.4101	60.21158	-13.01872	-50.44754	10.57771	-16.2734	-48.8202	-36.61515	32.5468	122.0505	0
361	-48.00653	-72.41663	-22.78276	58.58424	-13.83239	-48.00653	10.57771	-15.45973	-50.44754	-37.42882	34.98781	124.49151	0
362	-48.00653	-69.97562	-21.96909	57.77057	-13.83239	-46.37919	9.76404	-13.01872	-49.63387	-35.80148	37.42882	126.93252	0
363	-47.19286	-69.16195	-20.34175	56.14323	-13.01872	-46.37919	8.95037	-9.76404	-46.37919	-33.36047	39.86983	128.55986	0
364	-47.19286	-67.53461	-18.71441	52.88855	-13.01872	-47.19286	8.1367	-6.50936	-42.31084	-30.91946	41.49717	129.37353	0
365	-46.37919	-65.90727	-18.71441	51.26121	-12.20505	-48.00653	8.1367	-4.06835	-39.05616	-30.91946	42.31084	129.37353	0
366	-44.75185	-65.0936	-19.52808	50.44754	-10.57771	-48.00653	10.57771	-3.25468	-36.61515	-33.36047	43.12451	129.37353	0
367	-43.93818	-64.27993	-20.34175	51.26121	-10.57771	-46.37919	12.20505	-3.25468	-35.80148	-36.61515	43.12451	129.37353	0
368	-41.49717	-63.46626	-21.15542	52.07488	-9.76404	-43.93818	13.83239	-4.06835	-37.42882	-38.24249	43.93818	131.00087	0
369	-37.42882	-61.02525	-21.96909	54.51589	-8.95037	-43.12451	15.45973	-4.06835	-39.86983	-37.42882	45.56552	132.62821	0
370	-36.61515	-59.39791	-21.15542	56.14323	-8.95037	-41.49717	17.08707	-3.25468	-40.6835	-33.36047	48.8202	135.88289	0
371	-38.24249	-58.58424	-18.71441	55.32956	-10.57771	-39.86983	17.90074	-0.81367	-39.05616	-29.29212	52.07488	138.3239	0
372	-39.86983	-58.58424	-18.71441	53.70222	-11.39138	-39.05616	18.71441	2.44101	-35.80148	-23.59643	55.32956	141.57858	0
373	-40.6835	-60.21158	-18.71441	51.26121	-10.57771	-40.6835	20.34175	7.32303	-30.10579	-18.71441	57.77057	143.20592	0
374	-40.6835	-61.02525	-17.90074	48.00653	-10.57771	-43.93818	21.15542	12.20505	-23.59643	-14.64606	60.21158	144.83326	0
375	-40.6835	-61.83892	-18.71441	46.37919	-9.76404	-46.37919	22.78276	16.2734	-17.90074	-12.20505	61.83892	144.83326	0
376	-39.86983	-61.83892	-20.34175	46.37919	-8.1367	-46.37919	24.4101	17.90074	-13.83239	-11.39138	63.46626	144.01959	0
377	-38.24249	-61.02525	-20.34175	45.56552	-8.1367	-43.93818	26.03744	17.90074	-12.20505	-11.39138	63.46626	143.20592	0
378	-35.80148	-58.58424	-19.52808	43.93818	-8.1367	-40.6835	26.85111	16.2734	-13.01872	-13.01872	63.46626	143.20592	0
379	-31.73313	-53.70222	-19.52808	39.86983	-6.50936	-37.42882	27.66478	14.64606	-14.64606	-14.64606	62.65259	143.20592	0
380	-28.47845	-49.63387	-17.90074	36.61515	-5.69569	-34.17414	28.47845	14.64606	-17.08707	-17.08707	61.83892	143.20592	0
381	-27.66478	-47.19286	-17.08707	35.80148	-6.50936	-31.73313	28.47845	16.2734	-17.90074	-19.52808	60.21158	143.20592	0
382	-27.66478	-46.37919	-17.08707	35.80148	-6.50936	-30.91946	28.47845	19.52808	-17.08707	-20.34175	59.39791	141.57858	0
383	-28.47845	-47.19286	-17.08707	38.24249	-5.69569	-31.73313	28.47845	23.59643	-15.45973	-20.34175	59.39791	140.76491	0
384	-30.10579	-49.63387	-17.08707	42.31084	-5.69569	-30.91946	28.47845	27.66478	-12.20505	-18.71441	58.58424	138.3239	0
385	-31.73313	-52.07488	-17.08707	45.56552	-5.69569	-32.5468	28.47845	30.91946	-8.95037	-17.90074	58.58424	135.88289	0
386	-32.5468	-53.70222	-18.71441	46.37919	-5.69569	-34.17414	30.10579	32.5468	-6.50936	-16.2734	58.58424	134.25555	0
387	-33.36047	-52.88855	-18.71441	44.75185	-6.50936	-34.98781	30.91946	32.5468	-5.69569	-16.2734	57.77057	133.44188	0
388	-31.73313	-50.44754	-17.90074	40.6835	-6.50936	-34.17414	31.73313	30.91946	-7.32303	-16.2734	57.77057	132.62821	0
389	-26.85111	-46.37919	-17.90074	35.80148	-4.88202	-33.36047	31.73313	28.47845	-8.95037	-17.90074	57.77057	132.62821	0
390	-22.78276	-43.12451	-18.71441	31.73313	-3.25468	-31.73313	31.73313	28.47845	-10.57771	-18.71441	57.77057	131.81454	0
391	-21.15542	-40.6835	-17.90074	29.29212	-2.44101	-30.10579	31.73313	30.10579	-10.57771	-20.34175	58.58424	131.00087	0
392	-21.15542	-39.86983	-17.90074	29.29212	-2.44101	-29.29212	31.73313	32.5468	-8.95037	-19.52808	59.39791	130.1872	0
393	-21.15542	-39.05616	-17.08707	27.66478	-2.44101	-29.29212	30.91946	35.80148	-4.88202	-17.08707	61.02525	130.1872	0
394	-21.96909	-38.24249	-14.64606	25.22377	-2.44101	-30.91946	31.73313	39.86983	-0.81367	-15.45973	62.65259	129.37353	0
395	-21.15542	-37.42882	-13.83239	23.59643	-1.62734	-31.73313	32.5468	43.12451	1.62734	-13.01872	64.27993	128.55986	0
396	-20.34175	-36.61515	-15.45973	24.4101	-0.81367	-31.73313	34.17414	44.75185	3.25468	-11.39138	65.90727	127.74619	0
397	-20.34175	-37.42882	-16.2734	26.03744	-0.81367	-30.91946	35.80148	44.75185	3.25468	-11.39138	65.90727	126.11885	0
398	-18.71441	-36.61515	-17.08707	26.03744	-0.81367	-29.29212	35.80148	41.49717	0.81367	-13.01872	65.0936	124.49151	0
399	-15.45973	-35.80148	-18.71441	24.4101	0	-28.47845	36.61515	39.05616	-0.81367	-15.45973	63.46626	122.0505	0
400	-13.83239	-34.17414	-18.71441	22.78276	0.81367	-27.66478	36.61515	37.42882	-4.06835	-18.71441	61.83892	120.42316	0
401	-14.64606	-33.36047	-17.90074	22.78276	0	-26.03744	37.42882	37.42882	-5.69569	-21.15542	61.02525	118.79582	0
402	-15.45973	-33.36047	-17.08707	22.78276	0	-25.22377	37.42882	39.86983	-4.88202	-21.15542	59.39791	116.35481	0
403	-15.45973	-33.36047	-17.08707	22.78276	0	-24.4101	36.61515	43.12451	-1.62734	-19.52808	59.39791	113.9138	0
404	-16.2734	-34.98781	-17.08707	21.96909	0.81367	-24.4101	36.61515	47.19286	1.62734	-17.08707	59.39791	112.28646	0
405	-15.45973	-36.61515	-17.90074	21.15542	1.62734	-25.22377	38.24249	49.63387	5.69569	-14.64606	60.21158	111.47279	0
406	-15.45973	-39.05616	-21.15542	22.78276	3.25468	-28.47845	39.86983	50.44754	8.95037	-13.01872	61.02525	109.84545	0
407	-14.64606	-39.86983	-21.96909	23.59643	4.06835	-29.29212	41.49717	48.8202	9.76404	-13.01872	61.02525	109.03178	0
408	-13.83239	-38.24249	-21.96909	23.59643	4.06835	-29.29212	41.49717	46.37919	7.32303	-14.64606	60.21158	107.40444	0
409	-10.57771	-34.98781	-21.96909	20.34175	4.06835	-29.29212	40.6835	43.12451	3.25468	-17.08707	58.58424	104.96343	0
410	-8.95037	-31.73313	-21.15542	18.71441	4.06835	-26.85111	39.86983	40.6835	0	-20.34175	58.58424	103.33609	0
411	-8.95037	-29.29212	-18.71441	17.90074	3.25468	-25.22377	39.05616	40.6835	-2.44101	-21.96909	57.77057	100.89508	0
412	-9.76404	-28.47845	-17.90074	18.71441	2.44101	-24.4101	39.05616	41.49717	-3.25468	-22.78276	56.9569	98.45407	0
413	-11.39138	-30.10579	-17.90074	18.71441	2.44101	-23.59643	39.05616	42.31084	-1.62734	-21.15542	56.9569	96.01306	0
414	-12.20505	-32.5468	-17.90074	17.90074	3.25468	-23.59643	39.86983	43.93818	0	-20.34175	56.9569	92.75838	0
415	-12.20505	-35.80148	-20.34175	18.71441	4.88202	-26.03744	41.49717	45.56552	1.62734	-18.71441	56.9569	89.5037	0
416	-11.39138	-38.24249	-23.59643	19.52808	6.50936	-29.29212	43.12451	45.56552	2.44101	-17.08707	56.9569	86.24902	0
417	-10.57771	-39.05616	-25.22377	21.15542	8.1367	-30.91946	44.75185	43.12451	1.62734	-17.08707	56.14323	82.99434	0
418	-8.95037	-38.24249	-26.85111	20.34175	8.1367	-31.73313	45.56552	39.86983	0	-19.52808	54.51589	80.55333	0
419	-5.69569	-34.98781	-26.85111	17.90074	8.95037	-30.91946	45.56552	35.80148	-3.25468	-22.78276	52.88855	78.92599	0
420	-4.06835	-32.5468	-26.03744	16.2734	8.95037	-30.10579	43.93818	33.36047	-6.50936	-26.03744	51.26121	77.29865	0
421	-4.06835	-30.10579	-23.59643	15.45973	7.32303	-27.66478	43.12451	31.73313	-8.95037	-29.29212	48.8202	74.85764	0
422	-4.88202	-29.29212	-22.78276	16.2734	7.32303	-26.03744	41.49717	32.5468	-8.1367	-30.10579	47.19286	71.60296	0
423	-5.69569	-29.29212	-22.78276	17.90074	7.32303	-26.03744	39.86983	33.36047	-6.50936	-30.10579	47.19286	69.16195	0
424	-6.50936	-30.91946	-21.96909	21.15542	8.1367	-25.22377	39.86983	35.80148	-3.25468	-28.47845	48.8202	67.53461	0
425	-6.50936	-33.36047	-23.59643	23.59643	8.95037	-26.03744	40.6835	36.61515	-0.81367	-27.66478	51.26121	65.0936	0
426	-7.32303	-35.80148	-26.03744	24.4101	9.76404	-29.29212	42.31084	35.80148	0	-26.85111	52.88855	63.46626	0
427	-7.32303	-37.42882	-27.66478	23.59643	9.76404	-31.73313	43.93818	32.5468	-1.62734	-27.66478	53.70222	61.83892	0
428	-7.32303	-38.24249	-28.47845	24.4101	9.76404	-33.36047	43.93818	27.66478	-5.69569	-29.29212	53.70222	60.21158	0
429	-6.50936	-38.24249	-29.29212	27.66478	9.76404	-34.17414	43.12451	22.78276	-11.39138	-31.73313	52.88855	58.58424	0
430	-6.50936	-38.24249	-29.29212	29.29212	9.76404	-34.98781	41.49717	19.52808	-15.45973	-34.17414	52.88855	56.9569	0
431	-8.1367	-39.05616	-29.29212	29.29212	8.1367	-34.98781	40.6835	17.90074	-17.90074	-36.61515	52.88855	55.32956	0
432	-9.76404	-40.6835	-29.29212	28.47845	8.1367	-34.98781	39.05616	17.90074	-18.71441	-37.42882	52.88855	53.70222	0
433	-10.57771	-42.31084	-30.10579	28.47845	8.95037	-35.80148	37.42882	17.08707	-17.90074	-37.42882	53.70222	52.07488	0
434	-11.39138	-43.93818	-30.10579	30.91946	8.95037	-35.80148	35.80148	17.08707	-16.2734	-37.42882	54.51589	49.63387	0
435	-12.20505	-45.56552	-30.91946	31.73313	9.76404	-36.61515	34.98781	16.2734	-14.64606	-36.61515	55.32956	47.19286	0
436	-11.39138	-47.19286	-32.5468	30.91946	10.57771	-38.24249	34.98781	14.64606	-13.83239	-34.98781	56.14323	45.56552	0
437	-11.39138	-47.19286	-33.36047	30.10579	10.57771	-39.05616	35.80148	11.39138	-15.45973	-34.98781	57.77057	43.93818	0
438	-15.45973	-44.75185	-32.5468	29.29212	9.76404	-38.24249	34.98781	7.32303	-17.90074	-36.61515	58.58424	41.49717	0
439	-21.96909	-43.12451	-32.5468	30.91946	9.76404	-38.24249	34.17414	2.44101	-22.78276	-41.49717	58.58424	39.05616	0
440	-26.85111	-41.49717	-31.73313	32.5468	8.95037	-38.24249	33.36047	-0.81367	-28.47845	-48.00653	57.77057	35.80148	0
441	-25.22377	-41.49717	-30.91946	32.5468	8.1367	-37.42882	31.73313	-3.25468	-32.5468	-52.88855	56.9569	31.73313	0
442	-22.78276	-43.12451	-31.73313	32.5468	8.1367	-39.05616	30.10579	-4.06835	-33.36047	-52.88855	56.9569	27.66478	0
443	-19.52808	-46.37919	-32.5468	33.36047	8.1367	-39.86983	28.47845	-4.88202	-31.73313	-48.00653	57.77057	24.4101	0
444	-17.08707	-48.8202	-32.5468	35.80148	8.95037	-39.86983	27.66478	-4.06835	-30.10579	-41.49717	61.02525	21.15542	0
445	-15.45973	-51.26121	-34.17414	37.42882	9.76404	-41.49717	28.47845	-4.06835	-29.29212	-35.80148	65.0936	17.90074	0
446	-14.64606	-52.88855	-36.61515	37.42882	11.39138	-43.93818	29.29212	-5.69569	-28.47845	-30.91946	68.34828	15.45973	0
447	-15.45973	-52.88855	-36.61515	35.80148	10.57771	-43.93818	30.91946	-8.1367	-28.47845	-26.85111	70.78929	13.01872	0
448	-15.45973	-51.26121	-34.17414	33.36047	8.95037	-40.6835	32.5468	-9.76404	-30.10579	-25.22377	73.2303	10.57771	0
449	-12.20505	-47.19286	-31.73313	27.66478	8.1367	-34.98781	34.98781	-10.57771	-30.91946	-25.22377	75.67131	8.95037	0
450	-8.95037	-41.49717	-29.29212	22.78276	8.1367	-29.29212	37.42882	-8.95037	-30.91946	-25.22377	79.73966	7.32303	0
451	-6.50936	-35.80148	-26.85111	18.71441	8.1367	-26.03744	41.49717	-4.88202	-29.29212	-25.22377	82.99434	5.69569	0
452	-4.88202	-30.10579	-23.59643	15.45973	8.1367	-23.59643	45.56552	0	-26.03744	-23.59643	86.24902	4.06835	0
453	-4.06835	-25.22377	-24.4101	12.20505	7.32303	-22.78276	48.8202	4.88202	-21.15542	-21.15542	90.31737	1.62734	0
454	-4.06835	-21.96909	-28.47845	8.1367	5.69569	-22.78276	52.07488	10.57771	-16.2734	-17.90074	93.57205	-0.81367	0
455	-4.06835	-17.90074	-28.47845	5.69569	4.06835	-21.15542	55.32956	13.83239	-11.39138	-15.45973	96.82673	-5.69569	0
456	-4.88202	-14.64606	-22.78276	5.69569	2.44101	-17.90074	58.58424	16.2734	-8.1367	-13.83239	99.26774	-10.57771	0
457	-4.88202	-12.20505	-15.45973	5.69569	0.81367	-13.83239	61.02525	16.2734	-6.50936	-12.20505	101.70875	-14.64606	0
458	-4.06835	-8.95037	-8.95037	4.06835	0	-9.76404	61.83892	14.64606	-8.1367	-13.83239	103.33609	-17.90074	0
459	-1.62734	-7.32303	-5.69569	2.44101	0	-7.32303	61.83892	12.20505	-13.01872	-17.08707	103.33609	-21.96909	0
460	-0.81367	-7.32303	-3.25468	1.62734	0	-6.50936	60.21158	10.57771	-17.08707	-21.15542	102.52242	-26.85111	0
461	-0.81367	-6.50936	-2.44101	1.62734	0	-4.88202	59.39791	10.57771	-19.52808	-22.78276	102.52242	-30.91946	0
462	0	-3.25468	-1.62734	0	0.81367	-1.62734	58.58424	14.64606	-17.08707	-21.15542	103.33609	-33.36047	0
463	4.06835	2.44101	-4.06835	-5.69569	2.44101	4.06835	58.58424	21.15542	-9.76404	-17.08707	107.40444	-34.17414	0
464	8.95037	11.39138	-8.1367	-14.64606	3.25468	8.95037	58.58424	27.66478	0	-10.57771	113.9138	-33.36047	0
465	13.83239	20.34175	-8.95037	-22.78276	3.25468	12.20505	59.39791	32.5468	8.95037	-4.88202	119.60949	-32.5468	0
466	17.90074	30.10579	-2.44101	-28.47845	3.25468	17.90074	58.58424	33.36047	14.64606	-0.81367	124.49151	-33.36047	0
467	21.15542	39.05616	7.32303	-33.36047	2.44101	25.22377	53.70222	29.29212	15.45973	0.81367	127.74619	-34.98781	0
468	25.22377	48.8202	17.90074	-39.05616	0	35.80148	43.93818	20.34175	11.39138	0	129.37353	-35.80148	0
469	30.10579	57.77057	25.22377	-46.37919	0	47.19286	30.91946	9.76404	4.88202	-3.25468	129.37353	-38.24249	0
470	34.98781	65.90727	30.91946	-52.07488	0	55.32956	17.08707	0	-1.62734	-7.32303	129.37353	-40.6835	0
471	38.24249	72.41663	34.98781	-56.14323	0	59.39791	4.06835	-6.50936	-6.50936	-9.76404	128.55986	-43.93818	0
472	40.6835	75.67131	35.80148	-59.39791	0.81367	59.39791	-6.50936	-10.57771	-8.1367	-10.57771	127.74619	-47.19286	0
473	42.31084	74.85764	30.10579	-59.39791	7.32303	55.32956	-15.45973	-13.01872	-8.1367	-9.76404	126.93252	-51.26121	0
474	43.93818	70.78929	17.90074	-56.14323	19.52808	47.19286	-23.59643	-14.64606	-6.50936	-9.76404	126.11885	-56.14323	0
475	45.56552	65.90727	6.50936	-52.88855	28.47845	39.05616	-29.29212	-15.45973	-4.88202	-8.95037	125.30518	-61.02525	0
476	48.8202	61.02525	0	-52.07488	31.73313	31.73313	-32.5468	-15.45973	-3.25468	-6.50936	126.11885	-65.0936	0
477	52.88855	56.14323	-4.88202	-52.88855	34.17414	26.03744	-36.61515	-16.2734	-1.62734	-5.69569	127.74619	-67.53461	0
478	59.39791	52.88855	-7.32303	-56.14323	36.61515	21.96909	-43.93818	-18.71441	-4.06835	-6.50936	128.55986	-70.78929	0
479	65.90727	50.44754	-7.32303	-60.21158	40.6835	19.52808	-52.88855	-24.4101	-9.76404	-9.76404	128.55986	-74.04397	0
480	71.60296	47.19286	-9.76404	-62.65259	45.56552	16.2734	-61.83892	-30.91946	-17.08707	-16.2734	126.93252	-78.92599	0
481	74.85764	45.56552	-15.45973	-62.65259	48.00653	13.01872	-68.34828	-37.42882	-25.22377	-21.96909	124.49151	-84.62168	0
482	74.04397	44.75185	-21.15542	-61.83892	49.63387	10.57771	-72.41663	-43.12451	-30.91946	-27.66478	120.42316	-91.13104	0
483	71.60296	42.31084	-23.59643	-57.77057	48.8202	8.95037	-74.04397	-47.19286	-33.36047	-30.91946	117.16848	-97.6404	0
484	68.34828	37.42882	-26.85111	-51.26121	48.8202	6.50936	-73.2303	-48.8202	-33.36047	-32.5468	114.72747	-104.96343	0
485	65.90727	30.91946	-31.73313	-45.56552	49.63387	1.62734	-69.97562	-46.37919	-31.73313	-31.73313	114.72747	-110.65912	0
486	65.0936	26.03744	-38.24249	-43.12451	52.07488	-4.06835	-66.72094	-43.93818	-28.47845	-29.29212	116.35481	-114.72747	0
487	65.0936	22.78276	-42.31084	-42.31084	53.70222	-8.1367	-64.27993	-41.49717	-25.22377	-26.03744	118.79582	-116.35481	0
488	59.39791	19.52808	-44.75185	-39.05616	49.63387	-9.76404	-60.21158	-39.05616	-22.78276	-23.59643	120.42316	-118.79582	0
489	45.56552	13.83239	-45.56552	-33.36047	38.24249	-10.57771	-55.32956	-35.80148	-23.59643	-24.4101	119.60949	-123.67784	0
490	30.91946	2.44101	-44.75185	-27.66478	28.47845	-14.64606	-48.8202	-32.5468	-26.85111	-28.47845	116.35481	-131.81454	0
491	21.15542	-8.95037	-44.75185	-18.71441	24.4101	-21.15542	-44.75185	-30.91946	-31.73313	-34.98781	109.84545	-142.39225	0
492	13.83239	-21.96909	-45.56552	-6.50936	24.4101	-30.10579	-41.49717	-31.73313	-37.42882	-42.31084	103.33609	-152.15629	0
493	8.1367	-34.98781	-47.19286	4.06835	25.22377	-40.6835	-40.6835	-33.36047	-41.49717	-48.00653	96.82673	-161.92033	0
494	3.25468	-46.37919	-48.8202	13.83239	25.22377	-51.26121	-39.86983	-35.80148	-45.56552	-53.70222	90.31737	-171.68437	0
495	-0.81367	-56.14323	-52.07488	22.78276	26.03744	-60.21158	-39.86983	-39.05616	-48.8202	-59.39791	85.43535	-181.44841	0
496	-5.69569	-65.0936	-56.9569	31.73313	26.03744	-66.72094	-39.05616	-44.75185	-53.70222	-65.0936	79.73966	-190.39878	0
497	-11.39138	-73.2303	-60.21158	40.6835	24.4101	-70.78929	-39.86983	-52.88855	-61.02525	-71.60296	74.85764	-198.53548	0
498	-15.45973	-78.11232	-61.83892	47.19286	22.78276	-73.2303	-40.6835	-59.39791	-68.34828	-77.29865	70.78929	-204.23117	0
499	-16.2734	-80.55333	-63.46626	53.70222	22.78276	-74.04397	-42.31084	-64.27993	-74.04397	-82.18067	69.16195	-207.48585	0
500	-16.2734	-80.55333	-64.27993	56.14323	21.96909	-74.04397	-43.12451	-65.0936	-78.11232	-84.62168	68.34828	-208.29952	0
501	-17.08707	-80.55333	-64.27993	55.32956	21.96909	-73.2303	-43.93818	-62.65259	-78.11232	-84.62168	68.34828	-208.29952	0
502	-17.90074	-80.55333	-64.27993	53.70222	21.96909	-73.2303	-44.75185	-59.39791	-76.48498	-82.99434	69.16195	-207.48585	0
503	-17.90074	-82.99434	-64.27993	52.88855	22.78276	-73.2303	-44.75185	-55.32956	-72.41663	-80.55333	69.97562	-208.29952	0
504	-19.52808	-86.24902	-64.27993	55.32956	22.78276	-74.04397	-44.75185	-52.07488	-69.16195	-78.11232	70.78929	-209.11319	0
505	-21.15542	-90.31737	-65.90727	58.58424	22.78276	-76.48498	-43.12451	-48.8202	-65.90727	-76.48498	71.60296	-209.92686	0
506	-22.78276	-93.57205	-69.16195	60.21158	23.59643	-79.73966	-40.6835	-48.00653	-64.27993	-77.29865	71.60296	-210.74053	0
507	-24.4101	-95.19939	-69.97562	61.02525	22.78276	-82.18067	-39.05616	-48.00653	-64.27993	-81.367	70.78929	-210.74053	0
508	-26.03744	-95.19939	-69.16195	62.65259	21.15542	-82.99434	-37.42882	-48.8202	-65.90727	-85.43535	70.78929	-209.11319	0
509	-26.03744	-94.38572	-69.16195	65.90727	20.34175	-83.80801	-37.42882	-50.44754	-68.34828	-87.06269	70.78929	-207.48585	0
510	-26.03744	-93.57205	-68.34828	67.53461	18.71441	-82.99434	-37.42882	-49.63387	-69.97562	-86.24902	71.60296	-205.85851	0
511	-27.66478	-93.57205	-67.53461	66.72094	17.90074	-82.18067	-38.24249	-48.00653	-69.97562	-83.80801	72.41663	-205.04484	0
512	-29.29212	-95.19939	-67.53461	65.90727	17.90074	-82.18067	-39.05616	-45.56552	-68.34828	-78.92599	74.04397	-203.4175	0
513	-30.91946	-97.6404	-67.53461	66.72094	17.08707	-84.62168	-39.86983	-43.93818	-65.0936	-74.85764	75.67131	-202.60383	0
514	-33.36047	-100.89508	-65.90727	70.78929	15.45973	-87.87636	-39.05616	-40.6835	-60.21158	-71.60296	76.48498	-201.79016	0
515	-36.61515	-104.14976	-65.0936	74.04397	14.64606	-91.13104	-36.61515	-36.61515	-56.14323	-69.97562	77.29865	-201.79016	0
516	-39.86983	-106.59077	-65.90727	75.67131	13.01872	-91.94471	-31.73313	-34.17414	-52.88855	-70.78929	75.67131	-201.79016	0
517	-43.12451	-109.84545	-65.90727	78.11232	10.57771	-91.13104	-26.85111	-35.80148	-54.51589	-75.67131	72.41663	-202.60383	0
518	-52.07488	-109.84545	-58.58424	78.11232	2.44101	-87.06269	-25.22377	-46.37919	-62.65259	-83.80801	67.53461	-203.4175	0
519	-65.0936	-106.59077	-41.49717	75.67131	-12.20505	-76.48498	-26.85111	-70.78929	-78.92599	-94.38572	61.83892	-203.4175	0
520	-78.11232	-95.19939	-17.90074	73.2303	-30.91946	-58.58424	-30.10579	-115.54114	-105.7771	-108.21811	57.77057	-200.16282	0
521	-87.87636	-75.67131	11.39138	69.97562	-51.26121	-32.5468	-34.98781	-187.95777	-146.4606	-126.11885	55.32956	-192.83979	0
522	-99.26774	-48.8202	49.63387	65.90727	-78.11232	0	-43.12451	-288.03918	-203.4175	-148.08794	53.70222	-182.26208	0
523	-109.84545	-17.90074	88.69003	58.58424	-106.59077	35.80148	-50.44754	-412.53069	-274.20679	-171.68437	55.32956	-165.98868	0
524	-118.79582	14.64606	126.11885	47.19286	-127.74619	71.60296	-56.14323	-547.59991	-351.50544	-193.65346	61.83892	-145.64693	0
525	-125.30518	49.63387	165.17501	34.17414	-146.4606	109.03178	-57.77057	-681.85546	-425.54941	-207.48585	76.48498	-118.79582	0
526	-127.74619	89.5037	208.29952	17.08707	-167.61602	149.71528	-56.9569	-806.34697	-489.01567	-207.48585	103.33609	-82.99434	0
527	-119.60949	138.3239	257.11972	-7.32303	-190.39878	198.53548	-52.88855	-919.4471	-538.64954	-191.21245	144.01959	-34.98781	0
528	-104.14976	200.97649	315.70396	-41.49717	-216.43622	257.93339	-52.07488	-1029.29255	-580.14671	-161.10666	198.53548	24.4101	0
529	-87.87636	273.39312	379.98389	-83.80801	-244.101	325.468	-67.53461	-1161.10709	-635.47627	-132.62821	255.49238	93.57205	0
530	-68.34828	349.8781	434.49978	-133.44188	-260.3744	389.74793	-114.72747	-1347.43752	-735.55768	-129.37353	298.61689	161.92033	0
531	-39.86983	423.1084	475.99695	-187.1441	-262.81541	445.89116	-200.16282	-1595.60687	-895.037	-168.42969	330.35002	220.50457	0
532	-2.44101	493.89769	510.98476	-244.101	-255.49238	496.3387	-318.14497	-1881.20504	-1102.52285	-245.72834	353.13278	270.13844	0
533	46.37919	570.38267	537.83587	-307.56726	-240.84632	548.41358	-462.97823	-2170.87156	-1323.02742	-338.48672	366.96517	318.14497	0
534	111.47279	644.42664	559.80496	-383.23857	-218.06356	605.37048	-638.73095	-2446.70569	-1512.61253	-422.29473	375.91554	374.2882	0
535	183.88942	705.45189	574.45102	-464.60557	-190.39878	660.70004	-842.96212	-2670.46494	-1636.29037	-479.25163	388.12059	439.3818	0
536	255.49238	753.45842	556.55028	-532.95385	-145.64693	683.4828	-1059.39834	-2807.1615	-1697.31562	-511.79843	403.58032	490.64301	0
537	322.21332	762.40879	479.25163	-571.19634	-71.60296	645.24031	-1244.9151	-2865.74574	-1705.45232	-525.63082	407.64867	502.03439	0
538	375.91554	713.58859	352.31911	-567.94166	18.71441	548.41358	-1367.77927	-2858.42271	-1659.8868	-525.63082	388.12059	468.67392	0
539	409.27601	622.45755	213.99521	-531.32651	102.52242	424.73574	-1429.61819	-2781.93773	-1563.87374	-509.35742	353.94645	407.64867	0
540	419.85372	517.49412	91.94471	-476.81062	165.98868	305.93992	-1432.87287	-2633.03612	-1423.9225	-472.74227	320.58598	339.30039	0
541	410.90335	420.66739	3.25468	-419.04005	203.4175	210.74053	-1379.17065	-2421.48192	-1253.86547	-419.85372	294.54854	275.83413	0
542	381.61123	343.36874	-43.93818	-362.89682	212.36787	147.27427	-1281.53025	-2167.61688	-1074.0444	-363.71049	272.57945	220.50457	0
543	339.30039	283.15716	-58.58424	-310.00827	198.53548	110.65912	-1152.97039	-1888.52807	-907.24205	-322.21332	247.35568	168.42969	0
544	289.66652	233.52329	-55.32956	-258.74706	173.31171	89.5037	-1006.50979	-1602.9299	-771.35916	-296.17588	210.74053	111.47279	0
545	235.9643	187.95777	-44.75185	-208.29952	140.76491	73.2303	-855.16717	-1327.09577	-668.02307	-283.15716	165.17501	51.26121	0
546	180.63474	146.4606	-32.5468	-161.10666	107.40444	57.77057	-708.70657	-1069.97605	-579.33304	-273.39312	119.60949	-6.50936	0
547	135.06922	110.65912	-23.59643	-121.23683	79.73966	43.93818	-575.26469	-834.82542	-487.38833	-251.42403	87.87636	-53.70222	0
548	97.6404	79.73966	-17.90074	-88.69003	61.83892	30.91946	-458.90988	-624.08489	-384.05224	-212.36787	75.67131	-86.24902	0
549	68.34828	55.32956	-13.83239	-62.65259	52.88855	18.71441	-357.20113	-437.75446	-272.57945	-157.85198	81.367	-104.14976	0
550	50.44754	33.36047	-17.08707	-43.12451	49.63387	5.69569	-270.13844	-276.6478	-160.29299	-96.82673	97.6404	-113.10013	0
551	42.31084	12.20505	-30.10579	-29.29212	49.63387	-9.76404	-196.09447	-139.95124	-55.32956	-39.05616	115.54114	-117.16848	0
552	38.24249	-6.50936	-46.37919	-17.08707	50.44754	-27.66478	-135.88289	-26.03744	32.5468	8.95037	130.1872	-122.0505	0
553	39.05616	-25.22377	-59.39791	-6.50936	51.26121	-42.31084	-87.87636	64.27993	103.33609	46.37919	139.13757	-126.93252	0
554	43.12451	-41.49717	-68.34828	0.81367	51.26121	-52.07488	-52.07488	131.00087	155.41097	72.41663	144.83326	-131.81454	0
555	40.6835	-53.70222	-74.85764	8.95037	49.63387	-61.83892	-27.66478	174.93905	188.77144	87.87636	146.4606	-136.69656	0
556	31.73313	-64.27993	-79.73966	18.71441	48.00653	-69.97562	-9.76404	201.79016	203.4175	92.75838	143.20592	-142.39225	0
557	18.71441	-71.60296	-80.55333	27.66478	43.93818	-74.85764	3.25468	216.43622	206.67218	89.5037	137.51023	-148.08794	0
558	7.32303	-76.48498	-80.55333	36.61515	40.6835	-78.11232	13.01872	224.57292	203.4175	82.99434	130.1872	-152.96996	0
559	0	-79.73966	-78.92599	44.75185	37.42882	-79.73966	20.34175	227.01393	198.53548	76.48498	123.67784	-156.22464	0
560	-4.06835	-80.55333	-76.48498	49.63387	34.17414	-80.55333	25.22377	227.8276	196.90814	74.85764	121.23683	-157.03831	0
561	-6.50936	-81.367	-75.67131	50.44754	32.5468	-79.73966	27.66478	229.45494	201.79016	78.92599	121.23683	-156.22464	0
562	-8.1367	-83.80801	-76.48498	48.8202	32.5468	-80.55333	30.10579	235.15063	211.5542	87.06269	122.86417	-153.78363	0
563	-8.95037	-87.06269	-77.29865	49.63387	33.36047	-81.367	33.36047	244.91467	223.75925	95.19939	123.67784	-152.96996	0
564	-9.76404	-91.13104	-78.11232	52.07488	34.17414	-82.18067	37.42882	256.30605	235.15063	102.52242	123.67784	-152.15629	0
565	-10.57771	-95.19939	-80.55333	54.51589	34.98781	-84.62168	43.12451	266.88376	243.28733	108.21811	122.86417	-152.15629	0
566	-11.39138	-97.6404	-82.99434	56.14323	35.80148	-87.87636	49.63387	275.02046	248.98302	110.65912	120.42316	-152.96996	0
567	-13.01872	-99.26774	-83.80801	56.9569	34.98781	-90.31737	55.32956	280.71615	253.05137	111.47279	117.98215	-152.96996	0
568	-14.64606	-100.08141	-83.80801	56.9569	33.36047	-91.13104	59.39791	283.97083	253.86504	109.84545	115.54114	-152.15629	0
569	-15.45973	-99.26774	-82.99434	55.32956	32.5468	-91.94471	61.83892	286.41184	253.86504	107.40444	113.10013	-151.34262	0
570	-15.45973	-98.45407	-82.18067	54.51589	31.73313	-91.13104	64.27993	288.85285	254.67871	104.96343	110.65912	-148.90161	0
571	-15.45973	-96.82673	-81.367	53.70222	30.91946	-90.31737	65.0936	292.9212	256.30605	104.14976	109.03178	-147.27427	0
572	-14.64606	-96.82673	-81.367	53.70222	32.5468	-89.5037	65.0936	297.80322	259.56073	104.96343	108.21811	-144.83326	0
573	-13.83239	-96.82673	-82.18067	54.51589	33.36047	-91.13104	65.0936	302.68524	262.81541	108.21811	107.40444	-143.20592	0
574	-13.83239	-97.6404	-81.367	56.9569	34.17414	-93.57205	65.90727	309.1946	267.69743	111.47279	108.21811	-140.76491	0
575	-13.83239	-97.6404	-81.367	58.58424	34.17414	-95.19939	66.72094	314.89029	271.76578	115.54114	108.21811	-139.95124	0
576	-13.83239	-98.45407	-83.80801	58.58424	34.98781	-96.01306	68.34828	318.95864	275.02046	118.79582	108.21811	-138.3239	-1250	T-0
577	-13.83239	-99.26774	-85.43535	58.58424	35.80148	-95.19939	69.97562	320.58598	276.6478	121.23683	107.40444	-136.69656	0
578	-13.01872	-99.26774	-86.24902	56.14323	35.80148	-95.19939	69.97562	322.21332	276.6478	122.0505	105.7771	-135.88289	0
579	-11.39138	-98.45407	-86.24902	53.70222	35.80148	-94.38572	69.16195	323.84066	275.83413	122.0505	104.96343	-134.25555	0
580	-10.57771	-96.01306	-85.43535	51.26121	35.80148	-92.75838	68.34828	326.28167	275.83413	122.0505	102.52242	-133.44188	0
581	-10.57771	-94.38572	-83.80801	50.44754	34.98781	-89.5037	66.72094	331.16369	278.27514	120.42316	99.26774	-134.25555	0
582	-9.76404	-92.75838	-82.18067	49.63387	34.98781	-87.87636	66.72094	337.67305	282.34349	118.79582	95.19939	-135.06922	0
583	-8.95037	-91.13104	-81.367	47.19286	34.98781	-87.06269	66.72094	344.99608	287.22551	119.60949	91.13104	-137.51023	0
584	-8.1367	-90.31737	-79.73966	43.12451	35.80148	-88.69003	67.53461	353.13278	293.73487	122.86417	87.06269	-141.57858	0
585	-6.50936	-89.5037	-80.55333	40.6835	37.42882	-91.13104	69.97562	361.26948	301.0579	127.74619	84.62168	-145.64693	0
586	-4.06835	-89.5037	-83.80801	41.49717	39.86983	-91.94471	74.04397	366.96517	308.38093	132.62821	81.367	-150.52895	0
587	-3.25468	-89.5037	-86.24902	43.12451	41.49717	-91.94471	78.11232	371.84719	313.26295	136.69656	78.92599	-154.5973	0
588	-2.44101	-89.5037	-87.06269	43.93818	41.49717	-91.13104	82.18067	376.72921	316.51763	139.13757	76.48498	-158.66565	0
589	-1.62734	-89.5037	-87.87636	43.12451	42.31084	-91.13104	84.62168	380.79756	318.14497	139.95124	73.2303	-161.92033	0
590	0	-87.87636	-88.69003	42.31084	43.12451	-91.13104	86.24902	385.67958	319.77231	139.13757	69.97562	-165.17501	0
591	0	-87.87636	-89.5037	43.12451	43.93818	-90.31737	87.06269	392.18894	322.21332	138.3239	65.90727	-168.42969	0
592	0	-88.69003	-91.13104	43.12451	44.75185	-91.13104	88.69003	399.51197	327.09534	139.13757	61.02525	-170.8707	0
593	0.81367	-91.13104	-91.94471	44.75185	45.56552	-92.75838	89.5037	407.64867	333.6047	141.57858	57.77057	-173.31171	0
594	0	-92.75838	-91.13104	48.00653	46.37919	-96.01306	91.94471	415.78537	341.7414	144.83326	54.51589	-174.12538	0
595	0	-94.38572	-92.75838	49.63387	47.19286	-99.26774	95.19939	423.92207	349.06443	148.90161	52.07488	-175.75272	0
596	0	-95.19939	-94.38572	49.63387	48.00653	-100.08141	100.08141	430.43143	354.76012	152.15629	50.44754	-177.38006	0
597	0	-95.19939	-94.38572	49.63387	47.19286	-98.45407	104.14976	436.12712	358.82847	155.41097	49.63387	-179.0074	0
598	-0.81367	-93.57205	-92.75838	47.19286	45.56552	-95.19939	106.59077	441.00914	360.45581	157.85198	48.8202	-179.0074	0
599	0	-90.31737	-91.94471	43.12451	44.75185	-92.75838	109.03178	445.89116	361.26948	159.47932	48.00653	-179.0074	0
600	2.44101	-87.06269	-91.13104	39.86983	45.56552	-90.31737	110.65912	452.40052	362.89682	160.29299	48.00653	-179.82107	0
601	5.69569	-83.80801	-90.31737	36.61515	46.37919	-87.87636	112.28646	459.72355	365.33783	162.734	46.37919	-180.63474	0
602	8.1367	-81.367	-90.31737	34.98781	48.00653	-86.24902	115.54114	469.48759	369.40618	166.80235	45.56552	-181.44841	0
603	8.95037	-79.73966	-92.75838	34.17414	48.8202	-85.43535	118.79582	480.0653	375.10187	170.8707	44.75185	-182.26208	0
604	8.95037	-78.92599	-98.45407	35.80148	48.00653	-86.24902	124.49151	490.64301	381.61123	175.75272	43.93818	-183.88942	0
605	8.1367	-78.11232	-100.08141	37.42882	47.19286	-86.24902	130.1872	500.40705	387.30692	180.63474	42.31084	-185.51676	0
606	7.32303	-77.29865	-96.82673	36.61515	46.37919	-85.43535	136.69656	507.73008	392.18894	183.88942	40.6835	-186.33043	0
607	6.50936	-75.67131	-91.13104	35.80148	44.75185	-82.18067	141.57858	514.23944	394.62995	187.1441	38.24249	-187.1441	0
608	6.50936	-74.04397	-84.62168	33.36047	43.12451	-79.73966	145.64693	519.12146	395.44362	187.95777	34.17414	-186.33043	0
609	7.32303	-71.60296	-80.55333	30.10579	42.31084	-77.29865	148.90161	524.00348	395.44362	188.77144	30.91946	-186.33043	0
610	8.95037	-68.34828	-77.29865	26.85111	42.31084	-74.85764	151.34262	530.51284	396.25729	188.77144	26.85111	-185.51676	0
611	8.95037	-65.90727	-74.85764	26.03744	41.49717	-71.60296	154.5973	539.46321	397.88463	189.58511	23.59643	-183.88942	0
612	8.95037	-63.46626	-72.41663	25.22377	39.86983	-69.16195	158.66565	550.04092	401.13931	192.02612	19.52808	-183.07575	0
613	8.1367	-61.02525	-73.2303	25.22377	38.24249	-66.72094	163.54767	560.61863	406.02133	195.2808	15.45973	-182.26208	0
614	7.32303	-60.21158	-77.29865	27.66478	36.61515	-66.72094	168.42969	572.01001	411.71702	198.53548	11.39138	-181.44841	0
615	5.69569	-59.39791	-78.92599	29.29212	34.98781	-66.72094	174.93905	583.40139	416.59904	201.79016	6.50936	-181.44841	0
616	4.88202	-58.58424	-75.67131	28.47845	34.17414	-65.0936	180.63474	592.35176	419.85372	204.23117	2.44101	-181.44841	0
617	4.06835	-56.14323	-69.16195	27.66478	32.5468	-61.83892	186.33043	599.67479	420.66739	205.04484	-1.62734	-180.63474	0
618	4.06835	-52.88855	-61.83892	24.4101	30.10579	-57.77057	191.21245	605.37048	420.66739	205.04484	-6.50936	-179.82107	0
619	3.25468	-49.63387	-56.14323	21.15542	27.66478	-53.70222	194.46713	611.06617	419.85372	203.4175	-11.39138	-177.38006	0
620	2.44101	-45.56552	-49.63387	18.71441	25.22377	-49.63387	198.53548	616.76186	417.41271	202.60383	-17.08707	-175.75272	0
621	1.62734	-43.12451	-44.75185	17.90074	21.96909	-45.56552	201.79016	624.89856	417.41271	201.79016	-23.59643	-173.31171	0
622	0	-40.6835	-41.49717	17.90074	20.34175	-41.49717	205.85851	633.84893	418.22638	201.79016	-30.10579	-170.8707	0
623	-0.81367	-38.24249	-40.6835	18.71441	21.96909	-39.05616	209.92686	643.61297	420.66739	203.4175	-35.80148	-168.42969	0
624	-3.25468	-37.42882	-43.93818	21.15542	26.85111	-38.24249	213.18154	652.56334	423.92207	205.04484	-41.49717	-165.98868	0
625	-5.69569	-35.80148	-42.31084	22.78276	26.85111	-36.61515	218.06356	660.70004	426.36308	206.67218	-46.37919	-162.734	0
626	-8.1367	-33.36047	-35.80148	22.78276	21.15542	-32.5468	222.13191	664.76839	426.36308	208.29952	-52.07488	-160.29299	0
627	-9.76404	-29.29212	-26.85111	21.15542	12.20505	-26.85111	226.20026	668.02307	424.73574	208.29952	-58.58424	-155.41097	0
628	-10.57771	-25.22377	-17.08707	17.08707	4.88202	-18.71441	228.64127	668.83674	422.29473	206.67218	-65.0936	-149.71528	0
629	-10.57771	-20.34175	-9.76404	13.01872	-0.81367	-9.76404	230.26861	668.83674	416.59904	204.23117	-71.60296	-144.01959	0
630	-11.39138	-17.08707	-4.06835	11.39138	-4.88202	-3.25468	231.89595	668.83674	410.08968	201.79016	-77.29865	-137.51023	0
631	-13.01872	-13.83239	0.81367	11.39138	-8.95037	-0.81367	233.52329	668.83674	403.58032	199.34915	-80.55333	-131.00087	0
632	-14.64606	-10.57771	4.88202	10.57771	-11.39138	0	233.52329	668.83674	397.07096	197.72181	-81.367	-124.49151	0
633	-17.08707	-6.50936	7.32303	11.39138	-10.57771	2.44101	235.15063	668.02307	392.18894	196.09447	-79.73966	-116.35481	0
634	-18.71441	-1.62734	6.50936	12.20505	-5.69569	4.88202	235.9643	665.58206	388.12059	195.2808	-77.29865	-109.03178	0
635	-21.15542	1.62734	8.95037	12.20505	-5.69569	8.1367	237.59164	661.51371	381.61123	193.65346	-74.04397	-100.89508	0
636	-22.78276	6.50936	17.90074	10.57771	-12.20505	13.83239	238.40531	655.00435	374.2882	191.21245	-70.78929	-92.75838	0
637	-25.22377	11.39138	29.29212	8.1367	-21.96909	21.15542	240.03265	646.05398	365.33783	187.95777	-67.53461	-83.80801	0
638	-26.85111	17.08707	43.12451	4.88202	-30.91946	30.10579	240.03265	636.28994	353.94645	183.88942	-65.0936	-74.04397	0
639	-26.85111	22.78276	60.21158	0.81367	-37.42882	39.86983	240.03265	625.71223	341.7414	179.0074	-63.46626	-64.27993	0
640	-27.66478	27.66478	71.60296	-1.62734	-42.31084	47.19286	239.21898	614.32085	328.72268	173.31171	-62.65259	-55.32956	0
641	-28.47845	32.5468	75.67131	-3.25468	-47.19286	52.07488	237.59164	603.74314	315.70396	167.61602	-62.65259	-46.37919	0
642	-30.10579	36.61515	76.48498	-4.06835	-50.44754	55.32956	235.15063	591.53809	304.31258	162.734	-64.27993	-38.24249	0
643	-32.5468	40.6835	74.85764	-6.50936	-54.51589	57.77057	232.70962	578.51937	292.9212	157.85198	-65.0936	-30.91946	0
644	-34.17414	44.75185	71.60296	-9.76404	-57.77057	60.21158	229.45494	563.05964	281.52982	152.96996	-65.90727	-23.59643	0
645	-35.80148	49.63387	72.41663	-13.01872	-61.02525	63.46626	225.38659	545.1589	267.69743	147.27427	-66.72094	-17.08707	0
646	-36.61515	53.70222	78.11232	-13.01872	-63.46626	67.53461	222.13191	524.00348	253.05137	137.51023	-69.16195	-11.39138	0
647	-37.42882	57.77057	87.06269	-13.01872	-66.72094	73.2303	218.06356	499.59338	235.9643	126.93252	-71.60296	-4.88202	0
648	-39.05616	62.65259	96.01306	-13.83239	-69.97562	81.367	212.36787	474.36961	218.06356	115.54114	-74.85764	1.62734	0
649	-39.05616	67.53461	103.33609	-15.45973	-72.41663	89.5037	205.04484	447.5185	198.53548	106.59077	-78.11232	8.95037	0
650	-39.05616	71.60296	109.03178	-17.90074	-74.85764	96.82673	197.72181	420.66739	179.82107	100.08141	-80.55333	15.45973	0
651	-39.05616	74.85764	114.72747	-18.71441	-77.29865	100.08141	189.58511	393.81628	162.734	96.01306	-81.367	22.78276	0
652	-39.86983	78.11232	117.98215	-19.52808	-79.73966	101.70875	181.44841	367.77884	147.27427	93.57205	-81.367	29.29212	0
653	-41.49717	79.73966	117.98215	-18.71441	-82.18067	100.89508	173.31171	340.92773	133.44188	90.31737	-81.367	34.17414	0
654	-43.12451	80.55333	114.72747	-16.2734	-84.62168	100.08141	163.54767	313.26295	119.60949	86.24902	-82.18067	38.24249	0
655	-44.75185	81.367	113.9138	-14.64606	-87.06269	100.08141	153.78363	284.7845	104.14976	78.92599	-85.43535	41.49717	0
656	-46.37919	81.367	116.35481	-14.64606	-87.87636	100.89508	143.20592	254.67871	87.87636	69.97562	-90.31737	43.12451	0
657	-46.37919	81.367	121.23683	-15.45973	-87.87636	102.52242	131.81454	224.57292	69.97562	59.39791	-96.01306	43.93818	0
658	-46.37919	82.18067	125.30518	-15.45973	-88.69003	105.7771	120.42316	195.2808	53.70222	48.8202	-102.52242	43.12451	0
659	-45.56552	82.99434	126.11885	-13.01872	-87.87636	109.84545	109.84545	168.42969	38.24249	39.05616	-109.03178	42.31084	0
660	-45.56552	82.18067	126.11885	-11.39138	-87.06269	110.65912	99.26774	144.83326	25.22377	29.29212	-115.54114	39.86983	0
661	-46.37919	78.11232	123.67784	-10.57771	-86.24902	106.59077	90.31737	124.49151	14.64606	21.15542	-122.0505	35.80148	0
662	-47.19286	72.41663	118.79582	-8.95037	-83.80801	99.26774	81.367	107.40444	6.50936	13.83239	-128.55986	30.10579	0
663	-48.8202	63.46626	113.10013	-7.32303	-81.367	88.69003	74.04397	92.75838	0	8.1367	-135.88289	23.59643	0
664	-51.26121	54.51589	109.03178	-6.50936	-79.73966	78.92599	67.53461	78.92599	-4.06835	2.44101	-144.01959	15.45973	0
665	-53.70222	46.37919	103.33609	-2.44101	-77.29865	69.16195	61.83892	65.90727	-8.1367	-2.44101	-152.96996	6.50936	0
666	-55.32956	37.42882	96.01306	3.25468	-74.85764	61.02525	57.77057	53.70222	-12.20505	-8.95037	-162.734	-1.62734	0
667	-57.77057	28.47845	87.87636	10.57771	-72.41663	54.51589	54.51589	40.6835	-17.08707	-15.45973	-174.12538	-12.20505	0
668	-58.58424	20.34175	79.73966	18.71441	-69.97562	48.8202	50.44754	29.29212	-22.78276	-22.78276	-186.33043	-21.96909	0
669	-59.39791	13.83239	74.04397	26.85111	-67.53461	46.37919	46.37919	19.52808	-29.29212	-30.91946	-199.34915	-32.5468	0
670	-61.02525	9.76404	71.60296	31.73313	-67.53461	45.56552	41.49717	10.57771	-34.98781	-39.05616	-213.18154	-43.93818	0
671	-63.46626	6.50936	69.97562	33.36047	-68.34828	42.31084	36.61515	4.06835	-39.86983	-46.37919	-225.38659	-55.32956	0
672	-65.0936	1.62734	67.53461	34.98781	-67.53461	37.42882	33.36047	-0.81367	-42.31084	-52.07488	-237.59164	-65.90727	0
673	-67.53461	-3.25468	64.27993	35.80148	-65.90727	30.10579	30.10579	-4.88202	-43.12451	-56.9569	-248.16935	-76.48498	0
674	-70.78929	-11.39138	61.83892	36.61515	-65.90727	21.96909	28.47845	-8.95037	-43.12451	-61.02525	-257.93339	-85.43535	0
675	-72.41663	-18.71441	57.77057	39.86983	-64.27993	13.83239	27.66478	-13.01872	-43.12451	-64.27993	-266.88376	-93.57205	0
676	-74.04397	-26.03744	50.44754	44.75185	-61.83892	7.32303	26.85111	-17.08707	-44.75185	-66.72094	-275.83413	-100.89508	0
677	-75.67131	-33.36047	43.93818	50.44754	-59.39791	1.62734	26.03744	-20.34175	-46.37919	-69.97562	-284.7845	-108.21811	0
678	-76.48498	-39.05616	38.24249	56.9569	-57.77057	0	25.22377	-22.78276	-48.00653	-74.04397	-292.9212	-113.9138	0
679	-76.48498	-43.93818	32.5468	65.0936	-55.32956	-1.62734	23.59643	-23.59643	-50.44754	-78.11232	-300.24423	-119.60949	0
680	-77.29865	-49.63387	27.66478	69.97562	-53.70222	-4.88202	21.96909	-24.4101	-51.26121	-82.18067	-307.56726	-124.49151	0
681	-78.11232	-53.70222	23.59643	71.60296	-52.07488	-9.76404	21.15542	-23.59643	-51.26121	-85.43535	-314.07662	-127.74619	0
682	-78.92599	-58.58424	19.52808	72.41663	-50.44754	-15.45973	19.52808	-22.78276	-49.63387	-87.06269	-320.58598	-131.00087	0
683	-81.367	-62.65259	17.08707	74.85764	-49.63387	-20.34175	19.52808	-21.96909	-47.19286	-87.06269	-325.468	-133.44188	0
684	-82.99434	-67.53461	17.08707	77.29865	-49.63387	-21.96909	19.52808	-21.96909	-45.56552	-87.87636	-329.53635	-135.88289	0
685	-84.62168	-70.78929	16.2734	79.73966	-49.63387	-23.59643	19.52808	-22.78276	-43.93818	-87.87636	-331.97736	-136.69656	0
686	-84.62168	-73.2303	13.01872	80.55333	-48.00653	-27.66478	19.52808	-25.22377	-43.93818	-89.5037	-332.79103	-137.51023	0
687	-83.80801	-75.67131	9.76404	80.55333	-46.37919	-31.73313	18.71441	-27.66478	-43.93818	-91.13104	-332.79103	-139.13757	0
688	-82.99434	-77.29865	5.69569	79.73966	-44.75185	-35.80148	17.90074	-30.10579	-45.56552	-92.75838	-331.97736	-139.95124	0
689	-82.18067	-78.92599	2.44101	78.92599	-43.12451	-39.05616	16.2734	-30.91946	-46.37919	-93.57205	-328.72268	-139.13757	0
690	-81.367	-80.55333	0	78.92599	-42.31084	-41.49717	14.64606	-31.73313	-47.19286	-93.57205	-326.28167	-139.13757	0
691	-82.18067	-82.18067	0	80.55333	-42.31084	-42.31084	13.83239	-31.73313	-46.37919	-94.38572	-323.84066	-138.3239	0
692	-84.62168	-84.62168	-0.81367	82.99434	-42.31084	-43.93818	13.01872	-30.91946	-44.75185	-94.38572	-323.02699	-139.13757	0
693	-87.06269	-87.06269	0	87.06269	-43.93818	-44.75185	12.20505	-30.91946	-43.12451	-93.57205	-321.39965	-139.13757	0
694	-89.5037	-88.69003	3.25468	90.31737	-45.56552	-46.37919	11.39138	-30.91946	-41.49717	-92.75838	-319.77231	-139.95124	0
695	-90.31737	-88.69003	4.88202	91.94471	-47.19286	-47.19286	11.39138	-31.73313	-39.86983	-91.94471	-318.14497	-139.95124	0
696	-90.31737	-88.69003	4.06835	91.94471	-46.37919	-46.37919	11.39138	-32.5468	-39.86983	-91.13104	-316.51763	-139.13757	0
697	-90.31737	-87.87636	3.25468	90.31737	-46.37919	-44.75185	11.39138	-34.17414	-40.6835	-91.94471	-315.70396	-137.51023	0
698	-89.5037	-87.06269	1.62734	87.87636	-45.56552	-43.93818	9.76404	-35.80148	-41.49717	-92.75838	-314.89029	-135.88289	0
699	-87.06269	-86.24902	0	85.43535	-44.75185	-43.93818	8.1367	-37.42882	-42.31084	-92.75838	-313.26295	-134.25555	0
700	-85.43535	-85.43535	0	82.99434	-43.93818	-43.93818	6.50936	-38.24249	-42.31084	-92.75838	-310.82194	-133.44188	0
701	-84.62168	-84.62168	-0.81367	82.18067	-43.12451	-43.93818	5.69569	-36.61515	-41.49717	-91.94471	-306.75359	-131.81454	0
702	-82.99434	-83.80801	-1.62734	82.18067	-41.49717	-43.12451	5.69569	-34.98781	-39.05616	-89.5037	-301.0579	-129.37353	0
703	-81.367	-82.18067	-0.81367	79.73966	-39.86983	-43.12451	5.69569	-32.5468	-35.80148	-87.06269	-293.73487	-126.93252	0
704	-79.73966	-80.55333	1.62734	74.04397	-39.86983	-43.12451	5.69569	-30.10579	-32.5468	-84.62168	-283.97083	-122.86417	0
705	-77.29865	-76.48498	4.06835	69.97562	-39.05616	-41.49717	6.50936	-28.47845	-30.91946	-81.367	-272.57945	-119.60949	0
706	-73.2303	-72.41663	4.06835	67.53461	-38.24249	-39.05616	7.32303	-26.85111	-29.29212	-78.11232	-259.56073	-114.72747	0
707	-69.16195	-67.53461	3.25468	65.0936	-36.61515	-34.98781	8.95037	-25.22377	-29.29212	-74.85764	-247.35568	-109.84545	0
708	-65.0936	-63.46626	3.25468	61.02525	-34.17414	-30.91946	9.76404	-21.96909	-28.47845	-71.60296	-234.33696	-104.96343	0
709	-60.21158	-59.39791	1.62734	56.9569	-32.5468	-30.10579	9.76404	-19.52808	-27.66478	-69.16195	-223.75925	-100.89508	0
710	-56.9569	-56.9569	0	54.51589	-30.10579	-29.29212	8.95037	-15.45973	-25.22377	-67.53461	-213.99521	-96.82673	0
711	-54.51589	-54.51589	0	52.88855	-28.47845	-28.47845	8.95037	-12.20505	-21.96909	-65.0936	-205.85851	-93.57205	0
712	-52.07488	-52.88855	-1.62734	51.26121	-26.03744	-27.66478	8.95037	-9.76404	-18.71441	-61.83892	-198.53548	-89.5037	0
713	-49.63387	-50.44754	-0.81367	48.00653	-24.4101	-26.85111	9.76404	-7.32303	-15.45973	-58.58424	-191.21245	-86.24902	0
714	-48.00653	-48.00653	2.44101	43.12451	-24.4101	-26.03744	10.57771	-5.69569	-12.20505	-55.32956	-182.26208	-82.99434	0
715	-46.37919	-43.93818	4.88202	39.05616	-24.4101	-23.59643	12.20505	-4.88202	-10.57771	-52.88855	-173.31171	-78.92599	0
716	-43.12451	-40.6835	4.88202	36.61515	-22.78276	-21.15542	13.01872	-4.06835	-9.76404	-51.26121	-164.36134	-74.85764	0
717	-39.86983	-37.42882	4.06835	34.98781	-21.96909	-18.71441	13.01872	-4.06835	-9.76404	-50.44754	-156.22464	-70.78929	0
718	-37.42882	-34.17414	3.25468	32.5468	-20.34175	-17.08707	13.83239	-3.25468	-10.57771	-49.63387	-148.08794	-68.34828	0
719	-33.36047	-30.91946	1.62734	30.10579	-18.71441	-16.2734	13.83239	-1.62734	-9.76404	-48.8202	-141.57858	-65.0936	0
720	-29.29212	-27.66478	0	26.85111	-16.2734	-15.45973	13.83239	0	-8.1367	-48.00653	-135.06922	-62.65259	0
721	-26.85111	-26.03744	0	25.22377	-14.64606	-14.64606	14.64606	3.25468	-4.88202	-48.8202	-130.1872	-61.02525	0
722	-25.22377	-24.4101	-0.81367	23.59643	-13.01872	-13.83239	15.45973	6.50936	-0.81367	-49.63387	-128.55986	-59.39791	0
723	-23.59643	-23.59643	0	23.59643	-12.20505	-13.01872	17.08707	8.1367	2.44101	-49.63387	-127.74619	-59.39791	0
724	-23.59643	-21.96909	4.06835	23.59643	-13.01872	-12.20505	17.90074	9.76404	6.50936	-48.8202	-127.74619	-59.39791	0
725	-22.78276	-19.52808	6.50936	22.78276	-13.83239	-11.39138	18.71441	9.76404	8.95037	-47.19286	-126.11885	-60.21158	0
726	-21.15542	-17.08707	7.32303	21.15542	-13.83239	-8.95037	20.34175	9.76404	10.57771	-43.93818	-124.49151	-60.21158	0
727	-20.34175	-14.64606	6.50936	18.71441	-13.01872	-6.50936	21.15542	9.76404	11.39138	-39.86983	-122.0505	-60.21158	0
728	-17.90074	-12.20505	5.69569	15.45973	-12.20505	-4.88202	21.15542	11.39138	12.20505	-37.42882	-119.60949	-59.39791	0
729	-15.45973	-10.57771	4.06835	11.39138	-10.57771	-4.88202	21.15542	13.83239	13.83239	-35.80148	-116.35481	-59.39791	0
730	-12.20505	-8.95037	2.44101	8.95037	-8.95037	-4.88202	21.15542	16.2734	16.2734	-34.98781	-113.9138	-59.39791	0
731	-10.57771	-8.95037	0.81367	8.1367	-7.32303	-4.88202	21.96909	19.52808	20.34175	-34.17414	-111.47279	-60.21158	0
732	-10.57771	-8.95037	0	8.1367	-6.50936	-4.88202	22.78276	21.96909	24.4101	-33.36047	-109.84545	-61.83892	0
733	-11.39138	-8.95037	1.62734	9.76404	-6.50936	-4.88202	22.78276	23.59643	26.85111	-32.5468	-108.21811	-63.46626	0
734	-13.01872	-8.1367	6.50936	12.20505	-8.95037	-4.06835	23.59643	23.59643	28.47845	-31.73313	-106.59077	-65.90727	0
735	-13.01872	-6.50936	9.76404	12.20505	-10.57771	-2.44101	23.59643	22.78276	28.47845	-30.91946	-104.96343	-67.53461	0
736	-12.20505	-4.06835	9.76404	10.57771	-10.57771	-0.81367	22.78276	21.15542	27.66478	-30.91946	-104.96343	-69.16195	0
737	-10.57771	-1.62734	9.76404	7.32303	-9.76404	0.81367	21.96909	20.34175	26.85111	-30.91946	-105.7771	-70.78929	0
738	-8.1367	0	8.1367	4.06835	-8.1367	1.62734	21.96909	20.34175	26.03744	-30.91946	-109.03178	-73.2303	0
739	-4.88202	0.81367	5.69569	0.81367	-6.50936	0.81367	21.15542	21.15542	26.03744	-30.91946	-111.47279	-75.67131	0
740	-3.25468	0.81367	3.25468	0	-4.88202	0	20.34175	21.96909	26.85111	-30.91946	-114.72747	-78.92599	0
741	-3.25468	0.81367	2.44101	0	-4.06835	0	20.34175	24.4101	29.29212	-30.91946	-116.35481	-81.367	0
742	-2.44101	0.81367	2.44101	0	-3.25468	0	21.15542	26.03744	32.5468	-30.10579	-117.16848	-83.80801	0
743	-2.44101	0.81367	3.25468	0.81367	-3.25468	0	21.96909	26.85111	34.98781	-29.29212	-117.16848	-86.24902	0
744	-4.06835	1.62734	7.32303	2.44101	-5.69569	0	23.59643	26.03744	36.61515	-29.29212	-117.16848	-88.69003	0
745	-4.06835	2.44101	10.57771	2.44101	-6.50936	0.81367	24.4101	23.59643	36.61515	-29.29212	-117.98215	-91.13104	0
746	-3.25468	3.25468	9.76404	0.81367	-5.69569	2.44101	24.4101	21.15542	35.80148	-30.91946	-117.98215	-93.57205	0
747	-1.62734	4.06835	8.1367	0	-4.88202	3.25468	24.4101	19.52808	34.98781	-32.5468	-117.98215	-95.19939	0
748	-0.81367	5.69569	6.50936	-1.62734	-4.06835	4.06835	24.4101	18.71441	34.17414	-33.36047	-117.16848	-96.01306	0
749	0.81367	5.69569	4.88202	-4.88202	-2.44101	3.25468	24.4101	19.52808	34.17414	-34.98781	-115.54114	-97.6404	0
750	2.44101	6.50936	3.25468	-6.50936	-1.62734	3.25468	24.4101	20.34175	34.98781	-34.98781	-114.72747	-98.45407	0
751	3.25468	6.50936	1.62734	-6.50936	0	3.25468	24.4101	21.96909	35.80148	-35.80148	-113.9138	-100.08141	0
752	4.06835	6.50936	0.81367	-6.50936	0	3.25468	25.22377	22.78276	37.42882	-35.80148	-113.10013	-102.52242	0
753	3.25468	7.32303	0	-5.69569	0	3.25468	26.03744	22.78276	39.05616	-34.98781	-113.10013	-104.96343	0
754	1.62734	8.95037	-2.44101	-4.06835	-2.44101	4.88202	26.85111	22.78276	40.6835	-34.17414	-113.9138	-106.59077	0
755	0.81367	11.39138	-1.62734	-4.06835	-4.88202	7.32303	27.66478	21.96909	41.49717	-33.36047	-114.72747	-107.40444	0
756	1.62734	13.01872	0.81367	-5.69569	-4.88202	9.76404	28.47845	21.15542	40.6835	-34.17414	-115.54114	-109.03178	0
757	3.25468	14.64606	4.88202	-8.1367	-4.06835	11.39138	29.29212	19.52808	39.05616	-34.17414	-117.16848	-109.84545	0
758	4.88202	15.45973	6.50936	-9.76404	-2.44101	11.39138	28.47845	18.71441	37.42882	-35.80148	-118.79582	-112.28646	0
759	7.32303	14.64606	5.69569	-12.20505	-0.81367	8.95037	26.85111	17.08707	36.61515	-35.80148	-119.60949	-113.9138	0
760	8.95037	13.83239	4.88202	-13.83239	0	7.32303	26.03744	17.08707	36.61515	-35.80148	-119.60949	-115.54114	0
761	8.95037	13.01872	3.25468	-13.01872	0.81367	6.50936	25.22377	18.71441	38.24249	-34.98781	-118.79582	-116.35481	0
762	7.32303	11.39138	3.25468	-10.57771	0.81367	5.69569	25.22377	18.71441	39.05616	-34.98781	-118.79582	-117.16848	0
763	4.06835	8.95037	4.88202	-7.32303	0	4.88202	26.03744	17.90074	39.86983	-34.17414	-118.79582	-118.79582	0
764	0.81367	7.32303	10.57771	-3.25468	-4.06835	4.06835	26.03744	16.2734	39.05616	-34.17414	-118.79582	-120.42316	0
765	-0.81367	7.32303	13.83239	-1.62734	-6.50936	4.88202	25.22377	13.83239	37.42882	-34.98781	-120.42316	-120.42316	0
766	-1.62734	7.32303	14.64606	-2.44101	-7.32303	7.32303	24.4101	10.57771	34.98781	-36.61515	-121.23683	-121.23683	0
767	-0.81367	8.1367	13.01872	-4.06835	-6.50936	8.95037	23.59643	8.1367	32.5468	-39.05616	-122.86417	-121.23683	0
768	0	8.95037	10.57771	-5.69569	-5.69569	8.95037	21.15542	6.50936	31.73313	-40.6835	-124.49151	-122.0505	0
769	1.62734	8.95037	6.50936	-7.32303	-3.25468	6.50936	19.52808	5.69569	32.5468	-42.31084	-126.93252	-122.0505	0
770	2.44101	8.1367	4.06835	-7.32303	-1.62734	4.06835	17.90074	6.50936	34.17414	-42.31084	-127.74619	-122.86417	0
771	2.44101	5.69569	1.62734	-5.69569	-0.81367	1.62734	17.90074	8.1367	36.61515	-43.12451	-129.37353	-123.67784	0
772	2.44101	3.25468	0	-3.25468	0	0	17.90074	8.95037	39.86983	-42.31084	-130.1872	-123.67784	0
773	0.81367	1.62734	0	-0.81367	0	-1.62734	18.71441	8.95037	42.31084	-42.31084	-131.00087	-123.67784	0
774	-0.81367	0	3.25468	1.62734	-1.62734	-2.44101	19.52808	7.32303	42.31084	-41.49717	-131.00087	-123.67784	0
775	-3.25468	-0.81367	6.50936	3.25468	-4.06835	-2.44101	21.15542	5.69569	40.6835	-43.12451	-131.00087	-123.67784	0
776	-4.06835	-1.62734	5.69569	4.06835	-4.06835	-1.62734	21.15542	3.25468	38.24249	-44.75185	-131.00087	-123.67784	0
777	-4.06835	-1.62734	4.06835	3.25468	-4.06835	-0.81367	21.15542	1.62734	34.17414	-47.19286	-131.00087	-122.86417	0
778	-2.44101	-1.62734	1.62734	1.62734	-2.44101	-1.62734	20.34175	0.81367	31.73313	-49.63387	-130.1872	-121.23683	0
779	0	-1.62734	-1.62734	0	0	-3.25468	18.71441	0.81367	30.10579	-49.63387	-130.1872	-120.42316	0
780	0.81367	-2.44101	-4.88202	-0.81367	0.81367	-5.69569	16.2734	1.62734	30.10579	-48.8202	-128.55986	-120.42316	0
781	1.62734	-3.25468	-7.32303	0	2.44101	-7.32303	15.45973	2.44101	30.91946	-47.19286	-126.93252	-119.60949	0
782	1.62734	-5.69569	-9.76404	0.81367	4.06835	-8.95037	14.64606	4.06835	32.5468	-44.75185	-124.49151	-118.79582	0
783	0	-7.32303	-8.95037	3.25468	4.06835	-10.57771	15.45973	4.06835	34.17414	-43.12451	-122.86417	-117.16848	0
784	-0.81367	-8.95037	-4.88202	5.69569	1.62734	-11.39138	16.2734	2.44101	33.36047	-43.12451	-121.23683	-116.35481	0
785	-3.25468	-8.95037	-1.62734	7.32303	0	-10.57771	16.2734	0.81367	30.91946	-44.75185	-118.79582	-114.72747	0
786	-3.25468	-8.1367	-1.62734	7.32303	0	-8.95037	16.2734	-0.81367	29.29212	-46.37919	-117.98215	-112.28646	0
787	-1.62734	-6.50936	-2.44101	4.88202	0	-7.32303	15.45973	-3.25468	27.66478	-48.8202	-117.16848	-109.84545	0
788	0	-5.69569	-4.88202	2.44101	1.62734	-5.69569	13.83239	-4.88202	26.03744	-50.44754	-116.35481	-107.40444	0
789	1.62734	-6.50936	-8.95037	0.81367	4.06835	-4.06835	11.39138	-5.69569	26.03744	-51.26121	-115.54114	-104.96343	0
790	3.25468	-7.32303	-13.83239	0.81367	7.32303	-5.69569	8.95037	-5.69569	26.03744	-53.70222	-113.9138	-103.33609	0
791	4.06835	-9.76404	-17.90074	2.44101	8.95037	-9.76404	7.32303	-5.69569	26.85111	-56.9569	-113.9138	-101.70875	0
792	3.25468	-11.39138	-19.52808	4.06835	9.76404	-13.83239	6.50936	-7.32303	27.66478	-58.58424	-113.9138	-99.26774	0
793	1.62734	-13.01872	-17.08707	5.69569	8.95037	-15.45973	5.69569	-10.57771	26.85111	-58.58424	-113.9138	-97.6404	0
794	0	-13.83239	-10.57771	8.95037	4.88202	-16.2734	4.88202	-14.64606	25.22377	-57.77057	-113.9138	-96.01306	0
795	-2.44101	-13.83239	-5.69569	9.76404	1.62734	-15.45973	4.06835	-19.52808	22.78276	-55.32956	-112.28646	-93.57205	0
796	-3.25468	-12.20505	-4.88202	8.95037	0.81367	-13.01872	2.44101	-22.78276	19.52808	-52.07488	-109.84545	-91.13104	0
797	-2.44101	-11.39138	-5.69569	7.32303	1.62734	-11.39138	0	-26.03744	17.08707	-49.63387	-107.40444	-88.69003	0
798	-0.81367	-11.39138	-8.95037	5.69569	3.25468	-12.20505	-0.81367	-27.66478	16.2734	-48.00653	-104.96343	-85.43535	0
799	0.81367	-11.39138	-13.83239	3.25468	5.69569	-14.64606	-2.44101	-27.66478	16.2734	-46.37919	-102.52242	-82.18067	0
800	2.44101	-13.01872	-17.08707	2.44101	8.1367	-16.2734	-4.06835	-27.66478	17.90074	-46.37919	-100.89508	-80.55333	0
801	2.44101	-14.64606	-18.71441	4.06835	8.95037	-17.90074	-4.88202	-26.85111	19.52808	-45.56552	-99.26774	-78.11232	0
802	0.81367	-15.45973	-18.71441	5.69569	8.95037	-18.71441	-4.06835	-25.22377	21.96909	-44.75185	-97.6404	-75.67131	0
803	-0.81367	-15.45973	-19.52808	5.69569	6.50936	-17.90074	-0.81367	-24.4101	23.59643	-43.93818	-95.19939	-73.2303	0
804	-3.25468	-13.83239	-20.34175	2.44101	2.44101	-15.45973	1.62734	-24.4101	24.4101	-43.93818	-92.75838	-69.97562	0
805	-4.06835	-9.76404	-17.90074	0	0	-11.39138	4.06835	-23.59643	24.4101	-43.93818	-89.5037	-66.72094	0
806	-1.62734	-4.06835	-12.20505	-2.44101	-0.81367	-5.69569	7.32303	-21.96909	25.22377	-43.12451	-87.06269	-62.65259	0
807	0.81367	1.62734	-5.69569	-5.69569	0	0	11.39138	-18.71441	26.85111	-42.31084	-83.80801	-58.58424	0
808	4.88202	8.95037	0	-9.76404	0	4.88202	16.2734	-12.20505	30.10579	-39.86983	-78.92599	-53.70222	0
809	9.76404	14.64606	1.62734	-14.64606	1.62734	7.32303	21.15542	-5.69569	35.80148	-35.80148	-74.04397	-48.8202	0
810	13.01872	17.90074	3.25468	-17.08707	2.44101	8.95037	26.03744	0	43.12451	-30.91946	-69.16195	-44.75185	0
811	15.45973	20.34175	4.06835	-18.71441	3.25468	10.57771	30.91946	5.69569	50.44754	-26.85111	-65.0936	-40.6835	0
812	15.45973	22.78276	6.50936	-19.52808	3.25468	13.01872	35.80148	9.76404	56.9569	-23.59643	-61.83892	-37.42882	0
813	13.83239	25.22377	8.1367	-19.52808	0	16.2734	42.31084	12.20505	61.02525	-21.15542	-60.21158	-34.98781	0
814	10.57771	27.66478	8.1367	-17.90074	-3.25468	19.52808	48.00653	12.20505	62.65259	-20.34175	-59.39791	-33.36047	0
815	8.95037	30.10579	9.76404	-17.90074	-6.50936	21.96909	52.88855	11.39138	61.02525	-20.34175	-59.39791	-32.5468	0
816	8.95037	32.5468	13.01872	-19.52808	-7.32303	25.22377	56.14323	10.57771	58.58424	-22.78276	-59.39791	-31.73313	0
817	9.76404	33.36047	17.08707	-21.15542	-7.32303	26.85111	58.58424	9.76404	56.9569	-24.4101	-60.21158	-32.5468	0
818	7.32303	34.98781	19.52808	-21.15542	-5.69569	29.29212	58.58424	10.57771	56.9569	-24.4101	-59.39791	-32.5468	0
819	3.25468	38.24249	19.52808	-21.96909	-3.25468	33.36047	57.77057	15.45973	61.02525	-21.15542	-56.9569	-31.73313	0
820	5.69569	43.93818	20.34175	-26.03744	0	37.42882	56.9569	22.78276	69.16195	-14.64606	-51.26121	-30.10579	0
821	13.83239	50.44754	21.15542	-33.36047	1.62734	40.6835	56.9569	30.91946	78.92599	-8.1367	-45.56552	-26.85111	0
822	22.78276	57.77057	24.4101	-40.6835	2.44101	43.12451	56.14323	35.80148	87.06269	-2.44101	-39.86983	-25.22377	0
823	28.47845	65.0936	26.85111	-48.8202	0.81367	47.19286	52.88855	34.17414	91.13104	0.81367	-37.42882	-24.4101	0
824	31.73313	72.41663	29.29212	-56.9569	-3.25468	52.88855	47.19286	26.85111	91.13104	1.62734	-36.61515	-24.4101	0
825	33.36047	78.92599	34.17414	-63.46626	-7.32303	58.58424	38.24249	17.08707	87.06269	0	-35.80148	-24.4101	0
826	36.61515	86.24902	40.6835	-67.53461	-8.1367	65.0936	26.85111	6.50936	81.367	-2.44101	-35.80148	-25.22377	0
827	40.6835	92.75838	46.37919	-70.78929	-7.32303	70.78929	15.45973	-1.62734	75.67131	-5.69569	-36.61515	-25.22377	0
828	45.56552	99.26774	49.63387	-74.85764	-4.06835	74.85764	4.06835	-7.32303	73.2303	-6.50936	-35.80148	-25.22377	0
829	52.07488	102.52242	48.8202	-78.92599	0	74.04397	-5.69569	-10.57771	73.2303	-5.69569	-34.98781	-25.22377	0
830	56.9569	103.33609	44.75185	-81.367	4.06835	71.60296	-15.45973	-12.20505	74.04397	-4.88202	-34.17414	-26.03744	0
831	60.21158	101.70875	39.05616	-82.18067	8.95037	68.34828	-24.4101	-13.01872	76.48498	-4.06835	-32.5468	-28.47845	0
832	62.65259	96.82673	32.5468	-79.73966	13.83239	63.46626	-30.91946	-13.01872	78.92599	-4.06835	-32.5468	-30.10579	0
833	61.83892	89.5037	22.78276	-77.29865	16.2734	55.32956	-35.80148	-13.83239	79.73966	-5.69569	-32.5468	-33.36047	0
834	57.77057	78.11232	10.57771	-73.2303	17.08707	45.56552	-43.93818	-17.90074	78.11232	-8.1367	-34.98781	-35.80148	0
835	55.32956	66.72094	0	-68.34828	18.71441	35.80148	-54.51589	-25.22377	73.2303	-13.01872	-38.24249	-39.05616	0
836	53.70222	55.32956	-6.50936	-60.21158	23.59643	26.03744	-65.90727	-34.17414	65.90727	-18.71441	-41.49717	-42.31084	0
837	52.07488	46.37919	-11.39138	-53.70222	26.85111	17.90074	-74.85764	-43.12451	57.77057	-25.22377	-45.56552	-45.56552	0
838	50.44754	39.05616	-14.64606	-45.56552	30.10579	14.64606	-81.367	-50.44754	51.26121	-30.91946	-49.63387	-48.00653	0
839	48.8202	34.17414	-17.90074	-36.61515	31.73313	14.64606	-83.80801	-57.77057	44.75185	-35.80148	-52.88855	-51.26121	0
840	45.56552	29.29212	-20.34175	-30.10579	30.91946	12.20505	-83.80801	-62.65259	39.05616	-39.86983	-56.9569	-56.14323	0
841	41.49717	21.96909	-22.78276	-25.22377	30.91946	5.69569	-82.18067	-63.46626	35.80148	-42.31084	-59.39791	-60.21158	0
842	39.05616	14.64606	-27.66478	-21.96909	32.5468	-2.44101	-78.92599	-61.83892	36.61515	-42.31084	-60.21158	-62.65259	0
843	40.6835	8.1367	-33.36047	-21.96909	36.61515	-9.76404	-75.67131	-60.21158	39.86983	-39.05616	-59.39791	-62.65259	0
844	44.75185	3.25468	-38.24249	-22.78276	41.49717	-15.45973	-72.41663	-58.58424	41.49717	-36.61515	-57.77057	-62.65259	0
845	41.49717	-2.44101	-39.05616	-18.71441	40.6835	-18.71441	-69.16195	-56.14323	41.49717	-34.98781	-57.77057	-63.46626	0
846	26.03744	-13.83239	-34.98781	-6.50936	30.91946	-22.78276	-64.27993	-54.51589	39.05616	-36.61515	-61.02525	-67.53461	0
847	5.69569	-26.85111	-30.10579	9.76404	17.90074	-27.66478	-59.39791	-54.51589	34.17414	-42.31084	-66.72094	-74.04397	0
848	-11.39138	-40.6835	-23.59643	25.22377	7.32303	-32.5468	-54.51589	-54.51589	29.29212	-48.00653	-74.04397	-80.55333	0
849	-22.78276	-52.88855	-17.08707	35.80148	1.62734	-36.61515	-52.07488	-55.32956	24.4101	-54.51589	-80.55333	-87.06269	0
850	-29.29212	-62.65259	-17.90074	43.93818	0	-42.31084	-51.26121	-56.14323	21.15542	-58.58424	-86.24902	-92.75838	0
851	-31.73313	-70.78929	-25.22377	48.8202	1.62734	-49.63387	-48.8202	-56.14323	20.34175	-61.02525	-91.13104	-97.6404	0
852	-33.36047	-75.67131	-34.98781	53.70222	3.25468	-56.9569	-46.37919	-56.9569	18.71441	-63.46626	-94.38572	-102.52242	0
853	-34.98781	-80.55333	-40.6835	56.14323	3.25468	-61.02525	-43.12451	-61.02525	15.45973	-66.72094	-97.6404	-107.40444	0
854	-39.05616	-85.43535	-40.6835	56.9569	0.81367	-61.02525	-39.86983	-66.72094	9.76404	-70.78929	-100.89508	-111.47279	0
855	-40.6835	-88.69003	-39.86983	57.77057	0	-61.83892	-39.05616	-72.41663	4.06835	-74.85764	-103.33609	-114.72747	0
856	-40.6835	-88.69003	-43.12451	59.39791	0.81367	-63.46626	-39.86983	-75.67131	-0.81367	-77.29865	-104.96343	-116.35481	0
857	-38.24249	-87.87636	-46.37919	59.39791	3.25468	-65.0936	-41.49717	-75.67131	-4.06835	-78.92599	-104.96343	-117.16848	0
858	-34.98781	-87.06269	-50.44754	57.77057	6.50936	-67.53461	-42.31084	-73.2303	-4.88202	-77.29865	-102.52242	-115.54114	0
859	-30.91946	-85.43535	-55.32956	56.14323	10.57771	-71.60296	-42.31084	-68.34828	-2.44101	-74.85764	-99.26774	-113.10013	0
860	-27.66478	-84.62168	-59.39791	55.32956	13.01872	-74.04397	-41.49717	-63.46626	0.81367	-71.60296	-95.19939	-111.47279	0
861	-26.85111	-86.24902	-61.83892	55.32956	14.64606	-76.48498	-40.6835	-59.39791	5.69569	-69.16195	-91.94471	-109.84545	0
862	-27.66478	-88.69003	-63.46626	57.77057	15.45973	-78.11232	-39.05616	-56.14323	9.76404	-67.53461	-89.5037	-109.03178	0
863	-30.91946	-91.13104	-65.0936	61.83892	17.90074	-78.92599	-36.61515	-55.32956	11.39138	-67.53461	-87.87636	-109.84545	0
864	-36.61515	-93.57205	-65.90727	65.90727	20.34175	-78.92599	-34.17414	-56.14323	10.57771	-70.78929	-87.87636	-109.84545	0
865	-40.6835	-93.57205	-63.46626	68.34828	19.52808	-76.48498	-33.36047	-57.77057	7.32303	-75.67131	-87.87636	-109.03178	0
866	-43.12451	-92.75838	-58.58424	68.34828	14.64606	-74.04397	-33.36047	-60.21158	2.44101	-79.73966	-87.87636	-109.03178	0
867	-43.93818	-91.94471	-52.88855	67.53461	8.95037	-70.78929	-34.17414	-60.21158	0	-81.367	-86.24902	-107.40444	0
868	-43.12451	-91.13104	-51.26121	65.90727	5.69569	-70.78929	-34.98781	-58.58424	-1.62734	-79.73966	-82.99434	-104.96343	0
869	-41.49717	-91.13104	-52.07488	64.27993	4.88202	-72.41663	-35.80148	-56.14323	-1.62734	-75.67131	-79.73966	-103.33609	0
870	-39.86983	-92.75838	-53.70222	64.27993	4.88202	-74.85764	-36.61515	-52.88855	0	-69.97562	-75.67131	-102.52242	0
871	-40.6835	-95.19939	-55.32956	65.90727	4.88202	-76.48498	-34.98781	-49.63387	2.44101	-64.27993	-70.78929	-101.70875	0
872	-42.31084	-96.82673	-55.32956	69.16195	4.06835	-78.11232	-31.73313	-45.56552	3.25468	-61.02525	-66.72094	-100.89508	0
873	-42.31084	-99.26774	-56.14323	72.41663	4.88202	-78.92599	-26.85111	-42.31084	0.81367	-60.21158	-65.0936	-100.89508	0
874	-40.6835	-100.89508	-56.9569	77.29865	7.32303	-78.11232	-21.96909	-43.93818	-8.1367	-64.27993	-66.72094	-101.70875	0
875	-43.12451	-100.89508	-52.88855	80.55333	4.06835	-75.67131	-20.34175	-53.70222	-24.4101	-72.41663	-69.16195	-101.70875	0
876	-51.26121	-96.82673	-40.6835	81.367	-4.88202	-67.53461	-20.34175	-77.29865	-48.8202	-82.99434	-72.41663	-100.89508	0
877	-64.27993	-85.43535	-17.90074	78.92599	-22.78276	-50.44754	-22.78276	-119.60949	-81.367	-96.01306	-74.04397	-96.01306	0
878	-83.80801	-65.90727	17.90074	75.67131	-51.26121	-22.78276	-26.03744	-187.95777	-125.30518	-112.28646	-74.85764	-87.87636	0
879	-107.40444	-39.05616	66.72094	72.41663	-84.62168	12.20505	-31.73313	-284.7845	-183.07575	-131.00087	-73.2303	-75.67131	0
880	-126.93252	-8.95037	113.9138	65.90727	-110.65912	51.26121	-38.24249	-402.76665	-251.42403	-148.08794	-69.16195	-58.58424	0
881	-137.51023	24.4101	153.78363	54.51589	-133.44188	90.31737	-42.31084	-530.51284	-323.84066	-157.85198	-58.58424	-35.80148	0
882	-139.95124	61.02525	191.21245	38.24249	-157.03831	127.74619	-42.31084	-655.00435	-391.37527	-161.92033	-39.05616	-6.50936	0
883	-132.62821	103.33609	229.45494	13.83239	-175.75272	168.42969	-38.24249	-768.91815	-447.5185	-157.03831	-8.1367	30.10579	0
884	-118.79582	154.5973	270.95211	-17.90074	-192.02612	214.80888	-32.5468	-872.25424	-489.82934	-137.51023	36.61515	78.11232	0
885	-104.96343	217.24989	319.77231	-58.58424	-209.11319	270.95211	-28.47845	-975.59033	-524.00348	-105.7771	95.19939	138.3239	0
886	-84.62168	289.66652	372.66086	-104.96343	-226.20026	333.6047	-40.6835	-1105.77753	-574.45102	-76.48498	157.85198	206.67218	0
887	-52.88855	365.33783	421.48106	-156.22464	-237.59164	394.62995	-85.43535	-1296.17631	-671.27775	-73.2303	211.5542	272.57945	0
888	-18.71441	438.56813	462.97823	-208.29952	-244.101	450.77318	-167.61602	-1552.48236	-829.12973	-112.28646	244.101	330.35002	0
889	14.64606	510.17109	499.59338	-261.18807	-246.54201	503.66173	-282.34349	-1847.84457	-1034.17457	-187.95777	257.11972	378.35655	0
890	58.58424	588.28341	531.32651	-323.02699	-240.03265	557.36395	-425.54941	-2148.90247	-1252.23813	-279.08881	262.81541	424.73574	0
891	119.60949	664.76839	558.99129	-399.51197	-222.13191	616.76186	-601.30213	-2436.94165	-1450.77361	-359.64214	269.32477	470.30126	0
892	195.2808	727.42098	574.45102	-484.13365	-191.21245	671.27775	-807.16064	-2672.09228	-1598.86155	-414.15803	279.08881	510.98476	0
893	283.15716	774.61384	550.04092	-558.99129	-134.25555	690.80583	-1025.2242	-2818.55288	-1678.60121	-445.07749	292.10753	545.97257	0
894	371.84719	784.37788	463.7919	-602.92947	-45.56552	648.49499	-1213.18197	-2884.46015	-1691.61993	-467.04658	291.29386	556.55028	0
895	442.63648	735.55768	329.53635	-604.55681	56.14323	550.04092	-1337.67348	-2882.01914	-1650.12276	-481.69264	265.25642	527.25816	0
896	479.25163	646.86765	187.95777	-571.19634	145.64693	426.36308	-1399.5124	-2807.1615	-1561.43273	-481.69264	225.38659	470.30126	0
897	482.50631	544.34523	69.97562	-516.68045	205.85851	310.82194	-1402.76708	-2655.81888	-1429.61819	-458.09621	186.33043	404.39399	0
898	455.6552	450.77318	-4.88202	-454.02786	230.26861	222.94558	-1349.06486	-2441.82367	-1269.3252	-414.15803	156.22464	344.18241	0
899	406.835	375.10187	-35.80148	-390.5616	220.50457	166.80235	-1250.61079	-2185.51762	-1098.4545	-363.71049	133.44188	289.66652	0
900	347.43709	315.70396	-36.61515	-331.97736	190.39878	135.88289	-1122.05093	-1903.9878	-938.16151	-321.39965	108.21811	237.59164	0
901	286.41184	265.25642	-25.22377	-275.83413	153.78363	116.35481	-976.404	-1615.94862	-806.34697	-292.9212	74.85764	183.07575	0
902	227.01393	218.06356	-13.01872	-222.94558	118.79582	100.08141	-825.06138	-1338.48715	-705.45189	-275.83413	32.5468	124.49151	0
903	178.19373	174.12538	-2.44101	-176.56639	91.13104	82.18067	-679.41445	-1079.74009	-619.20287	-262.00174	-8.1367	69.97562	0
904	144.83326	134.25555	4.06835	-139.13757	75.67131	63.46626	-545.1589	-842.14845	-528.07183	-237.59164	-37.42882	25.22377	0
905	120.42316	102.52242	2.44101	-111.47279	65.90727	46.37919	-427.99042	-628.15324	-424.73574	-196.90814	-48.8202	-4.06835	0
906	101.70875	77.29865	-5.69569	-90.31737	60.21158	30.10579	-325.468	-439.3818	-313.26295	-142.39225	-44.75185	-20.34175	0
907	87.87636	56.9569	-18.71441	-73.2303	56.9569	15.45973	-238.40531	-276.6478	-201.79016	-82.99434	-31.73313	-28.47845	0
908	72.41663	36.61515	-30.10579	-55.32956	56.9569	0.81367	-165.17501	-139.13757	-100.08141	-26.03744	-16.2734	-34.17414	0
909	54.51589	16.2734	-38.24249	-37.42882	58.58424	-12.20505	-104.96343	-25.22377	-13.01872	20.34175	-4.88202	-40.6835	0
910	42.31084	-2.44101	-47.19286	-21.96909	60.21158	-26.85111	-58.58424	64.27993	53.70222	56.14323	1.62734	-47.19286	0
911	38.24249	-17.90074	-59.39791	-11.39138	61.02525	-39.86983	-23.59643	130.1872	103.33609	82.18067	6.50936	-52.88855	0
912	36.61515	-29.29212	-69.16195	-4.06835	60.21158	-50.44754	0	173.31171	135.06922	96.82673	7.32303	-58.58424	0
913	36.61515	-38.24249	-73.2303	0	60.21158	-56.14323	16.2734	199.34915	149.71528	101.70875	4.06835	-64.27993	0
914	38.24249	-45.56552	-69.16195	3.25468	60.21158	-56.9569	28.47845	213.18154	152.15629	100.08141	-0.81367	-69.97562	0
915	34.98781	-50.44754	-65.0936	7.32303	56.9569	-56.14323	36.61515	219.6909	146.4606	95.19939	-8.95037	-76.48498	0
916	26.85111	-54.51589	-64.27993	13.01872	51.26121	-57.77057	41.49717	220.50457	139.95124	89.5037	-15.45973	-81.367	0
917	18.71441	-57.77057	-65.0936	18.71441	44.75185	-60.21158	45.56552	219.6909	137.51023	87.06269	-19.52808	-83.80801	0
918	13.01872	-59.39791	-68.34828	21.96909	42.31084	-61.83892	48.00653	222.94558	140.76491	89.5037	-21.96909	-84.62168	0
919	11.39138	-61.83892	-73.2303	22.78276	41.49717	-62.65259	51.26121	229.45494	148.08794	94.38572	-21.96909	-82.99434	0
920	10.57771	-64.27993	-77.29865	24.4101	42.31084	-64.27993	54.51589	239.21898	157.03831	100.89508	-21.15542	-82.18067	0
921	10.57771	-66.72094	-80.55333	26.03744	43.12451	-69.16195	59.39791	249.79669	165.17501	106.59077	-21.15542	-82.18067	0
922	9.76404	-69.16195	-82.99434	28.47845	44.75185	-74.04397	64.27993	259.56073	171.68437	110.65912	-24.4101	-82.99434	0
923	7.32303	-71.60296	-84.62168	31.73313	43.12451	-77.29865	69.97562	266.88376	174.12538	112.28646	-27.66478	-84.62168	0
924	2.44101	-73.2303	-85.43535	34.98781	37.42882	-78.11232	74.85764	272.57945	172.49804	112.28646	-32.5468	-85.43535	0
925	0	-73.2303	-83.80801	36.61515	32.5468	-77.29865	78.11232	275.83413	169.24336	111.47279	-36.61515	-86.24902	0
926	-0.81367	-72.41663	-79.73966	35.80148	32.5468	-74.85764	79.73966	277.46147	164.36134	109.84545	-40.6835	-85.43535	0
927	0	-70.78929	-77.29865	34.17414	34.17414	-73.2303	80.55333	280.71615	159.47932	108.21811	-43.93818	-84.62168	0
928	3.25468	-69.97562	-77.29865	31.73313	37.42882	-74.04397	81.367	284.7845	155.41097	107.40444	-47.19286	-83.80801	0
929	6.50936	-69.97562	-79.73966	29.29212	41.49717	-75.67131	82.18067	289.66652	153.78363	108.21811	-49.63387	-83.80801	0
930	8.95037	-70.78929	-82.99434	28.47845	43.93818	-78.92599	82.18067	295.36221	152.96996	110.65912	-51.26121	-83.80801	0
931	10.57771	-72.41663	-84.62168	29.29212	46.37919	-79.73966	83.80801	301.0579	153.78363	113.10013	-52.88855	-82.99434	0
932	10.57771	-72.41663	-86.24902	29.29212	47.19286	-80.55333	86.24902	307.56726	156.22464	117.16848	-53.70222	-82.99434	0
933	9.76404	-72.41663	-87.87636	30.91946	46.37919	-81.367	89.5037	311.63561	157.85198	120.42316	-53.70222	-82.18067	0
934	7.32303	-71.60296	-89.5037	31.73313	40.6835	-79.73966	91.94471	314.07662	157.85198	122.0505	-54.51589	-81.367	0
935	5.69569	-69.16195	-87.87636	30.91946	37.42882	-77.29865	93.57205	315.70396	158.66565	123.67784	-55.32956	-80.55333	0
936	6.50936	-67.53461	-83.80801	29.29212	37.42882	-74.04397	93.57205	317.3313	161.10666	123.67784	-56.9569	-80.55333	0
937	8.95037	-65.0936	-80.55333	26.85111	39.05616	-71.60296	93.57205	320.58598	165.98868	123.67784	-59.39791	-80.55333	0
938	12.20505	-64.27993	-79.73966	24.4101	43.12451	-71.60296	92.75838	325.468	173.31171	124.49151	-62.65259	-82.18067	0
939	17.08707	-62.65259	-82.99434	21.15542	48.00653	-74.04397	91.94471	331.97736	183.07575	125.30518	-68.34828	-86.24902	0
940	21.15542	-62.65259	-86.24902	18.71441	51.26121	-75.67131	92.75838	339.30039	193.65346	125.30518	-75.67131	-91.13104	0
941	23.59643	-62.65259	-87.87636	17.90074	54.51589	-77.29865	93.57205	348.25076	205.04484	123.67784	-84.62168	-97.6404	0
942	25.22377	-62.65259	-89.5037	17.90074	56.14323	-78.11232	96.01306	356.38746	215.62255	122.0505	-93.57205	-104.96343	0
943	23.59643	-62.65259	-91.13104	18.71441	55.32956	-78.11232	98.45407	361.26948	223.75925	122.86417	-102.52242	-112.28646	0
944	21.15542	-61.02525	-91.94471	19.52808	49.63387	-76.48498	100.89508	364.52416	230.26861	125.30518	-111.47279	-119.60949	0
945	19.52808	-58.58424	-90.31737	18.71441	45.56552	-73.2303	101.70875	366.96517	235.15063	127.74619	-119.60949	-126.93252	0
946	20.34175	-55.32956	-86.24902	16.2734	45.56552	-69.97562	102.52242	370.21985	238.40531	131.00087	-126.11885	-132.62821	0
947	22.78276	-52.07488	-82.18067	13.01872	47.19286	-65.90727	104.14976	375.10187	243.28733	133.44188	-132.62821	-138.3239	0
948	26.85111	-48.8202	-80.55333	8.95037	51.26121	-62.65259	105.7771	382.4249	249.79669	135.88289	-139.13757	-143.20592	0
949	30.91946	-48.8202	-82.99434	6.50936	55.32956	-60.21158	107.40444	391.37527	256.30605	137.51023	-145.64693	-148.90161	0
950	33.36047	-50.44754	-86.24902	5.69569	57.77057	-61.02525	108.21811	400.32564	264.44275	139.95124	-152.15629	-155.41097	0
951	34.17414	-52.07488	-87.87636	6.50936	60.21158	-65.0936	109.03178	408.46234	271.76578	141.57858	-159.47932	-161.92033	0
952	33.36047	-53.70222	-89.5037	8.1367	61.02525	-68.34828	111.47279	416.59904	279.08881	144.01959	-166.80235	-167.61602	0
953	30.10579	-55.32956	-90.31737	11.39138	61.83892	-71.60296	113.9138	422.29473	284.7845	146.4606	-173.31171	-173.31171	0
954	26.03744	-54.51589	-89.5037	13.01872	63.46626	-71.60296	116.35481	427.17675	288.85285	148.08794	-179.82107	-178.19373	0
955	22.78276	-52.88855	-86.24902	13.01872	62.65259	-69.16195	119.60949	432.05877	291.29386	148.90161	-184.70309	-182.26208	0
956	23.59643	-48.8202	-81.367	11.39138	58.58424	-65.0936	122.0505	436.94079	293.73487	150.52895	-188.77144	-185.51676	0
957	25.22377	-45.56552	-77.29865	8.95037	55.32956	-61.02525	125.30518	442.63648	296.17588	152.15629	-192.02612	-188.77144	0
958	28.47845	-43.12451	-75.67131	5.69569	53.70222	-60.21158	127.74619	450.77318	301.0579	154.5973	-194.46713	-191.21245	0
959	31.73313	-42.31084	-77.29865	3.25468	54.51589	-61.02525	129.37353	459.72355	306.75359	158.66565	-196.09447	-193.65346	0
960	34.98781	-42.31084	-79.73966	1.62734	55.32956	-62.65259	131.81454	470.30126	313.26295	163.54767	-196.90814	-196.09447	0
961	35.80148	-43.12451	-81.367	1.62734	56.14323	-63.46626	135.06922	480.87897	321.39965	168.42969	-198.53548	-198.53548	0
962	34.98781	-43.93818	-81.367	3.25468	56.14323	-64.27993	139.13757	491.45668	327.90901	174.12538	-200.16282	-200.97649	0
963	31.73313	-43.93818	-80.55333	5.69569	52.88855	-63.46626	144.83326	499.59338	333.6047	178.19373	-201.79016	-203.4175	0
964	26.85111	-43.93818	-79.73966	7.32303	45.56552	-61.83892	149.71528	506.10274	336.85938	181.44841	-204.23117	-205.04484	0
965	24.4101	-40.6835	-76.48498	7.32303	41.49717	-58.58424	152.96996	511.79843	338.48672	183.88942	-206.67218	-205.04484	0
966	26.03744	-37.42882	-71.60296	4.06835	41.49717	-53.70222	156.22464	518.30779	339.30039	185.51676	-209.11319	-205.04484	0
967	28.47845	-32.5468	-68.34828	0.81367	43.93818	-49.63387	159.47932	525.63082	340.11406	187.1441	-211.5542	-204.23117	0
968	33.36047	-29.29212	-66.72094	-2.44101	47.19286	-48.00653	162.734	534.58119	342.55507	188.77144	-213.99521	-204.23117	0
969	37.42882	-26.03744	-67.53461	-6.50936	50.44754	-48.00653	165.17501	544.34523	346.62342	191.21245	-216.43622	-203.4175	0
970	39.05616	-24.4101	-68.34828	-8.1367	52.07488	-48.00653	168.42969	555.73661	353.13278	195.2808	-218.87723	-202.60383	0
971	39.05616	-23.59643	-66.72094	-8.1367	52.07488	-46.37919	173.31171	567.12799	359.64214	199.34915	-220.50457	-200.97649	0
972	38.24249	-22.78276	-63.46626	-8.1367	50.44754	-44.75185	179.0074	579.33304	365.33783	203.4175	-221.31824	-199.34915	0
973	34.98781	-21.96909	-61.83892	-6.50936	49.63387	-43.12451	185.51676	589.09708	370.21985	205.85851	-222.94558	-197.72181	0
974	29.29212	-20.34175	-58.58424	-4.88202	49.63387	-39.86983	191.21245	597.23378	372.66086	207.48585	-225.38659	-196.90814	0
975	26.03744	-17.08707	-54.51589	-5.69569	48.00653	-34.98781	196.90814	603.74314	373.47453	207.48585	-227.8276	-195.2808	0
976	26.03744	-13.01872	-48.00653	-7.32303	43.12451	-30.10579	200.97649	610.2525	371.84719	205.85851	-231.08228	-194.46713	0
977	27.66478	-8.95037	-42.31084	-9.76404	39.05616	-25.22377	205.04484	616.76186	370.21985	205.04484	-235.15063	-193.65346	0
978	29.29212	-5.69569	-39.05616	-13.01872	35.80148	-21.96909	209.11319	624.89856	369.40618	205.04484	-237.59164	-193.65346	0
979	32.5468	-2.44101	-38.24249	-16.2734	34.98781	-20.34175	213.99521	634.6626	370.21985	206.67218	-240.03265	-192.83979	0
980	34.17414	0	-36.61515	-18.71441	33.36047	-19.52808	218.06356	644.42664	372.66086	209.11319	-241.65999	-192.02612	0
981	34.17414	1.62734	-33.36047	-19.52808	31.73313	-16.2734	222.94558	653.37701	375.91554	211.5542	-241.65999	-190.39878	0
982	32.5468	4.88202	-29.29212	-20.34175	29.29212	-13.01872	227.8276	661.51371	379.17022	213.99521	-241.65999	-188.77144	0
983	29.29212	8.1367	-25.22377	-19.52808	28.47845	-8.95037	233.52329	667.2094	380.79756	215.62255	-240.84632	-186.33043	0
984	24.4101	13.01872	-20.34175	-19.52808	27.66478	-3.25468	238.40531	669.65041	379.17022	215.62255	-240.84632	-183.88942	0
985	21.96909	19.52808	-13.83239	-21.96909	25.22377	2.44101	242.47366	671.27775	375.91554	214.80888	-240.03265	-179.82107	0
986	21.96909	26.03744	-5.69569	-25.22377	20.34175	9.76404	245.72834	671.27775	370.21985	213.18154	-238.40531	-176.56639	0
987	22.78276	31.73313	1.62734	-28.47845	14.64606	17.08707	247.35568	671.27775	363.71049	211.5542	-236.77797	-173.31171	0
988	24.4101	36.61515	7.32303	-31.73313	9.76404	23.59643	248.16935	672.09142	358.0148	209.92686	-234.33696	-169.24336	0
989	26.03744	40.6835	10.57771	-34.98781	7.32303	30.10579	248.16935	672.09142	353.94645	209.11319	-231.08228	-164.36134	0
990	26.85111	43.93818	13.83239	-37.42882	4.06835	34.98781	248.16935	672.09142	349.8781	209.11319	-227.01393	-159.47932	0
991	25.22377	47.19286	18.71441	-37.42882	0.81367	38.24249	248.98302	671.27775	345.80975	208.29952	-222.13191	-154.5973	0
992	23.59643	50.44754	24.4101	-37.42882	-1.62734	39.86983	249.79669	668.02307	341.7414	206.67218	-217.24989	-148.90161	0
993	23.59643	53.70222	29.29212	-37.42882	-4.06835	42.31084	251.42403	661.51371	334.41837	203.4175	-213.18154	-143.20592	0
994	26.03744	57.77057	34.98781	-36.61515	-4.88202	47.19286	252.2377	653.37701	326.28167	199.34915	-209.11319	-136.69656	0
995	26.03744	63.46626	42.31084	-38.24249	-8.95037	52.88855	252.2377	643.61297	316.51763	195.2808	-205.85851	-129.37353	0
996	22.78276	69.16195	50.44754	-40.6835	-13.83239	59.39791	251.42403	632.22159	306.75359	190.39878	-201.79016	-121.23683	0
997	18.71441	74.04397	57.77057	-43.12451	-19.52808	66.72094	249.79669	620.83021	295.36221	184.70309	-198.53548	-113.10013	0
998	15.45973	78.92599	63.46626	-46.37919	-24.4101	70.78929	248.16935	610.2525	284.7845	179.82107	-195.2808	-104.96343	0
999	13.01872	82.18067	66.72094	-48.8202	-27.66478	73.2303	245.72834	598.86112	273.39312	174.12538	-192.02612	-96.82673	0
1000	10.57771	83.80801	69.16195	-49.63387	-30.10579	75.67131	242.47366	585.02873	262.81541	168.42969	-188.77144	-89.5037	0
1001	8.1367	85.43535	74.04397	-48.8202	-34.17414	78.92599	240.84632	569.569	251.42403	163.54767	-185.51676	-82.18067	0
1002	4.88202	87.87636	79.73966	-47.19286	-38.24249	84.62168	238.40531	552.48193	240.03265	157.85198	-183.07575	-74.85764	0
1003	0	91.13104	86.24902	-46.37919	-41.49717	93.57205	236.77797	532.95385	227.01393	151.34262	-179.82107	-67.53461	0
1004	-4.88202	96.82673	93.57205	-46.37919	-44.75185	101.70875	232.70962	510.17109	212.36787	144.01959	-177.38006	-60.21158	0
1005	-8.95037	103.33609	101.70875	-48.00653	-48.00653	109.03178	226.20026	484.94732	194.46713	135.88289	-174.12538	-53.70222	0
1006	-8.1367	109.84545	109.84545	-51.26121	-53.70222	113.9138	218.87723	458.90988	176.56639	127.74619	-171.68437	-47.19286	0
1007	-6.50936	115.54114	117.16848	-55.32956	-58.58424	118.79582	210.74053	432.87244	157.85198	118.79582	-170.05703	-41.49717	0
