82 82 79 76 73 61 52 40 25 13 4 -2 -9 -15 -18 -24 -24 -24 -24 -24 -24 -24 -27 -30 -30 -33 -33 -33 -33 -36 -36 -36 -36 -36 -39 -39 -39 -33 -33 -36 -36 -36 -36 -36 -36 -36 -36 -36 -36 -33 -33 -33 -30 -30 -30 -30 -27 -27 -27 -24 -27 -27 -27 -27 -24 -24 -24 -24 -24 -21 -21 -18 -12 -12 -21 13 13 -18 -33 -30 -6 46 85 133 214 289 304 316 274 244 211 190 199 166 154 172 217 286 277 271 253 235 208 169 136 142 124 94 91 118 106 91 76 67 55 46 37 28 25 19 13 13 10 10 10 10 10 7 7 7 7 7 7 7 7 7 13 13 13 13 13 13 16 16 10 10 10 10 13 16 16 16 19 22 19 19 16 13 10 10 10 10 13 16 19 25 25 25 25 22 22 19 19 16 13 10 10 10 10 10 10 10 10 10 10 7 4 -6 -6 -6 -6 -12 -15 -15 -18 -15 -12 -15 -18 -21 -24 -24 -24 -24 -27 -27 -27 -24 -24 -24 -24 -24 -18 -18 -18 -18 -18 -15 -12 -9 -9 -9 -9 -9 -9 -6 -6 -6 -6 -6 -6 -6 -6 -2 -2 -2 1 1 1 4 1 -2 -2 -6 -6 -6 -6 -6 -6 -2 -2 -2 1 -2 -2 1 1 1 4 7 4 4 7 1 1 -2 -2 -6 -6 -6 -9 -9 -9 -6 -6 -6 -2 4 4 4 7 4 4 4 7 4 4 10 16 22 28 31 34 40 40 40 40 40 40 40 40 40 43 46 55 64 70 76 82 85 88 85 79 70 61 52 40 28 16 10 4 -2 -9 -12 -18 -21 -18 -15 -18 -18 -15 -15 -15 -15 -15 -18 -18 -18 -18 -18 -18 -18 -18 -18 -18 -18 -18 -18 -15 -15 -15 -15 -15 -18 -21 -21 -21 -21 -21 -18 -15 -12 -9 -9 -12 -12 -18 -18 -18 -21 -21 -21 -18 -18 -12 -12 -9 -9 -9 -6 -2 -6 -15 16 31 16 -36 -33 7 37 109 163 223 253 268 259 241 190 133 118 130 139 112 148 217 214 235 235 229 199 163 148 115 100 82 73 70 82 94 70 55 52 43 31 28 22 19 16 16 10 10 10 10 10 10 10 10 10 10 7 1 -6 -6 -6 -9 -12 -12 -12 -9 -9 -12 -12 -12 -12 -12 -12 -15 -15 -15 -15 -15 -15 -15 -12 -12 -12 -12 -9 -9 -12 -12 -15 -15 -15 -15 -15 -15 -15 -15 -12 -9 -9 -9 -9 -12 -15 -15 -15 -15 -15 -12 -12 -12 -15 -15 -15 -15 -18 -21 -21 -21 -21 -24 -27 -30 -30 -30 -30 -33 -36 -39 -39 -36 -39 -42 -42 -42 -39 -39 -39 -42 -42 -42 -45 -48 -45 -42 -39 -39 -39 -39 -39 -39 -39 -39 -39 -42 -42 -42 -42 -39 -39 -42 -42 -45 -48 -48 -48 -48 -51 -54 -54 -54 -54 -51 -51 -54 -54 -54 -51 -51 -51 -54 -54 -54 -54 -57 -63 -63 -63 -66 -69 -69 -69 -72 -69 -72 -72 -72 -72 -75 -78 -78 -78 -81 -78 -78 -78 -78 -75 -75 -78 -78 -75 -72 -69 -66 -66 -63 -57 -51 -51 -54 -54 -57 -54 -54 -57 -57 -51 -48 -45 -45 -42 -39 -33 -27 -27 -24 -24 -24 -27 -30 -33 -42 -51 -60 -69 -75 -84 -87 -96 -99 -105 -105 -105 -105 -105 -105 -105 -105 -102 -102 -102 -105 -105 -105 -102 -105 -105 -105 -102 -102 -105 -105 -108 -105 -105 -105 -108 -111 -108 -105 -105 -105 -108 -108 -108 -108 -108 -105 -105 -105 -102 -99 -99 -99 -99 -96 -96 -96 -96 -96 -99 -96 -90 -90 -90 -87 -81 -75 -84 -63 -45 -51 -63 -78 -63 -36 4 52 97 151 196 205 175 127 67 49 49 49 37 16 67 100 133 121 109 97 82 28 7 22 -9 -12 -24 -21 28 -6 -33 -18 -21 -33 -39 -42 -48 -51 -48 -51 -51 -51 -48 -48 -48 -48 -48 -48 -51 -51 -51 -51 -51 -51 -48 -45 -42 -42 -42 -42 -45 -51 -51 -51 -51 -51 -51 -48 -45 -42 -42 -42 -42 -42 -39 -39 -42 -42 -39 -39 -39 -36 -36 -36 -36 -33 -33 -33 -27 -27 -24 -27 -27 -24 -24 -24 -24 -24 -24 -21 -21 -21 -24 -24 -27 -27 -27 -30 -33 -36 -36 -36 -36 -39 -42 -42 -45 -42 -45 -45 -45 -48 -48 -48 -45 -48 -48 -48 -48 -42 -39 -36 -36 -33 -30 -27 -27 -27 -27 -27 -27 -30 -33 -33 -33 -33 -33 -33 -33 -33 -33 -30 -30 -30 -30 -30 -30 -30 -30 -30 -30 -30 -30 -30 -30 -30 -30 -30 -33 -33 -30 -30 -33 -30 -30 -30 -27 -27 -24 -24 -24 -24 -24 -24 -27 -27 -33 -33 -33 -33 -30 -30 -30 -30 -30 -27 -27 -27 -27 -27 -24 -24 -24 -24 -21 -21 -21 -15 -15 -9 -6 -6 -6 1 4 4 4 4 4 4 4 4 4 7 10 19 25 34 40 46 46 46 46 40 37 28 22 10 -2 -6 -15 -24 -33 -39 -45 -45 -45 -42 -39 -39 -36 -39 -42 -42 -42 -45 -48 -48 -48 -48 -42 -39 -39 -42 -42 -42 -42 -42 -42 -45 -45 -45 -42 -42 -42 -42 -39 -39 -39 -36 -36 -36 -36 -36 -36 -36 -36 -42 -42 -42 -36 -33 -33 -33 -30 -27 -27 -27 -30 -30 -30 -24 -21 -18 -36 7 25 1 -24 -36 -6 46 85 124 181 244 292 316 244 199 157 163 160 157 118 121 172 223 229 217 205 190 166 127 112 103 100 64 76 94 100 88 64 58 46 37 28 19 10 4 1 1 1 1 1 1 1 -2 1 4 1 -2 -2 -6 -6 -2 -2 -2 -2 -2 1 1 1 4 4 4 4 4 4 4 4 4 4 1 1 1 -2 -2 -2 -6 -6 -6 -6 -6 -2 -2 -2 -6 -2 -6 -6 -2 -2 1 1 1 1 1 1 1 1 -6 -6 -6 -12 -15 -15 -15 -18 -21 -24 -24 -24 -27 -27 -30 -33 -36 -39 -39 -39 -39 -39 -42 -45 -45 -45 -45 -45 -45 -45 -42 -36 -39 -39 -39 -39 -39 -36 -33 -33 -33 -27 -24 -24 -27 -27 -27 -27 -30 -30 -30 -33 -30 -27 -30 -30 -33 -36 -36 -33 -33 -33 -30 -30 -30 -27 -27 -27 -27 -24 -24 -24 -24 -27 -27 -24 -24 -27 -30 -27 -27 -27 -27 -27 -30 -30 -27 -27 -27 -27 -27 -30 -33 -36 -36 -36 -33 -36 -36 -33 -33 -33 -30 -30 -33 -33 -33 -33 -33 -30 -27 -27 -27 -27 -27 -27 -27 -21 -18 -15 -9 -2 1 4 7 7 13 16 16 16 16 22 25 22 25 22 25 28 37 43 52 58 61 64 61 55 49 37 22 10 1 -6 -12 -18 -27 -30 -30 -33 -33 -33 -33 -36 -33 -33 -33 -36 -36 -39 -39 -42 -42 -45 -45 -45 -45 -45 -48 -51 -51 -48 -48 -48 -51 -51 -48 -42 -42 -42 -42 -45 -45 -45 -48 -48 -48 -42 -45 -45 -45 -42 -39 -36 -36 -36 -36 -36 -36 -36 -36 -36 -39 -39 -39 -36 -36 -42 -24 -21 -27 -57 -48 -12 -6 73 124 193 244 292 280 256 223 184 172 178 181 142 190 247 256 265 256 241 223 187 142 115 124 112 76 82 97 82 67 58 49 40 28 19 10 4 -2 -6 -6 -6 -9 -9 -9 -9 -9 -9 -9 -9 -6 -6 -6 -6 -6 -6 -6 -6 -9 -9 -12 -12 -12 -12 -9 -9 -9 -6 -6 -6 -6 -6 -6 -6 -6 -6 -6 -6 -6 -6 -6 -6 -6 -6 -2 -2 -2 -2 -2 -6 -6 -9 -9 -9 -9 -6 -6 -6 -6 -6 -12 -15 -18 -21 -24 -27 -30 -30 -30 -33 -33 -33 -39 -42 -48 -48 -51 -51 -54 -57 -57 -57 -54 -54 -51 -51 -51 -51 -51 -45 -45 -42 -42 -42 -36 -36 -33 -30 -30 -27 -27 -27 -27 -27 -21 -21 -21 -21 -21 -18 -18 -15 -15 -18 -18 -15 -15 -18 -18 -18 -18 -18 -18 -18 -18 -18 -15 -15 -12 -12 -12 -12 -12 -12 -12 -9 -12 -12 -12 -12 -12 -12 -12 -9 -9 -9 -9 -9 -9 -12 -12 -15 -15 -15 -18 -21 -21 -21 -21 -18 -18 -15 -15 -12 -9 -12 -12 -12 -12 -12 -12 -12 -12 -12 -9 -9 -9 -6 -6 -2 1 4 7 13 16 22 28 34 37 40 43 43 43 40 40 40 46 46 49 55 61 73 82 88 91 91 91 91 88 79 73 64 52 43 40 34 25 19 13 7 4 -2 -2 -2 -2 -6 -6 -6 -6 -6 -6 -6 -9 -12 -12 -12 -12 -15 -18 -18 -18 -18 -18 -18 -15 -15 -15 -15 -18 -18 -15 -12 -12 -12 -12 -9 -6 -6 -6 -9 -9 -9 -9 -9 -9 -6 -6 -6 -9 -9 -6 -6 -6 -6 -6 -6 -2 1 1 -15 7 19 -2 -33 -21 4 37 88 139 190 271 325 322 292 265 217 211 250 217 181 190 235 298 307 283 298 280 226 193 154 172 148 88 118 121 106 88 91 82 70 61 55 49 40 31 31 31 31 31 31 31 31 31 31 25 25 25 25 28 28 28 28 34 34 34 34 31 31 34 37 34 37 37 37 40 37 37 37 37 37 37 37 37 37 40 43 43 46 49 52 55 55 55 52 52 52 49 49 46 46 46 49 49 49 49 49 46 46 46 40 37 37 37 34 34 34 31 31 28 28 28 28 28 28 25 25 25 19 19 19 16 16 16 16 16 16 19 22 22 22 28 31 34 37 40 46 46 46 46 43 43 43 43 43 43 49 52 52 52 49 46 46 49 49 49 49 49 52 55 55 55 55 55 58 58 58 58 58 58 58 61 61 64 64 64 64 64 64 67 67 64 61 58 58 61 58 58 58 58 58 64 64 61 64 64 64 61 58 58 58 58 52 52 52 52 58 58 58 58 61 61 67 67 67 67 67 67 67 70 70 73 76 82 88 91 94 100 100 100 100 97 97 97 100 103 103 109 112 115 121 124 130 130 130 133 127 124 115 109 100 91 79 70 61 52 46 40 34 28 28 25 25 22 22 25 25 28 28 25 22 22 19 16 16 13 13 13 10 7 4 4 4 1 1 -2 -6 -6 -6 -6 -6 -6 -12 -12 -12 -12 -9 -12 -15 -15 -15 -15 -15 -15 -18 -18 -15 -15 -15 -15 -15 -15 -15 -12 -12 -12 -9 -21 -12 10 10 1 -42 -15 -2 28 91 127 190 229 253 250 202 148 127 103 127 118 91 139 160 187 205 211 202 187 151 118 85 76 94 55 67 40 55 58 52 34 31 28 22 16 13 7 7 7 4 4 1 1 -2 -2 4 4 4 4 7 7 10 10 13 13 13 19 22 28 28 28 28 31 34 37 37 40 43 49 52 55 58 58 64 70 70 76 79 79 79 82 82 85 88 88 91 94 100 106 106 109 112 112 115 115 118 118 124 127 127 127 130 136 136 139 142 145 145 145 148 148 151 154 151 151 151 157 160 163 166 166 172 178 184 187 193 196 199 205 208 208 211 214 220 223 229 232 238 241 250 256 259 259 265 268 274 280 280 286 289 292 298 301 304 307 313 319 322 325 331 337 340 343 349 352 358 364 367 370 379 382 388 394 397 400 406 409 412 415 421 421 424 427 430 436 445 448 451 454 457 460 469 472 475 478 481 490 496 502 508 511 517 523 529 535 538 541 547 553 556 562 565 571 580 586 589 598 607 619 625 637 643 649 658 664 667 670 679 685 688 697 703 709 718 730 739 745 757 766 772 778 772 766 754 745 727 706 682 658 637 616 592 574 550 532 517 505 496 481 469 457 442 433 421 409 391 376 361 349 340 331 319 310 304 295 289 283 274 268 259 253 244 235 229 223 211 205 196 190 184 178 169 160 154 148 139 130 121 109 100 94 85 73 64 58 49 40 31 19 13 7 1 -6 -6 -2 -15 -45 -69 -57 -45 -30 25 73 100 136 151 136 100 40 -30 -27 -30 -66 -90 -75 -54 -2 -18 -33 -12 -60 -108 -153 -180 -201 -195 -213 -246 -222 -222 -225 -243 -264 -276 -288 -300 -312 -324 -333 -339 -345 -351 -357 -363 -372 -375 -381 -384 -390 -393 -399 -402 -405 -408 -411 -414 -417 -423 -423 -426 -432 -435 -438 -441 -441 -441 -444 -447 -450 -450 -450 -450 -453 -456 -459 -459 -459 -462 -465 -465 -465 -465 -468 -468 -468 -471 -471 -471 -471 -471 -474 -474 -474 -471 -471 -474 -474 -474 -474 -477 -480 -480 -483 -483 -483 -486 -489 -489 -489 -489 -489 -489 -492 -492 -492 -495 -495 -495 -498 -495 -495 -495 -495 -492 -492 -489 -486 -486 -486 -486 -486 -483 -477 -474 -468 -465 -462 -459 -456 -450 -450 -447 -447 -444 -441 -438 -429 -429 -429 -426 -426 -426 -426 -426 -426 -426 -429 -420 -417 -411 -405 -402 -399 -396 -390 -387 -390 -390 -390 -387 -387 -384 -384 -378 -375 -369 -369 -366 -363 -360 -357 -357 -357 -357 -357 -354 -351 -351 -351 -351 -345 -342 -342 -342 -339 -339 -336 -330 -330 -330 -330 -327 -324 -324 -321 -318 -318 -318 -309 -309 -306 -303 -300 -297 -294 -288 -285 -282 -276 -270 -264 -261 -255 -249 -240 -234 -231 -228 -222 -219 -213 -207 -207 -207 -201 -195 -192 -189 -183 -177 -168 -159 -153 -150 -147 -141 -141 -144 -147 -153 -159 -165 -171 -180 -189 -192 -195 -201 -204 -204 -204 -204 -201 -198 -198 -195 -192 -192 -195 -195 -195 -195 -198 -198 -198 -198 -198 -198 -198 -198 -195 -192 -192 -192 -192 -195 -192 -189 -189 -186 -189 -189 -186 -183 -183 -183 -183 -180 -177 -177 -177 -180 -174 -174 -174 -171 -171 -171 -168 -165 -165 -165 -165 -168 -168 -165 -165 -183 -162 -153 -156 -165 -183 -168 -153 -105 -51 7 25 127 145 118 112 55 25 7 34 -18 -57 -12 52 64 97 73 73 28 -18 -57 -45 -45 -72 -102 -84 -63 -69 -87 -96 -105 -114 -123 -132 -138 -144 -147 -147 -150 -153 -153 -153 -150 -153 -153 -153 -153 -156 -156 -156 -153 -150 -150 -150 -147 -144 -138 -138 -141 -141 -141 -144 -144 -141 -138 -135 -132 -132 -129 -126 -123 -123 -126 -126 -126 -126 -120 -120 -120 -114 -114 -114 -111 -114 -114 -114 -114 -117 -117 -117 -117 -114 -114 -114 -114 -111 -111 -111 -111 -111 -111 -111 -114 -117 -117 -117 -120 -123 -123 -123 -123 -123 -126 -126 -126 -126 -126 -129 -132 -132 -135 -135 -135 -132 -132 -132 -126 -123 -120 -120 -120 -120 -120 -117 -117 -117 -111 -108 -108 -105 -105 -102 -99 -96 -96 -96 -93 -93 -93 -93 -90 -90 -93 -93 -93 -93 -90 -90 -90 -90 -87 -87 -87 -87 -84 -84 -84 -81 -78 -78 -78 -75 -75 -75 -75 -78 -78 -78 -72 -72 -75 -78 -78 -72 -72 -72 -72 -72 -72 -72 -69 -69 -69 -69 -69 -69 -69 -69 -63 -60 -60 -60 -63 -63 -63 -63 -66 -66 -66 -66 -66 -63 -60 -57 -57 -57 -57 -54 -51 -48 -45 -42 -39 -33 -27 -24 -24 -15 -15 -15 -9 -6 -6 -2 4 7 7 10 16 19 25 31 37 43 46 49 46 46 43 37 28 16 7 -2 -9 -15 -24 -30 -33 -36 -36 -39 -39 -36 -36 -36 -36 -39 -39 -39 -39 -39 -42 -42 -45 -45 -45 -45 -48 -51 -48 -45 -45 -48 -48 -48 -42 -39 -39 -39 -39 -33 -33 -33 -33 -33 -36 -36 -36 -36 -36 -36 -36 -36 -33 -33 -33 -36 -36 -33 -33 -30 -30 -33 -33 -30 -27 -27 -39 -39 -6 -36 -48 -63 -24 22 73 118 208 259 289 283 250 238 211 202 229 208 151 184 229 265 271 256 199 241 175 151 148 136 121 103 76 109 100 91 64 55 43 34 22 16 7 1 -2 -2 -2 -2 -2 -2 -6 -6 -2 -2 -6 -6 -6 -6 -6 -6 -2 -2 -2 -2 1 1 1 1 4 4 4 4 4 4 4 4 4 1 1 4 4 4 4 4 4 7 13 10 10 13 13 13 10 7 4 4 4 4 4 4 4 7 7 7 4 4 1 -2 -6 -6 -9 -12 -15 -15 -18 -21 -24 -27 -30 -33 -33 -33 -33 -36 -36 -36 -36 -36 -39 -42 -42 -42 -39 -39 -39 -39 -36 -33 -30 -30 -27 -27 -24 -18 -18 -15 -15 -15 -12 -12 -9 -9 -6 -6 -6 -6 -6 -6 -6 -6 -6 -6 -9 -9 -9 -9 -9 -6 -6 -9 -9 -6 -6 -6 -2 -2 -2 -2 -2 -2 -2 -2 -2 -6 -6 -2 4 4 1 1 -2 -2 -2 -2 -2 -6 -6 -6 -6 -6 -2 -2 -2 -6 -6 -6 -6 -2 -9 -12 -12 -9 -9 -9 -6 -6 -6 -2 -2 -6 -6 -6 -2 -2 1 4 4 4 4 1 -2 4 4 13 16 25 31 40 49 52 52 52 52 52 52 52 52 55 58 61 67 73 79 85 88 91 94 91 88 82 79 73 64 55 43 34 28 22 19 10 7 7 7 10 10 10 10 10 13 13 10 10 7 4 1 4 4 4 7 7 7 10 13 13 13 13 16 16 16 16 19 19 19 22 22 19 19 19 22 22 25 25 25 28 31 31 31 31 34 37 37 37 43 46 49 49 52 55 55 40 73 79 43 34 52 76 106 163 220 283 316 334 343 319 256 196 211 241 238 211 229 277 322 337 319 316 292 268 229 199 187 178 190 169 166 178 169 154 148 142 136 130 127 124 124 118 118 118 118 118 121 121 121 124 124 124 124 124 127 130 130 133 133 136 139 139 139 136 136 142 145 145 148 148 154 160 163 163 163 166 166 166 166 166 166 166 169 172 172 175 178 181 181 184 184 184 184 184 184 187 187 190 187 187 190 190 190 190 190 190 193 196 196 193 193 193 193 193 193 193 193 193 193 190 187 187 187 187 190 190 190 193 196 199 199 205 205 208 208 208 211 211 211 211 211 214 214 217 217 220 226 226 229 232 232 232 235 238 238 238 235 238 238 235 229 220 208 199 193 184 172 163 157 157 151 148 145 139 136 130 127 124 118 118 118 118 118 115 115 112 112 112 106 103 103 103 100 103 100 94 94 94 94 91 88 88 82 82 82 82 79 73 70 70 70 70 70 70 70 70 70 70 61 55 49 40 31 22 13 7 4 1 -2 -6 -6 -6 -6 -9 -9 -12 -15 -15 -15 -18 -21 -24 -24 -18 -18 -18 -21 -27 -33 -39 -48 -60 -72 -87 -102 -111 -120 -129 -138 -147 -156 -162 -165 -165 -165 -168 -168 -168 -171 -174 -180 -183 -189 -192 -198 -201 -207 -210 -213 -219 -219 -225 -225 -225 -228 -231 -231 -234 -234 -237 -237 -237 -240 -243 -246 -243 -243 -243 -246 -249 -252 -252 -252 -249 -252 -252 -255 -258 -258 -261 -258 -258 -258 -255 -252 -249 -246 -240 -237 -240 -243 -219 -207 -240 -252 -267 -243 -186 -150 -90 -42 -12 10 -12 -48 -90 -150 -156 -117 -159 -174 -135 -108 -54 -42 -60 -66 -105 -111 -174 -165 -153 -159 -204 -183 -171 -156 -168 -177 -177 -183 -189 -192 -195 -201 -204 -204 -207 -210 -210 -207 -207 -204 -201 -198 -198 -192 -189 -189 -189 -189 -189 -189 -189 -189 -189 -189 -189 -186 -183 -183 -180 -177 -171 -168 -165 -162 -162 -159 -156 -153 -153 -150 -147 -147 -144 -141 -141 -141 -138 -138 -138 -138 -135 -135 -132 -132 -129 -129 -129 -126 -126 -123 -123 -123 -126 -126 -123 -123 -117 -120 -120 -123 -120 -120 -120 -120 -123 -123 -123 -123 -123 -123 -123 -123 -123 -123 -126 -126 -123 -123 -123 -123 -123 -117 -111 -108 -108 -102 -102 -102 -99 -96 -96 -93 -93 -93 -90 -90 -87 -84 -81 -81 -81 -78 -78 -78 -75 -75 -78 -81 -78 -78 -78 -81 -81 -81 -78 -75 -75 -78 -81 -81 -81 -84 -84 -81 -78 -75 -69 -66 -66 -60 -54 -57 -57 -57 -60 -60 -63 -63 -66 -66 -63 -63 -63 -63 -60 -60 -60 -60 -63 -66 -69 -69 -69 -69 -69 -66 -63 -60 -57 -54 -54 -54 -54 -54 -54 -54 -54 -54 -54 -54 -51 -51 -45 -42 -39 -33 -30 -27 -27 -24 -24 -24 -21 -21 -18 -15 -12 -9 -9 -6 1 4 10 16 19 19 19 19 13 7 -2 -9 -21 -27 -33 -45 -51 -57 -60 -63 -69 -69 -69 -69 -69 -69 -69 -69 -69 -66 -66 -69 -69 -72 -72 -72 -72 -72 -72 -72 -75 -75 -75 -75 -75 -75 -78 -78 -78 -78 -78 -78 -78 -78 -78 -75 -75 -78 -78 -78 -78 -78 -78 -78 -78 -78 -84 -84 -81 -81 -81 -81 -78 -78 -75 -69 -66 -63 -69 -48 -39 -54 -78 -69 -48 -45 -15 73 136 175 223 235 190 139 94 85 73 70 22 46 97 130 145 118 121 109 79 37 -6 19 13 -36 -33 -15 13 19 -15 -21 -27 -36 -42 -48 -51 -54 -54 -54 -51 -54 -54 -54 -54 -54 -54 -54 -54 -57 -57 -57 -57 -57 -60 -60 -60 -57 -54 -54 -54 -54 -51 -51 -51 -51 -48 -48 -51 -51 -45 -45 -45 -45 -45 -45 -39 -36 -36 -36 -36 -36 -36 -36 -33 -33 -33 -33 -33 -30 -30 -30 -30 -33 -33 -36 -36 -36 -36 -36 -39 -39 -39 -39 -42 -42 -42 -45 -45 -48 -48 -51 -51 -54 -60 -63 -66 -66 -69 -72 -72 -72 -69 -66 -63 -63 -63 -60 -54 -54 -54 -54 -57 -57 -54 -51 -51 -54 -48 -48 -48 -45 -45 -45 -45 -45 -45 -45 -48 -48 -48 -48 -48 -48 -48 -51 -51 -48 -51 -48 -48 -51 -51 -54 -57 -57 -54 -54 -54 -54 -54 -51 -45 -45 -45 -45 -45 -45 -45 -45 -42 -42 -42 -42 -42 -42 -42 -39 -39 -39 -39 -42 -42 -45 -45 -45 -48 -51 -54 -54 -54 -54 -54 -54 -51 -51 -48 -48 -48 -48 -48 -48 -51 -54 -54 -51 -45 -45 -45 -42 -36 -36 -33 -30 -30 -30 -24 -21 -18 -12 -6 -6 1 1 1 4 4 4 1 1 4 4 7 13 16 19 25 31 40 46 52 52 49 46 43 37 28 13 1 -9 -15 -21 -30 -36 -42 -45 -45 -45 -45 -45 -45 -45 -45 -45 -48 -54 -60 -63 -63 -63 -63 -66 -69 -69 -66 -66 -66 -69 -72 -72 -72 -72 -72 -72 -72 -72 -72 -72 -72 -72 -69 -69 -69 -66 -63 -63 -60 -60 -60 -57 -54 -54 -54 -51 -48 -45 -45 -45 -48 -48 -45 -42 -36 -36 -27 -21 -15 -39 -51 -48 1 52 97 157 235 274 298 295 271 223 211 232 235 208 187 250 268 292 343 310 295 265 235 169 190 214 184 154 169 187 181 148 139 127 115 103 91 85 79 76 76 76 76 73 73 73 70 70 67 67 64 64 61 64 64 64 61 61 61 58 55 55 52 52 52 52 52 52 52 52 55 55 55 55 55 58 58 58 58 58 58 58 61 61 58 58 58 58 55 52 49 43 43 43 43 40 37 37 34 31 31 28 25 22 16 13 13 10 10 10 4 1 -6 -6 -6 -9 -15 -18 -21 -27 -27 -27 -33 -33 -30 -30 -33 -30 -27 -30 -30 -27 -30 -30 -30 -27 -27 -24 -21 -18 -18 -18 -15 -15 -15 -12 -12 -12 -12 -9 -6 -6 -2 -2 -2 -2 -2 -2 -2 -2 -2 -2 -2 -2 -2 -2 1 -2 -2 1 -2 -2 -2 1 1 -2 -2 -2 1 4 4 4 4 4 4 4 4 4 4 4 1 1 1 -2 -2 -2 -6 -6 -6 -6 -6 -9 -12 -18 -18 -18 -27 -39 -57 -72 -87 -105 -120 -138 -156 -168 -180 -189 -198 -207 -219 -237 -255 -246 -294 -327 -342 -369 -402 -444 -495 -525 -561 -582 -618 -657 -681 -738 -789 -831 -840 -834 -825 -807 -771 -783 -813 -855 -813 -777 -750 -753 -786 -816 -807 -774 -741 -708 -681 -645 -636 -606 -537 -495 -501 -492 -465 -414 -381 -351 -315 -258 -255 -165 -141 -111 -87 -57 -48 -9 16 40 67 91 115 133 160 196 184 187 193 202 205 211 220 220 229 238 241 247 253 259 265 271 274 280 286 295 301 307 316 325 334 343 352 361 370 379 388 397 403 412 421 427 436 445 457 469 481 493 505 517 529 535 547 559 568 577 583 592 598 607 616 622 628 634 637 643 646 646 646 646 646 649 649 649 643 637 637 631 619 610 595 583 571 562 550 541 532 520 508 496 481 463 445 424 406 388 370 352 331 313 295 280 265 247 232 220 208 193 184 178 166 154 145 136 127 115 106 91 88 79 76 67 61 58 55 55 52 43 43 43 40 40 34 34 34 31 28 25 25 25 25 22 22 22 25 25 25 25 25 25 28 28 28 25 25 25 25 25 25 22 22 22 19 19 16 16 16 22 22 19 19 19 19 22 22 19 19 19 19 19 19 19 16 13 13 13 13 13 13 13 13 16 19 16 16 10 7 4 4 1 1 -2 -2 1 1 4 4 1 -6 -6 -6 -9 -12 -18 -18 -18 -21 -21 -21 -21 -21 -21 -21 -21 -21 -21 -21 -21 -24 -27 -27 -27 -30 -30 -33 -36 -36 -36 -36 -36 -33 -30 -30 -27 -27 -27 -21 -21 -18 -21 -18 -18 -15 -12 -12 -15 -15 -9 -9 -9 -12 -12 -12 -6 -6 -6 -6 -2 1 1 1 1 4 7 10 13 16 22 28 31 34 40 40 40 46 46 43 43 49 52 55 61 64 64 73 79 88 97 103 109 109 109 109 103 97 82 70 61 52 43 37 34 31 31 31 31 31 31 34 34 34 34 37 37 37 37 37 37 40 40 40 40 40 40 40 40 34 37 37 37 34 34 37 37 40 40 40 40 46 46 49 49 49 52 55 55 58 58 55 52 52 52 49 49 49 49 49 49 52 55 61 55 73 91 85 70 49 25 55 79 100 151 202 259 283 253 217 178 145 157 154 121 118 166 211 187 208 205 199 142 79 67 61 25 -15 -12 16 16 25 40 13 10 4 -2 -9 -18 -24 -33 -36 -42 -42 -45 -45 -45 -45 -45 -45 -48 -51 -51 -51 -54 -54 -54 -57 -57 -60 -57 -54 -57 -57 -63 -63 -66 -66 -66 -75 -78 -78 -81 103 100 88 82 70 58 43 31 16 4 -8 -17 -23 -26 -26 -29 -29 -33 -33 -39 -45 -54 -57 -60 -63 -66 -66 -66 -66 -66 -63 -63 -66 -69 -72 -75 -75 -75 -75 -78 -78 -78 -75 -75 -75 -75 -75 -75 -75 -72 -72 -72 -72 -72 -75 -78 -78 -81 -81 -81 -81 -78 -78 -75 -78 -78 -84 -84 -90 -96 -105 -120 -138 -159 -180 -207 -249 -306 -318 -300 -270 -165 -23 169 358 466 517 685 868 1057 1177 1210 1252 1237 1243 1159 1039 934 805 649 460 298 238 157 58 -42 -111 -144 -141 -105 -96 -60 -72 -63 -57 -51 -51 -51 -48 -48 -48 -48 -48 -48 -48 -48 -51 -54 -57 -57 -57 -57 -60 -60 -60 -60 -54 -51 -51 -54 -57 -57 -57 -57 -60 -60 -60 -60 -60 -57 -54 -60 -63 -60 -60 -60 -60 -63 -63 -66 -63 -60 -63 -63 -60 -57 -57 -54 -57 -60 -60 -60 -63 -66 -72 -75 -75 -75 -72 -72 -75 -75 -75 -75 -78 -78 -81 -87 -87 -87 -87 -90 -90 -90 -90 -87 -84 -81 -81 -84 -84 -84 -87 -90 -93 -93 -90 -87 -81 -75 -66 -60 -51 -45 -42 -42 -39 -33 -33 -26 -23 -20 -17 -11 -5 -2 1 1 1 4 7 4 1 4 4 4 4 4 4 10 10 7 7 4 1 4 7 7 10 16 22 25 28 28 28 31 31 31 31 31 28 28 22 19 16 13 13 10 7 10 13 16 19 28 31 37 43 52 58 61 67 67 67 73 73 73 79 85 88 94 103 109 112 121 130 133 136 139 142 142 142 142 142 142 142 142 136 136 133 127 121 109 97 85 70 58 43 31 19 10 4 -5 -11 -14 -17 -23 -23 -29 -33 -36 -36 -39 -45 -45 -48 -54 -54 -51 -48 -51 -48 -51 -51 -51 -51 -48 -48 -48 -48 -51 -51 -48 -51 -54 -60 -60 -60 -54 -51 -51 -51 -48 -45 -45 -45 -51 -57 -57 -57 -63 -66 -72 -78 -81 -84 -84 -87 -96 -108 -123 -138 -147 -195 -222 -243 -306 -324 -318 -261 -156 22 241 439 493 598 736 922 1087 1156 1189 1222 1225 1213 1162 1069 916 805 679 472 343 256 196 94 -14 -84 -117 -129 -120 -102 -93 -81 -72 -69 -66 -63 -63 -63 -66 -66 -69 -69 -69 -66 -66 -66 -66 -63 -66 -66 -69 -75 -78 -78 -78 -75 -72 -72 -72 -72 -72 -75 -78 -81 -84 -84 -87 -84 -81 -84 -87 -87 -90 -90 -93 -93 -96 -96 -93 -93 -93 -93 -96 -102 -105 -108 -108 -108 -108 -105 -105 -102 -102 -105 -105 -111 -114 -117 -120 -126 -126 -123 -123 -123 -123 -123 -123 -120 -120 -123 -126 -126 -126 -132 -135 -138 -135 -135 -132 -132 -132 -129 -126 -126 -132 -135 -129 -126 -120 -117 -111 -105 -96 -96 -93 -93 -87 -84 -78 -72 -72 -66 -60 -51 -42 -36 -29 -26 -23 -23 -23 -23 -26 -33 -33 -33 -33 -33 -33 -29 -29 -33 -33 -36 -36 -36 -36 -36 -33 -33 -26 -23 -23 -26 -29 -29 -29 -33 -42 -42 -45 -45 -42 -45 -45 -48 -45 -45 -45 -45 -45 -39 -36 -36 -33 -29 -23 -20 -17 -17 -17 -11 -11 -8 -2 7 13 16 22 28 34 46 49 52 52 61 70 79 79 85 91 94 97 94 88 85 82 79 67 58 52 43 34 22 7 -5 -17 -29 -36 -42 -51 -57 -63 -72 -78 -84 -90 -96 -99 -102 -102 -102 -99 -105 -108 -111 -111 -111 -114 -117 -123 -123 -120 -120 -123 -129 -129 -129 -129 -129 -132 -132 -126 -126 -123 -123 -126 -126 -126 -126 -126 -123 -123 -123 -120 -114 -114 -111 -111 -108 -111 -114 -117 -123 -129 -129 -129 -135 -147 -159 -171 -186 -210 -237 -255 -309 -354 -342 -324 -264 -150 31 265 412 466 580 766 931 1078 1189 1234 1249 1249 1213 1153 1012 871 742 577 376 292 181 118 28 -93 -147 -189 -186 -135 -147 -141 -117 -108 -108 -105 -102 -102 -105 -105 -108 -111 -111 -105 -108 -108 -108 -105 -105 -102 -102 -102 -99 -99 -102 -102 -102 -102 -102 -105 -108 -111 -114 -114 -114 -117 -114 -111 -105 -102 -102 -99 -99 -99 -102 -105 -111 -117 -117 -120 -123 -126 -123 -120 -120 -120 -117 -114 -108 -105 -105 -108 -111 -111 -111 -114 -114 -117 -117 -117 -114 -117 -120 -120 -123 -129 -132 -132 -135 -135 -135 -135 -135 -132 -135 -141 -144 -144 -141 -141 -141 -141 -144 -141 -141 -135 -135 -135 -129 -123 -117 -111 -102 -93 -90 -84 -78 -72 -66 -60 -54 -51 -45 -42 -42 -45 -45 -45 -42 -42 -42 -45 -39 -33 -33 -33 -29 -29 -29 -26 -26 -26 -26 -26 -26 -29 -26 -26 -26 -23 -23 -20 -20 -23 -20 -20 -23 -23 -23 -20 -20 -20 -20 -20 -20 -20 -23 -23 -23 -23 -20 -20 -17 -14 -11 -8 -5 -2 4 10 16 16 19 25 28 34 40 40 43 46 52 58 64 70 76 85 91 100 103 106 106 106 103 103 100 97 97 100 100 100 100 94 88 82 70 55 43 34 22 10 -2 -11 -20 -29 -33 -42 -48 -48 -54 -57 -60 -60 -60 -63 -66 -69 -72 -75 -75 -75 -75 -72 -66 -66 -63 -63 -60 -57 -57 -57 -63 -63 -63 -63 -63 -66 -69 -66 -66 -66 -63 -60 -60 -60 -60 -60 -60 -63 -66 -66 -66 -66 -66 -66 -72 -78 -78 -78 -84 -87 -93 -108 -120 -126 -141 -174 -198 -222 -261 -333 -306 -261 -168 -36 139 346 469 502 670 832 1063 1204 1303 1333 1330 1300 1225 1111 961 808 682 487 319 259 172 76 -23 -96 -144 -153 -99 -75 -51 -60 -54 -51 -51 -54 -60 -66 -69 -72 -72 -66 -66 -66 -66 -66 -66 -63 -63 -66 -69 -72 -75 -75 -75 -78 -78 -75 -78 -78 -75 -75 -69 -69 -69 -69 -69 -66 -66 -66 -66 -66 -69 -69 -69 -72 -72 -69 -72 -72 -72 -72 -72 -72 -72 -78 -78 -75 -75 -75 -75 -75 -72 -72 -72 -78 -78 -78 -78 -78 -84 -84 -84 -87 -87 -87 -90 -90 -90 -93 -96 -96 -99 -102 -105 -111 -114 -117 -117 -117 -120 -120 -120 -123 -117 -117 -114 -111 -108 -105 -102 -93 -90 -93 -90 -90 -84 -78 -75 -72 -66 -57 -51 -48 -48 -48 -48 -45 -45 -45 -45 -42 -36 -33 -36 -36 -39 -42 -42 -39 -42 -42 -42 -39 -39 -36 -36 -36 -33 -33 -33 -29 -26 -26 -26 -26 -26 -29 -33 -33 -33 -33 -29 -29 -29 -29 -26 -29 -29 -29 -33 -33 -39 -42 -42 -42 -39 -39 -36 -36 -36 -33 -29 -26 -23 -23 -20 -14 -8 -2 4 10 10 13 16 19 22 28 34 40 46 55 64 73 82 85 94 103 106 106 109 112 112 109 109 103 100 100 97 97 97 94 91 82 73 61 49 34 22 10 1 -5 -8 -14 -20 -26 -29 -33 -33 -39 -45 -51 -51 -48 -48 -54 -57 -57 -57 -57 -60 -63 -63 -63 -60 -63 -72 -75 -75 -72 -72 -72 -72 -72 -66 -63 -63 -63 -60 -60 -60 -63 -66 -66 -66 -66 -69 -69 -69 -69 -69 -66 -69 -69 -66 -69 -75 -78 -81 -81 -87 -99 -117 -135 -156 -180 -213 -249 -282 -339 -297 -249 -201 -42 148 337 427 460 580 799 1027 1159 1225 1261 1267 1234 1195 1087 907 760 631 439 280 199 109 19 -60 -123 -162 -174 -117 -114 -87 -75 -66 -63 -63 -66 -66 -69 -75 -78 -78 -75 -75 -78 -78 -81 -81 -81 -81 -81 -81 -81 -81 -81 -81 -81 -78 -78 -78 -78 -78 -75 -72 -75 -75 -75 -75 -75 -72 -69 -69 -69 -66 -66 -66 -69 -72 -72 -72 -75 -75 -75 -72 -72 -72 -72 -72 -69 -69 -75 -78 -81 -81 -81 -84 -81 -81 -81 -78 -78 -81 -81 -81 -87 -90 -93 -96 -96 -93 -96 -96 -96 -96 -99 -105 -102 -102 -102 -102 -102 -102 -99 -93 -93 -93 -93 -93 -87 -87 -81 -78 -75 -69 -66 -57 -57 -51 -42 -39 -33 -33 -33 -29 -29 -26 -26 -26 -26 -23 -20 -20 -17 -14 -17 -17 -14 -14 -17 -14 -14 -17 -17 -14 -14 -14 -14 -11 -5 -5 -5 -5 -2 1 1 1 1 1 1 4 4 1 4 7 7 7 4 1 1 4 1 -5 -8 -5 -5 -8 -11 -11 -14 -8 -5 -5 -5 1 4 7 7 7 7 7 7 7 10 16 22 28 28 34 40 46 52 55 58 67 73 79 88 100 106 115 121 127 133 139 136 133 133 133 133 133 133 130 133 136 133 127 118 109 103 97 85 73 61 52 43 34 25 16 7 4 -2 -2 -5 -8 -11 -14 -17 -20 -26 -29 -33 -36 -36 -36 -36 -36 -36 -36 -36 -36 -39 -42 -42 -45 -48 -45 -45 -45 -45 -45 -48 -45 -42 -42 -42 -42 -42 -42 -42 -42 -48 -48 -51 -54 -54 -54 -51 -51 -51 -51 -54 -54 -54 -57 -60 -63 -75 -90 -108 -129 -162 -201 -219 -267 -324 -267 -255 -171 -39 133 322 466 481 580 745 979 1105 1189 1270 1243 1228 1186 1081 943 808 691 520 349 250 160 73 -2 -99 -171 -144 -99 -102 -87 -72 -66 -63 -57 -54 -54 -54 -60 -57 -51 -48 -45 -45 -48 -51 -51 -54 -57 -60 -60 -60 -57 -60 -60 -57 -51 -48 -48 -51 -54 -54 -54 -54 -57 -54 -51 -48 -48 -48 -45 -45 -45 -48 -51 -54 -54 -54 -54 -54 -57 -54 -48 -45 -45 -45 -42 -45 -45 -45 -51 -51 -51 -51 -51 -48 -45 -45 -42 -42 -45 -48 -51 -60 -63 -66 -66 -66 -63 -63 -60 -57 -54 -54 -54 -51 -51 -57 -57 -60 -63 -63 -63 -63 -63 -60 -54 -48 -42 -36 -33 -26 -20 -14 -8 -5 -2 1 7 10 10 10 13 10 13 16 19 19 25 34 37 37 40 37 34 31 28 25 25 25 28 28 34 37 43 46 46 43 40 40 40 37 37 37 40 43 46 49 49 49 52 52 55 52 49 46 43 43 40 37 34 34 34 34 34 31 31 31 31 31 31 31 34 37 40 40 43 46 49 55 58 58 58 61 64 70 73 76 76 82 88 88 94 94 94 100 106 112 118 127 139 151 163 172 175 181 184 184 187 187 187 187 184 181 178 172 169 160 154 148 142 130 121 109 97 82 70 58 46 37 34 25 22 22 22 19 16 16 16 16 13 10 7 4 1 -2 -2 -8 -8 -11 -11 -14 -17 -17 -14 -14 -17 -20 -23 -29 -29 -33 -33 -33 -33 -33 -33 -33 -33 -33 -33 -36 -39 -42 -42 -42 -42 -42 -42 -42 -45 -48 -51 -54 -57 -60 -69 -84 -99 -120 -141 -174 -204 -258 -303 -327 -282 -243 -153 40 235 412 490 574 730 910 1090 1195 1216 1252 1267 1231 1201 1156 1021 901 787 586 409 310 238 145 49 -39 -126 -141 -120 -84 -63 -60 -63 -54 -45 -39 -36 -36 -39 -39 -33 -33 -36 -39 -39 -39 -36 -33 -33 -33 -33 -29 -26 -26 -20 -17 -14 -11 -8 -8 -2 -2 -2 -5 -5 -8 -5 -2 4 7 7 10 19 22 22 25 31 31 37 40 40 40 43 46 43 40 43 43 46 49 52 55 55 61 61 61 64 67 67 67 67 67 70 76 79 82 82 82 85 85 79 79 79 79 79 79 85 91 97 106 109 109 109 115 118 124 130 136 145 151 163 169 175 181 187 193 205 211 223 232 241 250 262 271 274 280 289 295 301 304 310 313 319 331 334 340 343 349 358 361 364 370 373 376 379 385 391 394 400 403 406 412 418 421 424 430 436 442 448 448 451 457 463 466 466 466 472 481 487 490 493 493 502 511 514 517 523 523 529 538 541 541 547 553 556 565 574 583 592 604 613 619 628 634 640 652 661 670 682 697 709 718 733 742 754 766 778 790 802 814 823 832 838 844 847 853 859 862 865 865 865 859 856 844 826 808 790 769 748 724 700 676 655 631 610 583 562 544 526 508 490 472 454 439 430 415 403 388 373 358 349 337 325 313 304 292 286 277 268 259 250 244 232 223 214 208 202 193 187 178 169 160 151 142 130 124 118 112 103 94 88 79 70 58 43 22 13 1 -11 -29 -42 -63 -87 -114 -147 -195 -234 -270 -318 -366 -336 -327 -243 -87 121 283 370 424 577 784 982 1066 1126 1150 1126 1114 1057 937 814 661 514 301 145 52 -33 -129 -267 -345 -405 -432 -384 -399 -363 -366 -378 -381 -381 -384 -390 -396 -402 -405 -408 -414 -420 -429 -432 -438 -441 -450 -456 -462 -468 -471 -474 -477 -477 -480 -483 -486 -489 -489 -498 -501 -504 -510 -510 -513 -516 -516 -516 -516 -516 -522 -525 -528 -528 -534 -537 -540 -540 -543 -543 -546 -549 -552 -552 -558 -558 -561 -561 -564 -564 -564 -564 -561 -558 -558 -558 -561 -564 -567 -570 -573 -579 -582 -582 -579 -579 -585 -585 -588 -588 -585 -588 -588 -588 -588 -588 -588 -591 -588 -591 -591 -591 -591 -585 -579 -570 -570 -570 -564 -561 -552 -543 -537 -528 -519 -507 -501 -495 -486 -483 -480 -477 -474 -471 -465 -456 -456 -450 -447 -444 -438 -435 -432 -429 -426 -423 -417 -414 -411 -408 -402 -402 -402 -393 -390 -390 -390 -390 -387 -387 -381 -381 -381 -381 -375 -372 -372 -369 -366 -360 -360 -360 -357 -357 -351 -348 -348 -348 -348 -342 -339 -336 -336 -336 -336 -330 -327 -324 -321 -318 -312 -306 -306 -303 -300 -294 -294 -288 -282 -279 -273 -261 -258 -252 -243 -231 -228 -219 -210 -204 -198 -192 -183 -174 -168 -156 -147 -138 -126 -111 -102 -99 -96 -90 -90 -87 -87 -90 -90 -90 -90 -87 -93 -102 -105 -111 -120 -129 -138 -150 -156 -159 -165 -177 -186 -189 -195 -198 -204 -207 -210 -210 -210 -213 -213 -213 -216 -222 -225 -228 -228 -228 -228 -228 -228 -222 -222 -222 -222 -222 -219 -216 -216 -216 -216 -210 -207 -207 -210 -213 -213 -210 -210 -210 -210 -210 -207 -207 -204 -204 -207 -207 -204 -204 -204 -204 -207 -213 -216 -219 -222 -222 -231 -243 -261 -282 -288 -333 -387 -423 -471 -495 -459 -411 -303 -147 61 205 319 379 526 772 976 1096 1147 1177 1120 1075 1012 895 715 613 457 262 136 40 -51 -117 -207 -297 -333 -306 -264 -246 -204 -231 -225 -225 -225 -228 -231 -231 -231 -231 -231 -228 -225 -225 -225 -228 -228 -228 -228 -228 -228 -225 -222 -222 -219 -219 -216 -213 -210 -210 -210 -210 -210 -216 -219 -219 -216 -213 -213 -207 -204 -198 -195 -195 -198 -198 -198 -198 -195 -198 -198 -195 -195 -198 -198 -198 -198 -198 -198 -198 -198 -195 -195 -195 -195 -195 -195 -189 -189 -186 -189 -186 -189 -192 -195 -195 -198 -198 -198 -198 -201 -198 -198 -201 -201 -201 -204 -204 -201 -198 -201 -198 -198 -198 -195 -189 -189 -186 -183 -177 -171 -168 -165 -165 -162 -156 -153 -147 -141 -132 -129 -123 -120 -117 -117 -111 -108 -108 -108 -105 -105 -99 -99 -99 -99 -99 -99 -99 -99 -96 -96 -96 -93 -93 -90 -87 -87 -87 -87 -84 -84 -81 -81 -84 -81 -81 -81 -81 -81 -81 -75 -72 -75 -78 -78 -75 -72 -72 -75 -75 -78 -78 -78 -78 -78 -75 -75 -75 -72 -69 -63 -60 -60 -63 -63 -63 -63 -63 -66 -63 -57 -54 -51 -45 -36 -33 -26 -23 -17 -11 -5 4 7 10 16 25 31 37 43 52 61 67 73 79 82 82 85 88 85 85 85 85 82 76 73 73 67 61 55 49 43 34 25 13 4 -8 -14 -20 -29 -33 -33 -36 -39 -42 -45 -48 -54 -57 -57 -60 -60 -60 -57 -57 -60 -63 -66 -69 -69 -75 -81 -87 -84 -84 -84 -81 -81 -78 -75 -69 -69 -69 -69 -69 -72 -72 -75 -75 -78 -78 -78 -78 -78 -75 -72 -72 -72 -69 -72 -72 -78 -81 -84 -84 -84 -93 -99 -114 -132 -147 -162 -225 -231 -294 -345 -312 -288 -198 -78 103 325 424 418 529 742 1000 1162 1231 1294 1285 1213 1165 1060 910 763 616 397 286 190 118 16 -84 -141 -156 -186 -129 -105 -60 -84 -72 -69 -66 -69 -69 -72 -72 -72 -72 -72 -69 -69 -72 -72 -72 -69 -69 -66 -66 -66 -60 -60 -63 -63 -63 -66 -66 -66 -69 -69 -66 -66 -66 -66 -66 -63 -63 -60 -63 -66 -69 -72 -72 -72 -72 -72 -69 -66 -60 -54 -54 -57 -60 -60 -63 -63 -69 -69 -69 -69 -66 -66 -66 -66 -66 -66 -66 -66 -66 -66 -66 -69 -69 -69 -66 -63 -63 -63 -63 -63 -63 -66 -66 -66 -66 -66 -63 -60 -60 -60 -60 -63 -66 -66 -66 -69 -66 -63 -60 -54 -48 -45 -42 -39 -36 -33 -29 -26 -23 -23 -17 -11 -11 -8 -8 -8 -2 -2 -2 -5 -2 -2 -2 1 -2 -2 -2 -2 -5 -8 -8 -8 -8 -5 -2 1 7 10 10 7 7 7 7 7 7 7 7 7 4 4 1 -2 -5 -8 -8 -5 -2 -2 -2 -5 -5 -5 -5 -5 -5 -2 -2 -2 -2 1 1 -5 -5 -8 -8 -5 -5 -5 -5 -2 4 7 10 13 19 25 31 31 37 37 43 46 52 55 61 67 76 82 91 100 115 124 133 136 142 148 151 151 151 148 145 145 145 145 142 139 139 133 130 127 121 112 100 85 76 64 52 40 28 22 19 19 16 10 7 4 -2 -8 -14 -20 -23 -23 -20 -20 -20 -20 -20 -23 -23 -26 -29 -33 -33 -33 -29 -23 -20 -20 -20 -17 -17 -17 -17 -17 -17 -20 -14 -11 -11 -11 -11 -11 -8 -5 -8 -11 -11 -11 -11 -11 -11 -11 -11 -14 -17 -17 -17 -26 -39 -54 -75 -75 -153 -150 -192 -261 -240 -240 -177 -87 64 280 463 532 595 766 979 1126 1225 1279 1327 1327 1309 1246 1123 997 904 724 529 400 346 265 163 52 -20 -23 -17 -33 4 31 10 16 25 25 28 28 28 31 34 40 43 43 46 49 49 49 49 49 49 49 52 58 58 61 64 67 70 73 73 67 61 61 67 70 70 76 82 88 94 94 91 91 91 91 85 85 82 82 85 88 91 91 94 94 97 97 97 97 97 94 91 91 91 91 91 91 91 94 100 100 100 97 100 100 100 103 100 94 97 97 100 103 106 103 100 100 97 94 94 94 94 94 103 106 112 118 124 127 130 136 142 145 154 160 169 172 175 178 184 184 187 190 199 205 211 217 217 220 226 232 235 235 238 241 247 250 247 235 226 214 202 193 187 178 172 169 169 166 163 160 154 151 145 139 136 130 124 121 118 118 118 121 121 121 121 118 115 115 112 109 109 106 103 103 103 103 97 97 94 88 85 88 91 94 94 94 97 97 103 103 106 109 112 118 118 118 118 115 106 100 94 91 88 88 88 94 97 100 106 115 118 115 115 118 118 115 115 103 94 88 85 76 67 52 40 31 16 1 -17 -33 -51 -66 -78 -93 -102 -111 -120 -132 -144 -153 -162 -168 -174 -183 -186 -189 -192 -201 -207 -213 -216 -219 -225 -231 -234 -234 -240 -243 -249 -249 -249 -249 -252 -252 -255 -252 -252 -261 -267 -273 -279 -282 -282 -282 -282 -282 -282 -285 -285 -285 -285 -285 -285 -288 -288 -291 -297 -303 -315 -321 -327 -330 -336 -351 -363 -378 -369 -435 -447 -483 -558 -567 -558 -525 -396 -243 -2 175 253 331 469 676 877 955 1009 1063 1021 1015 967 859 745 619 454 235 103 46 -72 -150 -234 -318 -417 -396 -351 -327 -312 -312 -300 -300 -294 -288 -285 -285 -285 -285 -285 -285 -285 -288 -291 -291 -291 -288 -288 -282 -276 -273 -270 -270 -270 -270 -270 -270 -273 -276 -276 -270 -267 -267 -270 -264 -258 -252 -249 -246 -246 -243 -240 -240 -240 -240 -240 -240 -240 -240 -243 -243 -243 -246 -252 -249 -246 -246 -243 -240 -237 -237 -237 -237 -243 -240 -240 -243 -246 -246 -243 -243 -243 -243 -246 -252 -249 -246 -246 -249 -249 -249 -249 -249 -249 -249 -249 -249 -249 -249 -249 -246 -246 -246 -249 -249 -249 -243 -234 -225 -222 -210 -204 -198 -192 -183 -180 -174 -171 -165 -159 -150 -144 -135 -126 -120 -117 -108 -102 -99 -99 -99 -99 -102 -102 -102 -102 -102 -99 -96 -93 -90 -87 -87 -90 -90 -90 -93 -93 -93 -90 -87 -81 -78 -78 -72 -66 -69 -69 -69 -69 -69 -66 -69 -75 -75 -69 -69 -69 -69 -63 -63 -63 -63 -69 -69 -69 -69 -66 -66 -66 -60 -54 -48 -42 -39 -33 -33 -23 -17 -14 -8 -8 -5 -2 1 7 13 19 22 31 40 49 58 61 67 76 85 91 91 97 100 100 100 97 97 94 91 85 79 76 73 64 58 46 31 19 10 -2 -11 -20 -29 -36 -39 -45 -51 -57 -60 -66 -69 -69 -72 -72 -72 -72 -72 -72 -72 -75 -78 -78 -75 -78 -78 -81 -84 -87 -87 -84 -87 -87 -87 -87 -87 -87 -90 -90 -90 -90 -87 -90 -90 -90 -87 -87 -90 -93 -93 -96 -96 -99 -102 -105 -105 -108 -111 -117 -120 -123 -129 -138 -153 -174 -195 -222 -252 -282 -336 -390 -348 -324 -267 -135 85 295 418 448 583 757 988 1150 1234 1267 1267 1225 1198 1108 964 826 688 508 334 235 136 37 -42 -120 -192 -219 -174 -129 -93 -123 -114 -111 -111 -114 -114 -120 -120 -123 -120 -120 -120 -120 -120 -120 -117 -117 -117 -120 -120 -120 -117 -117 -120 -120 -120 -120 -120 -117 -120 -123 -123 -123 -123 -123 -123 -120 -120 -123 -126 -123 -120 -120 -120 -120 -117 -111 -108 -108 -108 -108 -108 -108 -111 -114 -114 -114 -111 -111 -111 -114 -114 -114 -117 -123 -126 -129 -132 -132 -132 -135 -135 -132 -135 -135 -135 -135 -135 -135 -135 -138 -138 -138 -138 -144 -144 -147 -147 -147 -147 -147 -147 -144 -141 -138 -138 -138 -132 -123 -123 -123 -114 -111 -105 -102 -99 -99 -93 -87 -84 -81 -81 -75 -75 -72 -72 -66 -66 -66 -60 -57 -54 -51 -51 -51 -51 -48 -48 -48 -45 -45 -45 -42 -45 -48 -48 -45 -45 -45 -42 -42 -39 -33 -33 -33 -33 -33 -33 -33 -33 -33 -33 -33 -33 -33 -33 -29 -26 -26 -26 -29 -29 -29 -33 -33 -36 -36 -39 -39 -39 -39 -36 -36 -36 -39 -39 -39 -39 -42 -42 -42 -39 -36 -33 -29 -23 -14 -11 -5 4 13 19 25 25 25 31 37 43 46 52 58 67 73 82 91 97 103 106 106 109 106 106 103 103 100 100 97 97 97 97 97 91 82 70 61 49 34 22 10 -2 -11 -17 -23 -29 -33 -39 -42 -48 -51 -54 -60 -63 -63 -63 -66 -72 -75 -81 -81 -81 -84 -90 -93 -93 -87 -87 -90 -90 -93 -96 -93 -96 -99 -99 -99 -102 -105 -105 -105 -102 -99 -99 -99 -99 -93 -93 -93 -93 -96 -96 -96 -96 -96 -96 -99 -102 -105 -105 -108 -114 -126 -138 -156 -183 -198 -240 -282 -348 -375 -345 -276 -171 -48 163 352 406 460 616 865 1048 1174 1282 1300 1264 1246 1201 1042 877 781 592 400 271 202 94 46 -14 -81 -138 -105 -75 -45 -42 -33 -26 -20 -20 -29 -33 -33 -36 -36 -33 -33 -33 -33 -33 -33 -33 -33 -33 -36 -36 -36 -33 -33 -33 -36 -36 -39 -45 -48 -45 -45 -45 -45 -45 -45 -45 -45 -45 -45 -45 -42 -42 -39 -39 -39 -39 -39 -45 -45 -45 -42 -42 -42 -42 -42 -42 -45 -51 -54 -57 -57 -60 -60 -66 -66 -72 -75 -78 -81 -81 -81 -84 -90 -90 -90 -93 -96 -96 -102 -102 -102 -102 -108 -111 -117 -120 -120 -126 -126 -129 -129 -126 -126 -126 -126 -126 -123 -123 -123 -117 -114 -108 -105 -102 -96 -90 -84 -81 -78 -75 -69 -66 -63 -63 -63 -63 -63 -60 -60 -54 -48 -48 -48 -48 -45 -45 -42 -42 -42 -45 -42 -39 -39 -39 -36 -36 -39 -39 -39 -39 -33 -33 -33 -33 -33 -33 -33 -33 -33 -36 -33 -33 -33 -36 -36 -39 -39 -42 -42 -45 -42 -42 -42 -42 -48 -51 -54 -54 -60 -60 -63 -66 -69 -66 -66 -72 -75 -81 -84 -93 -96 -102 -114 -117 -120 -120 -120 -120 -123 -135 -141 -135 -162 -195 -183 -225 -237 -279 -330 -333 -354 -366 -399 -408 -411 -447 -483 -507 -543 -588 -636 -696 -708 -753 -807 -933 -960 -1032 -1104 -1119 -1110 -1113 -1086 -1155 -1266 -1380 -1395 -1359 -1266 -1239 -1191 -1023 -867 -747 -645 -552 -486 -462 -429 -408 -417 -357 -336 -333 -333 -345 -342 -291 -240 -204 -165 -117 -81 -48 16 76 37 58 73 85 94 109 118 124 133 142 145 148 154 160 166 172 172 178 184 193 196 202 205 214 226 232 241 247 253 259 268 271 277 286 298 304 313 325 334 346 358 367 376 391 406 415 427 442 457 472 490 502 517 535 556 571 583 598 607 619 631 640 649 658 670 682 691 697 700 703 709 712 709 706 703 700 697 694 682 673 664 649 634 619 604 586 565 544 517 496 472 445 418 388 364 340 316 292 268 247 229 208 190 178 160 142 124 106 88 67 52 28 16 7 -2 -11 -17 -23 -26 -26 -33 -39 -45 -48 -51 -54 -60 -63 -63 -63 -63 -66 -69 -69 -66 -66 -66 -69 -69 -66 -66 -66 -66 -63 -57 -57 -63 -63 -66 -69 -69 -72 -75 -78 -72 -72 -75 -75 -75 -75 -75 -72 -72 -72 -69 -72 -72 -72 -78 -81 -81 -81 -81 -78 -72 -69 -72 -75 -75 -75 -75 -78 -81 -81 -78 -78 -75 -75 -78 -81 -81 -84 -84 -81 -78 -78 -78 -75 -75 -69 -69 -75 -81 -81 -81 -81 -84 -87 -87 -87 -84 -84 -84 -84 -78 -75 -75 -78 -75 -72 -69 -69 -72 -72 -69 -69 -69 -69 -72 -72 -72 -72 -72 -72 -72 -69 -69 -69 -69 -63 -60 -57 -54 -54 -51 -48 -42 -39 -39 -39 -39 -36 -39 -42 -42 -33 -33 -26 -17 -11 -2 10 19 22 25 31 31 37 43 49 55 61 70 76 85 91 97 106 121 127 136 142 148 151 154 154 151 148 145 145 142 142 136 133 127 121 109 97 82 67 52 40 31 22 16 16 16 16 13 10 7 4 -2 -8 -8 -11 -14 -11 -11 -11 -11 -5 -5 -5 -5 -5 -5 -5 -5 -5 -8 -5 -5 -5 -8 -5 -5 -5 -2 1 1 -2 1 4 10 13 10 10 13 19 22 22 16 16 16 16 7 1 1 1 -2 -11 -23 -36 -57 -69 -96 -123 -198 -237 -243 -258 -198 -102 52 286 445 487 550 724 937 1081 1168 1234 1222 1192 1195 1153 1048 892 793 625 415 289 205 151 52 -87 -186 -189 -165 -153 -132 -81 -111 -105 -105 -105 -108 -111 -114 -120 -120 -117 -114 -114 -114 -114 -111 -111 -111 -114 -117 -120 -120 -120 -126 -126 -129 -132 -135 -132 -129 -132 -129 -129 -132 -135 -138 -138 -147 -153 -156 -162 21 18 9 6 -3 -3 -9 -9 -9 -9 -12 -15 -14 -11 -8 -5 -5 -9 -9 -15 -21 -30 -30 -30 -33 -33 -33 -33 -33 -30 -27 -27 -30 -33 -33 -36 -36 -42 -42 -42 -42 -42 -39 -39 -39 -39 -39 -39 -39 -39 -39 -39 -42 -42 -45 -48 -51 -54 -54 -57 -54 -51 -51 -48 -54 -54 -60 -60 -66 -75 -84 -102 -126 -147 -159 -220 -262 -288 -285 -270 -264 -211 -108 36 144 177 213 369 594 813 966 1020 1053 1071 1089 987 822 648 528 378 207 63 30 -12 -78 -184 -235 -238 -232 -223 -202 -151 -148 -130 -112 -97 -88 -79 -73 -67 -61 -61 -58 -58 -58 -58 -61 -61 -64 -64 -64 -64 -67 -67 -67 -67 -67 -64 -64 -67 -70 -70 -73 -73 -70 -70 -70 -70 -73 -73 -70 -76 -82 -82 -79 -79 -76 -76 -73 -76 -73 -70 -76 -79 -79 -82 -82 -79 -82 -82 -82 -79 -82 -82 -85 -85 -85 -85 -82 -82 -85 -85 -85 -85 -88 -85 -85 -81 -81 -81 -81 -78 -75 -75 -72 -72 -72 -66 -63 -63 -60 -60 -63 -66 -66 -66 -63 -63 -57 -51 -42 -36 -33 -27 -24 -24 -21 -18 -21 -17 -14 -11 -8 -2 4 4 7 7 7 10 13 10 7 6 6 6 3 3 3 6 9 9 9 10 7 10 13 13 16 18 24 27 27 30 30 30 30 30 27 24 24 24 15 18 15 15 15 16 13 16 22 25 28 34 37 43 45 48 54 57 60 63 63 69 66 69 75 75 72 72 75 78 78 81 90 93 96 99 102 102 102 102 99 96 87 78 66 60 51 42 33 24 18 15 9 6 3 3 3 0 0 -3 -2 -2 1 -2 -5 -14 -15 -18 -21 -24 -30 -30 -33 -36 -36 -33 -30 -33 -30 -33 -33 -33 -33 -30 -30 -30 -33 -36 -36 -33 -36 -36 -39 -39 -39 -33 -30 -33 -36 -36 -36 -36 -33 -39 -39 -39 -39 -42 -45 -51 -60 -63 -72 -72 -78 -87 -99 -117 -136 -141 -180 -238 -274 -322 -288 -285 -268 -193 -87 78 216 240 330 477 681 897 1023 1071 1092 1086 1101 1014 852 702 570 444 243 144 93 48 -21 -114 -166 -190 -199 -202 -196 -163 -136 -124 -112 -97 -91 -85 -82 -82 -82 -79 -79 -79 -76 -76 -76 -76 -73 -76 -76 -76 -76 -72 -72 -72 -66 -60 -60 -60 -63 -63 -63 -66 -69 -72 -72 -75 -69 -66 -69 -72 -72 -75 -75 -81 -81 -84 -84 -84 -84 -81 -81 -81 -87 -90 -93 -93 -93 -93 -90 -93 -93 -93 -96 -96 -99 -99 -102 -105 -111 -111 -111 -111 -111 -108 -108 -108 -105 -102 -102 -105 -105 -105 -108 -108 -108 -105 -105 -102 -99 -96 -90 -87 -90 -93 -93 -87 -84 -81 -78 -72 -63 -54 -54 -48 -45 -42 -42 -39 -33 -33 -27 -21 -12 -3 3 10 16 19 19 19 16 13 9 9 12 15 15 15 19 22 21 21 18 18 15 15 18 21 21 25 28 28 28 25 25 25 24 21 21 18 21 27 24 24 24 24 27 27 27 27 36 42 42 45 52 55 58 61 61 58 64 67 70 73 79 82 82 88 91 91 97 100 106 106 118 124 133 136 142 142 142 142 139 130 124 115 106 94 82 76 67 61 52 40 37 34 31 33 33 33 30 33 27 27 21 15 9 6 3 3 3 3 -3 -6 -6 -6 -6 -12 -12 -18 -18 -18 -18 -18 -24 -21 -24 -24 -24 -24 -21 -18 -21 -18 -18 -18 -18 -18 -18 -18 -18 -18 -18 -18 -15 -15 -12 -12 -12 -15 -18 -21 -27 -30 -33 -39 -45 -57 -72 -90 -111 -126 -174 -210 -258 -291 -264 -261 -228 -154 -21 168 261 270 375 591 804 1011 1140 1185 1200 1212 1197 1086 912 738 621 468 279 210 153 111 6 -84 -135 -165 -165 -163 -141 -108 -99 -87 -75 -66 -60 -54 -54 -57 -57 -60 -60 -57 -60 -60 -60 -57 -57 -51 -51 -51 -48 -48 -51 -54 -57 -60 -60 -63 -66 -66 -63 -63 -63 -66 -63 -60 -57 -57 -60 -57 -57 -57 -60 -66 -72 -75 -75 -81 -84 -87 -87 -84 -84 -84 -84 -81 -75 -78 -78 -84 -84 -84 -87 -90 -90 -93 -93 -93 -93 -96 -99 -96 -99 -102 -105 -105 -105 -102 -99 -99 -99 -96 -96 -99 -102 -99 -99 -96 -96 -96 -96 -93 -93 -90 -87 -87 -81 -75 -75 -72 -66 -57 -57 -54 -51 -45 -39 -33 -27 -24 -15 -9 -9 -12 -12 -12 -9 -9 -9 -12 -9 -3 -3 -3 1 1 1 4 4 4 4 4 4 1 4 4 4 10 10 10 10 10 10 10 7 4 4 4 4 4 4 4 4 7 4 10 10 10 13 10 13 16 19 22 22 25 31 37 43 40 43 49 52 55 61 61 58 61 61 64 70 76 75 81 87 96 99 102 102 102 99 99 93 87 78 75 66 60 54 48 42 36 30 18 15 12 12 12 4 4 4 4 6 3 -3 -3 -12 -18 -21 -24 -21 -21 -24 -27 -27 -27 -27 -27 -27 -30 -27 -27 -21 -21 -18 -15 -15 -15 -18 -18 -18 -21 -21 -24 -27 -27 -27 -27 -27 -24 -24 -24 -24 -24 -24 -27 -24 -24 -24 -30 -33 -33 -39 -48 -51 -51 -57 -57 -63 -78 -96 -105 -123 -138 -205 -247 -262 -309 -270 -255 -214 -121 15 165 225 210 354 588 864 1047 1140 1173 1173 1182 1104 939 738 579 465 282 129 93 45 -36 -126 -196 -208 -229 -193 -175 -139 -124 -112 -97 -88 -82 -79 -76 -73 -73 -73 -67 -67 -67 -67 -67 -64 -64 -67 -67 -67 -70 -69 -69 -73 -76 -76 -73 -76 -79 -76 -76 -73 -73 -73 -73 -73 -70 -70 -70 -70 -70 -70 -70 -70 -70 -70 -67 -66 -66 -66 -66 -66 -70 -70 -76 -72 -73 -69 -69 -73 -73 -73 -73 -73 -79 -79 -79 -79 -79 -78 -78 -78 -75 -72 -72 -75 -72 -69 -69 -72 -72 -72 -75 -75 -78 -78 -78 -78 -78 -81 -81 -78 -78 -72 -72 -69 -66 -63 -60 -60 -57 -51 -54 -51 -51 -45 -42 -42 -39 -33 -30 -27 -24 -21 -21 -21 -18 -15 -15 -15 -9 -6 -6 -6 -6 -6 -6 -6 -6 -9 -9 -12 -9 -9 -9 -9 -9 -6 -9 -9 -5 -2 1 1 -2 -2 -2 -3 -6 -6 -6 -2 -2 1 1 1 -2 -2 -2 -6 -3 -6 -6 -6 -6 -6 -3 0 -3 -3 0 1 4 10 10 13 19 25 28 31 37 37 40 43 46 49 49 52 55 55 57 63 69 75 78 81 87 90 90 93 90 87 87 84 81 75 72 60 54 45 36 30 18 12 6 0 -3 0 0 0 1 4 4 7 4 1 0 0 -6 -12 -15 -18 -15 -15 -18 -21 -18 -18 -15 -18 -18 -18 -18 -15 -18 -24 -24 -24 -24 -24 -24 -21 -21 -18 -21 -21 -21 -18 -15 -15 -18 -18 -18 -18 -24 -24 -24 -24 -27 -30 -30 -33 -33 -30 -33 -39 -42 -45 -45 -48 -60 -78 -99 -120 -138 -189 -228 -255 -282 -249 -237 -195 -115 24 144 183 168 300 543 804 975 1053 1083 1086 1092 1005 840 651 495 375 198 57 12 -33 -96 -184 -235 -238 -256 -214 -196 -154 -133 -115 -103 -91 -85 -76 -73 -73 -72 -72 -69 -66 -69 -69 -72 -72 -72 -72 -72 -75 -75 -75 -75 -75 -75 -72 -72 -69 -69 -66 -63 -60 -63 -66 -66 -66 -69 -66 -63 -63 -63 -60 -60 -60 -63 -66 -66 -66 -69 -69 -69 -66 -66 -70 -70 -70 -67 -67 -69 -72 -72 -72 -72 -75 -75 -75 -75 -72 -72 -69 -66 -63 -66 -66 -66 -66 -66 -63 -63 -63 -63 -57 -57 -57 -54 -51 -51 -48 -45 -45 -42 -39 -39 -42 -42 -42 -36 -36 -36 -33 -33 -27 -24 -21 -21 -18 -12 -9 -6 -6 -6 -2 -2 -5 -5 -5 -5 -2 -2 -2 -2 1 1 1 1 1 1 4 4 1 1 4 4 4 4 4 10 7 7 7 10 13 13 13 10 13 13 16 16 13 16 19 16 16 13 10 10 13 13 7 7 10 10 10 10 10 7 13 13 13 10 16 16 16 19 19 19 19 19 19 22 28 34 37 37 43 46 52 54 54 54 60 60 63 66 72 72 78 81 84 90 96 96 93 93 87 87 84 78 69 60 54 45 36 27 18 12 9 6 0 -3 0 0 -6 -9 -9 -12 -9 -9 -6 -3 -6 -9 -12 -11 -14 -20 -23 -27 -30 -30 -27 -24 -24 -24 -24 -21 -18 -21 -24 -24 -27 -30 -30 -30 -30 -30 -27 -30 -30 -30 -30 -30 -30 -33 -36 -36 -36 -39 -39 -42 -45 -45 -45 -45 -45 -45 -42 -45 -48 -48 -51 -54 -57 -69 -88 -109 -130 -147 -208 -238 -265 -291 -246 -259 -208 -127 -6 132 195 156 258 453 714 888 978 1020 1026 1047 996 846 645 501 408 222 69 24 -33 -81 -174 -247 -259 -262 -220 -208 -175 -163 -148 -133 -118 -109 -103 -94 -91 -88 -82 -79 -76 -76 -79 -82 -82 -85 -82 -85 -85 -85 -85 -88 -88 -85 -85 -82 -82 -85 -85 -85 -88 -91 -91 -91 -88 -85 -88 -85 -82 -82 -82 -85 -88 -91 -91 -91 -94 -97 -100 -100 -97 -97 -100 -100 -97 -97 -97 -97 -100 -100 -97 -97 -97 -97 -94 -94 -91 -91 -91 -94 -97 -100 -100 -103 -103 -100 -97 -97 -91 -88 -82 -82 -82 -79 -79 -85 -82 -85 -88 -82 -82 -82 -79 -76 -70 -64 -58 -52 -52 -48 -42 -36 -36 -36 -36 -36 -33 -36 -36 -36 -33 -33 -30 -27 -24 -24 -18 -15 -15 -15 -12 -12 -12 -15 -21 -24 -24 -24 -21 -24 -21 -18 -12 -9 -9 -15 -18 -18 -18 -21 -21 -21 -21 -18 -18 -15 -15 -15 -12 -12 -12 -15 -15 -15 -15 -15 -21 -21 -24 -24 -24 -24 -30 -33 -30 -33 -33 -33 -30 -27 -24 -21 -18 -12 -9 -6 -3 -3 0 0 0 0 3 3 6 9 9 15 21 21 24 24 21 24 24 24 27 33 39 51 63 72 78 84 87 84 84 84 78 75 69 60 54 42 39 30 21 21 18 15 12 9 6 3 0 -3 -6 -9 -6 -9 -6 -6 -3 -6 -6 -6 -9 -9 -15 -18 -18 -18 -21 -21 -18 -24 -21 -24 -24 -24 -24 -21 -18 -18 -18 -21 -21 -23 -23 -27 -27 -27 -27 -21 -21 -21 -21 -24 -21 -21 -24 -27 -27 -27 -27 -24 -24 -27 -30 -33 -36 -39 -42 -45 -57 -72 -87 -111 -120 -162 -214 -268 -304 -285 -267 -241 -181 -51 108 222 261 321 480 708 942 1068 1113 1125 1149 1140 1062 996 834 696 576 384 222 159 120 60 -27 -133 -181 -208 -160 -139 -121 -112 -97 -85 -73 -61 -52 -49 -46 -46 -40 -37 -40 -40 -40 -37 -34 -37 -37 -37 -37 -36 -33 -36 -30 -30 -27 -24 -27 -30 -30 -30 -30 -33 -36 -42 -42 -39 -36 -36 -42 -42 -36 -36 -36 -39 -39 -39 -39 -39 -39 -39 -39 -36 -42 -48 -45 -48 -48 -51 -54 -51 -54 -51 -51 -54 -51 -51 -51 -57 -60 -60 -57 -54 -57 -54 -57 -60 -60 -60 -66 -69 -69 -72 -75 -72 -66 -60 -60 -54 -54 -57 -57 -57 -60 -60 -57 -57 -51 -48 -42 -39 -33 -30 -27 -27 -18 -18 -9 -6 0 0 6 12 15 15 21 21 21 24 24 24 27 33 33 36 36 36 39 39 39 39 36 36 36 36 39 36 36 36 36 33 36 33 30 33 36 36 39 36 36 36 42 42 39 36 36 36 39 39 39 36 42 42 42 42 45 42 39 42 39 33 36 36 33 36 39 45 51 57 60 63 66 69 69 72 75 81 84 90 90 93 96 99 105 108 114 123 132 135 138 144 141 141 138 135 129 123 120 108 99 87 78 72 60 54 45 42 42 42 42 39 39 39 36 33 30 27 21 12 9 3 -3 -3 -3 -6 -6 -3 -3 -3 0 -3 -6 -6 -6 -12 -9 -12 -15 -15 -18 -15 -21 -21 -21 -21 -21 -18 -18 -18 -21 -24 -27 -27 -30 -30 -30 -27 -27 -27 -21 -21 -24 -27 -30 -42 -45 -48 -51 -60 -61 -76 -94 -115 -141 -189 -232 -255 -273 -297 -279 -282 -213 -112 48 183 234 273 441 684 942 1096 1153 1180 1192 1204 1132 991 816 679 547 313 205 160 120 51 -66 -150 -192 -186 -162 -177 -138 -123 -114 -105 -93 -84 -78 -72 -69 -66 -63 -63 -63 -66 -60 -63 -60 -66 -66 -69 -69 -69 -69 -69 -66 -66 -66 -63 -66 -63 -66 -66 -66 -69 -69 -72 -72 -69 -66 -66 -66 -72 -72 -72 -69 -75 -78 -78 -75 -78 -78 -81 -81 -84 -84 -87 -87 -90 -90 -93 -90 -90 -90 -90 -87 -84 -84 -87 -90 -90 -90 -93 -96 -99 -99 -93 -90 -96 -96 -99 -99 -96 -96 -96 -96 -93 -93 -93 -93 -93 -96 -96 -96 -99 -93 -90 -84 -84 -84 -78 -75 -69 -66 -63 -60 -54 -45 -42 -39 -36 -33 -33 -30 -30 -30 -27 -27 -27 -21 -21 -18 -12 -9 -6 -3 0 6 3 3 0 -3 0 -3 -6 -3 -3 0 0 0 0 0 3 3 -3 -6 -6 -3 -6 -6 -6 -3 -3 -3 0 0 3 3 3 3 3 3 3 6 6 3 3 6 3 6 9 12 15 18 18 18 18 24 24 21 27 27 30 39 39 42 45 54 54 57 60 60 63 63 66 66 66 75 81 84 93 102 105 108 111 111 105 105 102 93 87 78 69 66 57 45 36 30 24 18 15 9 9 12 15 12 6 6 6 6 0 -3 -6 -9 -12 -15 -18 -21 -24 -27 -30 -33 -33 -30 -30 -30 -30 -24 -24 -24 -24 -27 -27 -24 -24 -24 -21 -18 -18 -18 -24 -24 -24 -24 -27 -27 -27 -27 -27 -30 -27 -27 -27 -33 -30 -30 -33 -33 -36 -45 -51 -54 -57 -57 -63 -75 -96 -117 -105 -171 -234 -267 -306 -312 -291 -258 -198 -96 54 180 192 234 408 660 921 1071 1140 1143 1138 1132 1024 843 651 516 384 189 108 58 6 -72 -162 -225 -231 -222 -201 -177 -117 -135 -120 -111 -102 -96 -93 -87 -84 -84 -81 -75 -72 -72 -75 -75 -75 -75 -75 -72 -72 -69 -69 -72 -69 -69 -69 -69 -72 -72 -69 -69 -69 -72 -75 -78 -78 -78 -81 -75 -75 -72 -72 -72 -72 -72 -72 -72 -75 -78 -78 -81 -81 -84 -87 -84 -84 -84 -84 -81 -81 -78 -78 -81 -81 -81 -81 -78 -78 -75 -78 -75 -78 -81 -81 -78 -81 -81 -78 -75 -78 -75 -75 -78 -75 -75 -78 -78 -75 -69 -69 -66 -63 -63 -60 -57 -57 -54 -57 -54 -51 -48 -45 -45 -42 -39 -36 -30 -30 -24 -21 -18 -15 -15 -18 -15 -12 -12 -15 -12 -12 -6 -9 -9 -6 -6 -6 -6 -9 -6 -6 -6 -6 -6 -3 0 -3 -3 -3 -3 -6 -3 -3 -9 -6 -6 -6 -3 -3 -3 -3 0 0 0 0 -3 0 0 -3 -3 -6 -6 -9 -9 -9 -6 -6 -6 -3 0 0 0 0 -3 0 0 0 0 0 3 9 12 15 18 24 24 31 34 40 43 46 52 52 52 55 58 58 61 67 67 76 82 82 85 88 84 81 81 78 75 69 66 57 45 36 30 21 12 9 3 0 -3 -3 -3 -3 -6 -5 -5 -5 -3 0 0 -3 -3 -6 -12 -18 -21 -21 -21 -21 -21 -18 -18 -18 -21 -21 -24 -24 -30 -33 -36 -36 -39 -39 -33 -33 -30 -33 -30 -30 -30 -30 -36 -39 -39 -42 -42 -42 -42 -42 -42 -42 -39 -36 -36 -39 -36 -39 -36 -42 -48 -51 -54 -54 -60 -66 -84 -105 -120 -123 -186 -225 -258 -297 -249 -264 -220 -151 -15 117 165 129 246 492 762 951 1029 1065 1077 1062 981 831 645 492 360 198 45 15 -33 -132 -220 -262 -259 -262 -238 -205 -151 -148 -127 -112 -100 -91 -85 -79 -73 -70 -70 -70 -67 -67 -70 -66 -66 -67 -67 -60 -60 -60 -54 -54 -57 -61 -61 -64 -64 -67 -70 -70 -67 -70 -70 -70 -70 -67 -67 -64 -67 -70 -70 -73 -76 -76 -76 -76 -73 -70 -67 -67 -64 -67 -73 -73 -76 -73 -76 -73 -73 -73 -70 -70 -70 -70 -73 -73 -73 -70 -70 -67 -64 -63 -63 -60 -54 -48 -48 -45 -42 -39 -36 -36 -33 -33 -33 -33 -27 -24 -24 -24 -24 -24 -24 -24 -24 -30 -27 -24 -21 -18 -15 -15 -12 -12 -9 -9 -11 -8 -8 -8 -2 1 1 1 1 -2 4 4 4 1 4 4 4 7 4 7 7 7 4 1 -2 -2 1 4 4 7 13 12 12 9 9 9 9 9 9 9 13 13 6 0 -3 -3 -6 -6 -6 -3 0 0 4 1 1 1 1 -3 -3 0 4 4 4 7 3 4 7 4 1 4 4 1 1 4 6 9 16 19 25 27 33 30 33 33 39 42 51 57 57 63 63 66 66 69 75 75 81 84 90 96 99 99 99 96 90 87 84 78 69 60 54 45 39 33 30 24 18 6 3 0 -3 -3 -6 -6 -3 0 6 3 0 -3 -12 -18 -24 -30 -33 -36 -33 -30 -30 -27 -24 -24 -27 -30 -33 -40 -40 -40 -39 -36 -33 -33 -33 -33 -33 -33 -33 -36 -36 -39 -36 -33 -30 -30 -30 -33 -30 -30 -33 -36 -39 -42 -42 -42 -42 -45 -48 -51 -54 -60 -63 -75 -88 -106 -130 -130 -193 -223 -271 -304 -274 -292 -253 -193 -99 60 180 216 261 423 660 870 1029 1068 1086 1089 1098 1017 846 675 567 405 213 108 78 36 -36 -135 -198 -213 -186 -199 -174 -138 -144 -132 -117 -111 -102 -99 -96 -93 -84 -78 -75 -75 -72 -72 -72 -72 -75 -75 -75 -75 -72 -69 -72 -69 -69 -66 -66 -66 -66 -72 -75 -75 -75 -75 -75 -72 -66 -66 -66 -69 -72 -72 -75 -75 -81 -81 -84 -84 -81 -81 -81 -81 -81 -84 -84 -84 -87 -87 -87 -90 -93 -93 -96 -96 -99 -96 -96 -96 -90 -90 -90 -93 -90 -93 -96 -93 -93 -99 -96 -96 -93 -90 -87 -90 -93 -93 -93 -93 -93 -93 -93 -96 -87 -84 -81 -78 -75 -72 -75 -69 -66 -63 -54 -51 -42 -39 -36 -33 -30 -30 -30 -27 -21 -21 -15 -12 -15 -12 -6 -3 -3 -3 0 6 9 12 12 6 6 6 3 0 3 6 9 12 12 15 15 15 15 15 15 12 12 12 6 3 0 0 3 6 9 9 9 12 12 12 9 9 6 6 9 9 9 9 6 9 6 6 3 6 9 15 21 24 27 27 33 33 36 39 42 48 48 57 63 66 66 69 72 78 81 84 87 96 103 106 112 121 127 124 127 133 133 130 133 124 118 112 103 94 85 73 67 64 55 49 43 39 36 36 33 27 27 27 27 24 18 12 3 -3 -6 -15 -18 -18 -18 -21 -24 -24 -24 -21 -24 -24 -24 -21 -21 -24 -24 -24 -24 -21 -21 -21 -21 -18 -15 -24 -30 -33 -36 -36 -39 -39 -39 -36 -33 -33 -33 -33 -36 -33 -33 -33 -30 -33 -36 -45 -57 -63 -72 -78 -87 -105 -123 -141 -129 -192 -228 -276 -318 -315 -291 -282 -210 -93 88 217 265 321 481 724 967 1105 1165 1180 1180 1189 1102 967 799 661 514 301 208 157 102 15 -81 -159 -213 -213 -180 -171 -144 -135 -123 -117 -105 -96 -90 -84 -81 -81 -78 -75 -75 -81 -84 -87 -90 -90 -90 -90 -87 -84 -81 -81 -81 -81 -81 -81 -84 -87 -87 -84 -84 -84 -90 -87 -87 -84 -84 -84 -84 -84 -84 -87 -87 -90 -93 -93 -96 -99 -102 -102 -105 -108 -114 -111 -111 -111 -111 -108 -108 -108 -108 -111 -117 -117 -117 -120 -120 -120 -120 -120 -126 -123 -126 -129 -129 -126 -126 -129 -126 -126 -126 -126 -126 -126 -126 -126 -126 -126 -123 -120 -123 -123 -126 -126 -126 -126 -123 -117 -114 -108 -102 -96 -93 -87 -84 -81 -78 -72 -69 -60 -57 -51 -45 -39 -36 -30 -24 -21 -24 -24 -21 -21 -24 -24 -24 -21 -18 -15 -15 -15 -12 -9 -9 -9 -9 -9 -9 -12 -12 -12 -12 -12 -12 -12 -12 -12 -12 -12 -9 -9 -3 -6 -9 -9 -6 -6 -6 -6 -3 -3 -3 -3 -6 -3 0 0 3 3 3 6 9 12 15 15 21 21 31 37 40 46 46 49 52 55 58 64 64 64 70 73 79 85 88 91 100 109 112 112 115 115 112 109 106 103 93 87 75 63 57 54 45 39 33 24 21 19 19 16 13 16 15 18 15 12 12 9 3 0 0 -3 -3 -3 -3 -6 -6 -3 -6 -6 -6 -3 -6 -6 -9 -12 -12 -12 -9 -12 -12 -12 -9 -9 -9 -12 -12 -12 -12 -9 -12 -15 -15 -9 -9 -12 -15 -15 -18 -18 -21 -24 -21 -21 -27 -30 -36 -39 -45 -51 -63 -84 -108 -132 -153 -204 -243 -282 -312 -279 -276 -222 -120 12 159 243 225 348 567 849 1056 1149 1194 1197 1203 1152 1011 834 681 570 387 225 156 99 43 -61 -133 -156 -186 -159 -142 -112 -108 -93 -84 -75 -72 -66 -69 -66 -69 -66 -69 -66 -66 -66 -66 -63 -63 -63 -66 -63 -63 -60 -60 -63 -60 -60 -60 -63 -63 -66 -69 -69 -72 -72 -72 -72 -72 -72 -72 -75 -78 -75 -75 -75 -75 -72 -72 -72 -72 -72 -72 -72 -72 -75 -81 -81 -81 -78 -78 -81 -84 -84 -84 -84 -90 -90 -93 -96 -96 -96 -96 -96 -93 -96 -93 -93 -93 -90 -90 -87 -90 -87 -87 -84 -84 -81 -81 -81 -78 -75 -75 -75 -75 -75 -75 -75 -75 -72 -69 -69 -69 -60 -54 -48 -48 -48 -48 -39 -39 -36 -33 -36 -30 -30 -27 -27 -21 -21 -18 -12 -9 -6 -3 -3 -3 0 3 0 3 3 3 6 9 9 9 9 9 9 9 12 12 12 12 12 12 12 12 12 12 12 9 9 9 9 9 9 13 13 13 13 10 13 13 12 12 9 12 12 15 15 15 18 18 18 12 12 9 9 6 6 6 9 15 21 25 28 31 34 40 46 49 55 58 55 55 61 61 64 64 64 64 73 72 81 90 93 99 102 105 108 102 102 96 90 84 81 72 66 57 51 45 39 33 24 18 12 6 9 9 7 4 4 7 7 9 6 3 -3 -6 -9 -15 -18 -18 -18 -18 -18 -15 -18 -18 -18 -21 -24 -24 -24 -21 -21 -24 -21 -21 -24 -21 -24 -27 -27 -27 -30 -33 -33 -33 -30 -30 -30 -30 -33 -30 -30 -33 -33 -36 -39 -42 -42 -42 -45 -51 -57 -60 -60 -60 -66 -81 -96 -120 -147 -171 -219 -267 -309 -324 -297 -277 -223 -145 6 117 132 162 321 594 825 963 1050 1065 1056 1059 951 774 585 438 282 105 6 -33 -75 -144 -228 -265 -292 -274 -262 -226 -190 -172 -153 -135 -123 -120 -118 -112 -112 -112 -109 -109 -106 -106 -106 -103 -103 -100 -100 -100 -100 -97 -97 -97 -97 -97 -97 -100 -103 -103 -100 -97 -97 -97 -97 -97 -97 -97 -97 -100 -100 -97 -97 -94 -97 -97 -97 -97 -103 -103 -103 -103 -103 -100 -100 -100 -100 -100 -103 -103 -100 -100 -103 -103 -106 -103 -109 -109 -109 -112 -109 -106 -106 -106 -103 -103 -103 -106 -106 -106 -103 -96 -96 -102 -102 -102 -102 -99 -99 -99 -102 -96 -93 -96 -96 -93 -96 -96 -93 -93 -90 -84 -78 -75 -75 -69 -66 -63 -63 -60 -57 -54 -51 -48 -51 -51 -51 -51 -51 -54 -48 -46 -46 -46 -46 -43 -43 -40 -40 -40 -43 -40 -37 -37 -37 -37 -34 -37 -40 -37 -37 -31 -34 -34 -31 -31 -31 -34 -37 -37 -40 -37 -37 -37 -40 -40 -43 -43 -46 -43 -46 -43 -40 -40 -40 -42 -45 -48 -48 -54 -51 -51 -48 -51 -48 -39 -33 -18 -9 3 12 24 36 42 51 60 69 78 87 96 102 114 111 132 132 159 144 165 165 165 192 207 216 219 249 270 291 306 324 297 246 189 111 63 30 6 -78 -147 -255 -354 -366 -324 -297 -279 -381 -525 -672 -714 -714 -630 -633 -654 -528 -366 -255 -180 -138 -105 -111 -114 -150 -162 -192 -195 -222 -246 -288 -294 -282 -256 -244 -232 -208 -196 -181 -144 -120 -147 -129 -120 -117 -111 -102 -102 -96 -96 -96 -96 -99 -99 -99 -99 -99 -102 -102 -102 -102 -105 -105 -111 -111 -108 -111 -111 -114 -117 -120 -120 -126 -126 -126 -123 -123 -123 -120 -123 -123 -123 -126 -129 -126 -123 -120 -120 -117 -111 -105 -93 -90 -81 -72 -60 -51 -45 -36 -30 -24 -15 -6 3 12 24 33 42 48 57 66 72 81 90 96 108 117 126 132 132 132 132 129 126 123 123 123 120 120 111 108 102 93 87 75 69 60 51 45 36 27 21 15 6 0 -6 -12 -21 -30 -39 -48 -54 -63 -72 -72 -78 -78 -78 -81 -81 -81 -85 -82 -88 -91 -91 -94 -94 -97 -97 -94 -91 -91 -94 -94 -91 -88 -88 -91 -94 -91 -91 -91 -91 -88 -85 -85 -91 -88 -91 -94 -94 -97 -100 -100 -94 -94 -94 -94 -91 -91 -91 -94 -94 -91 -88 -91 -91 -94 -100 -100 -100 -100 -100 -97 -91 -88 -88 -88 -88 -88 -88 -91 -94 -94 -91 -94 -94 -91 -94 -91 -88 -88 -88 -82 -79 -76 -76 -76 -76 -73 -73 -76 -75 -75 -75 -72 -72 -69 -69 -69 -63 -63 -63 -63 -57 -54 -54 -57 -54 -51 -48 -48 -48 -45 -42 -42 -39 -39 -39 -36 -36 -36 -36 -36 -39 -39 -39 -42 -42 -36 -39 -36 -36 -33 -33 -30 -27 -27 -27 -24 -24 -27 -30 -33 -30 -21 -21 -20 -11 -5 4 12 18 21 24 30 27 30 33 36 39 39 42 45 51 51 57 66 75 81 93 99 99 99 99 93 87 84 72 66 54 45 33 24 18 12 0 -6 -15 -15 -18 -21 -21 -21 -21 -18 -15 -15 -18 -21 -24 -27 -36 -42 -42 -45 -51 -48 -48 -48 -48 -42 -45 -45 -45 -45 -45 -45 -45 -45 -42 -42 -42 -42 -42 -39 -42 -42 -42 -39 -39 -42 -45 -42 -39 -36 -39 -42 -42 -36 -36 -36 -39 -36 -36 -36 -42 -48 -48 -48 -51 -60 -75 -91 -118 -124 -169 -214 -283 -307 -292 -283 -253 -181 -48 135 243 228 267 471 720 903 1023 1077 1068 1071 1077 987 837 705 585 420 216 147 126 84 -9 -112 -171 -177 -181 -169 -157 -121 -124 -115 -109 -103 -99 -93 -90 -87 -84 -75 -72 -69 -69 -69 -66 -66 -66 -66 -66 -69 -69 -66 -72 -72 -72 -75 -75 -75 -75 -75 -72 -66 -69 -69 -72 -72 -72 -75 -78 -81 -91 -90 -82 -78 -70 -58 -46 -34 -19 -7 3 11 17 22 23 28 28 30 30 33 36 40 43 46 48 51 51 51 51 52 51 51 52 54 57 58 58 55 55 58 58 58 57 57 57 57 57 57 57 54 54 54 52 52 54 55 54 55 55 54 55 54 54 52 52 52 55 55 58 60 64 70 76 87 102 98 119 163 177 166 139 61 -30 -150 -285 -376 -409 -499 -570 -649 -693 -699 -724 -700 -697 -664 -627 -609 -540 -459 -355 -265 -222 -162 -96 -49 -5 26 26 -5 -4 -14 -1 -1 2 4 8 13 13 16 19 19 20 20 20 20 22 25 26 26 26 26 28 28 28 28 22 20 20 22 23 23 22 22 26 26 26 26 25 22 20 23 23 20 22 22 23 26 28 29 28 26 26 25 22 17 17 16 17 20 20 22 23 26 31 34 34 34 32 32 34 34 34 34 35 37 40 48 48 48 48 52 54 54 55 52 49 49 51 54 55 55 57 58 61 61 60 57 54 51 46 43 36 33 31 31 30 25 24 19 17 16 14 11 8 5 4 4 4 2 1 2 4 0 0 0 -1 -1 -1 -6 -4 -1 -1 2 4 2 1 1 -1 -6 -9 -10 -13 -12 -12 -15 -15 -15 -16 -18 -15 -15 -13 -9 -7 -4 -4 -1 1 -1 -1 -2 -4 -10 -11 -14 -19 -27 -30 -31 -36 -34 -34 -37 -39 -37 -40 -46 -51 -57 -64 -69 -72 -79 -84 -85 -87 -88 -90 -90 -90 -90 -91 -93 -97 -102 -102 -105 -106 -105 -103 -96 -87 -76 -64 -54 -40 -28 -16 -9 -3 5 11 14 19 23 22 23 27 28 27 28 31 31 33 37 37 36 34 36 34 36 36 36 36 34 34 34 33 34 34 33 34 37 42 42 42 39 37 36 34 31 28 28 30 33 39 39 39 43 45 48 49 51 49 49 49 54 60 66 71 78 106 104 107 146 181 177 128 61 -64 -201 -330 -372 -432 -496 -580 -637 -643 -652 -675 -681 -661 -654 -642 -564 -519 -456 -349 -270 -208 -171 -103 -42 2 23 31 20 5 13 14 11 14 19 19 22 23 26 26 31 31 31 29 29 29 29 28 29 29 32 38 43 43 43 43 43 43 43 42 42 45 46 48 49 49 51 51 49 51 52 52 54 54 54 54 55 55 52 52 54 54 57 60 61 63 63 63 63 61 60 57 57 58 58 63 66 67 69 72 72 69 69 69 70 70 70 69 70 73 75 75 75 79 82 85 84 84 82 84 85 85 84 82 87 90 87 85 81 79 76 75 70 70 70 72 67 64 60 57 57 54 51 46 42 39 35 35 34 34 34 32 34 39 39 40 42 42 42 40 41 45 45 46 46 45 45 46 45 45 40 38 38 41 43 43 43 46 54 54 55 57 57 58 58 61 58 60 60 60 60 58 58 58 57 56 52 50 49 49 47 44 46 44 40 34 29 26 23 19 13 4 2 2 2 -1 -7 -11 -10 -13 -19 -22 -25 -23 -22 -22 -23 -25 -19 -16 -13 -8 -2 5 14 25 35 46 54 60 69 73 81 87 93 96 99 102 103 105 105 105 102 105 106 109 109 109 109 112 115 115 112 112 115 118 120 118 118 118 121 123 118 117 115 115 118 118 118 118 118 115 115 115 112 108 108 106 106 103 105 106 108 111 115 114 111 114 120 124 127 132 148 151 151 181 210 211 195 151 74 -40 -180 -280 -330 -391 -469 -528 -571 -618 -640 -648 -642 -613 -609 -555 -501 -430 -342 -235 -186 -103 -61 -24 52 81 108 105 55 78 88 69 66 72 73 73 76 79 78 81 82 82 78 79 79 79 78 78 78 78 78 76 76 78 76 75 73 73 75 76 79 84 84 84 85 84 82 78 75 73 72 72 72 73 73 76 81 81 81 82 84 81 79 79 79 76 75 72 67 67 67 70 70 69 70 70 72 72 72 69 70 72 73 75 79 81 81 84 85 87 87 87 85 88 93 94 96 93 94 94 94 97 96 96 91 93 93 90 87 81 76 70 66 63 58 54 51 48 45 42 40 39 39 39 40 40 40 39 39 39 40 36 33 33 33 31 31 31 29 29 29 29 29 29 31 29 29 29 29 29 26 26 29 26 26 28 26 26 23 23 23 23 23 23 25 26 29 29 29 28 26 25 23 22 20 17 16 13 10 7 5 4 1 -1 -5 -8 -8 -13 -14 -20 -25 -28 -31 -37 -43 -46 -51 -52 -54 -54 -54 -52 -52 -52 -52 -57 -61 -66 -69 -72 -69 -66 -63 -54 -45 -34 -27 -15 -3 5 14 23 32 37 45 48 48 49 49 51 49 51 54 55 57 60 63 63 63 63 58 54 54 54 54 52 51 51 51 55 55 55 54 54 55 57 54 54 54 51 49 49 49 49 49 49 51 55 55 55 52 51 51 54 55 54 54 57 60 63 70 73 75 81 106 97 100 131 180 172 135 62 -23 -130 -262 -355 -396 -492 -537 -630 -679 -732 -745 -742 -708 -672 -640 -591 -517 -448 -345 -253 -211 -148 -93 -39 -1 41 40 4 -11 -17 -1 -1 4 8 14 22 29 34 37 37 34 34 34 34 34 35 32 31 34 37 38 42 42 40 41 41 40 41 40 38 38 34 34 34 34 34 32 32 32 32 32 35 35 35 38 38 37 40 40 40 40 40 38 38 41 43 40 42 42 40 40 37 37 37 40 40 40 40 40 46 46 46 51 52 52 54 55 57 60 61 61 64 66 69 73 76 79 79 79 81 81 82 85 82 82 81 79 78 76 73 66 66 67 66 66 63 58 55 54 51 43 39 37 39 39 39 37 39 39 39 39 34 31 34 34 37 40 40 37 39 39 37 36 36 33 33 33 31 30 30 28 26 28 28 26 26 29 33 31 31 31 29 29 31 31 28 29 29 29 31 33 37 40 40 40 37 39 37 36 36 34 31 29 29 29 28 25 22 17 13 10 10 8 7 5 4 -2 -7 -11 -17 -25 -31 -37 -43 -45 -52 -58 -60 -60 -61 -66 -67 -64 -66 -61 -61 -63 -66 -69 -73 -75 -75 -72 -66 -57 -48 -34 -21 -9 0 7 11 17 25 29 31 34 34 37 40 45 43 42 42 46 48 49 49 51 52 55 55 55 54 55 61 64 64 61 61 61 63 63 58 54 54 54 52 54 54 55 58 58 58 55 58 58 58 57 55 52 54 54 52 54 57 58 60 60 64 70 79 87 97 112 120 136 156 199 174 132 105 -14 -135 -264 -334 -375 -429 -526 -624 -670 -697 -718 -723 -687 -691 -666 -580 -511 -442 -339 -250 -192 -124 -66 -31 7 44 47 11 17 11 10 10 13 19 25 29 34 40 43 43 42 43 45 45 46 46 46 46 46 45 45 45 45 45 45 43 43 45 45 46 45 43 45 43 43 43 42 40 39 39 39 37 37 37 39 40 40 40 42 42 42 40 40 38 38 38 37 37 42 43 46 46 46 48 45 45 45 43 43 48 49 51 55 58 61 64 64 63 66 66 66 69 72 78 76 78 78 79 81 81 79 75 75 73 73 73 70 70 64 63 60 57 55 48 48 43 37 36 31 31 31 29 29 25 25 25 25 23 20 20 17 16 19 19 16 16 19 17 17 19 19 17 17 17 17 14 11 10 10 10 8 7 7 7 5 7 7 5 5 7 5 4 2 2 4 5 5 4 7 10 13 11 11 14 17 17 19 16 13 13 11 8 5 2 4 4 4 4 4 4 2 -1 -4 -8 -8 -11 -16 -19 -24 -27 -30 -36 -42 -46 -54 -63 -69 -75 -79 -84 -87 -90 -87 -85 -85 -88 -88 -90 -93 -94 -102 -108 -109 -108 -103 -99 -96 -91 -81 -72 -61 -51 -42 -36 -28 -19 -12 -7 -1 0 5 6 8 9 13 14 17 19 21 22 22 24 25 25 25 25 27 28 30 31 31 33 34 31 31 31 31 33 34 31 28 28 28 28 27 25 25 25 30 30 31 33 33 33 30 30 30 31 33 31 31 33 34 36 42 47 55 65 90 98 101 136 180 145 127 68 -23 -135 -255 -367 -402 -450 -517 -621 -660 -699 -759 -729 -703 -687 -657 -619 -556 -486 -408 -313 -237 -175 -112 -84 -23 43 14 -10 -1 1 -8 -7 -2 -1 1 4 8 16 14 11 10 8 8 10 11 11 13 17 19 19 19 16 17 17 16 10 8 8 10 13 13 11 10 13 10 8 7 5 7 5 5 5 7 8 10 10 10 8 7 8 5 1 -2 -4 -4 -5 -2 -2 -2 2 2 4 4 4 1 -1 -1 -2 -2 1 2 4 11 14 16 16 17 16 16 16 14 14 14 14 13 13 16 17 19 20 23 23 23 25 23 20 17 14 11 8 3 0 -3 -9 -12 -15 -18 -22 -27 -27 -27 -28 -25 -27 -28 -30 -30 -33 -40 -43 -43 -45 -42 -39 -37 -37 -36 -36 -36 -37 -39 -43 -45 -48 -49 -49 -49 -48 -48 -48 -46 -46 -46 -49 -51 -54 -55 -55 -55 -57 -57 -60 -58 -55 -52 -49 -49 -49 -46 -45 -45 -45 -45 -48 -46 -45 -46 -46 -46 -45 -43 -45 -46 -48 -45 -46 -48 -49 -55 -57 -57 -57 -60 -61 -67 -69 -70 -70 -73 -76 -76 -81 -81 -82 -87 -93 -99 -103 -109 -118 -124 -130 -135 -135 -138 -139 -141 -144 -144 -147 -148 -148 -150 -150 -150 -148 -144 -142 -136 -132 -121 -114 -103 -93 -79 -69 -58 -48 -40 -36 -28 -24 -24 -22 -21 -18 -18 -19 -19 -19 -18 -15 -12 -10 -7 -6 -3 -1 0 0 3 6 8 6 6 9 11 14 19 19 21 21 21 21 24 24 24 24 22 24 27 28 30 30 30 30 31 31 30 31 33 34 36 37 39 42 49 57 66 82 94 98 125 152 186 150 124 64 -64 -180 -300 -358 -412 -489 -555 -618 -660 -658 -688 -691 -660 -669 -657 -603 -552 -498 -393 -297 -229 -177 -114 -61 -26 37 38 41 16 4 5 16 13 10 10 11 13 17 17 14 16 17 20 20 22 20 16 16 16 16 12 11 9 6 3 2 0 -4 -6 -12 -12 -12 -10 -12 -12 -15 -16 -21 -24 -27 -30 -36 -39 -39 -43 -49 -49 -55 -58 -58 -58 -61 -63 -63 -63 -64 -66 -69 -73 -78 -79 -81 -85 -85 -87 -88 -91 -91 -94 -96 -96 -97 -102 -106 -108 -109 -111 -114 -114 -111 -112 -112 -114 -115 -114 -117 -120 -126 -132 -135 -136 -136 -142 -147 -153 -157 -163 -169 -174 -183 -187 -190 -195 -199 -205 -213 -219 -226 -234 -240 -249 -258 -264 -265 -271 -277 -283 -289 -291 -297 -300 -304 -313 -316 -321 -324 -330 -337 -340 -343 -349 -354 -357 -360 -366 -370 -375 -381 -384 -387 -394 -399 -403 -408 -412 -417 -423 -427 -429 -432 -438 -441 -444 -445 -447 -453 -462 -466 -469 -472 -474 -480 -489 -492 -495 -499 -501 -508 -516 -520 -523 -528 -534 -538 -546 -553 -559 -565 -574 -582 -586 -594 -598 -604 -615 -622 -628 -639 -651 -663 -670 -684 -691 -700 -711 -720 -727 -735 -745 -753 -759 -766 -772 -777 -784 -793 -799 -804 -810 -814 -814 -816 -807 -795 -780 -766 -747 -726 -702 -678 -655 -634 -610 -591 -565 -546 -529 -514 -501 -484 -469 -454 -439 -430 -417 -405 -388 -373 -358 -348 -337 -327 -315 -306 -297 -289 -282 -274 -265 -258 -250 -241 -232 -223 -217 -211 -201 -195 -186 -178 -171 -163 -154 -144 -138 -132 -124 -115 -106 -97 -88 -81 -70 -57 -42 -34 -24 -13 0 13 26 41 58 78 102 119 144 183 219 198 187 138 32 -96 -190 -252 -286 -355 -441 -510 -517 -548 -559 -529 -511 -490 -440 -405 -320 -239 -143 -41 29 94 156 235 271 310 340 304 312 295 306 322 330 336 343 352 361 369 373 378 384 390 397 403 408 412 418 424 429 435 438 441 444 445 448 451 456 457 459 466 469 472 477 477 478 481 483 484 484 484 487 490 493 495 498 499 502 504 505 505 507 510 511 511 516 516 517 517 519 520 520 520 517 516 517 517 519 520 523 526 528 532 534 534 534 535 538 538 540 540 538 541 541 541 543 543 543 546 543 544 544 544 543 540 535 529 529 529 526 525 519 511 507 499 493 486 481 477 469 468 465 463 460 457 453 444 444 441 438 436 433 432 430 429 427 427 420 417 412 408 403 402 400 393 390 391 391 391 388 388 384 384 381 379 373 372 370 367 364 360 360 360 358 358 354 351 351 351 351 345 342 340 340 339 339 334 330 328 327 325 321 316 316 313 310 307 307 300 297 294 289 282 279 274 267 259 256 249 241 235 231 225 217 208 202 195 189 181 174 163 156 154 153 147 144 141 139 138 135 130 126 121 123 126 124 127 133 139 147 156 162 166 174 184 190 193 199 202 205 207 208 207 205 207 205 204 205 210 211 213 213 214 214 214 214 211 211 211 211 210 207 205 205 205 207 202 199 199 199 202 202 199 198 198 198 198 195 193 192 192 195 192 190 190 189 189 190 192 192 193 195 195 201 207 214 225 237 249 271 291 319 340 315 283 205 100 -33 -114 -222 -261 -321 -441 -514 -559 -576 -604 -550 -508 -499 -472 -388 -354 -264 -166 -81 -10 55 82 127 186 219 196 165 159 147 165 166 171 175 181 186 189 190 190 192 192 190 190 189 192 192 192 192 193 193 192 189 187 186 186 183 180 175 175 177 177 177 181 183 181 178 175 174 171 168 163 160 160 163 163 163 163 159 160 160 156 156 157 156 157 157 157 157 159 159 157 157 156 156 156 156 151 151 150 151 150 151 153 156 157 159 159 160 162 163 162 162 163 165 165 166 166 165 165 168 166 168 168 166 162 162 160 156 151 147 145 144 144 142 138 136 133 127 121 120 115 114 111 109 105 103 103 102 100 100 97 96 96 97 97 97 97 96 94 94 94 91 91 90 88 87 87 87 84 82 81 81 81 79 79 79 81 81 81 75 73 76 79 79 75 73 73 75 75 76 76 75 75 75 73 73 73 72 70 64 61 61 63 64 64 64 64 67 66 63 61 60 55 49 46 43 41 38 34 29 23 20 17 13 5 -1 -5 -8 -17 -22 -25 -31 -35 -37 -39 -43 -46 -45 -46 -49 -51 -52 -52 -54 -57 -55 -54 -49 -46 -42 -34 -25 -13 -4 6 13 19 28 33 34 37 39 42 43 43 46 48 48 51 51 51 49 49 52 54 57 58 58 61 66 70 67 66 66 66 66 64 60 55 55 55 55 52 54 54 55 55 58 58 58 58 58 57 55 55 54 52 54 55 58 58 60 58 58 64 67 73 81 88 102 133 120 166 198 189 157 89 4 -109 -265 -340 -352 -405 -495 -618 -685 -715 -760 -745 -681 -673 -643 -586 -516 -435 -297 -262 -181 -133 -81 -25 11 28 56 11 4 -14 11 10 14 17 25 28 34 37 38 38 38 37 37 38 40 40 37 37 37 37 37 34 34 36 34 34 35 35 34 35 35 34 32 32 32 32 31 31 29 31 32 35 37 35 35 35 35 34 32 28 22 23 25 25 25 26 28 32 34 34 34 32 32 32 32 31 31 31 32 32 34 35 39 39 40 40 40 40 42 43 45 46 49 51 51 51 51 51 49 49 49 49 52 55 55 55 55 54 52 51 46 42 39 37 34 33 30 25 23 20 20 17 13 13 10 10 8 5 5 5 7 5 5 5 4 5 7 7 7 8 10 8 8 10 8 5 4 1 -3 -3 -1 -1 -1 -1 -1 -1 -1 1 1 0 -3 -1 2 3 6 6 5 3 3 5 7 7 7 7 5 5 3 5 5 5 4 2 8 10 11 10 8 8 7 7 5 0 -1 -1 -2 -5 -10 -13 -15 -19 -19 -22 -24 -25 -25 -31 -34 -43 -48 -57 -64 -76 -85 -91 -93 -96 -99 -100 -100 -100 -99 -99 -100 -102 -105 -106 -108 -111 -109 -109 -109 -105 -99 -90 -81 -73 -63 -52 -40 -30 -24 -19 -18 -12 -7 -6 -4 -3 0 3 6 8 6 5 6 6 8 9 12 11 12 14 14 14 14 11 6 5 5 5 2 2 2 2 0 0 2 -3 -4 -3 -3 -3 -4 -6 -9 -7 -6 -7 -9 -9 -9 -9 -10 -12 -10 -9 -12 -13 -10 -4 2 11 11 58 40 58 110 104 95 52 -8 -112 -249 -372 -423 -463 -553 -648 -690 -709 -744 -783 -781 -759 -736 -699 -658 -619 -520 -421 -345 -306 -246 -180 -118 -78 -82 -75 -65 -90 -99 -81 -81 -82 -79 -78 -76 -75 -76 -75 -78 -79 -79 -81 -84 -84 -84 -85 -85 -85 -85 -87 -91 -93 -94 -97 -99 -102 -105 -105 -102 -97 -97 -103 -106 -106 -111 -114 -120 -126 -127 -126 -126 -127 -127 -124 -124 -123 -123 -124 -127 -130 -130 -133 -135 -138 -138 -139 -139 -139 -138 -136 -136 -138 -138 -139 -138 -138 -141 -144 -144 -144 -142 -144 -145 -147 -148 -145 -142 -144 -144 -145 -147 -148 -147 -145 -145 -142 -139 -139 -139 -139 -141 -145 -147 -151 -156 -160 -162 -166 -169 -174 -175 -180 -184 -189 -190 -192 -193 -198 -198 -201 -202 -208 -214 -217 -222 -223 -225 -228 -232 -235 -235 -237 -237 -241 -243 -240 -231 -222 -210 -199 -192 -184 -174 -166 -162 -162 -157 -154 -151 -145 -142 -136 -132 -129 -123 -120 -118 -117 -117 -115 -117 -115 -115 -115 -111 -108 -108 -106 -103 -105 -102 -97 -97 -97 -97 -93 -91 -90 -84 -82 -84 -85 -85 -82 -81 -82 -82 -85 -85 -87 -88 -90 -93 -93 -88 -85 -81 -72 -64 -57 -51 -46 -45 -43 -45 -44 -46 -49 -53 -53 -52 -50 -50 -50 -49 -47 -40 -34 -31 -32 -28 -23 -14 -5 2 13 25 40 54 70 85 96 108 117 126 135 145 154 160 165 168 172 177 178 181 184 192 196 202 205 210 214 220 223 225 231 232 238 238 238 240 243 243 246 244 246 250 253 258 262 265 264 264 264 265 267 270 270 270 268 270 270 273 274 276 280 282 288 291 292 292 294 300 303 309 306 340 334 346 400 411 414 385 292 198 47 -65 -119 -169 -227 -313 -392 -401 -425 -472 -430 -419 -415 -374 -344 -287 -196 -83 2 34 124 159 195 240 312 291 262 243 241 246 240 243 243 241 241 244 246 246 247 249 249 249 250 249 247 244 244 238 234 232 231 231 231 231 231 231 232 234 234 229 226 226 226 222 216 211 208 205 205 202 199 198 198 196 195 195 193 192 193 193 192 193 196 195 192 192 189 187 184 184 184 183 186 183 183 184 187 187 184 184 181 183 184 189 186 184 184 186 187 187 187 187 187 187 187 187 187 187 189 187 186 186 187 187 187 181 174 168 166 157 154 151 147 141 139 135 133 130 126 121 117 111 105 102 100 94 91 90 88 88 90 93 91 91 91 93 91 90 87 84 82 84 87 87 87 90 90 88 85 82 76 73 73 67 61 64 64 64 66 66 66 67 72 72 67 67 67 67 63 63 63 63 67 69 70 70 69 69 69 64 60 55 51 48 45 45 40 37 35 32 32 31 29 28 23 20 14 11 5 -2 -8 -14 -16 -20 -25 -29 -34 -34 -38 -41 -43 -44 -43 -44 -46 -46 -46 -46 -46 -45 -40 -37 -28 -18 -7 1 13 20 28 38 45 49 54 58 64 66 69 70 70 72 72 72 72 70 70 72 73 76 76 75 76 76 78 79 82 82 81 82 82 82 84 84 84 85 85 85 85 84 85 84 84 84 84 85 87 87 88 88 90 91 96 96 96 97 100 102 102 105 108 112 121 130 147 151 162 196 235 210 187 157 76 -78 -214 -295 -334 -408 -472 -562 -621 -658 -669 -667 -622 -621 -601 -546 -484 -402 -313 -220 -156 -85 -14 13 55 115 127 96 59 38 70 69 70 75 79 82 87 88 90 88 87 88 88 88 88 87 87 87 88 90 90 88 88 90 91 91 91 90 87 88 90 90 88 88 88 88 85 85 88 90 85 84 84 84 84 82 76 73 73 73 73 73 73 75 75 75 75 73 73 72 73 73 73 76 79 82 84 85 85 85 88 88 87 88 90 90 90 91 91 93 94 96 96 97 103 105 108 108 109 111 111 111 108 105 102 102 102 97 90 90 90 85 85 82 79 76 76 75 69 67 66 64 61 61 60 60 57 57 58 55 54 52 51 51 51 52 51 49 51 48 48 49 48 51 54 54 51 51 51 49 49 46 40 40 40 40 40 40 40 40 39 39 39 39 39 39 37 34 34 34 35 37 37 40 40 42 43 46 48 48 48 46 46 46 46 46 45 45 46 46 46 45 45 45 43 38 31 29 26 20 13 10 5 4 4 1 -5 -10 -13 -19 -25 -29 -36 -40 -45 -49 -52 -54 -52 -54 -54 -54 -54 -57 -57 -58 -60 -63 -67 -70 -73 -70 -64 -57 -51 -42 -30 -16 -4 7 14 20 28 34 39 43 45 48 49 51 54 55 55 55 58 64 69 73 73 73 75 79 82 82 78 78 79 81 84 85 84 85 87 87 87 88 90 90 90 88 85 85 85 84 79 79 78 78 79 78 76 76 76 75 75 75 76 76 79 82 87 91 97 111 114 132 150 195 214 198 139 61 -23 -159 -292 -339 -378 -454 -567 -634 -691 -756 -766 -735 -715 -724 -654 -583 -561 -450 -346 -267 -217 -130 -117 -99 -50 -7 -31 -55 -67 -52 -52 -49 -46 -40 -30 -25 -22 -19 -19 -20 -20 -19 -19 -19 -17 -17 -16 -16 -13 -13 -11 -14 -14 -14 -11 -11 -10 -5 -2 -4 -2 -2 -2 -2 -2 -2 -2 -2 -4 -4 -5 -5 -7 -8 -8 -8 -8 -5 -5 -5 -8 -8 -7 -7 -7 -7 -4 1 4 8 8 10 10 14 16 19 22 25 26 28 29 32 38 40 40 43 44 44 50 52 55 55 58 61 67 70 72 78 78 79 82 81 79 79 81 79 76 78 78 73 73 70 69 66 63 58 54 51 49 48 43 42 40 39 39 39 39 36 34 31 26 26 26 26 25 25 23 23 23 25 23 22 22 22 19 20 22 20 22 22 19 17 17 19 19 19 17 16 16 17 16 16 16 17 17 19 19 20 22 23 22 23 23 23 28 30 31 31 34 36 39 43 45 43 48 57 67 78 87 100 109 121 136 144 151 156 160 165 172 187 199 192 229 262 264 298 321 363 414 430 459 475 510 534 547 594 637 670 693 712 732 753 741 769 811 895 888 906 928 937 949 966 948 966 1005 1045 1039 1003 952 924 865 760 685 621 556 484 435 408 373 334 337 262 240 223 211 202 196 151 113 83 50 14 -16 -41 -87 -135 -109 -121 -132 -142 -148 -159 -168 -171 -180 -189 -192 -196 -202 -208 -214 -220 -222 -228 -234 -243 -247 -253 -259 -268 -279 -286 -295 -303 -310 -318 -327 -333 -339 -348 -358 -364 -373 -384 -394 -406 -418 -429 -439 -453 -466 -474 -486 -499 -511 -523 -535 -546 -556 -570 -585 -595 -604 -615 -621 -630 -637 -642 -646 -651 -657 -664 -669 -672 -670 -669 -672 -670 -663 -657 -648 -640 -633 -627 -615 -606 -597 -583 -570 -556 -541 -523 -504 -483 -460 -441 -420 -397 -373 -349 -328 -309 -289 -268 -249 -232 -217 -199 -186 -177 -162 -147 -133 -120 -106 -90 -78 -58 -51 -42 -36 -27 -21 -16 -13 -13 -8 -1 2 4 7 8 14 16 16 17 19 22 23 23 22 23 23 25 23 22 22 22 22 20 16 16 19 20 22 23 23 25 26 29 26 26 29 29 31 31 31 26 26 28 26 28 28 26 29 32 32 32 32 31 28 26 29 32 32 32 32 34 35 35 34 32 29 31 32 37 38 41 41 41 40 41 41 38 38 34 34 38 45 45 45 46 49 54 54 54 54 54 54 54 51 49 49 51 49 48 46 46 49 51 49 49 51 51 54 55 55 55 55 55 54 51 51 49 49 46 42 40 37 39 36 34 30 27 27 28 28 24 25 27 28 24 24 17 13 10 5 -3 -9 -10 -12 -15 -16 -21 -25 -30 -34 -40 -48 -52 -58 -64 -67 -72 -82 -85 -88 -91 -97 -100 -103 -106 -106 -105 -108 -111 -114 -118 -118 -120 -117 -114 -108 -99 -88 -73 -60 -49 -40 -31 -25 -24 -22 -22 -21 -19 -18 -16 -15 -12 -12 -10 -10 -12 -12 -12 -12 -15 -16 -16 -16 -16 -16 -16 -16 -16 -12 -15 -15 -15 -12 -13 -15 -15 -18 -19 -19 -18 -22 -24 -28 -30 -28 -30 -33 -36 -39 -39 -34 -33 -33 -33 -27 -24 -24 -24 -22 -18 -13 -8 -1 8 13 17 58 85 98 118 73 13 -75 -217 -322 -372 -415 -487 -576 -628 -655 -694 -687 -655 -655 -658 -628 -538 -499 -414 -306 -214 -141 -108 -55 32 102 102 76 70 55 22 50 49 52 55 60 66 70 78 79 81 79 81 81 81 79 79 79 82 85 87 87 88 91 91 94 96 99 96 93 96 94 97 99 102 103 103 112 117 118 123 31 32 35 35 38 32 31 25 17 11 8 7 3 -2 -5 -9 -9 -7 -7 -4 -1 3 2 0 2 0 0 0 0 -3 -4 -4 -3 -1 -3 -1 -1 5 5 3 3 3 2 2 2 2 2 2 2 3 3 3 6 6 8 9 12 14 14 17 14 12 12 11 15 15 18 18 21 27 32 42 57 68 69 117 138 135 126 120 129 129 97 49 35 56 46 -26 -160 -284 -377 -415 -427 -452 -467 -407 -302 -181 -125 -53 23 86 89 91 107 163 180 166 162 171 154 121 112 99 84 72 63 54 49 43 37 37 34 34 34 34 36 34 36 36 36 36 37 37 37 37 40 39 39 40 42 42 45 45 40 40 40 40 43 45 43 46 51 52 49 49 46 45 42 43 42 40 45 48 49 54 54 52 54 52 52 49 51 49 49 48 48 48 46 46 48 48 48 48 49 46 45 38 38 38 38 33 30 30 27 29 30 26 23 21 18 18 20 21 20 20 18 20 17 14 9 6 8 5 3 3 2 2 5 4 3 1 0 -3 -6 -5 -6 -6 -6 -8 -9 -8 -6 -4 -4 -4 -1 -1 -1 -1 -4 -5 -5 -8 -6 -8 -9 -9 -11 -10 -13 -14 -13 -16 -16 -14 -14 -14 -11 -8 -10 -10 -4 -8 -7 -8 -8 -11 -9 -11 -15 -17 -18 -20 -21 -24 -23 -22 -25 -26 -26 -29 -29 -32 -29 -32 -35 -32 -28 -25 -23 -23 -22 -20 -25 -26 -28 -29 -31 -31 -31 -31 -28 -25 -16 -7 2 8 16 22 28 31 31 28 26 23 19 13 7 5 2 1 -3 -5 -9 -9 -6 0 -1 0 3 5 8 8 9 9 9 8 6 8 6 8 8 8 8 6 6 6 9 11 11 9 11 9 9 9 9 6 5 8 11 12 14 14 11 14 11 11 11 11 12 15 21 23 30 30 35 39 45 56 67 68 83 127 153 169 126 126 138 115 98 43 4 7 -31 -109 -220 -353 -445 -476 -481 -473 -494 -433 -317 -244 -167 -104 -7 28 35 50 68 107 124 132 135 142 145 117 96 88 78 64 60 54 51 49 49 45 45 45 43 43 43 43 42 43 43 42 39 33 33 33 29 24 24 24 27 27 26 27 29 30 30 32 27 26 27 29 29 30 30 35 35 36 36 38 38 35 35 33 36 38 39 39 39 39 38 41 42 42 44 44 44 42 44 45 48 48 50 50 50 47 47 47 45 42 41 42 42 42 42 41 39 38 38 36 33 30 26 24 27 27 26 23 21 21 20 17 11 6 6 2 -1 -1 0 0 -3 -3 -6 -9 -13 -18 -21 -24 -29 -30 -30 -30 -27 -26 -25 -25 -28 -31 -31 -31 -33 -36 -37 -37 -36 -36 -33 -33 -36 -37 -37 -38 -39 -39 -41 -39 -39 -39 -40 -42 -42 -40 -43 -48 -46 -46 -48 -46 -49 -49 -49 -49 -55 -60 -60 -61 -66 -66 -68 -69 -69 -66 -69 -72 -74 -74 -75 -75 -74 -77 -77 -74 -74 -75 -80 -80 -87 -89 -93 -96 -99 -96 -95 -93 -92 -86 -81 -74 -66 -60 -53 -50 -45 -44 -41 -36 -39 -42 -45 -51 -54 -58 -58 -64 -63 -66 -63 -60 -57 -55 -54 -54 -54 -52 -49 -48 -49 -49 -49 -45 -46 -43 -43 -42 -42 -43 -40 -43 -40 -40 -40 -42 -45 -45 -42 -43 -43 -45 -45 -45 -45 -45 -43 -43 -43 -42 -42 -42 -43 -43 -42 -40 -39 -37 -34 -34 -31 -25 -22 -16 -7 5 18 21 56 83 104 114 93 99 96 79 37 -35 -55 -37 -85 -208 -338 -472 -545 -568 -575 -587 -590 -509 -406 -302 -250 -179 -91 -64 -62 -52 8 38 62 71 72 96 68 38 41 33 21 14 9 3 2 5 3 5 5 5 6 6 6 5 5 0 0 0 -1 -1 0 3 6 9 9 11 12 11 6 6 6 8 6 5 5 6 9 8 8 8 9 14 17 17 17 21 23 24 26 24 24 24 26 24 21 26 26 30 29 29 32 33 33 35 35 35 36 38 39 36 38 38 39 39 38 35 32 32 32 30 29 29 30 27 29 26 26 26 24 23 23 23 20 20 17 14 17 17 15 11 12 12 12 9 6 3 0 -1 -7 -12 -12 -10 -10 -10 -12 -12 -12 -10 -10 -13 -13 -13 -15 -15 -15 -17 -17 -17 -17 -17 -17 -15 -17 -17 -17 -21 -21 -20 -20 -21 -20 -20 -18 -15 -15 -14 -14 -14 -14 -14 -14 -17 -15 -21 -21 -21 -23 -20 -21 -23 -24 -26 -24 -26 -29 -32 -35 -32 -33 -36 -38 -38 -41 -41 -36 -38 -35 -35 -38 -41 -37 -38 -41 -46 -47 -49 -49 -49 -47 -47 -43 -38 -29 -25 -16 -10 -4 -1 2 5 5 10 7 5 -1 -7 -5 -9 -14 -18 -22 -24 -21 -21 -15 -10 -9 -6 -9 -10 -9 -7 -9 -10 -10 -10 -10 -6 -6 -6 -10 -10 -12 -13 -13 -13 -13 -13 -13 -10 -10 -9 -7 -6 -6 -6 -4 -6 -6 -6 -6 -6 -6 -4 -9 -9 -9 -3 0 0 3 9 12 12 15 14 17 24 36 42 53 51 106 136 132 143 117 125 130 103 55 8 10 41 -19 -172 -332 -445 -488 -506 -508 -532 -491 -383 -257 -175 -124 -38 31 37 41 74 115 148 136 153 144 138 114 94 85 72 63 55 49 43 39 37 37 34 34 34 34 34 31 33 36 34 33 34 32 32 36 37 37 36 37 40 39 39 39 39 39 39 39 37 37 37 37 37 36 36 36 34 34 33 30 30 30 30 30 34 34 37 33 36 32 32 36 36 37 37 37 40 40 40 40 40 36 36 36 32 29 29 30 27 24 23 24 24 23 24 23 23 21 20 20 20 21 21 18 17 14 14 12 11 9 8 9 11 6 8 6 6 3 3 5 3 0 2 2 0 -3 -3 -3 -4 -7 -7 -7 -12 -12 -10 -12 -12 -13 -15 -15 -13 -12 -12 -9 -10 -10 -9 -9 -9 -10 -7 -7 -9 -11 -14 -14 -11 -11 -12 -13 -10 -10 -10 -12 -12 -15 -15 -14 -12 -12 -12 -10 -13 -13 -15 -15 -15 -13 -16 -18 -15 -15 -16 -15 -17 -21 -21 -23 -26 -29 -29 -29 -32 -32 -33 -35 -36 -38 -35 -35 -35 -32 -29 -31 -32 -34 -35 -34 -35 -37 -37 -38 -34 -31 -32 -29 -29 -25 -22 -11 -5 4 11 16 23 25 25 25 20 11 5 1 -3 -8 -11 -17 -17 -15 -16 -16 -13 -10 -10 -7 -9 -9 -9 -7 -10 -10 -13 -12 -13 -13 -13 -15 -13 -12 -13 -13 -12 -12 -12 -15 -15 -15 -10 -10 -10 -12 -15 -15 -13 -15 -15 -15 -9 -10 -10 -10 -7 -4 -3 -1 -1 -3 -1 2 3 5 5 5 11 20 32 42 48 83 104 114 113 101 113 95 94 50 25 31 62 -10 -143 -290 -395 -440 -452 -452 -475 -407 -296 -197 -115 -59 22 83 88 88 106 154 174 157 169 156 139 111 96 82 72 60 52 43 39 36 33 33 32 29 30 30 32 32 32 32 32 35 35 35 35 35 35 33 33 30 30 27 26 24 26 29 29 29 32 30 29 29 29 27 27 27 29 30 30 30 32 32 32 30 30 34 34 34 33 33 32 33 32 32 32 33 35 35 35 33 33 29 26 23 23 21 20 18 18 17 15 15 15 9 8 5 3 0 0 -3 -6 -6 -7 -7 -7 -4 -4 -4 -7 -7 -4 -6 -4 -7 -9 -7 -7 -7 -9 -10 -10 -10 -10 -12 -12 -8 -8 -8 -8 -9 -8 -8 -6 -8 -9 -9 -8 -8 -9 -11 -11 -9 -9 -11 -11 -11 -11 -9 -12 -9 -9 -9 -11 -12 -12 -12 -9 -12 -12 -14 -14 -12 -14 -15 -12 -12 -11 -9 -9 -11 -12 -9 -11 -12 -12 -14 -15 -15 -14 -17 -15 -15 -12 -15 -14 -12 -15 -15 -15 -15 -15 -15 -17 -20 -23 -23 -23 -26 -26 -29 -28 -26 -25 -26 -23 -23 -22 -22 -19 -20 -20 -20 -23 -26 -28 -26 -26 -20 -20 -17 -11 -4 7 14 22 28 32 37 40 40 37 37 34 26 22 23 22 17 16 11 8 5 1 2 4 5 3 4 7 9 11 12 12 9 6 6 6 6 3 0 2 3 3 5 6 8 8 8 8 5 6 8 9 9 9 9 12 15 15 15 15 15 17 18 18 18 20 20 20 17 18 21 21 23 24 26 32 43 55 66 66 108 129 132 129 113 132 123 108 73 29 38 85 32 -80 -224 -335 -383 -385 -404 -433 -403 -305 -173 -97 -62 38 106 101 113 118 173 198 174 190 171 157 132 127 115 102 90 82 76 67 61 60 57 55 54 54 55 57 57 58 54 55 55 55 57 58 58 57 60 58 58 60 58 58 61 64 63 64 63 61 64 61 60 60 60 61 63 64 64 64 67 70 72 73 73 75 78 78 76 75 75 75 75 75 72 72 72 73 72 72 70 70 69 70 72 70 69 70 70 67 66 66 61 60 55 55 55 54 54 57 54 55 57 51 51 51 48 46 43 40 37 34 36 35 32 29 32 34 35 37 37 41 41 41 40 38 37 35 34 34 31 32 34 34 32 31 29 31 35 37 37 37 35 38 38 37 34 32 32 37 38 38 38 40 40 40 41 40 41 40 40 40 38 38 40 41 40 38 37 37 41 40 41 41 41 41 47 49 46 49 49 49 46 43 41 40 38 32 31 29 28 31 29 29 29 31 29 32 31 29 29 26 23 23 23 23 26 26 29 32 32 31 31 25 19 14 10 7 5 8 10 10 16 19 23 31 35 44 46 50 56 53 53 50 49 46 43 38 35 32 29 28 23 22 17 17 14 16 14 14 17 17 22 23 22 20 22 20 17 20 17 19 19 17 16 13 11 11 10 11 10 9 9 11 11 11 11 5 5 5 5 8 5 3 5 6 6 6 6 3 3 6 8 9 11 12 14 15 23 30 38 51 50 75 112 139 153 122 126 120 105 71 10 -16 -16 -34 -115 -253 -397 -470 -505 -499 -515 -524 -461 -418 -323 -245 -182 -91 -17 -4 -1 13 52 114 118 138 100 97 90 82 66 58 51 42 34 31 27 27 24 21 22 21 21 18 16 21 21 21 21 22 20 23 20 22 20 19 23 26 29 29 29 31 34 38 40 38 38 40 46 47 46 47 47 52 55 55 58 59 59 59 61 59 64 68 67 70 71 76 80 79 82 82 82 85 83 85 85 91 94 94 92 92 97 95 98 101 103 103 106 109 109 112 115 112 109 106 109 107 109 112 112 115 119 122 122 125 124 124 124 124 121 121 121 124 121 124 121 122 121 125 125 124 122 125 124 127 130 128 131 133 133 133 134 134 136 139 140 142 143 146 151 152 154 157 157 161 164 166 167 173 173 178 182 182 182 185 185 188 190 193 190 191 194 197 200 205 205 206 208 211 209 214 215 217 217 220 226 227 232 238 238 241 245 247 248 247 245 245 247 247 248 248 251 254 256 254 257 259 265 266 271 272 272 275 275 272 269 272 274 272 278 281 286 292 301 308 313 325 334 343 350 350 353 350 350 343 332 320 308 299 289 277 269 259 251 245 242 242 236 233 230 223 218 214 208 197 190 182 175 172 169 163 158 158 152 151 149 145 143 137 137 133 128 125 122 115 112 107 106 104 103 98 95 92 89 83 79 74 65 61 59 56 52 53 52 49 46 46 40 45 51 58 68 92 115 120 114 114 111 119 92 69 13 -41 -49 -61 -152 -292 -451 -563 -590 -605 -629 -647 -603 -522 -409 -348 -290 -162 -132 -134 -136 -115 -67 -22 -10 -30 -30 -22 -43 -60 -75 -85 -97 -108 -117 -126 -132 -136 -141 -144 -147 -148 -156 -156 -160 -159 -162 -162 -165 -166 -168 -169 -172 -174 -175 -180 -178 -181 -183 -184 -186 -186 -186 -184 -186 -189 -192 -192 -192 -189 -190 -192 -195 -192 -190 -192 -195 -193 -193 -192 -193 -192 -192 -192 -192 -190 -190 -189 -192 -192 -192 -190 -192 -195 -195 -193 -192 -193 -195 -193 -193 -192 -192 -196 -199 -196 -196 -195 -195 -196 -198 -198 -198 -201 -201 -201 -202 -201 -199 -199 -199 -196 -199 -199 -201 -201 -201 -204 -205 -207 -205 -205 -204 -205 -208 -208 -208 -207 -208 -207 -208 -207 -205 -205 -201 -201 -204 -202 -204 -207 -208 -210 -211 -213 -217 -211 -210 -205 -201 -201 -198 -195 -193 -192 -195 -195 -195 -193 -193 -193 -193 -187 -184 -181 -183 -180 -178 -177 -177 -177 -177 -178 -178 -178 -177 -177 -177 -177 -174 -172 -174 -174 -171 -171 -171 -166 -168 -169 -171 -171 -171 -171 -169 -168 -171 -171 -165 -168 -166 -166 -169 -168 -168 -166 -169 -168 -166 -165 -162 -162 -159 -157 -153 -150 -153 -154 -153 -156 -157 -156 -157 -159 -156 -150 -148 -145 -138 -132 -123 -114 -109 -103 -96 -88 -85 -84 -82 -84 -84 -87 -91 -97 -100 -99 -100 -103 -105 -102 -100 -99 -96 -93 -91 -88 -85 -84 -84 -82 -81 -81 -84 -84 -84 -84 -87 -87 -87 -87 -84 -82 -84 -84 -84 -87 -87 -85 -85 -81 -82 -82 -81 -78 -78 -78 -78 -76 -73 -75 -75 -76 -70 -72 -72 -69 -69 -67 -61 -57 -55 -54 -54 -52 -46 -34 -24 -39 5 41 56 71 65 62 53 47 23 -23 -77 -32 -44 -145 -274 -433 -523 -566 -554 -578 -594 -518 -395 -293 -209 -155 -58 -40 -38 -31 14 59 77 65 69 69 54 15 20 8 -1 -10 -18 -22 -28 -31 -31 -34 -39 -40 -40 -37 -39 -39 -39 -39 -42 -42 -43 -42 -39 -40 -40 -39 -37 -33 -33 -36 -36 -36 -36 -34 -31 -30 -28 -25 -28 -27 -27 -25 -25 -27 -27 -27 -27 -22 -21 -21 -16 -16 -15 -12 -15 -15 -15 -15 -18 -18 -19 -19 -16 -16 -16 -16 -16 -16 -18 -16 -18 -16 -15 -16 -19 -18 -18 -21 -24 -22 -24 -24 -22 -25 -25 -24 -24 -25 -30 -31 -33 -36 -36 -37 -37 -37 -39 -34 -34 -34 -36 -37 -37 -39 -39 -40 -43 -40 -42 -43 -43 -45 -43 -40 -40 -42 -42 -39 -40 -40 -43 -40 -40 -43 -43 -43 -43 -40 -42 -42 -42 -40 -40 -42 -43 -40 -40 -40 -39 -36 -37 -37 -33 -34 -34 -34 -37 -37 -37 -34 -36 -37 -39 -39 -34 -36 -36 -34 -34 -33 -33 -30 -30 -30 -31 -31 -31 -33 -34 -31 -30 -30 -28 -31 -31 -31 -31 -33 -34 -37 -39 -40 -40 -42 -40 -44 -45 -48 -48 -48 -50 -48 -47 -47 -45 -42 -42 -45 -41 -45 -48 -45 -45 -47 -43 -38 -37 -35 -32 -26 -23 -16 -7 1 7 13 19 19 22 22 20 16 10 5 2 -2 -5 -9 -13 -16 -18 -16 -18 -16 -12 -9 -7 -7 -9 -9 -9 -10 -10 -12 -10 -12 -10 -10 -7 -7 -7 -6 -3 -3 -7 -7 -9 -4 -4 -4 -4 -4 2 3 3 5 5 3 3 3 3 3 2 0 0 3 2 3 0 3 8 9 12 12 14 17 27 39 47 42 74 110 111 125 93 120 121 112 67 46 47 80 19 -121 -262 -370 -413 -418 -434 -455 -398 -301 -190 -110 -52 1 98 80 92 140 178 192 181 169 174 153 121 106 91 78 67 57 51 43 37 34 34 34 33 33 34 30 30 33 33 27 27 27 24 24 26 30 30 31 31 34 36 36 34 37 37 37 37 36 36 34 36 37 36 37 40 40 40 40 39 37 37 40 37 39 43 43 45 42 42 39 39 39 37 37 37 37 40 40 40 37 37 34 31 29 29 26 21 17 17 14 11 8 5 3 0 0 0 0 -4 -6 -6 -6 -6 -7 -9 -9 -9 -4 -6 -7 -9 -9 -9 -7 -9 -7 -9 -7 -3 -5 -3 -3 -6 -6 -6 -5 -5 -2 -5 -5 -5 -3 -5 -5 -5 -6 -5 -8 -8 -8 -6 -5 -2 -2 -5 -6 -5 -6 -9 -7 -7 -5 -5 -5 -5 -5 -5 -5 -9 -9 -4 2 4 2 4 2 2 1 -1 -1 -5 -3 -3 -3 -3 1 1 -1 -5 -5 -5 -6 -2 -6 -9 -8 -5 -6 -6 -3 -3 -5 -4 -5 -11 -12 -15 -14 -17 -14 -14 -14 -17 -19 -25 -29 -26 -29 -25 -25 -20 -19 -17 -13 -14 -16 -19 -22 -23 -23 -23 -22 -17 -14 -11 -5 2 10 16 22 26 31 31 32 32 37 35 32 29 23 20 17 13 10 2 2 4 5 11 14 17 20 22 25 23 20 20 17 14 13 16 17 19 24 24 24 25 25 23 23 23 25 25 25 25 28 28 29 29 28 25 25 25 28 26 28 29 31 34 37 37 37 37 40 43 44 46 52 55 62 69 79 93 93 117 148 175 174 154 172 165 150 131 80 52 50 37 -40 -170 -307 -416 -428 -422 -425 -443 -394 -284 -176 -115 -43 52 92 95 97 118 161 188 202 178 183 176 154 149 140 130 124 116 113 110 109 101 98 97 97 95 97 97 97 100 100 100 100 98 98 101 100 101 100 101 103 103 106 106 106 109 110 110 110 107 110 113 116 118 118 121 121 124 124 125 125 124 125 127 127 128 131 133 133 136 136 136 137 139 139 142 142 145 142 142 143 140 140 140 142 140 143 146 145 143 146 145 145 143 142 140 142 143 143 142 140 140 140 140 143 139 137 137 137 137 136 140 137 137 136 131 131 127 125 124 122 122 122 124 122 121 124 121 121 124 122 119 119 121 121 119 115 115 113 112 112 107 101 98 97 91 83 77 73 73 68 67 65 62 61 58 58 56 53 56 58 59 59 56 55 52 52 52 47 46 46 47 46 49 47 43 43 43 43 43 40 41 38 40 38 37 32 26 23 22 22 19 19 17 16 14 11 11 2 -4 -8 -13 -19 -25 -32 -37 -40 -43 -49 -54 -56 -59 -63 -68 -66 -69 -74 -74 -72 -75 -72 -71 -68 -60 -56 -51 -47 -47 -48 -47 -48 -51 -55 -61 -69 -72 -73 -78 -82 -87 -90 -90 -88 -84 -81 -81 -76 -75 -76 -78 -79 -79 -82 -84 -88 -88 -91 -93 -96 -99 -97 -100 -100 -100 -103 -105 -105 -106 -108 -111 -106 -103 -103 -103 -105 -102 -102 -102 -105 -108 -109 -109 -109 -106 -109 -109 -111 -114 -112 -112 -106 -100 -97 -91 -87 -81 -70 -58 -48 -55 -25 5 35 39 32 12 20 12 -28 -89 -129 -138 -155 -246 -386 -528 -627 -660 -648 -669 -681 -618 -537 -426 -351 -287 -183 -156 -134 -138 -90 -36 0 5 15 5 8 -12 -21 -27 -33 -42 -48 -52 -58 -61 -61 -64 -67 -67 -63 -61 -58 -55 -54 -54 -51 -51 -52 -54 -54 -54 -54 -54 -54 -52 -51 -51 -51 -49 -49 -45 -45 -42 -42 -40 -39 -39 -37 -36 -33 -33 -30 -27 -27 -24 -21 -19 -19 -16 -15 -12 -13 -12 -12 -10 -12 -10 -10 -10 -7 -4 -3 -3 -1 -3 -3 -1 -1 5 2 3 3 5 3 3 5 2 2 2 2 2 2 2 2 2 2 -1 -3 0 0 2 2 2 5 6 5 3 3 0 -3 -3 -4 -6 -6 -7 -10 -10 -15 -15 -16 -18 -21 -22 -24 -27 -28 -25 -25 -28 -30 -27 -27 -27 -30 -31 -33 -31 -30 -31 -34 -36 -36 -36 -37 -37 -34 -33 -31 -28 -27 -27 -24 -21 -22 -22 -22 -25 -25 -30 -28 -28 -28 -28 -28 -28 -28 -28 -28 -28 -28 -28 -31 -34 -34 -36 -36 -36 -36 -36 -36 -36 -34 -37 -37 -42 -45 -47 -50 -50 -51 -53 -54 -54 -57 -54 -53 -54 -53 -54 -56 -57 -57 -62 -66 -66 -66 -66 -65 -62 -59 -57 -54 -46 -41 -32 -23 -19 -17 -13 -10 -10 -8 -11 -14 -20 -21 -23 -30 -33 -37 -37 -37 -40 -39 -36 -34 -34 -33 -33 -33 -33 -30 -30 -33 -31 -33 -33 -34 -33 -33 -31 -30 -31 -31 -33 -31 -31 -31 -34 -34 -34 -33 -33 -33 -33 -34 -33 -30 -30 -34 -34 -33 -31 -31 -30 -30 -28 -27 -31 -31 -27 -25 -22 -21 -16 -13 -6 8 21 35 42 78 102 114 117 105 114 89 53 31 -11 -34 -1 -56 -188 -355 -481 -532 -560 -563 -590 -553 -457 -352 -268 -226 -133 -58 -38 -31 -24 40 73 60 77 72 78 66 47 36 29 20 15 9 9 6 8 6 9 6 6 6 6 5 5 5 6 3 3 2 2 3 0 0 0 3 5 6 8 8 11 11 11 11 12 12 11 12 17 15 15 15 15 14 17 18 18 18 18 18 18 20 24 24 24 23 23 26 27 27 27 26 29 27 29 30 30 30 29 29 27 29 26 26 26 23 23 20 21 18 18 15 12 9 8 8 5 2 2 2 3 5 6 6 6 6 8 8 8 3 -1 -4 -3 -1 -1 -7 -4 -6 -7 -4 -7 -7 -9 -9 -12 -12 -15 -18 -19 -21 -22 -22 -22 -25 -27 -24 -27 -25 -25 -28 -30 -31 -33 -33 -31 -31 -31 -33 -33 -31 -28 -28 -28 -28 -28 -28 -28 -28 -25 -25 -25 -25 -25 -25 -27 -26 -26 -26 -24 -27 -27 -28 -28 -27 -30 -31 -34 -34 -34 -36 -36 -36 -31 -31 -28 -28 -27 -27 -27 -28 -33 -37 -39 -39 -38 -39 -42 -44 -42 -45 -45 -42 -42 -45 -42 -42 -41 -38 -35 -39 -35 -40 -44 -44 -47 -49 -52 -53 -49 -49 -44 -38 -34 -31 -23 -17 -8 -2 4 7 8 11 13 13 11 2 -4 -8 -9 -12 -18 -21 -25 -25 -24 -21 -19 -18 -15 -13 -13 -13 -15 -18 -22 -22 -22 -22 -21 -21 -22 -22 -22 -22 -21 -24 -25 -24 -25 -24 -22 -22 -22 -21 -19 -19 -19 -21 -19 -19 -19 -16 -16 -16 -13 -13 -12 -9 -6 -6 -6 -3 2 6 8 8 6 9 18 27 42 56 72 99 126 135 137 125 139 138 121 76 59 71 68 -13 -161 -301 -376 -409 -415 -424 -436 -350 -253 -146 -47 14 95 130 134 122 167 221 225 223 222 225 204 169 156 140 125 113 106 102 96 94 94 93 93 90 90 90 87 87 84 84 82 82 79 81 81 81 79 79 81 81 79 78 75 75 75 75 75 75 75 75 78 78 76 76 75 78 78 78 78 81 81 81 82 82 79 79 79 79 78 78 76 72 72 73 73 73 70 73 72 70 72 69 66 64 61 58 58 57 58 58 55 52 45 45 48 47 44 42 39 36 36 38 32 30 33 33 30 33 35 32 32 32 27 24 23 24 21 21 21 23 21 20 20 18 17 20 20 20 20 21 24 21 22 22 22 22 21 21 19 19 19 21 19 18 18 18 19 16 18 21 18 18 15 18 18 15 15 15 18 21 21 22 21 21 21 22 22 24 24 25 22 24 22 19 19 19 18 20 21 21 24 21 20 15 17 15 6 -3 -19 -31 -45 -58 -72 -87 -99 -109 -120 -129 -138 -147 -157 -169 -184 -178 -213 -229 -250 -256 -283 -304 -330 -358 -384 -399 -418 -453 -475 -514 -547 -577 -568 -540 -507 -459 -417 -406 -409 -388 -333 -261 -198 -193 -231 -259 -264 -196 -108 -18 17 35 -3 14 59 17 -67 -118 -142 -138 -138 -120 -100 -54 -46 14 27 56 80 116 123 137 136 142 150 150 156 157 152 158 166 158 157 160 158 157 161 158 163 167 169 173 176 179 182 185 188 191 194 199 203 206 214 218 221 227 232 238 244 250 254 262 265 269 272 275 280 283 290 296 302 310 317 322 326 328 334 338 340 341 338 341 340 340 338 337 337 335 334 334 331 326 322 317 311 308 304 301 293 286 283 275 265 257 244 233 223 215 209 205 200 196 191 187 179 170 163 152 148 140 134 130 122 119 113 110 107 101 98 97 94 89 89 89 86 83 83 83 83 82 80 77 80 76 77 73 70 70 68 68 69 63 66 67 66 67 64 66 66 63 60 58 60 60 58 55 55 57 60 58 58 58 58 57 57 57 60 57 58 60 60 61 63 61 58 58 57 57 54 54 54 58 58 55 54 55 55 58 61 60 60 60 60 58 55 54 52 51 51 51 51 52 54 54 52 55 57 54 55 51 48 46 46 42 40 37 37 39 39 39 39 39 35 35 35 32 30 26 26 26 21 21 21 21 18 17 17 18 17 15 14 14 12 9 8 8 5 5 3 0 0 0 0 0 3 5 5 8 8 5 9 8 9 6 8 6 6 8 8 5 5 9 11 12 9 5 5 7 3 0 -5 -7 -8 -10 -11 -14 -11 -11 -11 -11 -11 -8 -7 -7 -8 -5 -8 -13 -14 -17 -25 -28 -25 -23 -22 -16 -11 -10 1 7 17 26 35 43 46 49 55 55 56 49 44 41 37 32 29 26 23 23 25 26 28 29 35 38 38 40 44 43 43 43 43 40 43 43 43 43 43 43 43 43 38 40 40 40 38 37 40 40 41 40 40 41 46 44 44 43 44 47 49 46 47 47 47 44 44 44 46 49 49 49 50 55 64 73 90 90 121 153 184 189 171 154 154 130 74 8 -20 16 8 -109 -251 -362 -439 -460 -457 -475 -479 -410 -313 -259 -188 -107 -8 -2 -23 -8 35 69 78 83 99 93 91 81 69 63 57 51 45 38 33 27 24 17 15 12 12 12 11 11 11 9 8 9 9 6 9 9 8 9 8 9 11 9 8 2 3 2 3 3 -1 -1 0 0 62 59 49 44 34 28 17 11 4 -2 -10 -16 -18 -18 -17 -17 -17 -21 -21 -27 -33 -42 -43 -45 -48 -49 -49 -49 -49 -48 -45 -45 -48 -51 -52 -55 -55 -58 -58 -60 -60 -60 -57 -57 -57 -57 -57 -57 -57 -55 -55 -55 -57 -57 -60 -63 -64 -67 -67 -69 -67 -64 -64 -61 -66 -66 -72 -72 -78 -85 -94 -111 -132 -153 -169 -213 -255 -297 -301 -285 -267 -188 -65 103 251 322 365 527 731 935 1072 1115 1153 1154 1166 1073 931 791 667 514 334 181 134 73 -10 -113 -173 -191 -186 -164 -149 -105 -110 -96 -84 -74 -69 -65 -60 -57 -54 -54 -53 -53 -53 -53 -56 -57 -60 -60 -60 -60 -63 -63 -63 -63 -60 -57 -57 -60 -63 -63 -65 -65 -65 -65 -65 -65 -66 -65 -62 -68 -72 -71 -69 -69 -68 -69 -68 -71 -68 -65 -69 -71 -69 -69 -69 -66 -69 -71 -71 -69 -72 -74 -78 -80 -80 -80 -77 -77 -80 -80 -80 -80 -83 -81 -83 -84 -84 -84 -84 -84 -82 -82 -81 -79 -78 -73 -72 -73 -72 -72 -75 -78 -79 -79 -76 -75 -69 -63 -54 -48 -42 -36 -33 -33 -30 -25 -27 -21 -18 -15 -12 -6 0 1 4 4 4 7 10 7 4 5 5 5 4 4 4 8 10 8 8 7 4 7 10 10 13 17 23 26 28 29 29 31 31 31 29 28 26 26 19 19 16 14 14 13 10 13 18 21 24 31 34 40 44 50 56 59 64 65 65 71 70 71 77 80 80 83 89 94 95 101 110 113 116 119 122 122 122 122 121 119 115 110 101 98 92 85 77 67 58 50 40 32 23 17 11 5 2 -4 -6 -8 -8 -12 -14 -21 -24 -27 -28 -31 -37 -37 -40 -45 -45 -42 -39 -42 -39 -42 -42 -42 -42 -39 -39 -39 -40 -43 -43 -40 -43 -45 -49 -49 -49 -43 -40 -42 -43 -42 -40 -40 -39 -45 -48 -48 -48 -52 -55 -61 -69 -72 -78 -78 -82 -91 -103 -120 -137 -144 -187 -230 -258 -314 -306 -301 -264 -174 -32 160 328 367 464 607 802 992 1090 1130 1157 1156 1157 1088 961 809 688 562 358 244 175 122 37 -64 -125 -153 -164 -161 -149 -128 -108 -98 -90 -81 -77 -74 -72 -74 -74 -74 -74 -74 -71 -71 -71 -71 -68 -71 -71 -72 -75 -75 -75 -75 -70 -66 -66 -66 -67 -67 -69 -72 -75 -78 -78 -81 -76 -73 -76 -79 -79 -82 -82 -87 -87 -90 -90 -88 -88 -87 -87 -88 -94 -97 -100 -100 -100 -100 -97 -99 -97 -97 -100 -100 -105 -106 -109 -112 -118 -118 -117 -117 -117 -115 -115 -115 -112 -111 -112 -115 -115 -115 -120 -121 -123 -120 -120 -117 -115 -114 -109 -106 -108 -112 -114 -108 -105 -100 -97 -91 -84 -75 -75 -70 -69 -64 -63 -58 -52 -52 -46 -40 -31 -22 -16 -9 -5 -2 -2 -2 -3 -6 -12 -12 -10 -9 -9 -9 -5 -3 -6 -6 -9 -9 -10 -10 -9 -6 -6 0 3 3 1 -2 -2 -2 -4 -10 -10 -13 -12 -7 -10 -10 -12 -10 -9 -9 -9 -9 -1 3 3 6 12 16 19 22 22 21 27 28 31 36 43 48 49 55 60 63 72 75 79 79 90 97 106 108 114 117 118 120 117 109 105 99 93 81 70 64 55 48 37 24 16 9 1 -1 -4 -9 -13 -15 -22 -25 -31 -37 -43 -46 -49 -49 -49 -48 -54 -57 -58 -58 -58 -63 -64 -70 -70 -69 -69 -70 -76 -75 -76 -76 -76 -78 -76 -72 -73 -70 -70 -72 -72 -72 -72 -72 -70 -70 -70 -69 -64 -64 -61 -61 -60 -63 -66 -69 -75 -79 -81 -84 -90 -102 -115 -130 -148 -168 -205 -232 -283 -322 -303 -292 -246 -152 5 217 337 368 478 679 868 1045 1165 1210 1225 1231 1205 1120 962 805 682 523 328 251 167 115 17 -88 -141 -177 -175 -149 -144 -124 -108 -97 -91 -85 -81 -78 -79 -81 -82 -85 -85 -81 -84 -84 -84 -81 -81 -76 -76 -76 -73 -73 -76 -78 -79 -81 -81 -84 -87 -88 -88 -88 -88 -91 -88 -85 -81 -79 -81 -78 -78 -78 -81 -85 -91 -96 -96 -100 -103 -106 -105 -102 -102 -102 -100 -97 -91 -91 -91 -96 -97 -97 -99 -102 -102 -105 -105 -105 -103 -106 -109 -108 -111 -115 -118 -118 -120 -118 -117 -117 -117 -114 -115 -120 -123 -121 -120 -118 -118 -118 -120 -117 -117 -112 -111 -111 -105 -99 -96 -91 -84 -75 -73 -69 -64 -58 -52 -46 -40 -37 -30 -25 -25 -28 -28 -28 -25 -25 -25 -28 -24 -18 -18 -18 -14 -14 -14 -11 -11 -11 -11 -11 -11 -14 -11 -11 -11 -6 -6 -5 -5 -6 -5 -5 -8 -9 -9 -8 -8 -8 -8 -8 -8 -6 -9 -6 -6 -6 -3 -5 -2 1 4 7 9 12 18 24 30 28 31 37 40 45 51 51 51 54 57 61 67 73 76 83 89 98 101 104 104 104 101 101 97 92 88 88 83 80 77 71 65 59 50 37 29 23 17 11 1 -3 -8 -12 -13 -19 -25 -25 -33 -37 -40 -42 -40 -42 -45 -48 -49 -51 -51 -51 -51 -51 -46 -46 -42 -42 -39 -36 -36 -36 -40 -40 -40 -42 -42 -45 -48 -46 -46 -46 -45 -42 -42 -42 -42 -42 -42 -45 -45 -45 -45 -48 -49 -49 -55 -63 -64 -64 -70 -72 -78 -93 -108 -115 -132 -156 -201 -234 -261 -321 -288 -258 -191 -78 77 256 347 356 512 710 964 1126 1222 1253 1252 1241 1165 1025 850 694 574 385 224 176 109 20 -74 -146 -176 -191 -146 -125 -95 -92 -83 -74 -69 -68 -69 -71 -71 -72 -72 -66 -66 -66 -66 -66 -65 -63 -65 -66 -68 -71 -72 -72 -74 -77 -77 -74 -77 -78 -75 -75 -71 -71 -71 -71 -71 -68 -68 -68 -68 -68 -69 -69 -69 -71 -71 -68 -69 -69 -69 -69 -69 -71 -71 -77 -75 -74 -72 -72 -74 -74 -72 -72 -72 -78 -78 -78 -78 -78 -81 -81 -81 -81 -79 -79 -82 -81 -79 -81 -84 -84 -85 -88 -90 -94 -96 -97 -97 -97 -100 -100 -99 -100 -94 -94 -91 -88 -85 -82 -81 -75 -70 -73 -70 -70 -64 -60 -58 -55 -49 -43 -39 -36 -34 -34 -34 -31 -30 -30 -30 -25 -21 -19 -21 -21 -22 -24 -24 -22 -25 -25 -27 -24 -24 -22 -22 -22 -19 -21 -21 -17 -14 -12 -12 -14 -14 -15 -18 -19 -19 -19 -15 -15 -14 -14 -12 -15 -15 -15 -19 -18 -22 -24 -24 -24 -22 -21 -18 -19 -19 -16 -14 -11 -6 -6 -3 3 9 13 18 24 24 27 30 33 36 39 43 48 51 56 64 71 79 82 88 95 98 98 101 101 100 98 97 92 88 86 79 76 71 65 61 50 43 34 25 16 11 5 1 -2 -2 -5 -6 -11 -14 -16 -16 -22 -28 -33 -34 -31 -31 -36 -39 -37 -37 -36 -39 -40 -40 -40 -37 -40 -48 -49 -49 -48 -48 -48 -46 -46 -42 -42 -42 -42 -39 -37 -37 -40 -42 -42 -42 -45 -46 -46 -46 -48 -49 -48 -51 -51 -48 -51 -57 -60 -63 -63 -67 -79 -97 -117 -138 -159 -201 -238 -268 -310 -273 -243 -198 -78 86 241 305 314 440 671 916 1067 1139 1172 1177 1163 1100 964 779 628 503 319 169 106 38 -38 -122 -179 -200 -215 -165 -155 -120 -104 -90 -83 -77 -75 -71 -71 -74 -75 -75 -72 -70 -73 -73 -76 -76 -76 -76 -76 -78 -78 -78 -78 -78 -78 -75 -75 -73 -73 -72 -69 -66 -69 -70 -70 -70 -72 -69 -66 -66 -66 -63 -63 -63 -66 -69 -69 -69 -72 -72 -72 -69 -69 -71 -71 -71 -68 -68 -72 -75 -76 -76 -76 -79 -78 -78 -78 -75 -75 -75 -73 -72 -76 -78 -79 -81 -81 -78 -79 -79 -79 -76 -78 -81 -78 -76 -76 -75 -73 -73 -70 -66 -66 -67 -67 -67 -61 -61 -58 -55 -54 -48 -45 -39 -39 -34 -27 -24 -19 -19 -19 -15 -15 -15 -15 -15 -15 -12 -11 -11 -9 -6 -8 -8 -6 -6 -8 -5 -5 -8 -8 -5 -5 -5 -5 -3 3 1 1 1 4 7 7 7 6 7 7 10 10 7 10 13 12 12 9 6 6 9 7 1 0 3 3 1 0 0 -3 3 4 4 3 9 10 12 13 13 13 13 13 13 16 22 28 33 33 39 43 49 53 55 56 64 67 71 77 86 89 97 101 106 112 118 116 113 113 110 110 109 106 100 97 95 89 82 73 64 58 53 46 37 29 26 22 14 8 4 -2 -2 -5 -4 -4 -7 -10 -13 -14 -17 -23 -26 -30 -33 -33 -31 -30 -30 -30 -30 -28 -27 -30 -33 -33 -36 -39 -37 -37 -37 -37 -36 -39 -37 -36 -36 -36 -36 -37 -39 -39 -39 -43 -43 -46 -49 -49 -49 -48 -48 -48 -46 -49 -51 -51 -54 -57 -60 -72 -89 -108 -129 -154 -204 -228 -266 -307 -256 -257 -189 -83 64 227 331 319 419 599 847 997 1084 1145 1135 1138 1091 964 794 655 550 371 209 137 64 -4 -88 -173 -215 -203 -159 -155 -131 -117 -107 -98 -87 -81 -78 -74 -75 -72 -66 -63 -60 -60 -63 -66 -66 -69 -69 -72 -72 -72 -71 -74 -74 -71 -68 -65 -65 -68 -69 -69 -71 -72 -74 -72 -69 -66 -68 -66 -63 -63 -63 -66 -69 -72 -72 -72 -74 -75 -78 -77 -72 -71 -72 -72 -69 -71 -71 -71 -75 -75 -74 -74 -74 -72 -69 -69 -66 -66 -68 -71 -74 -80 -81 -84 -84 -83 -80 -80 -75 -72 -68 -68 -68 -65 -65 -71 -69 -72 -75 -72 -72 -72 -71 -68 -62 -56 -50 -44 -42 -37 -31 -25 -22 -20 -19 -17 -13 -13 -13 -13 -10 -11 -8 -5 -2 -2 4 10 11 11 14 13 11 8 4 1 1 1 4 2 7 10 16 19 19 14 11 11 11 8 8 8 10 13 14 17 17 17 20 20 22 19 17 16 14 14 10 8 5 5 5 5 2 -1 1 -1 -1 -1 1 2 5 8 11 14 17 20 23 26 29 29 29 31 34 37 40 43 43 49 55 55 59 59 58 62 65 68 73 80 89 101 113 122 127 133 136 134 136 136 133 131 127 121 116 107 104 95 88 85 80 73 67 59 52 43 35 28 20 14 14 8 8 8 10 7 5 5 4 4 -1 -4 -5 -7 -10 -11 -10 -16 -14 -17 -17 -19 -20 -19 -16 -16 -17 -20 -22 -26 -26 -30 -30 -30 -30 -27 -27 -27 -27 -28 -27 -28 -31 -34 -34 -34 -34 -33 -33 -34 -37 -40 -43 -46 -49 -52 -63 -78 -93 -115 -130 -168 -209 -263 -303 -306 -274 -242 -167 -5 172 317 376 448 605 809 1016 1132 1165 1189 1208 1186 1132 1076 928 799 682 485 316 235 179 103 11 -86 -153 -174 -140 -111 -92 -86 -80 -69 -59 -50 -44 -42 -42 -42 -36 -35 -38 -39 -39 -38 -35 -35 -35 -35 -35 -32 -29 -31 -25 -23 -20 -17 -17 -19 -16 -16 -16 -19 -20 -25 -23 -20 -16 -14 -17 -16 -8 -7 -7 -7 -4 -4 -1 1 1 1 2 5 1 -4 -1 -2 -1 -1 -1 2 1 5 5 4 7 8 8 5 4 4 7 11 11 14 13 11 13 13 7 5 5 4 2 4 10 16 19 26 28 26 26 29 29 32 37 40 47 52 61 65 71 76 80 83 94 97 107 113 121 125 134 142 145 148 155 158 161 164 167 169 173 182 184 188 190 193 199 200 202 205 205 206 208 211 215 215 218 220 221 223 227 227 227 232 236 239 244 242 244 247 253 254 253 251 254 259 263 265 266 265 272 277 278 280 284 283 284 290 290 287 292 295 295 301 307 314 322 331 337 341 347 352 355 362 368 376 383 394 400 406 415 421 430 437 446 457 467 475 481 488 490 493 493 494 494 493 493 487 482 473 467 458 443 431 418 406 395 383 371 358 347 335 323 308 296 286 274 260 250 238 226 218 214 205 199 193 185 178 175 167 160 154 149 140 139 133 127 122 116 115 106 101 97 94 91 88 85 80 74 68 62 58 50 47 44 43 38 34 34 29 23 16 7 -10 -16 -23 -31 -44 -51 -69 -90 -114 -144 -192 -233 -262 -295 -331 -307 -304 -228 -99 85 233 302 349 509 734 962 1081 1140 1165 1159 1159 1095 964 815 670 531 307 175 106 44 -39 -166 -247 -298 -309 -273 -288 -250 -244 -246 -243 -237 -234 -234 -234 -235 -235 -235 -238 -241 -247 -246 -250 -250 -258 -261 -265 -268 -270 -271 -273 -271 -273 -274 -274 -277 -276 -282 -283 -285 -289 -289 -292 -294 -292 -291 -291 -291 -297 -298 -300 -298 -304 -307 -309 -307 -310 -310 -313 -315 -318 -318 -322 -322 -325 -325 -328 -327 -327 -327 -325 -322 -321 -321 -324 -327 -328 -330 -333 -337 -340 -340 -336 -334 -340 -340 -343 -343 -340 -342 -342 -342 -340 -340 -340 -342 -340 -343 -343 -343 -345 -339 -334 -327 -327 -327 -321 -318 -310 -304 -300 -294 -286 -276 -271 -267 -261 -258 -256 -253 -252 -250 -246 -241 -241 -235 -234 -231 -225 -222 -219 -216 -213 -208 -207 -205 -205 -205 -201 -202 -204 -198 -196 -195 -195 -195 -193 -193 -189 -189 -192 -193 -190 -187 -189 -187 -186 -181 -181 -181 -178 -178 -174 -172 -172 -172 -172 -169 -168 -165 -165 -166 -166 -162 -162 -159 -156 -153 -148 -144 -144 -142 -141 -135 -135 -133 -127 -126 -121 -111 -109 -105 -99 -88 -87 -81 -75 -72 -67 -64 -58 -54 -51 -40 -33 -27 -16 -4 2 5 8 11 8 9 8 2 -1 -6 -10 -10 -18 -28 -34 -40 -48 -55 -61 -70 -73 -73 -75 -82 -90 -91 -94 -96 -102 -105 -108 -109 -111 -114 -115 -117 -120 -124 -127 -130 -130 -129 -129 -129 -129 -123 -123 -123 -123 -124 -123 -120 -120 -120 -118 -114 -112 -112 -117 -118 -118 -117 -118 -118 -118 -118 -117 -118 -115 -115 -117 -120 -117 -117 -118 -118 -121 -129 -133 -136 -139 -139 -147 -159 -178 -199 -196 -252 -310 -345 -388 -403 -375 -334 -250 -121 58 193 256 307 467 716 949 1084 1144 1160 1129 1104 1018 869 683 565 421 226 122 49 -22 -94 -184 -261 -282 -264 -232 -211 -160 -183 -172 -168 -163 -162 -162 -159 -157 -157 -156 -151 -148 -148 -150 -151 -151 -151 -151 -150 -150 -147 -145 -147 -144 -144 -142 -141 -141 -141 -139 -139 -139 -144 -147 -148 -147 -145 -147 -141 -139 -135 -133 -133 -135 -135 -135 -135 -135 -138 -138 -138 -138 -141 -142 -141 -141 -141 -141 -139 -139 -136 -136 -138 -138 -138 -138 -133 -133 -130 -133 -130 -133 -136 -138 -136 -139 -139 -138 -136 -139 -136 -136 -139 -138 -138 -141 -141 -138 -133 -135 -132 -130 -130 -127 -123 -123 -120 -120 -115 -111 -108 -105 -105 -102 -97 -94 -88 -85 -78 -75 -70 -67 -66 -67 -63 -60 -60 -61 -58 -58 -52 -54 -54 -52 -52 -52 -52 -54 -51 -51 -51 -49 -49 -46 -43 -45 -45 -45 -43 -45 -42 -42 -46 -43 -43 -43 -42 -42 -42 -39 -36 -37 -39 -39 -39 -36 -36 -39 -39 -42 -42 -43 -43 -43 -40 -40 -40 -37 -34 -31 -30 -30 -33 -31 -31 -31 -31 -33 -30 -24 -21 -18 -13 -6 -4 3 6 12 16 21 28 30 31 36 42 45 49 55 60 69 75 78 82 85 83 83 85 82 80 77 76 70 61 55 52 44 37 32 26 22 16 11 5 1 -7 -9 -12 -17 -18 -16 -18 -21 -22 -25 -30 -36 -39 -39 -40 -40 -40 -37 -37 -39 -42 -43 -46 -46 -52 -57 -61 -60 -61 -61 -57 -57 -54 -54 -49 -49 -49 -49 -52 -55 -55 -58 -58 -60 -60 -60 -60 -60 -57 -54 -54 -55 -52 -55 -54 -60 -64 -67 -69 -69 -76 -82 -99 -118 -133 -142 -205 -228 -276 -321 -280 -276 -209 -114 44 221 295 274 388 617 881 1057 1130 1180 1181 1138 1073 946 778 628 488 298 166 103 43 -58 -152 -201 -207 -224 -183 -155 -105 -116 -99 -90 -83 -80 -77 -75 -72 -71 -71 -71 -68 -68 -71 -69 -69 -68 -68 -63 -63 -63 -57 -57 -60 -62 -62 -65 -65 -66 -69 -69 -66 -68 -68 -68 -68 -65 -65 -62 -65 -68 -69 -72 -74 -74 -74 -74 -71 -68 -63 -60 -59 -62 -66 -66 -69 -68 -72 -71 -71 -71 -68 -68 -68 -68 -69 -69 -69 -68 -68 -66 -65 -66 -66 -64 -60 -55 -55 -54 -52 -51 -49 -51 -49 -49 -49 -49 -45 -42 -42 -42 -42 -43 -45 -45 -45 -49 -46 -43 -40 -36 -31 -30 -27 -25 -22 -21 -20 -17 -15 -15 -9 -5 -5 -3 -3 -5 1 1 1 -2 1 1 1 4 1 3 3 3 0 -3 -5 -5 -3 0 1 4 10 11 11 8 8 8 8 8 8 8 10 10 5 2 -1 -2 -5 -7 -7 -4 -1 -1 1 -2 -2 -2 -2 -4 -4 -1 1 1 1 4 2 0 1 -2 -3 0 0 -2 -2 1 5 8 13 16 22 26 32 31 35 35 41 44 52 56 59 65 70 74 79 85 95 100 107 110 116 122 125 125 125 122 118 116 115 112 106 100 97 89 85 80 76 68 59 46 40 32 25 19 11 8 8 10 11 7 4 1 -7 -13 -19 -25 -28 -29 -26 -25 -25 -23 -22 -23 -25 -28 -31 -36 -36 -36 -34 -29 -26 -26 -26 -25 -25 -25 -25 -26 -26 -29 -25 -22 -20 -20 -20 -22 -19 -17 -20 -23 -25 -26 -26 -26 -26 -28 -29 -32 -35 -38 -40 -50 -63 -80 -102 -102 -173 -186 -231 -282 -257 -266 -215 -140 -17 170 322 374 428 595 820 998 1127 1174 1207 1208 1204 1132 985 836 736 565 371 254 212 151 64 -41 -109 -118 -101 -116 -85 -53 -67 -58 -46 -43 -37 -35 -34 -31 -25 -19 -16 -16 -13 -11 -11 -11 -13 -13 -13 -13 -10 -5 -7 -4 -2 1 2 4 4 -2 -7 -7 -4 -2 -2 2 8 11 14 13 10 10 8 8 2 2 -1 -1 2 4 5 5 7 5 7 7 5 5 5 2 -1 -1 -2 -2 -4 -2 -2 -1 5 5 5 2 5 4 2 5 4 -2 1 1 4 7 10 7 4 4 2 1 1 1 1 -1 8 11 16 20 25 28 28 34 38 41 50 55 64 67 70 73 77 77 79 82 89 92 98 103 101 104 110 115 116 116 119 124 128 131 130 121 116 110 103 97 95 92 91 91 91 91 89 88 85 83 80 76 74 71 65 62 59 59 61 64 65 65 65 65 64 64 61 59 58 56 56 56 56 56 52 53 50 47 44 47 50 55 58 59 62 62 68 68 71 74 77 83 83 88 91 91 86 85 83 85 85 86 88 95 100 103 109 118 123 120 121 126 126 123 124 114 106 100 94 85 76 63 54 48 36 25 13 3 -7 -15 -22 -33 -37 -42 -46 -54 -63 -70 -79 -85 -90 -99 -102 -103 -105 -111 -115 -118 -120 -120 -124 -127 -129 -127 -130 -133 -136 -136 -136 -135 -136 -136 -138 -135 -133 -142 -148 -153 -157 -159 -160 -160 -160 -159 -157 -159 -159 -159 -160 -159 -159 -160 -159 -162 -166 -174 -186 -192 -199 -204 -211 -228 -243 -259 -249 -313 -337 -379 -438 -441 -424 -403 -303 -168 43 196 259 326 475 700 922 1030 1087 1122 1101 1102 1035 913 772 640 484 268 156 102 15 -67 -157 -238 -315 -304 -265 -249 -228 -223 -211 -208 -199 -192 -187 -184 -183 -183 -181 -180 -180 -184 -187 -189 -190 -189 -189 -186 -181 -178 -175 -175 -175 -175 -175 -175 -178 -181 -181 -177 -175 -175 -180 -175 -172 -168 -166 -165 -165 -163 -162 -163 -163 -165 -166 -166 -168 -169 -172 -172 -174 -177 -183 -180 -178 -178 -177 -174 -172 -172 -172 -174 -180 -178 -178 -181 -183 -183 -181 -181 -184 -183 -186 -190 -189 -186 -186 -189 -187 -187 -187 -187 -187 -187 -187 -187 -187 -187 -186 -183 -184 -184 -187 -187 -187 -184 -178 -171 -168 -159 -153 -147 -142 -135 -132 -127 -124 -118 -114 -105 -100 -93 -85 -79 -76 -69 -63 -60 -61 -61 -60 -61 -63 -63 -63 -61 -58 -55 -54 -52 -49 -48 -49 -49 -49 -51 -51 -52 -51 -49 -46 -45 -45 -42 -39 -40 -40 -40 -39 -39 -34 -37 -42 -42 -37 -37 -37 -37 -33 -33 -33 -33 -37 -36 -34 -34 -31 -31 -31 -27 -22 -18 -13 -12 -6 -6 4 10 13 19 19 22 25 28 33 39 42 43 51 57 64 72 75 79 88 97 102 102 106 108 106 105 102 100 94 89 80 71 67 64 55 49 40 28 20 15 9 3 -3 -6 -10 -10 -15 -19 -22 -25 -31 -34 -34 -37 -37 -37 -37 -39 -39 -37 -40 -42 -42 -39 -42 -42 -45 -48 -49 -49 -46 -49 -49 -49 -48 -48 -48 -51 -51 -51 -51 -48 -51 -52 -52 -48 -48 -51 -54 -54 -57 -57 -60 -63 -63 -63 -67 -70 -76 -79 -84 -90 -100 -118 -141 -163 -187 -228 -262 -309 -351 -313 -300 -244 -127 49 227 331 337 466 662 919 1103 1192 1231 1232 1214 1175 1060 899 754 629 448 280 196 118 40 -51 -126 -174 -202 -166 -135 -102 -115 -103 -97 -93 -93 -90 -94 -93 -96 -93 -94 -93 -93 -93 -93 -90 -90 -90 -93 -91 -91 -88 -88 -91 -90 -90 -90 -91 -90 -93 -96 -96 -97 -97 -97 -97 -96 -96 -97 -100 -100 -97 -97 -97 -97 -94 -91 -90 -90 -90 -90 -90 -90 -93 -97 -97 -97 -94 -94 -96 -99 -99 -99 -100 -106 -108 -111 -114 -114 -114 -115 -115 -112 -115 -114 -114 -114 -112 -112 -111 -114 -112 -112 -111 -114 -112 -114 -114 -112 -111 -111 -111 -109 -108 -106 -106 -106 -102 -96 -96 -96 -87 -82 -76 -75 -73 -73 -66 -63 -60 -57 -58 -52 -52 -49 -49 -43 -43 -42 -36 -33 -30 -27 -27 -27 -25 -22 -24 -22 -21 -21 -19 -16 -18 -19 -19 -18 -18 -18 -15 -15 -13 -10 -10 -10 -10 -10 -10 -10 -10 -12 -12 -12 -12 -12 -12 -8 -6 -6 -6 -9 -8 -8 -10 -10 -13 -12 -13 -12 -12 -12 -9 -9 -9 -13 -13 -15 -15 -18 -18 -18 -15 -10 -6 -2 3 9 12 18 25 31 37 42 40 40 46 49 54 55 58 61 70 73 82 91 95 101 104 106 109 104 104 100 97 92 91 85 82 77 74 71 65 58 47 40 31 20 16 10 3 -3 -6 -8 -11 -12 -16 -19 -25 -28 -31 -37 -40 -40 -40 -42 -45 -45 -49 -49 -49 -52 -57 -58 -58 -54 -54 -57 -55 -57 -60 -57 -60 -63 -63 -63 -66 -69 -69 -69 -66 -64 -64 -64 -66 -61 -61 -63 -63 -66 -67 -69 -69 -69 -70 -75 -79 -82 -82 -84 -90 -103 -117 -138 -165 -184 -229 -274 -328 -349 -321 -276 -197 -96 85 235 269 311 469 730 937 1069 1166 1183 1160 1153 1076 908 731 610 437 253 139 85 10 -49 -121 -173 -215 -189 -168 -135 -116 -102 -89 -77 -71 -74 -75 -72 -74 -74 -71 -71 -69 -69 -69 -68 -68 -66 -66 -68 -68 -66 -65 -65 -65 -66 -66 -69 -74 -75 -72 -71 -71 -71 -71 -71 -71 -71 -71 -72 -72 -69 -69 -66 -68 -68 -68 -68 -74 -74 -74 -72 -72 -71 -71 -71 -71 -72 -77 -78 -78 -78 -81 -81 -86 -84 -90 -92 -93 -96 -95 -93 -95 -98 -96 -96 -98 -101 -101 -104 -102 -99 -99 -105 -106 -109 -111 -109 -112 -112 -115 -112 -109 -111 -111 -109 -111 -109 -108 -108 -103 -99 -93 -90 -88 -82 -78 -73 -72 -69 -66 -61 -58 -55 -57 -57 -57 -57 -55 -57 -51 -47 -47 -47 -47 -44 -44 -41 -41 -41 -44 -41 -38 -38 -38 -36 -35 -38 -39 -38 -38 -32 -33 -33 -32 -32 -32 -33 -35 -35 -38 -35 -35 -35 -38 -38 -41 -41 -44 -42 -45 -42 -41 -41 -41 -45 -48 -51 -51 -57 -55 -57 -57 -60 -57 -52 -52 -46 -45 -40 -40 -36 -33 -36 -33 -30 -25 -21 -16 -13 -16 -13 -12 -15 -31 -12 -40 -36 -57 -82 -70 -73 -75 -90 -79 -70 -78 -88 -91 -123 -171 -223 -292 -322 -361 -400 -505 -553 -643 -729 -742 -717 -705 -682 -768 -895 -1026 -1054 -1036 -948 -936 -922 -775 -616 -501 -412 -345 -295 -286 -271 -279 -289 -274 -265 -277 -289 -316 -318 -286 -248 -224 -198 -162 -138 -114 -64 -22 -55 -35 -23 -16 -8 4 8 14 19 23 25 25 28 31 34 37 35 38 41 46 46 49 47 52 59 61 65 67 68 70 74 73 76 80 88 91 95 103 106 112 118 121 124 133 142 148 154 163 173 184 199 206 218 232 248 260 269 281 289 298 308 317 326 335 347 358 367 373 379 385 391 397 400 401 406 409 412 413 407 403 398 389 380 371 364 355 343 332 314 302 287 269 253 232 217 200 184 169 152 137 125 112 98 89 77 65 52 38 25 10 -1 -17 -28 -32 -40 -44 -47 -52 -53 -53 -59 -60 -66 -69 -71 -74 -77 -80 -80 -78 -77 -78 -81 -81 -78 -77 -77 -80 -81 -78 -78 -78 -78 -75 -71 -71 -77 -75 -78 -81 -81 -84 -87 -89 -83 -83 -84 -84 -83 -83 -83 -83 -83 -81 -78 -81 -81 -83 -89 -90 -90 -90 -90 -87 -81 -78 -80 -81 -81 -81 -81 -84 -87 -87 -84 -86 -84 -83 -86 -86 -84 -86 -86 -81 -78 -77 -77 -75 -75 -71 -71 -75 -78 -78 -78 -76 -78 -78 -78 -78 -73 -73 -73 -73 -67 -64 -64 -67 -64 -61 -58 -58 -60 -58 -55 -55 -54 -54 -55 -54 -54 -54 -54 -54 -55 -54 -54 -55 -55 -49 -49 -46 -45 -43 -42 -39 -34 -33 -33 -31 -31 -31 -34 -37 -36 -27 -27 -23 -14 -8 1 11 19 22 25 31 29 34 38 43 47 50 56 61 68 71 77 86 98 104 115 121 124 125 127 124 119 116 109 106 98 94 85 79 73 67 55 46 34 26 17 10 5 1 -2 -1 1 1 -2 -5 -8 -11 -19 -25 -25 -28 -32 -29 -29 -29 -29 -23 -25 -25 -25 -25 -25 -25 -25 -25 -25 -23 -23 -23 -25 -22 -23 -23 -22 -19 -19 -22 -22 -19 -14 -11 -14 -16 -14 -8 -7 -7 -11 -10 -10 -10 -17 -23 -23 -23 -26 -35 -49 -63 -87 -96 -132 -168 -240 -272 -267 -270 -225 -141 2 211 344 358 409 598 829 992 1096 1156 1145 1132 1136 1070 943 799 689 523 316 218 166 118 22 -99 -178 -183 -173 -161 -144 -101 -117 -110 -107 -104 -103 -102 -102 -103 -102 -96 -93 -91 -91 -91 -88 -88 -88 -90 -91 -94 -94 -93 -99 -99 -100 -103 -105 -103 -102 -103 -100 -97 -100 -102 -105 -105 -109 -114 -117 -121 -148 -151 -160 -163 -166 -166 -169 -169 -169 -169 -169 -169 -169 -169 -169 -169 -169 -175 -175 -181 -181 -181 -184 -184 -184 -187 -187 -187 -187 -190 -190 -190 -187 -184 -184 -178 -178 -175 -175 -175 -175 -175 -175 -178 -181 -181 -181 -184 -184 -187 -187 -184 -172 -160 -145 -133 -118 -103 -88 -73 -67 -61 -58 -58 -58 -61 -64 -67 -67 -73 -76 -79 -79 -73 -79 -88 -79 -133 -166 -205 -226 -298 -385 -415 -424 -481 -424 -142 -58 26 234 291 318 258 129 -13 -85 20 2 -4 -1 8 14 17 20 14 2 -1 -1 2 11 17 20 23 26 26 23 20 20 14 11 8 5 5 5 5 5 5 5 8 8 11 14 17 20 23 26 29 32 35 35 38 41 41 41 41 41 41 38 41 41 41 45 48 45 48 48 51 51 54 57 63 69 72 78 78 81 81 84 90 96 102 108 114 120 126 129 132 132 135 138 141 144 147 153 153 153 150 150 150 150 150 150 147 147 147 144 141 132 129 126 126 126 123 123 120 117 114 111 105 105 105 108 111 111 111 111 114 117 117 120 120 126 132 138 141 144 144 150 156 156 156 159 162 165 165 165 165 165 165 165 165 168 168 168 168 165 165 165 162 162 165 165 165 165 165 162 162 159 156 156 159 162 165 168 168 165 165 165 165 165 165 165 171 171 177 183 189 192 198 204 210 222 228 231 231 231 225 222 216 210 201 195 189 177 168 156 144 135 123 117 111 108 108 108 108 102 99 99 96 96 96 96 96 96 99 102 102 105 111 117 120 120 123 126 126 126 126 123 123 126 126 129 132 135 135 135 132 132 132 132 132 135 141 144 147 150 150 147 147 147 147 144 141 141 138 141 141 141 141 141 141 138 138 135 135 135 135 135 135 135 129 129 126 120 111 105 99 93 93 93 90 99 96 96 41 5 -4 -70 -136 -232 -256 -280 -352 -253 35 126 339 435 531 546 471 324 177 213 183 162 150 150 159 165 168 168 153 138 132 129 129 132 138 144 144 144 138 132 129 123 120 114 108 108 108 108 108 111 111 111 114 117 117 117 117 117 114 114 111 111 111 111 114 120 120 120 123 123 120 120 120 120 120 126 129 129 129 132 129 126 126 120 120 120 123 123 126 129 129 132 132 135 138 141 141 144 147 150 150 150 147 147 147 150 150 150 150 147 147 147 144 144 144 144 144 144 144 144 138 135 132 123 117 117 111 108 105 99 93 90 84 81 81 84 84 90 96 96 96 96 96 99 99 102 111 117 126 129 132 135 138 138 138 141 147 150 156 162 165 165 165 162 162 162 165 168 168 168 168 168 168 168 168 168 168 168 168 168 168 168 165 165 165 165 165 168 168 168 168 171 168 168 168 171 174 177 180 183 183 186 192 198 204 210 216 222 228 231 231 228 225 216 210 204 192 183 171 159 147 135 123 114 105 102 102 96 96 96 93 84 78 75 72 72 72 72 72 72 75 78 81 81 87 90 96 99 102 102 102 99 96 93 90 90 93 93 96 99 102 102 105 105 102 102 105 105 102 102 96 96 96 96 93 93 93 93 93 93 90 90 90 87 84 84 87 90 90 90 87 84 84 81 78 75 69 63 57 51 48 41 38 35 32 35 41 35 29 -10 -43 -85 -127 -172 -256 -310 -349 -394 -451 -151 -70 14 99 315 366 372 297 147 11 96 75 60 57 66 81 90 90 87 75 66 66 66 72 72 75 81 81 78 72 63 57 51 48 41 41 41 41 45 45 41 41 41 41 41 38 38 41 41 41 45 45 48 48 48 51 51 57 57 57 57 57 57 54 54 54 54 54 54 54 51 51 51 48 45 45 45 45 48 51 51 51 51 51 51 48 48 48 51 54 54 51 48 45 45 41 41 41 38 38 38 35 32 29 26 23 23 23 17 14 8 5 -4 -10 -16 -25 -31 -34 -34 -37 -43 -46 -52 -55 -58 -58 -58 -55 -52 -49 -43 -43 -40 -40 -37 -34 -31 -28 -22 -19 -16 -13 -10 -10 -7 -4 2 11 17 17 20 20 20 20 20 17 17 17 17 20 20 20 20 17 17 14 17 17 20 23 23 23 23 23 20 20 23 23 26 26 26 26 26 26 23 23 26 29 32 38 41 45 45 48 51 54 60 66 69 75 78 81 81 81 78 72 69 60 54 45 35 23 11 -1 -13 -22 -31 -34 -34 -37 -37 -37 -37 -40 -40 -43 -43 -43 -43 -43 -43 -40 -37 -34 -31 -28 -25 -22 -19 -16 -13 -13 -13 -16 -16 -19 -19 -19 -19 -16 -13 -13 -10 -10 -7 -7 -4 -1 -1 5 5 5 5 5 5 5 5 5 8 8 11 14 14 11 11 8 8 8 5 5 5 5 5 5 5 5 5 5 2 -1 -4 -7 -13 -19 -25 -31 -34 -34 -34 -28 -49 -40 -88 -118 -160 -181 -253 -328 -388 -394 -463 -475 -178 -100 -25 174 258 276 219 96 -34 -103 17 11 11 26 41 57 69 72 63 48 45 45 51 54 54 60 63 63 63 57 48 41 38 35 32 32 32 32 35 35 38 41 41 41 41 45 45 48 51 51 51 51 51 54 54 57 60 60 63 66 69 69 69 72 75 75 78 78 78 78 78 78 75 75 72 72 72 75 78 78 78 81 81 81 81 84 87 87 90 90 90 90 87 87 84 84 84 84 81 81 81 78 75 72 72 69 69 69 66 66 63 57 54 45 41 38 35 32 29 26 23 17 14 11 11 11 11 14 17 20 23 23 26 26 26 32 35 38 41 45 48 48 51 51 51 54 57 60 60 63 63 63 63 63 63 63 66 69 69 72 72 72 72 69 66 66 66 66 66 69 69 69 69 69 69 69 69 69 69 69 69 69 69 69 66 66 66 66 66 66 69 69 69 69 69 69 72 78 81 81 84 87 90 93 99 102 105 111 114 117 120 120 120 117 117 111 105 99 93 84 72 60 48 38 32 23 17 11 8 5 2 -1 -4 -7 -7 -7 -7 -1 -1 2 2 2 -1 -4 -4 -4 -4 -1 2 5 8 11 14 14 11 11 11 11 11 11 11 11 14 14 17 20 20 23 23 23 26 26 26 26 26 26 26 29 29 29 32 32 32 29 29 26 26 26 26 29 26 26 26 23 23 20 17 17 14 11 8 5 2 -4 -7 -10 -16 -16 -13 -13 -31 -22 -73 -109 -148 -172 -253 -325 -370 -379 -463 -445 -160 -85 -13 186 264 267 195 66 -58 -103 5 -4 -4 8 23 38 48 48 41 35 35 38 45 48 51 51 54 54 51 45 41 35 26 20 17 14 14 14 14 11 11 11 8 8 8 8 5 5 5 5 5 5 5 5 5 8 11 11 14 14 14 14 14 14 11 11 11 14 14 14 14 14 17 17 14 14 17 17 17 17 17 20 20 20 20 20 20 20 20 20 23 23 23 23 23 23 23 20 14 14 11 8 5 2 2 2 -1 -4 -10 -13 -19 -22 -28 -34 -37 -43 -49 -55 -61 -67 -73 -79 -85 -88 -91 -94 -97 -100 -103 -106 -109 -109 -112 -112 -112 -112 -112 -109 -109 -109 -109 -112 -112 -112 -115 -115 -115 -121 -121 -121 -124 -127 -127 -130 -133 -133 -136 -139 -139 -142 -145 -148 -151 -154 -154 -154 -157 -160 -160 -163 -166 -169 -169 -169 -169 -169 -172 -175 -178 -181 -181 -184 -187 -190 -193 -193 -193 -193 -196 -202 -202 -205 -205 -208 -211 -211 -211 -211 -211 -211 -208 -208 -208 -208 -208 -205 -202 -202 -199 -199 -199 -196 -196 -193 -193 -193 -190 -190 -193 -199 -208 -214 -220 -232 -244 -256 -268 -280 -289 -298 -307 -319 -325 -328 -334 -337 -337 -340 -343 -346 -352 -355 -355 -361 -364 -364 -367 -367 -367 -364 -361 -361 -358 -358 -358 -355 -355 -352 -349 -349 -349 -346 -343 -343 -340 -337 -337 -340 -337 -334 -334 -331 -328 -322 -319 -313 -310 -307 -304 -304 -301 -298 -298 -298 -298 -298 -298 -298 -298 -295 -295 -292 -292 -289 -286 -286 -283 -286 -286 -286 -289 -292 -295 -301 -304 -310 -316 -319 -322 -325 -328 -334 -322 -328 -346 -346 -391 -421 -463 -496 -541 -625 -679 -673 -739 -760 -460 -379 -295 -97 -7 32 -7 -124 -271 -406 -280 -304 -316 -319 -310 -304 -298 -298 -310 -331 -340 -340 -334 -325 -322 -316 -313 -307 -307 -301 -316 -328 -349 -349 -352 -340 -355 -139 -88 60 87 117 141 174 180 186 204 219 225 237 252 261 267 276 285 294 303 309 312 318 324 330 330 333 336 339 342 345 348 348 348 348 351 354 351 351 351 348 348 348 345 342 342 342 339 339 339 339 342 342 336 336 336 333 333 333 330 324 321 315 309 306 300 294 291 288 285 282 279 276 270 267 264 261 255 255 249 243 231 222 213 201 195 192 186 183 183 183 183 180 177 174 174 177 189 207 231 255 282 312 339 363 387 402 414 423 432 438 441 447 450 453 456 459 459 459 465 465 465 462 459 459 459 459 459 459 456 